Created as New Dataset,Sample 1095 By YargerLab Date Saturday, September 26 2026
cm-1,A
4000.00,0.0074
3999.00,0.0074
3998.00,0.0074
3997.00,0.0075
3996.00,0.0075
3995.00,0.0075
3994.00,0.0075
3993.00,0.0075
3992.00,0.0075
3991.00,0.0075
3990.00,0.0075
3989.00,0.0075
3988.00,0.0075
3987.00,0.0074
3986.00,0.0074
3985.00,0.0074
3984.00,0.0074
3983.00,0.0074
3982.00,0.0075
3981.00,0.0075
3980.00,0.0075
3979.00,0.0075
3978.00,0.0075
3977.00,0.0075
3976.00,0.0075
3975.00,0.0075
3974.00,0.0075
3973.00,0.0075
3972.00,0.0075
3971.00,0.0075
3970.00,0.0074
3969.00,0.0074
3968.00,0.0074
3967.00,0.0074
3966.00,0.0074
3965.00,0.0074
3964.00,0.0074
3963.00,0.0074
3962.00,0.0074
3961.00,0.0074
3960.00,0.0074
3959.00,0.0074
3958.00,0.0074
3957.00,0.0074
3956.00,0.0074
3955.00,0.0074
3954.00,0.0074
3953.00,0.0074
3952.00,0.0074
3951.00,0.0074
3950.00,0.0074
3949.00,0.0074
3948.00,0.0074
3947.00,0.0074
3946.00,0.0075
3945.00,0.0075
3944.00,0.0075
3943.00,0.0075
3942.00,0.0075
3941.00,0.0074
3940.00,0.0074
3939.00,0.0075
3938.00,0.0075
3937.00,0.0075
3936.00,0.0075
3935.00,0.0075
3934.00,0.0075
3933.00,0.0074
3932.00,0.0074
3931.00,0.0074
3930.00,0.0074
3929.00,0.0074
3928.00,0.0074
3927.00,0.0074
3926.00,0.0074
3925.00,0.0074
3924.00,0.0074
3923.00,0.0074
3922.00,0.0074
3921.00,0.0074
3920.00,0.0074
3919.00,0.0074
3918.00,0.0074
3917.00,0.0074
3916.00,0.0074
3915.00,0.0074
3914.00,0.0073
3913.00,0.0073
3912.00,0.0073
3911.00,0.0073
3910.00,0.0073
3909.00,0.0074
3908.00,0.0074
3907.00,0.0074
3906.00,0.0074
3905.00,0.0075
3904.00,0.0074
3903.00,0.0074
3902.00,0.0074
3901.00,0.0074
3900.00,0.0073
3899.00,0.0073
3898.00,0.0073
3897.00,0.0073
3896.00,0.0073
3895.00,0.0073
3894.00,0.0073
3893.00,0.0073
3892.00,0.0073
3891.00,0.0073
3890.00,0.0074
3889.00,0.0074
3888.00,0.0074
3887.00,0.0074
3886.00,0.0074
3885.00,0.0073
3884.00,0.0073
3883.00,0.0073
3882.00,0.0072
3881.00,0.0072
3880.00,0.0073
3879.00,0.0073
3878.00,0.0072
3877.00,0.0072
3876.00,0.0073
3875.00,0.0073
3874.00,0.0073
3873.00,0.0073
3872.00,0.0073
3871.00,0.0073
3870.00,0.0073
3869.00,0.0073
3868.00,0.0073
3867.00,0.0073
3866.00,0.0073
3865.00,0.0073
3864.00,0.0072
3863.00,0.0072
3862.00,0.0072
3861.00,0.0072
3860.00,0.0072
3859.00,0.0073
3858.00,0.0073
3857.00,0.0073
3856.00,0.0074
3855.00,0.0073
3854.00,0.0073
3853.00,0.0073
3852.00,0.0073
3851.00,0.0073
3850.00,0.0072
3849.00,0.0072
3848.00,0.0071
3847.00,0.0071
3846.00,0.0071
3845.00,0.0071
3844.00,0.0071
3843.00,0.0072
3842.00,0.0072
3841.00,0.0072
3840.00,0.0072
3839.00,0.0072
3838.00,0.0072
3837.00,0.0072
3836.00,0.0072
3835.00,0.0072
3834.00,0.0072
3833.00,0.0072
3832.00,0.0072
3831.00,0.0071
3830.00,0.0071
3829.00,0.0071
3828.00,0.0071
3827.00,0.0071
3826.00,0.0071
3825.00,0.0071
3824.00,0.0071
3823.00,0.0071
3822.00,0.0071
3821.00,0.0072
3820.00,0.0072
3819.00,0.0072
3818.00,0.0072
3817.00,0.0072
3816.00,0.0072
3815.00,0.0072
3814.00,0.0072
3813.00,0.0071
3812.00,0.0071
3811.00,0.0071
3810.00,0.0071
3809.00,0.0071
3808.00,0.0071
3807.00,0.0072
3806.00,0.0072
3805.00,0.0072
3804.00,0.0071
3803.00,0.0071
3802.00,0.0071
3801.00,0.0071
3800.00,0.0071
3799.00,0.0071
3798.00,0.0070
3797.00,0.0070
3796.00,0.0070
3795.00,0.0070
3794.00,0.0070
3793.00,0.0071
3792.00,0.0071
3791.00,0.0071
3790.00,0.0071
3789.00,0.0071
3788.00,0.0071
3787.00,0.0071
3786.00,0.0071
3785.00,0.0071
3784.00,0.0071
3783.00,0.0071
3782.00,0.0071
3781.00,0.0071
3780.00,0.0071
3779.00,0.0071
3778.00,0.0071
3777.00,0.0071
3776.00,0.0071
3775.00,0.0070
3774.00,0.0070
3773.00,0.0071
3772.00,0.0071
3771.00,0.0071
3770.00,0.0071
3769.00,0.0071
3768.00,0.0071
3767.00,0.0071
3766.00,0.0071
3765.00,0.0071
3764.00,0.0071
3763.00,0.0071
3762.00,0.0071
3761.00,0.0071
3760.00,0.0071
3759.00,0.0071
3758.00,0.0071
3757.00,0.0071
3756.00,0.0071
3755.00,0.0071
3754.00,0.0072
3753.00,0.0072
3752.00,0.0072
3751.00,0.0072
3750.00,0.0072
3749.00,0.0071
3748.00,0.0071
3747.00,0.0071
3746.00,0.0071
3745.00,0.0071
3744.00,0.0071
3743.00,0.0071
3742.00,0.0070
3741.00,0.0070
3740.00,0.0069
3739.00,0.0070
3738.00,0.0070
3737.00,0.0070
3736.00,0.0069
3735.00,0.0069
3734.00,0.0069
3733.00,0.0069
3732.00,0.0069
3731.00,0.0069
3730.00,0.0069
3729.00,0.0069
3728.00,0.0069
3727.00,0.0068
3726.00,0.0068
3725.00,0.0068
3724.00,0.0068
3723.00,0.0069
3722.00,0.0069
3721.00,0.0069
3720.00,0.0069
3719.00,0.0069
3718.00,0.0069
3717.00,0.0069
3716.00,0.0070
3715.00,0.0070
3714.00,0.0070
3713.00,0.0069
3712.00,0.0069
3711.00,0.0069
3710.00,0.0068
3709.00,0.0068
3708.00,0.0068
3707.00,0.0068
3706.00,0.0068
3705.00,0.0068
3704.00,0.0068
3703.00,0.0068
3702.00,0.0068
3701.00,0.0068
3700.00,0.0068
3699.00,0.0068
3698.00,0.0068
3697.00,0.0068
3696.00,0.0068
3695.00,0.0069
3694.00,0.0069
3693.00,0.0069
3692.00,0.0069
3691.00,0.0069
3690.00,0.0069
3689.00,0.0069
3688.00,0.0069
3687.00,0.0069
3686.00,0.0069
3685.00,0.0069
3684.00,0.0069
3683.00,0.0069
3682.00,0.0069
3681.00,0.0069
3680.00,0.0069
3679.00,0.0069
3678.00,0.0069
3677.00,0.0069
3676.00,0.0070
3675.00,0.0070
3674.00,0.0070
3673.00,0.0070
3672.00,0.0070
3671.00,0.0070
3670.00,0.0071
3669.00,0.0071
3668.00,0.0071
3667.00,0.0071
3666.00,0.0071
3665.00,0.0071
3664.00,0.0071
3663.00,0.0071
3662.00,0.0071
3661.00,0.0072
3660.00,0.0073
3659.00,0.0073
3658.00,0.0074
3657.00,0.0074
3656.00,0.0075
3655.00,0.0076
3654.00,0.0076
3653.00,0.0077
3652.00,0.0077
3651.00,0.0078
3650.00,0.0078
3649.00,0.0079
3648.00,0.0080
3647.00,0.0081
3646.00,0.0081
3645.00,0.0082
3644.00,0.0082
3643.00,0.0082
3642.00,0.0083
3641.00,0.0083
3640.00,0.0084
3639.00,0.0085
3638.00,0.0086
3637.00,0.0086
3636.00,0.0087
3635.00,0.0088
3634.00,0.0090
3633.00,0.0091
3632.00,0.0092
3631.00,0.0093
3630.00,0.0094
3629.00,0.0095
3628.00,0.0096
3627.00,0.0097
3626.00,0.0098
3625.00,0.0098
3624.00,0.0099
3623.00,0.0099
3622.00,0.0100
3621.00,0.0101
3620.00,0.0102
3619.00,0.0103
3618.00,0.0105
3617.00,0.0106
3616.00,0.0107
3615.00,0.0108
3614.00,0.0108
3613.00,0.0109
3612.00,0.0110
3611.00,0.0111
3610.00,0.0112
3609.00,0.0113
3608.00,0.0114
3607.00,0.0115
3606.00,0.0115
3605.00,0.0116
3604.00,0.0116
3603.00,0.0117
3602.00,0.0117
3601.00,0.0118
3600.00,0.0119
3599.00,0.0120
3598.00,0.0121
3597.00,0.0122
3596.00,0.0123
3595.00,0.0124
3594.00,0.0125
3593.00,0.0126
3592.00,0.0127
3591.00,0.0128
3590.00,0.0128
3589.00,0.0129
3588.00,0.0131
3587.00,0.0133
3586.00,0.0134
3585.00,0.0135
3584.00,0.0135
3583.00,0.0136
3582.00,0.0136
3581.00,0.0137
3580.00,0.0138
3579.00,0.0139
3578.00,0.0140
3577.00,0.0141
3576.00,0.0142
3575.00,0.0143
3574.00,0.0144
3573.00,0.0146
3572.00,0.0147
3571.00,0.0148
3570.00,0.0149
3569.00,0.0150
3568.00,0.0151
3567.00,0.0153
3566.00,0.0155
3565.00,0.0156
3564.00,0.0157
3563.00,0.0158
3562.00,0.0158
3561.00,0.0159
3560.00,0.0160
3559.00,0.0161
3558.00,0.0162
3557.00,0.0163
3556.00,0.0164
3555.00,0.0165
3554.00,0.0166
3553.00,0.0167
3552.00,0.0168
3551.00,0.0169
3550.00,0.0171
3549.00,0.0172
3548.00,0.0173
3547.00,0.0174
3546.00,0.0176
3545.00,0.0177
3544.00,0.0178
3543.00,0.0179
3542.00,0.0180
3541.00,0.0180
3540.00,0.0181
3539.00,0.0182
3538.00,0.0183
3537.00,0.0185
3536.00,0.0186
3535.00,0.0187
3534.00,0.0187
3533.00,0.0188
3532.00,0.0189
3531.00,0.0190
3530.00,0.0191
3529.00,0.0192
3528.00,0.0194
3527.00,0.0195
3526.00,0.0196
3525.00,0.0197
3524.00,0.0198
3523.00,0.0199
3522.00,0.0200
3521.00,0.0201
3520.00,0.0202
3519.00,0.0203
3518.00,0.0204
3517.00,0.0205
3516.00,0.0206
3515.00,0.0207
3514.00,0.0208
3513.00,0.0209
3512.00,0.0210
3511.00,0.0211
3510.00,0.0212
3509.00,0.0213
3508.00,0.0214
3507.00,0.0215
3506.00,0.0216
3505.00,0.0217
3504.00,0.0219
3503.00,0.0220
3502.00,0.0222
3501.00,0.0223
3500.00,0.0224
3499.00,0.0224
3498.00,0.0225
3497.00,0.0226
3496.00,0.0228
3495.00,0.0229
3494.00,0.0230
3493.00,0.0231
3492.00,0.0232
3491.00,0.0233
3490.00,0.0234
3489.00,0.0235
3488.00,0.0237
3487.00,0.0238
3486.00,0.0239
3485.00,0.0240
3484.00,0.0241
3483.00,0.0242
3482.00,0.0243
3481.00,0.0245
3480.00,0.0246
3479.00,0.0247
3478.00,0.0248
3477.00,0.0249
3476.00,0.0250
3475.00,0.0251
3474.00,0.0253
3473.00,0.0254
3472.00,0.0255
3471.00,0.0256
3470.00,0.0257
3469.00,0.0258
3468.00,0.0259
3467.00,0.0260
3466.00,0.0261
3465.00,0.0262
3464.00,0.0264
3463.00,0.0265
3462.00,0.0266
3461.00,0.0268
3460.00,0.0269
3459.00,0.0270
3458.00,0.0270
3457.00,0.0271
3456.00,0.0272
3455.00,0.0273
3454.00,0.0274
3453.00,0.0275
3452.00,0.0276
3451.00,0.0277
3450.00,0.0278
3449.00,0.0279
3448.00,0.0281
3447.00,0.0283
3446.00,0.0284
3445.00,0.0286
3444.00,0.0287
3443.00,0.0288
3442.00,0.0289
3441.00,0.0290
3440.00,0.0292
3439.00,0.0293
3438.00,0.0294
3437.00,0.0296
3436.00,0.0297
3435.00,0.0298
3434.00,0.0299
3433.00,0.0300
3432.00,0.0302
3431.00,0.0303
3430.00,0.0304
3429.00,0.0306
3428.00,0.0307
3427.00,0.0308
3426.00,0.0309
3425.00,0.0311
3424.00,0.0312
3423.00,0.0313
3422.00,0.0315
3421.00,0.0316
3420.00,0.0318
3419.00,0.0319
3418.00,0.0321
3417.00,0.0322
3416.00,0.0323
3415.00,0.0325
3414.00,0.0326
3413.00,0.0328
3412.00,0.0329
3411.00,0.0330
3410.00,0.0331
3409.00,0.0333
3408.00,0.0334
3407.00,0.0335
3406.00,0.0336
3405.00,0.0337
3404.00,0.0338
3403.00,0.0339
3402.00,0.0341
3401.00,0.0342
3400.00,0.0343
3399.00,0.0345
3398.00,0.0346
3397.00,0.0347
3396.00,0.0348
3395.00,0.0349
3394.00,0.0350
3393.00,0.0352
3392.00,0.0353
3391.00,0.0355
3390.00,0.0356
3389.00,0.0358
3388.00,0.0359
3387.00,0.0360
3386.00,0.0362
3385.00,0.0363
3384.00,0.0364
3383.00,0.0366
3382.00,0.0367
3381.00,0.0369
3380.00,0.0370
3379.00,0.0371
3378.00,0.0372
3377.00,0.0373
3376.00,0.0375
3375.00,0.0376
3374.00,0.0378
3373.00,0.0379
3372.00,0.0380
3371.00,0.0381
3370.00,0.0383
3369.00,0.0384
3368.00,0.0386
3367.00,0.0388
3366.00,0.0390
3365.00,0.0392
3364.00,0.0394
3363.00,0.0396
3362.00,0.0397
3361.00,0.0399
3360.00,0.0401
3359.00,0.0402
3358.00,0.0404
3357.00,0.0406
3356.00,0.0408
3355.00,0.0410
3354.00,0.0411
3353.00,0.0413
3352.00,0.0414
3351.00,0.0416
3350.00,0.0418
3349.00,0.0421
3348.00,0.0423
3347.00,0.0425
3346.00,0.0427
3345.00,0.0429
3344.00,0.0430
3343.00,0.0432
3342.00,0.0434
3341.00,0.0436
3340.00,0.0437
3339.00,0.0439
3338.00,0.0442
3337.00,0.0444
3336.00,0.0447
3335.00,0.0449
3334.00,0.0452
3333.00,0.0454
3332.00,0.0457
3331.00,0.0459
3330.00,0.0461
3329.00,0.0463
3328.00,0.0464
3327.00,0.0466
3326.00,0.0468
3325.00,0.0471
3324.00,0.0474
3323.00,0.0477
3322.00,0.0479
3321.00,0.0482
3320.00,0.0485
3319.00,0.0487
3318.00,0.0490
3317.00,0.0492
3316.00,0.0495
3315.00,0.0498
3314.00,0.0500
3313.00,0.0502
3312.00,0.0504
3311.00,0.0506
3310.00,0.0507
3309.00,0.0509
3308.00,0.0512
3307.00,0.0514
3306.00,0.0517
3305.00,0.0520
3304.00,0.0523
3303.00,0.0526
3302.00,0.0529
3301.00,0.0532
3300.00,0.0534
3299.00,0.0537
3298.00,0.0538
3297.00,0.0540
3296.00,0.0541
3295.00,0.0543
3294.00,0.0545
3293.00,0.0548
3292.00,0.0551
3291.00,0.0553
3290.00,0.0556
3289.00,0.0558
3288.00,0.0560
3287.00,0.0562
3286.00,0.0563
3285.00,0.0564
3284.00,0.0566
3283.00,0.0567
3282.00,0.0568
3281.00,0.0568
3280.00,0.0569
3279.00,0.0569
3278.00,0.0569
3277.00,0.0568
3276.00,0.0568
3275.00,0.0567
3274.00,0.0566
3273.00,0.0565
3272.00,0.0564
3271.00,0.0563
3270.00,0.0563
3269.00,0.0562
3268.00,0.0562
3267.00,0.0561
3266.00,0.0560
3265.00,0.0558
3264.00,0.0556
3263.00,0.0555
3262.00,0.0552
3261.00,0.0550
3260.00,0.0547
3259.00,0.0545
3258.00,0.0542
3257.00,0.0539
3256.00,0.0536
3255.00,0.0534
3254.00,0.0533
3253.00,0.0531
3252.00,0.0529
3251.00,0.0527
3250.00,0.0523
3249.00,0.0520
3248.00,0.0517
3247.00,0.0515
3246.00,0.0513
3245.00,0.0512
3244.00,0.0510
3243.00,0.0509
3242.00,0.0507
3241.00,0.0504
3240.00,0.0502
3239.00,0.0500
3238.00,0.0498
3237.00,0.0496
3236.00,0.0493
3235.00,0.0490
3234.00,0.0488
3233.00,0.0487
3232.00,0.0487
3231.00,0.0486
3230.00,0.0485
3229.00,0.0484
3228.00,0.0483
3227.00,0.0482
3226.00,0.0481
3225.00,0.0479
3224.00,0.0477
3223.00,0.0476
3222.00,0.0474
3221.00,0.0473
3220.00,0.0471
3219.00,0.0471
3218.00,0.0470
3217.00,0.0469
3216.00,0.0467
3215.00,0.0466
3214.00,0.0464
3213.00,0.0463
3212.00,0.0462
3211.00,0.0460
3210.00,0.0459
3209.00,0.0458
3208.00,0.0457
3207.00,0.0456
3206.00,0.0454
3205.00,0.0453
3204.00,0.0452
3203.00,0.0451
3202.00,0.0450
3201.00,0.0449
3200.00,0.0447
3199.00,0.0446
3198.00,0.0445
3197.00,0.0444
3196.00,0.0442
3195.00,0.0441
3194.00,0.0439
3193.00,0.0438
3192.00,0.0436
3191.00,0.0435
3190.00,0.0434
3189.00,0.0432
3188.00,0.0431
3187.00,0.0430
3186.00,0.0428
3185.00,0.0427
3184.00,0.0425
3183.00,0.0424
3182.00,0.0422
3181.00,0.0421
3180.00,0.0419
3179.00,0.0418
3178.00,0.0417
3177.00,0.0416
3176.00,0.0414
3175.00,0.0412
3174.00,0.0411
3173.00,0.0409
3172.00,0.0407
3171.00,0.0406
3170.00,0.0404
3169.00,0.0403
3168.00,0.0401
3167.00,0.0400
3166.00,0.0398
3165.00,0.0397
3164.00,0.0396
3163.00,0.0395
3162.00,0.0393
3161.00,0.0392
3160.00,0.0390
3159.00,0.0389
3158.00,0.0387
3157.00,0.0386
3156.00,0.0384
3155.00,0.0382
3154.00,0.0380
3153.00,0.0378
3152.00,0.0377
3151.00,0.0377
3150.00,0.0376
3149.00,0.0375
3148.00,0.0374
3147.00,0.0373
3146.00,0.0372
3145.00,0.0370
3144.00,0.0369
3143.00,0.0368
3142.00,0.0366
3141.00,0.0365
3140.00,0.0364
3139.00,0.0363
3138.00,0.0362
3137.00,0.0362
3136.00,0.0361
3135.00,0.0360
3134.00,0.0359
3133.00,0.0358
3132.00,0.0357
3131.00,0.0356
3130.00,0.0355
3129.00,0.0355
3128.00,0.0354
3127.00,0.0354
3126.00,0.0353
3125.00,0.0352
3124.00,0.0351
3123.00,0.0350
3122.00,0.0349
3121.00,0.0348
3120.00,0.0347
3119.00,0.0346
3118.00,0.0345
3117.00,0.0345
3116.00,0.0345
3115.00,0.0346
3114.00,0.0346
3113.00,0.0347
3112.00,0.0347
3111.00,0.0346
3110.00,0.0346
3109.00,0.0346
3108.00,0.0346
3107.00,0.0347
3106.00,0.0347
3105.00,0.0348
3104.00,0.0348
3103.00,0.0347
3102.00,0.0347
3101.00,0.0347
3100.00,0.0347
3099.00,0.0348
3098.00,0.0348
3097.00,0.0349
3096.00,0.0349
3095.00,0.0350
3094.00,0.0350
3093.00,0.0350
3092.00,0.0349
3091.00,0.0349
3090.00,0.0349
3089.00,0.0350
3088.00,0.0350
3087.00,0.0350
3086.00,0.0350
3085.00,0.0350
3084.00,0.0350
3083.00,0.0349
3082.00,0.0349
3081.00,0.0349
3080.00,0.0349
3079.00,0.0349
3078.00,0.0350
3077.00,0.0351
3076.00,0.0352
3075.00,0.0353
3074.00,0.0353
3073.00,0.0353
3072.00,0.0353
3071.00,0.0352
3070.00,0.0351
3069.00,0.0350
3068.00,0.0349
3067.00,0.0349
3066.00,0.0349
3065.00,0.0349
3064.00,0.0349
3063.00,0.0349
3062.00,0.0349
3061.00,0.0348
3060.00,0.0347
3059.00,0.0346
3058.00,0.0345
3057.00,0.0343
3056.00,0.0342
3055.00,0.0341
3054.00,0.0340
3053.00,0.0339
3052.00,0.0337
3051.00,0.0336
3050.00,0.0335
3049.00,0.0334
3048.00,0.0333
3047.00,0.0332
3046.00,0.0330
3045.00,0.0328
3044.00,0.0327
3043.00,0.0325
3042.00,0.0324
3041.00,0.0324
3040.00,0.0323
3039.00,0.0323
3038.00,0.0321
3037.00,0.0320
3036.00,0.0318
3035.00,0.0317
3034.00,0.0316
3033.00,0.0315
3032.00,0.0315
3031.00,0.0315
3030.00,0.0314
3029.00,0.0313
3028.00,0.0312
3027.00,0.0311
3026.00,0.0309
3025.00,0.0307
3024.00,0.0306
3023.00,0.0305
3022.00,0.0303
3021.00,0.0301
3020.00,0.0299
3019.00,0.0297
3018.00,0.0295
3017.00,0.0293
3016.00,0.0292
3015.00,0.0290
3014.00,0.0288
3013.00,0.0287
3012.00,0.0285
3011.00,0.0284
3010.00,0.0284
3009.00,0.0283
3008.00,0.0281
3007.00,0.0279
3006.00,0.0277
3005.00,0.0274
3004.00,0.0272
3003.00,0.0270
3002.00,0.0268
3001.00,0.0266
3000.00,0.0264
2999.00,0.0262
2998.00,0.0260
2997.00,0.0260
2996.00,0.0259
2995.00,0.0259
2994.00,0.0259
2993.00,0.0259
2992.00,0.0259
2991.00,0.0260
2990.00,0.0262
2989.00,0.0263
2988.00,0.0264
2987.00,0.0264
2986.00,0.0264
2985.00,0.0262
2984.00,0.0259
2983.00,0.0255
2982.00,0.0254
2981.00,0.0256
2980.00,0.0260
2979.00,0.0266
2978.00,0.0273
2977.00,0.0280
2976.00,0.0285
2975.00,0.0290
2974.00,0.0294
2973.00,0.0297
2972.00,0.0301
2971.00,0.0305
2970.00,0.0310
2969.00,0.0316
2968.00,0.0322
2967.00,0.0327
2966.00,0.0331
2965.00,0.0336
2964.00,0.0339
2963.00,0.0342
2962.00,0.0345
2961.00,0.0347
2960.00,0.0349
2959.00,0.0350
2958.00,0.0350
2957.00,0.0350
2956.00,0.0349
2955.00,0.0348
2954.00,0.0347
2953.00,0.0346
2952.00,0.0346
2951.00,0.0345
2950.00,0.0345
2949.00,0.0345
2948.00,0.0345
2947.00,0.0346
2946.00,0.0347
2945.00,0.0349
2944.00,0.0352
2943.00,0.0355
2942.00,0.0358
2941.00,0.0361
2940.00,0.0364
2939.00,0.0368
2938.00,0.0371
2937.00,0.0374
2936.00,0.0377
2935.00,0.0379
2934.00,0.0382
2933.00,0.0384
2932.00,0.0385
2931.00,0.0386
2930.00,0.0388
2929.00,0.0389
2928.00,0.0391
2927.00,0.0392
2926.00,0.0392
2925.00,0.0392
2924.00,0.0391
2923.00,0.0390
2922.00,0.0388
2921.00,0.0385
2920.00,0.0382
2919.00,0.0378
2918.00,0.0374
2917.00,0.0369
2916.00,0.0365
2915.00,0.0360
2914.00,0.0356
2913.00,0.0351
2912.00,0.0347
2911.00,0.0343
2910.00,0.0339
2909.00,0.0336
2908.00,0.0333
2907.00,0.0330
2906.00,0.0327
2905.00,0.0324
2904.00,0.0321
2903.00,0.0319
2902.00,0.0316
2901.00,0.0314
2900.00,0.0312
2899.00,0.0309
2898.00,0.0307
2897.00,0.0305
2896.00,0.0303
2895.00,0.0301
2894.00,0.0299
2893.00,0.0298
2892.00,0.0296
2891.00,0.0295
2890.00,0.0294
2889.00,0.0293
2888.00,0.0292
2887.00,0.0292
2886.00,0.0292
2885.00,0.0292
2884.00,0.0293
2883.00,0.0294
2882.00,0.0296
2881.00,0.0298
2880.00,0.0300
2879.00,0.0302
2878.00,0.0303
2877.00,0.0304
2876.00,0.0305
2875.00,0.0306
2874.00,0.0306
2873.00,0.0305
2872.00,0.0305
2871.00,0.0304
2870.00,0.0302
2869.00,0.0300
2868.00,0.0299
2867.00,0.0297
2866.00,0.0296
2865.00,0.0295
2864.00,0.0294
2863.00,0.0293
2862.00,0.0292
2861.00,0.0292
2860.00,0.0292
2859.00,0.0293
2858.00,0.0293
2857.00,0.0294
2856.00,0.0295
2855.00,0.0295
2854.00,0.0294
2853.00,0.0294
2852.00,0.0292
2851.00,0.0290
2850.00,0.0287
2849.00,0.0284
2848.00,0.0281
2847.00,0.0277
2846.00,0.0273
2845.00,0.0270
2844.00,0.0266
2843.00,0.0263
2842.00,0.0260
2841.00,0.0257
2840.00,0.0255
2839.00,0.0253
2838.00,0.0251
2837.00,0.0250
2836.00,0.0248
2835.00,0.0247
2834.00,0.0246
2833.00,0.0246
2832.00,0.0245
2831.00,0.0244
2830.00,0.0243
2829.00,0.0242
2828.00,0.0241
2827.00,0.0241
2826.00,0.0240
2825.00,0.0239
2824.00,0.0238
2823.00,0.0237
2822.00,0.0237
2821.00,0.0236
2820.00,0.0236
2819.00,0.0235
2818.00,0.0235
2817.00,0.0234
2816.00,0.0233
2815.00,0.0232
2814.00,0.0232
2813.00,0.0231
2812.00,0.0231
2811.00,0.0230
2810.00,0.0230
2809.00,0.0229
2808.00,0.0229
2807.00,0.0228
2806.00,0.0227
2805.00,0.0227
2804.00,0.0226
2803.00,0.0226
2802.00,0.0225
2801.00,0.0225
2800.00,0.0224
2799.00,0.0223
2798.00,0.0223
2797.00,0.0222
2796.00,0.0222
2795.00,0.0221
2794.00,0.0221
2793.00,0.0220
2792.00,0.0220
2791.00,0.0219
2790.00,0.0219
2789.00,0.0219
2788.00,0.0218
2787.00,0.0218
2786.00,0.0218
2785.00,0.0217
2784.00,0.0217
2783.00,0.0216
2782.00,0.0216
2781.00,0.0215
2780.00,0.0214
2779.00,0.0214
2778.00,0.0213
2777.00,0.0212
2776.00,0.0212
2775.00,0.0212
2774.00,0.0211
2773.00,0.0211
2772.00,0.0211
2771.00,0.0210
2770.00,0.0210
2769.00,0.0209
2768.00,0.0209
2767.00,0.0209
2766.00,0.0208
2765.00,0.0208
2764.00,0.0207
2763.00,0.0207
2762.00,0.0206
2761.00,0.0206
2760.00,0.0205
2759.00,0.0204
2758.00,0.0204
2757.00,0.0203
2756.00,0.0203
2755.00,0.0203
2754.00,0.0202
2753.00,0.0202
2752.00,0.0202
2751.00,0.0201
2750.00,0.0200
2749.00,0.0200
2748.00,0.0200
2747.00,0.0199
2746.00,0.0199
2745.00,0.0198
2744.00,0.0198
2743.00,0.0197
2742.00,0.0197
2741.00,0.0197
2740.00,0.0196
2739.00,0.0196
2738.00,0.0195
2737.00,0.0195
2736.00,0.0195
2735.00,0.0194
2734.00,0.0194
2733.00,0.0193
2732.00,0.0193
2731.00,0.0192
2730.00,0.0192
2729.00,0.0191
2728.00,0.0191
2727.00,0.0190
2726.00,0.0190
2725.00,0.0189
2724.00,0.0189
2723.00,0.0189
2722.00,0.0188
2721.00,0.0188
2720.00,0.0188
2719.00,0.0187
2718.00,0.0187
2717.00,0.0186
2716.00,0.0186
2715.00,0.0185
2714.00,0.0185
2713.00,0.0184
2712.00,0.0184
2711.00,0.0184
2710.00,0.0184
2709.00,0.0183
2708.00,0.0183
2707.00,0.0183
2706.00,0.0182
2705.00,0.0182
2704.00,0.0181
2703.00,0.0181
2702.00,0.0181
2701.00,0.0180
2700.00,0.0180
2699.00,0.0179
2698.00,0.0179
2697.00,0.0179
2696.00,0.0179
2695.00,0.0178
2694.00,0.0178
2693.00,0.0178
2692.00,0.0178
2691.00,0.0177
2690.00,0.0177
2689.00,0.0177
2688.00,0.0177
2687.00,0.0177
2686.00,0.0176
2685.00,0.0176
2684.00,0.0175
2683.00,0.0175
2682.00,0.0175
2681.00,0.0175
2680.00,0.0175
2679.00,0.0174
2678.00,0.0174
2677.00,0.0174
2676.00,0.0174
2675.00,0.0173
2674.00,0.0173
2673.00,0.0173
2672.00,0.0173
2671.00,0.0173
2670.00,0.0172
2669.00,0.0172
2668.00,0.0172
2667.00,0.0172
2666.00,0.0172
2665.00,0.0172
2664.00,0.0173
2663.00,0.0173
2662.00,0.0173
2661.00,0.0173
2660.00,0.0174
2659.00,0.0174
2658.00,0.0174
2657.00,0.0173
2656.00,0.0173
2655.00,0.0173
2654.00,0.0173
2653.00,0.0173
2652.00,0.0172
2651.00,0.0172
2650.00,0.0172
2649.00,0.0172
2648.00,0.0172
2647.00,0.0171
2646.00,0.0171
2645.00,0.0170
2644.00,0.0170
2643.00,0.0170
2642.00,0.0170
2641.00,0.0169
2640.00,0.0169
2639.00,0.0169
2638.00,0.0168
2637.00,0.0168
2636.00,0.0168
2635.00,0.0168
2634.00,0.0168
2633.00,0.0168
2632.00,0.0167
2631.00,0.0167
2630.00,0.0166
2629.00,0.0166
2628.00,0.0166
2627.00,0.0165
2626.00,0.0165
2625.00,0.0165
2624.00,0.0165
2623.00,0.0165
2622.00,0.0164
2621.00,0.0164
2620.00,0.0164
2619.00,0.0164
2618.00,0.0163
2617.00,0.0163
2616.00,0.0163
2615.00,0.0162
2614.00,0.0162
2613.00,0.0162
2612.00,0.0162
2611.00,0.0162
2610.00,0.0162
2609.00,0.0161
2608.00,0.0161
2607.00,0.0160
2606.00,0.0159
2605.00,0.0159
2604.00,0.0159
2603.00,0.0158
2602.00,0.0158
2601.00,0.0158
2600.00,0.0158
2599.00,0.0158
2598.00,0.0157
2597.00,0.0157
2596.00,0.0157
2595.00,0.0156
2594.00,0.0156
2593.00,0.0156
2592.00,0.0156
2591.00,0.0155
2590.00,0.0155
2589.00,0.0155
2588.00,0.0155
2587.00,0.0155
2586.00,0.0155
2585.00,0.0154
2584.00,0.0154
2583.00,0.0154
2582.00,0.0154
2581.00,0.0154
2580.00,0.0153
2579.00,0.0153
2578.00,0.0152
2577.00,0.0152
2576.00,0.0151
2575.00,0.0151
2574.00,0.0150
2573.00,0.0151
2572.00,0.0151
2571.00,0.0151
2570.00,0.0151
2569.00,0.0150
2568.00,0.0150
2567.00,0.0149
2566.00,0.0149
2565.00,0.0149
2564.00,0.0149
2563.00,0.0148
2562.00,0.0148
2561.00,0.0148
2560.00,0.0148
2559.00,0.0148
2558.00,0.0148
2557.00,0.0147
2556.00,0.0147
2555.00,0.0147
2554.00,0.0146
2553.00,0.0146
2552.00,0.0146
2551.00,0.0145
2550.00,0.0145
2549.00,0.0145
2548.00,0.0145
2547.00,0.0145
2546.00,0.0145
2545.00,0.0145
2544.00,0.0145
2543.00,0.0144
2542.00,0.0144
2541.00,0.0144
2540.00,0.0144
2539.00,0.0144
2538.00,0.0144
2537.00,0.0144
2536.00,0.0144
2535.00,0.0144
2534.00,0.0143
2533.00,0.0143
2532.00,0.0142
2531.00,0.0142
2530.00,0.0141
2529.00,0.0141
2528.00,0.0140
2527.00,0.0140
2526.00,0.0140
2525.00,0.0140
2524.00,0.0140
2523.00,0.0140
2522.00,0.0139
2521.00,0.0139
2520.00,0.0139
2519.00,0.0139
2518.00,0.0138
2517.00,0.0138
2516.00,0.0138
2515.00,0.0139
2514.00,0.0139
2513.00,0.0139
2512.00,0.0139
2511.00,0.0139
2510.00,0.0139
2509.00,0.0138
2508.00,0.0138
2507.00,0.0137
2506.00,0.0137
2505.00,0.0137
2504.00,0.0137
2503.00,0.0136
2502.00,0.0136
2501.00,0.0136
2500.00,0.0136
2499.00,0.0135
2498.00,0.0135
2497.00,0.0135
2496.00,0.0135
2495.00,0.0135
2494.00,0.0135
2493.00,0.0134
2492.00,0.0134
2491.00,0.0133
2490.00,0.0133
2489.00,0.0133
2488.00,0.0133
2487.00,0.0133
2486.00,0.0133
2485.00,0.0132
2484.00,0.0132
2483.00,0.0132
2482.00,0.0131
2481.00,0.0131
2480.00,0.0131
2479.00,0.0131
2478.00,0.0130
2477.00,0.0130
2476.00,0.0130
2475.00,0.0130
2474.00,0.0131
2473.00,0.0131
2472.00,0.0130
2471.00,0.0130
2470.00,0.0130
2469.00,0.0130
2468.00,0.0130
2467.00,0.0130
2466.00,0.0130
2465.00,0.0130
2464.00,0.0130
2463.00,0.0130
2462.00,0.0129
2461.00,0.0129
2460.00,0.0129
2459.00,0.0129
2458.00,0.0130
2457.00,0.0130
2456.00,0.0130
2455.00,0.0130
2454.00,0.0129
2453.00,0.0129
2452.00,0.0129
2451.00,0.0129
2450.00,0.0128
2449.00,0.0128
2448.00,0.0128
2447.00,0.0127
2446.00,0.0127
2445.00,0.0127
2444.00,0.0126
2443.00,0.0126
2442.00,0.0125
2441.00,0.0125
2440.00,0.0125
2439.00,0.0124
2438.00,0.0124
2437.00,0.0124
2436.00,0.0124
2435.00,0.0123
2434.00,0.0123
2433.00,0.0122
2432.00,0.0122
2431.00,0.0122
2430.00,0.0122
2429.00,0.0122
2428.00,0.0122
2427.00,0.0121
2426.00,0.0121
2425.00,0.0121
2424.00,0.0121
2423.00,0.0121
2422.00,0.0120
2421.00,0.0120
2420.00,0.0120
2419.00,0.0120
2418.00,0.0120
2417.00,0.0120
2416.00,0.0120
2415.00,0.0119
2414.00,0.0119
2413.00,0.0119
2412.00,0.0119
2411.00,0.0119
2410.00,0.0118
2409.00,0.0118
2408.00,0.0117
2407.00,0.0117
2406.00,0.0116
2405.00,0.0116
2404.00,0.0115
2403.00,0.0115
2402.00,0.0114
2401.00,0.0114
2400.00,0.0114
2399.00,0.0114
2398.00,0.0114
2397.00,0.0114
2396.00,0.0114
2395.00,0.0115
2394.00,0.0115
2393.00,0.0115
2392.00,0.0115
2391.00,0.0114
2390.00,0.0114
2389.00,0.0114
2388.00,0.0113
2387.00,0.0112
2386.00,0.0111
2385.00,0.0110
2384.00,0.0109
2383.00,0.0108
2382.00,0.0107
2381.00,0.0106
2380.00,0.0106
2379.00,0.0107
2378.00,0.0108
2377.00,0.0108
2376.00,0.0109
2375.00,0.0109
2374.00,0.0109
2373.00,0.0109
2372.00,0.0109
2371.00,0.0109
2370.00,0.0109
2369.00,0.0109
2368.00,0.0108
2367.00,0.0108
2366.00,0.0108
2365.00,0.0108
2364.00,0.0109
2363.00,0.0109
2362.00,0.0109
2361.00,0.0109
2360.00,0.0109
2359.00,0.0109
2358.00,0.0109
2357.00,0.0110
2356.00,0.0111
2355.00,0.0111
2354.00,0.0110
2353.00,0.0110
2352.00,0.0110
2351.00,0.0110
2350.00,0.0110
2349.00,0.0110
2348.00,0.0109
2347.00,0.0108
2346.00,0.0107
2345.00,0.0107
2344.00,0.0109
2343.00,0.0110
2342.00,0.0112
2341.00,0.0113
2340.00,0.0114
2339.00,0.0114
2338.00,0.0113
2337.00,0.0113
2336.00,0.0113
2335.00,0.0113
2334.00,0.0113
2333.00,0.0113
2332.00,0.0113
2331.00,0.0113
2330.00,0.0113
2329.00,0.0115
2328.00,0.0119
2327.00,0.0123
2326.00,0.0125
2325.00,0.0126
2324.00,0.0125
2323.00,0.0122
2322.00,0.0120
2321.00,0.0118
2320.00,0.0118
2319.00,0.0117
2318.00,0.0116
2317.00,0.0116
2316.00,0.0115
2315.00,0.0114
2314.00,0.0113
2313.00,0.0112
2312.00,0.0111
2311.00,0.0110
2310.00,0.0110
2309.00,0.0110
2308.00,0.0110
2307.00,0.0110
2306.00,0.0110
2305.00,0.0111
2304.00,0.0111
2303.00,0.0111
2302.00,0.0111
2301.00,0.0111
2300.00,0.0111
2299.00,0.0112
2298.00,0.0112
2297.00,0.0113
2296.00,0.0114
2295.00,0.0115
2294.00,0.0116
2293.00,0.0116
2292.00,0.0117
2291.00,0.0118
2290.00,0.0119
2289.00,0.0120
2288.00,0.0120
2287.00,0.0120
2286.00,0.0120
2285.00,0.0120
2284.00,0.0119
2283.00,0.0118
2282.00,0.0117
2281.00,0.0116
2280.00,0.0115
2279.00,0.0115
2278.00,0.0114
2277.00,0.0114
2276.00,0.0114
2275.00,0.0114
2274.00,0.0113
2273.00,0.0113
2272.00,0.0112
2271.00,0.0112
2270.00,0.0112
2269.00,0.0112
2268.00,0.0111
2267.00,0.0110
2266.00,0.0109
2265.00,0.0109
2264.00,0.0109
2263.00,0.0109
2262.00,0.0110
2261.00,0.0111
2260.00,0.0111
2259.00,0.0111
2258.00,0.0110
2257.00,0.0110
2256.00,0.0109
2255.00,0.0108
2254.00,0.0108
2253.00,0.0108
2252.00,0.0108
2251.00,0.0109
2250.00,0.0109
2249.00,0.0109
2248.00,0.0109
2247.00,0.0108
2246.00,0.0108
2245.00,0.0108
2244.00,0.0108
2243.00,0.0108
2242.00,0.0108
2241.00,0.0108
2240.00,0.0108
2239.00,0.0107
2238.00,0.0106
2237.00,0.0106
2236.00,0.0106
2235.00,0.0106
2234.00,0.0107
2233.00,0.0107
2232.00,0.0108
2231.00,0.0108
2230.00,0.0108
2229.00,0.0108
2228.00,0.0107
2227.00,0.0106
2226.00,0.0105
2225.00,0.0105
2224.00,0.0104
2223.00,0.0104
2222.00,0.0103
2221.00,0.0103
2220.00,0.0103
2219.00,0.0104
2218.00,0.0105
2217.00,0.0106
2216.00,0.0106
2215.00,0.0106
2214.00,0.0106
2213.00,0.0106
2212.00,0.0106
2211.00,0.0105
2210.00,0.0105
2209.00,0.0105
2208.00,0.0106
2207.00,0.0106
2206.00,0.0105
2205.00,0.0104
2204.00,0.0104
2203.00,0.0104
2202.00,0.0105
2201.00,0.0105
2200.00,0.0105
2199.00,0.0104
2198.00,0.0103
2197.00,0.0104
2196.00,0.0105
2195.00,0.0105
2194.00,0.0105
2193.00,0.0105
2192.00,0.0106
2191.00,0.0106
2190.00,0.0106
2189.00,0.0106
2188.00,0.0105
2187.00,0.0104
2186.00,0.0103
2185.00,0.0101
2184.00,0.0098
2183.00,0.0095
2182.00,0.0094
2181.00,0.0095
2180.00,0.0097
2179.00,0.0098
2178.00,0.0098
2177.00,0.0097
2176.00,0.0097
2175.00,0.0098
2174.00,0.0100
2173.00,0.0102
2172.00,0.0105
2171.00,0.0107
2170.00,0.0108
2169.00,0.0109
2168.00,0.0110
2167.00,0.0112
2166.00,0.0113
2165.00,0.0115
2164.00,0.0117
2163.00,0.0115
2162.00,0.0107
2161.00,0.0094
2160.00,0.0079
2159.00,0.0067
2158.00,0.0062
2157.00,0.0064
2156.00,0.0068
2155.00,0.0071
2154.00,0.0074
2153.00,0.0076
2152.00,0.0078
2151.00,0.0078
2150.00,0.0078
2149.00,0.0078
2148.00,0.0079
2147.00,0.0079
2146.00,0.0079
2145.00,0.0080
2144.00,0.0081
2143.00,0.0081
2142.00,0.0081
2141.00,0.0081
2140.00,0.0082
2139.00,0.0083
2138.00,0.0083
2137.00,0.0082
2136.00,0.0081
2135.00,0.0079
2134.00,0.0078
2133.00,0.0079
2132.00,0.0081
2131.00,0.0082
2130.00,0.0084
2129.00,0.0085
2128.00,0.0087
2127.00,0.0089
2126.00,0.0091
2125.00,0.0092
2124.00,0.0093
2123.00,0.0093
2122.00,0.0094
2121.00,0.0094
2120.00,0.0095
2119.00,0.0096
2118.00,0.0097
2117.00,0.0099
2116.00,0.0100
2115.00,0.0101
2114.00,0.0101
2113.00,0.0101
2112.00,0.0100
2111.00,0.0100
2110.00,0.0099
2109.00,0.0100
2108.00,0.0100
2107.00,0.0101
2106.00,0.0101
2105.00,0.0102
2104.00,0.0102
2103.00,0.0101
2102.00,0.0101
2101.00,0.0100
2100.00,0.0099
2099.00,0.0098
2098.00,0.0096
2097.00,0.0095
2096.00,0.0094
2095.00,0.0094
2094.00,0.0095
2093.00,0.0096
2092.00,0.0097
2091.00,0.0098
2090.00,0.0098
2089.00,0.0098
2088.00,0.0098
2087.00,0.0098
2086.00,0.0098
2085.00,0.0099
2084.00,0.0099
2083.00,0.0100
2082.00,0.0100
2081.00,0.0099
2080.00,0.0099
2079.00,0.0099
2078.00,0.0098
2077.00,0.0098
2076.00,0.0099
2075.00,0.0099
2074.00,0.0099
2073.00,0.0099
2072.00,0.0099
2071.00,0.0098
2070.00,0.0097
2069.00,0.0096
2068.00,0.0095
2067.00,0.0095
2066.00,0.0094
2065.00,0.0093
2064.00,0.0093
2063.00,0.0093
2062.00,0.0093
2061.00,0.0093
2060.00,0.0093
2059.00,0.0094
2058.00,0.0094
2057.00,0.0094
2056.00,0.0094
2055.00,0.0094
2054.00,0.0096
2053.00,0.0100
2052.00,0.0103
2051.00,0.0102
2050.00,0.0098
2049.00,0.0094
2048.00,0.0091
2047.00,0.0090
2046.00,0.0089
2045.00,0.0090
2044.00,0.0091
2043.00,0.0091
2042.00,0.0090
2041.00,0.0090
2040.00,0.0091
2039.00,0.0092
2038.00,0.0093
2037.00,0.0094
2036.00,0.0093
2035.00,0.0091
2034.00,0.0089
2033.00,0.0086
2032.00,0.0084
2031.00,0.0082
2030.00,0.0080
2029.00,0.0080
2028.00,0.0081
2027.00,0.0080
2026.00,0.0079
2025.00,0.0080
2024.00,0.0080
2023.00,0.0080
2022.00,0.0079
2021.00,0.0078
2020.00,0.0078
2019.00,0.0078
2018.00,0.0077
2017.00,0.0077
2016.00,0.0078
2015.00,0.0078
2014.00,0.0078
2013.00,0.0078
2012.00,0.0079
2011.00,0.0079
2010.00,0.0079
2009.00,0.0078
2008.00,0.0077
2007.00,0.0075
2006.00,0.0073
2005.00,0.0072
2004.00,0.0073
2003.00,0.0074
2002.00,0.0076
2001.00,0.0078
2000.00,0.0081
1999.00,0.0081
1998.00,0.0081
1997.00,0.0082
1996.00,0.0084
1995.00,0.0085
1994.00,0.0085
1993.00,0.0084
1992.00,0.0083
1991.00,0.0082
1990.00,0.0083
1989.00,0.0084
1988.00,0.0086
1987.00,0.0087
1986.00,0.0088
1985.00,0.0090
1984.00,0.0092
1983.00,0.0095
1982.00,0.0097
1981.00,0.0097
1980.00,0.0094
1979.00,0.0087
1978.00,0.0079
1977.00,0.0074
1976.00,0.0071
1975.00,0.0070
1974.00,0.0069
1973.00,0.0070
1972.00,0.0072
1971.00,0.0074
1970.00,0.0074
1969.00,0.0075
1968.00,0.0074
1967.00,0.0074
1966.00,0.0074
1965.00,0.0075
1964.00,0.0075
1963.00,0.0074
1962.00,0.0072
1961.00,0.0070
1960.00,0.0070
1959.00,0.0070
1958.00,0.0070
1957.00,0.0072
1956.00,0.0074
1955.00,0.0076
1954.00,0.0077
1953.00,0.0077
1952.00,0.0078
1951.00,0.0077
1950.00,0.0076
1949.00,0.0076
1948.00,0.0076
1947.00,0.0076
1946.00,0.0076
1945.00,0.0077
1944.00,0.0079
1943.00,0.0079
1942.00,0.0078
1941.00,0.0077
1940.00,0.0076
1939.00,0.0076
1938.00,0.0076
1937.00,0.0076
1936.00,0.0077
1935.00,0.0077
1934.00,0.0078
1933.00,0.0079
1932.00,0.0079
1931.00,0.0079
1930.00,0.0078
1929.00,0.0078
1928.00,0.0078
1927.00,0.0078
1926.00,0.0078
1925.00,0.0079
1924.00,0.0080
1923.00,0.0080
1922.00,0.0079
1921.00,0.0080
1920.00,0.0081
1919.00,0.0081
1918.00,0.0079
1917.00,0.0078
1916.00,0.0078
1915.00,0.0079
1914.00,0.0079
1913.00,0.0080
1912.00,0.0081
1911.00,0.0081
1910.00,0.0081
1909.00,0.0081
1908.00,0.0081
1907.00,0.0080
1906.00,0.0080
1905.00,0.0080
1904.00,0.0080
1903.00,0.0080
1902.00,0.0079
1901.00,0.0079
1900.00,0.0079
1899.00,0.0080
1898.00,0.0080
1897.00,0.0080
1896.00,0.0080
1895.00,0.0079
1894.00,0.0079
1893.00,0.0079
1892.00,0.0081
1891.00,0.0081
1890.00,0.0081
1889.00,0.0080
1888.00,0.0080
1887.00,0.0080
1886.00,0.0080
1885.00,0.0080
1884.00,0.0080
1883.00,0.0080
1882.00,0.0080
1881.00,0.0080
1880.00,0.0081
1879.00,0.0080
1878.00,0.0079
1877.00,0.0079
1876.00,0.0079
1875.00,0.0080
1874.00,0.0080
1873.00,0.0081
1872.00,0.0082
1871.00,0.0084
1870.00,0.0084
1869.00,0.0082
1868.00,0.0081
1867.00,0.0079
1866.00,0.0078
1865.00,0.0078
1864.00,0.0079
1863.00,0.0079
1862.00,0.0078
1861.00,0.0078
1860.00,0.0079
1859.00,0.0079
1858.00,0.0078
1857.00,0.0078
1856.00,0.0079
1855.00,0.0079
1854.00,0.0079
1853.00,0.0079
1852.00,0.0079
1851.00,0.0079
1850.00,0.0079
1849.00,0.0079
1848.00,0.0080
1847.00,0.0081
1846.00,0.0081
1845.00,0.0080
1844.00,0.0078
1843.00,0.0076
1842.00,0.0075
1841.00,0.0077
1840.00,0.0078
1839.00,0.0078
1838.00,0.0078
1837.00,0.0078
1836.00,0.0078
1835.00,0.0078
1834.00,0.0078
1833.00,0.0078
1832.00,0.0078
1831.00,0.0083
1830.00,0.0082
1829.00,0.0080
1828.00,0.0079
1827.00,0.0080
1826.00,0.0080
1825.00,0.0080
1824.00,0.0079
1823.00,0.0078
1822.00,0.0078
1821.00,0.0078
1820.00,0.0078
1819.00,0.0077
1818.00,0.0076
1817.00,0.0076
1816.00,0.0076
1815.00,0.0077
1814.00,0.0078
1813.00,0.0080
1812.00,0.0081
1811.00,0.0081
1810.00,0.0080
1809.00,0.0079
1808.00,0.0079
1807.00,0.0079
1806.00,0.0079
1805.00,0.0080
1804.00,0.0081
1803.00,0.0082
1802.00,0.0082
1801.00,0.0082
1800.00,0.0082
1799.00,0.0082
1798.00,0.0081
1797.00,0.0082
1796.00,0.0083
1795.00,0.0085
1794.00,0.0085
1793.00,0.0084
1792.00,0.0082
1791.00,0.0080
1790.00,0.0079
1789.00,0.0080
1788.00,0.0081
1787.00,0.0082
1786.00,0.0082
1785.00,0.0082
1784.00,0.0082
1783.00,0.0083
1782.00,0.0083
1781.00,0.0083
1780.00,0.0083
1779.00,0.0082
1778.00,0.0082
1777.00,0.0083
1776.00,0.0085
1775.00,0.0087
1774.00,0.0088
1773.00,0.0087
1772.00,0.0085
1771.00,0.0083
1770.00,0.0082
1769.00,0.0082
1768.00,0.0082
1767.00,0.0082
1766.00,0.0083
1765.00,0.0085
1764.00,0.0087
1763.00,0.0089
1762.00,0.0088
1761.00,0.0087
1760.00,0.0088
1759.00,0.0090
1758.00,0.0091
1757.00,0.0091
1756.00,0.0092
1755.00,0.0092
1754.00,0.0094
1753.00,0.0096
1752.00,0.0098
1751.00,0.0100
1750.00,0.0101
1749.00,0.0103
1748.00,0.0105
1747.00,0.0107
1746.00,0.0108
1745.00,0.0110
1744.00,0.0113
1743.00,0.0115
1742.00,0.0116
1741.00,0.0118
1740.00,0.0119
1739.00,0.0119
1738.00,0.0120
1737.00,0.0122
1736.00,0.0125
1735.00,0.0126
1734.00,0.0124
1733.00,0.0124
1732.00,0.0127
1731.00,0.0132
1730.00,0.0134
1729.00,0.0136
1728.00,0.0138
1727.00,0.0141
1726.00,0.0143
1725.00,0.0146
1724.00,0.0149
1723.00,0.0151
1722.00,0.0154
1721.00,0.0158
1720.00,0.0163
1719.00,0.0167
1718.00,0.0169
1717.00,0.0172
1716.00,0.0177
1715.00,0.0182
1714.00,0.0187
1713.00,0.0192
1712.00,0.0200
1711.00,0.0207
1710.00,0.0215
1709.00,0.0223
1708.00,0.0234
1707.00,0.0246
1706.00,0.0258
1705.00,0.0272
1704.00,0.0285
1703.00,0.0297
1702.00,0.0311
1701.00,0.0334
1700.00,0.0364
1699.00,0.0390
1698.00,0.0407
1697.00,0.0425
1696.00,0.0448
1695.00,0.0470
1694.00,0.0487
1693.00,0.0499
1692.00,0.0511
1691.00,0.0523
1690.00,0.0536
1689.00,0.0550
1688.00,0.0561
1687.00,0.0570
1686.00,0.0580
1685.00,0.0601
1684.00,0.0632
1683.00,0.0658
1682.00,0.0674
1681.00,0.0685
1680.00,0.0697
1679.00,0.0708
1678.00,0.0718
1677.00,0.0730
1676.00,0.0748
1675.00,0.0771
1674.00,0.0792
1673.00,0.0806
1672.00,0.0818
1671.00,0.0833
1670.00,0.0854
1669.00,0.0880
1668.00,0.0902
1667.00,0.0917
1666.00,0.0925
1665.00,0.0935
1664.00,0.0950
1663.00,0.0973
1662.00,0.0998
1661.00,0.1018
1660.00,0.1033
1659.00,0.1045
1658.00,0.1054
1657.00,0.1058
1656.00,0.1058
1655.00,0.1061
1654.00,0.1084
1653.00,0.1135
1652.00,0.1177
1651.00,0.1188
1650.00,0.1182
1649.00,0.1175
1648.00,0.1179
1647.00,0.1199
1646.00,0.1223
1645.00,0.1238
1644.00,0.1243
1643.00,0.1243
1642.00,0.1244
1641.00,0.1246
1640.00,0.1250
1639.00,0.1252
1638.00,0.1253
1637.00,0.1263
1636.00,0.1290
1635.00,0.1325
1634.00,0.1346
1633.00,0.1351
1632.00,0.1350
1631.00,0.1350
1630.00,0.1353
1629.00,0.1362
1628.00,0.1373
1627.00,0.1381
1626.00,0.1382
1625.00,0.1379
1624.00,0.1377
1623.00,0.1377
1622.00,0.1372
1621.00,0.1356
1620.00,0.1330
1619.00,0.1300
1618.00,0.1272
1617.00,0.1249
1616.00,0.1228
1615.00,0.1203
1614.00,0.1173
1613.00,0.1138
1612.00,0.1102
1611.00,0.1068
1610.00,0.1037
1609.00,0.1008
1608.00,0.0979
1607.00,0.0952
1606.00,0.0927
1605.00,0.0902
1604.00,0.0879
1603.00,0.0859
1602.00,0.0840
1601.00,0.0823
1600.00,0.0806
1599.00,0.0791
1598.00,0.0778
1597.00,0.0765
1596.00,0.0754
1595.00,0.0743
1594.00,0.0734
1593.00,0.0725
1592.00,0.0716
1591.00,0.0708
1590.00,0.0701
1589.00,0.0696
1588.00,0.0691
1587.00,0.0687
1586.00,0.0684
1585.00,0.0683
1584.00,0.0682
1583.00,0.0682
1582.00,0.0683
1581.00,0.0685
1580.00,0.0685
1579.00,0.0684
1578.00,0.0686
1577.00,0.0693
1576.00,0.0705
1575.00,0.0717
1574.00,0.0724
1573.00,0.0727
1572.00,0.0729
1571.00,0.0734
1570.00,0.0747
1569.00,0.0763
1568.00,0.0774
1567.00,0.0782
1566.00,0.0790
1565.00,0.0799
1564.00,0.0807
1563.00,0.0811
1562.00,0.0810
1561.00,0.0811
1560.00,0.0827
1559.00,0.0867
1558.00,0.0907
1557.00,0.0923
1556.00,0.0927
1555.00,0.0932
1554.00,0.0943
1553.00,0.0956
1552.00,0.0966
1551.00,0.0978
1550.00,0.0993
1549.00,0.1008
1548.00,0.1017
1547.00,0.1023
1546.00,0.1031
1545.00,0.1042
1544.00,0.1055
1543.00,0.1065
1542.00,0.1076
1541.00,0.1095
1540.00,0.1125
1539.00,0.1152
1538.00,0.1164
1537.00,0.1162
1536.00,0.1155
1535.00,0.1153
1534.00,0.1164
1533.00,0.1183
1532.00,0.1196
1531.00,0.1198
1530.00,0.1196
1529.00,0.1195
1528.00,0.1197
1527.00,0.1203
1526.00,0.1210
1525.00,0.1213
1524.00,0.1211
1523.00,0.1209
1522.00,0.1216
1521.00,0.1232
1520.00,0.1243
1519.00,0.1245
1518.00,0.1245
1517.00,0.1248
1516.00,0.1252
1515.00,0.1249
1514.00,0.1237
1513.00,0.1222
1512.00,0.1206
1511.00,0.1189
1510.00,0.1169
1509.00,0.1148
1508.00,0.1131
1507.00,0.1124
1506.00,0.1119
1505.00,0.1106
1504.00,0.1084
1503.00,0.1060
1502.00,0.1034
1501.00,0.1010
1500.00,0.0989
1499.00,0.0969
1498.00,0.0951
1497.00,0.0933
1496.00,0.0916
1495.00,0.0897
1494.00,0.0877
1493.00,0.0856
1492.00,0.0834
1491.00,0.0814
1490.00,0.0797
1489.00,0.0780
1488.00,0.0764
1487.00,0.0746
1486.00,0.0729
1485.00,0.0712
1484.00,0.0697
1483.00,0.0684
1482.00,0.0672
1481.00,0.0662
1480.00,0.0654
1479.00,0.0647
1478.00,0.0642
1477.00,0.0638
1476.00,0.0635
1475.00,0.0634
1474.00,0.0636
1473.00,0.0643
1472.00,0.0654
1471.00,0.0662
1470.00,0.0665
1469.00,0.0665
1468.00,0.0663
1467.00,0.0662
1466.00,0.0661
1465.00,0.0662
1464.00,0.0664
1463.00,0.0665
1462.00,0.0663
1461.00,0.0661
1460.00,0.0659
1459.00,0.0660
1458.00,0.0666
1457.00,0.0680
1456.00,0.0693
1455.00,0.0699
1454.00,0.0699
1453.00,0.0697
1452.00,0.0695
1451.00,0.0693
1450.00,0.0692
1449.00,0.0691
1448.00,0.0692
1447.00,0.0692
1446.00,0.0691
1445.00,0.0688
1444.00,0.0685
1443.00,0.0681
1442.00,0.0678
1441.00,0.0674
1440.00,0.0668
1439.00,0.0662
1438.00,0.0657
1437.00,0.0653
1436.00,0.0651
1435.00,0.0648
1434.00,0.0641
1433.00,0.0633
1432.00,0.0625
1431.00,0.0619
1430.00,0.0614
1429.00,0.0610
1428.00,0.0606
1427.00,0.0603
1426.00,0.0601
1425.00,0.0600
1424.00,0.0601
1423.00,0.0603
1422.00,0.0602
1421.00,0.0601
1420.00,0.0604
1419.00,0.0612
1418.00,0.0621
1417.00,0.0626
1416.00,0.0629
1415.00,0.0632
1414.00,0.0634
1413.00,0.0636
1412.00,0.0640
1411.00,0.0645
1410.00,0.0649
1409.00,0.0653
1408.00,0.0657
1407.00,0.0662
1406.00,0.0667
1405.00,0.0672
1404.00,0.0678
1403.00,0.0682
1402.00,0.0684
1401.00,0.0685
1400.00,0.0688
1399.00,0.0693
1398.00,0.0696
1397.00,0.0698
1396.00,0.0699
1395.00,0.0702
1394.00,0.0705
1393.00,0.0706
1392.00,0.0706
1391.00,0.0704
1390.00,0.0702
1389.00,0.0700
1388.00,0.0698
1387.00,0.0697
1386.00,0.0695
1385.00,0.0690
1384.00,0.0684
1383.00,0.0676
1382.00,0.0669
1381.00,0.0663
1380.00,0.0657
1379.00,0.0651
1378.00,0.0646
1377.00,0.0641
1376.00,0.0637
1375.00,0.0634
1374.00,0.0632
1373.00,0.0630
1372.00,0.0628
1371.00,0.0625
1370.00,0.0622
1369.00,0.0619
1368.00,0.0615
1367.00,0.0611
1366.00,0.0604
1365.00,0.0598
1364.00,0.0591
1363.00,0.0586
1362.00,0.0582
1361.00,0.0579
1360.00,0.0575
1359.00,0.0571
1358.00,0.0568
1357.00,0.0565
1356.00,0.0562
1355.00,0.0561
1354.00,0.0559
1353.00,0.0558
1352.00,0.0557
1351.00,0.0556
1350.00,0.0555
1349.00,0.0555
1348.00,0.0554
1347.00,0.0554
1346.00,0.0553
1345.00,0.0553
1344.00,0.0552
1343.00,0.0552
1342.00,0.0551
1341.00,0.0551
1340.00,0.0551
1339.00,0.0551
1338.00,0.0551
1337.00,0.0550
1336.00,0.0549
1335.00,0.0547
1334.00,0.0546
1333.00,0.0544
1332.00,0.0543
1331.00,0.0542
1330.00,0.0541
1329.00,0.0540
1328.00,0.0540
1327.00,0.0540
1326.00,0.0541
1325.00,0.0541
1324.00,0.0542
1323.00,0.0542
1322.00,0.0543
1321.00,0.0544
1320.00,0.0545
1319.00,0.0547
1318.00,0.0548
1317.00,0.0549
1316.00,0.0550
1315.00,0.0551
1314.00,0.0551
1313.00,0.0552
1312.00,0.0552
1311.00,0.0552
1310.00,0.0552
1309.00,0.0552
1308.00,0.0551
1307.00,0.0551
1306.00,0.0550
1305.00,0.0549
1304.00,0.0548
1303.00,0.0548
1302.00,0.0548
1301.00,0.0547
1300.00,0.0547
1299.00,0.0548
1298.00,0.0548
1297.00,0.0549
1296.00,0.0550
1295.00,0.0550
1294.00,0.0551
1293.00,0.0553
1292.00,0.0554
1291.00,0.0555
1290.00,0.0556
1289.00,0.0557
1288.00,0.0559
1287.00,0.0560
1286.00,0.0561
1285.00,0.0563
1284.00,0.0564
1283.00,0.0564
1282.00,0.0565
1281.00,0.0565
1280.00,0.0566
1279.00,0.0566
1278.00,0.0567
1277.00,0.0567
1276.00,0.0567
1275.00,0.0567
1274.00,0.0567
1273.00,0.0567
1272.00,0.0568
1271.00,0.0569
1270.00,0.0570
1269.00,0.0572
1268.00,0.0574
1267.00,0.0577
1266.00,0.0580
1265.00,0.0584
1264.00,0.0587
1263.00,0.0592
1262.00,0.0597
1261.00,0.0602
1260.00,0.0608
1259.00,0.0613
1258.00,0.0619
1257.00,0.0625
1256.00,0.0630
1255.00,0.0636
1254.00,0.0642
1253.00,0.0647
1252.00,0.0653
1251.00,0.0660
1250.00,0.0666
1249.00,0.0673
1248.00,0.0679
1247.00,0.0686
1246.00,0.0692
1245.00,0.0697
1244.00,0.0703
1243.00,0.0709
1242.00,0.0714
1241.00,0.0719
1240.00,0.0724
1239.00,0.0728
1238.00,0.0732
1237.00,0.0736
1236.00,0.0740
1235.00,0.0743
1234.00,0.0746
1233.00,0.0748
1232.00,0.0750
1231.00,0.0751
1230.00,0.0752
1229.00,0.0752
1228.00,0.0751
1227.00,0.0751
1226.00,0.0749
1225.00,0.0748
1224.00,0.0746
1223.00,0.0743
1222.00,0.0740
1221.00,0.0736
1220.00,0.0732
1219.00,0.0727
1218.00,0.0722
1217.00,0.0717
1216.00,0.0711
1215.00,0.0705
1214.00,0.0698
1213.00,0.0690
1212.00,0.0683
1211.00,0.0675
1210.00,0.0667
1209.00,0.0660
1208.00,0.0652
1207.00,0.0644
1206.00,0.0635
1205.00,0.0627
1204.00,0.0619
1203.00,0.0612
1202.00,0.0604
1201.00,0.0596
1200.00,0.0589
1199.00,0.0582
1198.00,0.0575
1197.00,0.0568
1196.00,0.0562
1195.00,0.0556
1194.00,0.0550
1193.00,0.0545
1192.00,0.0540
1191.00,0.0535
1190.00,0.0531
1189.00,0.0527
1188.00,0.0523
1187.00,0.0519
1186.00,0.0516
1185.00,0.0514
1184.00,0.0511
1183.00,0.0509
1182.00,0.0507
1181.00,0.0505
1180.00,0.0504
1179.00,0.0504
1178.00,0.0504
1177.00,0.0505
1176.00,0.0507
1175.00,0.0509
1174.00,0.0511
1173.00,0.0513
1172.00,0.0515
1171.00,0.0516
1170.00,0.0517
1169.00,0.0518
1168.00,0.0519
1167.00,0.0520
1166.00,0.0521
1165.00,0.0523
1164.00,0.0525
1163.00,0.0527
1162.00,0.0529
1161.00,0.0531
1160.00,0.0533
1159.00,0.0535
1158.00,0.0537
1157.00,0.0538
1156.00,0.0539
1155.00,0.0539
1154.00,0.0538
1153.00,0.0537
1152.00,0.0536
1151.00,0.0534
1150.00,0.0532
1149.00,0.0529
1148.00,0.0526
1147.00,0.0524
1146.00,0.0520
1145.00,0.0517
1144.00,0.0515
1143.00,0.0512
1142.00,0.0510
1141.00,0.0508
1140.00,0.0507
1139.00,0.0506
1138.00,0.0506
1137.00,0.0506
1136.00,0.0506
1135.00,0.0507
1134.00,0.0509
1133.00,0.0511
1132.00,0.0513
1131.00,0.0516
1130.00,0.0519
1129.00,0.0522
1128.00,0.0526
1127.00,0.0529
1126.00,0.0532
1125.00,0.0535
1124.00,0.0538
1123.00,0.0540
1122.00,0.0543
1121.00,0.0545
1120.00,0.0548
1119.00,0.0551
1118.00,0.0554
1117.00,0.0557
1116.00,0.0559
1115.00,0.0562
1114.00,0.0564
1113.00,0.0567
1112.00,0.0570
1111.00,0.0572
1110.00,0.0575
1109.00,0.0578
1108.00,0.0581
1107.00,0.0585
1106.00,0.0588
1105.00,0.0592
1104.00,0.0595
1103.00,0.0599
1102.00,0.0603
1101.00,0.0607
1100.00,0.0611
1099.00,0.0616
1098.00,0.0620
1097.00,0.0626
1096.00,0.0632
1095.00,0.0639
1094.00,0.0646
1093.00,0.0653
1092.00,0.0661
1091.00,0.0669
1090.00,0.0678
1089.00,0.0686
1088.00,0.0695
1087.00,0.0704
1086.00,0.0713
1085.00,0.0721
1084.00,0.0730
1083.00,0.0737
1082.00,0.0744
1081.00,0.0749
1080.00,0.0754
1079.00,0.0758
1078.00,0.0761
1077.00,0.0763
1076.00,0.0764
1075.00,0.0765
1074.00,0.0765
1073.00,0.0765
1072.00,0.0765
1071.00,0.0765
1070.00,0.0765
1069.00,0.0766
1068.00,0.0767
1067.00,0.0769
1066.00,0.0771
1065.00,0.0773
1064.00,0.0775
1063.00,0.0777
1062.00,0.0779
1061.00,0.0781
1060.00,0.0783
1059.00,0.0785
1058.00,0.0787
1057.00,0.0788
1056.00,0.0789
1055.00,0.0789
1054.00,0.0789
1053.00,0.0789
1052.00,0.0789
1051.00,0.0788
1050.00,0.0787
1049.00,0.0785
1048.00,0.0783
1047.00,0.0781
1046.00,0.0779
1045.00,0.0777
1044.00,0.0775
1043.00,0.0773
1042.00,0.0771
1041.00,0.0768
1040.00,0.0766
1039.00,0.0765
1038.00,0.0763
1037.00,0.0761
1036.00,0.0759
1035.00,0.0758
1034.00,0.0756
1033.00,0.0755
1032.00,0.0754
1031.00,0.0753
1030.00,0.0752
1029.00,0.0750
1028.00,0.0748
1027.00,0.0745
1026.00,0.0742
1025.00,0.0738
1024.00,0.0734
1023.00,0.0730
1022.00,0.0725
1021.00,0.0719
1020.00,0.0713
1019.00,0.0707
1018.00,0.0700
1017.00,0.0693
1016.00,0.0687
1015.00,0.0680
1014.00,0.0673
1013.00,0.0666
1012.00,0.0659
1011.00,0.0652
1010.00,0.0644
1009.00,0.0637
1008.00,0.0630
1007.00,0.0623
1006.00,0.0617
1005.00,0.0610
1004.00,0.0605
1003.00,0.0599
1002.00,0.0593
1001.00,0.0587
1000.00,0.0581
999.00,0.0576
998.00,0.0570
997.00,0.0564
996.00,0.0558
995.00,0.0551
994.00,0.0545
993.00,0.0538
992.00,0.0532
991.00,0.0526
990.00,0.0520
989.00,0.0513
988.00,0.0507
987.00,0.0501
986.00,0.0495
985.00,0.0490
984.00,0.0485
983.00,0.0481
982.00,0.0478
981.00,0.0475
980.00,0.0473
979.00,0.0472
978.00,0.0471
977.00,0.0471
976.00,0.0471
975.00,0.0471
974.00,0.0471
973.00,0.0472
972.00,0.0473
971.00,0.0473
970.00,0.0474
969.00,0.0475
968.00,0.0475
967.00,0.0476
966.00,0.0476
965.00,0.0476
964.00,0.0476
963.00,0.0476
962.00,0.0475
961.00,0.0474
960.00,0.0472
959.00,0.0470
958.00,0.0468
957.00,0.0466
956.00,0.0464
955.00,0.0463
954.00,0.0461
953.00,0.0459
952.00,0.0457
951.00,0.0456
950.00,0.0455
949.00,0.0454
948.00,0.0453
947.00,0.0453
946.00,0.0452
945.00,0.0452
944.00,0.0451
943.00,0.0451
942.00,0.0451
941.00,0.0452
940.00,0.0453
939.00,0.0455
938.00,0.0457
937.00,0.0459
936.00,0.0460
935.00,0.0461
934.00,0.0462
933.00,0.0463
932.00,0.0464
931.00,0.0464
930.00,0.0463
929.00,0.0463
928.00,0.0462
927.00,0.0462
926.00,0.0461
925.00,0.0460
924.00,0.0459
923.00,0.0458
922.00,0.0457
921.00,0.0456
920.00,0.0454
919.00,0.0452
918.00,0.0450
917.00,0.0448
916.00,0.0447
915.00,0.0445
914.00,0.0443
913.00,0.0441
912.00,0.0439
911.00,0.0436
910.00,0.0434
909.00,0.0432
908.00,0.0431
907.00,0.0430
906.00,0.0429
905.00,0.0428
904.00,0.0427
903.00,0.0426
902.00,0.0426
901.00,0.0425
900.00,0.0425
899.00,0.0425
898.00,0.0425
897.00,0.0425
896.00,0.0425
895.00,0.0426
894.00,0.0426
893.00,0.0427
892.00,0.0428
891.00,0.0428
890.00,0.0429
889.00,0.0429
888.00,0.0430
887.00,0.0431
886.00,0.0431
885.00,0.0432
884.00,0.0432
883.00,0.0431
882.00,0.0431
881.00,0.0430
880.00,0.0430
879.00,0.0430
878.00,0.0429
877.00,0.0429
876.00,0.0429
875.00,0.0429
874.00,0.0429
873.00,0.0429
872.00,0.0428
871.00,0.0428
870.00,0.0428
869.00,0.0428
868.00,0.0429
867.00,0.0430
866.00,0.0431
865.00,0.0433
864.00,0.0434
863.00,0.0436
862.00,0.0437
861.00,0.0439
860.00,0.0440
859.00,0.0442
858.00,0.0443
857.00,0.0445
856.00,0.0447
855.00,0.0450
854.00,0.0452
853.00,0.0453
852.00,0.0455
851.00,0.0456
850.00,0.0457
849.00,0.0458
848.00,0.0459
847.00,0.0460
846.00,0.0461
845.00,0.0462
844.00,0.0463
843.00,0.0465
842.00,0.0467
841.00,0.0469
840.00,0.0471
839.00,0.0473
838.00,0.0475
837.00,0.0478
836.00,0.0481
835.00,0.0484
834.00,0.0486
833.00,0.0489
832.00,0.0491
831.00,0.0493
830.00,0.0495
829.00,0.0496
828.00,0.0497
827.00,0.0498
826.00,0.0499
825.00,0.0500
824.00,0.0501
823.00,0.0502
822.00,0.0503
821.00,0.0503
820.00,0.0504
819.00,0.0505
818.00,0.0506
817.00,0.0507
816.00,0.0509
815.00,0.0511
814.00,0.0513
813.00,0.0515
812.00,0.0517
811.00,0.0519
810.00,0.0520
809.00,0.0521
808.00,0.0523
807.00,0.0524
806.00,0.0526
805.00,0.0528
804.00,0.0530
803.00,0.0533
802.00,0.0537
801.00,0.0539
800.00,0.0542
799.00,0.0545
798.00,0.0547
797.00,0.0550
796.00,0.0553
795.00,0.0556
794.00,0.0559
793.00,0.0563
792.00,0.0567
791.00,0.0571
790.00,0.0575
789.00,0.0579
788.00,0.0584
787.00,0.0588
786.00,0.0593
785.00,0.0597
784.00,0.0602
783.00,0.0606
782.00,0.0609
781.00,0.0612
780.00,0.0615
779.00,0.0616
778.00,0.0618
777.00,0.0619
776.00,0.0620
775.00,0.0621
774.00,0.0622
773.00,0.0623
772.00,0.0624
771.00,0.0625
770.00,0.0626
769.00,0.0628
768.00,0.0630
767.00,0.0632
766.00,0.0634
765.00,0.0637
764.00,0.0639
763.00,0.0641
762.00,0.0643
761.00,0.0645
760.00,0.0647
759.00,0.0649
758.00,0.0651
757.00,0.0653
756.00,0.0656
755.00,0.0659
754.00,0.0662
753.00,0.0666
752.00,0.0669
751.00,0.0673
750.00,0.0677
749.00,0.0681
748.00,0.0684
747.00,0.0688
746.00,0.0691
745.00,0.0694
744.00,0.0697
743.00,0.0699
742.00,0.0701
741.00,0.0703
740.00,0.0706
739.00,0.0708
738.00,0.0711
737.00,0.0713
736.00,0.0715
735.00,0.0718
734.00,0.0721
733.00,0.0724
732.00,0.0728
731.00,0.0732
730.00,0.0736
729.00,0.0741
728.00,0.0746
727.00,0.0751
726.00,0.0757
725.00,0.0763
724.00,0.0769
723.00,0.0776
722.00,0.0781
721.00,0.0787
720.00,0.0792
719.00,0.0798
718.00,0.0803
717.00,0.0808
716.00,0.0814
715.00,0.0819
714.00,0.0824
713.00,0.0830
712.00,0.0835
711.00,0.0841
710.00,0.0847
709.00,0.0854
708.00,0.0860
707.00,0.0868
706.00,0.0875
705.00,0.0883
704.00,0.0892
703.00,0.0899
702.00,0.0906
701.00,0.0912
700.00,0.0916
699.00,0.0920
698.00,0.0922
697.00,0.0924
696.00,0.0925
695.00,0.0926
694.00,0.0926
693.00,0.0926
692.00,0.0926
691.00,0.0927
690.00,0.0927
689.00,0.0927
688.00,0.0929
687.00,0.0930
686.00,0.0932
685.00,0.0935
684.00,0.0937
683.00,0.0939
682.00,0.0941
681.00,0.0943
680.00,0.0945
679.00,0.0948
678.00,0.0952
677.00,0.0955
676.00,0.0958
675.00,0.0960
674.00,0.0962
673.00,0.0963
672.00,0.0964
671.00,0.0965
670.00,0.0968
669.00,0.0978
668.00,0.0993
667.00,0.1003
666.00,0.1001
665.00,0.0995
664.00,0.0992
663.00,0.0992
662.00,0.0994
661.00,0.0997
660.00,0.0999
659.00,0.1002
658.00,0.1005
657.00,0.1007
656.00,0.1009
655.00,0.1012
654.00,0.1013
653.00,0.1014
652.00,0.1016
651.00,0.1018
650.00,0.1021
649.00,0.1023
648.00,0.1025
647.00,0.1027
646.00,0.1029
645.00,0.1031
644.00,0.1033
643.00,0.1035
642.00,0.1037
641.00,0.1039
640.00,0.1040
639.00,0.1042
638.00,0.1044
637.00,0.1045
636.00,0.1047
635.00,0.1049
634.00,0.1051
633.00,0.1053
632.00,0.1055
631.00,0.1059
630.00,0.1062
629.00,0.1066
628.00,0.1069
627.00,0.1071
626.00,0.1073
625.00,0.1074
624.00,0.1077
623.00,0.1080
622.00,0.1082
621.00,0.1084
620.00,0.1085
619.00,0.1086
618.00,0.1088
617.00,0.1090
616.00,0.1092
615.00,0.1094
614.00,0.1094
613.00,0.1094
612.00,0.1095
611.00,0.1096
610.00,0.1096
609.00,0.1097
608.00,0.1099
607.00,0.1100
606.00,0.1102
605.00,0.1104
604.00,0.1107
603.00,0.1109
602.00,0.1109
601.00,0.1109
600.00,0.1109
599.00,0.1112
598.00,0.1115
597.00,0.1118
596.00,0.1119
595.00,0.1119
594.00,0.1120
593.00,0.1122
592.00,0.1125
591.00,0.1127
590.00,0.1129
589.00,0.1131
588.00,0.1134
587.00,0.1136
586.00,0.1139
585.00,0.1142
584.00,0.1145
583.00,0.1148
582.00,0.1150
581.00,0.1153
580.00,0.1156
579.00,0.1159
578.00,0.1161
577.00,0.1163
576.00,0.1165
575.00,0.1166
574.00,0.1168
573.00,0.1170
572.00,0.1172
571.00,0.1175
570.00,0.1177
569.00,0.1179
568.00,0.1181
567.00,0.1184
566.00,0.1187
565.00,0.1190
564.00,0.1193
563.00,0.1195
562.00,0.1196
561.00,0.1197
560.00,0.1199
559.00,0.1201
558.00,0.1203
557.00,0.1205
556.00,0.1207
555.00,0.1208
554.00,0.1209
553.00,0.1210
552.00,0.1212
551.00,0.1215
550.00,0.1217
549.00,0.1219
548.00,0.1222
547.00,0.1225
546.00,0.1227
545.00,0.1229
544.00,0.1231
543.00,0.1232
542.00,0.1233
541.00,0.1235
540.00,0.1237
539.00,0.1239
538.00,0.1241
537.00,0.1243
536.00,0.1245
535.00,0.1248
534.00,0.1249
533.00,0.1249
532.00,0.1251
531.00,0.1252
530.00,0.1252
529.00,0.1252
528.00,0.1253
527.00,0.1254
526.00,0.1255
525.00,0.1256
524.00,0.1257
523.00,0.1256
522.00,0.1255
521.00,0.1254
520.00,0.1255
519.00,0.1256
518.00,0.1255
517.00,0.1255
516.00,0.1254
515.00,0.1254
514.00,0.1253
513.00,0.1251
512.00,0.1249
511.00,0.1248
510.00,0.1246
509.00,0.1245
508.00,0.1245
507.00,0.1245
506.00,0.1245
505.00,0.1243
504.00,0.1241
503.00,0.1241
502.00,0.1242
501.00,0.1244
500.00,0.1245
499.00,0.1245
498.00,0.1243
497.00,0.1241
496.00,0.1239
495.00,0.1237
494.00,0.1233
493.00,0.1232
492.00,0.1233
491.00,0.1235
490.00,0.1235
489.00,0.1232
488.00,0.1229
487.00,0.1225
486.00,0.1221
485.00,0.1219
484.00,0.1219
483.00,0.1219
482.00,0.1216
481.00,0.1213
480.00,0.1210
479.00,0.1208
478.00,0.1208
477.00,0.1209
476.00,0.1210
475.00,0.1209
474.00,0.1206
473.00,0.1204
472.00,0.1203
471.00,0.1203
470.00,0.1200
469.00,0.1198
468.00,0.1198
467.00,0.1201
466.00,0.1201
465.00,0.1201
464.00,0.1199
463.00,0.1198
462.00,0.1196
461.00,0.1192
460.00,0.1189
459.00,0.1187
458.00,0.1187
457.00,0.1188
456.00,0.1188
455.00,0.1186
454.00,0.1183
453.00,0.1182
452.00,0.1181
451.00,0.1179
450.00,0.1174
449.00,0.1169
448.00,0.1166
447.00,0.1164
446.00,0.1162
445.00,0.1159
444.00,0.1158
443.00,0.1157
442.00,0.1155
441.00,0.1154
440.00,0.1153
439.00,0.1153
438.00,0.1152
437.00,0.1148
436.00,0.1144
435.00,0.1140
434.00,0.1139
433.00,0.1144
432.00,0.1152
431.00,0.1159
430.00,0.1160
429.00,0.1158
428.00,0.1158
427.00,0.1159
426.00,0.1161
425.00,0.1162
424.00,0.1162
423.00,0.1158
422.00,0.1150
421.00,0.1140
420.00,0.1135
419.00,0.1136
418.00,0.1141
417.00,0.1147
416.00,0.1149
415.00,0.1147
414.00,0.1140
413.00,0.1135
412.00,0.1136
411.00,0.1139
410.00,0.1138
409.00,0.1134
408.00,0.1131
407.00,0.1128
406.00,0.1121
405.00,0.1114
404.00,0.1112
403.00,0.1118
402.00,0.1128
401.00,0.1136
400.00,0.1138
