Created as New Dataset,Sample 1060 By YargerLab Date Wednesday, September 23 2026
cm-1,A
4000.00,0.0032
3999.00,0.0032
3998.00,0.0032
3997.00,0.0032
3996.00,0.0032
3995.00,0.0032
3994.00,0.0032
3993.00,0.0032
3992.00,0.0032
3991.00,0.0032
3990.00,0.0032
3989.00,0.0033
3988.00,0.0033
3987.00,0.0033
3986.00,0.0033
3985.00,0.0033
3984.00,0.0033
3983.00,0.0033
3982.00,0.0032
3981.00,0.0032
3980.00,0.0033
3979.00,0.0033
3978.00,0.0033
3977.00,0.0033
3976.00,0.0033
3975.00,0.0033
3974.00,0.0033
3973.00,0.0033
3972.00,0.0033
3971.00,0.0033
3970.00,0.0033
3969.00,0.0033
3968.00,0.0033
3967.00,0.0033
3966.00,0.0033
3965.00,0.0033
3964.00,0.0034
3963.00,0.0034
3962.00,0.0034
3961.00,0.0033
3960.00,0.0033
3959.00,0.0033
3958.00,0.0033
3957.00,0.0033
3956.00,0.0034
3955.00,0.0034
3954.00,0.0033
3953.00,0.0034
3952.00,0.0034
3951.00,0.0034
3950.00,0.0034
3949.00,0.0034
3948.00,0.0034
3947.00,0.0034
3946.00,0.0034
3945.00,0.0035
3944.00,0.0035
3943.00,0.0035
3942.00,0.0034
3941.00,0.0034
3940.00,0.0034
3939.00,0.0034
3938.00,0.0034
3937.00,0.0034
3936.00,0.0034
3935.00,0.0035
3934.00,0.0035
3933.00,0.0035
3932.00,0.0035
3931.00,0.0035
3930.00,0.0035
3929.00,0.0034
3928.00,0.0034
3927.00,0.0034
3926.00,0.0034
3925.00,0.0034
3924.00,0.0034
3923.00,0.0034
3922.00,0.0034
3921.00,0.0034
3920.00,0.0034
3919.00,0.0035
3918.00,0.0035
3917.00,0.0035
3916.00,0.0034
3915.00,0.0034
3914.00,0.0034
3913.00,0.0034
3912.00,0.0034
3911.00,0.0034
3910.00,0.0034
3909.00,0.0034
3908.00,0.0035
3907.00,0.0035
3906.00,0.0036
3905.00,0.0036
3904.00,0.0036
3903.00,0.0036
3902.00,0.0036
3901.00,0.0036
3900.00,0.0036
3899.00,0.0036
3898.00,0.0036
3897.00,0.0036
3896.00,0.0036
3895.00,0.0036
3894.00,0.0035
3893.00,0.0035
3892.00,0.0035
3891.00,0.0034
3890.00,0.0034
3889.00,0.0035
3888.00,0.0035
3887.00,0.0035
3886.00,0.0035
3885.00,0.0035
3884.00,0.0036
3883.00,0.0036
3882.00,0.0036
3881.00,0.0035
3880.00,0.0035
3879.00,0.0034
3878.00,0.0034
3877.00,0.0034
3876.00,0.0034
3875.00,0.0035
3874.00,0.0035
3873.00,0.0035
3872.00,0.0036
3871.00,0.0035
3870.00,0.0035
3869.00,0.0035
3868.00,0.0035
3867.00,0.0035
3866.00,0.0035
3865.00,0.0035
3864.00,0.0035
3863.00,0.0035
3862.00,0.0035
3861.00,0.0035
3860.00,0.0035
3859.00,0.0035
3858.00,0.0036
3857.00,0.0037
3856.00,0.0038
3855.00,0.0038
3854.00,0.0037
3853.00,0.0036
3852.00,0.0036
3851.00,0.0036
3850.00,0.0035
3849.00,0.0035
3848.00,0.0034
3847.00,0.0034
3846.00,0.0034
3845.00,0.0034
3844.00,0.0035
3843.00,0.0035
3842.00,0.0036
3841.00,0.0036
3840.00,0.0036
3839.00,0.0036
3838.00,0.0036
3837.00,0.0035
3836.00,0.0035
3835.00,0.0035
3834.00,0.0035
3833.00,0.0035
3832.00,0.0034
3831.00,0.0034
3830.00,0.0034
3829.00,0.0034
3828.00,0.0034
3827.00,0.0034
3826.00,0.0034
3825.00,0.0035
3824.00,0.0035
3823.00,0.0036
3822.00,0.0036
3821.00,0.0036
3820.00,0.0036
3819.00,0.0036
3818.00,0.0036
3817.00,0.0036
3816.00,0.0035
3815.00,0.0035
3814.00,0.0035
3813.00,0.0034
3812.00,0.0034
3811.00,0.0034
3810.00,0.0034
3809.00,0.0035
3808.00,0.0036
3807.00,0.0036
3806.00,0.0037
3805.00,0.0037
3804.00,0.0038
3803.00,0.0038
3802.00,0.0037
3801.00,0.0036
3800.00,0.0036
3799.00,0.0036
3798.00,0.0036
3797.00,0.0035
3796.00,0.0035
3795.00,0.0035
3794.00,0.0035
3793.00,0.0035
3792.00,0.0035
3791.00,0.0035
3790.00,0.0035
3789.00,0.0035
3788.00,0.0036
3787.00,0.0036
3786.00,0.0036
3785.00,0.0036
3784.00,0.0037
3783.00,0.0037
3782.00,0.0037
3781.00,0.0037
3780.00,0.0037
3779.00,0.0036
3778.00,0.0037
3777.00,0.0037
3776.00,0.0037
3775.00,0.0037
3774.00,0.0038
3773.00,0.0038
3772.00,0.0039
3771.00,0.0039
3770.00,0.0039
3769.00,0.0039
3768.00,0.0040
3767.00,0.0040
3766.00,0.0039
3765.00,0.0039
3764.00,0.0040
3763.00,0.0040
3762.00,0.0040
3761.00,0.0040
3760.00,0.0040
3759.00,0.0041
3758.00,0.0041
3757.00,0.0041
3756.00,0.0042
3755.00,0.0043
3754.00,0.0043
3753.00,0.0044
3752.00,0.0045
3751.00,0.0045
3750.00,0.0045
3749.00,0.0045
3748.00,0.0046
3747.00,0.0046
3746.00,0.0046
3745.00,0.0046
3744.00,0.0045
3743.00,0.0046
3742.00,0.0046
3741.00,0.0046
3740.00,0.0046
3739.00,0.0047
3738.00,0.0047
3737.00,0.0048
3736.00,0.0048
3735.00,0.0048
3734.00,0.0048
3733.00,0.0048
3732.00,0.0048
3731.00,0.0048
3730.00,0.0048
3729.00,0.0048
3728.00,0.0048
3727.00,0.0049
3726.00,0.0049
3725.00,0.0050
3724.00,0.0050
3723.00,0.0051
3722.00,0.0051
3721.00,0.0052
3720.00,0.0052
3719.00,0.0053
3718.00,0.0053
3717.00,0.0053
3716.00,0.0054
3715.00,0.0055
3714.00,0.0056
3713.00,0.0056
3712.00,0.0057
3711.00,0.0058
3710.00,0.0059
3709.00,0.0059
3708.00,0.0060
3707.00,0.0060
3706.00,0.0061
3705.00,0.0062
3704.00,0.0063
3703.00,0.0063
3702.00,0.0064
3701.00,0.0065
3700.00,0.0066
3699.00,0.0068
3698.00,0.0069
3697.00,0.0070
3696.00,0.0071
3695.00,0.0073
3694.00,0.0074
3693.00,0.0076
3692.00,0.0078
3691.00,0.0079
3690.00,0.0081
3689.00,0.0083
3688.00,0.0085
3687.00,0.0086
3686.00,0.0087
3685.00,0.0088
3684.00,0.0090
3683.00,0.0092
3682.00,0.0094
3681.00,0.0097
3680.00,0.0100
3679.00,0.0103
3678.00,0.0105
3677.00,0.0109
3676.00,0.0112
3675.00,0.0116
3674.00,0.0120
3673.00,0.0123
3672.00,0.0126
3671.00,0.0129
3670.00,0.0133
3669.00,0.0137
3668.00,0.0140
3667.00,0.0144
3666.00,0.0147
3665.00,0.0150
3664.00,0.0153
3663.00,0.0157
3662.00,0.0161
3661.00,0.0166
3660.00,0.0170
3659.00,0.0174
3658.00,0.0179
3657.00,0.0184
3656.00,0.0190
3655.00,0.0196
3654.00,0.0200
3653.00,0.0205
3652.00,0.0209
3651.00,0.0215
3650.00,0.0222
3649.00,0.0230
3648.00,0.0238
3647.00,0.0245
3646.00,0.0250
3645.00,0.0255
3644.00,0.0260
3643.00,0.0265
3642.00,0.0270
3641.00,0.0275
3640.00,0.0281
3639.00,0.0288
3638.00,0.0294
3637.00,0.0300
3636.00,0.0307
3635.00,0.0313
3634.00,0.0319
3633.00,0.0325
3632.00,0.0331
3631.00,0.0337
3630.00,0.0346
3629.00,0.0356
3628.00,0.0368
3627.00,0.0377
3626.00,0.0383
3625.00,0.0388
3624.00,0.0393
3623.00,0.0397
3622.00,0.0403
3621.00,0.0409
3620.00,0.0417
3619.00,0.0427
3618.00,0.0436
3617.00,0.0444
3616.00,0.0451
3615.00,0.0457
3614.00,0.0463
3613.00,0.0471
3612.00,0.0478
3611.00,0.0485
3610.00,0.0493
3609.00,0.0501
3608.00,0.0509
3607.00,0.0518
3606.00,0.0525
3605.00,0.0532
3604.00,0.0538
3603.00,0.0544
3602.00,0.0551
3601.00,0.0558
3600.00,0.0566
3599.00,0.0573
3598.00,0.0581
3597.00,0.0588
3596.00,0.0595
3595.00,0.0603
3594.00,0.0612
3593.00,0.0619
3592.00,0.0626
3591.00,0.0631
3590.00,0.0637
3589.00,0.0645
3588.00,0.0655
3587.00,0.0666
3586.00,0.0677
3585.00,0.0685
3584.00,0.0692
3583.00,0.0698
3582.00,0.0703
3581.00,0.0709
3580.00,0.0716
3579.00,0.0723
3578.00,0.0731
3577.00,0.0738
3576.00,0.0746
3575.00,0.0754
3574.00,0.0762
3573.00,0.0770
3572.00,0.0777
3571.00,0.0783
3570.00,0.0789
3569.00,0.0796
3568.00,0.0805
3567.00,0.0817
3566.00,0.0829
3565.00,0.0839
3564.00,0.0847
3563.00,0.0854
3562.00,0.0861
3561.00,0.0868
3560.00,0.0875
3559.00,0.0883
3558.00,0.0890
3557.00,0.0898
3556.00,0.0905
3555.00,0.0913
3554.00,0.0921
3553.00,0.0930
3552.00,0.0939
3551.00,0.0947
3550.00,0.0955
3549.00,0.0963
3548.00,0.0971
3547.00,0.0981
3546.00,0.0991
3545.00,0.1001
3544.00,0.1011
3543.00,0.1020
3542.00,0.1027
3541.00,0.1034
3540.00,0.1041
3539.00,0.1049
3538.00,0.1057
3537.00,0.1066
3536.00,0.1075
3535.00,0.1084
3534.00,0.1092
3533.00,0.1100
3532.00,0.1108
3531.00,0.1116
3530.00,0.1124
3529.00,0.1134
3528.00,0.1143
3527.00,0.1153
3526.00,0.1163
3525.00,0.1172
3524.00,0.1182
3523.00,0.1191
3522.00,0.1200
3521.00,0.1209
3520.00,0.1217
3519.00,0.1225
3518.00,0.1234
3517.00,0.1243
3516.00,0.1252
3515.00,0.1261
3514.00,0.1270
3513.00,0.1278
3512.00,0.1286
3511.00,0.1295
3510.00,0.1305
3509.00,0.1315
3508.00,0.1325
3507.00,0.1334
3506.00,0.1343
3505.00,0.1352
3504.00,0.1362
3503.00,0.1373
3502.00,0.1384
3501.00,0.1394
3500.00,0.1403
3499.00,0.1412
3498.00,0.1421
3497.00,0.1430
3496.00,0.1439
3495.00,0.1448
3494.00,0.1458
3493.00,0.1467
3492.00,0.1476
3491.00,0.1485
3490.00,0.1494
3489.00,0.1504
3488.00,0.1514
3487.00,0.1524
3486.00,0.1533
3485.00,0.1543
3484.00,0.1552
3483.00,0.1562
3482.00,0.1573
3481.00,0.1584
3480.00,0.1594
3479.00,0.1603
3478.00,0.1612
3477.00,0.1621
3476.00,0.1630
3475.00,0.1640
3474.00,0.1650
3473.00,0.1660
3472.00,0.1670
3471.00,0.1681
3470.00,0.1691
3469.00,0.1702
3468.00,0.1711
3467.00,0.1721
3466.00,0.1729
3465.00,0.1738
3464.00,0.1747
3463.00,0.1757
3462.00,0.1767
3461.00,0.1777
3460.00,0.1787
3459.00,0.1796
3458.00,0.1805
3457.00,0.1814
3456.00,0.1823
3455.00,0.1832
3454.00,0.1842
3453.00,0.1851
3452.00,0.1861
3451.00,0.1870
3450.00,0.1879
3449.00,0.1888
3448.00,0.1898
3447.00,0.1908
3446.00,0.1918
3445.00,0.1927
3444.00,0.1936
3443.00,0.1945
3442.00,0.1954
3441.00,0.1964
3440.00,0.1974
3439.00,0.1984
3438.00,0.1993
3437.00,0.2003
3436.00,0.2012
3435.00,0.2020
3434.00,0.2028
3433.00,0.2036
3432.00,0.2045
3431.00,0.2053
3430.00,0.2061
3429.00,0.2070
3428.00,0.2077
3427.00,0.2085
3426.00,0.2092
3425.00,0.2099
3424.00,0.2107
3423.00,0.2115
3422.00,0.2123
3421.00,0.2132
3420.00,0.2141
3419.00,0.2149
3418.00,0.2157
3417.00,0.2164
3416.00,0.2172
3415.00,0.2180
3414.00,0.2188
3413.00,0.2195
3412.00,0.2202
3411.00,0.2209
3410.00,0.2215
3409.00,0.2222
3408.00,0.2228
3407.00,0.2235
3406.00,0.2241
3405.00,0.2248
3404.00,0.2256
3403.00,0.2263
3402.00,0.2271
3401.00,0.2277
3400.00,0.2282
3399.00,0.2287
3398.00,0.2292
3397.00,0.2297
3396.00,0.2303
3395.00,0.2308
3394.00,0.2314
3393.00,0.2320
3392.00,0.2326
3391.00,0.2330
3390.00,0.2334
3389.00,0.2337
3388.00,0.2340
3387.00,0.2344
3386.00,0.2348
3385.00,0.2352
3384.00,0.2357
3383.00,0.2361
3382.00,0.2365
3381.00,0.2369
3380.00,0.2373
3379.00,0.2376
3378.00,0.2380
3377.00,0.2383
3376.00,0.2386
3375.00,0.2389
3374.00,0.2392
3373.00,0.2395
3372.00,0.2398
3371.00,0.2401
3370.00,0.2404
3369.00,0.2406
3368.00,0.2408
3367.00,0.2410
3366.00,0.2411
3365.00,0.2412
3364.00,0.2413
3363.00,0.2414
3362.00,0.2416
3361.00,0.2417
3360.00,0.2418
3359.00,0.2419
3358.00,0.2419
3357.00,0.2420
3356.00,0.2420
3355.00,0.2421
3354.00,0.2422
3353.00,0.2422
3352.00,0.2423
3351.00,0.2423
3350.00,0.2422
3349.00,0.2422
3348.00,0.2422
3347.00,0.2421
3346.00,0.2421
3345.00,0.2420
3344.00,0.2420
3343.00,0.2419
3342.00,0.2418
3341.00,0.2417
3340.00,0.2417
3339.00,0.2416
3338.00,0.2415
3337.00,0.2414
3336.00,0.2414
3335.00,0.2413
3334.00,0.2412
3333.00,0.2411
3332.00,0.2410
3331.00,0.2409
3330.00,0.2408
3329.00,0.2407
3328.00,0.2405
3327.00,0.2404
3326.00,0.2403
3325.00,0.2402
3324.00,0.2401
3323.00,0.2401
3322.00,0.2400
3321.00,0.2400
3320.00,0.2400
3319.00,0.2399
3318.00,0.2399
3317.00,0.2398
3316.00,0.2398
3315.00,0.2398
3314.00,0.2397
3313.00,0.2397
3312.00,0.2396
3311.00,0.2396
3310.00,0.2395
3309.00,0.2395
3308.00,0.2395
3307.00,0.2395
3306.00,0.2395
3305.00,0.2396
3304.00,0.2397
3303.00,0.2398
3302.00,0.2399
3301.00,0.2400
3300.00,0.2401
3299.00,0.2402
3298.00,0.2403
3297.00,0.2403
3296.00,0.2404
3295.00,0.2404
3294.00,0.2405
3293.00,0.2406
3292.00,0.2407
3291.00,0.2409
3290.00,0.2411
3289.00,0.2412
3288.00,0.2413
3287.00,0.2414
3286.00,0.2414
3285.00,0.2415
3284.00,0.2415
3283.00,0.2415
3282.00,0.2414
3281.00,0.2414
3280.00,0.2413
3279.00,0.2412
3278.00,0.2411
3277.00,0.2409
3276.00,0.2407
3275.00,0.2405
3274.00,0.2403
3273.00,0.2401
3272.00,0.2398
3271.00,0.2395
3270.00,0.2393
3269.00,0.2391
3268.00,0.2388
3267.00,0.2385
3266.00,0.2382
3265.00,0.2378
3264.00,0.2374
3263.00,0.2369
3262.00,0.2364
3261.00,0.2359
3260.00,0.2354
3259.00,0.2348
3258.00,0.2342
3257.00,0.2335
3256.00,0.2329
3255.00,0.2324
3254.00,0.2318
3253.00,0.2313
3252.00,0.2307
3251.00,0.2300
3250.00,0.2293
3249.00,0.2286
3248.00,0.2279
3247.00,0.2273
3246.00,0.2267
3245.00,0.2262
3244.00,0.2256
3243.00,0.2249
3242.00,0.2243
3241.00,0.2236
3240.00,0.2229
3239.00,0.2221
3238.00,0.2214
3237.00,0.2206
3236.00,0.2198
3235.00,0.2190
3234.00,0.2182
3233.00,0.2175
3232.00,0.2169
3231.00,0.2162
3230.00,0.2154
3229.00,0.2147
3228.00,0.2139
3227.00,0.2132
3226.00,0.2124
3225.00,0.2116
3224.00,0.2108
3223.00,0.2099
3222.00,0.2091
3221.00,0.2082
3220.00,0.2074
3219.00,0.2065
3218.00,0.2057
3217.00,0.2048
3216.00,0.2040
3215.00,0.2031
3214.00,0.2022
3213.00,0.2013
3212.00,0.2003
3211.00,0.1994
3210.00,0.1985
3209.00,0.1975
3208.00,0.1966
3207.00,0.1956
3206.00,0.1947
3205.00,0.1937
3204.00,0.1928
3203.00,0.1918
3202.00,0.1908
3201.00,0.1897
3200.00,0.1887
3199.00,0.1877
3198.00,0.1866
3197.00,0.1856
3196.00,0.1846
3195.00,0.1835
3194.00,0.1824
3193.00,0.1813
3192.00,0.1802
3191.00,0.1791
3190.00,0.1780
3189.00,0.1769
3188.00,0.1758
3187.00,0.1747
3186.00,0.1735
3185.00,0.1724
3184.00,0.1713
3183.00,0.1701
3182.00,0.1689
3181.00,0.1678
3180.00,0.1666
3179.00,0.1655
3178.00,0.1643
3177.00,0.1631
3176.00,0.1619
3175.00,0.1607
3174.00,0.1595
3173.00,0.1583
3172.00,0.1571
3171.00,0.1559
3170.00,0.1548
3169.00,0.1536
3168.00,0.1524
3167.00,0.1511
3166.00,0.1500
3165.00,0.1488
3164.00,0.1476
3163.00,0.1465
3162.00,0.1453
3161.00,0.1441
3160.00,0.1430
3159.00,0.1418
3158.00,0.1407
3157.00,0.1396
3156.00,0.1384
3155.00,0.1373
3154.00,0.1361
3153.00,0.1350
3152.00,0.1339
3151.00,0.1328
3150.00,0.1317
3149.00,0.1307
3148.00,0.1297
3147.00,0.1287
3146.00,0.1276
3145.00,0.1266
3144.00,0.1255
3143.00,0.1245
3142.00,0.1235
3141.00,0.1225
3140.00,0.1216
3139.00,0.1207
3138.00,0.1198
3137.00,0.1189
3136.00,0.1180
3135.00,0.1171
3134.00,0.1162
3133.00,0.1153
3132.00,0.1145
3131.00,0.1137
3130.00,0.1129
3129.00,0.1121
3128.00,0.1113
3127.00,0.1105
3126.00,0.1098
3125.00,0.1090
3124.00,0.1083
3123.00,0.1075
3122.00,0.1067
3121.00,0.1060
3120.00,0.1053
3119.00,0.1046
3118.00,0.1040
3117.00,0.1034
3116.00,0.1029
3115.00,0.1024
3114.00,0.1019
3113.00,0.1014
3112.00,0.1009
3111.00,0.1004
3110.00,0.0999
3109.00,0.0994
3108.00,0.0990
3107.00,0.0986
3106.00,0.0983
3105.00,0.0979
3104.00,0.0975
3103.00,0.0971
3102.00,0.0967
3101.00,0.0963
3100.00,0.0960
3099.00,0.0957
3098.00,0.0955
3097.00,0.0952
3096.00,0.0950
3095.00,0.0947
3094.00,0.0944
3093.00,0.0941
3092.00,0.0937
3091.00,0.0934
3090.00,0.0932
3089.00,0.0929
3088.00,0.0927
3087.00,0.0924
3086.00,0.0921
3085.00,0.0918
3084.00,0.0915
3083.00,0.0913
3082.00,0.0910
3081.00,0.0907
3080.00,0.0904
3079.00,0.0901
3078.00,0.0899
3077.00,0.0898
3076.00,0.0896
3075.00,0.0894
3074.00,0.0892
3073.00,0.0889
3072.00,0.0886
3071.00,0.0882
3070.00,0.0877
3069.00,0.0873
3068.00,0.0869
3067.00,0.0865
3066.00,0.0862
3065.00,0.0858
3064.00,0.0855
3063.00,0.0851
3062.00,0.0847
3061.00,0.0842
3060.00,0.0837
3059.00,0.0832
3058.00,0.0826
3057.00,0.0820
3056.00,0.0815
3055.00,0.0809
3054.00,0.0804
3053.00,0.0798
3052.00,0.0792
3051.00,0.0786
3050.00,0.0781
3049.00,0.0775
3048.00,0.0770
3047.00,0.0764
3046.00,0.0757
3045.00,0.0751
3044.00,0.0744
3043.00,0.0738
3042.00,0.0733
3041.00,0.0728
3040.00,0.0723
3039.00,0.0718
3038.00,0.0713
3037.00,0.0707
3036.00,0.0701
3035.00,0.0695
3034.00,0.0689
3033.00,0.0684
3032.00,0.0680
3031.00,0.0675
3030.00,0.0670
3029.00,0.0665
3028.00,0.0660
3027.00,0.0655
3026.00,0.0649
3025.00,0.0643
3024.00,0.0638
3023.00,0.0632
3022.00,0.0627
3021.00,0.0622
3020.00,0.0616
3019.00,0.0611
3018.00,0.0606
3017.00,0.0601
3016.00,0.0596
3015.00,0.0591
3014.00,0.0587
3013.00,0.0583
3012.00,0.0579
3011.00,0.0576
3010.00,0.0573
3009.00,0.0570
3008.00,0.0567
3007.00,0.0564
3006.00,0.0561
3005.00,0.0558
3004.00,0.0555
3003.00,0.0553
3002.00,0.0550
3001.00,0.0548
3000.00,0.0546
2999.00,0.0544
2998.00,0.0542
2997.00,0.0541
2996.00,0.0541
2995.00,0.0540
2994.00,0.0540
2993.00,0.0540
2992.00,0.0541
2991.00,0.0541
2990.00,0.0543
2989.00,0.0544
2988.00,0.0546
2987.00,0.0548
2986.00,0.0550
2985.00,0.0552
2984.00,0.0555
2983.00,0.0558
2982.00,0.0561
2981.00,0.0564
2980.00,0.0568
2979.00,0.0572
2978.00,0.0576
2977.00,0.0580
2976.00,0.0584
2975.00,0.0589
2974.00,0.0594
2973.00,0.0599
2972.00,0.0604
2971.00,0.0609
2970.00,0.0613
2969.00,0.0618
2968.00,0.0622
2967.00,0.0626
2966.00,0.0630
2965.00,0.0633
2964.00,0.0635
2963.00,0.0636
2962.00,0.0637
2961.00,0.0636
2960.00,0.0635
2959.00,0.0632
2958.00,0.0628
2957.00,0.0623
2956.00,0.0618
2955.00,0.0612
2954.00,0.0606
2953.00,0.0599
2952.00,0.0593
2951.00,0.0588
2950.00,0.0583
2949.00,0.0579
2948.00,0.0577
2947.00,0.0575
2946.00,0.0574
2945.00,0.0575
2944.00,0.0576
2943.00,0.0578
2942.00,0.0581
2941.00,0.0585
2940.00,0.0588
2939.00,0.0591
2938.00,0.0595
2937.00,0.0599
2936.00,0.0602
2935.00,0.0605
2934.00,0.0607
2933.00,0.0609
2932.00,0.0611
2931.00,0.0613
2930.00,0.0614
2929.00,0.0615
2928.00,0.0616
2927.00,0.0617
2926.00,0.0618
2925.00,0.0617
2924.00,0.0616
2923.00,0.0614
2922.00,0.0611
2921.00,0.0607
2920.00,0.0601
2919.00,0.0594
2918.00,0.0586
2917.00,0.0577
2916.00,0.0567
2915.00,0.0557
2914.00,0.0546
2913.00,0.0536
2912.00,0.0525
2911.00,0.0516
2910.00,0.0507
2909.00,0.0498
2908.00,0.0491
2907.00,0.0484
2906.00,0.0477
2905.00,0.0471
2904.00,0.0466
2903.00,0.0461
2902.00,0.0456
2901.00,0.0452
2900.00,0.0447
2899.00,0.0443
2898.00,0.0438
2897.00,0.0433
2896.00,0.0429
2895.00,0.0425
2894.00,0.0421
2893.00,0.0418
2892.00,0.0415
2891.00,0.0412
2890.00,0.0409
2889.00,0.0407
2888.00,0.0405
2887.00,0.0404
2886.00,0.0403
2885.00,0.0402
2884.00,0.0402
2883.00,0.0401
2882.00,0.0402
2881.00,0.0402
2880.00,0.0403
2879.00,0.0404
2878.00,0.0405
2877.00,0.0405
2876.00,0.0404
2875.00,0.0403
2874.00,0.0402
2873.00,0.0400
2872.00,0.0397
2871.00,0.0394
2870.00,0.0390
2869.00,0.0385
2868.00,0.0380
2867.00,0.0376
2866.00,0.0372
2865.00,0.0368
2864.00,0.0365
2863.00,0.0363
2862.00,0.0362
2861.00,0.0361
2860.00,0.0361
2859.00,0.0362
2858.00,0.0363
2857.00,0.0364
2856.00,0.0366
2855.00,0.0367
2854.00,0.0368
2853.00,0.0368
2852.00,0.0367
2851.00,0.0364
2850.00,0.0359
2849.00,0.0351
2848.00,0.0343
2847.00,0.0334
2846.00,0.0325
2845.00,0.0317
2844.00,0.0309
2843.00,0.0302
2842.00,0.0296
2841.00,0.0291
2840.00,0.0286
2839.00,0.0282
2838.00,0.0279
2837.00,0.0276
2836.00,0.0274
2835.00,0.0271
2834.00,0.0269
2833.00,0.0267
2832.00,0.0265
2831.00,0.0263
2830.00,0.0261
2829.00,0.0260
2828.00,0.0258
2827.00,0.0257
2826.00,0.0255
2825.00,0.0253
2824.00,0.0252
2823.00,0.0250
2822.00,0.0249
2821.00,0.0247
2820.00,0.0246
2819.00,0.0244
2818.00,0.0243
2817.00,0.0242
2816.00,0.0240
2815.00,0.0239
2814.00,0.0238
2813.00,0.0236
2812.00,0.0235
2811.00,0.0233
2810.00,0.0232
2809.00,0.0230
2808.00,0.0229
2807.00,0.0228
2806.00,0.0227
2805.00,0.0226
2804.00,0.0225
2803.00,0.0223
2802.00,0.0222
2801.00,0.0220
2800.00,0.0219
2799.00,0.0218
2798.00,0.0217
2797.00,0.0216
2796.00,0.0215
2795.00,0.0214
2794.00,0.0212
2793.00,0.0211
2792.00,0.0210
2791.00,0.0208
2790.00,0.0207
2789.00,0.0206
2788.00,0.0205
2787.00,0.0204
2786.00,0.0203
2785.00,0.0202
2784.00,0.0201
2783.00,0.0200
2782.00,0.0199
2781.00,0.0198
2780.00,0.0197
2779.00,0.0196
2778.00,0.0194
2777.00,0.0193
2776.00,0.0192
2775.00,0.0191
2774.00,0.0189
2773.00,0.0189
2772.00,0.0188
2771.00,0.0187
2770.00,0.0186
2769.00,0.0185
2768.00,0.0184
2767.00,0.0183
2766.00,0.0182
2765.00,0.0181
2764.00,0.0180
2763.00,0.0179
2762.00,0.0178
2761.00,0.0177
2760.00,0.0176
2759.00,0.0175
2758.00,0.0174
2757.00,0.0173
2756.00,0.0173
2755.00,0.0172
2754.00,0.0171
2753.00,0.0170
2752.00,0.0169
2751.00,0.0168
2750.00,0.0168
2749.00,0.0167
2748.00,0.0166
2747.00,0.0165
2746.00,0.0164
2745.00,0.0164
2744.00,0.0163
2743.00,0.0162
2742.00,0.0162
2741.00,0.0161
2740.00,0.0160
2739.00,0.0159
2738.00,0.0159
2737.00,0.0158
2736.00,0.0157
2735.00,0.0156
2734.00,0.0156
2733.00,0.0155
2732.00,0.0154
2731.00,0.0153
2730.00,0.0153
2729.00,0.0152
2728.00,0.0151
2727.00,0.0150
2726.00,0.0149
2725.00,0.0148
2724.00,0.0148
2723.00,0.0147
2722.00,0.0146
2721.00,0.0146
2720.00,0.0145
2719.00,0.0145
2718.00,0.0144
2717.00,0.0143
2716.00,0.0142
2715.00,0.0142
2714.00,0.0141
2713.00,0.0141
2712.00,0.0140
2711.00,0.0140
2710.00,0.0139
2709.00,0.0138
2708.00,0.0138
2707.00,0.0137
2706.00,0.0137
2705.00,0.0136
2704.00,0.0136
2703.00,0.0135
2702.00,0.0135
2701.00,0.0135
2700.00,0.0134
2699.00,0.0134
2698.00,0.0133
2697.00,0.0133
2696.00,0.0132
2695.00,0.0132
2694.00,0.0132
2693.00,0.0132
2692.00,0.0131
2691.00,0.0131
2690.00,0.0131
2689.00,0.0130
2688.00,0.0130
2687.00,0.0130
2686.00,0.0130
2685.00,0.0129
2684.00,0.0129
2683.00,0.0129
2682.00,0.0128
2681.00,0.0128
2680.00,0.0128
2679.00,0.0128
2678.00,0.0127
2677.00,0.0127
2676.00,0.0127
2675.00,0.0127
2674.00,0.0127
2673.00,0.0127
2672.00,0.0127
2671.00,0.0127
2670.00,0.0127
2669.00,0.0127
2668.00,0.0126
2667.00,0.0127
2666.00,0.0127
2665.00,0.0127
2664.00,0.0127
2663.00,0.0127
2662.00,0.0127
2661.00,0.0127
2660.00,0.0127
2659.00,0.0127
2658.00,0.0127
2657.00,0.0126
2656.00,0.0126
2655.00,0.0126
2654.00,0.0126
2653.00,0.0126
2652.00,0.0126
2651.00,0.0126
2650.00,0.0126
2649.00,0.0125
2648.00,0.0125
2647.00,0.0125
2646.00,0.0125
2645.00,0.0124
2644.00,0.0124
2643.00,0.0124
2642.00,0.0124
2641.00,0.0123
2640.00,0.0123
2639.00,0.0122
2638.00,0.0122
2637.00,0.0122
2636.00,0.0121
2635.00,0.0121
2634.00,0.0121
2633.00,0.0121
2632.00,0.0121
2631.00,0.0120
2630.00,0.0120
2629.00,0.0120
2628.00,0.0120
2627.00,0.0119
2626.00,0.0119
2625.00,0.0118
2624.00,0.0118
2623.00,0.0118
2622.00,0.0117
2621.00,0.0117
2620.00,0.0117
2619.00,0.0116
2618.00,0.0116
2617.00,0.0115
2616.00,0.0115
2615.00,0.0115
2614.00,0.0114
2613.00,0.0114
2612.00,0.0114
2611.00,0.0114
2610.00,0.0113
2609.00,0.0112
2608.00,0.0112
2607.00,0.0111
2606.00,0.0111
2605.00,0.0110
2604.00,0.0110
2603.00,0.0110
2602.00,0.0110
2601.00,0.0110
2600.00,0.0110
2599.00,0.0109
2598.00,0.0109
2597.00,0.0108
2596.00,0.0107
2595.00,0.0107
2594.00,0.0106
2593.00,0.0106
2592.00,0.0106
2591.00,0.0105
2590.00,0.0105
2589.00,0.0105
2588.00,0.0104
2587.00,0.0104
2586.00,0.0104
2585.00,0.0103
2584.00,0.0103
2583.00,0.0103
2582.00,0.0103
2581.00,0.0102
2580.00,0.0102
2579.00,0.0101
2578.00,0.0101
2577.00,0.0101
2576.00,0.0101
2575.00,0.0101
2574.00,0.0100
2573.00,0.0100
2572.00,0.0099
2571.00,0.0099
2570.00,0.0098
2569.00,0.0098
2568.00,0.0098
2567.00,0.0098
2566.00,0.0098
2565.00,0.0098
2564.00,0.0098
2563.00,0.0097
2562.00,0.0097
2561.00,0.0097
2560.00,0.0096
2559.00,0.0096
2558.00,0.0096
2557.00,0.0096
2556.00,0.0095
2555.00,0.0095
2554.00,0.0095
2553.00,0.0095
2552.00,0.0094
2551.00,0.0094
2550.00,0.0094
2549.00,0.0093
2548.00,0.0093
2547.00,0.0093
2546.00,0.0093
2545.00,0.0093
2544.00,0.0093
2543.00,0.0092
2542.00,0.0092
2541.00,0.0092
2540.00,0.0092
2539.00,0.0092
2538.00,0.0092
2537.00,0.0092
2536.00,0.0092
2535.00,0.0092
2534.00,0.0091
2533.00,0.0091
2532.00,0.0091
2531.00,0.0090
2530.00,0.0090
2529.00,0.0090
2528.00,0.0090
2527.00,0.0090
2526.00,0.0090
2525.00,0.0090
2524.00,0.0089
2523.00,0.0089
2522.00,0.0089
2521.00,0.0089
2520.00,0.0089
2519.00,0.0089
2518.00,0.0088
2517.00,0.0088
2516.00,0.0088
2515.00,0.0088
2514.00,0.0088
2513.00,0.0088
2512.00,0.0088
2511.00,0.0088
2510.00,0.0087
2509.00,0.0087
2508.00,0.0087
2507.00,0.0086
2506.00,0.0086
2505.00,0.0086
2504.00,0.0086
2503.00,0.0086
2502.00,0.0085
2501.00,0.0085
2500.00,0.0085
2499.00,0.0084
2498.00,0.0084
2497.00,0.0084
2496.00,0.0083
2495.00,0.0083
2494.00,0.0083
2493.00,0.0083
2492.00,0.0083
2491.00,0.0083
2490.00,0.0083
2489.00,0.0083
2488.00,0.0082
2487.00,0.0082
2486.00,0.0082
2485.00,0.0082
2484.00,0.0082
2483.00,0.0082
2482.00,0.0082
2481.00,0.0081
2480.00,0.0081
2479.00,0.0081
2478.00,0.0080
2477.00,0.0080
2476.00,0.0080
2475.00,0.0080
2474.00,0.0079
2473.00,0.0079
2472.00,0.0079
2471.00,0.0079
2470.00,0.0079
2469.00,0.0079
2468.00,0.0078
2467.00,0.0078
2466.00,0.0078
2465.00,0.0078
2464.00,0.0078
2463.00,0.0078
2462.00,0.0078
2461.00,0.0078
2460.00,0.0078
2459.00,0.0078
2458.00,0.0078
2457.00,0.0077
2456.00,0.0077
2455.00,0.0077
2454.00,0.0077
2453.00,0.0076
2452.00,0.0076
2451.00,0.0076
2450.00,0.0076
2449.00,0.0077
2448.00,0.0077
2447.00,0.0077
2446.00,0.0076
2445.00,0.0075
2444.00,0.0075
2443.00,0.0075
2442.00,0.0075
2441.00,0.0075
2440.00,0.0074
2439.00,0.0074
2438.00,0.0074
2437.00,0.0074
2436.00,0.0074
2435.00,0.0074
2434.00,0.0074
2433.00,0.0073
2432.00,0.0073
2431.00,0.0073
2430.00,0.0073
2429.00,0.0073
2428.00,0.0073
2427.00,0.0073
2426.00,0.0073
2425.00,0.0073
2424.00,0.0072
2423.00,0.0072
2422.00,0.0072
2421.00,0.0072
2420.00,0.0072
2419.00,0.0072
2418.00,0.0072
2417.00,0.0072
2416.00,0.0072
2415.00,0.0072
2414.00,0.0073
2413.00,0.0073
2412.00,0.0073
2411.00,0.0073
2410.00,0.0072
2409.00,0.0072
2408.00,0.0071
2407.00,0.0071
2406.00,0.0071
2405.00,0.0071
2404.00,0.0071
2403.00,0.0072
2402.00,0.0072
2401.00,0.0072
2400.00,0.0072
2399.00,0.0072
2398.00,0.0072
2397.00,0.0072
2396.00,0.0072
2395.00,0.0072
2394.00,0.0072
2393.00,0.0072
2392.00,0.0072
2391.00,0.0072
2390.00,0.0072
2389.00,0.0072
2388.00,0.0072
2387.00,0.0072
2386.00,0.0072
2385.00,0.0072
2384.00,0.0072
2383.00,0.0072
2382.00,0.0072
2381.00,0.0072
2380.00,0.0072
2379.00,0.0072
2378.00,0.0072
2377.00,0.0072
2376.00,0.0072
2375.00,0.0072
2374.00,0.0072
2373.00,0.0072
2372.00,0.0072
2371.00,0.0072
2370.00,0.0072
2369.00,0.0073
2368.00,0.0074
2367.00,0.0074
2366.00,0.0075
2365.00,0.0076
2364.00,0.0076
2363.00,0.0075
2362.00,0.0075
2361.00,0.0075
2360.00,0.0075
2359.00,0.0076
2358.00,0.0076
2357.00,0.0076
2356.00,0.0077
2355.00,0.0077
2354.00,0.0077
2353.00,0.0077
2352.00,0.0078
2351.00,0.0078
2350.00,0.0078
2349.00,0.0079
2348.00,0.0079
2347.00,0.0080
2346.00,0.0081
2345.00,0.0082
2344.00,0.0083
2343.00,0.0083
2342.00,0.0083
2341.00,0.0082
2340.00,0.0082
2339.00,0.0083
2338.00,0.0083
2337.00,0.0083
2336.00,0.0084
2335.00,0.0084
2334.00,0.0084
2333.00,0.0083
2332.00,0.0083
2331.00,0.0083
2330.00,0.0084
2329.00,0.0086
2328.00,0.0088
2327.00,0.0091
2326.00,0.0094
2325.00,0.0095
2324.00,0.0095
2323.00,0.0093
2322.00,0.0091
2321.00,0.0090
2320.00,0.0090
2319.00,0.0089
2318.00,0.0089
2317.00,0.0089
2316.00,0.0089
2315.00,0.0089
2314.00,0.0089
2313.00,0.0089
2312.00,0.0089
2311.00,0.0088
2310.00,0.0088
2309.00,0.0088
2308.00,0.0088
2307.00,0.0089
2306.00,0.0090
2305.00,0.0090
2304.00,0.0091
2303.00,0.0092
2302.00,0.0092
2301.00,0.0092
2300.00,0.0093
2299.00,0.0093
2298.00,0.0093
2297.00,0.0094
2296.00,0.0095
2295.00,0.0095
2294.00,0.0096
2293.00,0.0097
2292.00,0.0098
2291.00,0.0099
2290.00,0.0099
2289.00,0.0101
2288.00,0.0102
2287.00,0.0102
2286.00,0.0102
2285.00,0.0101
2284.00,0.0101
2283.00,0.0100
2282.00,0.0099
2281.00,0.0099
2280.00,0.0099
2279.00,0.0100
2278.00,0.0100
2277.00,0.0100
2276.00,0.0100
2275.00,0.0100
2274.00,0.0100
2273.00,0.0100
2272.00,0.0100
2271.00,0.0100
2270.00,0.0100
2269.00,0.0100
2268.00,0.0100
2267.00,0.0100
2266.00,0.0099
2265.00,0.0100
2264.00,0.0101
2263.00,0.0101
2262.00,0.0101
2261.00,0.0101
2260.00,0.0100
2259.00,0.0100
2258.00,0.0100
2257.00,0.0100
2256.00,0.0100
2255.00,0.0100
2254.00,0.0100
2253.00,0.0100
2252.00,0.0100
2251.00,0.0100
2250.00,0.0100
2249.00,0.0101
2248.00,0.0102
2247.00,0.0102
2246.00,0.0101
2245.00,0.0101
2244.00,0.0101
2243.00,0.0101
2242.00,0.0102
2241.00,0.0103
2240.00,0.0104
2239.00,0.0104
2238.00,0.0104
2237.00,0.0104
2236.00,0.0104
2235.00,0.0105
2234.00,0.0105
2233.00,0.0105
2232.00,0.0105
2231.00,0.0106
2230.00,0.0106
2229.00,0.0106
2228.00,0.0106
2227.00,0.0106
2226.00,0.0105
2225.00,0.0106
2224.00,0.0107
2223.00,0.0108
2222.00,0.0109
2221.00,0.0109
2220.00,0.0110
2219.00,0.0109
2218.00,0.0108
2217.00,0.0108
2216.00,0.0107
2215.00,0.0107
2214.00,0.0107
2213.00,0.0107
2212.00,0.0108
2211.00,0.0108
2210.00,0.0108
2209.00,0.0107
2208.00,0.0107
2207.00,0.0107
2206.00,0.0107
2205.00,0.0107
2204.00,0.0107
2203.00,0.0108
2202.00,0.0108
2201.00,0.0109
2200.00,0.0111
2199.00,0.0112
2198.00,0.0113
2197.00,0.0113
2196.00,0.0113
2195.00,0.0112
2194.00,0.0112
2193.00,0.0112
2192.00,0.0114
2191.00,0.0115
2190.00,0.0114
2189.00,0.0114
2188.00,0.0114
2187.00,0.0114
2186.00,0.0114
2185.00,0.0114
2184.00,0.0113
2183.00,0.0111
2182.00,0.0108
2181.00,0.0108
2180.00,0.0109
2179.00,0.0110
2178.00,0.0111
2177.00,0.0111
2176.00,0.0110
2175.00,0.0108
2174.00,0.0107
2173.00,0.0108
2172.00,0.0110
2171.00,0.0114
2170.00,0.0116
2169.00,0.0119
2168.00,0.0119
2167.00,0.0119
2166.00,0.0118
2165.00,0.0119
2164.00,0.0121
2163.00,0.0121
2162.00,0.0116
2161.00,0.0107
2160.00,0.0095
2159.00,0.0086
2158.00,0.0081
2157.00,0.0082
2156.00,0.0086
2155.00,0.0090
2154.00,0.0093
2153.00,0.0096
2152.00,0.0099
2151.00,0.0100
2150.00,0.0101
2149.00,0.0102
2148.00,0.0103
2147.00,0.0104
2146.00,0.0105
2145.00,0.0105
2144.00,0.0106
2143.00,0.0106
2142.00,0.0105
2141.00,0.0106
2140.00,0.0106
2139.00,0.0107
2138.00,0.0107
2137.00,0.0106
2136.00,0.0105
2135.00,0.0104
2134.00,0.0103
2133.00,0.0105
2132.00,0.0107
2131.00,0.0109
2130.00,0.0110
2129.00,0.0111
2128.00,0.0112
2127.00,0.0113
2126.00,0.0114
2125.00,0.0115
2124.00,0.0116
2123.00,0.0116
2122.00,0.0117
2121.00,0.0118
2120.00,0.0120
2119.00,0.0121
2118.00,0.0121
2117.00,0.0122
2116.00,0.0122
2115.00,0.0122
2114.00,0.0122
2113.00,0.0122
2112.00,0.0122
2111.00,0.0122
2110.00,0.0121
2109.00,0.0121
2108.00,0.0121
2107.00,0.0121
2106.00,0.0122
2105.00,0.0122
2104.00,0.0121
2103.00,0.0121
2102.00,0.0120
2101.00,0.0120
2100.00,0.0120
2099.00,0.0119
2098.00,0.0118
2097.00,0.0117
2096.00,0.0116
2095.00,0.0115
2094.00,0.0116
2093.00,0.0117
2092.00,0.0119
2091.00,0.0120
2090.00,0.0120
2089.00,0.0120
2088.00,0.0120
2087.00,0.0120
2086.00,0.0120
2085.00,0.0120
2084.00,0.0121
2083.00,0.0121
2082.00,0.0122
2081.00,0.0122
2080.00,0.0122
2079.00,0.0122
2078.00,0.0121
2077.00,0.0120
2076.00,0.0119
2075.00,0.0118
2074.00,0.0118
2073.00,0.0118
2072.00,0.0118
2071.00,0.0117
2070.00,0.0117
2069.00,0.0116
2068.00,0.0116
2067.00,0.0116
2066.00,0.0116
2065.00,0.0115
2064.00,0.0116
2063.00,0.0115
2062.00,0.0114
2061.00,0.0114
2060.00,0.0114
2059.00,0.0113
2058.00,0.0112
2057.00,0.0112
2056.00,0.0112
2055.00,0.0112
2054.00,0.0113
2053.00,0.0115
2052.00,0.0117
2051.00,0.0117
2050.00,0.0114
2049.00,0.0111
2048.00,0.0109
2047.00,0.0108
2046.00,0.0106
2045.00,0.0106
2044.00,0.0106
2043.00,0.0105
2042.00,0.0103
2041.00,0.0102
2040.00,0.0103
2039.00,0.0103
2038.00,0.0102
2037.00,0.0102
2036.00,0.0101
2035.00,0.0100
2034.00,0.0098
2033.00,0.0098
2032.00,0.0098
2031.00,0.0097
2030.00,0.0095
2029.00,0.0093
2028.00,0.0093
2027.00,0.0093
2026.00,0.0092
2025.00,0.0092
2024.00,0.0093
2023.00,0.0094
2022.00,0.0093
2021.00,0.0093
2020.00,0.0093
2019.00,0.0092
2018.00,0.0090
2017.00,0.0090
2016.00,0.0091
2015.00,0.0091
2014.00,0.0090
2013.00,0.0089
2012.00,0.0087
2011.00,0.0086
2010.00,0.0085
2009.00,0.0085
2008.00,0.0085
2007.00,0.0085
2006.00,0.0084
2005.00,0.0084
2004.00,0.0086
2003.00,0.0088
2002.00,0.0089
2001.00,0.0090
2000.00,0.0090
1999.00,0.0089
1998.00,0.0087
1997.00,0.0087
1996.00,0.0088
1995.00,0.0089
1994.00,0.0089
1993.00,0.0088
1992.00,0.0088
1991.00,0.0089
1990.00,0.0089
1989.00,0.0090
1988.00,0.0090
1987.00,0.0090
1986.00,0.0089
1985.00,0.0090
1984.00,0.0091
1983.00,0.0092
1982.00,0.0093
1981.00,0.0093
1980.00,0.0091
1979.00,0.0087
1978.00,0.0082
1977.00,0.0079
1976.00,0.0078
1975.00,0.0076
1974.00,0.0074
1973.00,0.0072
1972.00,0.0072
1971.00,0.0071
1970.00,0.0071
1969.00,0.0071
1968.00,0.0072
1967.00,0.0073
1966.00,0.0073
1965.00,0.0075
1964.00,0.0076
1963.00,0.0076
1962.00,0.0074
1961.00,0.0073
1960.00,0.0072
1959.00,0.0071
1958.00,0.0071
1957.00,0.0072
1956.00,0.0074
1955.00,0.0074
1954.00,0.0074
1953.00,0.0073
1952.00,0.0074
1951.00,0.0073
1950.00,0.0073
1949.00,0.0073
1948.00,0.0074
1947.00,0.0075
1946.00,0.0075
1945.00,0.0075
1944.00,0.0076
1943.00,0.0075
1942.00,0.0074
1941.00,0.0074
1940.00,0.0074
1939.00,0.0072
1938.00,0.0070
1937.00,0.0071
1936.00,0.0072
1935.00,0.0074
1934.00,0.0074
1933.00,0.0073
1932.00,0.0073
1931.00,0.0073
1930.00,0.0072
1929.00,0.0073
1928.00,0.0073
1927.00,0.0074
1926.00,0.0074
1925.00,0.0075
1924.00,0.0075
1923.00,0.0075
1922.00,0.0075
1921.00,0.0075
1920.00,0.0074
1919.00,0.0072
1918.00,0.0070
1917.00,0.0071
1916.00,0.0073
1915.00,0.0074
1914.00,0.0073
1913.00,0.0073
1912.00,0.0074
1911.00,0.0075
1910.00,0.0074
1909.00,0.0074
1908.00,0.0074
1907.00,0.0074
1906.00,0.0074
1905.00,0.0073
1904.00,0.0074
1903.00,0.0075
1902.00,0.0074
1901.00,0.0074
1900.00,0.0074
1899.00,0.0074
1898.00,0.0074
1897.00,0.0074
1896.00,0.0074
1895.00,0.0073
1894.00,0.0072
1893.00,0.0073
1892.00,0.0073
1891.00,0.0073
1890.00,0.0072
1889.00,0.0072
1888.00,0.0074
1887.00,0.0074
1886.00,0.0073
1885.00,0.0072
1884.00,0.0073
1883.00,0.0075
1882.00,0.0075
1881.00,0.0075
1880.00,0.0075
1879.00,0.0075
1878.00,0.0074
1877.00,0.0074
1876.00,0.0074
1875.00,0.0075
1874.00,0.0075
1873.00,0.0075
1872.00,0.0075
1871.00,0.0074
1870.00,0.0072
1869.00,0.0071
1868.00,0.0072
1867.00,0.0072
1866.00,0.0071
1865.00,0.0070
1864.00,0.0071
1863.00,0.0072
1862.00,0.0074
1861.00,0.0075
1860.00,0.0076
1859.00,0.0076
1858.00,0.0076
1857.00,0.0076
1856.00,0.0077
1855.00,0.0077
1854.00,0.0077
1853.00,0.0077
1852.00,0.0078
1851.00,0.0079
1850.00,0.0078
1849.00,0.0078
1848.00,0.0078
1847.00,0.0077
1846.00,0.0074
1845.00,0.0071
1844.00,0.0070
1843.00,0.0070
1842.00,0.0071
1841.00,0.0071
1840.00,0.0071
1839.00,0.0073
1838.00,0.0076
1837.00,0.0079
1836.00,0.0081
1835.00,0.0081
1834.00,0.0081
1833.00,0.0081
1832.00,0.0082
1831.00,0.0084
1830.00,0.0083
1829.00,0.0083
1828.00,0.0083
1827.00,0.0084
1826.00,0.0084
1825.00,0.0085
1824.00,0.0086
1823.00,0.0086
1822.00,0.0085
1821.00,0.0083
1820.00,0.0084
1819.00,0.0085
1818.00,0.0085
1817.00,0.0086
1816.00,0.0087
1815.00,0.0088
1814.00,0.0089
1813.00,0.0089
1812.00,0.0089
1811.00,0.0089
1810.00,0.0090
1809.00,0.0090
1808.00,0.0091
1807.00,0.0092
1806.00,0.0092
1805.00,0.0093
1804.00,0.0094
1803.00,0.0094
1802.00,0.0094
1801.00,0.0095
1800.00,0.0096
1799.00,0.0097
1798.00,0.0097
1797.00,0.0096
1796.00,0.0097
1795.00,0.0097
1794.00,0.0095
1793.00,0.0094
1792.00,0.0094
1791.00,0.0095
1790.00,0.0096
1789.00,0.0097
1788.00,0.0099
1787.00,0.0100
1786.00,0.0103
1785.00,0.0105
1784.00,0.0108
1783.00,0.0110
1782.00,0.0110
1781.00,0.0112
1780.00,0.0113
1779.00,0.0114
1778.00,0.0115
1777.00,0.0116
1776.00,0.0117
1775.00,0.0118
1774.00,0.0119
1773.00,0.0120
1772.00,0.0122
1771.00,0.0124
1770.00,0.0126
1769.00,0.0128
1768.00,0.0130
1767.00,0.0132
1766.00,0.0134
1765.00,0.0136
1764.00,0.0139
1763.00,0.0142
1762.00,0.0144
1761.00,0.0148
1760.00,0.0150
1759.00,0.0150
1758.00,0.0152
1757.00,0.0156
1756.00,0.0164
1755.00,0.0172
1754.00,0.0176
1753.00,0.0177
1752.00,0.0181
1751.00,0.0187
1750.00,0.0194
1749.00,0.0202
1748.00,0.0209
1747.00,0.0218
1746.00,0.0227
1745.00,0.0237
1744.00,0.0248
1743.00,0.0259
1742.00,0.0269
1741.00,0.0278
1740.00,0.0289
1739.00,0.0300
1738.00,0.0311
1737.00,0.0318
1736.00,0.0323
1735.00,0.0330
1734.00,0.0340
1733.00,0.0354
1732.00,0.0365
1731.00,0.0371
1730.00,0.0381
1729.00,0.0399
1728.00,0.0418
1727.00,0.0432
1726.00,0.0440
1725.00,0.0448
1724.00,0.0458
1723.00,0.0467
1722.00,0.0474
1721.00,0.0479
1720.00,0.0482
1719.00,0.0484
1718.00,0.0486
1717.00,0.0489
1716.00,0.0493
1715.00,0.0495
1714.00,0.0500
1713.00,0.0511
1712.00,0.0523
1711.00,0.0533
1710.00,0.0540
1709.00,0.0547
1708.00,0.0554
1707.00,0.0561
1706.00,0.0569
1705.00,0.0581
1704.00,0.0594
1703.00,0.0603
1702.00,0.0610
1701.00,0.0627
1700.00,0.0661
1699.00,0.0697
1698.00,0.0717
1697.00,0.0734
1696.00,0.0766
1695.00,0.0812
1694.00,0.0855
1693.00,0.0889
1692.00,0.0922
1691.00,0.0961
1690.00,0.1005
1689.00,0.1048
1688.00,0.1086
1687.00,0.1114
1686.00,0.1138
1685.00,0.1176
1684.00,0.1238
1683.00,0.1300
1682.00,0.1347
1681.00,0.1387
1680.00,0.1434
1679.00,0.1484
1678.00,0.1530
1677.00,0.1572
1676.00,0.1624
1675.00,0.1686
1674.00,0.1743
1673.00,0.1787
1672.00,0.1825
1671.00,0.1870
1670.00,0.1931
1669.00,0.2000
1668.00,0.2066
1667.00,0.2117
1666.00,0.2158
1665.00,0.2200
1664.00,0.2255
1663.00,0.2324
1662.00,0.2395
1661.00,0.2460
1660.00,0.2516
1659.00,0.2569
1658.00,0.2618
1657.00,0.2661
1656.00,0.2696
1655.00,0.2728
1654.00,0.2785
1653.00,0.2880
1652.00,0.2966
1651.00,0.3002
1650.00,0.3011
1649.00,0.3030
1648.00,0.3076
1647.00,0.3142
1646.00,0.3204
1645.00,0.3246
1644.00,0.3273
1643.00,0.3294
1642.00,0.3317
1641.00,0.3343
1640.00,0.3368
1639.00,0.3386
1638.00,0.3396
1637.00,0.3409
1636.00,0.3440
1635.00,0.3479
1634.00,0.3504
1633.00,0.3510
1632.00,0.3511
1631.00,0.3512
1630.00,0.3512
1629.00,0.3509
1628.00,0.3503
1627.00,0.3489
1626.00,0.3462
1625.00,0.3422
1624.00,0.3374
1623.00,0.3321
1622.00,0.3264
1621.00,0.3201
1620.00,0.3135
1619.00,0.3063
1618.00,0.2981
1617.00,0.2888
1616.00,0.2795
1615.00,0.2710
1614.00,0.2632
1613.00,0.2556
1612.00,0.2479
1611.00,0.2399
1610.00,0.2317
1609.00,0.2232
1608.00,0.2147
1607.00,0.2066
1606.00,0.1990
1605.00,0.1917
1604.00,0.1845
1603.00,0.1778
1602.00,0.1715
1601.00,0.1655
1600.00,0.1598
1599.00,0.1546
1598.00,0.1498
1597.00,0.1452
1596.00,0.1408
1595.00,0.1366
1594.00,0.1328
1593.00,0.1292
1592.00,0.1258
1591.00,0.1228
1590.00,0.1203
1589.00,0.1181
1588.00,0.1161
1587.00,0.1144
1586.00,0.1132
1585.00,0.1122
1584.00,0.1114
1583.00,0.1108
1582.00,0.1106
1581.00,0.1107
1580.00,0.1107
1579.00,0.1107
1578.00,0.1108
1577.00,0.1114
1576.00,0.1125
1575.00,0.1140
1574.00,0.1156
1573.00,0.1172
1572.00,0.1191
1571.00,0.1216
1570.00,0.1250
1569.00,0.1287
1568.00,0.1318
1567.00,0.1342
1566.00,0.1369
1565.00,0.1402
1564.00,0.1436
1563.00,0.1464
1562.00,0.1480
1561.00,0.1491
1560.00,0.1516
1559.00,0.1577
1558.00,0.1648
1557.00,0.1689
1556.00,0.1714
1555.00,0.1748
1554.00,0.1794
1553.00,0.1842
1552.00,0.1882
1551.00,0.1917
1550.00,0.1955
1549.00,0.1994
1548.00,0.2023
1547.00,0.2042
1546.00,0.2058
1545.00,0.2076
1544.00,0.2094
1543.00,0.2104
1542.00,0.2108
1541.00,0.2113
1540.00,0.2124
1539.00,0.2135
1538.00,0.2142
1537.00,0.2142
1536.00,0.2141
1535.00,0.2142
1534.00,0.2147
1533.00,0.2151
1532.00,0.2149
1531.00,0.2138
1530.00,0.2121
1529.00,0.2103
1528.00,0.2085
1527.00,0.2065
1526.00,0.2043
1525.00,0.2019
1524.00,0.1992
1523.00,0.1962
1522.00,0.1934
1521.00,0.1912
1520.00,0.1896
1519.00,0.1879
1518.00,0.1861
1517.00,0.1843
1516.00,0.1821
1515.00,0.1790
1514.00,0.1746
1513.00,0.1693
1512.00,0.1636
1511.00,0.1580
1510.00,0.1525
1509.00,0.1467
1508.00,0.1401
1507.00,0.1325
1506.00,0.1254
1505.00,0.1201
1504.00,0.1162
1503.00,0.1132
1502.00,0.1106
1501.00,0.1081
1500.00,0.1055
1499.00,0.1025
1498.00,0.0992
1497.00,0.0956
1496.00,0.0922
1495.00,0.0894
1494.00,0.0870
1493.00,0.0849
1492.00,0.0831
1491.00,0.0813
1490.00,0.0795
1489.00,0.0778
1488.00,0.0763
1487.00,0.0749
1486.00,0.0738
1485.00,0.0729
1484.00,0.0723
1483.00,0.0719
1482.00,0.0716
1481.00,0.0715
1480.00,0.0716
1479.00,0.0718
1478.00,0.0721
1477.00,0.0728
1476.00,0.0738
1475.00,0.0749
1474.00,0.0761
1473.00,0.0776
1472.00,0.0797
1471.00,0.0818
1470.00,0.0833
1469.00,0.0845
1468.00,0.0854
1467.00,0.0861
1466.00,0.0866
1465.00,0.0870
1464.00,0.0875
1463.00,0.0881
1462.00,0.0885
1461.00,0.0888
1460.00,0.0894
1459.00,0.0901
1458.00,0.0911
1457.00,0.0926
1456.00,0.0940
1455.00,0.0948
1454.00,0.0952
1453.00,0.0959
1452.00,0.0968
1451.00,0.0975
1450.00,0.0978
1449.00,0.0978
1448.00,0.0978
1447.00,0.0978
1446.00,0.0977
1445.00,0.0973
1444.00,0.0969
1443.00,0.0965
1442.00,0.0960
1441.00,0.0955
1440.00,0.0948
1439.00,0.0938
1438.00,0.0926
1437.00,0.0914
1436.00,0.0904
1435.00,0.0895
1434.00,0.0884
1433.00,0.0874
1432.00,0.0867
1431.00,0.0863
1430.00,0.0860
1429.00,0.0857
1428.00,0.0854
1427.00,0.0853
1426.00,0.0852
1425.00,0.0853
1424.00,0.0856
1423.00,0.0859
1422.00,0.0860
1421.00,0.0859
1420.00,0.0860
1419.00,0.0865
1418.00,0.0873
1417.00,0.0879
1416.00,0.0883
1415.00,0.0888
1414.00,0.0893
1413.00,0.0897
1412.00,0.0899
1411.00,0.0899
1410.00,0.0899
1409.00,0.0897
1408.00,0.0894
1407.00,0.0890
1406.00,0.0885
1405.00,0.0881
1404.00,0.0877
1403.00,0.0873
1402.00,0.0867
1401.00,0.0861
1400.00,0.0857
1399.00,0.0855
1398.00,0.0853
1397.00,0.0850
1396.00,0.0848
1395.00,0.0847
1394.00,0.0850
1393.00,0.0853
1392.00,0.0855
1391.00,0.0856
1390.00,0.0858
1389.00,0.0859
1388.00,0.0859
1387.00,0.0858
1386.00,0.0855
1385.00,0.0849
1384.00,0.0843
1383.00,0.0837
1382.00,0.0831
1381.00,0.0826
1380.00,0.0821
1379.00,0.0816
1378.00,0.0812
1377.00,0.0808
1376.00,0.0804
1375.00,0.0801
1374.00,0.0801
1373.00,0.0802
1372.00,0.0802
1371.00,0.0802
1370.00,0.0802
1369.00,0.0800
1368.00,0.0798
1367.00,0.0794
1366.00,0.0788
1365.00,0.0782
1364.00,0.0776
1363.00,0.0772
1362.00,0.0770
1361.00,0.0768
1360.00,0.0765
1359.00,0.0763
1358.00,0.0762
1357.00,0.0762
1356.00,0.0762
1355.00,0.0762
1354.00,0.0763
1353.00,0.0763
1352.00,0.0764
1351.00,0.0765
1350.00,0.0767
1349.00,0.0768
1348.00,0.0771
1347.00,0.0773
1346.00,0.0775
1345.00,0.0777
1344.00,0.0779
1343.00,0.0780
1342.00,0.0781
1341.00,0.0781
1340.00,0.0782
1339.00,0.0782
1338.00,0.0783
1337.00,0.0782
1336.00,0.0781
1335.00,0.0780
1334.00,0.0779
1333.00,0.0778
1332.00,0.0777
1331.00,0.0778
1330.00,0.0778
1329.00,0.0779
1328.00,0.0780
1327.00,0.0781
1326.00,0.0783
1325.00,0.0785
1324.00,0.0787
1323.00,0.0789
1322.00,0.0792
1321.00,0.0793
1320.00,0.0795
1319.00,0.0797
1318.00,0.0800
1317.00,0.0802
1316.00,0.0804
1315.00,0.0806
1314.00,0.0808
1313.00,0.0810
1312.00,0.0812
1311.00,0.0813
1310.00,0.0814
1309.00,0.0814
1308.00,0.0816
1307.00,0.0817
1306.00,0.0819
1305.00,0.0821
1304.00,0.0823
1303.00,0.0826
1302.00,0.0829
1301.00,0.0832
1300.00,0.0835
1299.00,0.0839
1298.00,0.0843
1297.00,0.0847
1296.00,0.0851
1295.00,0.0856
1294.00,0.0860
1293.00,0.0865
1292.00,0.0870
1291.00,0.0874
1290.00,0.0879
1289.00,0.0884
1288.00,0.0888
1287.00,0.0893
1286.00,0.0897
1285.00,0.0901
1284.00,0.0905
1283.00,0.0908
1282.00,0.0912
1281.00,0.0915
1280.00,0.0918
1279.00,0.0922
1278.00,0.0925
1277.00,0.0928
1276.00,0.0931
1275.00,0.0935
1274.00,0.0940
1273.00,0.0945
1272.00,0.0951
1271.00,0.0958
1270.00,0.0965
1269.00,0.0973
1268.00,0.0982
1267.00,0.0991
1266.00,0.1000
1265.00,0.1009
1264.00,0.1018
1263.00,0.1027
1262.00,0.1036
1261.00,0.1044
1260.00,0.1053
1259.00,0.1061
1258.00,0.1068
1257.00,0.1076
1256.00,0.1083
1255.00,0.1090
1254.00,0.1098
1253.00,0.1105
1252.00,0.1112
1251.00,0.1119
1250.00,0.1127
1249.00,0.1134
1248.00,0.1141
1247.00,0.1148
1246.00,0.1154
1245.00,0.1160
1244.00,0.1165
1243.00,0.1170
1242.00,0.1174
1241.00,0.1178
1240.00,0.1181
1239.00,0.1184
1238.00,0.1185
1237.00,0.1185
1236.00,0.1185
1235.00,0.1184
1234.00,0.1182
1233.00,0.1179
1232.00,0.1175
1231.00,0.1170
1230.00,0.1165
1229.00,0.1159
1228.00,0.1152
1227.00,0.1144
1226.00,0.1135
1225.00,0.1126
1224.00,0.1116
1223.00,0.1107
1222.00,0.1096
1221.00,0.1085
1220.00,0.1074
1219.00,0.1063
1218.00,0.1052
1217.00,0.1040
1216.00,0.1028
1215.00,0.1017
1214.00,0.1006
1213.00,0.0996
1212.00,0.0987
1211.00,0.0978
1210.00,0.0970
1209.00,0.0962
1208.00,0.0954
1207.00,0.0947
1206.00,0.0941
1205.00,0.0934
1204.00,0.0929
1203.00,0.0924
1202.00,0.0919
1201.00,0.0914
1200.00,0.0910
1199.00,0.0906
1198.00,0.0903
1197.00,0.0901
1196.00,0.0899
1195.00,0.0897
1194.00,0.0896
1193.00,0.0895
1192.00,0.0894
1191.00,0.0894
1190.00,0.0894
1189.00,0.0894
1188.00,0.0895
1187.00,0.0896
1186.00,0.0897
1185.00,0.0898
1184.00,0.0899
1183.00,0.0901
1182.00,0.0903
1181.00,0.0907
1180.00,0.0911
1179.00,0.0916
1178.00,0.0922
1177.00,0.0928
1176.00,0.0935
1175.00,0.0941
1174.00,0.0948
1173.00,0.0953
1172.00,0.0957
1171.00,0.0960
1170.00,0.0961
1169.00,0.0962
1168.00,0.0962
1167.00,0.0962
1166.00,0.0962
1165.00,0.0963
1164.00,0.0964
1163.00,0.0965
1162.00,0.0965
1161.00,0.0965
1160.00,0.0964
1159.00,0.0963
1158.00,0.0961
1157.00,0.0958
1156.00,0.0954
1155.00,0.0950
1154.00,0.0945
1153.00,0.0939
1152.00,0.0932
1151.00,0.0925
1150.00,0.0917
1149.00,0.0909
1148.00,0.0901
1147.00,0.0893
1146.00,0.0886
1145.00,0.0879
1144.00,0.0873
1143.00,0.0867
1142.00,0.0863
1141.00,0.0859
1140.00,0.0856
1139.00,0.0855
1138.00,0.0854
1137.00,0.0854
1136.00,0.0855
1135.00,0.0856
1134.00,0.0858
1133.00,0.0860
1132.00,0.0864
1131.00,0.0867
1130.00,0.0870
1129.00,0.0874
1128.00,0.0876
1127.00,0.0879
1126.00,0.0881
1125.00,0.0882
1124.00,0.0883
1123.00,0.0884
1122.00,0.0884
1121.00,0.0886
1120.00,0.0887
1119.00,0.0889
1118.00,0.0891
1117.00,0.0893
1116.00,0.0895
1115.00,0.0897
1114.00,0.0900
1113.00,0.0903
1112.00,0.0905
1111.00,0.0907
1110.00,0.0910
1109.00,0.0913
1108.00,0.0916
1107.00,0.0919
1106.00,0.0922
1105.00,0.0924
1104.00,0.0926
1103.00,0.0929
1102.00,0.0931
1101.00,0.0933
1100.00,0.0935
1099.00,0.0936
1098.00,0.0937
1097.00,0.0939
1096.00,0.0941
1095.00,0.0943
1094.00,0.0946
1093.00,0.0950
1092.00,0.0953
1091.00,0.0958
1090.00,0.0962
1089.00,0.0968
1088.00,0.0974
1087.00,0.0980
1086.00,0.0987
1085.00,0.0994
1084.00,0.1001
1083.00,0.1007
1082.00,0.1013
1081.00,0.1018
1080.00,0.1021
1079.00,0.1024
1078.00,0.1025
1077.00,0.1024
1076.00,0.1023
1075.00,0.1020
1074.00,0.1016
1073.00,0.1011
1072.00,0.1006
1071.00,0.1002
1070.00,0.0998
1069.00,0.0995
1068.00,0.0992
1067.00,0.0991
1066.00,0.0990
1065.00,0.0989
1064.00,0.0990
1063.00,0.0992
1062.00,0.0994
1061.00,0.0997
1060.00,0.1000
1059.00,0.1003
1058.00,0.1006
1057.00,0.1009
1056.00,0.1012
1055.00,0.1015
1054.00,0.1017
1053.00,0.1019
1052.00,0.1021
1051.00,0.1022
1050.00,0.1022
1049.00,0.1022
1048.00,0.1021
1047.00,0.1020
1046.00,0.1019
1045.00,0.1017
1044.00,0.1016
1043.00,0.1014
1042.00,0.1012
1041.00,0.1010
1040.00,0.1008
1039.00,0.1007
1038.00,0.1006
1037.00,0.1006
1036.00,0.1006
1035.00,0.1007
1034.00,0.1008
1033.00,0.1009
1032.00,0.1010
1031.00,0.1012
1030.00,0.1013
1029.00,0.1013
1028.00,0.1013
1027.00,0.1012
1026.00,0.1010
1025.00,0.1008
1024.00,0.1006
1023.00,0.1002
1022.00,0.0998
1021.00,0.0993
1020.00,0.0988
1019.00,0.0982
1018.00,0.0976
1017.00,0.0970
1016.00,0.0963
1015.00,0.0956
1014.00,0.0949
1013.00,0.0941
1012.00,0.0932
1011.00,0.0923
1010.00,0.0914
1009.00,0.0904
1008.00,0.0895
1007.00,0.0886
1006.00,0.0877
1005.00,0.0869
1004.00,0.0861
1003.00,0.0854
1002.00,0.0847
1001.00,0.0840
1000.00,0.0833
999.00,0.0827
998.00,0.0821
997.00,0.0815
996.00,0.0809
995.00,0.0803
994.00,0.0797
993.00,0.0791
992.00,0.0785
991.00,0.0779
990.00,0.0773
989.00,0.0766
988.00,0.0760
987.00,0.0753
986.00,0.0748
985.00,0.0742
984.00,0.0737
983.00,0.0731
982.00,0.0727
981.00,0.0722
980.00,0.0718
979.00,0.0715
978.00,0.0713
977.00,0.0711
976.00,0.0709
975.00,0.0707
974.00,0.0705
973.00,0.0704
972.00,0.0703
971.00,0.0702
970.00,0.0701
969.00,0.0700
968.00,0.0700
967.00,0.0699
966.00,0.0699
965.00,0.0698
964.00,0.0697
963.00,0.0697
962.00,0.0697
961.00,0.0698
960.00,0.0698
959.00,0.0699
958.00,0.0699
957.00,0.0700
956.00,0.0700
955.00,0.0701
954.00,0.0702
953.00,0.0702
952.00,0.0703
951.00,0.0704
950.00,0.0706
949.00,0.0707
948.00,0.0709
947.00,0.0710
946.00,0.0712
945.00,0.0713
944.00,0.0714
943.00,0.0716
942.00,0.0717
941.00,0.0718
940.00,0.0718
939.00,0.0719
938.00,0.0720
937.00,0.0721
936.00,0.0722
935.00,0.0723
934.00,0.0724
933.00,0.0725
932.00,0.0726
931.00,0.0726
930.00,0.0726
929.00,0.0726
928.00,0.0726
927.00,0.0726
926.00,0.0726
925.00,0.0726
924.00,0.0726
923.00,0.0725
922.00,0.0725
921.00,0.0725
920.00,0.0725
919.00,0.0724
918.00,0.0724
917.00,0.0723
916.00,0.0722
915.00,0.0722
914.00,0.0722
913.00,0.0722
912.00,0.0722
911.00,0.0723
910.00,0.0723
909.00,0.0724
908.00,0.0725
907.00,0.0726
906.00,0.0726
905.00,0.0726
904.00,0.0727
903.00,0.0728
902.00,0.0728
901.00,0.0729
900.00,0.0729
899.00,0.0730
898.00,0.0731
897.00,0.0732
896.00,0.0733
895.00,0.0734
894.00,0.0735
893.00,0.0736
892.00,0.0737
891.00,0.0739
890.00,0.0740
889.00,0.0741
888.00,0.0742
887.00,0.0744
886.00,0.0745
885.00,0.0747
884.00,0.0748
883.00,0.0749
882.00,0.0750
881.00,0.0751
880.00,0.0752
879.00,0.0754
878.00,0.0755
877.00,0.0756
876.00,0.0757
875.00,0.0758
874.00,0.0760
873.00,0.0762
872.00,0.0764
871.00,0.0766
870.00,0.0768
869.00,0.0770
868.00,0.0773
867.00,0.0776
866.00,0.0778
865.00,0.0781
864.00,0.0784
863.00,0.0788
862.00,0.0792
861.00,0.0796
860.00,0.0800
859.00,0.0805
858.00,0.0810
857.00,0.0815
856.00,0.0820
855.00,0.0826
854.00,0.0831
853.00,0.0836
852.00,0.0840
851.00,0.0844
850.00,0.0847
849.00,0.0850
848.00,0.0854
847.00,0.0857
846.00,0.0861
845.00,0.0865
844.00,0.0871
843.00,0.0877
842.00,0.0883
841.00,0.0889
840.00,0.0896
839.00,0.0903
838.00,0.0910
837.00,0.0916
836.00,0.0923
835.00,0.0930
834.00,0.0937
833.00,0.0943
832.00,0.0949
831.00,0.0955
830.00,0.0960
829.00,0.0964
828.00,0.0969
827.00,0.0973
826.00,0.0978
825.00,0.0982
824.00,0.0986
823.00,0.0991
822.00,0.0995
821.00,0.1000
820.00,0.1006
819.00,0.1011
818.00,0.1017
817.00,0.1022
816.00,0.1027
815.00,0.1032
814.00,0.1037
813.00,0.1043
812.00,0.1049
811.00,0.1055
810.00,0.1061
809.00,0.1067
808.00,0.1073
807.00,0.1080
806.00,0.1086
805.00,0.1092
804.00,0.1097
803.00,0.1103
802.00,0.1108
801.00,0.1114
800.00,0.1120
799.00,0.1126
798.00,0.1132
797.00,0.1139
796.00,0.1146
795.00,0.1153
794.00,0.1160
793.00,0.1167
792.00,0.1176
791.00,0.1185
790.00,0.1193
789.00,0.1202
788.00,0.1210
787.00,0.1218
786.00,0.1226
785.00,0.1235
784.00,0.1243
783.00,0.1251
782.00,0.1259
781.00,0.1267
780.00,0.1276
779.00,0.1283
778.00,0.1291
777.00,0.1298
776.00,0.1306
775.00,0.1314
774.00,0.1321
773.00,0.1329
772.00,0.1337
771.00,0.1345
770.00,0.1354
769.00,0.1362
768.00,0.1371
767.00,0.1380
766.00,0.1389
765.00,0.1397
764.00,0.1405
763.00,0.1413
762.00,0.1422
761.00,0.1430
760.00,0.1439
759.00,0.1449
758.00,0.1458
757.00,0.1467
756.00,0.1477
755.00,0.1487
754.00,0.1496
753.00,0.1506
752.00,0.1516
751.00,0.1526
750.00,0.1536
749.00,0.1546
748.00,0.1557
747.00,0.1567
746.00,0.1577
745.00,0.1586
744.00,0.1595
743.00,0.1604
742.00,0.1612
741.00,0.1620
740.00,0.1628
739.00,0.1637
738.00,0.1646
737.00,0.1654
736.00,0.1663
735.00,0.1671
734.00,0.1680
733.00,0.1690
732.00,0.1701
731.00,0.1712
730.00,0.1724
729.00,0.1735
728.00,0.1748
727.00,0.1761
726.00,0.1774
725.00,0.1788
724.00,0.1803
723.00,0.1818
722.00,0.1833
721.00,0.1848
720.00,0.1862
719.00,0.1875
718.00,0.1887
717.00,0.1899
716.00,0.1911
715.00,0.1925
714.00,0.1938
713.00,0.1951
712.00,0.1966
711.00,0.1981
710.00,0.1996
709.00,0.2012
708.00,0.2029
707.00,0.2046
706.00,0.2063
705.00,0.2080
704.00,0.2098
703.00,0.2115
702.00,0.2131
701.00,0.2146
700.00,0.2161
699.00,0.2173
698.00,0.2184
697.00,0.2194
696.00,0.2204
695.00,0.2214
694.00,0.2221
693.00,0.2229
692.00,0.2238
691.00,0.2247
690.00,0.2257
689.00,0.2268
688.00,0.2280
687.00,0.2292
686.00,0.2303
685.00,0.2315
684.00,0.2327
683.00,0.2340
682.00,0.2351
681.00,0.2362
680.00,0.2374
679.00,0.2386
678.00,0.2399
677.00,0.2412
676.00,0.2426
675.00,0.2439
674.00,0.2452
673.00,0.2464
672.00,0.2475
671.00,0.2483
670.00,0.2490
669.00,0.2501
668.00,0.2522
667.00,0.2544
666.00,0.2559
665.00,0.2568
664.00,0.2578
663.00,0.2589
662.00,0.2601
661.00,0.2613
660.00,0.2626
659.00,0.2639
658.00,0.2651
657.00,0.2663
656.00,0.2676
655.00,0.2688
654.00,0.2699
653.00,0.2711
652.00,0.2725
651.00,0.2738
650.00,0.2750
649.00,0.2761
648.00,0.2772
647.00,0.2784
646.00,0.2796
645.00,0.2809
644.00,0.2823
643.00,0.2838
642.00,0.2851
641.00,0.2863
640.00,0.2877
639.00,0.2890
638.00,0.2901
637.00,0.2913
636.00,0.2927
635.00,0.2941
634.00,0.2956
633.00,0.2971
632.00,0.2988
631.00,0.3005
630.00,0.3022
629.00,0.3038
628.00,0.3056
627.00,0.3073
626.00,0.3090
625.00,0.3108
624.00,0.3126
623.00,0.3142
622.00,0.3155
621.00,0.3168
620.00,0.3181
619.00,0.3195
618.00,0.3206
617.00,0.3219
616.00,0.3233
615.00,0.3247
614.00,0.3260
613.00,0.3271
612.00,0.3285
611.00,0.3298
610.00,0.3311
609.00,0.3323
608.00,0.3337
607.00,0.3350
606.00,0.3361
605.00,0.3373
604.00,0.3388
603.00,0.3403
602.00,0.3414
601.00,0.3427
600.00,0.3441
599.00,0.3454
598.00,0.3466
597.00,0.3479
596.00,0.3494
595.00,0.3509
594.00,0.3521
593.00,0.3532
592.00,0.3546
591.00,0.3560
590.00,0.3573
589.00,0.3587
588.00,0.3603
587.00,0.3618
586.00,0.3630
585.00,0.3642
584.00,0.3657
583.00,0.3672
582.00,0.3685
581.00,0.3699
580.00,0.3717
579.00,0.3733
578.00,0.3744
577.00,0.3756
576.00,0.3771
575.00,0.3786
574.00,0.3798
573.00,0.3810
572.00,0.3824
571.00,0.3839
570.00,0.3849
569.00,0.3860
568.00,0.3874
567.00,0.3889
566.00,0.3901
565.00,0.3914
564.00,0.3930
563.00,0.3946
562.00,0.3959
561.00,0.3972
560.00,0.3988
559.00,0.4002
558.00,0.4012
557.00,0.4022
556.00,0.4036
555.00,0.4050
554.00,0.4061
553.00,0.4073
552.00,0.4089
551.00,0.4105
550.00,0.4117
549.00,0.4129
548.00,0.4144
547.00,0.4156
546.00,0.4164
545.00,0.4174
544.00,0.4189
543.00,0.4204
542.00,0.4214
541.00,0.4223
540.00,0.4235
539.00,0.4247
538.00,0.4254
537.00,0.4263
536.00,0.4275
535.00,0.4287
534.00,0.4294
533.00,0.4302
532.00,0.4314
531.00,0.4325
530.00,0.4331
529.00,0.4336
528.00,0.4346
527.00,0.4356
526.00,0.4363
525.00,0.4372
524.00,0.4385
523.00,0.4394
522.00,0.4395
521.00,0.4398
520.00,0.4407
519.00,0.4417
518.00,0.4423
517.00,0.4429
516.00,0.4437
515.00,0.4443
514.00,0.4445
513.00,0.4451
512.00,0.4461
511.00,0.4467
510.00,0.4465
509.00,0.4464
508.00,0.4474
507.00,0.4488
506.00,0.4496
505.00,0.4501
504.00,0.4507
503.00,0.4509
502.00,0.4505
501.00,0.4504
500.00,0.4512
499.00,0.4521
498.00,0.4524
497.00,0.4528
496.00,0.4537
495.00,0.4545
494.00,0.4547
493.00,0.4549
492.00,0.4558
491.00,0.4565
490.00,0.4566
489.00,0.4568
488.00,0.4574
487.00,0.4575
486.00,0.4569
485.00,0.4564
484.00,0.4570
483.00,0.4578
482.00,0.4582
481.00,0.4588
480.00,0.4598
479.00,0.4601
478.00,0.4595
477.00,0.4591
476.00,0.4597
475.00,0.4602
474.00,0.4596
473.00,0.4593
472.00,0.4605
471.00,0.4621
470.00,0.4626
469.00,0.4627
468.00,0.4633
467.00,0.4635
466.00,0.4625
465.00,0.4617
464.00,0.4619
463.00,0.4622
462.00,0.4620
461.00,0.4620
460.00,0.4628
459.00,0.4633
458.00,0.4629
457.00,0.4629
456.00,0.4639
455.00,0.4640
454.00,0.4628
453.00,0.4621
452.00,0.4629
451.00,0.4636
450.00,0.4629
449.00,0.4619
448.00,0.4618
447.00,0.4615
446.00,0.4601
445.00,0.4588
444.00,0.4587
443.00,0.4585
442.00,0.4575
441.00,0.4567
440.00,0.4572
439.00,0.4574
438.00,0.4563
437.00,0.4552
436.00,0.4553
435.00,0.4554
434.00,0.4546
433.00,0.4539
432.00,0.4544
431.00,0.4547
430.00,0.4537
429.00,0.4528
428.00,0.4531
427.00,0.4533
426.00,0.4522
425.00,0.4517
424.00,0.4532
423.00,0.4548
422.00,0.4545
421.00,0.4535
420.00,0.4535
419.00,0.4522
418.00,0.4485
417.00,0.4468
416.00,0.4485
415.00,0.4505
414.00,0.4505
413.00,0.4502
412.00,0.4509
411.00,0.4509
410.00,0.4489
409.00,0.4470
408.00,0.4469
407.00,0.4458
406.00,0.4426
405.00,0.4410
404.00,0.4430
403.00,0.4450
402.00,0.4424
401.00,0.4386
400.00,0.4372
