Created as New Dataset,Sample 1019 By YargerLab Date Thursday, September 17 2026
cm-1,A
4000.00,0.0010
3999.00,0.0010
3998.00,0.0010
3997.00,0.0010
3996.00,0.0010
3995.00,0.0010
3994.00,0.0010
3993.00,0.0010
3992.00,0.0010
3991.00,0.0010
3990.00,0.0010
3989.00,0.0010
3988.00,0.0010
3987.00,0.0010
3986.00,0.0010
3985.00,0.0010
3984.00,0.0010
3983.00,0.0010
3982.00,0.0010
3981.00,0.0010
3980.00,0.0010
3979.00,0.0010
3978.00,0.0010
3977.00,0.0010
3976.00,0.0010
3975.00,0.0010
3974.00,0.0010
3973.00,0.0010
3972.00,0.0010
3971.00,0.0010
3970.00,0.0010
3969.00,0.0010
3968.00,0.0010
3967.00,0.0010
3966.00,0.0010
3965.00,0.0010
3964.00,0.0010
3963.00,0.0010
3962.00,0.0010
3961.00,0.0010
3960.00,0.0010
3959.00,0.0010
3958.00,0.0010
3957.00,0.0010
3956.00,0.0010
3955.00,0.0010
3954.00,0.0010
3953.00,0.0010
3952.00,0.0010
3951.00,0.0010
3950.00,0.0010
3949.00,0.0010
3948.00,0.0010
3947.00,0.0010
3946.00,0.0010
3945.00,0.0010
3944.00,0.0010
3943.00,0.0010
3942.00,0.0010
3941.00,0.0010
3940.00,0.0010
3939.00,0.0010
3938.00,0.0010
3937.00,0.0010
3936.00,0.0010
3935.00,0.0010
3934.00,0.0010
3933.00,0.0010
3932.00,0.0010
3931.00,0.0010
3930.00,0.0010
3929.00,0.0010
3928.00,0.0009
3927.00,0.0009
3926.00,0.0009
3925.00,0.0009
3924.00,0.0009
3923.00,0.0009
3922.00,0.0009
3921.00,0.0010
3920.00,0.0010
3919.00,0.0010
3918.00,0.0010
3917.00,0.0010
3916.00,0.0010
3915.00,0.0009
3914.00,0.0010
3913.00,0.0010
3912.00,0.0010
3911.00,0.0010
3910.00,0.0010
3909.00,0.0010
3908.00,0.0010
3907.00,0.0010
3906.00,0.0010
3905.00,0.0010
3904.00,0.0010
3903.00,0.0010
3902.00,0.0009
3901.00,0.0009
3900.00,0.0009
3899.00,0.0009
3898.00,0.0009
3897.00,0.0009
3896.00,0.0009
3895.00,0.0009
3894.00,0.0009
3893.00,0.0009
3892.00,0.0009
3891.00,0.0009
3890.00,0.0009
3889.00,0.0009
3888.00,0.0009
3887.00,0.0009
3886.00,0.0009
3885.00,0.0009
3884.00,0.0009
3883.00,0.0009
3882.00,0.0009
3881.00,0.0009
3880.00,0.0009
3879.00,0.0009
3878.00,0.0009
3877.00,0.0009
3876.00,0.0009
3875.00,0.0009
3874.00,0.0009
3873.00,0.0009
3872.00,0.0009
3871.00,0.0008
3870.00,0.0008
3869.00,0.0008
3868.00,0.0008
3867.00,0.0008
3866.00,0.0008
3865.00,0.0008
3864.00,0.0008
3863.00,0.0008
3862.00,0.0008
3861.00,0.0008
3860.00,0.0008
3859.00,0.0008
3858.00,0.0008
3857.00,0.0008
3856.00,0.0008
3855.00,0.0008
3854.00,0.0008
3853.00,0.0008
3852.00,0.0008
3851.00,0.0008
3850.00,0.0008
3849.00,0.0008
3848.00,0.0008
3847.00,0.0008
3846.00,0.0008
3845.00,0.0008
3844.00,0.0009
3843.00,0.0009
3842.00,0.0009
3841.00,0.0008
3840.00,0.0008
3839.00,0.0007
3838.00,0.0007
3837.00,0.0007
3836.00,0.0007
3835.00,0.0008
3834.00,0.0008
3833.00,0.0008
3832.00,0.0009
3831.00,0.0009
3830.00,0.0008
3829.00,0.0008
3828.00,0.0008
3827.00,0.0008
3826.00,0.0008
3825.00,0.0008
3824.00,0.0008
3823.00,0.0008
3822.00,0.0008
3821.00,0.0008
3820.00,0.0008
3819.00,0.0008
3818.00,0.0008
3817.00,0.0008
3816.00,0.0008
3815.00,0.0008
3814.00,0.0008
3813.00,0.0008
3812.00,0.0008
3811.00,0.0008
3810.00,0.0009
3809.00,0.0009
3808.00,0.0009
3807.00,0.0009
3806.00,0.0009
3805.00,0.0009
3804.00,0.0009
3803.00,0.0008
3802.00,0.0008
3801.00,0.0008
3800.00,0.0009
3799.00,0.0008
3798.00,0.0008
3797.00,0.0008
3796.00,0.0009
3795.00,0.0009
3794.00,0.0009
3793.00,0.0009
3792.00,0.0009
3791.00,0.0010
3790.00,0.0010
3789.00,0.0010
3788.00,0.0010
3787.00,0.0010
3786.00,0.0010
3785.00,0.0009
3784.00,0.0009
3783.00,0.0009
3782.00,0.0009
3781.00,0.0009
3780.00,0.0009
3779.00,0.0009
3778.00,0.0009
3777.00,0.0009
3776.00,0.0009
3775.00,0.0009
3774.00,0.0009
3773.00,0.0009
3772.00,0.0009
3771.00,0.0010
3770.00,0.0010
3769.00,0.0010
3768.00,0.0010
3767.00,0.0010
3766.00,0.0010
3765.00,0.0010
3764.00,0.0010
3763.00,0.0010
3762.00,0.0010
3761.00,0.0010
3760.00,0.0010
3759.00,0.0010
3758.00,0.0010
3757.00,0.0010
3756.00,0.0010
3755.00,0.0009
3754.00,0.0009
3753.00,0.0009
3752.00,0.0009
3751.00,0.0009
3750.00,0.0009
3749.00,0.0009
3748.00,0.0009
3747.00,0.0009
3746.00,0.0009
3745.00,0.0009
3744.00,0.0009
3743.00,0.0009
3742.00,0.0009
3741.00,0.0009
3740.00,0.0009
3739.00,0.0009
3738.00,0.0009
3737.00,0.0009
3736.00,0.0008
3735.00,0.0008
3734.00,0.0008
3733.00,0.0008
3732.00,0.0009
3731.00,0.0009
3730.00,0.0009
3729.00,0.0009
3728.00,0.0009
3727.00,0.0009
3726.00,0.0009
3725.00,0.0009
3724.00,0.0009
3723.00,0.0010
3722.00,0.0010
3721.00,0.0011
3720.00,0.0011
3719.00,0.0011
3718.00,0.0011
3717.00,0.0011
3716.00,0.0011
3715.00,0.0010
3714.00,0.0010
3713.00,0.0010
3712.00,0.0010
3711.00,0.0010
3710.00,0.0010
3709.00,0.0010
3708.00,0.0010
3707.00,0.0011
3706.00,0.0011
3705.00,0.0012
3704.00,0.0012
3703.00,0.0012
3702.00,0.0012
3701.00,0.0012
3700.00,0.0012
3699.00,0.0012
3698.00,0.0012
3697.00,0.0012
3696.00,0.0013
3695.00,0.0013
3694.00,0.0013
3693.00,0.0013
3692.00,0.0013
3691.00,0.0013
3690.00,0.0013
3689.00,0.0013
3688.00,0.0014
3687.00,0.0015
3686.00,0.0015
3685.00,0.0016
3684.00,0.0016
3683.00,0.0017
3682.00,0.0017
3681.00,0.0017
3680.00,0.0017
3679.00,0.0018
3678.00,0.0018
3677.00,0.0019
3676.00,0.0020
3675.00,0.0021
3674.00,0.0021
3673.00,0.0021
3672.00,0.0022
3671.00,0.0022
3670.00,0.0023
3669.00,0.0024
3668.00,0.0025
3667.00,0.0025
3666.00,0.0026
3665.00,0.0026
3664.00,0.0027
3663.00,0.0028
3662.00,0.0029
3661.00,0.0030
3660.00,0.0031
3659.00,0.0031
3658.00,0.0032
3657.00,0.0032
3656.00,0.0033
3655.00,0.0033
3654.00,0.0034
3653.00,0.0034
3652.00,0.0035
3651.00,0.0036
3650.00,0.0037
3649.00,0.0039
3648.00,0.0040
3647.00,0.0041
3646.00,0.0042
3645.00,0.0042
3644.00,0.0043
3643.00,0.0044
3642.00,0.0045
3641.00,0.0046
3640.00,0.0047
3639.00,0.0048
3638.00,0.0049
3637.00,0.0050
3636.00,0.0051
3635.00,0.0052
3634.00,0.0052
3633.00,0.0053
3632.00,0.0054
3631.00,0.0054
3630.00,0.0055
3629.00,0.0057
3628.00,0.0059
3627.00,0.0060
3626.00,0.0060
3625.00,0.0061
3624.00,0.0062
3623.00,0.0063
3622.00,0.0064
3621.00,0.0065
3620.00,0.0067
3619.00,0.0068
3618.00,0.0069
3617.00,0.0070
3616.00,0.0071
3615.00,0.0072
3614.00,0.0074
3613.00,0.0075
3612.00,0.0076
3611.00,0.0076
3610.00,0.0077
3609.00,0.0079
3608.00,0.0081
3607.00,0.0082
3606.00,0.0084
3605.00,0.0085
3604.00,0.0086
3603.00,0.0087
3602.00,0.0087
3601.00,0.0088
3600.00,0.0089
3599.00,0.0090
3598.00,0.0091
3597.00,0.0092
3596.00,0.0094
3595.00,0.0095
3594.00,0.0096
3593.00,0.0097
3592.00,0.0098
3591.00,0.0099
3590.00,0.0100
3589.00,0.0101
3588.00,0.0103
3587.00,0.0105
3586.00,0.0107
3585.00,0.0108
3584.00,0.0109
3583.00,0.0110
3582.00,0.0111
3581.00,0.0113
3580.00,0.0114
3579.00,0.0115
3578.00,0.0116
3577.00,0.0118
3576.00,0.0119
3575.00,0.0120
3574.00,0.0121
3573.00,0.0123
3572.00,0.0123
3571.00,0.0124
3570.00,0.0125
3569.00,0.0126
3568.00,0.0128
3567.00,0.0130
3566.00,0.0132
3565.00,0.0134
3564.00,0.0135
3563.00,0.0135
3562.00,0.0136
3561.00,0.0138
3560.00,0.0139
3559.00,0.0140
3558.00,0.0142
3557.00,0.0143
3556.00,0.0144
3555.00,0.0145
3554.00,0.0146
3553.00,0.0148
3552.00,0.0149
3551.00,0.0151
3550.00,0.0152
3549.00,0.0153
3548.00,0.0154
3547.00,0.0155
3546.00,0.0157
3545.00,0.0158
3544.00,0.0160
3543.00,0.0161
3542.00,0.0162
3541.00,0.0163
3540.00,0.0164
3539.00,0.0165
3538.00,0.0166
3537.00,0.0168
3536.00,0.0169
3535.00,0.0170
3534.00,0.0172
3533.00,0.0172
3532.00,0.0173
3531.00,0.0174
3530.00,0.0175
3529.00,0.0177
3528.00,0.0178
3527.00,0.0179
3526.00,0.0180
3525.00,0.0181
3524.00,0.0182
3523.00,0.0184
3522.00,0.0185
3521.00,0.0186
3520.00,0.0188
3519.00,0.0189
3518.00,0.0190
3517.00,0.0191
3516.00,0.0192
3515.00,0.0193
3514.00,0.0194
3513.00,0.0195
3512.00,0.0196
3511.00,0.0197
3510.00,0.0199
3509.00,0.0200
3508.00,0.0201
3507.00,0.0202
3506.00,0.0203
3505.00,0.0204
3504.00,0.0205
3503.00,0.0207
3502.00,0.0208
3501.00,0.0209
3500.00,0.0210
3499.00,0.0211
3498.00,0.0212
3497.00,0.0213
3496.00,0.0214
3495.00,0.0216
3494.00,0.0217
3493.00,0.0218
3492.00,0.0219
3491.00,0.0220
3490.00,0.0221
3489.00,0.0222
3488.00,0.0223
3487.00,0.0224
3486.00,0.0225
3485.00,0.0226
3484.00,0.0228
3483.00,0.0229
3482.00,0.0230
3481.00,0.0231
3480.00,0.0233
3479.00,0.0234
3478.00,0.0235
3477.00,0.0236
3476.00,0.0237
3475.00,0.0238
3474.00,0.0239
3473.00,0.0240
3472.00,0.0241
3471.00,0.0242
3470.00,0.0243
3469.00,0.0245
3468.00,0.0246
3467.00,0.0247
3466.00,0.0248
3465.00,0.0249
3464.00,0.0250
3463.00,0.0252
3462.00,0.0253
3461.00,0.0254
3460.00,0.0255
3459.00,0.0256
3458.00,0.0257
3457.00,0.0258
3456.00,0.0259
3455.00,0.0260
3454.00,0.0261
3453.00,0.0263
3452.00,0.0264
3451.00,0.0265
3450.00,0.0265
3449.00,0.0267
3448.00,0.0268
3447.00,0.0269
3446.00,0.0270
3445.00,0.0271
3444.00,0.0272
3443.00,0.0273
3442.00,0.0274
3441.00,0.0275
3440.00,0.0276
3439.00,0.0277
3438.00,0.0278
3437.00,0.0279
3436.00,0.0280
3435.00,0.0281
3434.00,0.0282
3433.00,0.0284
3432.00,0.0285
3431.00,0.0286
3430.00,0.0287
3429.00,0.0288
3428.00,0.0289
3427.00,0.0290
3426.00,0.0291
3425.00,0.0292
3424.00,0.0293
3423.00,0.0294
3422.00,0.0295
3421.00,0.0296
3420.00,0.0297
3419.00,0.0299
3418.00,0.0300
3417.00,0.0301
3416.00,0.0302
3415.00,0.0303
3414.00,0.0303
3413.00,0.0304
3412.00,0.0305
3411.00,0.0306
3410.00,0.0307
3409.00,0.0309
3408.00,0.0310
3407.00,0.0311
3406.00,0.0312
3405.00,0.0313
3404.00,0.0314
3403.00,0.0315
3402.00,0.0316
3401.00,0.0317
3400.00,0.0318
3399.00,0.0319
3398.00,0.0320
3397.00,0.0321
3396.00,0.0323
3395.00,0.0324
3394.00,0.0325
3393.00,0.0326
3392.00,0.0327
3391.00,0.0328
3390.00,0.0329
3389.00,0.0330
3388.00,0.0331
3387.00,0.0332
3386.00,0.0334
3385.00,0.0335
3384.00,0.0337
3383.00,0.0338
3382.00,0.0340
3381.00,0.0341
3380.00,0.0342
3379.00,0.0343
3378.00,0.0344
3377.00,0.0346
3376.00,0.0347
3375.00,0.0349
3374.00,0.0350
3373.00,0.0351
3372.00,0.0353
3371.00,0.0354
3370.00,0.0355
3369.00,0.0357
3368.00,0.0358
3367.00,0.0360
3366.00,0.0363
3365.00,0.0365
3364.00,0.0367
3363.00,0.0369
3362.00,0.0371
3361.00,0.0372
3360.00,0.0374
3359.00,0.0376
3358.00,0.0377
3357.00,0.0379
3356.00,0.0381
3355.00,0.0383
3354.00,0.0385
3353.00,0.0386
3352.00,0.0388
3351.00,0.0390
3350.00,0.0392
3349.00,0.0395
3348.00,0.0397
3347.00,0.0399
3346.00,0.0401
3345.00,0.0403
3344.00,0.0405
3343.00,0.0408
3342.00,0.0410
3341.00,0.0412
3340.00,0.0414
3339.00,0.0416
3338.00,0.0418
3337.00,0.0421
3336.00,0.0424
3335.00,0.0427
3334.00,0.0430
3333.00,0.0433
3332.00,0.0436
3331.00,0.0438
3330.00,0.0441
3329.00,0.0443
3328.00,0.0446
3327.00,0.0448
3326.00,0.0451
3325.00,0.0455
3324.00,0.0459
3323.00,0.0462
3322.00,0.0466
3321.00,0.0469
3320.00,0.0473
3319.00,0.0476
3318.00,0.0480
3317.00,0.0483
3316.00,0.0487
3315.00,0.0490
3314.00,0.0494
3313.00,0.0497
3312.00,0.0500
3311.00,0.0503
3310.00,0.0506
3309.00,0.0509
3308.00,0.0513
3307.00,0.0516
3306.00,0.0520
3305.00,0.0525
3304.00,0.0529
3303.00,0.0534
3302.00,0.0538
3301.00,0.0543
3300.00,0.0546
3299.00,0.0550
3298.00,0.0553
3297.00,0.0556
3296.00,0.0560
3295.00,0.0563
3294.00,0.0566
3293.00,0.0570
3292.00,0.0574
3291.00,0.0577
3290.00,0.0581
3289.00,0.0585
3288.00,0.0588
3287.00,0.0591
3286.00,0.0593
3285.00,0.0595
3284.00,0.0597
3283.00,0.0599
3282.00,0.0600
3281.00,0.0602
3280.00,0.0603
3279.00,0.0604
3278.00,0.0604
3277.00,0.0603
3276.00,0.0602
3275.00,0.0601
3274.00,0.0600
3273.00,0.0599
3272.00,0.0597
3271.00,0.0595
3270.00,0.0594
3269.00,0.0593
3268.00,0.0591
3267.00,0.0589
3266.00,0.0587
3265.00,0.0584
3264.00,0.0581
3263.00,0.0577
3262.00,0.0574
3261.00,0.0570
3260.00,0.0566
3259.00,0.0562
3258.00,0.0557
3257.00,0.0553
3256.00,0.0549
3255.00,0.0545
3254.00,0.0541
3253.00,0.0538
3252.00,0.0534
3251.00,0.0530
3250.00,0.0525
3249.00,0.0521
3248.00,0.0516
3247.00,0.0512
3246.00,0.0509
3245.00,0.0506
3244.00,0.0503
3243.00,0.0500
3242.00,0.0497
3241.00,0.0493
3240.00,0.0490
3239.00,0.0487
3238.00,0.0483
3237.00,0.0479
3236.00,0.0475
3235.00,0.0471
3234.00,0.0468
3233.00,0.0465
3232.00,0.0463
3231.00,0.0462
3230.00,0.0460
3229.00,0.0458
3228.00,0.0456
3227.00,0.0454
3226.00,0.0452
3225.00,0.0450
3224.00,0.0448
3223.00,0.0445
3222.00,0.0443
3221.00,0.0441
3220.00,0.0438
3219.00,0.0436
3218.00,0.0434
3217.00,0.0432
3216.00,0.0430
3215.00,0.0428
3214.00,0.0426
3213.00,0.0424
3212.00,0.0423
3211.00,0.0421
3210.00,0.0419
3209.00,0.0417
3208.00,0.0415
3207.00,0.0412
3206.00,0.0410
3205.00,0.0408
3204.00,0.0407
3203.00,0.0405
3202.00,0.0403
3201.00,0.0402
3200.00,0.0400
3199.00,0.0398
3198.00,0.0397
3197.00,0.0395
3196.00,0.0393
3195.00,0.0391
3194.00,0.0389
3193.00,0.0387
3192.00,0.0385
3191.00,0.0383
3190.00,0.0381
3189.00,0.0379
3188.00,0.0378
3187.00,0.0376
3186.00,0.0374
3185.00,0.0372
3184.00,0.0370
3183.00,0.0368
3182.00,0.0366
3181.00,0.0364
3180.00,0.0363
3179.00,0.0361
3178.00,0.0359
3177.00,0.0357
3176.00,0.0355
3175.00,0.0353
3174.00,0.0351
3173.00,0.0350
3172.00,0.0348
3171.00,0.0346
3170.00,0.0344
3169.00,0.0343
3168.00,0.0341
3167.00,0.0340
3166.00,0.0338
3165.00,0.0336
3164.00,0.0334
3163.00,0.0333
3162.00,0.0331
3161.00,0.0330
3160.00,0.0328
3159.00,0.0326
3158.00,0.0324
3157.00,0.0323
3156.00,0.0321
3155.00,0.0319
3154.00,0.0317
3153.00,0.0316
3152.00,0.0314
3151.00,0.0313
3150.00,0.0312
3149.00,0.0311
3148.00,0.0310
3147.00,0.0309
3146.00,0.0308
3145.00,0.0306
3144.00,0.0305
3143.00,0.0304
3142.00,0.0302
3141.00,0.0301
3140.00,0.0299
3139.00,0.0298
3138.00,0.0297
3137.00,0.0296
3136.00,0.0295
3135.00,0.0295
3134.00,0.0294
3133.00,0.0292
3132.00,0.0291
3131.00,0.0290
3130.00,0.0289
3129.00,0.0289
3128.00,0.0288
3127.00,0.0287
3126.00,0.0286
3125.00,0.0285
3124.00,0.0284
3123.00,0.0283
3122.00,0.0282
3121.00,0.0280
3120.00,0.0280
3119.00,0.0279
3118.00,0.0279
3117.00,0.0278
3116.00,0.0279
3115.00,0.0279
3114.00,0.0279
3113.00,0.0280
3112.00,0.0280
3111.00,0.0280
3110.00,0.0280
3109.00,0.0280
3108.00,0.0280
3107.00,0.0281
3106.00,0.0282
3105.00,0.0282
3104.00,0.0282
3103.00,0.0282
3102.00,0.0282
3101.00,0.0282
3100.00,0.0283
3099.00,0.0284
3098.00,0.0285
3097.00,0.0286
3096.00,0.0286
3095.00,0.0287
3094.00,0.0287
3093.00,0.0286
3092.00,0.0286
3091.00,0.0286
3090.00,0.0287
3089.00,0.0287
3088.00,0.0288
3087.00,0.0288
3086.00,0.0288
3085.00,0.0288
3084.00,0.0288
3083.00,0.0288
3082.00,0.0288
3081.00,0.0288
3080.00,0.0288
3079.00,0.0288
3078.00,0.0289
3077.00,0.0290
3076.00,0.0291
3075.00,0.0291
3074.00,0.0292
3073.00,0.0291
3072.00,0.0291
3071.00,0.0290
3070.00,0.0289
3069.00,0.0288
3068.00,0.0287
3067.00,0.0286
3066.00,0.0286
3065.00,0.0286
3064.00,0.0286
3063.00,0.0286
3062.00,0.0285
3061.00,0.0285
3060.00,0.0283
3059.00,0.0282
3058.00,0.0280
3057.00,0.0278
3056.00,0.0276
3055.00,0.0275
3054.00,0.0274
3053.00,0.0272
3052.00,0.0271
3051.00,0.0269
3050.00,0.0268
3049.00,0.0267
3048.00,0.0266
3047.00,0.0264
3046.00,0.0262
3045.00,0.0260
3044.00,0.0259
3043.00,0.0257
3042.00,0.0256
3041.00,0.0255
3040.00,0.0255
3039.00,0.0254
3038.00,0.0253
3037.00,0.0251
3036.00,0.0250
3035.00,0.0248
3034.00,0.0247
3033.00,0.0246
3032.00,0.0245
3031.00,0.0245
3030.00,0.0244
3029.00,0.0243
3028.00,0.0242
3027.00,0.0241
3026.00,0.0239
3025.00,0.0237
3024.00,0.0236
3023.00,0.0235
3022.00,0.0234
3021.00,0.0232
3020.00,0.0231
3019.00,0.0229
3018.00,0.0227
3017.00,0.0225
3016.00,0.0224
3015.00,0.0222
3014.00,0.0221
3013.00,0.0221
3012.00,0.0220
3011.00,0.0220
3010.00,0.0220
3009.00,0.0220
3008.00,0.0220
3007.00,0.0220
3006.00,0.0219
3005.00,0.0219
3004.00,0.0218
3003.00,0.0218
3002.00,0.0218
3001.00,0.0218
3000.00,0.0218
2999.00,0.0218
2998.00,0.0219
2997.00,0.0219
2996.00,0.0220
2995.00,0.0221
2994.00,0.0222
2993.00,0.0223
2992.00,0.0225
2991.00,0.0227
2990.00,0.0229
2989.00,0.0231
2988.00,0.0233
2987.00,0.0235
2986.00,0.0238
2985.00,0.0240
2984.00,0.0243
2983.00,0.0245
2982.00,0.0247
2981.00,0.0250
2980.00,0.0253
2979.00,0.0257
2978.00,0.0260
2977.00,0.0263
2976.00,0.0267
2975.00,0.0270
2974.00,0.0273
2973.00,0.0277
2972.00,0.0281
2971.00,0.0285
2970.00,0.0288
2969.00,0.0292
2968.00,0.0295
2967.00,0.0298
2966.00,0.0301
2965.00,0.0303
2964.00,0.0305
2963.00,0.0307
2962.00,0.0308
2961.00,0.0309
2960.00,0.0309
2959.00,0.0308
2958.00,0.0307
2957.00,0.0305
2956.00,0.0303
2955.00,0.0300
2954.00,0.0297
2953.00,0.0294
2952.00,0.0291
2951.00,0.0289
2950.00,0.0287
2949.00,0.0285
2948.00,0.0284
2947.00,0.0284
2946.00,0.0284
2945.00,0.0285
2944.00,0.0286
2943.00,0.0288
2942.00,0.0291
2941.00,0.0293
2940.00,0.0296
2939.00,0.0299
2938.00,0.0302
2937.00,0.0305
2936.00,0.0308
2935.00,0.0311
2934.00,0.0313
2933.00,0.0316
2932.00,0.0318
2931.00,0.0319
2930.00,0.0321
2929.00,0.0323
2928.00,0.0324
2927.00,0.0326
2926.00,0.0327
2925.00,0.0328
2924.00,0.0328
2923.00,0.0328
2922.00,0.0327
2921.00,0.0326
2920.00,0.0324
2919.00,0.0321
2918.00,0.0317
2917.00,0.0313
2916.00,0.0308
2915.00,0.0303
2914.00,0.0298
2913.00,0.0292
2912.00,0.0287
2911.00,0.0282
2910.00,0.0277
2909.00,0.0273
2908.00,0.0269
2907.00,0.0266
2906.00,0.0262
2905.00,0.0260
2904.00,0.0257
2903.00,0.0255
2902.00,0.0252
2901.00,0.0250
2900.00,0.0248
2899.00,0.0245
2898.00,0.0243
2897.00,0.0241
2896.00,0.0239
2895.00,0.0238
2894.00,0.0236
2893.00,0.0235
2892.00,0.0234
2891.00,0.0233
2890.00,0.0232
2889.00,0.0231
2888.00,0.0230
2887.00,0.0230
2886.00,0.0230
2885.00,0.0231
2884.00,0.0232
2883.00,0.0233
2882.00,0.0234
2881.00,0.0235
2880.00,0.0236
2879.00,0.0237
2878.00,0.0238
2877.00,0.0239
2876.00,0.0239
2875.00,0.0239
2874.00,0.0238
2873.00,0.0237
2872.00,0.0236
2871.00,0.0234
2870.00,0.0232
2869.00,0.0230
2868.00,0.0227
2867.00,0.0224
2866.00,0.0222
2865.00,0.0220
2864.00,0.0218
2863.00,0.0217
2862.00,0.0216
2861.00,0.0216
2860.00,0.0216
2859.00,0.0216
2858.00,0.0217
2857.00,0.0219
2856.00,0.0220
2855.00,0.0222
2854.00,0.0223
2853.00,0.0223
2852.00,0.0223
2851.00,0.0221
2850.00,0.0218
2849.00,0.0214
2848.00,0.0210
2847.00,0.0205
2846.00,0.0200
2845.00,0.0196
2844.00,0.0191
2843.00,0.0188
2842.00,0.0184
2841.00,0.0181
2840.00,0.0178
2839.00,0.0176
2838.00,0.0174
2837.00,0.0173
2836.00,0.0171
2835.00,0.0170
2834.00,0.0169
2833.00,0.0168
2832.00,0.0167
2831.00,0.0166
2830.00,0.0165
2829.00,0.0165
2828.00,0.0164
2827.00,0.0163
2826.00,0.0163
2825.00,0.0162
2824.00,0.0161
2823.00,0.0161
2822.00,0.0161
2821.00,0.0160
2820.00,0.0160
2819.00,0.0159
2818.00,0.0158
2817.00,0.0158
2816.00,0.0157
2815.00,0.0157
2814.00,0.0156
2813.00,0.0156
2812.00,0.0155
2811.00,0.0155
2810.00,0.0154
2809.00,0.0154
2808.00,0.0153
2807.00,0.0153
2806.00,0.0153
2805.00,0.0152
2804.00,0.0152
2803.00,0.0151
2802.00,0.0150
2801.00,0.0150
2800.00,0.0149
2799.00,0.0149
2798.00,0.0148
2797.00,0.0148
2796.00,0.0147
2795.00,0.0147
2794.00,0.0146
2793.00,0.0146
2792.00,0.0145
2791.00,0.0144
2790.00,0.0144
2789.00,0.0143
2788.00,0.0143
2787.00,0.0142
2786.00,0.0142
2785.00,0.0142
2784.00,0.0141
2783.00,0.0141
2782.00,0.0140
2781.00,0.0140
2780.00,0.0139
2779.00,0.0139
2778.00,0.0138
2777.00,0.0137
2776.00,0.0137
2775.00,0.0136
2774.00,0.0135
2773.00,0.0135
2772.00,0.0134
2771.00,0.0134
2770.00,0.0133
2769.00,0.0133
2768.00,0.0132
2767.00,0.0132
2766.00,0.0131
2765.00,0.0131
2764.00,0.0130
2763.00,0.0130
2762.00,0.0129
2761.00,0.0128
2760.00,0.0128
2759.00,0.0127
2758.00,0.0127
2757.00,0.0126
2756.00,0.0125
2755.00,0.0125
2754.00,0.0124
2753.00,0.0124
2752.00,0.0124
2751.00,0.0123
2750.00,0.0123
2749.00,0.0122
2748.00,0.0122
2747.00,0.0122
2746.00,0.0121
2745.00,0.0121
2744.00,0.0121
2743.00,0.0120
2742.00,0.0120
2741.00,0.0119
2740.00,0.0119
2739.00,0.0119
2738.00,0.0118
2737.00,0.0118
2736.00,0.0118
2735.00,0.0117
2734.00,0.0117
2733.00,0.0117
2732.00,0.0116
2731.00,0.0116
2730.00,0.0115
2729.00,0.0115
2728.00,0.0115
2727.00,0.0114
2726.00,0.0114
2725.00,0.0113
2724.00,0.0113
2723.00,0.0113
2722.00,0.0112
2721.00,0.0112
2720.00,0.0112
2719.00,0.0111
2718.00,0.0111
2717.00,0.0111
2716.00,0.0110
2715.00,0.0110
2714.00,0.0110
2713.00,0.0110
2712.00,0.0109
2711.00,0.0109
2710.00,0.0109
2709.00,0.0108
2708.00,0.0108
2707.00,0.0108
2706.00,0.0108
2705.00,0.0107
2704.00,0.0107
2703.00,0.0107
2702.00,0.0107
2701.00,0.0107
2700.00,0.0106
2699.00,0.0106
2698.00,0.0106
2697.00,0.0106
2696.00,0.0106
2695.00,0.0105
2694.00,0.0105
2693.00,0.0105
2692.00,0.0105
2691.00,0.0105
2690.00,0.0105
2689.00,0.0104
2688.00,0.0104
2687.00,0.0104
2686.00,0.0103
2685.00,0.0103
2684.00,0.0103
2683.00,0.0103
2682.00,0.0103
2681.00,0.0102
2680.00,0.0102
2679.00,0.0102
2678.00,0.0101
2677.00,0.0101
2676.00,0.0101
2675.00,0.0101
2674.00,0.0101
2673.00,0.0101
2672.00,0.0101
2671.00,0.0101
2670.00,0.0101
2669.00,0.0101
2668.00,0.0101
2667.00,0.0101
2666.00,0.0100
2665.00,0.0100
2664.00,0.0101
2663.00,0.0101
2662.00,0.0101
2661.00,0.0101
2660.00,0.0101
2659.00,0.0101
2658.00,0.0101
2657.00,0.0101
2656.00,0.0101
2655.00,0.0101
2654.00,0.0101
2653.00,0.0101
2652.00,0.0101
2651.00,0.0101
2650.00,0.0101
2649.00,0.0100
2648.00,0.0100
2647.00,0.0100
2646.00,0.0100
2645.00,0.0100
2644.00,0.0100
2643.00,0.0100
2642.00,0.0099
2641.00,0.0099
2640.00,0.0099
2639.00,0.0099
2638.00,0.0099
2637.00,0.0099
2636.00,0.0098
2635.00,0.0098
2634.00,0.0098
2633.00,0.0097
2632.00,0.0097
2631.00,0.0097
2630.00,0.0097
2629.00,0.0097
2628.00,0.0097
2627.00,0.0097
2626.00,0.0097
2625.00,0.0096
2624.00,0.0096
2623.00,0.0096
2622.00,0.0096
2621.00,0.0096
2620.00,0.0095
2619.00,0.0095
2618.00,0.0095
2617.00,0.0095
2616.00,0.0095
2615.00,0.0094
2614.00,0.0093
2613.00,0.0093
2612.00,0.0093
2611.00,0.0092
2610.00,0.0092
2609.00,0.0092
2608.00,0.0092
2607.00,0.0092
2606.00,0.0092
2605.00,0.0092
2604.00,0.0091
2603.00,0.0091
2602.00,0.0091
2601.00,0.0090
2600.00,0.0090
2599.00,0.0090
2598.00,0.0090
2597.00,0.0089
2596.00,0.0089
2595.00,0.0089
2594.00,0.0088
2593.00,0.0088
2592.00,0.0087
2591.00,0.0087
2590.00,0.0087
2589.00,0.0087
2588.00,0.0087
2587.00,0.0087
2586.00,0.0087
2585.00,0.0087
2584.00,0.0087
2583.00,0.0087
2582.00,0.0087
2581.00,0.0086
2580.00,0.0086
2579.00,0.0086
2578.00,0.0086
2577.00,0.0085
2576.00,0.0085
2575.00,0.0085
2574.00,0.0084
2573.00,0.0084
2572.00,0.0084
2571.00,0.0083
2570.00,0.0083
2569.00,0.0083
2568.00,0.0083
2567.00,0.0082
2566.00,0.0083
2565.00,0.0083
2564.00,0.0083
2563.00,0.0083
2562.00,0.0083
2561.00,0.0082
2560.00,0.0082
2559.00,0.0081
2558.00,0.0081
2557.00,0.0081
2556.00,0.0081
2555.00,0.0081
2554.00,0.0080
2553.00,0.0080
2552.00,0.0080
2551.00,0.0080
2550.00,0.0080
2549.00,0.0080
2548.00,0.0080
2547.00,0.0080
2546.00,0.0079
2545.00,0.0079
2544.00,0.0078
2543.00,0.0078
2542.00,0.0077
2541.00,0.0077
2540.00,0.0077
2539.00,0.0077
2538.00,0.0077
2537.00,0.0077
2536.00,0.0077
2535.00,0.0077
2534.00,0.0077
2533.00,0.0076
2532.00,0.0076
2531.00,0.0077
2530.00,0.0077
2529.00,0.0077
2528.00,0.0077
2527.00,0.0076
2526.00,0.0076
2525.00,0.0075
2524.00,0.0075
2523.00,0.0075
2522.00,0.0075
2521.00,0.0075
2520.00,0.0075
2519.00,0.0074
2518.00,0.0074
2517.00,0.0074
2516.00,0.0074
2515.00,0.0074
2514.00,0.0074
2513.00,0.0074
2512.00,0.0074
2511.00,0.0074
2510.00,0.0074
2509.00,0.0074
2508.00,0.0074
2507.00,0.0073
2506.00,0.0073
2505.00,0.0072
2504.00,0.0072
2503.00,0.0072
2502.00,0.0072
2501.00,0.0072
2500.00,0.0072
2499.00,0.0072
2498.00,0.0072
2497.00,0.0072
2496.00,0.0072
2495.00,0.0071
2494.00,0.0071
2493.00,0.0070
2492.00,0.0070
2491.00,0.0070
2490.00,0.0070
2489.00,0.0070
2488.00,0.0070
2487.00,0.0070
2486.00,0.0069
2485.00,0.0069
2484.00,0.0068
2483.00,0.0068
2482.00,0.0068
2481.00,0.0067
2480.00,0.0067
2479.00,0.0067
2478.00,0.0067
2477.00,0.0067
2476.00,0.0066
2475.00,0.0066
2474.00,0.0066
2473.00,0.0066
2472.00,0.0066
2471.00,0.0066
2470.00,0.0066
2469.00,0.0066
2468.00,0.0065
2467.00,0.0065
2466.00,0.0065
2465.00,0.0065
2464.00,0.0065
2463.00,0.0065
2462.00,0.0065
2461.00,0.0065
2460.00,0.0065
2459.00,0.0065
2458.00,0.0065
2457.00,0.0065
2456.00,0.0064
2455.00,0.0064
2454.00,0.0064
2453.00,0.0064
2452.00,0.0064
2451.00,0.0063
2450.00,0.0063
2449.00,0.0062
2448.00,0.0062
2447.00,0.0062
2446.00,0.0062
2445.00,0.0062
2444.00,0.0061
2443.00,0.0061
2442.00,0.0061
2441.00,0.0061
2440.00,0.0061
2439.00,0.0060
2438.00,0.0060
2437.00,0.0060
2436.00,0.0059
2435.00,0.0059
2434.00,0.0059
2433.00,0.0058
2432.00,0.0058
2431.00,0.0058
2430.00,0.0057
2429.00,0.0057
2428.00,0.0057
2427.00,0.0056
2426.00,0.0057
2425.00,0.0057
2424.00,0.0057
2423.00,0.0057
2422.00,0.0056
2421.00,0.0056
2420.00,0.0056
2419.00,0.0056
2418.00,0.0056
2417.00,0.0056
2416.00,0.0055
2415.00,0.0055
2414.00,0.0055
2413.00,0.0055
2412.00,0.0055
2411.00,0.0055
2410.00,0.0055
2409.00,0.0054
2408.00,0.0054
2407.00,0.0053
2406.00,0.0053
2405.00,0.0053
2404.00,0.0053
2403.00,0.0053
2402.00,0.0052
2401.00,0.0052
2400.00,0.0052
2399.00,0.0052
2398.00,0.0052
2397.00,0.0052
2396.00,0.0052
2395.00,0.0052
2394.00,0.0051
2393.00,0.0051
2392.00,0.0051
2391.00,0.0050
2390.00,0.0050
2389.00,0.0050
2388.00,0.0049
2387.00,0.0049
2386.00,0.0049
2385.00,0.0049
2384.00,0.0049
2383.00,0.0048
2382.00,0.0048
2381.00,0.0047
2380.00,0.0047
2379.00,0.0047
2378.00,0.0047
2377.00,0.0047
2376.00,0.0047
2375.00,0.0047
2374.00,0.0047
2373.00,0.0047
2372.00,0.0047
2371.00,0.0047
2370.00,0.0047
2369.00,0.0047
2368.00,0.0047
2367.00,0.0047
2366.00,0.0047
2365.00,0.0047
2364.00,0.0047
2363.00,0.0046
2362.00,0.0046
2361.00,0.0046
2360.00,0.0046
2359.00,0.0047
2358.00,0.0047
2357.00,0.0047
2356.00,0.0047
2355.00,0.0047
2354.00,0.0047
2353.00,0.0047
2352.00,0.0047
2351.00,0.0047
2350.00,0.0047
2349.00,0.0047
2348.00,0.0047
2347.00,0.0047
2346.00,0.0047
2345.00,0.0047
2344.00,0.0047
2343.00,0.0048
2342.00,0.0048
2341.00,0.0049
2340.00,0.0049
2339.00,0.0049
2338.00,0.0049
2337.00,0.0049
2336.00,0.0049
2335.00,0.0049
2334.00,0.0049
2333.00,0.0049
2332.00,0.0048
2331.00,0.0048
2330.00,0.0048
2329.00,0.0049
2328.00,0.0052
2327.00,0.0055
2326.00,0.0057
2325.00,0.0059
2324.00,0.0058
2323.00,0.0056
2322.00,0.0055
2321.00,0.0054
2320.00,0.0053
2319.00,0.0052
2318.00,0.0052
2317.00,0.0051
2316.00,0.0050
2315.00,0.0050
2314.00,0.0049
2313.00,0.0049
2312.00,0.0049
2311.00,0.0049
2310.00,0.0049
2309.00,0.0049
2308.00,0.0050
2307.00,0.0050
2306.00,0.0050
2305.00,0.0050
2304.00,0.0049
2303.00,0.0049
2302.00,0.0049
2301.00,0.0049
2300.00,0.0049
2299.00,0.0049
2298.00,0.0050
2297.00,0.0051
2296.00,0.0051
2295.00,0.0051
2294.00,0.0051
2293.00,0.0052
2292.00,0.0052
2291.00,0.0053
2290.00,0.0053
2289.00,0.0053
2288.00,0.0053
2287.00,0.0054
2286.00,0.0053
2285.00,0.0053
2284.00,0.0053
2283.00,0.0052
2282.00,0.0052
2281.00,0.0051
2280.00,0.0051
2279.00,0.0051
2278.00,0.0050
2277.00,0.0049
2276.00,0.0049
2275.00,0.0048
2274.00,0.0048
2273.00,0.0048
2272.00,0.0048
2271.00,0.0047
2270.00,0.0047
2269.00,0.0046
2268.00,0.0046
2267.00,0.0045
2266.00,0.0045
2265.00,0.0046
2264.00,0.0046
2263.00,0.0045
2262.00,0.0044
2261.00,0.0044
2260.00,0.0044
2259.00,0.0045
2258.00,0.0045
2257.00,0.0045
2256.00,0.0045
2255.00,0.0045
2254.00,0.0044
2253.00,0.0043
2252.00,0.0043
2251.00,0.0044
2250.00,0.0044
2249.00,0.0045
2248.00,0.0045
2247.00,0.0045
2246.00,0.0044
2245.00,0.0044
2244.00,0.0044
2243.00,0.0044
2242.00,0.0044
2241.00,0.0044
2240.00,0.0044
2239.00,0.0044
2238.00,0.0044
2237.00,0.0044
2236.00,0.0044
2235.00,0.0044
2234.00,0.0044
2233.00,0.0044
2232.00,0.0044
2231.00,0.0044
2230.00,0.0044
2229.00,0.0043
2228.00,0.0043
2227.00,0.0042
2226.00,0.0041
2225.00,0.0040
2224.00,0.0040
2223.00,0.0041
2222.00,0.0042
2221.00,0.0043
2220.00,0.0044
2219.00,0.0044
2218.00,0.0044
2217.00,0.0043
2216.00,0.0043
2215.00,0.0042
2214.00,0.0042
2213.00,0.0042
2212.00,0.0042
2211.00,0.0043
2210.00,0.0043
2209.00,0.0043
2208.00,0.0043
2207.00,0.0042
2206.00,0.0041
2205.00,0.0040
2204.00,0.0040
2203.00,0.0041
2202.00,0.0042
2201.00,0.0043
2200.00,0.0043
2199.00,0.0044
2198.00,0.0044
2197.00,0.0045
2196.00,0.0045
2195.00,0.0045
2194.00,0.0045
2193.00,0.0045
2192.00,0.0045
2191.00,0.0046
2190.00,0.0046
2189.00,0.0046
2188.00,0.0046
2187.00,0.0044
2186.00,0.0042
2185.00,0.0039
2184.00,0.0037
2183.00,0.0035
2182.00,0.0035
2181.00,0.0036
2180.00,0.0038
2179.00,0.0039
2178.00,0.0038
2177.00,0.0036
2176.00,0.0035
2175.00,0.0034
2174.00,0.0035
2173.00,0.0037
2172.00,0.0040
2171.00,0.0042
2170.00,0.0044
2169.00,0.0046
2168.00,0.0048
2167.00,0.0048
2166.00,0.0048
2165.00,0.0048
2164.00,0.0047
2163.00,0.0047
2162.00,0.0044
2161.00,0.0037
2160.00,0.0028
2159.00,0.0020
2158.00,0.0016
2157.00,0.0016
2156.00,0.0018
2155.00,0.0020
2154.00,0.0021
2153.00,0.0022
2152.00,0.0024
2151.00,0.0025
2150.00,0.0026
2149.00,0.0027
2148.00,0.0027
2147.00,0.0027
2146.00,0.0027
2145.00,0.0026
2144.00,0.0026
2143.00,0.0025
2142.00,0.0025
2141.00,0.0026
2140.00,0.0028
2139.00,0.0028
2138.00,0.0028
2137.00,0.0026
2136.00,0.0024
2135.00,0.0023
2134.00,0.0023
2133.00,0.0024
2132.00,0.0026
2131.00,0.0029
2130.00,0.0031
2129.00,0.0032
2128.00,0.0033
2127.00,0.0033
2126.00,0.0033
2125.00,0.0034
2124.00,0.0036
2123.00,0.0037
2122.00,0.0038
2121.00,0.0039
2120.00,0.0040
2119.00,0.0041
2118.00,0.0042
2117.00,0.0042
2116.00,0.0043
2115.00,0.0044
2114.00,0.0044
2113.00,0.0044
2112.00,0.0044
2111.00,0.0044
2110.00,0.0043
2109.00,0.0043
2108.00,0.0042
2107.00,0.0042
2106.00,0.0042
2105.00,0.0041
2104.00,0.0041
2103.00,0.0041
2102.00,0.0041
2101.00,0.0042
2100.00,0.0043
2099.00,0.0044
2098.00,0.0043
2097.00,0.0041
2096.00,0.0040
2095.00,0.0039
2094.00,0.0039
2093.00,0.0040
2092.00,0.0041
2091.00,0.0042
2090.00,0.0043
2089.00,0.0043
2088.00,0.0044
2087.00,0.0044
2086.00,0.0043
2085.00,0.0043
2084.00,0.0043
2083.00,0.0043
2082.00,0.0044
2081.00,0.0045
2080.00,0.0045
2079.00,0.0045
2078.00,0.0044
2077.00,0.0044
2076.00,0.0043
2075.00,0.0043
2074.00,0.0042
2073.00,0.0042
2072.00,0.0042
2071.00,0.0042
2070.00,0.0042
2069.00,0.0042
2068.00,0.0041
2067.00,0.0040
2066.00,0.0039
2065.00,0.0039
2064.00,0.0040
2063.00,0.0040
2062.00,0.0040
2061.00,0.0039
2060.00,0.0040
2059.00,0.0041
2058.00,0.0042
2057.00,0.0043
2056.00,0.0042
2055.00,0.0041
2054.00,0.0041
2053.00,0.0043
2052.00,0.0045
2051.00,0.0044
2050.00,0.0042
2049.00,0.0038
2048.00,0.0036
2047.00,0.0035
2046.00,0.0035
2045.00,0.0036
2044.00,0.0038
2043.00,0.0039
2042.00,0.0039
2041.00,0.0038
2040.00,0.0039
2039.00,0.0039
2038.00,0.0039
2037.00,0.0039
2036.00,0.0038
2035.00,0.0036
2034.00,0.0034
2033.00,0.0033
2032.00,0.0032
2031.00,0.0031
2030.00,0.0030
2029.00,0.0030
2028.00,0.0031
2027.00,0.0031
2026.00,0.0030
2025.00,0.0029
2024.00,0.0029
2023.00,0.0029
2022.00,0.0030
2021.00,0.0031
2020.00,0.0032
2019.00,0.0033
2018.00,0.0032
2017.00,0.0031
2016.00,0.0030
2015.00,0.0029
2014.00,0.0028
2013.00,0.0029
2012.00,0.0030
2011.00,0.0031
2010.00,0.0031
2009.00,0.0029
2008.00,0.0028
2007.00,0.0026
2006.00,0.0027
2005.00,0.0030
2004.00,0.0033
2003.00,0.0035
2002.00,0.0035
2001.00,0.0034
2000.00,0.0035
1999.00,0.0035
1998.00,0.0036
1997.00,0.0036
1996.00,0.0036
1995.00,0.0036
1994.00,0.0035
1993.00,0.0035
1992.00,0.0036
1991.00,0.0036
1990.00,0.0036
1989.00,0.0036
1988.00,0.0036
1987.00,0.0036
1986.00,0.0036
1985.00,0.0038
1984.00,0.0040
1983.00,0.0043
1982.00,0.0044
1981.00,0.0044
1980.00,0.0041
1979.00,0.0036
1978.00,0.0031
1977.00,0.0028
1976.00,0.0028
1975.00,0.0029
1974.00,0.0029
1973.00,0.0029
1972.00,0.0029
1971.00,0.0028
1970.00,0.0027
1969.00,0.0027
1968.00,0.0027
1967.00,0.0027
1966.00,0.0026
1965.00,0.0027
1964.00,0.0028
1963.00,0.0028
1962.00,0.0027
1961.00,0.0027
1960.00,0.0028
1959.00,0.0029
1958.00,0.0031
1957.00,0.0032
1956.00,0.0033
1955.00,0.0033
1954.00,0.0033
1953.00,0.0033
1952.00,0.0033
1951.00,0.0033
1950.00,0.0032
1949.00,0.0032
1948.00,0.0033
1947.00,0.0034
1946.00,0.0034
1945.00,0.0035
1944.00,0.0035
1943.00,0.0034
1942.00,0.0033
1941.00,0.0032
1940.00,0.0032
1939.00,0.0033
1938.00,0.0033
1937.00,0.0032
1936.00,0.0032
1935.00,0.0031
1934.00,0.0031
1933.00,0.0031
1932.00,0.0032
1931.00,0.0033
1930.00,0.0035
1929.00,0.0036
1928.00,0.0036
1927.00,0.0035
1926.00,0.0035
1925.00,0.0034
1924.00,0.0035
1923.00,0.0035
1922.00,0.0035
1921.00,0.0035
1920.00,0.0036
1919.00,0.0037
1918.00,0.0036
1917.00,0.0035
1916.00,0.0034
1915.00,0.0035
1914.00,0.0035
1913.00,0.0036
1912.00,0.0036
1911.00,0.0037
1910.00,0.0037
1909.00,0.0037
1908.00,0.0036
1907.00,0.0036
1906.00,0.0036
1905.00,0.0037
1904.00,0.0037
1903.00,0.0038
1902.00,0.0038
1901.00,0.0038
1900.00,0.0038
1899.00,0.0038
1898.00,0.0038
1897.00,0.0039
1896.00,0.0039
1895.00,0.0039
1894.00,0.0038
1893.00,0.0038
1892.00,0.0038
1891.00,0.0038
1890.00,0.0038
1889.00,0.0037
1888.00,0.0036
1887.00,0.0036
1886.00,0.0037
1885.00,0.0037
1884.00,0.0038
1883.00,0.0038
1882.00,0.0037
1881.00,0.0037
1880.00,0.0037
1879.00,0.0037
1878.00,0.0038
1877.00,0.0038
1876.00,0.0038
1875.00,0.0038
1874.00,0.0038
1873.00,0.0038
1872.00,0.0038
1871.00,0.0039
1870.00,0.0038
1869.00,0.0038
1868.00,0.0037
1867.00,0.0036
1866.00,0.0036
1865.00,0.0037
1864.00,0.0038
1863.00,0.0038
1862.00,0.0038
1861.00,0.0038
1860.00,0.0038
1859.00,0.0039
1858.00,0.0039
1857.00,0.0039
1856.00,0.0039
1855.00,0.0039
1854.00,0.0039
1853.00,0.0039
1852.00,0.0039
1851.00,0.0039
1850.00,0.0039
1849.00,0.0039
1848.00,0.0039
1847.00,0.0039
1846.00,0.0038
1845.00,0.0038
1844.00,0.0038
1843.00,0.0038
1842.00,0.0038
1841.00,0.0038
1840.00,0.0038
1839.00,0.0039
1838.00,0.0039
1837.00,0.0039
1836.00,0.0039
1835.00,0.0040
1834.00,0.0040
1833.00,0.0040
1832.00,0.0041
1831.00,0.0041
1830.00,0.0041
1829.00,0.0041
1828.00,0.0040
1827.00,0.0040
1826.00,0.0041
1825.00,0.0041
1824.00,0.0040
1823.00,0.0040
1822.00,0.0040
1821.00,0.0041
1820.00,0.0041
1819.00,0.0040
1818.00,0.0039
1817.00,0.0039
1816.00,0.0040
1815.00,0.0041
1814.00,0.0042
1813.00,0.0043
1812.00,0.0044
1811.00,0.0044
1810.00,0.0044
1809.00,0.0044
1808.00,0.0044
1807.00,0.0044
1806.00,0.0044
1805.00,0.0044
1804.00,0.0045
1803.00,0.0045
1802.00,0.0045
1801.00,0.0046
1800.00,0.0045
1799.00,0.0046
1798.00,0.0047
1797.00,0.0047
1796.00,0.0047
1795.00,0.0048
1794.00,0.0048
1793.00,0.0049
1792.00,0.0049
1791.00,0.0049
1790.00,0.0050
1789.00,0.0050
1788.00,0.0050
1787.00,0.0050
1786.00,0.0050
1785.00,0.0051
1784.00,0.0051
1783.00,0.0052
1782.00,0.0052
1781.00,0.0053
1780.00,0.0053
1779.00,0.0052
1778.00,0.0053
1777.00,0.0053
1776.00,0.0054
1775.00,0.0054
1774.00,0.0055
1773.00,0.0055
1772.00,0.0057
1771.00,0.0057
1770.00,0.0058
1769.00,0.0058
1768.00,0.0059
1767.00,0.0060
1766.00,0.0060
1765.00,0.0060
1764.00,0.0061
1763.00,0.0063
1762.00,0.0064
1761.00,0.0063
1760.00,0.0064
1759.00,0.0065
1758.00,0.0067
1757.00,0.0069
1756.00,0.0069
1755.00,0.0070
1754.00,0.0072
1753.00,0.0074
1752.00,0.0077
1751.00,0.0079
1750.00,0.0080
1749.00,0.0082
1748.00,0.0085
1747.00,0.0089
1746.00,0.0093
1745.00,0.0098
1744.00,0.0104
1743.00,0.0110
1742.00,0.0115
1741.00,0.0122
1740.00,0.0130
1739.00,0.0138
1738.00,0.0144
1737.00,0.0152
1736.00,0.0160
1735.00,0.0169
1734.00,0.0177
1733.00,0.0183
1732.00,0.0189
1731.00,0.0197
1730.00,0.0203
1729.00,0.0209
1728.00,0.0213
1727.00,0.0217
1726.00,0.0220
1725.00,0.0223
1724.00,0.0226
1723.00,0.0229
1722.00,0.0230
1721.00,0.0232
1720.00,0.0235
1719.00,0.0238
1718.00,0.0239
1717.00,0.0240
1716.00,0.0241
1715.00,0.0242
1714.00,0.0244
1713.00,0.0247
1712.00,0.0250
1711.00,0.0253
1710.00,0.0256
1709.00,0.0260
1708.00,0.0265
1707.00,0.0271
1706.00,0.0280
1705.00,0.0289
1704.00,0.0298
1703.00,0.0307
1702.00,0.0319
1701.00,0.0337
1700.00,0.0360
1699.00,0.0378
1698.00,0.0391
1697.00,0.0405
1696.00,0.0420
1695.00,0.0433
1694.00,0.0441
1693.00,0.0450
1692.00,0.0460
1691.00,0.0471
1690.00,0.0482
1689.00,0.0493
1688.00,0.0503
1687.00,0.0512
1686.00,0.0522
1685.00,0.0539
1684.00,0.0561
1683.00,0.0580
1682.00,0.0592
1681.00,0.0605
1680.00,0.0619
1679.00,0.0631
1678.00,0.0642
1677.00,0.0654
1676.00,0.0670
1675.00,0.0688
1674.00,0.0704
1673.00,0.0717
1672.00,0.0730
1671.00,0.0746
1670.00,0.0765
1669.00,0.0786
1668.00,0.0805
1667.00,0.0820
1666.00,0.0834
1665.00,0.0848
1664.00,0.0867
1663.00,0.0891
1662.00,0.0916
1661.00,0.0939
1660.00,0.0960
1659.00,0.0980
1658.00,0.0998
1657.00,0.1012
1656.00,0.1023
1655.00,0.1035
1654.00,0.1059
1653.00,0.1096
1652.00,0.1123
1651.00,0.1131
1650.00,0.1132
1649.00,0.1133
1648.00,0.1137
1647.00,0.1146
1646.00,0.1153
1645.00,0.1154
1644.00,0.1154
1643.00,0.1153
1642.00,0.1152
1641.00,0.1152
1640.00,0.1152
1639.00,0.1152
1638.00,0.1153
1637.00,0.1158
1636.00,0.1171
1635.00,0.1188
1634.00,0.1200
1633.00,0.1208
1632.00,0.1215
1631.00,0.1224
1630.00,0.1236
1629.00,0.1250
1628.00,0.1266
1627.00,0.1281
1626.00,0.1293
1625.00,0.1302
1624.00,0.1311
1623.00,0.1321
1622.00,0.1325
1621.00,0.1321
1620.00,0.1312
1619.00,0.1299
1618.00,0.1283
1617.00,0.1263
1616.00,0.1241
1615.00,0.1215
1614.00,0.1188
1613.00,0.1158
1612.00,0.1125
1611.00,0.1090
1610.00,0.1055
1609.00,0.1019
1608.00,0.0984
1607.00,0.0950
1606.00,0.0918
1605.00,0.0889
1604.00,0.0860
1603.00,0.0833
1602.00,0.0809
1601.00,0.0787
1600.00,0.0766
1599.00,0.0747
1598.00,0.0731
1597.00,0.0715
1596.00,0.0700
1595.00,0.0686
1594.00,0.0674
1593.00,0.0662
1592.00,0.0650
1591.00,0.0640
1590.00,0.0632
1589.00,0.0624
1588.00,0.0617
1587.00,0.0611
1586.00,0.0606
1585.00,0.0603
1584.00,0.0599
1583.00,0.0597
1582.00,0.0596
1581.00,0.0596
1580.00,0.0595
1579.00,0.0595
1578.00,0.0596
1577.00,0.0601
1576.00,0.0606
1575.00,0.0612
1574.00,0.0618
1573.00,0.0623
1572.00,0.0627
1571.00,0.0634
1570.00,0.0646
1569.00,0.0658
1568.00,0.0668
1567.00,0.0677
1566.00,0.0688
1565.00,0.0701
1564.00,0.0713
1563.00,0.0722
1562.00,0.0729
1561.00,0.0736
1560.00,0.0753
1559.00,0.0788
1558.00,0.0823
1557.00,0.0841
1556.00,0.0855
1555.00,0.0872
1554.00,0.0892
1553.00,0.0911
1552.00,0.0927
1551.00,0.0944
1550.00,0.0963
1549.00,0.0981
1548.00,0.0994
1547.00,0.1004
1546.00,0.1014
1545.00,0.1025
1544.00,0.1036
1543.00,0.1044
1542.00,0.1052
1541.00,0.1063
1540.00,0.1079
1539.00,0.1093
1538.00,0.1098
1537.00,0.1099
1536.00,0.1098
1535.00,0.1099
1534.00,0.1105
1533.00,0.1113
1532.00,0.1118
1531.00,0.1119
1530.00,0.1119
1529.00,0.1119
1528.00,0.1119
1527.00,0.1120
1526.00,0.1121
1525.00,0.1121
1524.00,0.1118
1523.00,0.1116
1522.00,0.1119
1521.00,0.1124
1520.00,0.1127
1519.00,0.1127
1518.00,0.1128
1517.00,0.1128
1516.00,0.1126
1515.00,0.1118
1514.00,0.1106
1513.00,0.1090
1512.00,0.1071
1511.00,0.1051
1510.00,0.1030
1509.00,0.1008
1508.00,0.0985
1507.00,0.0959
1506.00,0.0933
1505.00,0.0908
1504.00,0.0887
1503.00,0.0868
1502.00,0.0847
1501.00,0.0826
1500.00,0.0804
1499.00,0.0783
1498.00,0.0762
1497.00,0.0740
1496.00,0.0717
1495.00,0.0697
1494.00,0.0678
1493.00,0.0661
1492.00,0.0643
1491.00,0.0625
1490.00,0.0606
1489.00,0.0588
1488.00,0.0573
1487.00,0.0559
1486.00,0.0546
1485.00,0.0535
1484.00,0.0525
1483.00,0.0516
1482.00,0.0509
1481.00,0.0503
1480.00,0.0498
1479.00,0.0495
1478.00,0.0493
1477.00,0.0494
1476.00,0.0496
1475.00,0.0499
1474.00,0.0506
1473.00,0.0515
1472.00,0.0526
1471.00,0.0536
1470.00,0.0543
1469.00,0.0548
1468.00,0.0552
1467.00,0.0554
1466.00,0.0556
1465.00,0.0557
1464.00,0.0558
1463.00,0.0560
1462.00,0.0561
1461.00,0.0563
1460.00,0.0565
1459.00,0.0569
1458.00,0.0576
1457.00,0.0586
1456.00,0.0594
1455.00,0.0599
1454.00,0.0602
1453.00,0.0604
1452.00,0.0605
1451.00,0.0605
1450.00,0.0605
1449.00,0.0604
1448.00,0.0604
1447.00,0.0602
1446.00,0.0600
1445.00,0.0598
1444.00,0.0595
1443.00,0.0593
1442.00,0.0590
1441.00,0.0587
1440.00,0.0582
1439.00,0.0577
1438.00,0.0571
1437.00,0.0564
1436.00,0.0557
1435.00,0.0550
1434.00,0.0544
1433.00,0.0538
1432.00,0.0532
1431.00,0.0526
1430.00,0.0521
1429.00,0.0517
1428.00,0.0514
1427.00,0.0512
1426.00,0.0511
1425.00,0.0511
1424.00,0.0512
1423.00,0.0514
1422.00,0.0515
1421.00,0.0516
1420.00,0.0518
1419.00,0.0523
1418.00,0.0529
1417.00,0.0534
1416.00,0.0538
1415.00,0.0542
1414.00,0.0546
1413.00,0.0549
1412.00,0.0552
1411.00,0.0555
1410.00,0.0557
1409.00,0.0558
1408.00,0.0559
1407.00,0.0560
1406.00,0.0560
1405.00,0.0561
1404.00,0.0561
1403.00,0.0561
1402.00,0.0560
1401.00,0.0559
1400.00,0.0559
1399.00,0.0560
1398.00,0.0560
1397.00,0.0560
1396.00,0.0561
1395.00,0.0562
1394.00,0.0564
1393.00,0.0565
1392.00,0.0566
1391.00,0.0567
1390.00,0.0568
1389.00,0.0569
1388.00,0.0569
1387.00,0.0569
1386.00,0.0567
1385.00,0.0564
1384.00,0.0560
1383.00,0.0556
1382.00,0.0552
1381.00,0.0547
1380.00,0.0543
1379.00,0.0539
1378.00,0.0535
1377.00,0.0532
1376.00,0.0529
1375.00,0.0527
1374.00,0.0525
1373.00,0.0523
1372.00,0.0522
1371.00,0.0521
1370.00,0.0520
1369.00,0.0518
1368.00,0.0515
1367.00,0.0510
1366.00,0.0505
1365.00,0.0500
1364.00,0.0494
1363.00,0.0490
1362.00,0.0486
1361.00,0.0483
1360.00,0.0481
1359.00,0.0480
1358.00,0.0479
1357.00,0.0479
1356.00,0.0480
1355.00,0.0481
1354.00,0.0482
1353.00,0.0484
1352.00,0.0486
1351.00,0.0488
1350.00,0.0489
1349.00,0.0491
1348.00,0.0492
1347.00,0.0492
1346.00,0.0493
1345.00,0.0493
1344.00,0.0492
1343.00,0.0492
1342.00,0.0491
1341.00,0.0490
1340.00,0.0489
1339.00,0.0488
1338.00,0.0487
1337.00,0.0486
1336.00,0.0484
1335.00,0.0483
1334.00,0.0482
1333.00,0.0480
1332.00,0.0479
1331.00,0.0478
1330.00,0.0477
1329.00,0.0477
1328.00,0.0477
1327.00,0.0477
1326.00,0.0477
1325.00,0.0478
1324.00,0.0478
1323.00,0.0479
1322.00,0.0480
1321.00,0.0481
1320.00,0.0483
1319.00,0.0484
1318.00,0.0485
1317.00,0.0487
1316.00,0.0487
1315.00,0.0488
1314.00,0.0489
1313.00,0.0490
1312.00,0.0490
1311.00,0.0490
1310.00,0.0491
1309.00,0.0491
1308.00,0.0491
1307.00,0.0492
1306.00,0.0493
1305.00,0.0493
1304.00,0.0494
1303.00,0.0495
1302.00,0.0496
1301.00,0.0497
1300.00,0.0498
1299.00,0.0500
1298.00,0.0501
1297.00,0.0503
1296.00,0.0504
1295.00,0.0506
1294.00,0.0508
1293.00,0.0509
1292.00,0.0511
1291.00,0.0512
1290.00,0.0514
1289.00,0.0515
1288.00,0.0516
1287.00,0.0518
1286.00,0.0519
1285.00,0.0521
1284.00,0.0522
1283.00,0.0524
1282.00,0.0525
1281.00,0.0527
1280.00,0.0527
1279.00,0.0528
1278.00,0.0529
1277.00,0.0530
1276.00,0.0531
1275.00,0.0531
1274.00,0.0532
1273.00,0.0533
1272.00,0.0535
1271.00,0.0536
1270.00,0.0538
1269.00,0.0539
1268.00,0.0541
1267.00,0.0544
1266.00,0.0546
1265.00,0.0549
1264.00,0.0553
1263.00,0.0556
1262.00,0.0560
1261.00,0.0563
1260.00,0.0567
1259.00,0.0571
1258.00,0.0575
1257.00,0.0580
1256.00,0.0584
1255.00,0.0588
1254.00,0.0592
1253.00,0.0596
1252.00,0.0601
1251.00,0.0605
1250.00,0.0610
1249.00,0.0615
1248.00,0.0620
1247.00,0.0624
1246.00,0.0629
1245.00,0.0634
1244.00,0.0638
1243.00,0.0642
1242.00,0.0646
1241.00,0.0650
1240.00,0.0653
1239.00,0.0657
1238.00,0.0660
1237.00,0.0663
1236.00,0.0666
1235.00,0.0668
1234.00,0.0670
1233.00,0.0671
1232.00,0.0672
1231.00,0.0673
1230.00,0.0673
1229.00,0.0673
1228.00,0.0672
1227.00,0.0671
1226.00,0.0670
1225.00,0.0669
1224.00,0.0667
1223.00,0.0664
1222.00,0.0662
1221.00,0.0659
1220.00,0.0655
1219.00,0.0652
1218.00,0.0648
1217.00,0.0644
1216.00,0.0639
1215.00,0.0634
1214.00,0.0629
1213.00,0.0624
1212.00,0.0619
1211.00,0.0614
1210.00,0.0609
1209.00,0.0605
1208.00,0.0600
1207.00,0.0595
1206.00,0.0591
1205.00,0.0587
1204.00,0.0583
1203.00,0.0579
1202.00,0.0576
1201.00,0.0572
1200.00,0.0569
1199.00,0.0566
1198.00,0.0563
1197.00,0.0561
1196.00,0.0559
1195.00,0.0557
1194.00,0.0556
1193.00,0.0555
1192.00,0.0554
1191.00,0.0554
1190.00,0.0554
1189.00,0.0553
1188.00,0.0553
1187.00,0.0553
1186.00,0.0554
1185.00,0.0554
1184.00,0.0555
1183.00,0.0556
1182.00,0.0558
1181.00,0.0559
1180.00,0.0561
1179.00,0.0564
1178.00,0.0567
1177.00,0.0571
1176.00,0.0574
1175.00,0.0578
1174.00,0.0581
1173.00,0.0584
1172.00,0.0586
1171.00,0.0586
1170.00,0.0586
1169.00,0.0586
1168.00,0.0584
1167.00,0.0582
1166.00,0.0581
1165.00,0.0579
1164.00,0.0577
1163.00,0.0576
1162.00,0.0574
1161.00,0.0572
1160.00,0.0570
1159.00,0.0567
1158.00,0.0565
1157.00,0.0561
1156.00,0.0558
1155.00,0.0554
1154.00,0.0551
1153.00,0.0547
1152.00,0.0543
1151.00,0.0538
1150.00,0.0534
1149.00,0.0529
1148.00,0.0524
1147.00,0.0519
1146.00,0.0514
1145.00,0.0510
1144.00,0.0506
1143.00,0.0502
1142.00,0.0499
1141.00,0.0496
1140.00,0.0494
1139.00,0.0493
1138.00,0.0492
1137.00,0.0491
1136.00,0.0491
1135.00,0.0491
1134.00,0.0491
1133.00,0.0492
1132.00,0.0493
1131.00,0.0494
1130.00,0.0496
1129.00,0.0497
1128.00,0.0498
1127.00,0.0499
1126.00,0.0500
1125.00,0.0501
1124.00,0.0501
1123.00,0.0502
1122.00,0.0502
1121.00,0.0503
1120.00,0.0503
1119.00,0.0504
1118.00,0.0505
1117.00,0.0506
1116.00,0.0506
1115.00,0.0506
1114.00,0.0506
1113.00,0.0506
1112.00,0.0506
1111.00,0.0506
1110.00,0.0506
1109.00,0.0505
1108.00,0.0505
1107.00,0.0505
1106.00,0.0506
1105.00,0.0507
1104.00,0.0508
1103.00,0.0510
1102.00,0.0512
1101.00,0.0514
1100.00,0.0516
1099.00,0.0519
1098.00,0.0522
1097.00,0.0525
1096.00,0.0529
1095.00,0.0533
1094.00,0.0538
1093.00,0.0543
1092.00,0.0547
1091.00,0.0553
1090.00,0.0559
1089.00,0.0565
1088.00,0.0571
1087.00,0.0577
1086.00,0.0583
1085.00,0.0590
1084.00,0.0597
1083.00,0.0604
1082.00,0.0611
1081.00,0.0618
1080.00,0.0624
1079.00,0.0629
1078.00,0.0634
1077.00,0.0638
1076.00,0.0641
1075.00,0.0644
1074.00,0.0647
1073.00,0.0649
1072.00,0.0650
1071.00,0.0651
1070.00,0.0652
1069.00,0.0653
1068.00,0.0654
1067.00,0.0654
1066.00,0.0654
1065.00,0.0654
1064.00,0.0654
1063.00,0.0654
1062.00,0.0654
1061.00,0.0654
1060.00,0.0654
1059.00,0.0655
1058.00,0.0655
1057.00,0.0655
1056.00,0.0654
1055.00,0.0653
1054.00,0.0652
1053.00,0.0651
1052.00,0.0650
1051.00,0.0648
1050.00,0.0647
1049.00,0.0646
1048.00,0.0644
1047.00,0.0643
1046.00,0.0641
1045.00,0.0639
1044.00,0.0637
1043.00,0.0635
1042.00,0.0633
1041.00,0.0631
1040.00,0.0628
1039.00,0.0625
1038.00,0.0622
1037.00,0.0619
1036.00,0.0616
1035.00,0.0614
1034.00,0.0613
1033.00,0.0611
1032.00,0.0610
1031.00,0.0607
1030.00,0.0605
1029.00,0.0603
1028.00,0.0600
1027.00,0.0597
1026.00,0.0594
1025.00,0.0591
1024.00,0.0587
1023.00,0.0582
1022.00,0.0578
1021.00,0.0573
1020.00,0.0567
1019.00,0.0562
1018.00,0.0557
1017.00,0.0552
1016.00,0.0547
1015.00,0.0542
1014.00,0.0537
1013.00,0.0531
1012.00,0.0525
1011.00,0.0519
1010.00,0.0514
1009.00,0.0508
1008.00,0.0502
1007.00,0.0496
1006.00,0.0491
1005.00,0.0486
1004.00,0.0481
1003.00,0.0476
1002.00,0.0472
1001.00,0.0467
1000.00,0.0463
999.00,0.0459
998.00,0.0455
997.00,0.0452
996.00,0.0448
995.00,0.0444
994.00,0.0441
993.00,0.0438
992.00,0.0434
991.00,0.0431
990.00,0.0427
989.00,0.0424
988.00,0.0420
987.00,0.0417
986.00,0.0414
985.00,0.0412
984.00,0.0409
983.00,0.0407
982.00,0.0406
981.00,0.0404
980.00,0.0402
979.00,0.0401
978.00,0.0400
977.00,0.0400
976.00,0.0400
975.00,0.0399
974.00,0.0400
973.00,0.0400
972.00,0.0400
971.00,0.0400
970.00,0.0401
969.00,0.0401
968.00,0.0400
967.00,0.0400
966.00,0.0401
965.00,0.0401
964.00,0.0401
963.00,0.0400
962.00,0.0401
961.00,0.0401
960.00,0.0401
959.00,0.0401
958.00,0.0401
957.00,0.0401
956.00,0.0400
955.00,0.0400
954.00,0.0400
953.00,0.0400
952.00,0.0399
951.00,0.0399
950.00,0.0399
949.00,0.0399
948.00,0.0398
947.00,0.0398
946.00,0.0399
945.00,0.0400
944.00,0.0400
943.00,0.0401
942.00,0.0402
941.00,0.0402
940.00,0.0402
939.00,0.0403
938.00,0.0404
937.00,0.0405
936.00,0.0405
935.00,0.0406
934.00,0.0407
933.00,0.0407
932.00,0.0406
931.00,0.0406
930.00,0.0406
929.00,0.0405
928.00,0.0405
927.00,0.0404
926.00,0.0404
925.00,0.0404
924.00,0.0404
923.00,0.0403
922.00,0.0403
921.00,0.0402
920.00,0.0400
919.00,0.0399
918.00,0.0398
917.00,0.0398
916.00,0.0397
915.00,0.0396
914.00,0.0396
913.00,0.0395
912.00,0.0394
911.00,0.0393
910.00,0.0393
909.00,0.0393
908.00,0.0392
907.00,0.0391
906.00,0.0390
905.00,0.0389
904.00,0.0388
903.00,0.0386
902.00,0.0386
901.00,0.0386
900.00,0.0385
899.00,0.0384
898.00,0.0383
897.00,0.0383
896.00,0.0382
895.00,0.0382
894.00,0.0382
893.00,0.0383
892.00,0.0382
891.00,0.0382
890.00,0.0383
889.00,0.0383
888.00,0.0383
887.00,0.0383
886.00,0.0383
885.00,0.0383
884.00,0.0383
883.00,0.0383
882.00,0.0383
881.00,0.0383
880.00,0.0382
879.00,0.0381
878.00,0.0380
877.00,0.0379
876.00,0.0378
875.00,0.0377
874.00,0.0376
873.00,0.0376
872.00,0.0374
871.00,0.0373
870.00,0.0373
869.00,0.0373
868.00,0.0372
867.00,0.0372
866.00,0.0373
865.00,0.0374
864.00,0.0374
863.00,0.0375
862.00,0.0377
861.00,0.0379
860.00,0.0380
859.00,0.0381
858.00,0.0384
857.00,0.0385
856.00,0.0387
855.00,0.0389
854.00,0.0392
853.00,0.0394
852.00,0.0395
851.00,0.0397
850.00,0.0398
849.00,0.0399
848.00,0.0399
847.00,0.0399
846.00,0.0400
845.00,0.0401
844.00,0.0401
843.00,0.0403
842.00,0.0406
841.00,0.0409
840.00,0.0412
839.00,0.0414
838.00,0.0418
837.00,0.0421
836.00,0.0423
835.00,0.0426
834.00,0.0430
833.00,0.0434
832.00,0.0437
831.00,0.0440
830.00,0.0442
829.00,0.0444
828.00,0.0444
827.00,0.0445
826.00,0.0447
825.00,0.0448
824.00,0.0447
823.00,0.0447
822.00,0.0447
821.00,0.0448
820.00,0.0448
819.00,0.0448
818.00,0.0450
817.00,0.0451
816.00,0.0453
815.00,0.0454
814.00,0.0456
813.00,0.0459
812.00,0.0460
811.00,0.0462
810.00,0.0464
809.00,0.0466
808.00,0.0467
807.00,0.0469
806.00,0.0471
805.00,0.0472
804.00,0.0473
803.00,0.0475
802.00,0.0477
801.00,0.0479
800.00,0.0480
799.00,0.0482
798.00,0.0485
797.00,0.0487
796.00,0.0490
795.00,0.0493
794.00,0.0496
793.00,0.0500
792.00,0.0502
791.00,0.0505
790.00,0.0508
789.00,0.0512
788.00,0.0516
787.00,0.0521
786.00,0.0525
785.00,0.0529
784.00,0.0532
783.00,0.0535
782.00,0.0538
781.00,0.0540
780.00,0.0542
779.00,0.0544
778.00,0.0547
777.00,0.0550
776.00,0.0552
775.00,0.0554
774.00,0.0557
773.00,0.0560
772.00,0.0562
771.00,0.0563
770.00,0.0566
769.00,0.0568
768.00,0.0569
767.00,0.0571
766.00,0.0573
765.00,0.0575
764.00,0.0577
763.00,0.0579
762.00,0.0582
761.00,0.0584
760.00,0.0586
759.00,0.0588
758.00,0.0590
757.00,0.0593
756.00,0.0596
755.00,0.0598
754.00,0.0601
753.00,0.0605
752.00,0.0608
751.00,0.0611
750.00,0.0615
749.00,0.0619
748.00,0.0621
747.00,0.0624
746.00,0.0626
745.00,0.0629
744.00,0.0630
743.00,0.0631
742.00,0.0633
741.00,0.0635
740.00,0.0636
739.00,0.0637
738.00,0.0640
737.00,0.0642
736.00,0.0643
735.00,0.0646
734.00,0.0649
733.00,0.0652
732.00,0.0655
731.00,0.0659
730.00,0.0663
729.00,0.0668
728.00,0.0673
727.00,0.0679
726.00,0.0685
725.00,0.0692
724.00,0.0699
723.00,0.0706
722.00,0.0714
721.00,0.0721
720.00,0.0727
719.00,0.0732
718.00,0.0738
717.00,0.0743
716.00,0.0747
715.00,0.0752
714.00,0.0757
713.00,0.0763
712.00,0.0768
711.00,0.0774
710.00,0.0780
709.00,0.0787
708.00,0.0794
707.00,0.0801
706.00,0.0809
705.00,0.0817
704.00,0.0825
703.00,0.0832
702.00,0.0838
701.00,0.0844
700.00,0.0848
699.00,0.0851
698.00,0.0855
697.00,0.0857
696.00,0.0857
695.00,0.0857
694.00,0.0856
693.00,0.0856
692.00,0.0854
691.00,0.0854
690.00,0.0854
689.00,0.0855
688.00,0.0856
687.00,0.0857
686.00,0.0859
685.00,0.0860
684.00,0.0861
683.00,0.0862
682.00,0.0865
681.00,0.0867
680.00,0.0869
679.00,0.0870
678.00,0.0873
677.00,0.0875
676.00,0.0877
675.00,0.0878
674.00,0.0881
673.00,0.0883
672.00,0.0883
671.00,0.0883
670.00,0.0885
669.00,0.0889
668.00,0.0896
667.00,0.0902
666.00,0.0905
665.00,0.0905
664.00,0.0904
663.00,0.0904
662.00,0.0905
661.00,0.0906
660.00,0.0907
659.00,0.0910
658.00,0.0913
657.00,0.0916
656.00,0.0917
655.00,0.0917
654.00,0.0919
653.00,0.0921
652.00,0.0922
651.00,0.0923
650.00,0.0926
649.00,0.0927
648.00,0.0928
647.00,0.0930
646.00,0.0933
645.00,0.0936
644.00,0.0937
643.00,0.0940
642.00,0.0943
641.00,0.0945
640.00,0.0948
639.00,0.0950
638.00,0.0954
637.00,0.0958
636.00,0.0960
635.00,0.0963
634.00,0.0966
633.00,0.0970
632.00,0.0973
631.00,0.0977
630.00,0.0982
629.00,0.0986
628.00,0.0988
627.00,0.0989
626.00,0.0992
625.00,0.0995
624.00,0.0997
623.00,0.0998
622.00,0.0999
621.00,0.0999
620.00,0.0999
619.00,0.0999
618.00,0.1001
617.00,0.1002
616.00,0.1002
615.00,0.1001
614.00,0.1002
613.00,0.1003
612.00,0.1004
611.00,0.1004
610.00,0.1006
609.00,0.1006
608.00,0.1005
607.00,0.1004
606.00,0.1005
605.00,0.1005
604.00,0.1005
603.00,0.1005
602.00,0.1006
601.00,0.1007
600.00,0.1007
599.00,0.1008
598.00,0.1011
597.00,0.1014
596.00,0.1015
595.00,0.1015
594.00,0.1017
593.00,0.1018
592.00,0.1018
591.00,0.1019
590.00,0.1022
589.00,0.1024
588.00,0.1024
587.00,0.1024
586.00,0.1026
585.00,0.1027
584.00,0.1028
583.00,0.1028
582.00,0.1031
581.00,0.1032
580.00,0.1033
579.00,0.1035
578.00,0.1037
577.00,0.1039
576.00,0.1039
575.00,0.1040
574.00,0.1042
573.00,0.1045
572.00,0.1046
571.00,0.1048
570.00,0.1050
569.00,0.1053
568.00,0.1054
567.00,0.1056
566.00,0.1059
565.00,0.1060
564.00,0.1059
563.00,0.1060
562.00,0.1063
561.00,0.1067
560.00,0.1068
559.00,0.1068
558.00,0.1070
557.00,0.1072
556.00,0.1072
555.00,0.1075
554.00,0.1079
553.00,0.1083
552.00,0.1084
551.00,0.1085
550.00,0.1086
549.00,0.1088
548.00,0.1088
547.00,0.1090
546.00,0.1094
545.00,0.1096
544.00,0.1096
543.00,0.1096
542.00,0.1098
541.00,0.1100
540.00,0.1100
539.00,0.1101
538.00,0.1103
537.00,0.1105
536.00,0.1105
535.00,0.1105
534.00,0.1106
533.00,0.1108
532.00,0.1108
531.00,0.1108
530.00,0.1111
529.00,0.1112
528.00,0.1109
527.00,0.1107
526.00,0.1107
525.00,0.1109
524.00,0.1110
523.00,0.1111
522.00,0.1114
521.00,0.1116
520.00,0.1114
519.00,0.1113
518.00,0.1115
517.00,0.1116
516.00,0.1114
515.00,0.1113
514.00,0.1115
513.00,0.1116
512.00,0.1116
511.00,0.1116
510.00,0.1118
509.00,0.1119
508.00,0.1116
507.00,0.1114
506.00,0.1116
505.00,0.1116
504.00,0.1112
503.00,0.1108
502.00,0.1106
501.00,0.1105
500.00,0.1103
499.00,0.1102
498.00,0.1104
497.00,0.1105
496.00,0.1103
495.00,0.1102
494.00,0.1104
493.00,0.1104
492.00,0.1100
491.00,0.1096
490.00,0.1097
489.00,0.1098
488.00,0.1098
487.00,0.1099
486.00,0.1102
485.00,0.1102
484.00,0.1097
483.00,0.1092
482.00,0.1092
481.00,0.1093
480.00,0.1092
479.00,0.1091
478.00,0.1092
477.00,0.1091
476.00,0.1086
475.00,0.1083
474.00,0.1086
473.00,0.1090
472.00,0.1090
471.00,0.1091
470.00,0.1095
469.00,0.1098
468.00,0.1097
467.00,0.1096
466.00,0.1101
465.00,0.1106
464.00,0.1107
463.00,0.1106
462.00,0.1106
461.00,0.1103
460.00,0.1096
459.00,0.1092
458.00,0.1095
457.00,0.1097
456.00,0.1092
455.00,0.1088
454.00,0.1089
453.00,0.1089
452.00,0.1084
451.00,0.1082
450.00,0.1084
449.00,0.1085
448.00,0.1080
447.00,0.1077
446.00,0.1079
445.00,0.1080
444.00,0.1075
443.00,0.1071
442.00,0.1075
441.00,0.1078
440.00,0.1074
439.00,0.1070
438.00,0.1070
437.00,0.1071
436.00,0.1068
435.00,0.1069
434.00,0.1079
433.00,0.1087
432.00,0.1085
431.00,0.1080
430.00,0.1078
429.00,0.1075
428.00,0.1068
427.00,0.1068
426.00,0.1077
425.00,0.1083
424.00,0.1073
423.00,0.1060
422.00,0.1057
421.00,0.1057
420.00,0.1053
419.00,0.1055
418.00,0.1070
417.00,0.1078
416.00,0.1069
415.00,0.1060
414.00,0.1062
413.00,0.1067
412.00,0.1064
411.00,0.1062
410.00,0.1069
409.00,0.1072
408.00,0.1064
407.00,0.1062
406.00,0.1077
405.00,0.1090
404.00,0.1087
403.00,0.1081
402.00,0.1088
401.00,0.1089
400.00,0.1064
