Created as New Dataset,Sample 1098 By YargerLab Date Saturday, September 26 2026
cm-1,A
4000.00,0.0079
3999.00,0.0079
3998.00,0.0079
3997.00,0.0079
3996.00,0.0079
3995.00,0.0079
3994.00,0.0079
3993.00,0.0079
3992.00,0.0079
3991.00,0.0079
3990.00,0.0079
3989.00,0.0079
3988.00,0.0079
3987.00,0.0079
3986.00,0.0079
3985.00,0.0079
3984.00,0.0079
3983.00,0.0079
3982.00,0.0079
3981.00,0.0079
3980.00,0.0079
3979.00,0.0079
3978.00,0.0079
3977.00,0.0079
3976.00,0.0079
3975.00,0.0079
3974.00,0.0079
3973.00,0.0079
3972.00,0.0079
3971.00,0.0079
3970.00,0.0079
3969.00,0.0079
3968.00,0.0079
3967.00,0.0079
3966.00,0.0078
3965.00,0.0078
3964.00,0.0078
3963.00,0.0078
3962.00,0.0079
3961.00,0.0079
3960.00,0.0079
3959.00,0.0079
3958.00,0.0079
3957.00,0.0079
3956.00,0.0079
3955.00,0.0078
3954.00,0.0078
3953.00,0.0078
3952.00,0.0078
3951.00,0.0078
3950.00,0.0078
3949.00,0.0079
3948.00,0.0079
3947.00,0.0079
3946.00,0.0079
3945.00,0.0078
3944.00,0.0078
3943.00,0.0078
3942.00,0.0078
3941.00,0.0078
3940.00,0.0078
3939.00,0.0078
3938.00,0.0079
3937.00,0.0079
3936.00,0.0079
3935.00,0.0079
3934.00,0.0079
3933.00,0.0079
3932.00,0.0079
3931.00,0.0079
3930.00,0.0079
3929.00,0.0078
3928.00,0.0078
3927.00,0.0078
3926.00,0.0078
3925.00,0.0078
3924.00,0.0078
3923.00,0.0079
3922.00,0.0079
3921.00,0.0079
3920.00,0.0078
3919.00,0.0078
3918.00,0.0078
3917.00,0.0078
3916.00,0.0078
3915.00,0.0078
3914.00,0.0078
3913.00,0.0078
3912.00,0.0078
3911.00,0.0078
3910.00,0.0078
3909.00,0.0078
3908.00,0.0078
3907.00,0.0078
3906.00,0.0078
3905.00,0.0078
3904.00,0.0078
3903.00,0.0078
3902.00,0.0078
3901.00,0.0077
3900.00,0.0077
3899.00,0.0077
3898.00,0.0077
3897.00,0.0077
3896.00,0.0077
3895.00,0.0077
3894.00,0.0077
3893.00,0.0077
3892.00,0.0077
3891.00,0.0077
3890.00,0.0077
3889.00,0.0077
3888.00,0.0077
3887.00,0.0077
3886.00,0.0077
3885.00,0.0077
3884.00,0.0077
3883.00,0.0076
3882.00,0.0076
3881.00,0.0076
3880.00,0.0076
3879.00,0.0077
3878.00,0.0077
3877.00,0.0077
3876.00,0.0077
3875.00,0.0077
3874.00,0.0077
3873.00,0.0077
3872.00,0.0077
3871.00,0.0076
3870.00,0.0076
3869.00,0.0076
3868.00,0.0077
3867.00,0.0076
3866.00,0.0076
3865.00,0.0076
3864.00,0.0076
3863.00,0.0076
3862.00,0.0076
3861.00,0.0076
3860.00,0.0076
3859.00,0.0076
3858.00,0.0076
3857.00,0.0077
3856.00,0.0077
3855.00,0.0077
3854.00,0.0076
3853.00,0.0076
3852.00,0.0076
3851.00,0.0076
3850.00,0.0076
3849.00,0.0076
3848.00,0.0076
3847.00,0.0076
3846.00,0.0076
3845.00,0.0076
3844.00,0.0076
3843.00,0.0076
3842.00,0.0076
3841.00,0.0076
3840.00,0.0076
3839.00,0.0076
3838.00,0.0076
3837.00,0.0076
3836.00,0.0076
3835.00,0.0076
3834.00,0.0076
3833.00,0.0076
3832.00,0.0076
3831.00,0.0076
3830.00,0.0076
3829.00,0.0076
3828.00,0.0075
3827.00,0.0075
3826.00,0.0075
3825.00,0.0076
3824.00,0.0076
3823.00,0.0076
3822.00,0.0076
3821.00,0.0075
3820.00,0.0075
3819.00,0.0076
3818.00,0.0076
3817.00,0.0076
3816.00,0.0076
3815.00,0.0076
3814.00,0.0076
3813.00,0.0076
3812.00,0.0075
3811.00,0.0075
3810.00,0.0075
3809.00,0.0076
3808.00,0.0075
3807.00,0.0075
3806.00,0.0075
3805.00,0.0075
3804.00,0.0075
3803.00,0.0075
3802.00,0.0074
3801.00,0.0075
3800.00,0.0075
3799.00,0.0075
3798.00,0.0075
3797.00,0.0075
3796.00,0.0075
3795.00,0.0075
3794.00,0.0075
3793.00,0.0075
3792.00,0.0075
3791.00,0.0075
3790.00,0.0075
3789.00,0.0075
3788.00,0.0075
3787.00,0.0075
3786.00,0.0075
3785.00,0.0075
3784.00,0.0076
3783.00,0.0075
3782.00,0.0075
3781.00,0.0075
3780.00,0.0075
3779.00,0.0075
3778.00,0.0075
3777.00,0.0075
3776.00,0.0075
3775.00,0.0075
3774.00,0.0075
3773.00,0.0075
3772.00,0.0075
3771.00,0.0075
3770.00,0.0076
3769.00,0.0076
3768.00,0.0076
3767.00,0.0075
3766.00,0.0075
3765.00,0.0075
3764.00,0.0075
3763.00,0.0075
3762.00,0.0075
3761.00,0.0075
3760.00,0.0075
3759.00,0.0075
3758.00,0.0075
3757.00,0.0075
3756.00,0.0075
3755.00,0.0074
3754.00,0.0074
3753.00,0.0074
3752.00,0.0074
3751.00,0.0074
3750.00,0.0074
3749.00,0.0074
3748.00,0.0074
3747.00,0.0074
3746.00,0.0074
3745.00,0.0074
3744.00,0.0074
3743.00,0.0074
3742.00,0.0073
3741.00,0.0073
3740.00,0.0073
3739.00,0.0072
3738.00,0.0072
3737.00,0.0072
3736.00,0.0072
3735.00,0.0072
3734.00,0.0072
3733.00,0.0073
3732.00,0.0073
3731.00,0.0073
3730.00,0.0073
3729.00,0.0072
3728.00,0.0072
3727.00,0.0072
3726.00,0.0071
3725.00,0.0072
3724.00,0.0072
3723.00,0.0072
3722.00,0.0073
3721.00,0.0073
3720.00,0.0072
3719.00,0.0073
3718.00,0.0073
3717.00,0.0073
3716.00,0.0073
3715.00,0.0073
3714.00,0.0073
3713.00,0.0072
3712.00,0.0072
3711.00,0.0071
3710.00,0.0072
3709.00,0.0072
3708.00,0.0072
3707.00,0.0071
3706.00,0.0071
3705.00,0.0071
3704.00,0.0070
3703.00,0.0070
3702.00,0.0070
3701.00,0.0071
3700.00,0.0071
3699.00,0.0071
3698.00,0.0071
3697.00,0.0071
3696.00,0.0071
3695.00,0.0071
3694.00,0.0071
3693.00,0.0071
3692.00,0.0071
3691.00,0.0071
3690.00,0.0071
3689.00,0.0071
3688.00,0.0071
3687.00,0.0071
3686.00,0.0070
3685.00,0.0070
3684.00,0.0069
3683.00,0.0069
3682.00,0.0069
3681.00,0.0068
3680.00,0.0068
3679.00,0.0068
3678.00,0.0068
3677.00,0.0067
3676.00,0.0067
3675.00,0.0066
3674.00,0.0066
3673.00,0.0066
3672.00,0.0065
3671.00,0.0065
3670.00,0.0065
3669.00,0.0065
3668.00,0.0066
3667.00,0.0066
3666.00,0.0066
3665.00,0.0066
3664.00,0.0066
3663.00,0.0066
3662.00,0.0066
3661.00,0.0066
3660.00,0.0066
3659.00,0.0066
3658.00,0.0066
3657.00,0.0066
3656.00,0.0066
3655.00,0.0067
3654.00,0.0067
3653.00,0.0068
3652.00,0.0068
3651.00,0.0068
3650.00,0.0068
3649.00,0.0069
3648.00,0.0069
3647.00,0.0070
3646.00,0.0071
3645.00,0.0071
3644.00,0.0071
3643.00,0.0072
3642.00,0.0072
3641.00,0.0073
3640.00,0.0073
3639.00,0.0074
3638.00,0.0074
3637.00,0.0075
3636.00,0.0076
3635.00,0.0077
3634.00,0.0078
3633.00,0.0079
3632.00,0.0080
3631.00,0.0081
3630.00,0.0081
3629.00,0.0081
3628.00,0.0082
3627.00,0.0083
3626.00,0.0083
3625.00,0.0083
3624.00,0.0084
3623.00,0.0085
3622.00,0.0085
3621.00,0.0085
3620.00,0.0086
3619.00,0.0086
3618.00,0.0087
3617.00,0.0088
3616.00,0.0088
3615.00,0.0089
3614.00,0.0089
3613.00,0.0090
3612.00,0.0091
3611.00,0.0091
3610.00,0.0092
3609.00,0.0092
3608.00,0.0093
3607.00,0.0093
3606.00,0.0094
3605.00,0.0094
3604.00,0.0095
3603.00,0.0095
3602.00,0.0095
3601.00,0.0096
3600.00,0.0096
3599.00,0.0097
3598.00,0.0097
3597.00,0.0097
3596.00,0.0098
3595.00,0.0098
3594.00,0.0098
3593.00,0.0099
3592.00,0.0099
3591.00,0.0100
3590.00,0.0101
3589.00,0.0101
3588.00,0.0102
3587.00,0.0102
3586.00,0.0103
3585.00,0.0103
3584.00,0.0104
3583.00,0.0104
3582.00,0.0105
3581.00,0.0106
3580.00,0.0107
3579.00,0.0107
3578.00,0.0108
3577.00,0.0108
3576.00,0.0109
3575.00,0.0109
3574.00,0.0110
3573.00,0.0111
3572.00,0.0111
3571.00,0.0112
3570.00,0.0113
3569.00,0.0114
3568.00,0.0114
3567.00,0.0115
3566.00,0.0115
3565.00,0.0116
3564.00,0.0116
3563.00,0.0117
3562.00,0.0117
3561.00,0.0118
3560.00,0.0119
3559.00,0.0119
3558.00,0.0120
3557.00,0.0120
3556.00,0.0121
3555.00,0.0122
3554.00,0.0122
3553.00,0.0123
3552.00,0.0123
3551.00,0.0124
3550.00,0.0125
3549.00,0.0126
3548.00,0.0126
3547.00,0.0127
3546.00,0.0128
3545.00,0.0128
3544.00,0.0128
3543.00,0.0129
3542.00,0.0130
3541.00,0.0130
3540.00,0.0131
3539.00,0.0132
3538.00,0.0133
3537.00,0.0134
3536.00,0.0134
3535.00,0.0135
3534.00,0.0135
3533.00,0.0135
3532.00,0.0136
3531.00,0.0136
3530.00,0.0137
3529.00,0.0137
3528.00,0.0138
3527.00,0.0139
3526.00,0.0140
3525.00,0.0140
3524.00,0.0140
3523.00,0.0141
3522.00,0.0142
3521.00,0.0143
3520.00,0.0143
3519.00,0.0144
3518.00,0.0145
3517.00,0.0145
3516.00,0.0146
3515.00,0.0146
3514.00,0.0147
3513.00,0.0147
3512.00,0.0148
3511.00,0.0148
3510.00,0.0149
3509.00,0.0150
3508.00,0.0150
3507.00,0.0151
3506.00,0.0152
3505.00,0.0152
3504.00,0.0153
3503.00,0.0154
3502.00,0.0155
3501.00,0.0156
3500.00,0.0156
3499.00,0.0156
3498.00,0.0157
3497.00,0.0157
3496.00,0.0158
3495.00,0.0159
3494.00,0.0160
3493.00,0.0160
3492.00,0.0161
3491.00,0.0162
3490.00,0.0162
3489.00,0.0163
3488.00,0.0164
3487.00,0.0164
3486.00,0.0165
3485.00,0.0165
3484.00,0.0166
3483.00,0.0167
3482.00,0.0167
3481.00,0.0168
3480.00,0.0169
3479.00,0.0170
3478.00,0.0170
3477.00,0.0171
3476.00,0.0171
3475.00,0.0172
3474.00,0.0173
3473.00,0.0174
3472.00,0.0174
3471.00,0.0175
3470.00,0.0176
3469.00,0.0176
3468.00,0.0177
3467.00,0.0177
3466.00,0.0178
3465.00,0.0179
3464.00,0.0179
3463.00,0.0180
3462.00,0.0181
3461.00,0.0181
3460.00,0.0182
3459.00,0.0182
3458.00,0.0183
3457.00,0.0183
3456.00,0.0184
3455.00,0.0185
3454.00,0.0185
3453.00,0.0186
3452.00,0.0186
3451.00,0.0187
3450.00,0.0187
3449.00,0.0188
3448.00,0.0189
3447.00,0.0190
3446.00,0.0191
3445.00,0.0191
3444.00,0.0192
3443.00,0.0193
3442.00,0.0194
3441.00,0.0194
3440.00,0.0195
3439.00,0.0196
3438.00,0.0197
3437.00,0.0198
3436.00,0.0198
3435.00,0.0199
3434.00,0.0200
3433.00,0.0201
3432.00,0.0202
3431.00,0.0202
3430.00,0.0203
3429.00,0.0204
3428.00,0.0204
3427.00,0.0205
3426.00,0.0206
3425.00,0.0207
3424.00,0.0207
3423.00,0.0208
3422.00,0.0209
3421.00,0.0210
3420.00,0.0210
3419.00,0.0211
3418.00,0.0212
3417.00,0.0213
3416.00,0.0214
3415.00,0.0215
3414.00,0.0216
3413.00,0.0217
3412.00,0.0217
3411.00,0.0218
3410.00,0.0219
3409.00,0.0219
3408.00,0.0220
3407.00,0.0221
3406.00,0.0221
3405.00,0.0222
3404.00,0.0223
3403.00,0.0224
3402.00,0.0225
3401.00,0.0225
3400.00,0.0226
3399.00,0.0227
3398.00,0.0227
3397.00,0.0228
3396.00,0.0229
3395.00,0.0229
3394.00,0.0230
3393.00,0.0231
3392.00,0.0232
3391.00,0.0233
3390.00,0.0233
3389.00,0.0234
3388.00,0.0235
3387.00,0.0236
3386.00,0.0236
3385.00,0.0237
3384.00,0.0238
3383.00,0.0238
3382.00,0.0239
3381.00,0.0241
3380.00,0.0242
3379.00,0.0242
3378.00,0.0243
3377.00,0.0244
3376.00,0.0245
3375.00,0.0246
3374.00,0.0247
3373.00,0.0248
3372.00,0.0248
3371.00,0.0249
3370.00,0.0250
3369.00,0.0251
3368.00,0.0252
3367.00,0.0253
3366.00,0.0254
3365.00,0.0255
3364.00,0.0256
3363.00,0.0257
3362.00,0.0258
3361.00,0.0259
3360.00,0.0260
3359.00,0.0261
3358.00,0.0262
3357.00,0.0263
3356.00,0.0265
3355.00,0.0266
3354.00,0.0267
3353.00,0.0268
3352.00,0.0269
3351.00,0.0270
3350.00,0.0272
3349.00,0.0273
3348.00,0.0274
3347.00,0.0275
3346.00,0.0277
3345.00,0.0278
3344.00,0.0279
3343.00,0.0280
3342.00,0.0281
3341.00,0.0282
3340.00,0.0284
3339.00,0.0285
3338.00,0.0286
3337.00,0.0287
3336.00,0.0289
3335.00,0.0290
3334.00,0.0292
3333.00,0.0294
3332.00,0.0295
3331.00,0.0297
3330.00,0.0298
3329.00,0.0299
3328.00,0.0300
3327.00,0.0302
3326.00,0.0303
3325.00,0.0305
3324.00,0.0307
3323.00,0.0308
3322.00,0.0310
3321.00,0.0312
3320.00,0.0314
3319.00,0.0316
3318.00,0.0317
3317.00,0.0319
3316.00,0.0321
3315.00,0.0323
3314.00,0.0324
3313.00,0.0326
3312.00,0.0327
3311.00,0.0328
3310.00,0.0330
3309.00,0.0331
3308.00,0.0333
3307.00,0.0334
3306.00,0.0336
3305.00,0.0338
3304.00,0.0340
3303.00,0.0342
3302.00,0.0344
3301.00,0.0346
3300.00,0.0348
3299.00,0.0349
3298.00,0.0351
3297.00,0.0352
3296.00,0.0354
3295.00,0.0355
3294.00,0.0357
3293.00,0.0358
3292.00,0.0360
3291.00,0.0362
3290.00,0.0363
3289.00,0.0364
3288.00,0.0366
3287.00,0.0367
3286.00,0.0368
3285.00,0.0369
3284.00,0.0370
3283.00,0.0370
3282.00,0.0371
3281.00,0.0371
3280.00,0.0372
3279.00,0.0372
3278.00,0.0372
3277.00,0.0372
3276.00,0.0372
3275.00,0.0371
3274.00,0.0371
3273.00,0.0370
3272.00,0.0369
3271.00,0.0369
3270.00,0.0369
3269.00,0.0368
3268.00,0.0368
3267.00,0.0367
3266.00,0.0367
3265.00,0.0365
3264.00,0.0364
3263.00,0.0362
3262.00,0.0361
3261.00,0.0359
3260.00,0.0358
3259.00,0.0356
3258.00,0.0354
3257.00,0.0352
3256.00,0.0351
3255.00,0.0349
3254.00,0.0347
3253.00,0.0346
3252.00,0.0344
3251.00,0.0343
3250.00,0.0341
3249.00,0.0339
3248.00,0.0337
3247.00,0.0336
3246.00,0.0334
3245.00,0.0333
3244.00,0.0332
3243.00,0.0330
3242.00,0.0329
3241.00,0.0327
3240.00,0.0326
3239.00,0.0324
3238.00,0.0323
3237.00,0.0321
3236.00,0.0320
3235.00,0.0318
3234.00,0.0317
3233.00,0.0316
3232.00,0.0315
3231.00,0.0314
3230.00,0.0314
3229.00,0.0313
3228.00,0.0312
3227.00,0.0311
3226.00,0.0310
3225.00,0.0309
3224.00,0.0308
3223.00,0.0306
3222.00,0.0306
3221.00,0.0305
3220.00,0.0304
3219.00,0.0303
3218.00,0.0302
3217.00,0.0301
3216.00,0.0301
3215.00,0.0300
3214.00,0.0299
3213.00,0.0298
3212.00,0.0297
3211.00,0.0296
3210.00,0.0295
3209.00,0.0294
3208.00,0.0293
3207.00,0.0292
3206.00,0.0292
3205.00,0.0291
3204.00,0.0290
3203.00,0.0290
3202.00,0.0289
3201.00,0.0288
3200.00,0.0288
3199.00,0.0287
3198.00,0.0286
3197.00,0.0285
3196.00,0.0284
3195.00,0.0283
3194.00,0.0282
3193.00,0.0281
3192.00,0.0281
3191.00,0.0280
3190.00,0.0279
3189.00,0.0278
3188.00,0.0277
3187.00,0.0276
3186.00,0.0275
3185.00,0.0274
3184.00,0.0274
3183.00,0.0273
3182.00,0.0272
3181.00,0.0271
3180.00,0.0270
3179.00,0.0269
3178.00,0.0268
3177.00,0.0267
3176.00,0.0266
3175.00,0.0265
3174.00,0.0264
3173.00,0.0263
3172.00,0.0262
3171.00,0.0262
3170.00,0.0261
3169.00,0.0260
3168.00,0.0259
3167.00,0.0259
3166.00,0.0258
3165.00,0.0257
3164.00,0.0257
3163.00,0.0256
3162.00,0.0255
3161.00,0.0254
3160.00,0.0253
3159.00,0.0253
3158.00,0.0252
3157.00,0.0251
3156.00,0.0250
3155.00,0.0249
3154.00,0.0248
3153.00,0.0247
3152.00,0.0246
3151.00,0.0246
3150.00,0.0245
3149.00,0.0245
3148.00,0.0244
3147.00,0.0243
3146.00,0.0243
3145.00,0.0242
3144.00,0.0241
3143.00,0.0241
3142.00,0.0240
3141.00,0.0239
3140.00,0.0238
3139.00,0.0238
3138.00,0.0237
3137.00,0.0237
3136.00,0.0237
3135.00,0.0236
3134.00,0.0235
3133.00,0.0235
3132.00,0.0234
3131.00,0.0233
3130.00,0.0233
3129.00,0.0233
3128.00,0.0232
3127.00,0.0232
3126.00,0.0232
3125.00,0.0231
3124.00,0.0231
3123.00,0.0230
3122.00,0.0230
3121.00,0.0229
3120.00,0.0228
3119.00,0.0228
3118.00,0.0227
3117.00,0.0227
3116.00,0.0227
3115.00,0.0228
3114.00,0.0228
3113.00,0.0228
3112.00,0.0228
3111.00,0.0228
3110.00,0.0228
3109.00,0.0228
3108.00,0.0228
3107.00,0.0228
3106.00,0.0229
3105.00,0.0229
3104.00,0.0229
3103.00,0.0229
3102.00,0.0229
3101.00,0.0228
3100.00,0.0228
3099.00,0.0229
3098.00,0.0229
3097.00,0.0229
3096.00,0.0230
3095.00,0.0230
3094.00,0.0230
3093.00,0.0230
3092.00,0.0230
3091.00,0.0230
3090.00,0.0230
3089.00,0.0230
3088.00,0.0231
3087.00,0.0231
3086.00,0.0231
3085.00,0.0231
3084.00,0.0231
3083.00,0.0231
3082.00,0.0231
3081.00,0.0231
3080.00,0.0230
3079.00,0.0230
3078.00,0.0230
3077.00,0.0231
3076.00,0.0231
3075.00,0.0232
3074.00,0.0232
3073.00,0.0232
3072.00,0.0232
3071.00,0.0232
3070.00,0.0231
3069.00,0.0231
3068.00,0.0230
3067.00,0.0230
3066.00,0.0230
3065.00,0.0230
3064.00,0.0230
3063.00,0.0230
3062.00,0.0229
3061.00,0.0229
3060.00,0.0229
3059.00,0.0228
3058.00,0.0227
3057.00,0.0227
3056.00,0.0226
3055.00,0.0225
3054.00,0.0225
3053.00,0.0224
3052.00,0.0223
3051.00,0.0223
3050.00,0.0222
3049.00,0.0222
3048.00,0.0221
3047.00,0.0220
3046.00,0.0219
3045.00,0.0218
3044.00,0.0217
3043.00,0.0216
3042.00,0.0216
3041.00,0.0216
3040.00,0.0215
3039.00,0.0215
3038.00,0.0214
3037.00,0.0213
3036.00,0.0212
3035.00,0.0212
3034.00,0.0211
3033.00,0.0211
3032.00,0.0211
3031.00,0.0210
3030.00,0.0210
3029.00,0.0210
3028.00,0.0209
3027.00,0.0208
3026.00,0.0207
3025.00,0.0206
3024.00,0.0205
3023.00,0.0204
3022.00,0.0203
3021.00,0.0202
3020.00,0.0200
3019.00,0.0199
3018.00,0.0198
3017.00,0.0196
3016.00,0.0194
3015.00,0.0193
3014.00,0.0191
3013.00,0.0190
3012.00,0.0188
3011.00,0.0186
3010.00,0.0184
3009.00,0.0182
3008.00,0.0179
3007.00,0.0177
3006.00,0.0173
3005.00,0.0170
3004.00,0.0167
3003.00,0.0164
3002.00,0.0161
3001.00,0.0158
3000.00,0.0155
2999.00,0.0152
2998.00,0.0150
2997.00,0.0149
2996.00,0.0147
2995.00,0.0146
2994.00,0.0145
2993.00,0.0144
2992.00,0.0144
2991.00,0.0143
2990.00,0.0143
2989.00,0.0143
2988.00,0.0142
2987.00,0.0141
2986.00,0.0138
2985.00,0.0133
2984.00,0.0126
2983.00,0.0118
2982.00,0.0114
2981.00,0.0113
2980.00,0.0116
2979.00,0.0123
2978.00,0.0130
2977.00,0.0137
2976.00,0.0143
2975.00,0.0147
2974.00,0.0149
2973.00,0.0151
2972.00,0.0152
2971.00,0.0155
2970.00,0.0160
2969.00,0.0166
2968.00,0.0173
2967.00,0.0178
2966.00,0.0183
2965.00,0.0187
2964.00,0.0191
2963.00,0.0194
2962.00,0.0197
2961.00,0.0199
2960.00,0.0202
2959.00,0.0203
2958.00,0.0205
2957.00,0.0206
2956.00,0.0206
2955.00,0.0207
2954.00,0.0207
2953.00,0.0208
2952.00,0.0209
2951.00,0.0209
2950.00,0.0210
2949.00,0.0211
2948.00,0.0212
2947.00,0.0213
2946.00,0.0214
2945.00,0.0216
2944.00,0.0219
2943.00,0.0221
2942.00,0.0223
2941.00,0.0225
2940.00,0.0227
2939.00,0.0229
2938.00,0.0231
2937.00,0.0233
2936.00,0.0235
2935.00,0.0237
2934.00,0.0238
2933.00,0.0239
2932.00,0.0241
2931.00,0.0242
2930.00,0.0243
2929.00,0.0244
2928.00,0.0245
2927.00,0.0247
2926.00,0.0247
2925.00,0.0248
2924.00,0.0247
2923.00,0.0247
2922.00,0.0246
2921.00,0.0244
2920.00,0.0243
2919.00,0.0241
2918.00,0.0239
2917.00,0.0236
2916.00,0.0234
2915.00,0.0232
2914.00,0.0229
2913.00,0.0227
2912.00,0.0224
2911.00,0.0222
2910.00,0.0220
2909.00,0.0218
2908.00,0.0216
2907.00,0.0214
2906.00,0.0212
2905.00,0.0210
2904.00,0.0209
2903.00,0.0207
2902.00,0.0206
2901.00,0.0204
2900.00,0.0203
2899.00,0.0201
2898.00,0.0200
2897.00,0.0199
2896.00,0.0198
2895.00,0.0196
2894.00,0.0195
2893.00,0.0193
2892.00,0.0192
2891.00,0.0191
2890.00,0.0190
2889.00,0.0189
2888.00,0.0189
2887.00,0.0189
2886.00,0.0189
2885.00,0.0189
2884.00,0.0190
2883.00,0.0191
2882.00,0.0193
2881.00,0.0195
2880.00,0.0197
2879.00,0.0200
2878.00,0.0201
2877.00,0.0203
2876.00,0.0204
2875.00,0.0205
2874.00,0.0206
2873.00,0.0206
2872.00,0.0206
2871.00,0.0205
2870.00,0.0205
2869.00,0.0204
2868.00,0.0204
2867.00,0.0203
2866.00,0.0202
2865.00,0.0202
2864.00,0.0201
2863.00,0.0201
2862.00,0.0201
2861.00,0.0201
2860.00,0.0202
2859.00,0.0202
2858.00,0.0203
2857.00,0.0203
2856.00,0.0204
2855.00,0.0204
2854.00,0.0203
2853.00,0.0203
2852.00,0.0202
2851.00,0.0202
2850.00,0.0200
2849.00,0.0199
2848.00,0.0197
2847.00,0.0196
2846.00,0.0194
2845.00,0.0192
2844.00,0.0190
2843.00,0.0189
2842.00,0.0187
2841.00,0.0185
2840.00,0.0184
2839.00,0.0183
2838.00,0.0182
2837.00,0.0181
2836.00,0.0181
2835.00,0.0180
2834.00,0.0179
2833.00,0.0179
2832.00,0.0178
2831.00,0.0178
2830.00,0.0177
2829.00,0.0177
2828.00,0.0176
2827.00,0.0176
2826.00,0.0175
2825.00,0.0175
2824.00,0.0174
2823.00,0.0174
2822.00,0.0173
2821.00,0.0173
2820.00,0.0173
2819.00,0.0173
2818.00,0.0172
2817.00,0.0172
2816.00,0.0172
2815.00,0.0171
2814.00,0.0171
2813.00,0.0171
2812.00,0.0170
2811.00,0.0170
2810.00,0.0170
2809.00,0.0169
2808.00,0.0169
2807.00,0.0169
2806.00,0.0168
2805.00,0.0168
2804.00,0.0168
2803.00,0.0168
2802.00,0.0167
2801.00,0.0167
2800.00,0.0167
2799.00,0.0166
2798.00,0.0166
2797.00,0.0166
2796.00,0.0165
2795.00,0.0165
2794.00,0.0165
2793.00,0.0164
2792.00,0.0164
2791.00,0.0164
2790.00,0.0164
2789.00,0.0164
2788.00,0.0164
2787.00,0.0163
2786.00,0.0163
2785.00,0.0163
2784.00,0.0163
2783.00,0.0163
2782.00,0.0162
2781.00,0.0162
2780.00,0.0162
2779.00,0.0161
2778.00,0.0161
2777.00,0.0161
2776.00,0.0160
2775.00,0.0160
2774.00,0.0160
2773.00,0.0160
2772.00,0.0160
2771.00,0.0160
2770.00,0.0159
2769.00,0.0159
2768.00,0.0159
2767.00,0.0159
2766.00,0.0158
2765.00,0.0158
2764.00,0.0158
2763.00,0.0157
2762.00,0.0157
2761.00,0.0157
2760.00,0.0156
2759.00,0.0156
2758.00,0.0156
2757.00,0.0156
2756.00,0.0155
2755.00,0.0155
2754.00,0.0155
2753.00,0.0155
2752.00,0.0155
2751.00,0.0154
2750.00,0.0154
2749.00,0.0154
2748.00,0.0154
2747.00,0.0154
2746.00,0.0153
2745.00,0.0153
2744.00,0.0153
2743.00,0.0153
2742.00,0.0153
2741.00,0.0153
2740.00,0.0152
2739.00,0.0152
2738.00,0.0152
2737.00,0.0152
2736.00,0.0151
2735.00,0.0151
2734.00,0.0151
2733.00,0.0151
2732.00,0.0151
2731.00,0.0150
2730.00,0.0150
2729.00,0.0150
2728.00,0.0149
2727.00,0.0149
2726.00,0.0149
2725.00,0.0149
2724.00,0.0148
2723.00,0.0148
2722.00,0.0148
2721.00,0.0148
2720.00,0.0148
2719.00,0.0148
2718.00,0.0147
2717.00,0.0147
2716.00,0.0147
2715.00,0.0146
2714.00,0.0146
2713.00,0.0146
2712.00,0.0146
2711.00,0.0146
2710.00,0.0146
2709.00,0.0146
2708.00,0.0145
2707.00,0.0145
2706.00,0.0145
2705.00,0.0145
2704.00,0.0144
2703.00,0.0144
2702.00,0.0144
2701.00,0.0144
2700.00,0.0143
2699.00,0.0143
2698.00,0.0143
2697.00,0.0143
2696.00,0.0143
2695.00,0.0143
2694.00,0.0143
2693.00,0.0143
2692.00,0.0143
2691.00,0.0142
2690.00,0.0142
2689.00,0.0142
2688.00,0.0142
2687.00,0.0142
2686.00,0.0141
2685.00,0.0141
2684.00,0.0141
2683.00,0.0141
2682.00,0.0141
2681.00,0.0140
2680.00,0.0140
2679.00,0.0140
2678.00,0.0140
2677.00,0.0140
2676.00,0.0140
2675.00,0.0140
2674.00,0.0140
2673.00,0.0140
2672.00,0.0140
2671.00,0.0140
2670.00,0.0140
2669.00,0.0139
2668.00,0.0139
2667.00,0.0139
2666.00,0.0139
2665.00,0.0139
2664.00,0.0140
2663.00,0.0140
2662.00,0.0140
2661.00,0.0141
2660.00,0.0141
2659.00,0.0141
2658.00,0.0141
2657.00,0.0141
2656.00,0.0141
2655.00,0.0141
2654.00,0.0141
2653.00,0.0141
2652.00,0.0141
2651.00,0.0141
2650.00,0.0140
2649.00,0.0140
2648.00,0.0140
2647.00,0.0140
2646.00,0.0139
2645.00,0.0139
2644.00,0.0139
2643.00,0.0139
2642.00,0.0139
2641.00,0.0139
2640.00,0.0139
2639.00,0.0138
2638.00,0.0138
2637.00,0.0138
2636.00,0.0138
2635.00,0.0138
2634.00,0.0138
2633.00,0.0138
2632.00,0.0138
2631.00,0.0137
2630.00,0.0137
2629.00,0.0137
2628.00,0.0136
2627.00,0.0136
2626.00,0.0136
2625.00,0.0136
2624.00,0.0136
2623.00,0.0135
2622.00,0.0135
2621.00,0.0135
2620.00,0.0135
2619.00,0.0135
2618.00,0.0135
2617.00,0.0135
2616.00,0.0135
2615.00,0.0135
2614.00,0.0134
2613.00,0.0134
2612.00,0.0134
2611.00,0.0134
2610.00,0.0134
2609.00,0.0133
2608.00,0.0133
2607.00,0.0133
2606.00,0.0132
2605.00,0.0132
2604.00,0.0132
2603.00,0.0132
2602.00,0.0132
2601.00,0.0132
2600.00,0.0132
2599.00,0.0132
2598.00,0.0131
2597.00,0.0131
2596.00,0.0131
2595.00,0.0130
2594.00,0.0130
2593.00,0.0130
2592.00,0.0130
2591.00,0.0130
2590.00,0.0130
2589.00,0.0129
2588.00,0.0129
2587.00,0.0129
2586.00,0.0129
2585.00,0.0129
2584.00,0.0129
2583.00,0.0129
2582.00,0.0129
2581.00,0.0129
2580.00,0.0129
2579.00,0.0129
2578.00,0.0128
2577.00,0.0128
2576.00,0.0128
2575.00,0.0128
2574.00,0.0127
2573.00,0.0127
2572.00,0.0127
2571.00,0.0127
2570.00,0.0127
2569.00,0.0127
2568.00,0.0126
2567.00,0.0126
2566.00,0.0126
2565.00,0.0126
2564.00,0.0126
2563.00,0.0126
2562.00,0.0126
2561.00,0.0125
2560.00,0.0125
2559.00,0.0125
2558.00,0.0125
2557.00,0.0125
2556.00,0.0125
2555.00,0.0125
2554.00,0.0125
2553.00,0.0124
2552.00,0.0124
2551.00,0.0124
2550.00,0.0124
2549.00,0.0123
2548.00,0.0123
2547.00,0.0123
2546.00,0.0123
2545.00,0.0124
2544.00,0.0123
2543.00,0.0123
2542.00,0.0123
2541.00,0.0122
2540.00,0.0122
2539.00,0.0122
2538.00,0.0122
2537.00,0.0122
2536.00,0.0122
2535.00,0.0122
2534.00,0.0122
2533.00,0.0122
2532.00,0.0122
2531.00,0.0121
2530.00,0.0121
2529.00,0.0121
2528.00,0.0121
2527.00,0.0120
2526.00,0.0120
2525.00,0.0120
2524.00,0.0120
2523.00,0.0120
2522.00,0.0120
2521.00,0.0120
2520.00,0.0119
2519.00,0.0119
2518.00,0.0119
2517.00,0.0119
2516.00,0.0119
2515.00,0.0119
2514.00,0.0119
2513.00,0.0120
2512.00,0.0120
2511.00,0.0120
2510.00,0.0120
2509.00,0.0120
2508.00,0.0119
2507.00,0.0119
2506.00,0.0119
2505.00,0.0119
2504.00,0.0119
2503.00,0.0119
2502.00,0.0118
2501.00,0.0118
2500.00,0.0118
2499.00,0.0118
2498.00,0.0118
2497.00,0.0118
2496.00,0.0117
2495.00,0.0117
2494.00,0.0117
2493.00,0.0117
2492.00,0.0117
2491.00,0.0116
2490.00,0.0116
2489.00,0.0116
2488.00,0.0116
2487.00,0.0116
2486.00,0.0116
2485.00,0.0116
2484.00,0.0116
2483.00,0.0116
2482.00,0.0116
2481.00,0.0116
2480.00,0.0115
2479.00,0.0115
2478.00,0.0115
2477.00,0.0115
2476.00,0.0115
2475.00,0.0115
2474.00,0.0115
2473.00,0.0115
2472.00,0.0115
2471.00,0.0115
2470.00,0.0115
2469.00,0.0115
2468.00,0.0115
2467.00,0.0115
2466.00,0.0116
2465.00,0.0115
2464.00,0.0115
2463.00,0.0115
2462.00,0.0115
2461.00,0.0115
2460.00,0.0115
2459.00,0.0115
2458.00,0.0115
2457.00,0.0115
2456.00,0.0115
2455.00,0.0115
2454.00,0.0115
2453.00,0.0115
2452.00,0.0115
2451.00,0.0115
2450.00,0.0115
2449.00,0.0115
2448.00,0.0114
2447.00,0.0114
2446.00,0.0114
2445.00,0.0113
2444.00,0.0113
2443.00,0.0113
2442.00,0.0113
2441.00,0.0113
2440.00,0.0113
2439.00,0.0112
2438.00,0.0112
2437.00,0.0112
2436.00,0.0111
2435.00,0.0111
2434.00,0.0111
2433.00,0.0110
2432.00,0.0110
2431.00,0.0110
2430.00,0.0110
2429.00,0.0110
2428.00,0.0109
2427.00,0.0109
2426.00,0.0109
2425.00,0.0109
2424.00,0.0109
2423.00,0.0109
2422.00,0.0109
2421.00,0.0109
2420.00,0.0109
2419.00,0.0109
2418.00,0.0109
2417.00,0.0109
2416.00,0.0108
2415.00,0.0108
2414.00,0.0108
2413.00,0.0108
2412.00,0.0108
2411.00,0.0108
2410.00,0.0108
2409.00,0.0107
2408.00,0.0106
2407.00,0.0106
2406.00,0.0105
2405.00,0.0105
2404.00,0.0105
2403.00,0.0105
2402.00,0.0105
2401.00,0.0105
2400.00,0.0105
2399.00,0.0105
2398.00,0.0105
2397.00,0.0105
2396.00,0.0105
2395.00,0.0105
2394.00,0.0105
2393.00,0.0105
2392.00,0.0105
2391.00,0.0105
2390.00,0.0104
2389.00,0.0104
2388.00,0.0104
2387.00,0.0104
2386.00,0.0103
2385.00,0.0103
2384.00,0.0102
2383.00,0.0101
2382.00,0.0100
2381.00,0.0100
2380.00,0.0099
2379.00,0.0099
2378.00,0.0099
2377.00,0.0099
2376.00,0.0098
2375.00,0.0098
2374.00,0.0098
2373.00,0.0098
2372.00,0.0098
2371.00,0.0097
2370.00,0.0097
2369.00,0.0096
2368.00,0.0096
2367.00,0.0096
2366.00,0.0096
2365.00,0.0096
2364.00,0.0097
2363.00,0.0097
2362.00,0.0097
2361.00,0.0097
2360.00,0.0096
2359.00,0.0096
2358.00,0.0096
2357.00,0.0096
2356.00,0.0097
2355.00,0.0097
2354.00,0.0097
2353.00,0.0097
2352.00,0.0097
2351.00,0.0097
2350.00,0.0097
2349.00,0.0097
2348.00,0.0097
2347.00,0.0098
2346.00,0.0098
2345.00,0.0099
2344.00,0.0099
2343.00,0.0099
2342.00,0.0099
2341.00,0.0099
2340.00,0.0099
2339.00,0.0100
2338.00,0.0100
2337.00,0.0100
2336.00,0.0100
2335.00,0.0100
2334.00,0.0101
2333.00,0.0101
2332.00,0.0101
2331.00,0.0101
2330.00,0.0101
2329.00,0.0102
2328.00,0.0105
2327.00,0.0108
2326.00,0.0111
2325.00,0.0112
2324.00,0.0111
2323.00,0.0109
2322.00,0.0107
2321.00,0.0106
2320.00,0.0104
2319.00,0.0103
2318.00,0.0103
2317.00,0.0104
2316.00,0.0104
2315.00,0.0104
2314.00,0.0104
2313.00,0.0103
2312.00,0.0102
2311.00,0.0101
2310.00,0.0100
2309.00,0.0100
2308.00,0.0100
2307.00,0.0101
2306.00,0.0101
2305.00,0.0102
2304.00,0.0102
2303.00,0.0103
2302.00,0.0103
2301.00,0.0103
2300.00,0.0104
2299.00,0.0104
2298.00,0.0104
2297.00,0.0105
2296.00,0.0105
2295.00,0.0106
2294.00,0.0107
2293.00,0.0108
2292.00,0.0109
2291.00,0.0110
2290.00,0.0111
2289.00,0.0112
2288.00,0.0112
2287.00,0.0112
2286.00,0.0111
2285.00,0.0111
2284.00,0.0111
2283.00,0.0111
2282.00,0.0110
2281.00,0.0110
2280.00,0.0109
2279.00,0.0109
2278.00,0.0108
2277.00,0.0107
2276.00,0.0107
2275.00,0.0107
2274.00,0.0107
2273.00,0.0107
2272.00,0.0107
2271.00,0.0107
2270.00,0.0106
2269.00,0.0106
2268.00,0.0105
2267.00,0.0104
2266.00,0.0103
2265.00,0.0102
2264.00,0.0102
2263.00,0.0102
2262.00,0.0102
2261.00,0.0104
2260.00,0.0105
2259.00,0.0105
2258.00,0.0105
2257.00,0.0104
2256.00,0.0103
2255.00,0.0102
2254.00,0.0102
2253.00,0.0102
2252.00,0.0102
2251.00,0.0102
2250.00,0.0102
2249.00,0.0103
2248.00,0.0103
2247.00,0.0103
2246.00,0.0103
2245.00,0.0103
2244.00,0.0104
2243.00,0.0104
2242.00,0.0105
2241.00,0.0104
2240.00,0.0104
2239.00,0.0103
2238.00,0.0102
2237.00,0.0101
2236.00,0.0101
2235.00,0.0101
2234.00,0.0101
2233.00,0.0102
2232.00,0.0102
2231.00,0.0102
2230.00,0.0102
2229.00,0.0102
2228.00,0.0102
2227.00,0.0101
2226.00,0.0100
2225.00,0.0100
2224.00,0.0101
2223.00,0.0101
2222.00,0.0101
2221.00,0.0100
2220.00,0.0099
2219.00,0.0099
2218.00,0.0098
2217.00,0.0098
2216.00,0.0098
2215.00,0.0098
2214.00,0.0098
2213.00,0.0097
2212.00,0.0097
2211.00,0.0097
2210.00,0.0098
2209.00,0.0099
2208.00,0.0100
2207.00,0.0100
2206.00,0.0100
2205.00,0.0099
2204.00,0.0099
2203.00,0.0098
2202.00,0.0098
2201.00,0.0098
2200.00,0.0098
2199.00,0.0098
2198.00,0.0098
2197.00,0.0099
2196.00,0.0099
2195.00,0.0098
2194.00,0.0098
2193.00,0.0098
2192.00,0.0099
2191.00,0.0100
2190.00,0.0100
2189.00,0.0100
2188.00,0.0100
2187.00,0.0100
2186.00,0.0100
2185.00,0.0099
2184.00,0.0098
2183.00,0.0097
2182.00,0.0097
2181.00,0.0098
2180.00,0.0100
2179.00,0.0100
2178.00,0.0098
2177.00,0.0097
2176.00,0.0097
2175.00,0.0098
2174.00,0.0100
2173.00,0.0102
2172.00,0.0104
2171.00,0.0104
2170.00,0.0105
2169.00,0.0106
2168.00,0.0107
2167.00,0.0108
2166.00,0.0108
2165.00,0.0110
2164.00,0.0111
2163.00,0.0111
2162.00,0.0107
2161.00,0.0097
2160.00,0.0085
2159.00,0.0074
2158.00,0.0068
2157.00,0.0068
2156.00,0.0070
2155.00,0.0072
2154.00,0.0074
2153.00,0.0076
2152.00,0.0077
2151.00,0.0078
2150.00,0.0079
2149.00,0.0080
2148.00,0.0081
2147.00,0.0082
2146.00,0.0082
2145.00,0.0082
2144.00,0.0082
2143.00,0.0081
2142.00,0.0081
2141.00,0.0082
2140.00,0.0082
2139.00,0.0082
2138.00,0.0082
2137.00,0.0080
2136.00,0.0079
2135.00,0.0078
2134.00,0.0077
2133.00,0.0078
2132.00,0.0080
2131.00,0.0081
2130.00,0.0082
2129.00,0.0083
2128.00,0.0084
2127.00,0.0085
2126.00,0.0087
2125.00,0.0088
2124.00,0.0090
2123.00,0.0091
2122.00,0.0091
2121.00,0.0092
2120.00,0.0092
2119.00,0.0093
2118.00,0.0093
2117.00,0.0094
2116.00,0.0096
2115.00,0.0098
2114.00,0.0098
2113.00,0.0098
2112.00,0.0098
2111.00,0.0097
2110.00,0.0096
2109.00,0.0095
2108.00,0.0095
2107.00,0.0094
2106.00,0.0094
2105.00,0.0094
2104.00,0.0095
2103.00,0.0095
2102.00,0.0095
2101.00,0.0095
2100.00,0.0095
2099.00,0.0095
2098.00,0.0094
2097.00,0.0092
2096.00,0.0091
2095.00,0.0090
2094.00,0.0090
2093.00,0.0090
2092.00,0.0091
2091.00,0.0092
2090.00,0.0093
2089.00,0.0094
2088.00,0.0094
2087.00,0.0094
2086.00,0.0095
2085.00,0.0095
2084.00,0.0096
2083.00,0.0096
2082.00,0.0096
2081.00,0.0095
2080.00,0.0095
2079.00,0.0095
2078.00,0.0094
2077.00,0.0093
2076.00,0.0093
2075.00,0.0094
2074.00,0.0094
2073.00,0.0094
2072.00,0.0094
2071.00,0.0094
2070.00,0.0093
2069.00,0.0093
2068.00,0.0093
2067.00,0.0093
2066.00,0.0093
2065.00,0.0092
2064.00,0.0092
2063.00,0.0092
2062.00,0.0091
2061.00,0.0091
2060.00,0.0091
2059.00,0.0091
2058.00,0.0091
2057.00,0.0090
2056.00,0.0090
2055.00,0.0090
2054.00,0.0092
2053.00,0.0097
2052.00,0.0101
2051.00,0.0102
2050.00,0.0099
2049.00,0.0095
2048.00,0.0092
2047.00,0.0090
2046.00,0.0090
2045.00,0.0090
2044.00,0.0090
2043.00,0.0091
2042.00,0.0091
2041.00,0.0091
2040.00,0.0092
2039.00,0.0092
2038.00,0.0093
2037.00,0.0093
2036.00,0.0092
2035.00,0.0091
2034.00,0.0088
2033.00,0.0086
2032.00,0.0084
2031.00,0.0082
2030.00,0.0080
2029.00,0.0080
2028.00,0.0081
2027.00,0.0081
2026.00,0.0081
2025.00,0.0082
2024.00,0.0082
2023.00,0.0082
2022.00,0.0081
2021.00,0.0080
2020.00,0.0080
2019.00,0.0080
2018.00,0.0079
2017.00,0.0078
2016.00,0.0078
2015.00,0.0079
2014.00,0.0080
2013.00,0.0081
2012.00,0.0083
2011.00,0.0084
2010.00,0.0083
2009.00,0.0082
2008.00,0.0080
2007.00,0.0077
2006.00,0.0074
2005.00,0.0073
2004.00,0.0074
2003.00,0.0076
2002.00,0.0079
2001.00,0.0082
2000.00,0.0083
1999.00,0.0084
1998.00,0.0083
1997.00,0.0082
1996.00,0.0082
1995.00,0.0082
1994.00,0.0083
1993.00,0.0083
1992.00,0.0084
1991.00,0.0084
1990.00,0.0085
1989.00,0.0085
1988.00,0.0086
1987.00,0.0086
1986.00,0.0086
1985.00,0.0088
1984.00,0.0090
1983.00,0.0093
1982.00,0.0095
1981.00,0.0096
1980.00,0.0094
1979.00,0.0089
1978.00,0.0082
1977.00,0.0077
1976.00,0.0076
1975.00,0.0076
1974.00,0.0076
1973.00,0.0076
1972.00,0.0076
1971.00,0.0077
1970.00,0.0077
1969.00,0.0077
1968.00,0.0077
1967.00,0.0077
1966.00,0.0077
1965.00,0.0078
1964.00,0.0078
1963.00,0.0078
1962.00,0.0076
1961.00,0.0074
1960.00,0.0073
1959.00,0.0072
1958.00,0.0072
1957.00,0.0072
1956.00,0.0073
1955.00,0.0075
1954.00,0.0076
1953.00,0.0077
1952.00,0.0077
1951.00,0.0077
1950.00,0.0077
1949.00,0.0078
1948.00,0.0078
1947.00,0.0078
1946.00,0.0077
1945.00,0.0076
1944.00,0.0076
1943.00,0.0076
1942.00,0.0076
1941.00,0.0077
1940.00,0.0076
1939.00,0.0076
1938.00,0.0076
1937.00,0.0077
1936.00,0.0078
1935.00,0.0078
1934.00,0.0078
1933.00,0.0078
1932.00,0.0078
1931.00,0.0077
1930.00,0.0077
1929.00,0.0078
1928.00,0.0078
1927.00,0.0077
1926.00,0.0076
1925.00,0.0076
1924.00,0.0076
1923.00,0.0077
1922.00,0.0079
1921.00,0.0079
1920.00,0.0080
1919.00,0.0079
1918.00,0.0078
1917.00,0.0078
1916.00,0.0079
1915.00,0.0079
1914.00,0.0079
1913.00,0.0079
1912.00,0.0080
1911.00,0.0080
1910.00,0.0080
1909.00,0.0080
1908.00,0.0080
1907.00,0.0079
1906.00,0.0079
1905.00,0.0078
1904.00,0.0077
1903.00,0.0077
1902.00,0.0077
1901.00,0.0077
1900.00,0.0078
1899.00,0.0078
1898.00,0.0078
1897.00,0.0078
1896.00,0.0078
1895.00,0.0077
1894.00,0.0077
1893.00,0.0078
1892.00,0.0078
1891.00,0.0077
1890.00,0.0077
1889.00,0.0078
1888.00,0.0078
1887.00,0.0078
1886.00,0.0077
1885.00,0.0077
1884.00,0.0077
1883.00,0.0077
1882.00,0.0078
1881.00,0.0078
1880.00,0.0078
1879.00,0.0078
1878.00,0.0077
1877.00,0.0077
1876.00,0.0077
1875.00,0.0077
1874.00,0.0077
1873.00,0.0077
1872.00,0.0076
1871.00,0.0076
1870.00,0.0075
1869.00,0.0075
1868.00,0.0075
1867.00,0.0076
1866.00,0.0076
1865.00,0.0076
1864.00,0.0076
1863.00,0.0076
1862.00,0.0075
1861.00,0.0075
1860.00,0.0076
1859.00,0.0076
1858.00,0.0075
1857.00,0.0075
1856.00,0.0075
1855.00,0.0076
1854.00,0.0075
1853.00,0.0075
1852.00,0.0075
1851.00,0.0075
1850.00,0.0075
1849.00,0.0074
1848.00,0.0074
1847.00,0.0074
1846.00,0.0073
1845.00,0.0073
1844.00,0.0074
1843.00,0.0074
1842.00,0.0074
1841.00,0.0074
1840.00,0.0074
1839.00,0.0074
1838.00,0.0074
1837.00,0.0074
1836.00,0.0074
1835.00,0.0074
1834.00,0.0074
1833.00,0.0074
1832.00,0.0074
1831.00,0.0074
1830.00,0.0074
1829.00,0.0074
1828.00,0.0074
1827.00,0.0073
1826.00,0.0073
1825.00,0.0073
1824.00,0.0073
1823.00,0.0074
1822.00,0.0074
1821.00,0.0074
1820.00,0.0074
1819.00,0.0073
1818.00,0.0072
1817.00,0.0072
1816.00,0.0073
1815.00,0.0073
1814.00,0.0073
1813.00,0.0073
1812.00,0.0073
1811.00,0.0074
1810.00,0.0074
1809.00,0.0074
1808.00,0.0074
1807.00,0.0074
1806.00,0.0074
1805.00,0.0074
1804.00,0.0074
1803.00,0.0074
1802.00,0.0073
1801.00,0.0073
1800.00,0.0073
1799.00,0.0073
1798.00,0.0073
1797.00,0.0073
1796.00,0.0073
1795.00,0.0073
1794.00,0.0073
1793.00,0.0073
1792.00,0.0073
1791.00,0.0074
1790.00,0.0074
1789.00,0.0073
1788.00,0.0073
1787.00,0.0074
1786.00,0.0074
1785.00,0.0073
1784.00,0.0073
1783.00,0.0073
1782.00,0.0073
1781.00,0.0073
1780.00,0.0073
1779.00,0.0073
1778.00,0.0072
1777.00,0.0072
1776.00,0.0072
1775.00,0.0072
1774.00,0.0072
1773.00,0.0073
1772.00,0.0073
1771.00,0.0073
1770.00,0.0072
1769.00,0.0072
1768.00,0.0072
1767.00,0.0073
1766.00,0.0073
1765.00,0.0073
1764.00,0.0073
1763.00,0.0073
1762.00,0.0074
1761.00,0.0074
1760.00,0.0074
1759.00,0.0074
1758.00,0.0075
1757.00,0.0075
1756.00,0.0076
1755.00,0.0077
1754.00,0.0077
1753.00,0.0078
1752.00,0.0079
1751.00,0.0080
1750.00,0.0080
1749.00,0.0080
1748.00,0.0081
1747.00,0.0082
1746.00,0.0083
1745.00,0.0084
1744.00,0.0085
1743.00,0.0087
1742.00,0.0087
1741.00,0.0088
1740.00,0.0089
1739.00,0.0090
1738.00,0.0090
1737.00,0.0090
1736.00,0.0092
1735.00,0.0094
1734.00,0.0096
1733.00,0.0097
1732.00,0.0098
1731.00,0.0097
1730.00,0.0096
1729.00,0.0097
1728.00,0.0098
1727.00,0.0099
1726.00,0.0100
1725.00,0.0101
1724.00,0.0103
1723.00,0.0104
1722.00,0.0105
1721.00,0.0106
1720.00,0.0108
1719.00,0.0110
1718.00,0.0112
1717.00,0.0116
1716.00,0.0119
1715.00,0.0121
1714.00,0.0123
1713.00,0.0125
1712.00,0.0129
1711.00,0.0133
1710.00,0.0137
1709.00,0.0142
1708.00,0.0147
1707.00,0.0153
1706.00,0.0160
1705.00,0.0169
1704.00,0.0179
1703.00,0.0188
1702.00,0.0199
1701.00,0.0215
1700.00,0.0236
1699.00,0.0253
1698.00,0.0267
1697.00,0.0281
1696.00,0.0298
1695.00,0.0314
1694.00,0.0324
1693.00,0.0331
1692.00,0.0338
1691.00,0.0347
1690.00,0.0356
1689.00,0.0366
1688.00,0.0376
1687.00,0.0386
1686.00,0.0396
1685.00,0.0410
1684.00,0.0424
1683.00,0.0435
1682.00,0.0443
1681.00,0.0452
1680.00,0.0463
1679.00,0.0474
1678.00,0.0485
1677.00,0.0495
1676.00,0.0507
1675.00,0.0520
1674.00,0.0532
1673.00,0.0542
1672.00,0.0553
1671.00,0.0565
1670.00,0.0578
1669.00,0.0592
1668.00,0.0605
1667.00,0.0617
1666.00,0.0628
1665.00,0.0640
1664.00,0.0653
1663.00,0.0667
1662.00,0.0680
1661.00,0.0693
1660.00,0.0704
1659.00,0.0716
1658.00,0.0728
1657.00,0.0739
1656.00,0.0750
1655.00,0.0762
1654.00,0.0774
1653.00,0.0785
1652.00,0.0794
1651.00,0.0798
1650.00,0.0801
1649.00,0.0804
1648.00,0.0810
1647.00,0.0816
1646.00,0.0821
1645.00,0.0825
1644.00,0.0830
1643.00,0.0835
1642.00,0.0840
1641.00,0.0846
1640.00,0.0852
1639.00,0.0858
1638.00,0.0864
1637.00,0.0872
1636.00,0.0881
1635.00,0.0890
1634.00,0.0898
1633.00,0.0905
1632.00,0.0914
1631.00,0.0924
1630.00,0.0933
1629.00,0.0941
1628.00,0.0948
1627.00,0.0952
1626.00,0.0955
1625.00,0.0955
1624.00,0.0951
1623.00,0.0943
1622.00,0.0932
1621.00,0.0919
1620.00,0.0907
1619.00,0.0894
1618.00,0.0876
1617.00,0.0850
1616.00,0.0820
1615.00,0.0792
1614.00,0.0768
1613.00,0.0746
1612.00,0.0724
1611.00,0.0701
1610.00,0.0678
1609.00,0.0655
1608.00,0.0634
1607.00,0.0614
1606.00,0.0596
1605.00,0.0579
1604.00,0.0564
1603.00,0.0550
1602.00,0.0536
1601.00,0.0525
1600.00,0.0514
1599.00,0.0504
1598.00,0.0496
1597.00,0.0488
1596.00,0.0481
1595.00,0.0474
1594.00,0.0468
1593.00,0.0463
1592.00,0.0457
1591.00,0.0453
1590.00,0.0449
1589.00,0.0446
1588.00,0.0443
1587.00,0.0440
1586.00,0.0439
1585.00,0.0439
1584.00,0.0438
1583.00,0.0438
1582.00,0.0439
1581.00,0.0441
1580.00,0.0442
1579.00,0.0444
1578.00,0.0448
1577.00,0.0453
1576.00,0.0458
1575.00,0.0462
1574.00,0.0465
1573.00,0.0468
1572.00,0.0471
1571.00,0.0476
1570.00,0.0483
1569.00,0.0490
1568.00,0.0497
1567.00,0.0503
1566.00,0.0511
1565.00,0.0519
1564.00,0.0527
1563.00,0.0534
1562.00,0.0542
1561.00,0.0552
1560.00,0.0562
1559.00,0.0574
1558.00,0.0586
1557.00,0.0594
1556.00,0.0602
1555.00,0.0611
1554.00,0.0623
1553.00,0.0633
1552.00,0.0643
1551.00,0.0652
1550.00,0.0662
1549.00,0.0673
1548.00,0.0682
1547.00,0.0691
1546.00,0.0700
1545.00,0.0709
1544.00,0.0718
1543.00,0.0725
1542.00,0.0733
1541.00,0.0742
1540.00,0.0752
1539.00,0.0760
1538.00,0.0766
1537.00,0.0770
1536.00,0.0773
1535.00,0.0778
1534.00,0.0783
1533.00,0.0787
1532.00,0.0790
1531.00,0.0794
1530.00,0.0797
1529.00,0.0800
1528.00,0.0802
1527.00,0.0804
1526.00,0.0805
1525.00,0.0805
1524.00,0.0806
1523.00,0.0807
1522.00,0.0809
1521.00,0.0810
1520.00,0.0811
1519.00,0.0811
1518.00,0.0812
1517.00,0.0812
1516.00,0.0811
1515.00,0.0808
1514.00,0.0803
1513.00,0.0797
1512.00,0.0789
1511.00,0.0779
1510.00,0.0769
1509.00,0.0759
1508.00,0.0746
1507.00,0.0727
1506.00,0.0706
1505.00,0.0688
1504.00,0.0676
1503.00,0.0665
1502.00,0.0654
1501.00,0.0642
1500.00,0.0630
1499.00,0.0617
1498.00,0.0604
1497.00,0.0590
1496.00,0.0575
1495.00,0.0562
1494.00,0.0549
1493.00,0.0537
1492.00,0.0525
1491.00,0.0512
1490.00,0.0499
1489.00,0.0485
1488.00,0.0474
1487.00,0.0464
1486.00,0.0455
1485.00,0.0447
1484.00,0.0440
1483.00,0.0433
1482.00,0.0427
1481.00,0.0421
1480.00,0.0416
1479.00,0.0413
1478.00,0.0410
1477.00,0.0408
1476.00,0.0407
1475.00,0.0406
1474.00,0.0407
1473.00,0.0410
1472.00,0.0415
1471.00,0.0420
1470.00,0.0424
1469.00,0.0427
1468.00,0.0429
1467.00,0.0430
1466.00,0.0430
1465.00,0.0429
1464.00,0.0428
1463.00,0.0428
1462.00,0.0429
1461.00,0.0431
1460.00,0.0433
1459.00,0.0436
1458.00,0.0441
1457.00,0.0447
1456.00,0.0452
1455.00,0.0455
1454.00,0.0456
1453.00,0.0457
1452.00,0.0457
1451.00,0.0458
1450.00,0.0457
1449.00,0.0456
1448.00,0.0456
1447.00,0.0455
1446.00,0.0454
1445.00,0.0453
1444.00,0.0451
1443.00,0.0450
1442.00,0.0448
1441.00,0.0446
1440.00,0.0445
1439.00,0.0443
1438.00,0.0440
1437.00,0.0437
1436.00,0.0432
1435.00,0.0427
1434.00,0.0423
1433.00,0.0419
1432.00,0.0415
1431.00,0.0411
1430.00,0.0407
1429.00,0.0404
1428.00,0.0401
1427.00,0.0399
1426.00,0.0398
1425.00,0.0397
1424.00,0.0397
1423.00,0.0398
1422.00,0.0399
1421.00,0.0401
1420.00,0.0403
1419.00,0.0405
1418.00,0.0408
1417.00,0.0410
1416.00,0.0411
1415.00,0.0414
1414.00,0.0416
1413.00,0.0418
1412.00,0.0421
1411.00,0.0423
1410.00,0.0426
1409.00,0.0428
1408.00,0.0430
1407.00,0.0433
1406.00,0.0435
1405.00,0.0436
1404.00,0.0438
1403.00,0.0440
1402.00,0.0441
1401.00,0.0442
1400.00,0.0443
1399.00,0.0443
1398.00,0.0444
1397.00,0.0444
1396.00,0.0445
1395.00,0.0445
1394.00,0.0445
1393.00,0.0445
1392.00,0.0446
1391.00,0.0447
1390.00,0.0447
1389.00,0.0447
1388.00,0.0445
1387.00,0.0443
1386.00,0.0440
1385.00,0.0437
1384.00,0.0432
1383.00,0.0428
1382.00,0.0424
1381.00,0.0420
1380.00,0.0417
1379.00,0.0414
1378.00,0.0411
1377.00,0.0409
1376.00,0.0406
1375.00,0.0404
1374.00,0.0403
1373.00,0.0402
1372.00,0.0401
1371.00,0.0401
1370.00,0.0401
1369.00,0.0401
1368.00,0.0400
1367.00,0.0398
1366.00,0.0396
1365.00,0.0393
1364.00,0.0390
1363.00,0.0387
1362.00,0.0384
1361.00,0.0381
1360.00,0.0379
1359.00,0.0378
1358.00,0.0376
1357.00,0.0375
1356.00,0.0375
1355.00,0.0374
1354.00,0.0374
1353.00,0.0374
1352.00,0.0374
1351.00,0.0374
1350.00,0.0373
1349.00,0.0374
1348.00,0.0374
1347.00,0.0374
1346.00,0.0374
1345.00,0.0374
1344.00,0.0373
1343.00,0.0373
1342.00,0.0373
1341.00,0.0373
1340.00,0.0373
1339.00,0.0373
1338.00,0.0372
1337.00,0.0372
1336.00,0.0371
1335.00,0.0371
1334.00,0.0370
1333.00,0.0369
1332.00,0.0369
1331.00,0.0369
1330.00,0.0368
1329.00,0.0368
1328.00,0.0368
1327.00,0.0368
1326.00,0.0369
1325.00,0.0369
1324.00,0.0369
1323.00,0.0370
1322.00,0.0370
1321.00,0.0371
1320.00,0.0372
1319.00,0.0373
1318.00,0.0374
1317.00,0.0375
1316.00,0.0376
1315.00,0.0377
1314.00,0.0377
1313.00,0.0378
1312.00,0.0378
1311.00,0.0379
1310.00,0.0379
1309.00,0.0379
1308.00,0.0379
1307.00,0.0379
1306.00,0.0378
1305.00,0.0378
1304.00,0.0378
1303.00,0.0378
1302.00,0.0378
1301.00,0.0378
1300.00,0.0378
1299.00,0.0378
1298.00,0.0378
1297.00,0.0378
1296.00,0.0378
1295.00,0.0379
1294.00,0.0379
1293.00,0.0379
1292.00,0.0380
1291.00,0.0381
1290.00,0.0381
1289.00,0.0382
1288.00,0.0382
1287.00,0.0383
1286.00,0.0384
1285.00,0.0384
1284.00,0.0384
1283.00,0.0385
1282.00,0.0385
1281.00,0.0385
1280.00,0.0384
1279.00,0.0384
1278.00,0.0383
1277.00,0.0383
1276.00,0.0383
1275.00,0.0382
1274.00,0.0382
1273.00,0.0381
1272.00,0.0381
1271.00,0.0381
1270.00,0.0381
1269.00,0.0381
1268.00,0.0382
1267.00,0.0383
1266.00,0.0384
1265.00,0.0386
1264.00,0.0388
1263.00,0.0391
1262.00,0.0394
1261.00,0.0397
1260.00,0.0401
1259.00,0.0404
1258.00,0.0408
1257.00,0.0412
1256.00,0.0415
1255.00,0.0419
1254.00,0.0422
1253.00,0.0425
1252.00,0.0429
1251.00,0.0433
1250.00,0.0438
1249.00,0.0443
1248.00,0.0448
1247.00,0.0453
1246.00,0.0457
1245.00,0.0461
1244.00,0.0464
1243.00,0.0467
1242.00,0.0470
1241.00,0.0472
1240.00,0.0475
1239.00,0.0477
1238.00,0.0479
1237.00,0.0481
1236.00,0.0483
1235.00,0.0484
1234.00,0.0486
1233.00,0.0487
1232.00,0.0488
1231.00,0.0489
1230.00,0.0489
1229.00,0.0488
1228.00,0.0488
1227.00,0.0488
1226.00,0.0487
1225.00,0.0486
1224.00,0.0484
1223.00,0.0482
1222.00,0.0480
1221.00,0.0477
1220.00,0.0474
1219.00,0.0470
1218.00,0.0467
1217.00,0.0463
1216.00,0.0459
1215.00,0.0454
1214.00,0.0450
1213.00,0.0445
1212.00,0.0440
1211.00,0.0435
1210.00,0.0430
1209.00,0.0425
1208.00,0.0420
1207.00,0.0415
1206.00,0.0411
1205.00,0.0406
1204.00,0.0401
1203.00,0.0397
1202.00,0.0392
1201.00,0.0387
1200.00,0.0383
1199.00,0.0379
1198.00,0.0376
1197.00,0.0372
1196.00,0.0369
1195.00,0.0366
1194.00,0.0363
1193.00,0.0360
1192.00,0.0357
1191.00,0.0354
1190.00,0.0351
1189.00,0.0349
1188.00,0.0347
1187.00,0.0345
1186.00,0.0343
1185.00,0.0341
1184.00,0.0338
1183.00,0.0336
1182.00,0.0334
1181.00,0.0333
1180.00,0.0331
1179.00,0.0331
1178.00,0.0330
1177.00,0.0330
1176.00,0.0331
1175.00,0.0333
1174.00,0.0335
1173.00,0.0337
1172.00,0.0338
1171.00,0.0340
1170.00,0.0341
1169.00,0.0342
1168.00,0.0344
1167.00,0.0346
1166.00,0.0348
1165.00,0.0351
1164.00,0.0354
1163.00,0.0357
1162.00,0.0361
1161.00,0.0364
1160.00,0.0368
1159.00,0.0371
1158.00,0.0374
1157.00,0.0377
1156.00,0.0379
1155.00,0.0380
1154.00,0.0381
1153.00,0.0381
1152.00,0.0381
1151.00,0.0381
1150.00,0.0380
1149.00,0.0379
1148.00,0.0378
1147.00,0.0377
1146.00,0.0375
1145.00,0.0373
1144.00,0.0371
1143.00,0.0370
1142.00,0.0368
1141.00,0.0366
1140.00,0.0365
1139.00,0.0364
1138.00,0.0363
1137.00,0.0363
1136.00,0.0363
1135.00,0.0364
1134.00,0.0366
1133.00,0.0367
1132.00,0.0369
1131.00,0.0371
1130.00,0.0373
1129.00,0.0376
1128.00,0.0379
1127.00,0.0382
1126.00,0.0384
1125.00,0.0386
1124.00,0.0388
1123.00,0.0390
1122.00,0.0392
1121.00,0.0395
1120.00,0.0397
1119.00,0.0399
1118.00,0.0402
1117.00,0.0404
1116.00,0.0406
1115.00,0.0409
1114.00,0.0411
1113.00,0.0413
1112.00,0.0415
1111.00,0.0418
1110.00,0.0420
1109.00,0.0422
1108.00,0.0424
1107.00,0.0427
1106.00,0.0429
1105.00,0.0431
1104.00,0.0433
1103.00,0.0435
1102.00,0.0437
1101.00,0.0438
1100.00,0.0440
1099.00,0.0441
1098.00,0.0443
1097.00,0.0445
1096.00,0.0448
1095.00,0.0451
1094.00,0.0454
1093.00,0.0458
1092.00,0.0463
1091.00,0.0467
1090.00,0.0472
1089.00,0.0478
1088.00,0.0484
1087.00,0.0490
1086.00,0.0497
1085.00,0.0503
1084.00,0.0509
1083.00,0.0514
1082.00,0.0518
1081.00,0.0522
1080.00,0.0525
1079.00,0.0527
1078.00,0.0527
1077.00,0.0526
1076.00,0.0525
1075.00,0.0522
1074.00,0.0519
1073.00,0.0515
1072.00,0.0512
1071.00,0.0510
1070.00,0.0508
1069.00,0.0506
1068.00,0.0506
1067.00,0.0507
1066.00,0.0508
1065.00,0.0510
1064.00,0.0512
1063.00,0.0515
1062.00,0.0517
1061.00,0.0520
1060.00,0.0523
1059.00,0.0527
1058.00,0.0530
1057.00,0.0532
1056.00,0.0535
1055.00,0.0538
1054.00,0.0540
1053.00,0.0542
1052.00,0.0544
1051.00,0.0546
1050.00,0.0547
1049.00,0.0548
1048.00,0.0548
1047.00,0.0549
1046.00,0.0550
1045.00,0.0552
1044.00,0.0553
1043.00,0.0554
1042.00,0.0555
1041.00,0.0555
1040.00,0.0556
1039.00,0.0556
1038.00,0.0556
1037.00,0.0556
1036.00,0.0557
1035.00,0.0558
1034.00,0.0559
1033.00,0.0560
1032.00,0.0561
1031.00,0.0561
1030.00,0.0562
1029.00,0.0563
1028.00,0.0563
1027.00,0.0563
1026.00,0.0562
1025.00,0.0560
1024.00,0.0559
1023.00,0.0556
1022.00,0.0552
1021.00,0.0547
1020.00,0.0542
1019.00,0.0537
1018.00,0.0532
1017.00,0.0526
1016.00,0.0521
1015.00,0.0515
1014.00,0.0509
1013.00,0.0503
1012.00,0.0497
1011.00,0.0492
1010.00,0.0486
1009.00,0.0480
1008.00,0.0475
1007.00,0.0470
1006.00,0.0466
1005.00,0.0462
1004.00,0.0459
1003.00,0.0455
1002.00,0.0452
1001.00,0.0448
1000.00,0.0444
999.00,0.0440
998.00,0.0435
997.00,0.0431
996.00,0.0426
995.00,0.0421
994.00,0.0416
993.00,0.0411
992.00,0.0406
991.00,0.0400
990.00,0.0395
989.00,0.0389
988.00,0.0383
987.00,0.0377
986.00,0.0372
985.00,0.0366
984.00,0.0360
983.00,0.0355
982.00,0.0351
981.00,0.0346
980.00,0.0342
979.00,0.0339
978.00,0.0335
977.00,0.0332
976.00,0.0329
975.00,0.0326
974.00,0.0324
973.00,0.0321
972.00,0.0318
971.00,0.0316
970.00,0.0314
969.00,0.0313
968.00,0.0312
967.00,0.0311
966.00,0.0310
965.00,0.0309
964.00,0.0309
963.00,0.0309
962.00,0.0309
961.00,0.0308
960.00,0.0307
959.00,0.0305
958.00,0.0304
957.00,0.0302
956.00,0.0302
955.00,0.0301
954.00,0.0301
953.00,0.0301
952.00,0.0302
951.00,0.0302
950.00,0.0303
949.00,0.0304
948.00,0.0304
947.00,0.0305
946.00,0.0306
945.00,0.0306
944.00,0.0307
943.00,0.0307
942.00,0.0308
941.00,0.0309
940.00,0.0311
939.00,0.0314
938.00,0.0316
937.00,0.0318
936.00,0.0321
935.00,0.0323
934.00,0.0325
933.00,0.0326
932.00,0.0328
931.00,0.0329
930.00,0.0329
929.00,0.0329
928.00,0.0329
927.00,0.0329
926.00,0.0328
925.00,0.0328
924.00,0.0328
923.00,0.0327
922.00,0.0327
921.00,0.0327
920.00,0.0326
919.00,0.0324
918.00,0.0322
917.00,0.0321
916.00,0.0320
915.00,0.0319
914.00,0.0318
913.00,0.0317
912.00,0.0315
911.00,0.0314
910.00,0.0313
909.00,0.0312
908.00,0.0311
907.00,0.0310
906.00,0.0309
905.00,0.0308
904.00,0.0308
903.00,0.0307
902.00,0.0306
901.00,0.0306
900.00,0.0305
899.00,0.0305
898.00,0.0305
897.00,0.0304
896.00,0.0304
895.00,0.0304
894.00,0.0304
893.00,0.0303
892.00,0.0304
891.00,0.0304
890.00,0.0304
889.00,0.0305
888.00,0.0305
887.00,0.0305
886.00,0.0305
885.00,0.0305
884.00,0.0304
883.00,0.0304
882.00,0.0304
881.00,0.0303
880.00,0.0303
879.00,0.0303
878.00,0.0303
877.00,0.0303
876.00,0.0303
875.00,0.0302
874.00,0.0302
873.00,0.0302
872.00,0.0302
871.00,0.0303
870.00,0.0303
869.00,0.0304
868.00,0.0304
867.00,0.0305
866.00,0.0307
865.00,0.0308
864.00,0.0308
863.00,0.0309
862.00,0.0310
861.00,0.0312
860.00,0.0313
859.00,0.0314
858.00,0.0316
857.00,0.0317
856.00,0.0318
855.00,0.0320
854.00,0.0322
853.00,0.0323
852.00,0.0324
851.00,0.0325
850.00,0.0325
849.00,0.0326
848.00,0.0326
847.00,0.0327
846.00,0.0327
845.00,0.0328
844.00,0.0329
843.00,0.0330
842.00,0.0331
841.00,0.0332
840.00,0.0333
839.00,0.0334
838.00,0.0335
837.00,0.0337
836.00,0.0338
835.00,0.0340
834.00,0.0342
833.00,0.0343
832.00,0.0345
831.00,0.0346
830.00,0.0347
829.00,0.0348
828.00,0.0349
827.00,0.0349
826.00,0.0349
825.00,0.0349
824.00,0.0349
823.00,0.0348
822.00,0.0348
821.00,0.0348
820.00,0.0348
819.00,0.0348
818.00,0.0349
817.00,0.0349
816.00,0.0350
815.00,0.0351
814.00,0.0352
813.00,0.0353
812.00,0.0354
811.00,0.0355
810.00,0.0355
809.00,0.0356
808.00,0.0357
807.00,0.0358
806.00,0.0359
805.00,0.0361
804.00,0.0362
803.00,0.0364
802.00,0.0366
801.00,0.0368
800.00,0.0370
799.00,0.0372
798.00,0.0375
797.00,0.0377
796.00,0.0379
795.00,0.0381
794.00,0.0383
793.00,0.0385
792.00,0.0388
791.00,0.0390
790.00,0.0393
789.00,0.0395
788.00,0.0398
787.00,0.0401
786.00,0.0403
785.00,0.0407
784.00,0.0410
783.00,0.0414
782.00,0.0417
781.00,0.0419
780.00,0.0421
779.00,0.0423
778.00,0.0424
777.00,0.0425
776.00,0.0426
775.00,0.0427
774.00,0.0428
773.00,0.0429
772.00,0.0431
771.00,0.0432
770.00,0.0433
769.00,0.0435
768.00,0.0437
767.00,0.0438
766.00,0.0440
765.00,0.0442
764.00,0.0444
763.00,0.0446
762.00,0.0448
761.00,0.0450
760.00,0.0451
759.00,0.0453
758.00,0.0454
757.00,0.0455
756.00,0.0456
755.00,0.0458
754.00,0.0461
753.00,0.0464
752.00,0.0467
751.00,0.0469
750.00,0.0472
749.00,0.0474
748.00,0.0477
747.00,0.0478
746.00,0.0480
745.00,0.0481
744.00,0.0483
743.00,0.0485
742.00,0.0486
741.00,0.0488
740.00,0.0489
739.00,0.0491
738.00,0.0492
737.00,0.0494
736.00,0.0496
735.00,0.0497
734.00,0.0499
733.00,0.0501
732.00,0.0503
731.00,0.0506
730.00,0.0509
729.00,0.0512
728.00,0.0516
727.00,0.0520
726.00,0.0525
725.00,0.0530
724.00,0.0535
723.00,0.0539
722.00,0.0543
721.00,0.0547
720.00,0.0551
719.00,0.0555
718.00,0.0559
717.00,0.0564
716.00,0.0569
715.00,0.0573
714.00,0.0577
713.00,0.0581
712.00,0.0586
711.00,0.0591
710.00,0.0595
709.00,0.0600
708.00,0.0605
707.00,0.0610
706.00,0.0616
705.00,0.0621
704.00,0.0626
703.00,0.0631
702.00,0.0635
701.00,0.0639
700.00,0.0642
699.00,0.0645
698.00,0.0646
697.00,0.0647
696.00,0.0646
695.00,0.0646
694.00,0.0645
693.00,0.0644
692.00,0.0644
691.00,0.0644
690.00,0.0644
689.00,0.0644
688.00,0.0644
687.00,0.0645
686.00,0.0647
685.00,0.0648
684.00,0.0649
683.00,0.0651
682.00,0.0651
681.00,0.0652
680.00,0.0653
679.00,0.0654
678.00,0.0656
677.00,0.0657
676.00,0.0659
675.00,0.0661
674.00,0.0662
673.00,0.0663
672.00,0.0664
671.00,0.0666
670.00,0.0668
669.00,0.0671
668.00,0.0675
667.00,0.0679
666.00,0.0681
665.00,0.0681
664.00,0.0682
663.00,0.0682
662.00,0.0683
661.00,0.0685
660.00,0.0686
659.00,0.0688
658.00,0.0689
657.00,0.0690
656.00,0.0690
655.00,0.0691
654.00,0.0692
653.00,0.0693
652.00,0.0694
651.00,0.0694
650.00,0.0695
649.00,0.0696
648.00,0.0698
647.00,0.0700
646.00,0.0702
645.00,0.0704
644.00,0.0705
643.00,0.0706
642.00,0.0706
641.00,0.0706
640.00,0.0707
639.00,0.0708
638.00,0.0709
637.00,0.0710
636.00,0.0711
635.00,0.0711
634.00,0.0713
633.00,0.0715
632.00,0.0717
631.00,0.0720
630.00,0.0722
629.00,0.0724
628.00,0.0725
627.00,0.0727
626.00,0.0728
625.00,0.0729
624.00,0.0732
623.00,0.0734
622.00,0.0736
621.00,0.0738
620.00,0.0740
619.00,0.0741
618.00,0.0741
617.00,0.0742
616.00,0.0742
615.00,0.0743
614.00,0.0744
613.00,0.0746
612.00,0.0747
611.00,0.0747
610.00,0.0748
609.00,0.0749
608.00,0.0750
607.00,0.0750
606.00,0.0751
605.00,0.0751
604.00,0.0753
603.00,0.0754
602.00,0.0755
601.00,0.0755
600.00,0.0756
599.00,0.0757
598.00,0.0758
597.00,0.0759
596.00,0.0760
595.00,0.0762
594.00,0.0763
593.00,0.0763
592.00,0.0765
591.00,0.0766
590.00,0.0768
589.00,0.0770
588.00,0.0771
587.00,0.0773
586.00,0.0774
585.00,0.0776
584.00,0.0778
583.00,0.0781
582.00,0.0784
581.00,0.0787
580.00,0.0790
579.00,0.0793
578.00,0.0795
577.00,0.0796
576.00,0.0797
575.00,0.0798
574.00,0.0798
573.00,0.0799
572.00,0.0800
571.00,0.0800
570.00,0.0800
569.00,0.0801
568.00,0.0802
567.00,0.0803
566.00,0.0804
565.00,0.0805
564.00,0.0806
563.00,0.0808
562.00,0.0808
561.00,0.0809
560.00,0.0811
559.00,0.0812
558.00,0.0813
557.00,0.0814
556.00,0.0815
555.00,0.0816
554.00,0.0817
553.00,0.0818
552.00,0.0819
551.00,0.0819
550.00,0.0820
549.00,0.0822
548.00,0.0825
547.00,0.0828
546.00,0.0830
545.00,0.0830
544.00,0.0830
543.00,0.0830
542.00,0.0829
541.00,0.0830
540.00,0.0831
539.00,0.0833
538.00,0.0835
537.00,0.0837
536.00,0.0840
535.00,0.0843
534.00,0.0844
533.00,0.0845
532.00,0.0846
531.00,0.0847
530.00,0.0848
529.00,0.0849
528.00,0.0850
527.00,0.0851
526.00,0.0852
525.00,0.0853
524.00,0.0854
523.00,0.0854
522.00,0.0855
521.00,0.0854
520.00,0.0854
519.00,0.0853
518.00,0.0851
517.00,0.0850
516.00,0.0849
515.00,0.0849
514.00,0.0848
513.00,0.0847
512.00,0.0847
511.00,0.0845
510.00,0.0843
509.00,0.0841
508.00,0.0840
507.00,0.0840
506.00,0.0841
505.00,0.0841
504.00,0.0840
503.00,0.0838
502.00,0.0836
501.00,0.0835
500.00,0.0838
499.00,0.0841
498.00,0.0843
497.00,0.0843
496.00,0.0843
495.00,0.0844
494.00,0.0844
493.00,0.0844
492.00,0.0844
491.00,0.0843
490.00,0.0841
489.00,0.0836
488.00,0.0833
487.00,0.0830
486.00,0.0828
485.00,0.0827
484.00,0.0828
483.00,0.0829
482.00,0.0830
481.00,0.0828
480.00,0.0827
479.00,0.0826
478.00,0.0826
477.00,0.0827
476.00,0.0828
475.00,0.0827
474.00,0.0824
473.00,0.0822
472.00,0.0823
471.00,0.0823
470.00,0.0821
469.00,0.0818
468.00,0.0816
467.00,0.0815
466.00,0.0814
465.00,0.0814
464.00,0.0815
463.00,0.0817
462.00,0.0819
461.00,0.0820
460.00,0.0819
459.00,0.0815
458.00,0.0809
457.00,0.0804
456.00,0.0803
455.00,0.0804
454.00,0.0803
453.00,0.0800
452.00,0.0796
451.00,0.0792
450.00,0.0789
449.00,0.0788
448.00,0.0789
447.00,0.0789
446.00,0.0786
445.00,0.0782
444.00,0.0778
443.00,0.0774
442.00,0.0770
441.00,0.0767
440.00,0.0766
439.00,0.0768
438.00,0.0770
437.00,0.0771
436.00,0.0771
435.00,0.0767
434.00,0.0763
433.00,0.0763
432.00,0.0767
431.00,0.0769
430.00,0.0767
429.00,0.0761
428.00,0.0756
427.00,0.0754
426.00,0.0753
425.00,0.0753
424.00,0.0753
423.00,0.0753
422.00,0.0751
421.00,0.0752
420.00,0.0753
419.00,0.0751
418.00,0.0743
417.00,0.0736
416.00,0.0736
415.00,0.0740
414.00,0.0743
413.00,0.0743
412.00,0.0740
411.00,0.0734
410.00,0.0726
409.00,0.0723
408.00,0.0725
407.00,0.0728
406.00,0.0725
405.00,0.0718
404.00,0.0711
403.00,0.0707
402.00,0.0706
401.00,0.0704
400.00,0.0704
