Created as New Dataset,Sample 1099 By YargerLab Date Saturday, September 26 2026
cm-1,A
4000.00,0.0079
3999.00,0.0079
3998.00,0.0079
3997.00,0.0079
3996.00,0.0079
3995.00,0.0079
3994.00,0.0079
3993.00,0.0079
3992.00,0.0079
3991.00,0.0079
3990.00,0.0079
3989.00,0.0079
3988.00,0.0079
3987.00,0.0079
3986.00,0.0079
3985.00,0.0079
3984.00,0.0079
3983.00,0.0079
3982.00,0.0079
3981.00,0.0079
3980.00,0.0079
3979.00,0.0079
3978.00,0.0079
3977.00,0.0079
3976.00,0.0079
3975.00,0.0079
3974.00,0.0079
3973.00,0.0079
3972.00,0.0079
3971.00,0.0079
3970.00,0.0079
3969.00,0.0079
3968.00,0.0079
3967.00,0.0079
3966.00,0.0079
3965.00,0.0079
3964.00,0.0078
3963.00,0.0079
3962.00,0.0079
3961.00,0.0079
3960.00,0.0079
3959.00,0.0079
3958.00,0.0079
3957.00,0.0079
3956.00,0.0079
3955.00,0.0079
3954.00,0.0079
3953.00,0.0078
3952.00,0.0078
3951.00,0.0078
3950.00,0.0078
3949.00,0.0079
3948.00,0.0079
3947.00,0.0079
3946.00,0.0079
3945.00,0.0079
3944.00,0.0078
3943.00,0.0078
3942.00,0.0078
3941.00,0.0078
3940.00,0.0079
3939.00,0.0079
3938.00,0.0079
3937.00,0.0079
3936.00,0.0079
3935.00,0.0079
3934.00,0.0079
3933.00,0.0078
3932.00,0.0078
3931.00,0.0078
3930.00,0.0078
3929.00,0.0078
3928.00,0.0078
3927.00,0.0078
3926.00,0.0078
3925.00,0.0078
3924.00,0.0078
3923.00,0.0078
3922.00,0.0078
3921.00,0.0078
3920.00,0.0078
3919.00,0.0078
3918.00,0.0078
3917.00,0.0078
3916.00,0.0078
3915.00,0.0078
3914.00,0.0078
3913.00,0.0078
3912.00,0.0078
3911.00,0.0078
3910.00,0.0078
3909.00,0.0078
3908.00,0.0078
3907.00,0.0078
3906.00,0.0078
3905.00,0.0078
3904.00,0.0078
3903.00,0.0078
3902.00,0.0077
3901.00,0.0077
3900.00,0.0077
3899.00,0.0077
3898.00,0.0077
3897.00,0.0077
3896.00,0.0077
3895.00,0.0077
3894.00,0.0077
3893.00,0.0077
3892.00,0.0077
3891.00,0.0077
3890.00,0.0077
3889.00,0.0077
3888.00,0.0077
3887.00,0.0077
3886.00,0.0077
3885.00,0.0077
3884.00,0.0077
3883.00,0.0076
3882.00,0.0076
3881.00,0.0076
3880.00,0.0076
3879.00,0.0076
3878.00,0.0077
3877.00,0.0077
3876.00,0.0077
3875.00,0.0077
3874.00,0.0077
3873.00,0.0077
3872.00,0.0077
3871.00,0.0077
3870.00,0.0077
3869.00,0.0077
3868.00,0.0077
3867.00,0.0077
3866.00,0.0077
3865.00,0.0076
3864.00,0.0076
3863.00,0.0076
3862.00,0.0077
3861.00,0.0077
3860.00,0.0077
3859.00,0.0077
3858.00,0.0077
3857.00,0.0077
3856.00,0.0077
3855.00,0.0077
3854.00,0.0077
3853.00,0.0077
3852.00,0.0077
3851.00,0.0077
3850.00,0.0076
3849.00,0.0076
3848.00,0.0076
3847.00,0.0076
3846.00,0.0076
3845.00,0.0076
3844.00,0.0076
3843.00,0.0076
3842.00,0.0076
3841.00,0.0076
3840.00,0.0076
3839.00,0.0076
3838.00,0.0076
3837.00,0.0076
3836.00,0.0076
3835.00,0.0075
3834.00,0.0075
3833.00,0.0075
3832.00,0.0075
3831.00,0.0076
3830.00,0.0076
3829.00,0.0076
3828.00,0.0076
3827.00,0.0076
3826.00,0.0076
3825.00,0.0076
3824.00,0.0076
3823.00,0.0076
3822.00,0.0076
3821.00,0.0076
3820.00,0.0076
3819.00,0.0076
3818.00,0.0076
3817.00,0.0076
3816.00,0.0076
3815.00,0.0076
3814.00,0.0076
3813.00,0.0076
3812.00,0.0075
3811.00,0.0075
3810.00,0.0075
3809.00,0.0076
3808.00,0.0076
3807.00,0.0076
3806.00,0.0076
3805.00,0.0076
3804.00,0.0075
3803.00,0.0075
3802.00,0.0075
3801.00,0.0075
3800.00,0.0076
3799.00,0.0076
3798.00,0.0076
3797.00,0.0075
3796.00,0.0075
3795.00,0.0075
3794.00,0.0075
3793.00,0.0075
3792.00,0.0075
3791.00,0.0075
3790.00,0.0075
3789.00,0.0075
3788.00,0.0075
3787.00,0.0075
3786.00,0.0075
3785.00,0.0075
3784.00,0.0075
3783.00,0.0076
3782.00,0.0076
3781.00,0.0075
3780.00,0.0075
3779.00,0.0075
3778.00,0.0075
3777.00,0.0075
3776.00,0.0075
3775.00,0.0075
3774.00,0.0075
3773.00,0.0075
3772.00,0.0075
3771.00,0.0075
3770.00,0.0075
3769.00,0.0075
3768.00,0.0075
3767.00,0.0074
3766.00,0.0074
3765.00,0.0075
3764.00,0.0075
3763.00,0.0075
3762.00,0.0075
3761.00,0.0075
3760.00,0.0075
3759.00,0.0075
3758.00,0.0075
3757.00,0.0074
3756.00,0.0074
3755.00,0.0074
3754.00,0.0075
3753.00,0.0075
3752.00,0.0075
3751.00,0.0074
3750.00,0.0074
3749.00,0.0074
3748.00,0.0074
3747.00,0.0074
3746.00,0.0074
3745.00,0.0074
3744.00,0.0074
3743.00,0.0074
3742.00,0.0074
3741.00,0.0073
3740.00,0.0073
3739.00,0.0073
3738.00,0.0073
3737.00,0.0072
3736.00,0.0072
3735.00,0.0072
3734.00,0.0072
3733.00,0.0072
3732.00,0.0072
3731.00,0.0072
3730.00,0.0072
3729.00,0.0072
3728.00,0.0072
3727.00,0.0071
3726.00,0.0071
3725.00,0.0072
3724.00,0.0072
3723.00,0.0072
3722.00,0.0072
3721.00,0.0072
3720.00,0.0072
3719.00,0.0072
3718.00,0.0072
3717.00,0.0072
3716.00,0.0073
3715.00,0.0073
3714.00,0.0073
3713.00,0.0073
3712.00,0.0072
3711.00,0.0072
3710.00,0.0071
3709.00,0.0071
3708.00,0.0071
3707.00,0.0071
3706.00,0.0071
3705.00,0.0071
3704.00,0.0071
3703.00,0.0071
3702.00,0.0071
3701.00,0.0071
3700.00,0.0071
3699.00,0.0071
3698.00,0.0071
3697.00,0.0071
3696.00,0.0071
3695.00,0.0071
3694.00,0.0071
3693.00,0.0071
3692.00,0.0071
3691.00,0.0070
3690.00,0.0070
3689.00,0.0070
3688.00,0.0070
3687.00,0.0070
3686.00,0.0070
3685.00,0.0069
3684.00,0.0069
3683.00,0.0069
3682.00,0.0069
3681.00,0.0068
3680.00,0.0068
3679.00,0.0068
3678.00,0.0067
3677.00,0.0067
3676.00,0.0066
3675.00,0.0066
3674.00,0.0066
3673.00,0.0066
3672.00,0.0066
3671.00,0.0065
3670.00,0.0065
3669.00,0.0065
3668.00,0.0066
3667.00,0.0066
3666.00,0.0066
3665.00,0.0066
3664.00,0.0065
3663.00,0.0065
3662.00,0.0065
3661.00,0.0065
3660.00,0.0065
3659.00,0.0066
3658.00,0.0066
3657.00,0.0066
3656.00,0.0066
3655.00,0.0067
3654.00,0.0067
3653.00,0.0068
3652.00,0.0068
3651.00,0.0068
3650.00,0.0068
3649.00,0.0068
3648.00,0.0068
3647.00,0.0069
3646.00,0.0070
3645.00,0.0070
3644.00,0.0070
3643.00,0.0071
3642.00,0.0071
3641.00,0.0072
3640.00,0.0073
3639.00,0.0073
3638.00,0.0074
3637.00,0.0074
3636.00,0.0075
3635.00,0.0076
3634.00,0.0078
3633.00,0.0079
3632.00,0.0080
3631.00,0.0080
3630.00,0.0080
3629.00,0.0081
3628.00,0.0081
3627.00,0.0082
3626.00,0.0083
3625.00,0.0083
3624.00,0.0084
3623.00,0.0084
3622.00,0.0085
3621.00,0.0085
3620.00,0.0086
3619.00,0.0086
3618.00,0.0087
3617.00,0.0087
3616.00,0.0088
3615.00,0.0088
3614.00,0.0089
3613.00,0.0089
3612.00,0.0090
3611.00,0.0091
3610.00,0.0092
3609.00,0.0093
3608.00,0.0093
3607.00,0.0093
3606.00,0.0094
3605.00,0.0094
3604.00,0.0095
3603.00,0.0095
3602.00,0.0095
3601.00,0.0095
3600.00,0.0096
3599.00,0.0096
3598.00,0.0096
3597.00,0.0096
3596.00,0.0097
3595.00,0.0097
3594.00,0.0098
3593.00,0.0098
3592.00,0.0099
3591.00,0.0100
3590.00,0.0100
3589.00,0.0101
3588.00,0.0101
3587.00,0.0102
3586.00,0.0102
3585.00,0.0103
3584.00,0.0103
3583.00,0.0104
3582.00,0.0105
3581.00,0.0105
3580.00,0.0106
3579.00,0.0106
3578.00,0.0107
3577.00,0.0108
3576.00,0.0108
3575.00,0.0109
3574.00,0.0110
3573.00,0.0110
3572.00,0.0111
3571.00,0.0111
3570.00,0.0112
3569.00,0.0113
3568.00,0.0113
3567.00,0.0114
3566.00,0.0114
3565.00,0.0115
3564.00,0.0116
3563.00,0.0116
3562.00,0.0117
3561.00,0.0117
3560.00,0.0118
3559.00,0.0119
3558.00,0.0119
3557.00,0.0120
3556.00,0.0121
3555.00,0.0121
3554.00,0.0122
3553.00,0.0123
3552.00,0.0123
3551.00,0.0124
3550.00,0.0124
3549.00,0.0125
3548.00,0.0126
3547.00,0.0127
3546.00,0.0128
3545.00,0.0128
3544.00,0.0129
3543.00,0.0129
3542.00,0.0130
3541.00,0.0130
3540.00,0.0131
3539.00,0.0132
3538.00,0.0133
3537.00,0.0133
3536.00,0.0134
3535.00,0.0134
3534.00,0.0135
3533.00,0.0135
3532.00,0.0136
3531.00,0.0136
3530.00,0.0137
3529.00,0.0138
3528.00,0.0138
3527.00,0.0139
3526.00,0.0140
3525.00,0.0140
3524.00,0.0141
3523.00,0.0141
3522.00,0.0142
3521.00,0.0142
3520.00,0.0143
3519.00,0.0144
3518.00,0.0145
3517.00,0.0145
3516.00,0.0146
3515.00,0.0147
3514.00,0.0147
3513.00,0.0148
3512.00,0.0148
3511.00,0.0149
3510.00,0.0150
3509.00,0.0150
3508.00,0.0151
3507.00,0.0151
3506.00,0.0152
3505.00,0.0153
3504.00,0.0153
3503.00,0.0154
3502.00,0.0155
3501.00,0.0156
3500.00,0.0156
3499.00,0.0157
3498.00,0.0157
3497.00,0.0158
3496.00,0.0158
3495.00,0.0159
3494.00,0.0160
3493.00,0.0160
3492.00,0.0161
3491.00,0.0162
3490.00,0.0162
3489.00,0.0163
3488.00,0.0163
3487.00,0.0164
3486.00,0.0165
3485.00,0.0166
3484.00,0.0166
3483.00,0.0167
3482.00,0.0168
3481.00,0.0169
3480.00,0.0169
3479.00,0.0170
3478.00,0.0170
3477.00,0.0171
3476.00,0.0171
3475.00,0.0172
3474.00,0.0172
3473.00,0.0173
3472.00,0.0174
3471.00,0.0175
3470.00,0.0175
3469.00,0.0176
3468.00,0.0177
3467.00,0.0177
3466.00,0.0178
3465.00,0.0179
3464.00,0.0179
3463.00,0.0180
3462.00,0.0181
3461.00,0.0181
3460.00,0.0182
3459.00,0.0183
3458.00,0.0183
3457.00,0.0183
3456.00,0.0184
3455.00,0.0184
3454.00,0.0185
3453.00,0.0186
3452.00,0.0186
3451.00,0.0187
3450.00,0.0188
3449.00,0.0189
3448.00,0.0190
3447.00,0.0190
3446.00,0.0191
3445.00,0.0192
3444.00,0.0192
3443.00,0.0193
3442.00,0.0194
3441.00,0.0195
3440.00,0.0196
3439.00,0.0197
3438.00,0.0197
3437.00,0.0198
3436.00,0.0199
3435.00,0.0199
3434.00,0.0200
3433.00,0.0201
3432.00,0.0202
3431.00,0.0203
3430.00,0.0203
3429.00,0.0204
3428.00,0.0205
3427.00,0.0205
3426.00,0.0206
3425.00,0.0207
3424.00,0.0208
3423.00,0.0209
3422.00,0.0209
3421.00,0.0210
3420.00,0.0211
3419.00,0.0212
3418.00,0.0213
3417.00,0.0213
3416.00,0.0214
3415.00,0.0215
3414.00,0.0216
3413.00,0.0217
3412.00,0.0218
3411.00,0.0218
3410.00,0.0219
3409.00,0.0220
3408.00,0.0221
3407.00,0.0222
3406.00,0.0222
3405.00,0.0223
3404.00,0.0224
3403.00,0.0224
3402.00,0.0225
3401.00,0.0226
3400.00,0.0227
3399.00,0.0227
3398.00,0.0228
3397.00,0.0229
3396.00,0.0229
3395.00,0.0230
3394.00,0.0231
3393.00,0.0231
3392.00,0.0232
3391.00,0.0233
3390.00,0.0234
3389.00,0.0235
3388.00,0.0236
3387.00,0.0237
3386.00,0.0237
3385.00,0.0238
3384.00,0.0239
3383.00,0.0239
3382.00,0.0240
3381.00,0.0241
3380.00,0.0242
3379.00,0.0243
3378.00,0.0244
3377.00,0.0245
3376.00,0.0246
3375.00,0.0246
3374.00,0.0247
3373.00,0.0248
3372.00,0.0249
3371.00,0.0250
3370.00,0.0251
3369.00,0.0252
3368.00,0.0253
3367.00,0.0254
3366.00,0.0255
3365.00,0.0256
3364.00,0.0257
3363.00,0.0258
3362.00,0.0259
3361.00,0.0260
3360.00,0.0261
3359.00,0.0262
3358.00,0.0263
3357.00,0.0265
3356.00,0.0266
3355.00,0.0267
3354.00,0.0268
3353.00,0.0269
3352.00,0.0270
3351.00,0.0272
3350.00,0.0273
3349.00,0.0274
3348.00,0.0275
3347.00,0.0276
3346.00,0.0277
3345.00,0.0279
3344.00,0.0280
3343.00,0.0281
3342.00,0.0282
3341.00,0.0283
3340.00,0.0284
3339.00,0.0285
3338.00,0.0287
3337.00,0.0288
3336.00,0.0290
3335.00,0.0291
3334.00,0.0293
3333.00,0.0295
3332.00,0.0296
3331.00,0.0298
3330.00,0.0299
3329.00,0.0301
3328.00,0.0302
3327.00,0.0303
3326.00,0.0304
3325.00,0.0306
3324.00,0.0308
3323.00,0.0310
3322.00,0.0312
3321.00,0.0314
3320.00,0.0315
3319.00,0.0317
3318.00,0.0319
3317.00,0.0321
3316.00,0.0322
3315.00,0.0324
3314.00,0.0326
3313.00,0.0328
3312.00,0.0329
3311.00,0.0330
3310.00,0.0331
3309.00,0.0333
3308.00,0.0334
3307.00,0.0336
3306.00,0.0338
3305.00,0.0340
3304.00,0.0342
3303.00,0.0344
3302.00,0.0346
3301.00,0.0348
3300.00,0.0350
3299.00,0.0351
3298.00,0.0353
3297.00,0.0354
3296.00,0.0355
3295.00,0.0356
3294.00,0.0358
3293.00,0.0360
3292.00,0.0361
3291.00,0.0363
3290.00,0.0365
3289.00,0.0366
3288.00,0.0367
3287.00,0.0368
3286.00,0.0369
3285.00,0.0371
3284.00,0.0371
3283.00,0.0372
3282.00,0.0373
3281.00,0.0373
3280.00,0.0374
3279.00,0.0374
3278.00,0.0374
3277.00,0.0374
3276.00,0.0374
3275.00,0.0373
3274.00,0.0373
3273.00,0.0372
3272.00,0.0372
3271.00,0.0371
3270.00,0.0370
3269.00,0.0370
3268.00,0.0369
3267.00,0.0369
3266.00,0.0368
3265.00,0.0367
3264.00,0.0365
3263.00,0.0364
3262.00,0.0363
3261.00,0.0361
3260.00,0.0360
3259.00,0.0358
3258.00,0.0356
3257.00,0.0354
3256.00,0.0353
3255.00,0.0351
3254.00,0.0349
3253.00,0.0348
3252.00,0.0346
3251.00,0.0344
3250.00,0.0342
3249.00,0.0340
3248.00,0.0338
3247.00,0.0337
3246.00,0.0335
3245.00,0.0334
3244.00,0.0333
3243.00,0.0331
3242.00,0.0330
3241.00,0.0328
3240.00,0.0327
3239.00,0.0326
3238.00,0.0325
3237.00,0.0323
3236.00,0.0321
3235.00,0.0319
3234.00,0.0318
3233.00,0.0317
3232.00,0.0316
3231.00,0.0315
3230.00,0.0315
3229.00,0.0314
3228.00,0.0313
3227.00,0.0312
3226.00,0.0311
3225.00,0.0310
3224.00,0.0309
3223.00,0.0308
3222.00,0.0307
3221.00,0.0306
3220.00,0.0305
3219.00,0.0304
3218.00,0.0303
3217.00,0.0302
3216.00,0.0301
3215.00,0.0300
3214.00,0.0300
3213.00,0.0299
3212.00,0.0298
3211.00,0.0297
3210.00,0.0296
3209.00,0.0295
3208.00,0.0294
3207.00,0.0293
3206.00,0.0292
3205.00,0.0292
3204.00,0.0291
3203.00,0.0291
3202.00,0.0290
3201.00,0.0289
3200.00,0.0288
3199.00,0.0288
3198.00,0.0287
3197.00,0.0286
3196.00,0.0285
3195.00,0.0284
3194.00,0.0283
3193.00,0.0282
3192.00,0.0282
3191.00,0.0281
3190.00,0.0280
3189.00,0.0279
3188.00,0.0278
3187.00,0.0277
3186.00,0.0276
3185.00,0.0275
3184.00,0.0274
3183.00,0.0273
3182.00,0.0272
3181.00,0.0271
3180.00,0.0271
3179.00,0.0270
3178.00,0.0269
3177.00,0.0268
3176.00,0.0267
3175.00,0.0266
3174.00,0.0265
3173.00,0.0264
3172.00,0.0264
3171.00,0.0263
3170.00,0.0262
3169.00,0.0261
3168.00,0.0260
3167.00,0.0260
3166.00,0.0259
3165.00,0.0258
3164.00,0.0257
3163.00,0.0257
3162.00,0.0256
3161.00,0.0255
3160.00,0.0254
3159.00,0.0254
3158.00,0.0253
3157.00,0.0252
3156.00,0.0251
3155.00,0.0250
3154.00,0.0249
3153.00,0.0248
3152.00,0.0247
3151.00,0.0247
3150.00,0.0246
3149.00,0.0245
3148.00,0.0244
3147.00,0.0244
3146.00,0.0243
3145.00,0.0243
3144.00,0.0242
3143.00,0.0241
3142.00,0.0241
3141.00,0.0240
3140.00,0.0239
3139.00,0.0239
3138.00,0.0238
3137.00,0.0238
3136.00,0.0237
3135.00,0.0237
3134.00,0.0236
3133.00,0.0236
3132.00,0.0235
3131.00,0.0235
3130.00,0.0234
3129.00,0.0234
3128.00,0.0233
3127.00,0.0233
3126.00,0.0233
3125.00,0.0232
3124.00,0.0232
3123.00,0.0231
3122.00,0.0231
3121.00,0.0230
3120.00,0.0229
3119.00,0.0229
3118.00,0.0229
3117.00,0.0229
3116.00,0.0229
3115.00,0.0229
3114.00,0.0229
3113.00,0.0229
3112.00,0.0229
3111.00,0.0228
3110.00,0.0228
3109.00,0.0228
3108.00,0.0229
3107.00,0.0229
3106.00,0.0230
3105.00,0.0230
3104.00,0.0230
3103.00,0.0230
3102.00,0.0229
3101.00,0.0229
3100.00,0.0229
3099.00,0.0230
3098.00,0.0230
3097.00,0.0230
3096.00,0.0231
3095.00,0.0231
3094.00,0.0231
3093.00,0.0231
3092.00,0.0231
3091.00,0.0231
3090.00,0.0231
3089.00,0.0232
3088.00,0.0232
3087.00,0.0232
3086.00,0.0232
3085.00,0.0232
3084.00,0.0232
3083.00,0.0232
3082.00,0.0232
3081.00,0.0231
3080.00,0.0231
3079.00,0.0231
3078.00,0.0231
3077.00,0.0232
3076.00,0.0232
3075.00,0.0233
3074.00,0.0233
3073.00,0.0233
3072.00,0.0233
3071.00,0.0233
3070.00,0.0232
3069.00,0.0232
3068.00,0.0231
3067.00,0.0231
3066.00,0.0231
3065.00,0.0231
3064.00,0.0231
3063.00,0.0230
3062.00,0.0230
3061.00,0.0230
3060.00,0.0229
3059.00,0.0229
3058.00,0.0228
3057.00,0.0228
3056.00,0.0227
3055.00,0.0226
3054.00,0.0226
3053.00,0.0225
3052.00,0.0224
3051.00,0.0224
3050.00,0.0223
3049.00,0.0223
3048.00,0.0222
3047.00,0.0222
3046.00,0.0220
3045.00,0.0219
3044.00,0.0218
3043.00,0.0217
3042.00,0.0217
3041.00,0.0216
3040.00,0.0216
3039.00,0.0216
3038.00,0.0215
3037.00,0.0214
3036.00,0.0213
3035.00,0.0212
3034.00,0.0212
3033.00,0.0212
3032.00,0.0211
3031.00,0.0211
3030.00,0.0211
3029.00,0.0210
3028.00,0.0210
3027.00,0.0209
3026.00,0.0208
3025.00,0.0206
3024.00,0.0206
3023.00,0.0205
3022.00,0.0204
3021.00,0.0202
3020.00,0.0201
3019.00,0.0200
3018.00,0.0198
3017.00,0.0197
3016.00,0.0195
3015.00,0.0193
3014.00,0.0192
3013.00,0.0190
3012.00,0.0188
3011.00,0.0186
3010.00,0.0184
3009.00,0.0182
3008.00,0.0179
3007.00,0.0176
3006.00,0.0173
3005.00,0.0170
3004.00,0.0166
3003.00,0.0163
3002.00,0.0160
3001.00,0.0157
3000.00,0.0154
2999.00,0.0151
2998.00,0.0149
2997.00,0.0147
2996.00,0.0145
2995.00,0.0144
2994.00,0.0143
2993.00,0.0142
2992.00,0.0142
2991.00,0.0141
2990.00,0.0141
2989.00,0.0140
2988.00,0.0140
2987.00,0.0138
2986.00,0.0135
2985.00,0.0130
2984.00,0.0122
2983.00,0.0115
2982.00,0.0110
2981.00,0.0109
2980.00,0.0113
2979.00,0.0119
2978.00,0.0127
2977.00,0.0134
2976.00,0.0140
2975.00,0.0144
2974.00,0.0146
2973.00,0.0148
2972.00,0.0149
2971.00,0.0153
2970.00,0.0158
2969.00,0.0164
2968.00,0.0171
2967.00,0.0176
2966.00,0.0181
2965.00,0.0185
2964.00,0.0189
2963.00,0.0192
2962.00,0.0195
2961.00,0.0198
2960.00,0.0200
2959.00,0.0202
2958.00,0.0203
2957.00,0.0204
2956.00,0.0205
2955.00,0.0206
2954.00,0.0206
2953.00,0.0207
2952.00,0.0208
2951.00,0.0208
2950.00,0.0209
2949.00,0.0210
2948.00,0.0211
2947.00,0.0212
2946.00,0.0213
2945.00,0.0216
2944.00,0.0218
2943.00,0.0221
2942.00,0.0223
2941.00,0.0225
2940.00,0.0227
2939.00,0.0229
2938.00,0.0231
2937.00,0.0233
2936.00,0.0235
2935.00,0.0237
2934.00,0.0238
2933.00,0.0240
2932.00,0.0241
2931.00,0.0242
2930.00,0.0243
2929.00,0.0244
2928.00,0.0245
2927.00,0.0246
2926.00,0.0247
2925.00,0.0248
2924.00,0.0248
2923.00,0.0247
2922.00,0.0246
2921.00,0.0245
2920.00,0.0243
2919.00,0.0241
2918.00,0.0239
2917.00,0.0237
2916.00,0.0235
2915.00,0.0232
2914.00,0.0230
2913.00,0.0227
2912.00,0.0224
2911.00,0.0222
2910.00,0.0220
2909.00,0.0218
2908.00,0.0216
2907.00,0.0214
2906.00,0.0212
2905.00,0.0210
2904.00,0.0208
2903.00,0.0207
2902.00,0.0205
2901.00,0.0204
2900.00,0.0202
2899.00,0.0201
2898.00,0.0200
2897.00,0.0198
2896.00,0.0197
2895.00,0.0196
2894.00,0.0194
2893.00,0.0193
2892.00,0.0191
2891.00,0.0190
2890.00,0.0189
2889.00,0.0189
2888.00,0.0188
2887.00,0.0188
2886.00,0.0188
2885.00,0.0189
2884.00,0.0189
2883.00,0.0190
2882.00,0.0192
2881.00,0.0195
2880.00,0.0197
2879.00,0.0199
2878.00,0.0201
2877.00,0.0203
2876.00,0.0204
2875.00,0.0205
2874.00,0.0205
2873.00,0.0206
2872.00,0.0206
2871.00,0.0205
2870.00,0.0205
2869.00,0.0204
2868.00,0.0204
2867.00,0.0203
2866.00,0.0203
2865.00,0.0202
2864.00,0.0202
2863.00,0.0202
2862.00,0.0201
2861.00,0.0201
2860.00,0.0202
2859.00,0.0202
2858.00,0.0203
2857.00,0.0203
2856.00,0.0204
2855.00,0.0204
2854.00,0.0204
2853.00,0.0204
2852.00,0.0203
2851.00,0.0202
2850.00,0.0201
2849.00,0.0199
2848.00,0.0198
2847.00,0.0196
2846.00,0.0194
2845.00,0.0192
2844.00,0.0191
2843.00,0.0189
2842.00,0.0187
2841.00,0.0186
2840.00,0.0184
2839.00,0.0183
2838.00,0.0182
2837.00,0.0182
2836.00,0.0181
2835.00,0.0180
2834.00,0.0180
2833.00,0.0179
2832.00,0.0179
2831.00,0.0178
2830.00,0.0178
2829.00,0.0177
2828.00,0.0177
2827.00,0.0176
2826.00,0.0175
2825.00,0.0175
2824.00,0.0174
2823.00,0.0174
2822.00,0.0174
2821.00,0.0173
2820.00,0.0173
2819.00,0.0173
2818.00,0.0173
2817.00,0.0173
2816.00,0.0172
2815.00,0.0172
2814.00,0.0171
2813.00,0.0171
2812.00,0.0171
2811.00,0.0170
2810.00,0.0170
2809.00,0.0170
2808.00,0.0170
2807.00,0.0169
2806.00,0.0169
2805.00,0.0169
2804.00,0.0168
2803.00,0.0168
2802.00,0.0168
2801.00,0.0167
2800.00,0.0167
2799.00,0.0167
2798.00,0.0166
2797.00,0.0166
2796.00,0.0166
2795.00,0.0166
2794.00,0.0165
2793.00,0.0165
2792.00,0.0165
2791.00,0.0164
2790.00,0.0164
2789.00,0.0164
2788.00,0.0164
2787.00,0.0164
2786.00,0.0163
2785.00,0.0163
2784.00,0.0163
2783.00,0.0163
2782.00,0.0163
2781.00,0.0162
2780.00,0.0162
2779.00,0.0162
2778.00,0.0161
2777.00,0.0161
2776.00,0.0161
2775.00,0.0161
2774.00,0.0160
2773.00,0.0160
2772.00,0.0160
2771.00,0.0160
2770.00,0.0160
2769.00,0.0159
2768.00,0.0159
2767.00,0.0159
2766.00,0.0159
2765.00,0.0159
2764.00,0.0158
2763.00,0.0158
2762.00,0.0158
2761.00,0.0157
2760.00,0.0157
2759.00,0.0157
2758.00,0.0157
2757.00,0.0157
2756.00,0.0156
2755.00,0.0156
2754.00,0.0156
2753.00,0.0155
2752.00,0.0155
2751.00,0.0155
2750.00,0.0155
2749.00,0.0155
2748.00,0.0154
2747.00,0.0154
2746.00,0.0154
2745.00,0.0154
2744.00,0.0154
2743.00,0.0153
2742.00,0.0153
2741.00,0.0153
2740.00,0.0153
2739.00,0.0153
2738.00,0.0152
2737.00,0.0152
2736.00,0.0152
2735.00,0.0151
2734.00,0.0151
2733.00,0.0151
2732.00,0.0151
2731.00,0.0151
2730.00,0.0150
2729.00,0.0150
2728.00,0.0150
2727.00,0.0149
2726.00,0.0149
2725.00,0.0149
2724.00,0.0149
2723.00,0.0149
2722.00,0.0149
2721.00,0.0149
2720.00,0.0149
2719.00,0.0148
2718.00,0.0148
2717.00,0.0148
2716.00,0.0147
2715.00,0.0147
2714.00,0.0147
2713.00,0.0147
2712.00,0.0147
2711.00,0.0146
2710.00,0.0146
2709.00,0.0146
2708.00,0.0146
2707.00,0.0145
2706.00,0.0145
2705.00,0.0145
2704.00,0.0145
2703.00,0.0145
2702.00,0.0144
2701.00,0.0144
2700.00,0.0144
2699.00,0.0144
2698.00,0.0144
2697.00,0.0144
2696.00,0.0144
2695.00,0.0143
2694.00,0.0143
2693.00,0.0143
2692.00,0.0143
2691.00,0.0143
2690.00,0.0143
2689.00,0.0143
2688.00,0.0142
2687.00,0.0142
2686.00,0.0142
2685.00,0.0142
2684.00,0.0141
2683.00,0.0141
2682.00,0.0141
2681.00,0.0141
2680.00,0.0141
2679.00,0.0141
2678.00,0.0141
2677.00,0.0141
2676.00,0.0141
2675.00,0.0140
2674.00,0.0140
2673.00,0.0140
2672.00,0.0140
2671.00,0.0140
2670.00,0.0140
2669.00,0.0140
2668.00,0.0139
2667.00,0.0139
2666.00,0.0140
2665.00,0.0140
2664.00,0.0140
2663.00,0.0141
2662.00,0.0141
2661.00,0.0141
2660.00,0.0142
2659.00,0.0142
2658.00,0.0142
2657.00,0.0141
2656.00,0.0141
2655.00,0.0141
2654.00,0.0141
2653.00,0.0141
2652.00,0.0141
2651.00,0.0141
2650.00,0.0141
2649.00,0.0141
2648.00,0.0140
2647.00,0.0140
2646.00,0.0140
2645.00,0.0139
2644.00,0.0139
2643.00,0.0139
2642.00,0.0139
2641.00,0.0139
2640.00,0.0138
2639.00,0.0138
2638.00,0.0138
2637.00,0.0138
2636.00,0.0138
2635.00,0.0138
2634.00,0.0138
2633.00,0.0138
2632.00,0.0138
2631.00,0.0138
2630.00,0.0137
2629.00,0.0137
2628.00,0.0137
2627.00,0.0137
2626.00,0.0136
2625.00,0.0136
2624.00,0.0136
2623.00,0.0136
2622.00,0.0136
2621.00,0.0135
2620.00,0.0135
2619.00,0.0136
2618.00,0.0136
2617.00,0.0135
2616.00,0.0135
2615.00,0.0135
2614.00,0.0135
2613.00,0.0134
2612.00,0.0134
2611.00,0.0134
2610.00,0.0134
2609.00,0.0134
2608.00,0.0134
2607.00,0.0133
2606.00,0.0133
2605.00,0.0132
2604.00,0.0132
2603.00,0.0132
2602.00,0.0132
2601.00,0.0132
2600.00,0.0131
2599.00,0.0131
2598.00,0.0131
2597.00,0.0131
2596.00,0.0131
2595.00,0.0131
2594.00,0.0131
2593.00,0.0131
2592.00,0.0130
2591.00,0.0130
2590.00,0.0130
2589.00,0.0130
2588.00,0.0130
2587.00,0.0130
2586.00,0.0130
2585.00,0.0130
2584.00,0.0130
2583.00,0.0130
2582.00,0.0129
2581.00,0.0129
2580.00,0.0129
2579.00,0.0129
2578.00,0.0129
2577.00,0.0128
2576.00,0.0128
2575.00,0.0127
2574.00,0.0127
2573.00,0.0127
2572.00,0.0127
2571.00,0.0127
2570.00,0.0127
2569.00,0.0127
2568.00,0.0127
2567.00,0.0126
2566.00,0.0126
2565.00,0.0126
2564.00,0.0126
2563.00,0.0126
2562.00,0.0126
2561.00,0.0125
2560.00,0.0125
2559.00,0.0125
2558.00,0.0125
2557.00,0.0125
2556.00,0.0125
2555.00,0.0125
2554.00,0.0125
2553.00,0.0125
2552.00,0.0124
2551.00,0.0124
2550.00,0.0124
2549.00,0.0124
2548.00,0.0124
2547.00,0.0124
2546.00,0.0124
2545.00,0.0124
2544.00,0.0123
2543.00,0.0123
2542.00,0.0123
2541.00,0.0123
2540.00,0.0123
2539.00,0.0123
2538.00,0.0123
2537.00,0.0123
2536.00,0.0122
2535.00,0.0122
2534.00,0.0122
2533.00,0.0122
2532.00,0.0121
2531.00,0.0121
2530.00,0.0121
2529.00,0.0121
2528.00,0.0121
2527.00,0.0120
2526.00,0.0120
2525.00,0.0120
2524.00,0.0120
2523.00,0.0120
2522.00,0.0120
2521.00,0.0121
2520.00,0.0121
2519.00,0.0121
2518.00,0.0120
2517.00,0.0120
2516.00,0.0120
2515.00,0.0120
2514.00,0.0120
2513.00,0.0120
2512.00,0.0120
2511.00,0.0120
2510.00,0.0119
2509.00,0.0119
2508.00,0.0119
2507.00,0.0118
2506.00,0.0118
2505.00,0.0118
2504.00,0.0118
2503.00,0.0118
2502.00,0.0118
2501.00,0.0118
2500.00,0.0118
2499.00,0.0118
2498.00,0.0118
2497.00,0.0118
2496.00,0.0117
2495.00,0.0117
2494.00,0.0117
2493.00,0.0116
2492.00,0.0116
2491.00,0.0116
2490.00,0.0116
2489.00,0.0116
2488.00,0.0116
2487.00,0.0117
2486.00,0.0117
2485.00,0.0116
2484.00,0.0116
2483.00,0.0116
2482.00,0.0116
2481.00,0.0116
2480.00,0.0116
2479.00,0.0116
2478.00,0.0116
2477.00,0.0115
2476.00,0.0115
2475.00,0.0115
2474.00,0.0115
2473.00,0.0115
2472.00,0.0115
2471.00,0.0115
2470.00,0.0115
2469.00,0.0115
2468.00,0.0115
2467.00,0.0115
2466.00,0.0115
2465.00,0.0115
2464.00,0.0115
2463.00,0.0115
2462.00,0.0115
2461.00,0.0115
2460.00,0.0115
2459.00,0.0115
2458.00,0.0115
2457.00,0.0115
2456.00,0.0115
2455.00,0.0115
2454.00,0.0114
2453.00,0.0114
2452.00,0.0114
2451.00,0.0115
2450.00,0.0114
2449.00,0.0114
2448.00,0.0114
2447.00,0.0114
2446.00,0.0114
2445.00,0.0114
2444.00,0.0114
2443.00,0.0114
2442.00,0.0113
2441.00,0.0113
2440.00,0.0112
2439.00,0.0112
2438.00,0.0112
2437.00,0.0111
2436.00,0.0111
2435.00,0.0111
2434.00,0.0110
2433.00,0.0110
2432.00,0.0110
2431.00,0.0110
2430.00,0.0110
2429.00,0.0110
2428.00,0.0109
2427.00,0.0109
2426.00,0.0109
2425.00,0.0109
2424.00,0.0109
2423.00,0.0109
2422.00,0.0109
2421.00,0.0109
2420.00,0.0109
2419.00,0.0109
2418.00,0.0109
2417.00,0.0109
2416.00,0.0109
2415.00,0.0109
2414.00,0.0109
2413.00,0.0109
2412.00,0.0108
2411.00,0.0108
2410.00,0.0108
2409.00,0.0107
2408.00,0.0107
2407.00,0.0106
2406.00,0.0106
2405.00,0.0106
2404.00,0.0106
2403.00,0.0105
2402.00,0.0105
2401.00,0.0105
2400.00,0.0105
2399.00,0.0105
2398.00,0.0105
2397.00,0.0105
2396.00,0.0105
2395.00,0.0105
2394.00,0.0106
2393.00,0.0105
2392.00,0.0105
2391.00,0.0105
2390.00,0.0105
2389.00,0.0104
2388.00,0.0104
2387.00,0.0104
2386.00,0.0103
2385.00,0.0103
2384.00,0.0102
2383.00,0.0101
2382.00,0.0101
2381.00,0.0100
2380.00,0.0099
2379.00,0.0099
2378.00,0.0099
2377.00,0.0099
2376.00,0.0100
2375.00,0.0100
2374.00,0.0100
2373.00,0.0100
2372.00,0.0099
2371.00,0.0099
2370.00,0.0098
2369.00,0.0098
2368.00,0.0097
2367.00,0.0097
2366.00,0.0097
2365.00,0.0098
2364.00,0.0098
2363.00,0.0098
2362.00,0.0098
2361.00,0.0098
2360.00,0.0099
2359.00,0.0099
2358.00,0.0099
2357.00,0.0099
2356.00,0.0099
2355.00,0.0099
2354.00,0.0099
2353.00,0.0099
2352.00,0.0099
2351.00,0.0099
2350.00,0.0099
2349.00,0.0099
2348.00,0.0100
2347.00,0.0100
2346.00,0.0101
2345.00,0.0101
2344.00,0.0101
2343.00,0.0100
2342.00,0.0100
2341.00,0.0100
2340.00,0.0101
2339.00,0.0101
2338.00,0.0102
2337.00,0.0102
2336.00,0.0102
2335.00,0.0101
2334.00,0.0101
2333.00,0.0102
2332.00,0.0102
2331.00,0.0102
2330.00,0.0103
2329.00,0.0104
2328.00,0.0106
2327.00,0.0108
2326.00,0.0111
2325.00,0.0112
2324.00,0.0112
2323.00,0.0110
2322.00,0.0108
2321.00,0.0107
2320.00,0.0105
2319.00,0.0105
2318.00,0.0104
2317.00,0.0104
2316.00,0.0104
2315.00,0.0104
2314.00,0.0104
2313.00,0.0103
2312.00,0.0102
2311.00,0.0101
2310.00,0.0101
2309.00,0.0101
2308.00,0.0101
2307.00,0.0101
2306.00,0.0101
2305.00,0.0101
2304.00,0.0102
2303.00,0.0102
2302.00,0.0102
2301.00,0.0103
2300.00,0.0103
2299.00,0.0103
2298.00,0.0104
2297.00,0.0105
2296.00,0.0106
2295.00,0.0106
2294.00,0.0107
2293.00,0.0108
2292.00,0.0109
2291.00,0.0109
2290.00,0.0110
2289.00,0.0111
2288.00,0.0111
2287.00,0.0111
2286.00,0.0111
2285.00,0.0110
2284.00,0.0110
2283.00,0.0110
2282.00,0.0110
2281.00,0.0109
2280.00,0.0108
2279.00,0.0108
2278.00,0.0107
2277.00,0.0107
2276.00,0.0107
2275.00,0.0107
2274.00,0.0107
2273.00,0.0106
2272.00,0.0106
2271.00,0.0105
2270.00,0.0105
2269.00,0.0104
2268.00,0.0104
2267.00,0.0103
2266.00,0.0102
2265.00,0.0102
2264.00,0.0102
2263.00,0.0102
2262.00,0.0103
2261.00,0.0103
2260.00,0.0104
2259.00,0.0104
2258.00,0.0104
2257.00,0.0104
2256.00,0.0103
2255.00,0.0102
2254.00,0.0101
2253.00,0.0101
2252.00,0.0101
2251.00,0.0101
2250.00,0.0102
2249.00,0.0103
2248.00,0.0104
2247.00,0.0103
2246.00,0.0103
2245.00,0.0103
2244.00,0.0103
2243.00,0.0103
2242.00,0.0103
2241.00,0.0103
2240.00,0.0102
2239.00,0.0101
2238.00,0.0100
2237.00,0.0100
2236.00,0.0100
2235.00,0.0101
2234.00,0.0101
2233.00,0.0102
2232.00,0.0103
2231.00,0.0103
2230.00,0.0103
2229.00,0.0104
2228.00,0.0103
2227.00,0.0102
2226.00,0.0101
2225.00,0.0101
2224.00,0.0101
2223.00,0.0101
2222.00,0.0100
2221.00,0.0100
2220.00,0.0100
2219.00,0.0100
2218.00,0.0099
2217.00,0.0100
2216.00,0.0100
2215.00,0.0100
2214.00,0.0099
2213.00,0.0099
2212.00,0.0099
2211.00,0.0099
2210.00,0.0100
2209.00,0.0101
2208.00,0.0102
2207.00,0.0102
2206.00,0.0102
2205.00,0.0101
2204.00,0.0101
2203.00,0.0100
2202.00,0.0100
2201.00,0.0101
2200.00,0.0100
2199.00,0.0099
2198.00,0.0098
2197.00,0.0098
2196.00,0.0098
2195.00,0.0098
2194.00,0.0099
2193.00,0.0099
2192.00,0.0100
2191.00,0.0101
2190.00,0.0102
2189.00,0.0102
2188.00,0.0102
2187.00,0.0102
2186.00,0.0102
2185.00,0.0102
2184.00,0.0101
2183.00,0.0098
2182.00,0.0097
2181.00,0.0097
2180.00,0.0097
2179.00,0.0097
2178.00,0.0096
2177.00,0.0095
2176.00,0.0094
2175.00,0.0094
2174.00,0.0095
2173.00,0.0097
2172.00,0.0098
2171.00,0.0100
2170.00,0.0101
2169.00,0.0103
2168.00,0.0106
2167.00,0.0108
2166.00,0.0110
2165.00,0.0112
2164.00,0.0114
2163.00,0.0114
2162.00,0.0109
2161.00,0.0098
2160.00,0.0085
2159.00,0.0074
2158.00,0.0068
2157.00,0.0069
2156.00,0.0071
2155.00,0.0074
2154.00,0.0075
2153.00,0.0077
2152.00,0.0078
2151.00,0.0078
2150.00,0.0079
2149.00,0.0079
2148.00,0.0079
2147.00,0.0080
2146.00,0.0081
2145.00,0.0083
2144.00,0.0084
2143.00,0.0084
2142.00,0.0084
2141.00,0.0083
2140.00,0.0082
2139.00,0.0081
2138.00,0.0080
2137.00,0.0080
2136.00,0.0080
2135.00,0.0079
2134.00,0.0079
2133.00,0.0080
2132.00,0.0081
2131.00,0.0082
2130.00,0.0082
2129.00,0.0083
2128.00,0.0084
2127.00,0.0086
2126.00,0.0087
2125.00,0.0088
2124.00,0.0089
2123.00,0.0090
2122.00,0.0091
2121.00,0.0092
2120.00,0.0093
2119.00,0.0093
2118.00,0.0093
2117.00,0.0094
2116.00,0.0095
2115.00,0.0096
2114.00,0.0096
2113.00,0.0096
2112.00,0.0096
2111.00,0.0096
2110.00,0.0095
2109.00,0.0095
2108.00,0.0095
2107.00,0.0095
2106.00,0.0095
2105.00,0.0095
2104.00,0.0096
2103.00,0.0096
2102.00,0.0095
2101.00,0.0095
2100.00,0.0094
2099.00,0.0093
2098.00,0.0092
2097.00,0.0091
2096.00,0.0090
2095.00,0.0089
2094.00,0.0090
2093.00,0.0091
2092.00,0.0092
2091.00,0.0093
2090.00,0.0093
2089.00,0.0094
2088.00,0.0094
2087.00,0.0095
2086.00,0.0095
2085.00,0.0095
2084.00,0.0095
2083.00,0.0094
2082.00,0.0094
2081.00,0.0094
2080.00,0.0094
2079.00,0.0094
2078.00,0.0093
2077.00,0.0093
2076.00,0.0093
2075.00,0.0094
2074.00,0.0095
2073.00,0.0095
2072.00,0.0095
2071.00,0.0094
2070.00,0.0093
2069.00,0.0092
2068.00,0.0092
2067.00,0.0092
2066.00,0.0091
2065.00,0.0091
2064.00,0.0091
2063.00,0.0091
2062.00,0.0091
2061.00,0.0091
2060.00,0.0091
2059.00,0.0091
2058.00,0.0092
2057.00,0.0092
2056.00,0.0091
2055.00,0.0091
2054.00,0.0092
2053.00,0.0095
2052.00,0.0098
2051.00,0.0099
2050.00,0.0096
2049.00,0.0094
2048.00,0.0092
2047.00,0.0092
2046.00,0.0091
2045.00,0.0090
2044.00,0.0090
2043.00,0.0090
2042.00,0.0090
2041.00,0.0090
2040.00,0.0090
2039.00,0.0091
2038.00,0.0091
2037.00,0.0091
2036.00,0.0091
2035.00,0.0089
2034.00,0.0086
2033.00,0.0084
2032.00,0.0081
2031.00,0.0080
2030.00,0.0080
2029.00,0.0081
2028.00,0.0082
2027.00,0.0082
2026.00,0.0082
2025.00,0.0081
2024.00,0.0082
2023.00,0.0082
2022.00,0.0081
2021.00,0.0081
2020.00,0.0081
2019.00,0.0080
2018.00,0.0079
2017.00,0.0078
2016.00,0.0079
2015.00,0.0080
2014.00,0.0081
2013.00,0.0081
2012.00,0.0082
2011.00,0.0083
2010.00,0.0083
2009.00,0.0082
2008.00,0.0079
2007.00,0.0075
2006.00,0.0072
2005.00,0.0072
2004.00,0.0073
2003.00,0.0076
2002.00,0.0079
2001.00,0.0083
2000.00,0.0085
1999.00,0.0085
1998.00,0.0084
1997.00,0.0084
1996.00,0.0084
1995.00,0.0085
1994.00,0.0085
1993.00,0.0084
1992.00,0.0084
1991.00,0.0083
1990.00,0.0083
1989.00,0.0084
1988.00,0.0086
1987.00,0.0088
1986.00,0.0088
1985.00,0.0089
1984.00,0.0090
1983.00,0.0093
1982.00,0.0096
1981.00,0.0096
1980.00,0.0094
1979.00,0.0088
1978.00,0.0082
1977.00,0.0078
1976.00,0.0076
1975.00,0.0075
1974.00,0.0075
1973.00,0.0074
1972.00,0.0074
1971.00,0.0074
1970.00,0.0074
1969.00,0.0074
1968.00,0.0075
1967.00,0.0076
1966.00,0.0077
1965.00,0.0078
1964.00,0.0078
1963.00,0.0076
1962.00,0.0074
1961.00,0.0072
1960.00,0.0072
1959.00,0.0072
1958.00,0.0072
1957.00,0.0073
1956.00,0.0075
1955.00,0.0076
1954.00,0.0077
1953.00,0.0077
1952.00,0.0077
1951.00,0.0076
1950.00,0.0076
1949.00,0.0076
1948.00,0.0077
1947.00,0.0077
1946.00,0.0076
1945.00,0.0076
1944.00,0.0076
1943.00,0.0077
1942.00,0.0077
1941.00,0.0077
1940.00,0.0077
1939.00,0.0076
1938.00,0.0076
1937.00,0.0076
1936.00,0.0076
1935.00,0.0077
1934.00,0.0077
1933.00,0.0077
1932.00,0.0077
1931.00,0.0077
1930.00,0.0077
1929.00,0.0077
1928.00,0.0077
1927.00,0.0077
1926.00,0.0076
1925.00,0.0076
1924.00,0.0077
1923.00,0.0078
1922.00,0.0079
1921.00,0.0079
1920.00,0.0079
1919.00,0.0078
1918.00,0.0077
1917.00,0.0077
1916.00,0.0078
1915.00,0.0078
1914.00,0.0078
1913.00,0.0078
1912.00,0.0079
1911.00,0.0079
1910.00,0.0079
1909.00,0.0079
1908.00,0.0078
1907.00,0.0078
1906.00,0.0078
1905.00,0.0077
1904.00,0.0077
1903.00,0.0077
1902.00,0.0077
1901.00,0.0077
1900.00,0.0077
1899.00,0.0078
1898.00,0.0078
1897.00,0.0078
1896.00,0.0078
1895.00,0.0077
1894.00,0.0077
1893.00,0.0077
1892.00,0.0078
1891.00,0.0078
1890.00,0.0078
1889.00,0.0079
1888.00,0.0079
1887.00,0.0079
1886.00,0.0078
1885.00,0.0078
1884.00,0.0078
1883.00,0.0078
1882.00,0.0078
1881.00,0.0078
1880.00,0.0078
1879.00,0.0078
1878.00,0.0078
1877.00,0.0078
1876.00,0.0078
1875.00,0.0078
1874.00,0.0077
1873.00,0.0077
1872.00,0.0077
1871.00,0.0076
1870.00,0.0075
1869.00,0.0075
1868.00,0.0076
1867.00,0.0076
1866.00,0.0076
1865.00,0.0076
1864.00,0.0077
1863.00,0.0076
1862.00,0.0076
1861.00,0.0076
1860.00,0.0076
1859.00,0.0076
1858.00,0.0076
1857.00,0.0076
1856.00,0.0076
1855.00,0.0076
1854.00,0.0076
1853.00,0.0076
1852.00,0.0076
1851.00,0.0076
1850.00,0.0076
1849.00,0.0076
1848.00,0.0075
1847.00,0.0075
1846.00,0.0074
1845.00,0.0074
1844.00,0.0074
1843.00,0.0074
1842.00,0.0075
1841.00,0.0075
1840.00,0.0075
1839.00,0.0075
1838.00,0.0075
1837.00,0.0075
1836.00,0.0075
1835.00,0.0075
1834.00,0.0075
1833.00,0.0075
1832.00,0.0075
1831.00,0.0074
1830.00,0.0074
1829.00,0.0074
1828.00,0.0074
1827.00,0.0074
1826.00,0.0074
1825.00,0.0074
1824.00,0.0075
1823.00,0.0075
1822.00,0.0075
1821.00,0.0074
1820.00,0.0074
1819.00,0.0073
1818.00,0.0072
1817.00,0.0072
1816.00,0.0072
1815.00,0.0073
1814.00,0.0073
1813.00,0.0073
1812.00,0.0073
1811.00,0.0073
1810.00,0.0073
1809.00,0.0074
1808.00,0.0074
1807.00,0.0074
1806.00,0.0074
1805.00,0.0074
1804.00,0.0074
1803.00,0.0073
1802.00,0.0073
1801.00,0.0073
1800.00,0.0074
1799.00,0.0074
1798.00,0.0074
1797.00,0.0074
1796.00,0.0074
1795.00,0.0074
1794.00,0.0074
1793.00,0.0074
1792.00,0.0074
1791.00,0.0074
1790.00,0.0074
1789.00,0.0074
1788.00,0.0074
1787.00,0.0074
1786.00,0.0074
1785.00,0.0074
1784.00,0.0074
1783.00,0.0074
1782.00,0.0074
1781.00,0.0073
1780.00,0.0073
1779.00,0.0073
1778.00,0.0073
1777.00,0.0072
1776.00,0.0072
1775.00,0.0072
1774.00,0.0072
1773.00,0.0073
1772.00,0.0073
1771.00,0.0073
1770.00,0.0072
1769.00,0.0072
1768.00,0.0073
1767.00,0.0074
1766.00,0.0074
1765.00,0.0073
1764.00,0.0073
1763.00,0.0073
1762.00,0.0073
1761.00,0.0074
1760.00,0.0074
1759.00,0.0075
1758.00,0.0075
1757.00,0.0076
1756.00,0.0077
1755.00,0.0077
1754.00,0.0078
1753.00,0.0078
1752.00,0.0079
1751.00,0.0080
1750.00,0.0080
1749.00,0.0081
1748.00,0.0081
1747.00,0.0082
1746.00,0.0083
1745.00,0.0084
1744.00,0.0086
1743.00,0.0087
1742.00,0.0088
1741.00,0.0088
1740.00,0.0089
1739.00,0.0090
1738.00,0.0090
1737.00,0.0091
1736.00,0.0092
1735.00,0.0094
1734.00,0.0096
1733.00,0.0098
1732.00,0.0098
1731.00,0.0097
1730.00,0.0096
1729.00,0.0097
1728.00,0.0098
1727.00,0.0100
1726.00,0.0101
1725.00,0.0102
1724.00,0.0103
1723.00,0.0105
1722.00,0.0106
1721.00,0.0107
1720.00,0.0108
1719.00,0.0110
1718.00,0.0113
1717.00,0.0116
1716.00,0.0120
1715.00,0.0122
1714.00,0.0123
1713.00,0.0126
1712.00,0.0129
1711.00,0.0134
1710.00,0.0138
1709.00,0.0142
1708.00,0.0148
1707.00,0.0154
1706.00,0.0161
1705.00,0.0171
1704.00,0.0180
1703.00,0.0189
1702.00,0.0200
1701.00,0.0217
1700.00,0.0238
1699.00,0.0256
1698.00,0.0269
1697.00,0.0283
1696.00,0.0300
1695.00,0.0316
1694.00,0.0327
1693.00,0.0334
1692.00,0.0341
1691.00,0.0349
1690.00,0.0358
1689.00,0.0368
1688.00,0.0377
1687.00,0.0387
1686.00,0.0397
1685.00,0.0411
1684.00,0.0426
1683.00,0.0438
1682.00,0.0446
1681.00,0.0455
1680.00,0.0466
1679.00,0.0477
1678.00,0.0487
1677.00,0.0498
1676.00,0.0511
1675.00,0.0524
1674.00,0.0536
1673.00,0.0546
1672.00,0.0556
1671.00,0.0568
1670.00,0.0582
1669.00,0.0596
1668.00,0.0609
1667.00,0.0621
1666.00,0.0632
1665.00,0.0644
1664.00,0.0657
1663.00,0.0671
1662.00,0.0685
1661.00,0.0697
1660.00,0.0709
1659.00,0.0721
1658.00,0.0732
1657.00,0.0742
1656.00,0.0753
1655.00,0.0765
1654.00,0.0777
1653.00,0.0789
1652.00,0.0798
1651.00,0.0803
1650.00,0.0805
1649.00,0.0809
1648.00,0.0814
1647.00,0.0821
1646.00,0.0826
1645.00,0.0830
1644.00,0.0835
1643.00,0.0839
1642.00,0.0844
1641.00,0.0850
1640.00,0.0856
1639.00,0.0862
1638.00,0.0869
1637.00,0.0877
1636.00,0.0886
1635.00,0.0895
1634.00,0.0903
1633.00,0.0911
1632.00,0.0920
1631.00,0.0929
1630.00,0.0938
1629.00,0.0946
1628.00,0.0953
1627.00,0.0958
1626.00,0.0960
1625.00,0.0960
1624.00,0.0957
1623.00,0.0949
1622.00,0.0937
1621.00,0.0925
1620.00,0.0913
1619.00,0.0899
1618.00,0.0881
1617.00,0.0854
1616.00,0.0824
1615.00,0.0797
1614.00,0.0773
1613.00,0.0750
1612.00,0.0728
1611.00,0.0705
1610.00,0.0682
1609.00,0.0659
1608.00,0.0637
1607.00,0.0617
1606.00,0.0598
1605.00,0.0582
1604.00,0.0567
1603.00,0.0552
1602.00,0.0539
1601.00,0.0527
1600.00,0.0516
1599.00,0.0507
1598.00,0.0499
1597.00,0.0491
1596.00,0.0483
1595.00,0.0476
1594.00,0.0470
1593.00,0.0465
1592.00,0.0460
1591.00,0.0455
1590.00,0.0451
1589.00,0.0448
1588.00,0.0445
1587.00,0.0443
1586.00,0.0442
1585.00,0.0441
1584.00,0.0440
1583.00,0.0440
1582.00,0.0441
1581.00,0.0443
1580.00,0.0444
1579.00,0.0446
1578.00,0.0450
1577.00,0.0455
1576.00,0.0460
1575.00,0.0464
1574.00,0.0467
1573.00,0.0470
1572.00,0.0474
1571.00,0.0479
1570.00,0.0486
1569.00,0.0493
1568.00,0.0499
1567.00,0.0506
1566.00,0.0513
1565.00,0.0522
1564.00,0.0530
1563.00,0.0538
1562.00,0.0546
1561.00,0.0555
1560.00,0.0566
1559.00,0.0579
1558.00,0.0590
1557.00,0.0599
1556.00,0.0606
1555.00,0.0614
1554.00,0.0625
1553.00,0.0636
1552.00,0.0646
1551.00,0.0655
1550.00,0.0666
1549.00,0.0677
1548.00,0.0686
1547.00,0.0695
1546.00,0.0704
1545.00,0.0713
1544.00,0.0722
1543.00,0.0730
1542.00,0.0738
1541.00,0.0747
1540.00,0.0756
1539.00,0.0764
1538.00,0.0770
1537.00,0.0774
1536.00,0.0777
1535.00,0.0782
1534.00,0.0787
1533.00,0.0792
1532.00,0.0795
1531.00,0.0798
1530.00,0.0801
1529.00,0.0805
1528.00,0.0807
1527.00,0.0809
1526.00,0.0810
1525.00,0.0811
1524.00,0.0812
1523.00,0.0813
1522.00,0.0814
1521.00,0.0816
1520.00,0.0816
1519.00,0.0816
1518.00,0.0816
1517.00,0.0817
1516.00,0.0816
1515.00,0.0813
1514.00,0.0809
1513.00,0.0802
1512.00,0.0794
1511.00,0.0784
1510.00,0.0774
1509.00,0.0763
1508.00,0.0749
1507.00,0.0730
1506.00,0.0709
1505.00,0.0692
1504.00,0.0680
1503.00,0.0669
1502.00,0.0658
1501.00,0.0646
1500.00,0.0634
1499.00,0.0621
1498.00,0.0608
1497.00,0.0594
1496.00,0.0579
1495.00,0.0565
1494.00,0.0553
1493.00,0.0541
1492.00,0.0528
1491.00,0.0515
1490.00,0.0501
1489.00,0.0488
1488.00,0.0476
1487.00,0.0466
1486.00,0.0457
1485.00,0.0449
1484.00,0.0442
1483.00,0.0435
1482.00,0.0429
1481.00,0.0423
1480.00,0.0419
1479.00,0.0415
1478.00,0.0412
1477.00,0.0410
1476.00,0.0408
1475.00,0.0408
1474.00,0.0408
1473.00,0.0411
1472.00,0.0416
1471.00,0.0422
1470.00,0.0426
1469.00,0.0429
1468.00,0.0431
1467.00,0.0432
1466.00,0.0432
1465.00,0.0431
1464.00,0.0431
1463.00,0.0431
1462.00,0.0432
1461.00,0.0433
1460.00,0.0436
1459.00,0.0439
1458.00,0.0444
1457.00,0.0450
1456.00,0.0455
1455.00,0.0458
1454.00,0.0459
1453.00,0.0459
1452.00,0.0459
1451.00,0.0459
1450.00,0.0459
1449.00,0.0458
1448.00,0.0457
1447.00,0.0457
1446.00,0.0456
1445.00,0.0455
1444.00,0.0454
1443.00,0.0453
1442.00,0.0451
1441.00,0.0449
1440.00,0.0447
1439.00,0.0445
1438.00,0.0443
1437.00,0.0439
1436.00,0.0434
1435.00,0.0429
1434.00,0.0425
1433.00,0.0421
1432.00,0.0417
1431.00,0.0413
1430.00,0.0409
1429.00,0.0406
1428.00,0.0403
1427.00,0.0401
1426.00,0.0400
1425.00,0.0400
1424.00,0.0399
1423.00,0.0400
1422.00,0.0401
1421.00,0.0403
1420.00,0.0405
1419.00,0.0408
1418.00,0.0410
1417.00,0.0411
1416.00,0.0413
1415.00,0.0415
1414.00,0.0418
1413.00,0.0420
1412.00,0.0422
1411.00,0.0425
1410.00,0.0427
1409.00,0.0430
1408.00,0.0432
1407.00,0.0434
1406.00,0.0436
1405.00,0.0438
1404.00,0.0440
1403.00,0.0442
1402.00,0.0443
1401.00,0.0444
1400.00,0.0444
1399.00,0.0445
1398.00,0.0445
1397.00,0.0445
1396.00,0.0446
1395.00,0.0446
1394.00,0.0446
1393.00,0.0447
1392.00,0.0447
1391.00,0.0448
1390.00,0.0448
1389.00,0.0448
1388.00,0.0446
1387.00,0.0444
1386.00,0.0441
1385.00,0.0438
1384.00,0.0433
1383.00,0.0429
1382.00,0.0425
1381.00,0.0421
1380.00,0.0418
1379.00,0.0415
1378.00,0.0412
1377.00,0.0410
1376.00,0.0407
1375.00,0.0405
1374.00,0.0404
1373.00,0.0403
1372.00,0.0402
1371.00,0.0402
1370.00,0.0403
1369.00,0.0402
1368.00,0.0402
1367.00,0.0400
1366.00,0.0397
1365.00,0.0394
1364.00,0.0391
1363.00,0.0388
1362.00,0.0385
1361.00,0.0382
1360.00,0.0381
1359.00,0.0379
1358.00,0.0378
1357.00,0.0376
1356.00,0.0376
1355.00,0.0375
1354.00,0.0375
1353.00,0.0375
1352.00,0.0375
1351.00,0.0375
1350.00,0.0375
1349.00,0.0375
1348.00,0.0375
1347.00,0.0375
1346.00,0.0375
1345.00,0.0375
1344.00,0.0375
1343.00,0.0374
1342.00,0.0374
1341.00,0.0374
1340.00,0.0374
1339.00,0.0373
1338.00,0.0373
1337.00,0.0373
1336.00,0.0373
1335.00,0.0372
1334.00,0.0371
1333.00,0.0371
1332.00,0.0370
1331.00,0.0370
1330.00,0.0370
1329.00,0.0370
1328.00,0.0370
1327.00,0.0370
1326.00,0.0370
1325.00,0.0371
1324.00,0.0371
1323.00,0.0372
1322.00,0.0373
1321.00,0.0373
1320.00,0.0374
1319.00,0.0375
1318.00,0.0376
1317.00,0.0376
1316.00,0.0377
1315.00,0.0378
1314.00,0.0379
1313.00,0.0379
1312.00,0.0380
1311.00,0.0380
1310.00,0.0380
1309.00,0.0380
1308.00,0.0380
1307.00,0.0380
1306.00,0.0380
1305.00,0.0380
1304.00,0.0380
1303.00,0.0380
1302.00,0.0380
1301.00,0.0380
1300.00,0.0380
1299.00,0.0380
1298.00,0.0380
1297.00,0.0380
1296.00,0.0380
1295.00,0.0380
1294.00,0.0381
1293.00,0.0381
1292.00,0.0382
1291.00,0.0383
1290.00,0.0383
1289.00,0.0384
1288.00,0.0384
1287.00,0.0385
1286.00,0.0385
1285.00,0.0386
1284.00,0.0386
1283.00,0.0386
1282.00,0.0386
1281.00,0.0386
1280.00,0.0386
1279.00,0.0385
1278.00,0.0385
1277.00,0.0384
1276.00,0.0384
1275.00,0.0384
1274.00,0.0383
1273.00,0.0383
1272.00,0.0382
1271.00,0.0382
1270.00,0.0382
1269.00,0.0383
1268.00,0.0384
1267.00,0.0385
1266.00,0.0386
1265.00,0.0388
1264.00,0.0390
1263.00,0.0393
1262.00,0.0396
1261.00,0.0399
1260.00,0.0402
1259.00,0.0406
1258.00,0.0410
1257.00,0.0413
1256.00,0.0417
1255.00,0.0420
1254.00,0.0423
1253.00,0.0427
1252.00,0.0431
1251.00,0.0435
1250.00,0.0440
1249.00,0.0444
1248.00,0.0449
1247.00,0.0454
1246.00,0.0458
1245.00,0.0462
1244.00,0.0466
1243.00,0.0469
1242.00,0.0472
1241.00,0.0474
1240.00,0.0476
1239.00,0.0479
1238.00,0.0481
1237.00,0.0483
1236.00,0.0485
1235.00,0.0486
1234.00,0.0488
1233.00,0.0489
1232.00,0.0490
1231.00,0.0491
1230.00,0.0491
1229.00,0.0491
1228.00,0.0490
1227.00,0.0490
1226.00,0.0489
1225.00,0.0488
1224.00,0.0486
1223.00,0.0484
1222.00,0.0482
1221.00,0.0479
1220.00,0.0476
1219.00,0.0472
1218.00,0.0469
1217.00,0.0465
1216.00,0.0460
1215.00,0.0456
1214.00,0.0451
1213.00,0.0446
1212.00,0.0441
1211.00,0.0436
1210.00,0.0432
1209.00,0.0427
1208.00,0.0422
1207.00,0.0417
1206.00,0.0413
1205.00,0.0408
1204.00,0.0403
1203.00,0.0399
1202.00,0.0394
1201.00,0.0390
1200.00,0.0385
1199.00,0.0381
1198.00,0.0378
1197.00,0.0374
1196.00,0.0371
1195.00,0.0367
1194.00,0.0364
1193.00,0.0361
1192.00,0.0358
1191.00,0.0356
1190.00,0.0354
1189.00,0.0351
1188.00,0.0349
1187.00,0.0346
1186.00,0.0344
1185.00,0.0342
1184.00,0.0340
1183.00,0.0338
1182.00,0.0335
1181.00,0.0334
1180.00,0.0332
1179.00,0.0331
1178.00,0.0331
1177.00,0.0331
1176.00,0.0332
1175.00,0.0334
1174.00,0.0335
1173.00,0.0337
1172.00,0.0339
1171.00,0.0340
1170.00,0.0341
1169.00,0.0343
1168.00,0.0344
1167.00,0.0346
1166.00,0.0348
1165.00,0.0351
1164.00,0.0354
1163.00,0.0358
1162.00,0.0361
1161.00,0.0365
1160.00,0.0368
1159.00,0.0371
1158.00,0.0374
1157.00,0.0377
1156.00,0.0379
1155.00,0.0381
1154.00,0.0382
1153.00,0.0383
1152.00,0.0383
1151.00,0.0382
1150.00,0.0381
1149.00,0.0380
1148.00,0.0379
1147.00,0.0377
1146.00,0.0375
1145.00,0.0374
1144.00,0.0372
1143.00,0.0370
1142.00,0.0369
1141.00,0.0367
1140.00,0.0366
1139.00,0.0365
1138.00,0.0364
1137.00,0.0364
1136.00,0.0364
1135.00,0.0365
1134.00,0.0367
1133.00,0.0368
1132.00,0.0370
1131.00,0.0372
1130.00,0.0374
1129.00,0.0377
1128.00,0.0380
1127.00,0.0383
1126.00,0.0385
1125.00,0.0387
1124.00,0.0389
1123.00,0.0391
1122.00,0.0393
1121.00,0.0395
1120.00,0.0398
1119.00,0.0400
1118.00,0.0403
1117.00,0.0405
1116.00,0.0407
1115.00,0.0409
1114.00,0.0412
1113.00,0.0414
1112.00,0.0417
1111.00,0.0419
1110.00,0.0422
1109.00,0.0424
1108.00,0.0427
1107.00,0.0429
1106.00,0.0431
1105.00,0.0433
1104.00,0.0435
1103.00,0.0437
1102.00,0.0439
1101.00,0.0440
1100.00,0.0442
1099.00,0.0443
1098.00,0.0445
1097.00,0.0447
1096.00,0.0449
1095.00,0.0452
1094.00,0.0456
1093.00,0.0459
1092.00,0.0463
1091.00,0.0468
1090.00,0.0473
1089.00,0.0479
1088.00,0.0485
1087.00,0.0492
1086.00,0.0498
1085.00,0.0505
1084.00,0.0511
1083.00,0.0516
1082.00,0.0521
1081.00,0.0525
1080.00,0.0527
1079.00,0.0529
1078.00,0.0529
1077.00,0.0528
1076.00,0.0526
1075.00,0.0523
1074.00,0.0520
1073.00,0.0517
1072.00,0.0514
1071.00,0.0512
1070.00,0.0510
1069.00,0.0508
1068.00,0.0508
1067.00,0.0509
1066.00,0.0510
1065.00,0.0512
1064.00,0.0514
1063.00,0.0516
1062.00,0.0519
1061.00,0.0522
1060.00,0.0525
1059.00,0.0528
1058.00,0.0531
1057.00,0.0534
1056.00,0.0537
1055.00,0.0540
1054.00,0.0543
1053.00,0.0545
1052.00,0.0547
1051.00,0.0549
1050.00,0.0550
1049.00,0.0550
1048.00,0.0551
1047.00,0.0552
1046.00,0.0553
1045.00,0.0555
1044.00,0.0556
1043.00,0.0557
1042.00,0.0558
1041.00,0.0558
1040.00,0.0559
1039.00,0.0559
1038.00,0.0559
1037.00,0.0559
1036.00,0.0559
1035.00,0.0560
1034.00,0.0562
1033.00,0.0563
1032.00,0.0564
1031.00,0.0565
1030.00,0.0566
1029.00,0.0567
1028.00,0.0567
1027.00,0.0566
1026.00,0.0565
1025.00,0.0563
1024.00,0.0561
1023.00,0.0558
1022.00,0.0554
1021.00,0.0550
1020.00,0.0545
1019.00,0.0540
1018.00,0.0534
1017.00,0.0529
1016.00,0.0523
1015.00,0.0518
1014.00,0.0512
1013.00,0.0506
1012.00,0.0499
1011.00,0.0493
1010.00,0.0488
1009.00,0.0482
1008.00,0.0477
1007.00,0.0472
1006.00,0.0468
1005.00,0.0464
1004.00,0.0461
1003.00,0.0458
1002.00,0.0454
1001.00,0.0450
1000.00,0.0446
999.00,0.0442
998.00,0.0438
997.00,0.0434
996.00,0.0429
995.00,0.0423
994.00,0.0418
993.00,0.0413
992.00,0.0408
991.00,0.0402
990.00,0.0396
989.00,0.0391
988.00,0.0385
987.00,0.0379
986.00,0.0374
985.00,0.0368
984.00,0.0362
983.00,0.0357
982.00,0.0352
981.00,0.0348
980.00,0.0344
979.00,0.0340
978.00,0.0337
977.00,0.0333
976.00,0.0330
975.00,0.0327
974.00,0.0324
973.00,0.0321
972.00,0.0319
971.00,0.0317
970.00,0.0315
969.00,0.0313
968.00,0.0312
967.00,0.0311
966.00,0.0311
965.00,0.0310
964.00,0.0310
963.00,0.0310
962.00,0.0310
961.00,0.0309
960.00,0.0308
959.00,0.0306
958.00,0.0305
957.00,0.0304
956.00,0.0303
955.00,0.0303
954.00,0.0303
953.00,0.0302
952.00,0.0302
951.00,0.0303
950.00,0.0304
949.00,0.0304
948.00,0.0305
947.00,0.0305
946.00,0.0306
945.00,0.0306
944.00,0.0307
943.00,0.0308
942.00,0.0309
941.00,0.0311
940.00,0.0313
939.00,0.0315
938.00,0.0317
937.00,0.0319
936.00,0.0321
935.00,0.0323
934.00,0.0325
933.00,0.0327
932.00,0.0328
931.00,0.0329
930.00,0.0330
929.00,0.0330
928.00,0.0330
927.00,0.0330
926.00,0.0330
925.00,0.0330
924.00,0.0329
923.00,0.0329
922.00,0.0328
921.00,0.0328
920.00,0.0327
919.00,0.0325
918.00,0.0324
917.00,0.0322
916.00,0.0321
915.00,0.0321
914.00,0.0320
913.00,0.0318
912.00,0.0317
911.00,0.0315
910.00,0.0314
909.00,0.0313
908.00,0.0312
907.00,0.0311
906.00,0.0310
905.00,0.0310
904.00,0.0309
903.00,0.0308
902.00,0.0308
901.00,0.0307
900.00,0.0307
899.00,0.0306
898.00,0.0306
897.00,0.0306
896.00,0.0306
895.00,0.0306
894.00,0.0305
893.00,0.0305
892.00,0.0305
891.00,0.0305
890.00,0.0305
889.00,0.0305
888.00,0.0305
887.00,0.0306
886.00,0.0306
885.00,0.0306
884.00,0.0306
883.00,0.0306
882.00,0.0306
881.00,0.0306
880.00,0.0305
879.00,0.0305
878.00,0.0305
877.00,0.0305
876.00,0.0305
875.00,0.0305
874.00,0.0305
873.00,0.0305
872.00,0.0304
871.00,0.0304
870.00,0.0304
869.00,0.0304
868.00,0.0305
867.00,0.0306
866.00,0.0307
865.00,0.0308
864.00,0.0308
863.00,0.0310
862.00,0.0311
861.00,0.0312
860.00,0.0314
859.00,0.0316
858.00,0.0317
857.00,0.0319
856.00,0.0321
855.00,0.0322
854.00,0.0324
853.00,0.0325
852.00,0.0325
851.00,0.0326
850.00,0.0327
849.00,0.0327
848.00,0.0328
847.00,0.0329
846.00,0.0329
845.00,0.0329
844.00,0.0330
843.00,0.0331
842.00,0.0331
841.00,0.0332
840.00,0.0333
839.00,0.0334
838.00,0.0335
837.00,0.0337
836.00,0.0339
835.00,0.0342
834.00,0.0343
833.00,0.0345
832.00,0.0346
831.00,0.0347
830.00,0.0348
829.00,0.0349
828.00,0.0350
827.00,0.0350
826.00,0.0351
825.00,0.0350
824.00,0.0350
823.00,0.0349
822.00,0.0349
821.00,0.0349
820.00,0.0349
819.00,0.0349
818.00,0.0350
817.00,0.0350
816.00,0.0351
815.00,0.0352
814.00,0.0353
813.00,0.0354
812.00,0.0356
811.00,0.0356
810.00,0.0357
809.00,0.0358
808.00,0.0359
807.00,0.0360
806.00,0.0361
805.00,0.0363
804.00,0.0365
803.00,0.0367
802.00,0.0369
801.00,0.0370
800.00,0.0372
799.00,0.0374
798.00,0.0376
797.00,0.0378
796.00,0.0380
795.00,0.0382
794.00,0.0384
793.00,0.0386
792.00,0.0388
791.00,0.0391
790.00,0.0394
789.00,0.0397
788.00,0.0400
787.00,0.0403
786.00,0.0406
785.00,0.0409
784.00,0.0412
783.00,0.0415
782.00,0.0418
781.00,0.0421
780.00,0.0423
779.00,0.0424
778.00,0.0425
777.00,0.0426
776.00,0.0427
775.00,0.0429
774.00,0.0430
773.00,0.0432
772.00,0.0432
771.00,0.0433
770.00,0.0435
769.00,0.0437
768.00,0.0439
767.00,0.0441
766.00,0.0443
765.00,0.0445
764.00,0.0447
763.00,0.0449
762.00,0.0450
761.00,0.0451
760.00,0.0453
759.00,0.0454
758.00,0.0455
757.00,0.0457
756.00,0.0458
755.00,0.0461
754.00,0.0463
753.00,0.0465
752.00,0.0468
751.00,0.0470
750.00,0.0472
749.00,0.0475
748.00,0.0477
747.00,0.0480
746.00,0.0482
745.00,0.0484
744.00,0.0486
743.00,0.0488
742.00,0.0489
741.00,0.0491
740.00,0.0492
739.00,0.0493
738.00,0.0494
737.00,0.0495
736.00,0.0497
735.00,0.0499
734.00,0.0501
733.00,0.0503
732.00,0.0506
731.00,0.0508
730.00,0.0511
729.00,0.0514
728.00,0.0518
727.00,0.0522
726.00,0.0526
725.00,0.0531
724.00,0.0536
723.00,0.0541
722.00,0.0546
721.00,0.0550
720.00,0.0554
719.00,0.0558
718.00,0.0562
717.00,0.0566
716.00,0.0571
715.00,0.0575
714.00,0.0580
713.00,0.0584
712.00,0.0589
711.00,0.0594
710.00,0.0598
709.00,0.0603
708.00,0.0608
707.00,0.0613
706.00,0.0618
705.00,0.0623
704.00,0.0628
703.00,0.0633
702.00,0.0637
701.00,0.0641
700.00,0.0645
699.00,0.0647
698.00,0.0649
697.00,0.0649
696.00,0.0649
695.00,0.0648
694.00,0.0648
693.00,0.0648
692.00,0.0647
691.00,0.0647
690.00,0.0647
689.00,0.0647
688.00,0.0648
687.00,0.0649
686.00,0.0650
685.00,0.0651
684.00,0.0653
683.00,0.0655
682.00,0.0656
681.00,0.0656
680.00,0.0657
679.00,0.0658
678.00,0.0660
677.00,0.0662
676.00,0.0664
675.00,0.0665
674.00,0.0666
673.00,0.0668
672.00,0.0669
671.00,0.0671
670.00,0.0674
669.00,0.0678
668.00,0.0683
667.00,0.0687
666.00,0.0687
665.00,0.0686
664.00,0.0685
663.00,0.0686
662.00,0.0687
661.00,0.0688
660.00,0.0689
659.00,0.0691
658.00,0.0692
657.00,0.0693
656.00,0.0694
655.00,0.0695
654.00,0.0697
653.00,0.0698
652.00,0.0699
651.00,0.0700
650.00,0.0700
649.00,0.0701
648.00,0.0702
647.00,0.0704
646.00,0.0704
645.00,0.0705
644.00,0.0706
643.00,0.0707
642.00,0.0708
641.00,0.0708
640.00,0.0709
639.00,0.0710
638.00,0.0711
637.00,0.0711
636.00,0.0712
635.00,0.0713
634.00,0.0714
633.00,0.0715
632.00,0.0717
631.00,0.0720
630.00,0.0723
629.00,0.0725
628.00,0.0728
627.00,0.0729
626.00,0.0731
625.00,0.0733
624.00,0.0735
623.00,0.0736
622.00,0.0738
621.00,0.0740
620.00,0.0742
619.00,0.0744
618.00,0.0745
617.00,0.0746
616.00,0.0747
615.00,0.0748
614.00,0.0749
613.00,0.0749
612.00,0.0749
611.00,0.0750
610.00,0.0750
609.00,0.0751
608.00,0.0752
607.00,0.0754
606.00,0.0755
605.00,0.0756
604.00,0.0757
603.00,0.0758
602.00,0.0758
601.00,0.0758
600.00,0.0757
599.00,0.0757
598.00,0.0758
597.00,0.0760
596.00,0.0762
595.00,0.0764
594.00,0.0765
593.00,0.0767
592.00,0.0768
591.00,0.0769
590.00,0.0770
589.00,0.0771
588.00,0.0772
587.00,0.0775
586.00,0.0777
585.00,0.0780
584.00,0.0782
583.00,0.0784
582.00,0.0786
581.00,0.0788
580.00,0.0792
579.00,0.0795
578.00,0.0796
577.00,0.0797
576.00,0.0797
575.00,0.0797
574.00,0.0798
573.00,0.0799
572.00,0.0800
571.00,0.0802
570.00,0.0803
569.00,0.0805
568.00,0.0806
567.00,0.0807
566.00,0.0808
565.00,0.0809
564.00,0.0810
563.00,0.0812
562.00,0.0813
561.00,0.0814
560.00,0.0815
559.00,0.0816
558.00,0.0817
557.00,0.0818
556.00,0.0820
555.00,0.0821
554.00,0.0821
553.00,0.0821
552.00,0.0822
551.00,0.0823
550.00,0.0824
549.00,0.0826
548.00,0.0828
547.00,0.0830
546.00,0.0832
545.00,0.0832
544.00,0.0833
543.00,0.0833
542.00,0.0834
541.00,0.0835
540.00,0.0838
539.00,0.0840
538.00,0.0842
537.00,0.0844
536.00,0.0846
535.00,0.0848
534.00,0.0848
533.00,0.0847
532.00,0.0847
531.00,0.0847
530.00,0.0848
529.00,0.0848
528.00,0.0850
527.00,0.0852
526.00,0.0853
525.00,0.0854
524.00,0.0855
523.00,0.0856
522.00,0.0856
521.00,0.0855
520.00,0.0854
519.00,0.0854
518.00,0.0855
517.00,0.0856
516.00,0.0856
515.00,0.0856
514.00,0.0854
513.00,0.0852
512.00,0.0850
511.00,0.0848
510.00,0.0846
509.00,0.0845
508.00,0.0845
507.00,0.0844
506.00,0.0844
505.00,0.0843
504.00,0.0844
503.00,0.0843
502.00,0.0843
501.00,0.0843
500.00,0.0844
499.00,0.0843
498.00,0.0841
497.00,0.0840
496.00,0.0839
495.00,0.0838
494.00,0.0836
493.00,0.0836
492.00,0.0838
491.00,0.0840
490.00,0.0841
489.00,0.0840
488.00,0.0839
487.00,0.0838
486.00,0.0837
485.00,0.0836
484.00,0.0835
483.00,0.0834
482.00,0.0831
481.00,0.0829
480.00,0.0827
479.00,0.0827
478.00,0.0829
477.00,0.0832
476.00,0.0833
475.00,0.0833
474.00,0.0831
473.00,0.0828
472.00,0.0825
471.00,0.0823
470.00,0.0821
469.00,0.0821
468.00,0.0822
467.00,0.0822
466.00,0.0821
465.00,0.0819
464.00,0.0816
463.00,0.0815
462.00,0.0815
461.00,0.0815
460.00,0.0815
459.00,0.0812
458.00,0.0808
457.00,0.0805
456.00,0.0804
455.00,0.0805
454.00,0.0806
453.00,0.0806
452.00,0.0804
451.00,0.0800
450.00,0.0794
449.00,0.0791
448.00,0.0790
447.00,0.0790
446.00,0.0791
445.00,0.0792
444.00,0.0792
443.00,0.0788
442.00,0.0782
441.00,0.0777
440.00,0.0776
439.00,0.0777
438.00,0.0776
437.00,0.0772
436.00,0.0764
435.00,0.0756
434.00,0.0751
433.00,0.0753
432.00,0.0758
431.00,0.0762
430.00,0.0763
429.00,0.0761
428.00,0.0758
427.00,0.0756
426.00,0.0754
425.00,0.0754
424.00,0.0756
423.00,0.0758
422.00,0.0757
421.00,0.0753
420.00,0.0746
419.00,0.0736
418.00,0.0729
417.00,0.0728
416.00,0.0734
415.00,0.0739
414.00,0.0742
413.00,0.0742
412.00,0.0739
411.00,0.0731
410.00,0.0720
409.00,0.0713
408.00,0.0716
407.00,0.0725
406.00,0.0731
405.00,0.0729
404.00,0.0720
403.00,0.0712
402.00,0.0708
401.00,0.0708
400.00,0.0710
