Created as New Dataset,Sample 1116 By YargerLab Date Tuesday, September 29 2026
cm-1,A
4000.00,0.0071
3999.00,0.0071
3998.00,0.0071
3997.00,0.0071
3996.00,0.0071
3995.00,0.0071
3994.00,0.0071
3993.00,0.0071
3992.00,0.0071
3991.00,0.0071
3990.00,0.0071
3989.00,0.0071
3988.00,0.0071
3987.00,0.0071
3986.00,0.0071
3985.00,0.0071
3984.00,0.0071
3983.00,0.0071
3982.00,0.0071
3981.00,0.0071
3980.00,0.0071
3979.00,0.0071
3978.00,0.0071
3977.00,0.0071
3976.00,0.0071
3975.00,0.0071
3974.00,0.0071
3973.00,0.0071
3972.00,0.0071
3971.00,0.0070
3970.00,0.0070
3969.00,0.0070
3968.00,0.0070
3967.00,0.0071
3966.00,0.0071
3965.00,0.0071
3964.00,0.0071
3963.00,0.0071
3962.00,0.0071
3961.00,0.0071
3960.00,0.0071
3959.00,0.0071
3958.00,0.0071
3957.00,0.0071
3956.00,0.0071
3955.00,0.0071
3954.00,0.0071
3953.00,0.0071
3952.00,0.0071
3951.00,0.0071
3950.00,0.0071
3949.00,0.0071
3948.00,0.0071
3947.00,0.0071
3946.00,0.0071
3945.00,0.0071
3944.00,0.0071
3943.00,0.0071
3942.00,0.0071
3941.00,0.0071
3940.00,0.0071
3939.00,0.0071
3938.00,0.0071
3937.00,0.0070
3936.00,0.0070
3935.00,0.0070
3934.00,0.0070
3933.00,0.0070
3932.00,0.0070
3931.00,0.0070
3930.00,0.0070
3929.00,0.0071
3928.00,0.0071
3927.00,0.0071
3926.00,0.0071
3925.00,0.0071
3924.00,0.0071
3923.00,0.0071
3922.00,0.0070
3921.00,0.0070
3920.00,0.0070
3919.00,0.0070
3918.00,0.0070
3917.00,0.0070
3916.00,0.0070
3915.00,0.0070
3914.00,0.0070
3913.00,0.0070
3912.00,0.0070
3911.00,0.0070
3910.00,0.0070
3909.00,0.0070
3908.00,0.0070
3907.00,0.0070
3906.00,0.0070
3905.00,0.0070
3904.00,0.0070
3903.00,0.0069
3902.00,0.0069
3901.00,0.0069
3900.00,0.0069
3899.00,0.0069
3898.00,0.0070
3897.00,0.0070
3896.00,0.0070
3895.00,0.0070
3894.00,0.0070
3893.00,0.0070
3892.00,0.0070
3891.00,0.0070
3890.00,0.0070
3889.00,0.0069
3888.00,0.0069
3887.00,0.0069
3886.00,0.0069
3885.00,0.0069
3884.00,0.0069
3883.00,0.0069
3882.00,0.0069
3881.00,0.0069
3880.00,0.0070
3879.00,0.0070
3878.00,0.0070
3877.00,0.0070
3876.00,0.0069
3875.00,0.0069
3874.00,0.0069
3873.00,0.0069
3872.00,0.0069
3871.00,0.0068
3870.00,0.0068
3869.00,0.0068
3868.00,0.0068
3867.00,0.0068
3866.00,0.0068
3865.00,0.0069
3864.00,0.0069
3863.00,0.0069
3862.00,0.0069
3861.00,0.0069
3860.00,0.0069
3859.00,0.0069
3858.00,0.0069
3857.00,0.0069
3856.00,0.0069
3855.00,0.0069
3854.00,0.0068
3853.00,0.0068
3852.00,0.0068
3851.00,0.0068
3850.00,0.0068
3849.00,0.0068
3848.00,0.0068
3847.00,0.0069
3846.00,0.0069
3845.00,0.0069
3844.00,0.0069
3843.00,0.0069
3842.00,0.0068
3841.00,0.0068
3840.00,0.0068
3839.00,0.0069
3838.00,0.0069
3837.00,0.0069
3836.00,0.0068
3835.00,0.0068
3834.00,0.0068
3833.00,0.0068
3832.00,0.0069
3831.00,0.0069
3830.00,0.0069
3829.00,0.0069
3828.00,0.0069
3827.00,0.0068
3826.00,0.0068
3825.00,0.0068
3824.00,0.0068
3823.00,0.0068
3822.00,0.0068
3821.00,0.0068
3820.00,0.0068
3819.00,0.0068
3818.00,0.0068
3817.00,0.0067
3816.00,0.0067
3815.00,0.0068
3814.00,0.0068
3813.00,0.0068
3812.00,0.0068
3811.00,0.0068
3810.00,0.0068
3809.00,0.0068
3808.00,0.0068
3807.00,0.0068
3806.00,0.0068
3805.00,0.0068
3804.00,0.0068
3803.00,0.0067
3802.00,0.0067
3801.00,0.0067
3800.00,0.0067
3799.00,0.0068
3798.00,0.0068
3797.00,0.0068
3796.00,0.0068
3795.00,0.0068
3794.00,0.0068
3793.00,0.0068
3792.00,0.0068
3791.00,0.0068
3790.00,0.0068
3789.00,0.0068
3788.00,0.0068
3787.00,0.0069
3786.00,0.0069
3785.00,0.0069
3784.00,0.0069
3783.00,0.0069
3782.00,0.0068
3781.00,0.0068
3780.00,0.0068
3779.00,0.0068
3778.00,0.0068
3777.00,0.0068
3776.00,0.0068
3775.00,0.0068
3774.00,0.0068
3773.00,0.0068
3772.00,0.0068
3771.00,0.0068
3770.00,0.0068
3769.00,0.0068
3768.00,0.0068
3767.00,0.0068
3766.00,0.0068
3765.00,0.0068
3764.00,0.0068
3763.00,0.0067
3762.00,0.0067
3761.00,0.0067
3760.00,0.0067
3759.00,0.0067
3758.00,0.0068
3757.00,0.0068
3756.00,0.0068
3755.00,0.0068
3754.00,0.0067
3753.00,0.0067
3752.00,0.0067
3751.00,0.0067
3750.00,0.0067
3749.00,0.0066
3748.00,0.0066
3747.00,0.0067
3746.00,0.0067
3745.00,0.0067
3744.00,0.0067
3743.00,0.0066
3742.00,0.0066
3741.00,0.0066
3740.00,0.0066
3739.00,0.0065
3738.00,0.0065
3737.00,0.0065
3736.00,0.0065
3735.00,0.0065
3734.00,0.0065
3733.00,0.0065
3732.00,0.0065
3731.00,0.0065
3730.00,0.0065
3729.00,0.0065
3728.00,0.0065
3727.00,0.0065
3726.00,0.0065
3725.00,0.0065
3724.00,0.0065
3723.00,0.0065
3722.00,0.0065
3721.00,0.0065
3720.00,0.0065
3719.00,0.0065
3718.00,0.0066
3717.00,0.0066
3716.00,0.0066
3715.00,0.0066
3714.00,0.0066
3713.00,0.0066
3712.00,0.0066
3711.00,0.0066
3710.00,0.0065
3709.00,0.0065
3708.00,0.0065
3707.00,0.0065
3706.00,0.0065
3705.00,0.0065
3704.00,0.0065
3703.00,0.0065
3702.00,0.0065
3701.00,0.0065
3700.00,0.0065
3699.00,0.0065
3698.00,0.0065
3697.00,0.0065
3696.00,0.0065
3695.00,0.0065
3694.00,0.0065
3693.00,0.0065
3692.00,0.0066
3691.00,0.0066
3690.00,0.0066
3689.00,0.0065
3688.00,0.0065
3687.00,0.0065
3686.00,0.0065
3685.00,0.0065
3684.00,0.0066
3683.00,0.0066
3682.00,0.0066
3681.00,0.0067
3680.00,0.0067
3679.00,0.0067
3678.00,0.0067
3677.00,0.0067
3676.00,0.0067
3675.00,0.0067
3674.00,0.0067
3673.00,0.0067
3672.00,0.0067
3671.00,0.0067
3670.00,0.0067
3669.00,0.0068
3668.00,0.0068
3667.00,0.0069
3666.00,0.0069
3665.00,0.0069
3664.00,0.0070
3663.00,0.0070
3662.00,0.0070
3661.00,0.0070
3660.00,0.0070
3659.00,0.0070
3658.00,0.0070
3657.00,0.0071
3656.00,0.0071
3655.00,0.0071
3654.00,0.0071
3653.00,0.0071
3652.00,0.0071
3651.00,0.0072
3650.00,0.0072
3649.00,0.0072
3648.00,0.0073
3647.00,0.0073
3646.00,0.0073
3645.00,0.0074
3644.00,0.0074
3643.00,0.0075
3642.00,0.0075
3641.00,0.0076
3640.00,0.0076
3639.00,0.0076
3638.00,0.0077
3637.00,0.0077
3636.00,0.0077
3635.00,0.0078
3634.00,0.0078
3633.00,0.0078
3632.00,0.0079
3631.00,0.0079
3630.00,0.0079
3629.00,0.0079
3628.00,0.0079
3627.00,0.0080
3626.00,0.0080
3625.00,0.0081
3624.00,0.0081
3623.00,0.0082
3622.00,0.0082
3621.00,0.0083
3620.00,0.0084
3619.00,0.0084
3618.00,0.0084
3617.00,0.0085
3616.00,0.0085
3615.00,0.0085
3614.00,0.0086
3613.00,0.0086
3612.00,0.0087
3611.00,0.0087
3610.00,0.0088
3609.00,0.0088
3608.00,0.0089
3607.00,0.0090
3606.00,0.0090
3605.00,0.0091
3604.00,0.0091
3603.00,0.0092
3602.00,0.0092
3601.00,0.0093
3600.00,0.0093
3599.00,0.0094
3598.00,0.0094
3597.00,0.0094
3596.00,0.0095
3595.00,0.0095
3594.00,0.0096
3593.00,0.0096
3592.00,0.0097
3591.00,0.0097
3590.00,0.0098
3589.00,0.0098
3588.00,0.0099
3587.00,0.0100
3586.00,0.0100
3585.00,0.0101
3584.00,0.0101
3583.00,0.0102
3582.00,0.0102
3581.00,0.0103
3580.00,0.0104
3579.00,0.0105
3578.00,0.0105
3577.00,0.0106
3576.00,0.0107
3575.00,0.0107
3574.00,0.0108
3573.00,0.0109
3572.00,0.0109
3571.00,0.0110
3570.00,0.0110
3569.00,0.0111
3568.00,0.0112
3567.00,0.0113
3566.00,0.0113
3565.00,0.0114
3564.00,0.0114
3563.00,0.0115
3562.00,0.0116
3561.00,0.0116
3560.00,0.0117
3559.00,0.0117
3558.00,0.0118
3557.00,0.0119
3556.00,0.0119
3555.00,0.0120
3554.00,0.0121
3553.00,0.0122
3552.00,0.0122
3551.00,0.0123
3550.00,0.0123
3549.00,0.0124
3548.00,0.0125
3547.00,0.0125
3546.00,0.0126
3545.00,0.0127
3544.00,0.0127
3543.00,0.0128
3542.00,0.0129
3541.00,0.0129
3540.00,0.0130
3539.00,0.0131
3538.00,0.0132
3537.00,0.0133
3536.00,0.0133
3535.00,0.0134
3534.00,0.0134
3533.00,0.0135
3532.00,0.0136
3531.00,0.0136
3530.00,0.0137
3529.00,0.0137
3528.00,0.0138
3527.00,0.0138
3526.00,0.0139
3525.00,0.0139
3524.00,0.0140
3523.00,0.0141
3522.00,0.0142
3521.00,0.0142
3520.00,0.0143
3519.00,0.0143
3518.00,0.0144
3517.00,0.0144
3516.00,0.0145
3515.00,0.0146
3514.00,0.0146
3513.00,0.0147
3512.00,0.0147
3511.00,0.0148
3510.00,0.0148
3509.00,0.0149
3508.00,0.0150
3507.00,0.0150
3506.00,0.0151
3505.00,0.0152
3504.00,0.0152
3503.00,0.0153
3502.00,0.0154
3501.00,0.0155
3500.00,0.0156
3499.00,0.0156
3498.00,0.0157
3497.00,0.0157
3496.00,0.0158
3495.00,0.0159
3494.00,0.0159
3493.00,0.0160
3492.00,0.0160
3491.00,0.0161
3490.00,0.0161
3489.00,0.0162
3488.00,0.0163
3487.00,0.0164
3486.00,0.0164
3485.00,0.0165
3484.00,0.0166
3483.00,0.0166
3482.00,0.0167
3481.00,0.0168
3480.00,0.0168
3479.00,0.0169
3478.00,0.0170
3477.00,0.0170
3476.00,0.0171
3475.00,0.0172
3474.00,0.0173
3473.00,0.0173
3472.00,0.0174
3471.00,0.0175
3470.00,0.0175
3469.00,0.0176
3468.00,0.0177
3467.00,0.0177
3466.00,0.0178
3465.00,0.0178
3464.00,0.0179
3463.00,0.0179
3462.00,0.0180
3461.00,0.0181
3460.00,0.0182
3459.00,0.0182
3458.00,0.0183
3457.00,0.0183
3456.00,0.0184
3455.00,0.0184
3454.00,0.0185
3453.00,0.0186
3452.00,0.0186
3451.00,0.0187
3450.00,0.0188
3449.00,0.0188
3448.00,0.0189
3447.00,0.0190
3446.00,0.0190
3445.00,0.0191
3444.00,0.0192
3443.00,0.0193
3442.00,0.0194
3441.00,0.0195
3440.00,0.0195
3439.00,0.0196
3438.00,0.0197
3437.00,0.0198
3436.00,0.0199
3435.00,0.0200
3434.00,0.0200
3433.00,0.0201
3432.00,0.0202
3431.00,0.0202
3430.00,0.0203
3429.00,0.0204
3428.00,0.0205
3427.00,0.0205
3426.00,0.0206
3425.00,0.0206
3424.00,0.0207
3423.00,0.0208
3422.00,0.0209
3421.00,0.0210
3420.00,0.0211
3419.00,0.0211
3418.00,0.0212
3417.00,0.0213
3416.00,0.0213
3415.00,0.0214
3414.00,0.0215
3413.00,0.0216
3412.00,0.0217
3411.00,0.0218
3410.00,0.0219
3409.00,0.0219
3408.00,0.0220
3407.00,0.0221
3406.00,0.0221
3405.00,0.0222
3404.00,0.0223
3403.00,0.0223
3402.00,0.0224
3401.00,0.0225
3400.00,0.0226
3399.00,0.0226
3398.00,0.0227
3397.00,0.0228
3396.00,0.0228
3395.00,0.0229
3394.00,0.0230
3393.00,0.0230
3392.00,0.0231
3391.00,0.0232
3390.00,0.0233
3389.00,0.0233
3388.00,0.0234
3387.00,0.0235
3386.00,0.0236
3385.00,0.0237
3384.00,0.0238
3383.00,0.0238
3382.00,0.0239
3381.00,0.0240
3380.00,0.0240
3379.00,0.0241
3378.00,0.0242
3377.00,0.0243
3376.00,0.0244
3375.00,0.0244
3374.00,0.0245
3373.00,0.0246
3372.00,0.0247
3371.00,0.0248
3370.00,0.0249
3369.00,0.0250
3368.00,0.0251
3367.00,0.0251
3366.00,0.0252
3365.00,0.0253
3364.00,0.0254
3363.00,0.0256
3362.00,0.0257
3361.00,0.0258
3360.00,0.0259
3359.00,0.0260
3358.00,0.0261
3357.00,0.0262
3356.00,0.0263
3355.00,0.0264
3354.00,0.0265
3353.00,0.0266
3352.00,0.0267
3351.00,0.0268
3350.00,0.0269
3349.00,0.0271
3348.00,0.0272
3347.00,0.0273
3346.00,0.0274
3345.00,0.0275
3344.00,0.0276
3343.00,0.0277
3342.00,0.0279
3341.00,0.0280
3340.00,0.0281
3339.00,0.0282
3338.00,0.0283
3337.00,0.0284
3336.00,0.0286
3335.00,0.0288
3334.00,0.0289
3333.00,0.0290
3332.00,0.0292
3331.00,0.0293
3330.00,0.0294
3329.00,0.0295
3328.00,0.0296
3327.00,0.0298
3326.00,0.0299
3325.00,0.0301
3324.00,0.0303
3323.00,0.0304
3322.00,0.0306
3321.00,0.0308
3320.00,0.0309
3319.00,0.0310
3318.00,0.0312
3317.00,0.0314
3316.00,0.0315
3315.00,0.0317
3314.00,0.0319
3313.00,0.0320
3312.00,0.0321
3311.00,0.0322
3310.00,0.0323
3309.00,0.0324
3308.00,0.0326
3307.00,0.0327
3306.00,0.0329
3305.00,0.0331
3304.00,0.0333
3303.00,0.0335
3302.00,0.0337
3301.00,0.0339
3300.00,0.0340
3299.00,0.0342
3298.00,0.0343
3297.00,0.0344
3296.00,0.0346
3295.00,0.0347
3294.00,0.0348
3293.00,0.0349
3292.00,0.0351
3291.00,0.0352
3290.00,0.0354
3289.00,0.0355
3288.00,0.0357
3287.00,0.0358
3286.00,0.0359
3285.00,0.0360
3284.00,0.0361
3283.00,0.0361
3282.00,0.0362
3281.00,0.0362
3280.00,0.0363
3279.00,0.0363
3278.00,0.0363
3277.00,0.0363
3276.00,0.0363
3275.00,0.0363
3274.00,0.0362
3273.00,0.0362
3272.00,0.0361
3271.00,0.0361
3270.00,0.0361
3269.00,0.0360
3268.00,0.0360
3267.00,0.0359
3266.00,0.0358
3265.00,0.0357
3264.00,0.0357
3263.00,0.0356
3262.00,0.0355
3261.00,0.0353
3260.00,0.0352
3259.00,0.0351
3258.00,0.0349
3257.00,0.0347
3256.00,0.0346
3255.00,0.0344
3254.00,0.0343
3253.00,0.0342
3252.00,0.0341
3251.00,0.0339
3250.00,0.0338
3249.00,0.0336
3248.00,0.0334
3247.00,0.0332
3246.00,0.0331
3245.00,0.0330
3244.00,0.0330
3243.00,0.0329
3242.00,0.0327
3241.00,0.0326
3240.00,0.0325
3239.00,0.0324
3238.00,0.0323
3237.00,0.0321
3236.00,0.0320
3235.00,0.0318
3234.00,0.0317
3233.00,0.0316
3232.00,0.0316
3231.00,0.0315
3230.00,0.0315
3229.00,0.0314
3228.00,0.0313
3227.00,0.0312
3226.00,0.0311
3225.00,0.0310
3224.00,0.0310
3223.00,0.0309
3222.00,0.0308
3221.00,0.0307
3220.00,0.0307
3219.00,0.0306
3218.00,0.0305
3217.00,0.0304
3216.00,0.0304
3215.00,0.0303
3214.00,0.0302
3213.00,0.0302
3212.00,0.0301
3211.00,0.0300
3210.00,0.0299
3209.00,0.0299
3208.00,0.0298
3207.00,0.0297
3206.00,0.0296
3205.00,0.0295
3204.00,0.0295
3203.00,0.0294
3202.00,0.0294
3201.00,0.0293
3200.00,0.0292
3199.00,0.0292
3198.00,0.0291
3197.00,0.0290
3196.00,0.0289
3195.00,0.0289
3194.00,0.0288
3193.00,0.0287
3192.00,0.0286
3191.00,0.0285
3190.00,0.0284
3189.00,0.0284
3188.00,0.0283
3187.00,0.0282
3186.00,0.0282
3185.00,0.0281
3184.00,0.0280
3183.00,0.0279
3182.00,0.0278
3181.00,0.0277
3180.00,0.0276
3179.00,0.0275
3178.00,0.0274
3177.00,0.0273
3176.00,0.0273
3175.00,0.0272
3174.00,0.0271
3173.00,0.0270
3172.00,0.0270
3171.00,0.0269
3170.00,0.0268
3169.00,0.0267
3168.00,0.0266
3167.00,0.0265
3166.00,0.0264
3165.00,0.0263
3164.00,0.0262
3163.00,0.0261
3162.00,0.0260
3161.00,0.0260
3160.00,0.0259
3159.00,0.0258
3158.00,0.0257
3157.00,0.0256
3156.00,0.0255
3155.00,0.0254
3154.00,0.0253
3153.00,0.0253
3152.00,0.0252
3151.00,0.0251
3150.00,0.0251
3149.00,0.0250
3148.00,0.0250
3147.00,0.0249
3146.00,0.0248
3145.00,0.0248
3144.00,0.0247
3143.00,0.0246
3142.00,0.0245
3141.00,0.0245
3140.00,0.0244
3139.00,0.0243
3138.00,0.0243
3137.00,0.0243
3136.00,0.0242
3135.00,0.0242
3134.00,0.0241
3133.00,0.0241
3132.00,0.0240
3131.00,0.0239
3130.00,0.0239
3129.00,0.0239
3128.00,0.0239
3127.00,0.0238
3126.00,0.0238
3125.00,0.0237
3124.00,0.0237
3123.00,0.0236
3122.00,0.0235
3121.00,0.0234
3120.00,0.0234
3119.00,0.0234
3118.00,0.0233
3117.00,0.0233
3116.00,0.0233
3115.00,0.0233
3114.00,0.0233
3113.00,0.0233
3112.00,0.0233
3111.00,0.0233
3110.00,0.0233
3109.00,0.0233
3108.00,0.0233
3107.00,0.0233
3106.00,0.0233
3105.00,0.0234
3104.00,0.0234
3103.00,0.0233
3102.00,0.0233
3101.00,0.0233
3100.00,0.0234
3099.00,0.0234
3098.00,0.0234
3097.00,0.0235
3096.00,0.0235
3095.00,0.0235
3094.00,0.0235
3093.00,0.0235
3092.00,0.0235
3091.00,0.0235
3090.00,0.0235
3089.00,0.0235
3088.00,0.0235
3087.00,0.0235
3086.00,0.0235
3085.00,0.0235
3084.00,0.0235
3083.00,0.0235
3082.00,0.0235
3081.00,0.0235
3080.00,0.0235
3079.00,0.0235
3078.00,0.0236
3077.00,0.0236
3076.00,0.0237
3075.00,0.0238
3074.00,0.0238
3073.00,0.0238
3072.00,0.0237
3071.00,0.0237
3070.00,0.0237
3069.00,0.0236
3068.00,0.0236
3067.00,0.0236
3066.00,0.0235
3065.00,0.0236
3064.00,0.0236
3063.00,0.0236
3062.00,0.0236
3061.00,0.0235
3060.00,0.0235
3059.00,0.0234
3058.00,0.0233
3057.00,0.0232
3056.00,0.0231
3055.00,0.0231
3054.00,0.0230
3053.00,0.0229
3052.00,0.0229
3051.00,0.0228
3050.00,0.0227
3049.00,0.0227
3048.00,0.0226
3047.00,0.0225
3046.00,0.0224
3045.00,0.0223
3044.00,0.0222
3043.00,0.0222
3042.00,0.0221
3041.00,0.0221
3040.00,0.0220
3039.00,0.0220
3038.00,0.0219
3037.00,0.0219
3036.00,0.0218
3035.00,0.0217
3034.00,0.0216
3033.00,0.0216
3032.00,0.0216
3031.00,0.0216
3030.00,0.0215
3029.00,0.0215
3028.00,0.0214
3027.00,0.0213
3026.00,0.0212
3025.00,0.0211
3024.00,0.0211
3023.00,0.0210
3022.00,0.0209
3021.00,0.0208
3020.00,0.0207
3019.00,0.0206
3018.00,0.0205
3017.00,0.0204
3016.00,0.0204
3015.00,0.0203
3014.00,0.0202
3013.00,0.0201
3012.00,0.0201
3011.00,0.0201
3010.00,0.0202
3009.00,0.0202
3008.00,0.0202
3007.00,0.0201
3006.00,0.0201
3005.00,0.0201
3004.00,0.0201
3003.00,0.0200
3002.00,0.0200
3001.00,0.0200
3000.00,0.0200
2999.00,0.0199
2998.00,0.0199
2997.00,0.0200
2996.00,0.0200
2995.00,0.0200
2994.00,0.0200
2993.00,0.0201
2992.00,0.0202
2991.00,0.0203
2990.00,0.0204
2989.00,0.0205
2988.00,0.0206
2987.00,0.0207
2986.00,0.0209
2985.00,0.0210
2984.00,0.0211
2983.00,0.0213
2982.00,0.0214
2981.00,0.0215
2980.00,0.0217
2979.00,0.0219
2978.00,0.0222
2977.00,0.0224
2976.00,0.0226
2975.00,0.0228
2974.00,0.0230
2973.00,0.0232
2972.00,0.0234
2971.00,0.0236
2970.00,0.0238
2969.00,0.0240
2968.00,0.0242
2967.00,0.0243
2966.00,0.0245
2965.00,0.0247
2964.00,0.0248
2963.00,0.0249
2962.00,0.0250
2961.00,0.0251
2960.00,0.0251
2959.00,0.0251
2958.00,0.0251
2957.00,0.0251
2956.00,0.0250
2955.00,0.0249
2954.00,0.0248
2953.00,0.0247
2952.00,0.0246
2951.00,0.0245
2950.00,0.0244
2949.00,0.0243
2948.00,0.0243
2947.00,0.0243
2946.00,0.0243
2945.00,0.0243
2944.00,0.0244
2943.00,0.0246
2942.00,0.0247
2941.00,0.0249
2940.00,0.0250
2939.00,0.0251
2938.00,0.0253
2937.00,0.0255
2936.00,0.0257
2935.00,0.0258
2934.00,0.0259
2933.00,0.0260
2932.00,0.0261
2931.00,0.0262
2930.00,0.0263
2929.00,0.0263
2928.00,0.0264
2927.00,0.0264
2926.00,0.0264
2925.00,0.0264
2924.00,0.0264
2923.00,0.0263
2922.00,0.0263
2921.00,0.0262
2920.00,0.0260
2919.00,0.0259
2918.00,0.0257
2917.00,0.0254
2916.00,0.0252
2915.00,0.0249
2914.00,0.0247
2913.00,0.0245
2912.00,0.0243
2911.00,0.0241
2910.00,0.0239
2909.00,0.0237
2908.00,0.0235
2907.00,0.0234
2906.00,0.0232
2905.00,0.0231
2904.00,0.0230
2903.00,0.0228
2902.00,0.0227
2901.00,0.0226
2900.00,0.0225
2899.00,0.0223
2898.00,0.0222
2897.00,0.0221
2896.00,0.0220
2895.00,0.0220
2894.00,0.0219
2893.00,0.0218
2892.00,0.0218
2891.00,0.0217
2890.00,0.0217
2889.00,0.0216
2888.00,0.0216
2887.00,0.0216
2886.00,0.0216
2885.00,0.0215
2884.00,0.0216
2883.00,0.0216
2882.00,0.0216
2881.00,0.0217
2880.00,0.0218
2879.00,0.0218
2878.00,0.0219
2877.00,0.0219
2876.00,0.0220
2875.00,0.0220
2874.00,0.0220
2873.00,0.0219
2872.00,0.0219
2871.00,0.0218
2870.00,0.0217
2869.00,0.0216
2868.00,0.0215
2867.00,0.0213
2866.00,0.0212
2865.00,0.0211
2864.00,0.0210
2863.00,0.0210
2862.00,0.0209
2861.00,0.0209
2860.00,0.0209
2859.00,0.0209
2858.00,0.0209
2857.00,0.0209
2856.00,0.0209
2855.00,0.0209
2854.00,0.0209
2853.00,0.0208
2852.00,0.0207
2851.00,0.0206
2850.00,0.0205
2849.00,0.0203
2848.00,0.0201
2847.00,0.0199
2846.00,0.0197
2845.00,0.0195
2844.00,0.0193
2843.00,0.0191
2842.00,0.0190
2841.00,0.0188
2840.00,0.0186
2839.00,0.0185
2838.00,0.0184
2837.00,0.0183
2836.00,0.0183
2835.00,0.0182
2834.00,0.0181
2833.00,0.0181
2832.00,0.0180
2831.00,0.0180
2830.00,0.0179
2829.00,0.0178
2828.00,0.0178
2827.00,0.0178
2826.00,0.0177
2825.00,0.0177
2824.00,0.0176
2823.00,0.0176
2822.00,0.0175
2821.00,0.0175
2820.00,0.0175
2819.00,0.0175
2818.00,0.0174
2817.00,0.0174
2816.00,0.0174
2815.00,0.0173
2814.00,0.0173
2813.00,0.0172
2812.00,0.0172
2811.00,0.0171
2810.00,0.0171
2809.00,0.0171
2808.00,0.0170
2807.00,0.0170
2806.00,0.0170
2805.00,0.0169
2804.00,0.0169
2803.00,0.0169
2802.00,0.0168
2801.00,0.0168
2800.00,0.0168
2799.00,0.0167
2798.00,0.0167
2797.00,0.0167
2796.00,0.0167
2795.00,0.0167
2794.00,0.0166
2793.00,0.0166
2792.00,0.0166
2791.00,0.0165
2790.00,0.0165
2789.00,0.0165
2788.00,0.0164
2787.00,0.0164
2786.00,0.0164
2785.00,0.0164
2784.00,0.0164
2783.00,0.0163
2782.00,0.0163
2781.00,0.0163
2780.00,0.0162
2779.00,0.0162
2778.00,0.0162
2777.00,0.0161
2776.00,0.0161
2775.00,0.0161
2774.00,0.0160
2773.00,0.0160
2772.00,0.0160
2771.00,0.0159
2770.00,0.0159
2769.00,0.0159
2768.00,0.0158
2767.00,0.0158
2766.00,0.0158
2765.00,0.0158
2764.00,0.0158
2763.00,0.0158
2762.00,0.0157
2761.00,0.0157
2760.00,0.0157
2759.00,0.0156
2758.00,0.0156
2757.00,0.0156
2756.00,0.0155
2755.00,0.0155
2754.00,0.0155
2753.00,0.0155
2752.00,0.0154
2751.00,0.0154
2750.00,0.0154
2749.00,0.0153
2748.00,0.0153
2747.00,0.0153
2746.00,0.0153
2745.00,0.0153
2744.00,0.0153
2743.00,0.0152
2742.00,0.0152
2741.00,0.0152
2740.00,0.0151
2739.00,0.0151
2738.00,0.0151
2737.00,0.0150
2736.00,0.0150
2735.00,0.0150
2734.00,0.0150
2733.00,0.0150
2732.00,0.0150
2731.00,0.0150
2730.00,0.0149
2729.00,0.0149
2728.00,0.0148
2727.00,0.0148
2726.00,0.0148
2725.00,0.0147
2724.00,0.0147
2723.00,0.0147
2722.00,0.0147
2721.00,0.0147
2720.00,0.0146
2719.00,0.0146
2718.00,0.0146
2717.00,0.0145
2716.00,0.0145
2715.00,0.0145
2714.00,0.0145
2713.00,0.0144
2712.00,0.0144
2711.00,0.0144
2710.00,0.0143
2709.00,0.0143
2708.00,0.0143
2707.00,0.0143
2706.00,0.0143
2705.00,0.0143
2704.00,0.0142
2703.00,0.0142
2702.00,0.0142
2701.00,0.0142
2700.00,0.0142
2699.00,0.0142
2698.00,0.0142
2697.00,0.0141
2696.00,0.0141
2695.00,0.0141
2694.00,0.0141
2693.00,0.0141
2692.00,0.0141
2691.00,0.0141
2690.00,0.0141
2689.00,0.0140
2688.00,0.0140
2687.00,0.0140
2686.00,0.0140
2685.00,0.0140
2684.00,0.0140
2683.00,0.0139
2682.00,0.0139
2681.00,0.0139
2680.00,0.0139
2679.00,0.0139
2678.00,0.0139
2677.00,0.0139
2676.00,0.0139
2675.00,0.0138
2674.00,0.0138
2673.00,0.0138
2672.00,0.0138
2671.00,0.0138
2670.00,0.0138
2669.00,0.0138
2668.00,0.0138
2667.00,0.0138
2666.00,0.0138
2665.00,0.0138
2664.00,0.0139
2663.00,0.0139
2662.00,0.0139
2661.00,0.0139
2660.00,0.0139
2659.00,0.0139
2658.00,0.0139
2657.00,0.0139
2656.00,0.0139
2655.00,0.0139
2654.00,0.0139
2653.00,0.0139
2652.00,0.0139
2651.00,0.0138
2650.00,0.0138
2649.00,0.0138
2648.00,0.0138
2647.00,0.0138
2646.00,0.0138
2645.00,0.0138
2644.00,0.0138
2643.00,0.0138
2642.00,0.0137
2641.00,0.0137
2640.00,0.0137
2639.00,0.0137
2638.00,0.0137
2637.00,0.0137
2636.00,0.0136
2635.00,0.0136
2634.00,0.0136
2633.00,0.0136
2632.00,0.0136
2631.00,0.0135
2630.00,0.0135
2629.00,0.0135
2628.00,0.0135
2627.00,0.0134
2626.00,0.0134
2625.00,0.0134
2624.00,0.0134
2623.00,0.0134
2622.00,0.0133
2621.00,0.0133
2620.00,0.0133
2619.00,0.0133
2618.00,0.0133
2617.00,0.0132
2616.00,0.0132
2615.00,0.0132
2614.00,0.0131
2613.00,0.0131
2612.00,0.0131
2611.00,0.0131
2610.00,0.0131
2609.00,0.0131
2608.00,0.0131
2607.00,0.0130
2606.00,0.0130
2605.00,0.0130
2604.00,0.0129
2603.00,0.0129
2602.00,0.0129
2601.00,0.0129
2600.00,0.0129
2599.00,0.0129
2598.00,0.0128
2597.00,0.0128
2596.00,0.0128
2595.00,0.0128
2594.00,0.0128
2593.00,0.0128
2592.00,0.0127
2591.00,0.0127
2590.00,0.0127
2589.00,0.0127
2588.00,0.0126
2587.00,0.0126
2586.00,0.0126
2585.00,0.0126
2584.00,0.0126
2583.00,0.0126
2582.00,0.0126
2581.00,0.0126
2580.00,0.0125
2579.00,0.0125
2578.00,0.0125
2577.00,0.0125
2576.00,0.0125
2575.00,0.0125
2574.00,0.0125
2573.00,0.0125
2572.00,0.0125
2571.00,0.0124
2570.00,0.0124
2569.00,0.0124
2568.00,0.0124
2567.00,0.0124
2566.00,0.0124
2565.00,0.0124
2564.00,0.0124
2563.00,0.0124
2562.00,0.0123
2561.00,0.0123
2560.00,0.0122
2559.00,0.0122
2558.00,0.0122
2557.00,0.0122
2556.00,0.0122
2555.00,0.0121
2554.00,0.0121
2553.00,0.0121
2552.00,0.0121
2551.00,0.0121
2550.00,0.0121
2549.00,0.0121
2548.00,0.0120
2547.00,0.0120
2546.00,0.0121
2545.00,0.0121
2544.00,0.0121
2543.00,0.0121
2542.00,0.0121
2541.00,0.0120
2540.00,0.0120
2539.00,0.0120
2538.00,0.0119
2537.00,0.0119
2536.00,0.0119
2535.00,0.0119
2534.00,0.0119
2533.00,0.0119
2532.00,0.0119
2531.00,0.0119
2530.00,0.0118
2529.00,0.0118
2528.00,0.0118
2527.00,0.0118
2526.00,0.0118
2525.00,0.0118
2524.00,0.0118
2523.00,0.0118
2522.00,0.0118
2521.00,0.0118
2520.00,0.0118
2519.00,0.0118
2518.00,0.0118
2517.00,0.0117
2516.00,0.0117
2515.00,0.0117
2514.00,0.0117
2513.00,0.0117
2512.00,0.0117
2511.00,0.0117
2510.00,0.0117
2509.00,0.0116
2508.00,0.0116
2507.00,0.0116
2506.00,0.0115
2505.00,0.0115
2504.00,0.0115
2503.00,0.0115
2502.00,0.0115
2501.00,0.0115
2500.00,0.0115
2499.00,0.0115
2498.00,0.0115
2497.00,0.0115
2496.00,0.0114
2495.00,0.0114
2494.00,0.0114
2493.00,0.0115
2492.00,0.0115
2491.00,0.0115
2490.00,0.0115
2489.00,0.0115
2488.00,0.0114
2487.00,0.0114
2486.00,0.0113
2485.00,0.0113
2484.00,0.0113
2483.00,0.0113
2482.00,0.0113
2481.00,0.0113
2480.00,0.0112
2479.00,0.0112
2478.00,0.0112
2477.00,0.0112
2476.00,0.0112
2475.00,0.0112
2474.00,0.0112
2473.00,0.0112
2472.00,0.0112
2471.00,0.0111
2470.00,0.0111
2469.00,0.0111
2468.00,0.0111
2467.00,0.0111
2466.00,0.0111
2465.00,0.0112
2464.00,0.0112
2463.00,0.0112
2462.00,0.0112
2461.00,0.0112
2460.00,0.0112
2459.00,0.0111
2458.00,0.0111
2457.00,0.0111
2456.00,0.0111
2455.00,0.0112
2454.00,0.0112
2453.00,0.0111
2452.00,0.0111
2451.00,0.0111
2450.00,0.0111
2449.00,0.0111
2448.00,0.0111
2447.00,0.0111
2446.00,0.0110
2445.00,0.0110
2444.00,0.0109
2443.00,0.0108
2442.00,0.0108
2441.00,0.0108
2440.00,0.0108
2439.00,0.0108
2438.00,0.0108
2437.00,0.0108
2436.00,0.0108
2435.00,0.0108
2434.00,0.0108
2433.00,0.0107
2432.00,0.0107
2431.00,0.0106
2430.00,0.0106
2429.00,0.0106
2428.00,0.0106
2427.00,0.0106
2426.00,0.0106
2425.00,0.0106
2424.00,0.0106
2423.00,0.0105
2422.00,0.0105
2421.00,0.0105
2420.00,0.0105
2419.00,0.0105
2418.00,0.0105
2417.00,0.0105
2416.00,0.0104
2415.00,0.0104
2414.00,0.0104
2413.00,0.0104
2412.00,0.0104
2411.00,0.0104
2410.00,0.0104
2409.00,0.0103
2408.00,0.0103
2407.00,0.0102
2406.00,0.0102
2405.00,0.0102
2404.00,0.0102
2403.00,0.0102
2402.00,0.0102
2401.00,0.0102
2400.00,0.0102
2399.00,0.0102
2398.00,0.0102
2397.00,0.0102
2396.00,0.0102
2395.00,0.0102
2394.00,0.0101
2393.00,0.0102
2392.00,0.0102
2391.00,0.0101
2390.00,0.0101
2389.00,0.0101
2388.00,0.0100
2387.00,0.0100
2386.00,0.0100
2385.00,0.0099
2384.00,0.0099
2383.00,0.0098
2382.00,0.0098
2381.00,0.0098
2380.00,0.0098
2379.00,0.0097
2378.00,0.0097
2377.00,0.0097
2376.00,0.0098
2375.00,0.0097
2374.00,0.0097
2373.00,0.0097
2372.00,0.0096
2371.00,0.0096
2370.00,0.0096
2369.00,0.0095
2368.00,0.0095
2367.00,0.0095
2366.00,0.0096
2365.00,0.0096
2364.00,0.0097
2363.00,0.0097
2362.00,0.0097
2361.00,0.0097
2360.00,0.0097
2359.00,0.0097
2358.00,0.0096
2357.00,0.0096
2356.00,0.0096
2355.00,0.0097
2354.00,0.0097
2353.00,0.0097
2352.00,0.0096
2351.00,0.0096
2350.00,0.0097
2349.00,0.0097
2348.00,0.0098
2347.00,0.0098
2346.00,0.0099
2345.00,0.0099
2344.00,0.0098
2343.00,0.0099
2342.00,0.0099
2341.00,0.0099
2340.00,0.0099
2339.00,0.0099
2338.00,0.0099
2337.00,0.0099
2336.00,0.0099
2335.00,0.0099
2334.00,0.0099
2333.00,0.0099
2332.00,0.0099
2331.00,0.0099
2330.00,0.0099
2329.00,0.0100
2328.00,0.0102
2327.00,0.0106
2326.00,0.0109
2325.00,0.0110
2324.00,0.0110
2323.00,0.0108
2322.00,0.0106
2321.00,0.0105
2320.00,0.0104
2319.00,0.0104
2318.00,0.0104
2317.00,0.0103
2316.00,0.0103
2315.00,0.0102
2314.00,0.0102
2313.00,0.0101
2312.00,0.0100
2311.00,0.0100
2310.00,0.0099
2309.00,0.0099
2308.00,0.0099
2307.00,0.0099
2306.00,0.0100
2305.00,0.0100
2304.00,0.0100
2303.00,0.0101
2302.00,0.0101
2301.00,0.0101
2300.00,0.0101
2299.00,0.0102
2298.00,0.0102
2297.00,0.0103
2296.00,0.0103
2295.00,0.0104
2294.00,0.0104
2293.00,0.0105
2292.00,0.0105
2291.00,0.0106
2290.00,0.0107
2289.00,0.0108
2288.00,0.0109
2287.00,0.0109
2286.00,0.0109
2285.00,0.0108
2284.00,0.0107
2283.00,0.0107
2282.00,0.0106
2281.00,0.0105
2280.00,0.0104
2279.00,0.0104
2278.00,0.0103
2277.00,0.0103
2276.00,0.0103
2275.00,0.0103
2274.00,0.0103
2273.00,0.0103
2272.00,0.0103
2271.00,0.0102
2270.00,0.0101
2269.00,0.0101
2268.00,0.0101
2267.00,0.0100
2266.00,0.0101
2265.00,0.0101
2264.00,0.0102
2263.00,0.0102
2262.00,0.0102
2261.00,0.0102
2260.00,0.0102
2259.00,0.0101
2258.00,0.0100
2257.00,0.0099
2256.00,0.0099
2255.00,0.0098
2254.00,0.0097
2253.00,0.0097
2252.00,0.0097
2251.00,0.0097
2250.00,0.0097
2249.00,0.0097
2248.00,0.0097
2247.00,0.0097
2246.00,0.0098
2245.00,0.0098
2244.00,0.0098
2243.00,0.0099
2242.00,0.0099
2241.00,0.0099
2240.00,0.0099
2239.00,0.0098
2238.00,0.0098
2237.00,0.0098
2236.00,0.0099
2235.00,0.0099
2234.00,0.0100
2233.00,0.0099
2232.00,0.0099
2231.00,0.0099
2230.00,0.0099
2229.00,0.0099
2228.00,0.0098
2227.00,0.0098
2226.00,0.0097
2225.00,0.0096
2224.00,0.0096
2223.00,0.0096
2222.00,0.0096
2221.00,0.0096
2220.00,0.0096
2219.00,0.0096
2218.00,0.0096
2217.00,0.0097
2216.00,0.0097
2215.00,0.0098
2214.00,0.0097
2213.00,0.0096
2212.00,0.0096
2211.00,0.0096
2210.00,0.0096
2209.00,0.0096
2208.00,0.0096
2207.00,0.0096
2206.00,0.0097
2205.00,0.0097
2204.00,0.0096
2203.00,0.0095
2202.00,0.0094
2201.00,0.0094
2200.00,0.0095
2199.00,0.0096
2198.00,0.0097
2197.00,0.0097
2196.00,0.0097
2195.00,0.0098
2194.00,0.0098
2193.00,0.0098
2192.00,0.0098
2191.00,0.0098
2190.00,0.0098
2189.00,0.0098
2188.00,0.0099
2187.00,0.0100
2186.00,0.0100
2185.00,0.0099
2184.00,0.0098
2183.00,0.0097
2182.00,0.0095
2181.00,0.0095
2180.00,0.0095
2179.00,0.0095
2178.00,0.0095
2177.00,0.0094
2176.00,0.0094
2175.00,0.0093
2174.00,0.0093
2173.00,0.0094
2172.00,0.0097
2171.00,0.0099
2170.00,0.0102
2169.00,0.0104
2168.00,0.0104
2167.00,0.0104
2166.00,0.0103
2165.00,0.0103
2164.00,0.0102
2163.00,0.0101
2162.00,0.0096
2161.00,0.0088
2160.00,0.0077
2159.00,0.0068
2158.00,0.0064
2157.00,0.0064
2156.00,0.0067
2155.00,0.0070
2154.00,0.0072
2153.00,0.0074
2152.00,0.0075
2151.00,0.0076
2150.00,0.0077
2149.00,0.0077
2148.00,0.0078
2147.00,0.0080
2146.00,0.0080
2145.00,0.0081
2144.00,0.0081
2143.00,0.0081
2142.00,0.0081
2141.00,0.0081
2140.00,0.0081
2139.00,0.0082
2138.00,0.0081
2137.00,0.0080
2136.00,0.0078
2135.00,0.0076
2134.00,0.0075
2133.00,0.0076
2132.00,0.0078
2131.00,0.0080
2130.00,0.0081
2129.00,0.0082
2128.00,0.0084
2127.00,0.0084
2126.00,0.0085
2125.00,0.0085
2124.00,0.0086
2123.00,0.0086
2122.00,0.0087
2121.00,0.0087
2120.00,0.0088
2119.00,0.0089
2118.00,0.0090
2117.00,0.0091
2116.00,0.0092
2115.00,0.0093
2114.00,0.0093
2113.00,0.0093
2112.00,0.0093
2111.00,0.0093
2110.00,0.0093
2109.00,0.0093
2108.00,0.0093
2107.00,0.0092
2106.00,0.0092
2105.00,0.0091
2104.00,0.0092
2103.00,0.0092
2102.00,0.0092
2101.00,0.0092
2100.00,0.0092
2099.00,0.0091
2098.00,0.0090
2097.00,0.0088
2096.00,0.0087
2095.00,0.0087
2094.00,0.0087
2093.00,0.0088
2092.00,0.0089
2091.00,0.0091
2090.00,0.0092
2089.00,0.0092
2088.00,0.0092
2087.00,0.0092
2086.00,0.0092
2085.00,0.0092
2084.00,0.0093
2083.00,0.0093
2082.00,0.0093
2081.00,0.0093
2080.00,0.0093
2079.00,0.0092
2078.00,0.0091
2077.00,0.0091
2076.00,0.0091
2075.00,0.0091
2074.00,0.0091
2073.00,0.0091
2072.00,0.0091
2071.00,0.0091
2070.00,0.0091
2069.00,0.0090
2068.00,0.0090
2067.00,0.0089
2066.00,0.0089
2065.00,0.0089
2064.00,0.0089
2063.00,0.0088
2062.00,0.0089
2061.00,0.0089
2060.00,0.0090
2059.00,0.0090
2058.00,0.0089
2057.00,0.0088
2056.00,0.0088
2055.00,0.0088
2054.00,0.0090
2053.00,0.0094
2052.00,0.0097
2051.00,0.0096
2050.00,0.0093
2049.00,0.0089
2048.00,0.0086
2047.00,0.0086
2046.00,0.0087
2045.00,0.0088
2044.00,0.0089
2043.00,0.0088
2042.00,0.0087
2041.00,0.0087
2040.00,0.0088
2039.00,0.0088
2038.00,0.0088
2037.00,0.0088
2036.00,0.0087
2035.00,0.0087
2034.00,0.0086
2033.00,0.0084
2032.00,0.0083
2031.00,0.0080
2030.00,0.0078
2029.00,0.0077
2028.00,0.0077
2027.00,0.0077
2026.00,0.0077
2025.00,0.0077
2024.00,0.0079
2023.00,0.0080
2022.00,0.0080
2021.00,0.0080
2020.00,0.0079
2019.00,0.0079
2018.00,0.0078
2017.00,0.0078
2016.00,0.0078
2015.00,0.0079
2014.00,0.0079
2013.00,0.0078
2012.00,0.0078
2011.00,0.0078
2010.00,0.0078
2009.00,0.0077
2008.00,0.0075
2007.00,0.0071
2006.00,0.0070
2005.00,0.0071
2004.00,0.0073
2003.00,0.0076
2002.00,0.0077
2001.00,0.0078
2000.00,0.0079
1999.00,0.0078
1998.00,0.0078
1997.00,0.0079
1996.00,0.0080
1995.00,0.0081
1994.00,0.0080
1993.00,0.0080
1992.00,0.0080
1991.00,0.0081
1990.00,0.0082
1989.00,0.0083
1988.00,0.0084
1987.00,0.0085
1986.00,0.0086
1985.00,0.0087
1984.00,0.0088
1983.00,0.0090
1982.00,0.0091
1981.00,0.0092
1980.00,0.0091
1979.00,0.0087
1978.00,0.0080
1977.00,0.0075
1976.00,0.0071
1975.00,0.0070
1974.00,0.0069
1973.00,0.0069
1972.00,0.0070
1971.00,0.0072
1970.00,0.0073
1969.00,0.0074
1968.00,0.0074
1967.00,0.0073
1966.00,0.0073
1965.00,0.0073
1964.00,0.0073
1963.00,0.0073
1962.00,0.0072
1961.00,0.0071
1960.00,0.0070
1959.00,0.0070
1958.00,0.0070
1957.00,0.0070
1956.00,0.0071
1955.00,0.0072
1954.00,0.0073
1953.00,0.0074
1952.00,0.0074
1951.00,0.0074
1950.00,0.0073
1949.00,0.0073
1948.00,0.0072
1947.00,0.0072
1946.00,0.0073
1945.00,0.0073
1944.00,0.0074
1943.00,0.0074
1942.00,0.0074
1941.00,0.0074
1940.00,0.0074
1939.00,0.0074
1938.00,0.0075
1937.00,0.0075
1936.00,0.0075
1935.00,0.0074
1934.00,0.0074
1933.00,0.0074
1932.00,0.0074
1931.00,0.0074
1930.00,0.0074
1929.00,0.0074
1928.00,0.0074
1927.00,0.0074
1926.00,0.0074
1925.00,0.0074
1924.00,0.0075
1923.00,0.0075
1922.00,0.0076
1921.00,0.0075
1920.00,0.0075
1919.00,0.0074
1918.00,0.0074
1917.00,0.0074
1916.00,0.0074
1915.00,0.0074
1914.00,0.0074
1913.00,0.0074
1912.00,0.0074
1911.00,0.0075
1910.00,0.0075
1909.00,0.0075
1908.00,0.0075
1907.00,0.0074
1906.00,0.0074
1905.00,0.0074
1904.00,0.0074
1903.00,0.0074
1902.00,0.0074
1901.00,0.0075
1900.00,0.0075
1899.00,0.0075
1898.00,0.0075
1897.00,0.0074
1896.00,0.0075
1895.00,0.0075
1894.00,0.0075
1893.00,0.0076
1892.00,0.0076
1891.00,0.0076
1890.00,0.0076
1889.00,0.0076
1888.00,0.0077
1887.00,0.0076
1886.00,0.0076
1885.00,0.0075
1884.00,0.0075
1883.00,0.0075
1882.00,0.0074
1881.00,0.0074
1880.00,0.0074
1879.00,0.0074
1878.00,0.0074
1877.00,0.0075
1876.00,0.0075
1875.00,0.0074
1874.00,0.0074
1873.00,0.0073
1872.00,0.0073
1871.00,0.0072
1870.00,0.0071
1869.00,0.0071
1868.00,0.0072
1867.00,0.0072
1866.00,0.0073
1865.00,0.0073
1864.00,0.0074
1863.00,0.0074
1862.00,0.0074
1861.00,0.0074
1860.00,0.0074
1859.00,0.0073
1858.00,0.0073
1857.00,0.0073
1856.00,0.0073
1855.00,0.0073
1854.00,0.0072
1853.00,0.0073
1852.00,0.0073
1851.00,0.0073
1850.00,0.0072
1849.00,0.0072
1848.00,0.0072
1847.00,0.0071
1846.00,0.0071
1845.00,0.0070
1844.00,0.0070
1843.00,0.0070
1842.00,0.0070
1841.00,0.0070
1840.00,0.0071
1839.00,0.0071
1838.00,0.0072
1837.00,0.0072
1836.00,0.0072
1835.00,0.0072
1834.00,0.0072
1833.00,0.0071
1832.00,0.0071
1831.00,0.0070
1830.00,0.0070
1829.00,0.0071
1828.00,0.0071
1827.00,0.0070
1826.00,0.0070
1825.00,0.0070
1824.00,0.0071
1823.00,0.0071
1822.00,0.0071
1821.00,0.0071
1820.00,0.0070
1819.00,0.0069
1818.00,0.0069
1817.00,0.0068
1816.00,0.0069
1815.00,0.0069
1814.00,0.0070
1813.00,0.0070
1812.00,0.0070
1811.00,0.0071
1810.00,0.0071
1809.00,0.0071
1808.00,0.0071
1807.00,0.0071
1806.00,0.0071
1805.00,0.0071
1804.00,0.0071
1803.00,0.0070
1802.00,0.0070
1801.00,0.0070
1800.00,0.0070
1799.00,0.0070
1798.00,0.0070
1797.00,0.0070
1796.00,0.0070
1795.00,0.0070
1794.00,0.0070
1793.00,0.0070
1792.00,0.0070
1791.00,0.0070
1790.00,0.0070
1789.00,0.0070
1788.00,0.0071
1787.00,0.0070
1786.00,0.0070
1785.00,0.0070
1784.00,0.0070
1783.00,0.0070
1782.00,0.0070
1781.00,0.0070
1780.00,0.0070
1779.00,0.0070
1778.00,0.0069
1777.00,0.0069
1776.00,0.0069
1775.00,0.0069
1774.00,0.0069
1773.00,0.0070
1772.00,0.0070
1771.00,0.0069
1770.00,0.0069
1769.00,0.0069
1768.00,0.0069
1767.00,0.0070
1766.00,0.0070
1765.00,0.0070
1764.00,0.0070
1763.00,0.0070
1762.00,0.0070
1761.00,0.0071
1760.00,0.0071
1759.00,0.0071
1758.00,0.0071
1757.00,0.0071
1756.00,0.0072
1755.00,0.0072
1754.00,0.0072
1753.00,0.0072
1752.00,0.0073
1751.00,0.0073
1750.00,0.0074
1749.00,0.0074
1748.00,0.0075
1747.00,0.0077
1746.00,0.0077
1745.00,0.0078
1744.00,0.0079
1743.00,0.0080
1742.00,0.0080
1741.00,0.0081
1740.00,0.0082
1739.00,0.0083
1738.00,0.0083
1737.00,0.0084
1736.00,0.0086
1735.00,0.0088
1734.00,0.0090
1733.00,0.0091
1732.00,0.0091
1731.00,0.0091
1730.00,0.0091
1729.00,0.0092
1728.00,0.0094
1727.00,0.0095
1726.00,0.0097
1725.00,0.0098
1724.00,0.0100
1723.00,0.0101
1722.00,0.0102
1721.00,0.0103
1720.00,0.0105
1719.00,0.0108
1718.00,0.0111
1717.00,0.0114
1716.00,0.0117
1715.00,0.0119
1714.00,0.0121
1713.00,0.0124
1712.00,0.0128
1711.00,0.0132
1710.00,0.0136
1709.00,0.0140
1708.00,0.0145
1707.00,0.0151
1706.00,0.0159
1705.00,0.0168
1704.00,0.0176
1703.00,0.0183
1702.00,0.0192
1701.00,0.0207
1700.00,0.0226
1699.00,0.0244
1698.00,0.0256
1697.00,0.0269
1696.00,0.0285
1695.00,0.0298
1694.00,0.0307
1693.00,0.0314
1692.00,0.0320
1691.00,0.0328
1690.00,0.0336
1689.00,0.0345
1688.00,0.0353
1687.00,0.0362
1686.00,0.0371
1685.00,0.0383
1684.00,0.0398
1683.00,0.0409
1682.00,0.0418
1681.00,0.0426
1680.00,0.0435
1679.00,0.0444
1678.00,0.0453
1677.00,0.0462
1676.00,0.0473
1675.00,0.0486
1674.00,0.0497
1673.00,0.0506
1672.00,0.0515
1671.00,0.0525
1670.00,0.0538
1669.00,0.0551
1668.00,0.0564
1667.00,0.0575
1666.00,0.0583
1665.00,0.0592
1664.00,0.0604
1663.00,0.0616
1662.00,0.0629
1661.00,0.0641
1660.00,0.0652
1659.00,0.0662
1658.00,0.0671
1657.00,0.0679
1656.00,0.0687
1655.00,0.0697
1654.00,0.0711
1653.00,0.0728
1652.00,0.0740
1651.00,0.0743
1650.00,0.0743
1649.00,0.0745
1648.00,0.0752
1647.00,0.0761
1646.00,0.0768
1645.00,0.0773
1644.00,0.0777
1643.00,0.0781
1642.00,0.0785
1641.00,0.0790
1640.00,0.0794
1639.00,0.0799
1638.00,0.0803
1637.00,0.0810
1636.00,0.0820
1635.00,0.0830
1634.00,0.0837
1633.00,0.0843
1632.00,0.0848
1631.00,0.0854
1630.00,0.0861
1629.00,0.0867
1628.00,0.0872
1627.00,0.0877
1626.00,0.0879
1625.00,0.0879
1624.00,0.0878
1623.00,0.0874
1622.00,0.0868
1621.00,0.0859
1620.00,0.0850
1619.00,0.0840
1618.00,0.0827
1617.00,0.0808
1616.00,0.0786
1615.00,0.0764
1614.00,0.0745
1613.00,0.0726
1612.00,0.0707
1611.00,0.0687
1610.00,0.0667
1609.00,0.0647
1608.00,0.0628
1607.00,0.0610
1606.00,0.0594
1605.00,0.0579
1604.00,0.0565
1603.00,0.0551
1602.00,0.0539
1601.00,0.0528
1600.00,0.0518
1599.00,0.0509
1598.00,0.0500
1597.00,0.0493
1596.00,0.0485
1595.00,0.0478
1594.00,0.0472
1593.00,0.0467
1592.00,0.0461
1591.00,0.0456
1590.00,0.0452
1589.00,0.0448
1588.00,0.0445
1587.00,0.0443
1586.00,0.0441
1585.00,0.0440
1584.00,0.0439
1583.00,0.0439
1582.00,0.0440
1581.00,0.0441
1580.00,0.0442
1579.00,0.0443
1578.00,0.0447
1577.00,0.0453
1576.00,0.0458
1575.00,0.0461
1574.00,0.0464
1573.00,0.0465
1572.00,0.0468
1571.00,0.0472
1570.00,0.0478
1569.00,0.0485
1568.00,0.0492
1567.00,0.0497
1566.00,0.0503
1565.00,0.0510
1564.00,0.0517
1563.00,0.0523
1562.00,0.0528
1561.00,0.0534
1560.00,0.0543
1559.00,0.0557
1558.00,0.0570
1557.00,0.0579
1556.00,0.0585
1555.00,0.0592
1554.00,0.0601
1553.00,0.0610
1552.00,0.0617
1551.00,0.0625
1550.00,0.0635
1549.00,0.0644
1548.00,0.0651
1547.00,0.0658
1546.00,0.0665
1545.00,0.0673
1544.00,0.0681
1543.00,0.0688
1542.00,0.0696
1541.00,0.0706
1540.00,0.0717
1539.00,0.0727
1538.00,0.0733
1537.00,0.0735
1536.00,0.0737
1535.00,0.0740
1534.00,0.0746
1533.00,0.0752
1532.00,0.0757
1531.00,0.0761
1530.00,0.0764
1529.00,0.0766
1528.00,0.0769
1527.00,0.0771
1526.00,0.0774
1525.00,0.0775
1524.00,0.0776
1523.00,0.0777
1522.00,0.0780
1521.00,0.0783
1520.00,0.0784
1519.00,0.0784
1518.00,0.0785
1517.00,0.0786
1516.00,0.0786
1515.00,0.0785
1514.00,0.0781
1513.00,0.0775
1512.00,0.0767
1511.00,0.0759
1510.00,0.0750
1509.00,0.0741
1508.00,0.0730
1507.00,0.0716
1506.00,0.0702
1505.00,0.0689
1504.00,0.0678
1503.00,0.0668
1502.00,0.0657
1501.00,0.0646
1500.00,0.0634
1499.00,0.0623
1498.00,0.0612
1497.00,0.0600
1496.00,0.0587
1495.00,0.0575
1494.00,0.0563
1493.00,0.0551
1492.00,0.0540
1491.00,0.0527
1490.00,0.0515
1489.00,0.0503
1488.00,0.0492
1487.00,0.0483
1486.00,0.0474
1485.00,0.0466
1484.00,0.0458
1483.00,0.0451
1482.00,0.0445
1481.00,0.0439
1480.00,0.0433
1479.00,0.0429
1478.00,0.0426
1477.00,0.0423
1476.00,0.0421
1475.00,0.0421
1474.00,0.0423
1473.00,0.0426
1472.00,0.0430
1471.00,0.0434
1470.00,0.0436
1469.00,0.0437
1468.00,0.0437
1467.00,0.0437
1466.00,0.0437
1465.00,0.0437
1464.00,0.0437
1463.00,0.0438
1462.00,0.0437
1461.00,0.0437
1460.00,0.0437
1459.00,0.0439
1458.00,0.0443
1457.00,0.0448
1456.00,0.0453
1455.00,0.0455
1454.00,0.0455
1453.00,0.0455
1452.00,0.0455
1451.00,0.0455
1450.00,0.0454
1449.00,0.0453
1448.00,0.0453
1447.00,0.0453
1446.00,0.0452
1445.00,0.0451
1444.00,0.0450
1443.00,0.0449
1442.00,0.0447
1441.00,0.0445
1440.00,0.0443
1439.00,0.0440
1438.00,0.0437
1437.00,0.0433
1436.00,0.0430
1435.00,0.0426
1434.00,0.0423
1433.00,0.0419
1432.00,0.0414
1431.00,0.0411
1430.00,0.0408
1429.00,0.0405
1428.00,0.0403
1427.00,0.0401
1426.00,0.0400
1425.00,0.0399
1424.00,0.0399
1423.00,0.0400
1422.00,0.0401
1421.00,0.0401
1420.00,0.0403
1419.00,0.0406
1418.00,0.0410
1417.00,0.0413
1416.00,0.0415
1415.00,0.0418
1414.00,0.0420
1413.00,0.0423
1412.00,0.0425
1411.00,0.0429
1410.00,0.0432
1409.00,0.0434
1408.00,0.0437
1407.00,0.0440
1406.00,0.0444
1405.00,0.0447
1404.00,0.0451
1403.00,0.0454
1402.00,0.0457
1401.00,0.0459
1400.00,0.0461
1399.00,0.0464
1398.00,0.0466
1397.00,0.0468
1396.00,0.0470
1395.00,0.0472
1394.00,0.0474
1393.00,0.0475
1392.00,0.0476
1391.00,0.0476
1390.00,0.0476
1389.00,0.0476
1388.00,0.0475
1387.00,0.0473
1386.00,0.0472
1385.00,0.0469
1384.00,0.0465
1383.00,0.0461
1382.00,0.0457
1381.00,0.0453
1380.00,0.0449
1379.00,0.0446
1378.00,0.0442
1377.00,0.0438
1376.00,0.0435
1375.00,0.0432
1374.00,0.0430
1373.00,0.0428
1372.00,0.0427
1371.00,0.0425
1370.00,0.0423
1369.00,0.0421
1368.00,0.0418
1367.00,0.0415
1366.00,0.0412
1365.00,0.0408
1364.00,0.0404
1363.00,0.0400
1362.00,0.0397
1361.00,0.0394
1360.00,0.0392
1359.00,0.0390
1358.00,0.0388
1357.00,0.0387
1356.00,0.0385
1355.00,0.0384
1354.00,0.0383
1353.00,0.0382
1352.00,0.0381
1351.00,0.0380
1350.00,0.0380
1349.00,0.0379
1348.00,0.0379
1347.00,0.0379
1346.00,0.0378
1345.00,0.0378
1344.00,0.0377
1343.00,0.0377
1342.00,0.0376
1341.00,0.0376
1340.00,0.0375
1339.00,0.0375
1338.00,0.0374
1337.00,0.0374
1336.00,0.0373
1335.00,0.0373
1334.00,0.0372
1333.00,0.0371
1332.00,0.0370
1331.00,0.0369
1330.00,0.0369
1329.00,0.0369
1328.00,0.0368
1327.00,0.0368
1326.00,0.0369
1325.00,0.0369
1324.00,0.0369
1323.00,0.0369
1322.00,0.0370
1321.00,0.0370
1320.00,0.0371
1319.00,0.0371
1318.00,0.0372
1317.00,0.0373
1316.00,0.0374
1315.00,0.0374
1314.00,0.0375
1313.00,0.0375
1312.00,0.0375
1311.00,0.0375
1310.00,0.0376
1309.00,0.0376
1308.00,0.0375
1307.00,0.0375
1306.00,0.0374
1305.00,0.0374
1304.00,0.0373
1303.00,0.0373
1302.00,0.0372
1301.00,0.0373
1300.00,0.0373
1299.00,0.0373
1298.00,0.0373
1297.00,0.0374
1296.00,0.0374
1295.00,0.0375
1294.00,0.0376
1293.00,0.0377
1292.00,0.0377
1291.00,0.0378
1290.00,0.0379
1289.00,0.0380
1288.00,0.0380
1287.00,0.0381
1286.00,0.0382
1285.00,0.0383
1284.00,0.0383
1283.00,0.0384
1282.00,0.0385
1281.00,0.0385
1280.00,0.0386
1279.00,0.0386
1278.00,0.0387
1277.00,0.0387
1276.00,0.0387
1275.00,0.0387
1274.00,0.0388
1273.00,0.0388
1272.00,0.0388
1271.00,0.0389
1270.00,0.0390
1269.00,0.0391
1268.00,0.0393
1267.00,0.0394
1266.00,0.0397
1265.00,0.0399
1264.00,0.0401
1263.00,0.0404
1262.00,0.0407
1261.00,0.0410
1260.00,0.0413
1259.00,0.0417
1258.00,0.0421
1257.00,0.0425
1256.00,0.0428
1255.00,0.0432
1254.00,0.0436
1253.00,0.0440
1252.00,0.0444
1251.00,0.0448
1250.00,0.0452
1249.00,0.0456
1248.00,0.0460
1247.00,0.0464
1246.00,0.0468
1245.00,0.0472
1244.00,0.0475
1243.00,0.0478
1242.00,0.0482
1241.00,0.0485
1240.00,0.0488
1239.00,0.0491
1238.00,0.0494
1237.00,0.0496
1236.00,0.0498
1235.00,0.0500
1234.00,0.0502
1233.00,0.0503
1232.00,0.0504
1231.00,0.0505
1230.00,0.0505
1229.00,0.0505
1228.00,0.0505
1227.00,0.0504
1226.00,0.0504
1225.00,0.0503
1224.00,0.0501
1223.00,0.0499
1222.00,0.0497
1221.00,0.0495
1220.00,0.0492
1219.00,0.0490
1218.00,0.0487
1217.00,0.0484
1216.00,0.0480
1215.00,0.0476
1214.00,0.0472
1213.00,0.0467
1212.00,0.0462
1211.00,0.0457
1210.00,0.0453
1209.00,0.0448
1208.00,0.0443
1207.00,0.0439
1206.00,0.0434
1205.00,0.0429
1204.00,0.0424
1203.00,0.0420
1202.00,0.0415
1201.00,0.0411
1200.00,0.0407
1199.00,0.0403
1198.00,0.0399
1197.00,0.0395
1196.00,0.0391
1195.00,0.0388
1194.00,0.0384
1193.00,0.0381
1192.00,0.0378
1191.00,0.0375
1190.00,0.0372
1189.00,0.0370
1188.00,0.0368
1187.00,0.0366
1186.00,0.0365
1185.00,0.0363
1184.00,0.0362
1183.00,0.0360
1182.00,0.0359
1181.00,0.0359
1180.00,0.0358
1179.00,0.0358
1178.00,0.0359
1177.00,0.0360
1176.00,0.0361
1175.00,0.0363
1174.00,0.0365
1173.00,0.0367
1172.00,0.0368
1171.00,0.0370
1170.00,0.0371
1169.00,0.0372
1168.00,0.0372
1167.00,0.0373
1166.00,0.0374
1165.00,0.0376
1164.00,0.0377
1163.00,0.0379
1162.00,0.0381
1161.00,0.0383
1160.00,0.0384
1159.00,0.0386
1158.00,0.0388
1157.00,0.0389
1156.00,0.0390
1155.00,0.0390
1154.00,0.0390
1153.00,0.0390
1152.00,0.0389
1151.00,0.0388
1150.00,0.0387
1149.00,0.0385
1148.00,0.0383
1147.00,0.0382
1146.00,0.0380
1145.00,0.0378
1144.00,0.0376
1143.00,0.0374
1142.00,0.0372
1141.00,0.0371
1140.00,0.0369
1139.00,0.0368
1138.00,0.0367
1137.00,0.0367
1136.00,0.0366
1135.00,0.0367
1134.00,0.0368
1133.00,0.0369
1132.00,0.0370
1131.00,0.0372
1130.00,0.0374
1129.00,0.0376
1128.00,0.0377
1127.00,0.0379
1126.00,0.0381
1125.00,0.0383
1124.00,0.0385
1123.00,0.0386
1122.00,0.0388
1121.00,0.0389
1120.00,0.0391
1119.00,0.0392
1118.00,0.0394
1117.00,0.0395
1116.00,0.0396
1115.00,0.0398
1114.00,0.0399
1113.00,0.0401
1112.00,0.0402
1111.00,0.0404
1110.00,0.0406
1109.00,0.0408
1108.00,0.0409
1107.00,0.0411
1106.00,0.0413
1105.00,0.0415
1104.00,0.0417
1103.00,0.0420
1102.00,0.0423
1101.00,0.0426
1100.00,0.0428
1099.00,0.0431
1098.00,0.0435
1097.00,0.0439
1096.00,0.0443
1095.00,0.0448
1094.00,0.0453
1093.00,0.0458
1092.00,0.0464
1091.00,0.0469
1090.00,0.0475
1089.00,0.0481
1088.00,0.0487
1087.00,0.0493
1086.00,0.0499
1085.00,0.0505
1084.00,0.0510
1083.00,0.0516
1082.00,0.0521
1081.00,0.0525
1080.00,0.0528
1079.00,0.0531
1078.00,0.0533
1077.00,0.0534
1076.00,0.0534
1075.00,0.0535
1074.00,0.0535
1073.00,0.0535
1072.00,0.0534
1071.00,0.0534
1070.00,0.0534
1069.00,0.0535
1068.00,0.0535
1067.00,0.0535
1066.00,0.0536
1065.00,0.0537
1064.00,0.0538
1063.00,0.0539
1062.00,0.0540
1061.00,0.0541
1060.00,0.0542
1059.00,0.0543
1058.00,0.0544
1057.00,0.0545
1056.00,0.0545
1055.00,0.0545
1054.00,0.0545
1053.00,0.0545
1052.00,0.0544
1051.00,0.0543
1050.00,0.0542
1049.00,0.0540
1048.00,0.0538
1047.00,0.0537
1046.00,0.0536
1045.00,0.0534
1044.00,0.0532
1043.00,0.0530
1042.00,0.0528
1041.00,0.0527
1040.00,0.0525
1039.00,0.0523
1038.00,0.0522
1037.00,0.0521
1036.00,0.0520
1035.00,0.0519
1034.00,0.0518
1033.00,0.0518
1032.00,0.0517
1031.00,0.0517
1030.00,0.0516
1029.00,0.0515
1028.00,0.0513
1027.00,0.0512
1026.00,0.0510
1025.00,0.0508
1024.00,0.0505
1023.00,0.0502
1022.00,0.0500
1021.00,0.0496
1020.00,0.0492
1019.00,0.0488
1018.00,0.0484
1017.00,0.0480
1016.00,0.0476
1015.00,0.0472
1014.00,0.0468
1013.00,0.0464
1012.00,0.0459
1011.00,0.0455
1010.00,0.0450
1009.00,0.0446
1008.00,0.0442
1007.00,0.0438
1006.00,0.0435
1005.00,0.0431
1004.00,0.0428
1003.00,0.0424
1002.00,0.0421
1001.00,0.0417
1000.00,0.0413
999.00,0.0410
998.00,0.0406
997.00,0.0403
996.00,0.0399
995.00,0.0396
994.00,0.0393
993.00,0.0389
992.00,0.0385
991.00,0.0381
990.00,0.0377
989.00,0.0373
988.00,0.0369
987.00,0.0365
986.00,0.0362
985.00,0.0359
984.00,0.0356
983.00,0.0353
982.00,0.0352
981.00,0.0350
980.00,0.0349
979.00,0.0349
978.00,0.0349
977.00,0.0349
976.00,0.0350
975.00,0.0350
974.00,0.0352
973.00,0.0353
972.00,0.0354
971.00,0.0356
970.00,0.0358
969.00,0.0359
968.00,0.0360
967.00,0.0361
966.00,0.0362
965.00,0.0362
964.00,0.0362
963.00,0.0361
962.00,0.0361
961.00,0.0360
960.00,0.0359
959.00,0.0359
958.00,0.0358
957.00,0.0356
956.00,0.0355
955.00,0.0354
954.00,0.0353
953.00,0.0352
952.00,0.0351
951.00,0.0350
950.00,0.0349
949.00,0.0348
948.00,0.0346
947.00,0.0346
946.00,0.0345
945.00,0.0345
944.00,0.0345
943.00,0.0345
942.00,0.0345
941.00,0.0345
940.00,0.0345
939.00,0.0345
938.00,0.0346
937.00,0.0346
936.00,0.0346
935.00,0.0346
934.00,0.0346
933.00,0.0346
932.00,0.0346
931.00,0.0346
930.00,0.0345
929.00,0.0345
928.00,0.0344
927.00,0.0343
926.00,0.0342
925.00,0.0341
924.00,0.0340
923.00,0.0339
922.00,0.0338
921.00,0.0337
920.00,0.0335
919.00,0.0334
918.00,0.0333
917.00,0.0331
916.00,0.0330
915.00,0.0328
914.00,0.0327
913.00,0.0326
912.00,0.0324
911.00,0.0323
910.00,0.0322
909.00,0.0321
908.00,0.0319
907.00,0.0318
906.00,0.0318
905.00,0.0317
904.00,0.0316
903.00,0.0315
902.00,0.0315
901.00,0.0315
900.00,0.0314
899.00,0.0314
898.00,0.0315
897.00,0.0315
896.00,0.0315
895.00,0.0315
894.00,0.0316
893.00,0.0316
892.00,0.0316
891.00,0.0316
890.00,0.0317
889.00,0.0317
888.00,0.0317
887.00,0.0317
886.00,0.0318
885.00,0.0318
884.00,0.0318
883.00,0.0318
882.00,0.0318
881.00,0.0318
880.00,0.0317
879.00,0.0316
878.00,0.0316
877.00,0.0316
876.00,0.0315
875.00,0.0315
874.00,0.0315
873.00,0.0314
872.00,0.0314
871.00,0.0313
870.00,0.0314
869.00,0.0314
868.00,0.0314
867.00,0.0314
866.00,0.0315
865.00,0.0315
864.00,0.0316
863.00,0.0317
862.00,0.0319
861.00,0.0320
860.00,0.0320
859.00,0.0321
858.00,0.0322
857.00,0.0323
856.00,0.0324
855.00,0.0325
854.00,0.0327
853.00,0.0328
852.00,0.0330
851.00,0.0331
850.00,0.0332
849.00,0.0332
848.00,0.0332
847.00,0.0332
846.00,0.0333
845.00,0.0334
844.00,0.0334
843.00,0.0334
842.00,0.0336
841.00,0.0338
840.00,0.0339
839.00,0.0341
838.00,0.0343
837.00,0.0345
836.00,0.0346
835.00,0.0348
834.00,0.0349
833.00,0.0351
832.00,0.0352
831.00,0.0354
830.00,0.0355
829.00,0.0356
828.00,0.0357
827.00,0.0357
826.00,0.0358
825.00,0.0358
824.00,0.0358
823.00,0.0358
822.00,0.0359
821.00,0.0360
820.00,0.0360
819.00,0.0361
818.00,0.0363
817.00,0.0364
816.00,0.0364
815.00,0.0365
814.00,0.0366
813.00,0.0368
812.00,0.0368
811.00,0.0369
810.00,0.0371
809.00,0.0372
808.00,0.0373
807.00,0.0373
806.00,0.0375
805.00,0.0376
804.00,0.0377
803.00,0.0378
802.00,0.0380
801.00,0.0382
800.00,0.0383
799.00,0.0385
798.00,0.0387
797.00,0.0389
796.00,0.0390
795.00,0.0391
794.00,0.0393
793.00,0.0395
792.00,0.0397
791.00,0.0400
790.00,0.0403
789.00,0.0406
788.00,0.0409
787.00,0.0412
786.00,0.0415
785.00,0.0419
784.00,0.0421
783.00,0.0424
782.00,0.0426
781.00,0.0428
780.00,0.0429
779.00,0.0430
778.00,0.0431
777.00,0.0432
776.00,0.0432
775.00,0.0433
774.00,0.0434
773.00,0.0434
772.00,0.0434
771.00,0.0435
770.00,0.0436
769.00,0.0438
768.00,0.0440
767.00,0.0442
766.00,0.0444
765.00,0.0445
764.00,0.0446
763.00,0.0446
762.00,0.0447
761.00,0.0449
760.00,0.0450
759.00,0.0452
758.00,0.0454
757.00,0.0456
756.00,0.0457
755.00,0.0459
754.00,0.0461
753.00,0.0463
752.00,0.0465
751.00,0.0467
750.00,0.0469
749.00,0.0472
748.00,0.0474
747.00,0.0476
746.00,0.0479
745.00,0.0481
744.00,0.0483
743.00,0.0485
742.00,0.0487
741.00,0.0489
740.00,0.0490
739.00,0.0491
738.00,0.0493
737.00,0.0494
736.00,0.0495
735.00,0.0497
734.00,0.0499
733.00,0.0501
732.00,0.0503
731.00,0.0506
730.00,0.0509
729.00,0.0513
728.00,0.0516
727.00,0.0520
726.00,0.0524
725.00,0.0528
724.00,0.0532
723.00,0.0536
722.00,0.0540
721.00,0.0544
720.00,0.0548
719.00,0.0551
718.00,0.0554
717.00,0.0558
716.00,0.0560
715.00,0.0564
714.00,0.0568
713.00,0.0572
712.00,0.0575
711.00,0.0578
710.00,0.0583
709.00,0.0587
708.00,0.0591
707.00,0.0596
706.00,0.0602
705.00,0.0607
704.00,0.0612
703.00,0.0617
702.00,0.0622
701.00,0.0627
700.00,0.0630
699.00,0.0632
698.00,0.0634
697.00,0.0635
696.00,0.0634
695.00,0.0634
694.00,0.0634
693.00,0.0635
692.00,0.0635
691.00,0.0635
690.00,0.0636
689.00,0.0637
688.00,0.0638
687.00,0.0639
686.00,0.0641
685.00,0.0643
684.00,0.0643
683.00,0.0644
682.00,0.0646
681.00,0.0648
680.00,0.0649
679.00,0.0651
678.00,0.0653
677.00,0.0655
676.00,0.0656
675.00,0.0657
674.00,0.0659
673.00,0.0661
672.00,0.0661
671.00,0.0662
670.00,0.0664
669.00,0.0667
668.00,0.0671
667.00,0.0675
666.00,0.0678
665.00,0.0679
664.00,0.0680
663.00,0.0681
662.00,0.0683
661.00,0.0685
660.00,0.0686
659.00,0.0687
658.00,0.0688
657.00,0.0690
656.00,0.0690
655.00,0.0691
654.00,0.0693
653.00,0.0694
652.00,0.0695
651.00,0.0696
650.00,0.0698
649.00,0.0700
648.00,0.0701
647.00,0.0702
646.00,0.0704
645.00,0.0706
644.00,0.0706
643.00,0.0707
642.00,0.0708
641.00,0.0710
640.00,0.0710
639.00,0.0711
638.00,0.0712
637.00,0.0713
636.00,0.0713
635.00,0.0714
634.00,0.0716
633.00,0.0718
632.00,0.0719
631.00,0.0721
630.00,0.0723
629.00,0.0725
628.00,0.0726
627.00,0.0726
626.00,0.0729
625.00,0.0731
624.00,0.0733
623.00,0.0735
622.00,0.0737
621.00,0.0739
620.00,0.0739
619.00,0.0738
618.00,0.0740
617.00,0.0741
616.00,0.0742
615.00,0.0744
614.00,0.0746
613.00,0.0747
612.00,0.0746
611.00,0.0745
610.00,0.0746
609.00,0.0747
608.00,0.0746
607.00,0.0747
606.00,0.0748
605.00,0.0748
604.00,0.0748
603.00,0.0748
602.00,0.0751
601.00,0.0753
600.00,0.0754
599.00,0.0755
598.00,0.0757
597.00,0.0759
596.00,0.0760
595.00,0.0760
594.00,0.0762
593.00,0.0764
592.00,0.0766
591.00,0.0767
590.00,0.0770
589.00,0.0773
588.00,0.0774
587.00,0.0775
586.00,0.0778
585.00,0.0780
584.00,0.0780
583.00,0.0780
582.00,0.0783
581.00,0.0786
580.00,0.0787
579.00,0.0789
578.00,0.0792
577.00,0.0794
576.00,0.0795
575.00,0.0795
574.00,0.0798
573.00,0.0800
572.00,0.0801
571.00,0.0802
570.00,0.0804
569.00,0.0805
568.00,0.0805
567.00,0.0805
566.00,0.0808
565.00,0.0810
564.00,0.0811
563.00,0.0812
562.00,0.0814
561.00,0.0816
560.00,0.0816
559.00,0.0816
558.00,0.0820
557.00,0.0823
556.00,0.0825
555.00,0.0827
554.00,0.0829
553.00,0.0831
552.00,0.0831
551.00,0.0832
550.00,0.0835
549.00,0.0838
548.00,0.0839
547.00,0.0840
546.00,0.0842
545.00,0.0844
544.00,0.0845
543.00,0.0845
542.00,0.0848
541.00,0.0851
540.00,0.0851
539.00,0.0852
538.00,0.0855
537.00,0.0856
536.00,0.0855
535.00,0.0855
534.00,0.0858
533.00,0.0859
532.00,0.0859
531.00,0.0860
530.00,0.0863
529.00,0.0865
528.00,0.0865
527.00,0.0864
526.00,0.0866
525.00,0.0869
524.00,0.0868
523.00,0.0868
522.00,0.0870
521.00,0.0872
520.00,0.0871
519.00,0.0871
518.00,0.0873
517.00,0.0875
516.00,0.0874
515.00,0.0874
514.00,0.0875
513.00,0.0874
512.00,0.0871
511.00,0.0870
510.00,0.0871
509.00,0.0872
508.00,0.0870
507.00,0.0868
506.00,0.0868
505.00,0.0867
504.00,0.0865
503.00,0.0863
502.00,0.0866
501.00,0.0868
500.00,0.0867
499.00,0.0865
498.00,0.0865
497.00,0.0865
496.00,0.0864
495.00,0.0863
494.00,0.0866
493.00,0.0868
492.00,0.0866
491.00,0.0863
490.00,0.0864
489.00,0.0865
488.00,0.0863
487.00,0.0862
486.00,0.0864
485.00,0.0865
484.00,0.0863
483.00,0.0861
482.00,0.0863
481.00,0.0863
480.00,0.0861
479.00,0.0859
478.00,0.0861
477.00,0.0862
476.00,0.0859
475.00,0.0857
474.00,0.0859
473.00,0.0860
472.00,0.0858
471.00,0.0855
470.00,0.0857
469.00,0.0858
468.00,0.0854
467.00,0.0852
466.00,0.0853
465.00,0.0854
464.00,0.0849
463.00,0.0845
462.00,0.0846
461.00,0.0847
460.00,0.0843
459.00,0.0840
458.00,0.0842
457.00,0.0843
456.00,0.0839
455.00,0.0837
454.00,0.0840
453.00,0.0843
452.00,0.0839
451.00,0.0835
450.00,0.0836
449.00,0.0835
448.00,0.0828
447.00,0.0822
446.00,0.0822
445.00,0.0823
444.00,0.0819
443.00,0.0816
442.00,0.0817
441.00,0.0817
440.00,0.0810
439.00,0.0805
438.00,0.0806
437.00,0.0809
436.00,0.0806
435.00,0.0804
434.00,0.0806
433.00,0.0808
432.00,0.0804
431.00,0.0802
430.00,0.0806
429.00,0.0810
428.00,0.0807
427.00,0.0806
426.00,0.0811
425.00,0.0814
424.00,0.0806
423.00,0.0799
422.00,0.0803
421.00,0.0810
420.00,0.0809
419.00,0.0808
418.00,0.0813
417.00,0.0810
416.00,0.0793
415.00,0.0777
414.00,0.0775
413.00,0.0775
412.00,0.0770
411.00,0.0766
410.00,0.0775
409.00,0.0785
408.00,0.0783
407.00,0.0780
406.00,0.0786
405.00,0.0788
404.00,0.0777
403.00,0.0765
402.00,0.0769
401.00,0.0773
400.00,0.0758
