SampleIdent,,/
Title1,CBG powder (used for DSC, Raman, etc) on Si Wafer, 3-60 degree, 8 min, pXRD.,/
Title2,,/
DiffrType,?,/
DiffrNumber,1,/
Anode,Cu,/
LabdaAlpha1, 1.540598,/
LabdaAlpha2, 1.544426,/
RatioAlpha21, 0.50000,/
DivergenceSlit,Fixed, 1/2,/
ReceivingSlit,UNDEFINED,/
MonochromatorUsed,NO,/
GeneratorVoltage,  40,/
TubeCurrent,  15,/
FileDateTime,24-jul-2023 18:26,/
DataAngleRange,   3.00043,  59.99491,/
ScanStepSize, 0.01086644000,/
ScanType,CONTINUOUS,/
ScanStepTime, 18.87,/
RawScan
    7756,    7728,    7726,    7549,    7452,    7179,    7310,    7312
    7076,    7033,    6841,    6786,    6732,    6668,    6677,    6388
    6182,    6313,    6131,    5978,    5974,    5877,    5855,    5710
    5683,    5547,    5475,    5499,    5320,    5216,    5078,    5032
    4880,    4814,    4845,    4643,    4603,    4635,    4417,    4551
    4433,    4389,    4280,    4198,    4240,    4027,    4165,    4011
    3988,    3919,    3864,    3825,    3586,    3695,    3583,    3524
    3469,    3472,    3392,    3427,    3365,    3420,    3229,    3249
    3131,    3087,    3037,    2988,    2963,    3015,    2842,    2858
    2886,    2796,    2821,    2838,    2788,    2675,    2728,    2701
    2616,    2672,    2635,    2663,    2689,    2588,    2650,    2640
    2725,    2583,    2659,    2660,    2720,    2705,    2650,    2693
    2753,    2795,    2792,    2919,    2993,    2964,    3054,    3136
    3179,    3277,    3413,    3477,    3615,    3718,    3896,    3983
    4145,    4406,    4405,    4761,    5008,    5168,    5377,    5648
    5830,    6212,    6597,    6941,    7242,    7472,    7922,    8508
    8987,    9355,    9770,   10187,   10666,   11343,   11543,   11902
   12223,   12372,   13071,   13476,   14263,   14957,   16021,   17100
   18250,   19692,   21176,   22525,   24766,   26902,   29328,   31817
   34697,   37686,   40981,   44779,   48096,   51911,   56481,   60339
   64740,   68876,   74187,   78810,   84016,   89550,   94852,  100284
  104760,  107860,  109347,  108411,  104449,   97779,   87623,   78212
   68486,   59192,   51689,   44536,   39038,   33270,   28365,   24165
   20013,   17084,   13956,   11626,    9935,    8284,    6963,    6104
    5417,    4692,    4433,    3961,    3679,    3577,    3410,    3115
    3109,    3007,    2860,    2824,    2673,    2535,    2350,    2275
    2177,    2161,    2034,    2028,    1852,    1834,    1748,    1686
    1685,    1585,    1550,    1591,    1507,    1503,    1475,    1323
    1417,    1383,    1375,    1334,    1287,    1282,    1296,    1230
    1318,    1218,    1263,    1215,    1148,    1112,    1233,    1112
    1148,    1094,    1078,    1104,    1126,    1042,    1017,    1042
    1031,    1024,     983,    1001,     980,     984,     960,     922
     978,     959,     894,     896,     926,     882,     918,     889
     867,     840,     800,     824,     804,     757,     811,     830
     784,     772,     813,     718,     752,     727,     773,     703
     711,     696,     717,     671,     671,     683,     637,     598
     595,     616,     611,     610,     578,     608,     574,     585
     542,     537,     558,     549,     527,     517,     526,     510
     499,     508,     498,     484,     481,     524,     502,     511
     493,     521,     482,     454,     437,     491,     481,     476
     495,     459,     452,     463,     475,     429,     492,     430
     411,     423,     458,     454,     413,     412,     465,     454
     425,     428,     399,     461,     449,     411,     416,     421
     413,     433,     406,     433,     407,     435,     462,     417
     438,     397,     399,     413,     391,     391,     379,     430
     385,     379,     413,     402,     412,     388,     391,     390
     421,     410,     366,     390,     353,     390,     392,     361
     388,     395,     406,     395,     406,     404,     405,     360
     343,     371,     370,     379,     397,     376,     386,     385
     356,     362,     350,     373,     392,     369,     402,     369
     386,     401,     395,     406,     445,     489,     387,     425
     407,     418,     435,     433,     472,     435,     421,     463
     451,     437,     476,     495,     449,     497,     517,     550
     551,     504,     534,     543,     501,     602,     573,     549
     606,     587,     619,     671,     734,     727,     735,     710
     767,     830,     910,     868,     984,    1081,    1000,    1106
    1113,    1160,    1188,    1194,    1278,    1418,    1421,    1432
    1531,    1534,    1525,    1548,    1601,    1532,    1602,    1525
    1486,    1455,    1330,    1214,    1229,    1072,    1034,     930
     853,     750,     755,     702,     639,     565,     528,     498
     471,     502,     439,     426,     442,     448,     403,     390
     433,     379,     421,     402,     423,     412,     410,     434
     435,     420,     456,     458,     441,     421,     471,     493
     484,     475,     542,     529,     503,     539,     556,     605
     594,     578,     567,     604,     641,     655,     683,     652
     716,     700,     766,     778,     730,     729,     786,     730
     720,     800,     755,     733,     704,     689,     682,     641
     692,     659,     658,     638,     657,     612,     618,     662
     661,     741,     738,     717,     750,     828,     779,     792
     794,     843,     798,     785,     892,     784,     793,     829
     782,     796,     764,     738,     748,     730,     706,     797
     792,     808,     748,     839,     821,     821,     926,    1009
    1052,    1146,    1117,    1257,    1327,    1480,    1595,    1704
    1850,    1948,    2101,    2068,    2221,    2265,    2362,    2386
    2538,    2648,    2768,    2743,    2894,    2962,    3257,    3193
    3314,    3578,    3762,    3812,    3930,    3983,    3946,    3877
    3896,    3597,    3337,    3066,    2690,    2467,    2086,    1781
    1597,    1435,    1179,    1075,     984,     897,     787,     725
     611,     563,     543,     500,     450,     432,     409,     423
     402,     443,     384,     366,     396,     354,     416,     400
     396,     400,     377,     396,     369,     362,     382,     387
     395,     401,     353,     397,     372,     368,     369,     334
     386,     354,     341,     375,     385,     358,     404,     395
     397,     404,     412,     376,     341,     390,     426,     403
     419,     447,     469,     460,     437,     429,     458,     421
     465,     457,     483,     476,     474,     473,     501,     407
     453,     425,     496,     425,     473,     429,     416,     458
     388,     407,     403,     385,     360,     374,     363,     387
     368,     368,     332,     343,     313,     367,     340,     355
     339,     340,     327,     314,     331,     329,     322,     306
     323,     332,     351,     327,     333,     318,     307,     301
     300,     330,     308,     299,     323,     319,     315,     349
     350,     345,     328,     327,     306,     320,     283,     317
     339,     316,     351,     293,     376,     343,     294,     343
     317,     308,     311,     309,     357,     347,     327,     339
     306,     304,     336,     344,     317,     313,     311,     376
     343,     315,     322,     288,     331,     335,     306,     330
     374,     324,     335,     323,     330,     322,     279,     289
     345,     326,     355,     316,     324,     339,     399,     339
     360,     308,     370,     357,     375,     342,     362,     385
     354,     367,     395,     406,     365,     385,     390,     422
     415,     436,     424,     430,     433,     450,     472,     431
     500,     485,     534,     546,     524,     586,     626,     633
     660,     753,     740,     815,     864,     984,    1013,     999
    1146,    1116,    1181,    1269,    1360,    1396,    1498,    1471
    1495,    1529,    1562,    1605,    1665,    1714,    1769,    1728
    1675,    1761,    1723,    1688,    1677,    1548,    1544,    1475
    1315,    1281,    1121,    1049,     929,     835,     795,     697
     685,     585,     609,     496,     454,     494,     444,     436
     399,     402,     445,     388,     422,     404,     379,     372
     426,     419,     403,     410,     382,     454,     408,     438
     404,     453,     501,     458,     451,     497,     473,     543
     549,     619,     586,     628,     620,     688,     730,     746
     814,     858,     942,     944,     847,     957,     921,     904
     938,    1007,     972,     975,     979,    1092,     981,    1099
    1087,    1023,    1053,    1070,    1101,    1112,    1075,    1169
    1132,    1017,    1036,     939,     891,     777,     661,     659
     603,     546,     507,     475,     457,     427,     415,     405
     396,     383,     398,     392,     360,     395,     417,     373
     386,     369,     389,     342,     343,     361,     392,     404
     373,     360,     400,     391,     347,     366,     382,     384
     395,     401,     366,     371,     379,     413,     375,     410
     423,     424,     430,     393,     415,     437,     469,     486
     457,     480,     510,     489,     547,     595,     552,     613
     579,     638,     693,     687,     750,     746,     772,     827
     909,    1002,     958,    1101,    1057,    1201,    1260,    1318
    1468,    1600,    1749,    1881,    2071,    2164,    2405,    2733
    3034,    3287,    3761,    4324,    4704,    5411,    5937,    6660
    7141,    7838,    7933,    8383,    8397,    8610,    8829,    8926
    9265,    9600,    9776,   10010,   10250,   10728,   10980,   11652
   12006,   12306,   12833,   12969,   13252,   13389,   13222,   13054
   12456,   11457,   10574,    9252,    8047,    6878,    5819,    4950
    4195,    3502,    3056,    2500,    2162,    1784,    1532,    1419
    1199,    1072,     958,     859,     782,     792,     753,     688
     704,     678,     654,     696,     635,     619,     573,     586
     626,     606,     613,     604,     592,     594,     555,     603
     551,     609,     603,     622,     630,     604,     586,     621
     643,     673,     663,     705,     724,     751,     754,     812
     813,     864,     885,     993,    1070,    1119,    1189,    1275
    1391,    1396,    1498,    1657,    1846,    1842,    2029,    2006
    2198,    2267,    2498,    2505,    2734,    2957,    3088,    3365
    3554,    3777,    4016,    4056,    4270,    4374,    4467,    4470
    4667,    4557,    4651,    4845,    4800,    4687,    4785,    4796
    4707,    4759,    4537,    4638,    4428,    4523,    4270,    4061
    3845,    3607,    3199,    3040,    2727,    2488,    2303,    2034
    1821,    1689,    1654,    1468,    1434,    1417,    1383,    1451
    1432,    1483,    1518,    1584,    1785,    1972,    2020,    2323
    2442,    2838,    3150,    3349,    3578,    3899,    4161,    4211
    4483,    4804,    4783,    5061,    5243,    5410,    5561,    5738
    5827,    6010,    6037,    6020,    5946,    5969,    5852,    5533
    5428,    5188,    4967,    4538,    4187,    3646,    3366,    3035
    2654,    2304,    2015,    1879,    1628,    1476,    1281,    1227
    1089,    1072,     944,     913,     848,     821,     796,     751
     731,     777,     724,     631,     661,     648,     642,     596
     562,     589,     574,     590,     521,     491,     520,     490
     511,     464,     527,     491,     558,     478,     493,     483
     473,     475,     500,     483,     476,     466,     471,     483
     454,     508,     497,     446,     496,     515,     499,     515
     505,     534,     460,     466,     468,     490,     502,     483
     496,     495,     491,     491,     508,     497,     486,     497
     467,     477,     501,     510,     480,     472,     483,     437
     471,     467,     463,     474,     447,     455,     482,     462
     444,     470,     450,     460,     469,     464,     472,     470
     505,     479,     489,     478,     476,     475,     452,     480
     482,     482,     486,     426,     484,     416,     480,     524
     458,     511,     501,     481,     534,     530,     541,     543
     502,     513,     519,     497,     530,     494,     470,     502
     532,     527,     506,     517,     510,     508,     483,     488
     512,     551,     612,     542,     591,     573,     573,     637
     559,     675,     681,     693,     781,     761,     833,     882
     948,    1039,    1168,    1207,    1269,    1447,    1477,    1661
    1759,    1744,    1835,    1974,    2076,    2116,    2100,    2086
    2226,    2381,    2417,    2330,    2487,    2461,    2443,    2471
    2458,    2470,    2453,    2389,    2406,    2315,    2312,    2183
    2194,    2156,    2227,    2278,    2400,    2523,    2616,    2757
    2741,    2925,    2849,    2986,    3032,    3105,    3287,    3229
    3359,    3329,    3503,    3417,    3605,    3633,    3545,    3659
    3679,    3673,    3688,    3597,    3542,    3377,    3329,    3001
    2851,    2636,    2352,    2081,    1739,    1682,    1549,    1384
    1223,    1105,     956,     930,     893,     779,     778,     722
     731,     690,     659,     694,     618,     647,     636,     635
     663,     654,     625,     634,     636,     590,     631,     619
     615,     624,     609,     592,     634,     637,     679,     600
     610,     627,     599,     616,     657,     605,     638,     649
     630,     649,     661,     659,     665,     722,     748,     771
     736,     770,     781,     774,     890,     898,     939,     991
    1013,    1200,    1255,    1278,    1423,    1470,    1592,    1614
    1647,    1761,    1751,    1815,    1898,    2003,    2020,    2001
    2119,    2156,    2141,    2187,    2198,    2210,    2179,    2073
    2056,    1950,    1930,    1811,    1802,    1605,    1618,    1421
    1363,    1226,    1204,    1078,     980,     970,     882,     840
     822,     810,     809,     756,     699,     764,     711,     739
     725,     774,     707,     745,     717,     786,     790,     718
     819,     795,     813,     887,     834,     820,     839,     882
     900,     870,     901,     891,     833,     879,     853,     840
     852,     786,     851,     786,     780,     775,     762,     783
     790,     725,     728,     789,     724,     725,     754,     717
     749,     767,     762,     787,     795,     809,     829,     860
     921,     912,     950,    1012,    1095,    1188,    1198,    1313
    1503,    1552,    1808,    1953,    2204,    2362,    2677,    3061
    3482,    3795,    4139,    4490,    4769,    4930,    5039,    5454
    5572,    5567,    5800,    5952,    5935,    6208,    6227,    6471
    6588,    6623,    6849,    6767,    6970,    7238,    6947,    6950
    6809,    6715,    6285,    6125,    5756,    5603,    5320,    4991
    4870,    4565,    4529,    4563,    4601,    4398,    4617,    4634
    4683,    4844,    4737,    4938,    4885,    4935,    5054,    4931
    5113,    5063,    5168,    5054,    5133,    4933,    4974,    4938
    4735,    4543,    4402,    4303,    4017,    3766,    3366,    3287
    3005,    2761,    2627,    2446,    2399,    2289,    2201,    2171
    2060,    2102,    2037,    2099,    2109,    2052,    2171,    2246
    2259,    2262,    2309,    2227,    2328,    2225,    2140,    2179
    2203,    2104,    2032,    2015,    1967,    1858,    1860,    1779
    1681,    1636,    1604,    1577,    1563,    1457,    1492,    1514
    1501,    1362,    1442,    1485,    1491,    1436,    1352,    1364
    1337,    1259,    1241,    1225,    1123,    1106,    1053,    1056
     989,     971,     955,     943,     974,    1004,     973,     957
     936,     886,    1036,    1014,    1011,     969,    1019,    1046
     994,    1065,    1082,    1057,    1019,    1012,    1016,     998
     991,    1022,     965,     970,     978,     927,     935,     911
     878,     835,     800,     820,     790,     672,     688,     692
     643,     633,     550,     580,     583,     544,     558,     566
     558,     547,     543,     485,     532,     463,     526,     503
     538,     523,     534,     527,     505,     509,     542,     497
     536,     594,     541,     535,     551,     562,     594,     639
     658,     655,     719,     740,     755,     782,     791,     821
     876,     824,     902,     941,     926,     922,    1027,    1075
    1105,    1130,    1206,    1209,    1245,    1274,    1308,    1376
    1366,    1439,    1535,    1446,    1422,    1455,    1419,    1360
    1448,    1388,    1351,    1415,    1365,    1334,    1309,    1308
    1210,    1140,    1143,    1124,    1054,    1037,     916,     984
     911,     874,     777,     838,     719,     735,     747,     712
     684,     659,     657,     654,     643,     617,     635,     616
     572,     543,     578,     559,     604,     529,     536,     527
     572,     578,     605,     621,     625,     609,     606,     610
     639,     663,     644,     697,     662,     665,     664,     689
     674,     646,     714,     692,     664,     718,     626,     675
     654,     654,     662,     706,     662,     639,     632,     663
     639,     661,     697,     741,     737,     787,     758,     845
     981,     999,    1095,    1164,    1343,    1447,    1526,    1613
    1703,    1740,    1819,    1949,    1949,    1904,    2076,    2114
    2201,    2262,    2316,    2540,    2523,    2673,    2786,    3058
    3057,    3220,    3412,    3413,    3510,    3517,    3483,    3481
    3412,    3163,    3096,    2903,    2684,    2533,    2437,    2269
    2136,    1925,    1829,    1642,    1574,    1389,    1252,    1233
    1088,     990,     979,     874,     850,     820,     723,     690
     674,     650,     659,     630,     655,     605,     608,     594
     581,     628,     599,     602,     598,     605,     589,     593
     583,     603,     615,     613,     562,     558,     616,     578
     583,     554,     542,     571,     653,     556,     577,     535
     525,     602,     561,     607,     593,     566,     583,     579
     617,     656,     632,     605,     668,     624,     621,     643
     715,     690,     700,     689,     704,     717,     716,     739
     788,     817,     843,     861,     864,     950,     966,    1022
    1108,    1139,    1236,    1199,    1220,    1319,    1329,    1360
    1388,    1457,    1488,    1548,    1478,    1444,    1496,    1446
    1510,    1405,    1422,    1377,    1314,    1289,    1182,    1171
    1072,    1050,    1018,     932,     918,     868,     893,     815
     739,     810,     734,     696,     721,     708,     665,     702
     661,     687,     699,     682,     826,     723,     804,     822
     815,     865,     830,     918,     919,     889,     962,     896
    1007,     900,     939,     905,     964,     890,     887,     906
     827,     790,     802,     730,     764,     768,     781,     697
     650,     669,     607,     602,     602,     557,     572,     643
     524,     571,     569,     558,     507,     559,     555,     485
     529,     522,     497,     509,     500,     496,     519,     473
     448,     489,     440,     439,     428,     471,     473,     436
     448,     483,     444,     440,     446,     441,     406,     468
     504,     478,     487,     461,     502,     550,     514,     553
     532,     575,     623,     608,     575,     625,     664,     646
     762,     653,     670,     709,     724,     720,     719,     705
     754,     750,     702,     678,     725,     732,     700,     651
     692,     669,     654,     624,     578,     595,     575,     559
     601,     568,     600,     570,     563,     535,     510,     518
     521,     513,     525,     501,     521,     510,     594,     511
     538,     547,     519,     557,     544,     550,     600,     585
     645,     652,     705,     769,     777,     837,     879,     947
     927,     954,     990,    1052,    1090,    1158,    1117,    1123
    1162,    1290,    1206,    1267,    1281,    1324,    1450,    1349
    1437,    1446,    1543,    1486,    1587,    1681,    1726,    1899
    1968,    2144,    2318,    2365,    2512,    2569,    2637,    2733
    2817,    2981,    2976,    3051,    3068,    2950,    3089,    3027
    3121,    3016,    3082,    3190,    3147,    3347,    3236,    3250
    3372,    3105,    3055,    2967,    2877,    2767,    2523,    2322
    2085,    1894,    1774,    1625,    1388,    1316,    1128,     984
     887,     875,     712,     723,     674,     612,     601,     538
     530,     522,     471,     497,     523,     493,     477,     458
     466,     456,     474,     424,     448,     454,     441,     411
     428,     454,     441,     442,     425,     435,     427,     449
     432,     428,     502,     414,     436,     443,     448,     485
     456,     464,     520,     513,     499,     565,     533,     565
     618,     638,     654,     649,     700,     681,     688,     764
     784,     840,     797,     812,     855,     892,     938,     943
     934,     920,    1004,     992,     975,    1005,    1026,    1017
    1012,    1048,    1053,    1069,    1008,    1005,    1006,    1040
    1037,     982,     997,     973,     967,     959,     868,     888
     880,     808,     770,     735,     765,     684,     675,     607
     637,     623,     565,     528,     529,     490,     550,     498
     442,     463,     467,     510,     485,     466,     467,     530
     505,     515,     464,     506,     498,     486,     542,     533
     515,     549,     523,     486,     459,     538,     508,     454
     509,     465,     496,     444,     479,     468,     449,     448
     428,     465,     414,     422,     400,     383,     374,     349
     367,     364,     378,     349,     387,     339,     372,     405
     375,     415,     387,     394,     361,     371,     392,     381
     411,     381,     407,     385,     361,     402,     365,     397
     349,     357,     372,     418,     399,     365,     400,     387
     348,     399,     423,     400,     459,     436,     445,     427
     482,     509,     514,     521,     556,     620,     566,     672
     713,     735,     734,     764,     882,     873,     895,     928
     972,    1055,    1035,    1019,    1061,    1079,    1079,    1114
    1122,    1119,    1109,    1112,    1023,    1082,    1038,    1058
     978,     986,     999,     936,     943,     936,     823,     878
     832,     816,     785,     767,     760,     735,     682,     704
     645,     669,     599,     552,     579,     570,     551,     572
     534,     507,     490,     493,     474,     493,     444,     468
     479,     468,     490,     468,     464,     507,     449,     466
     468,     485,     485,     480,     497,     513,     460,     509
     505,     472,     499,     460,     475,     481,     474,     507
     484,     513,     453,     477,     488,     518,     530,     551
     552,     630,     568,     608,     617,     634,     631,     615
     684,     638,     685,     665,     709,     706,     741,     770
     769,     687,     736,     686,     703,     685,     602,     620
     638,     554,     542,     529,     551,     479,     507,     461
     419,     413,     419,     429,     432,     424,     386,     416
     392,     419,     422,     421,     478,     482,     497,     484
     440,     485,     506,     505,     523,     526,     492,     548
     509,     529,     564,     563,     544,     499,     517,     510
     513,     466,     485,     449,     452,     442,     448,     418
     411,     405,     370,     371,     380,     408,     332,     379
     374,     393,     391,     368,     398,     327,     400,     380
     404,     358,     379,     418,     384,     398,     374,     421
     382,     382,     440,     415,     415,     443,     436,     421
     424,     436,     413,     403,     394,     397,     415,     396
     404,     373,     358,     345,     411,     360,     377,     411
     398,     406,     374,     424,     397,     432,     393,     441
     448,     399,     436,     447,     428,     426,     418,     450
     450,     469,     438,     456,     470,     450,     450,     472
     466,     431,     485,     465,     454,     470,     410,     469
     431,     486,     420,     489,     436,     489,     493,     433
     459,     424,     459,     462,     514,     453,     475,     437
     523,     482,     500,     488,     496,     514,     478,     488
     544,     503,     575,     555,     565,     546,     579,     623
     647,     731,     705,     746,     759,     832,     829,     867
     927,    1046,    1044,    1006,    1040,    1179,    1188,    1178
    1156,    1201,    1193,    1173,    1196,    1240,    1170,    1124
    1114,    1144,    1060,    1008,    1029,    1003,    1025,     901
     931,     891,     877,     835,     829,     769,     759,     682
     660,     655,     625,     594,     591,     565,     549,     561
     566,     540,     517,     540,     521,     524,     485,     554
     505,     518,     513,     532,     542,     530,     539,     539
     540,     545,     548,     507,     502,     530,     512,     488
     506,     594,     588,     640,     599,     664,     612,     637
     644,     729,     656,     749,     748,     746,     750,     756
     819,     804,     804,     816,     818,     824,     862,     865
     854,     883,     901,     811,     823,     797,     815,     762
     702,     650,     644,     628,     590,     537,     527,     483
     515,     451,     437,     416,     423,     371,     415,     403
     385,     367,     411,     383,     379,     392,     377,     358
     391,     337,     343,     362,     373,     343,     340,     390
     335,     342,     351,     371,     333,     333,     398,     347
     335,     327,     361,     332,     374,     400,     372,     344
     371,     440,     422,     483,     452,     458,     491,     467
     464,     484,     470,     467,     495,     510,     507,     532
     557,     565,     503,     493,     522,     559,     533,     581
     599,     580,     587,     609,     644,     679,     658,     734
     732,     781,     757,     759,     787,     810,     841,     829
     862,     882,     856,     951,     921,     936,     965,     960
     896,     928,     867,     926,     870,     915,     823,     908
     810,     773,     781,     677,     678,     660,     664,     575
     649,     613,     573,     549,     533,     511,     478,     486
     476,     414,     381,     402,     387,     416,     372,     418
     389,     364,     411,     354,     333,     365,     380,     356
     387,     384,     358,     351,     363,     386,     350,     344
     374,     371,     348,     375,     350,     384,     373,     400
     352,     403,     358,     414,     397,     455,     450,     479
     495,     557,     528,     521,     600,     579,     673,     695
     680,     605,     685,     698,     703,     720,     711,     684
     712,     712,     689,     686,     678,     681,     666,     644
     668,     587,     581,     542,     548,     495,     535,     519
     498,     416,     476,     483,     427,     424,     406,     407
     386,     403,     402,     358,     402,     368,     388,     367
     393,     358,     387,     383,     403,     412,     421,     449
     453,     477,     500,     580,     596,     577,     622,     593
     643,     651,     698,     723,     713,     768,     674,     754
     730,     782,     784,     692,     710,     754,     705,     727
     677,     637,     642,     598,     595,     569,     615,     521
     472,     485,     480,     459,     445,     421,     391,     370
     411,     398,     427,     386,     430,     413,     416,     381
     435,     426,     460,     408,     466,     466,     505,     486
     529,     559,     599,     642,     669,     747,     713,     801
     773,     844,     792,     809,     838,     863,     848,     818
     880,     900,     887,     836,     860,     867,     803,     798
     800,     780,     816,     765,     786,     799,     710,     702
     659,     624,     612,     570,     582,     549,     510,     506
     487,     502,     443,     441,     398,     422,     400,     417
     409,     395,     380,     372,     362,     336,     361,     333
     316,     337,     346,     337,     336,     320,     320,     360
     364,     342,     332,     342,     318,     382,     316,     356
     343,     329,     420,     360,     406,     423,     382,     412
     412,     406,     446,     459,     479,     504,     460,     471
     501,     474,     464,     479,     481,     526,     505,     466
     515,     456,     457,     454,     448,     461,     424,     395
     466,     396,     379,     386,     402,     379,     381,     380
     383,     336,     324,     330,     335,     311,     362,     360
     308,     317,     324,     334,     353,     329,     332,     312
     330,     343,     321,     335,     328,     321,     324,     343
     334,     316,     319,     322,     301,     335,     289,     314
     344,     319,     333,     328,     334,     322,     310,     317
     360,     327,     319,     309,     325,     325,     349,     327
     307,     331,     338,     341,     382,     352,     389,     407
     375,     412,     404,     392,     477,     410,     439,     447
     445,     465,     485,     529,     441,     469,     452,     445
     478,     466,     466,     459,     438,     495,     457,     500
     428,     430,     395,     446,     463,     395,     402,     402
     361,     395,     376,     382,     367,     383,     331,     403
     362,     388,     376,     392,     390,     394,     426,     388
     393,     409,     412,     396,     391,     441,     438,     395
     451,     472,     462,     408,     500,     522,     518,     544
     549,     555,     551,     581,     526,     584,     564,     553
     551,     548,     499,     550,     514,     471,     498,     521
     523,     514,     539,     544,     493,     481,     515,     489
     493,     478,     483,     413,     407,     409,     422,     371
     389,     395,     375,     428,     379,     367,     395,     365
     358,     325,     338,     345,     342,     375,     352,     349
     348,     322,     360,     400,     336,     350,     368,     334
     345,     374,     319,     341,     286,     360,     307,     381
     304,     345,     364,     350,     313,     327,     324,     344
     311,     333,     319,     336,     342,     322,     309,     350
     308,     337,     343,     336,     310,     319,     332,     340
     345,     375,     353,     350,     350,     351,     372,     379
     367,     396,     373,     365,     340,     364,     354,     359
     386,     358,     333,     353,     323,     353,     342,     349
     311,     367,     329,     335,     314,     334,     356,     330
     303,     295,     293,     325,     341,     291,     312,     312
     287,     306,     297,     316,     309,     325,     335,     314
     318,     322,     329,     301,     325,     340,     337,     320
     314,     348,     315,     345,     335,     366,     324,     340
     337,     326,     353,     334,     374,     395,     383,     364
     333,     387,     348,     359,     392,     371,     375,     366
     355,     346,     354,     348,     394,     379,     397,     396
     369,     392,     414,     403,     413,     474,     460,     469
     453,     481,     443,     470,     512,     464,     478,     469
     505,     490,     486,     483,     500,     509,     494,     481
     497,     440,     484,     460,     518,     409,     421,     441
     402,     454,     381,     425,     428,     388,     423,     434
     423,     404,     417,     374,     394,     423,     422,     400
     415,     417,     440,     482,     485,     489,     465,     493
     555,     502,     514,     559,     525,     567,     580,     571
     642,     625,     668,     672,     659,     654,     706,     704
     686,     749,     723,     696,     729,     734,     732,     673
     729,     659,     708,     617,     635,     616,     592,     568
     523,     511,     476,     461,     410,     433,     409,     413
     396,     394,     408,     378,     347,     341,     353,     328
     344,     351,     364,     364,     351,     301,     322,     381
     355,     393,     345,     389,     346,     374,     404,     370
     363,     406,     395,     386,     396,     388,     386,     408
     365,     387,     377,     387,     398,     368,     367,     374
     384,     355,     344,     364,     370,     324,     358,     331
     357,     310,     299,     298,     327,     336,     324,     341
     317,     309,     264,     285,     307,     306,     300,     283
     271,     326,     294,     290,     276,     273,     257,     315
     311,     318,     304,     335,     289,     307,     296,     300
     314,     307,     294,     335,     358,     328,     321,     315
     331,     314,     346,     368,     355,     389,     382,     357
     400,     377,     388,     408,     433,     400,     386,     390
     421,     434,     436,     367,     395,     405,     432,     391
     448,     418,     462,     457,     433,     368,     383,     459
     435,     399,     408,     419,     409,     404,     402,     371
     405,     389,     399,     361,     375,     376,     360,     375
     322,     347,     356,     324,     346,     334,     323,     338
     313,     325,     312,     323,     289,     325,     306,     328
     265,     311,     316,     322,     307,     327,     323,     323
     361,     337,     341,     351,     317,     322,     343,     353
     364,     345,     340,     359,     419,     347,     364,     377
     368,     375,     358,     352,     324,     383,     373,     411
     417,     390,     442,     404,     446,     464,     461,     495
     465,     464,     440,     449,     464,     472,     497,     457
     483,     480,     506,     450,     500,     519,     472,     495
     518,     486,     520,     523,     496,     500,     506,     466
     478,     457,     456,     438,     440,     447,     446,     448
     443,     400,     376,     439,     371,     390,     363,     379
     398,     348,     335,     319,     317,     298,     344,     283
     311,     292,     276,     294,     287,     274,     288,     271
     303,     270,     306,     290,     245,     280,     235,     285
     246,     274,     264,     250,     283,     264,     267,     243
     272,     259,     245,     272,     261,     286,     258,     256
     274,     269,     240,     281,     265,     233,     280,     271
     234,     274,     298,     284,     271,     266,     264,     272
     264,     266,     256,     269,     232,     283,     300,     263
     277,     280,     263,     297,     268,     285,     269,     259
     285,     276,     242,     269,     313,     264,     282,     258
     297,     239,     297,     305,     287,     281,     298,     278
     314,     311,     304,     308,     292,     292,     338,     337
     313,     313,     306,     341,     315,     308,     337,     349
     342,     311,     341,     347,     303,     323,     342,     312
     304,     293,     325,     296,     331,     296,     308,     310
     316,     291,     289,     303,     271,     303,     292,     281
     287,     302,     282,     314,     293,     341,     248,     313
     302,     338,     298,     272,     332,     303,     282,     302
     288,     261,     280,     274,     320,     325,     317,     303
     319,     315,     317,     331,     315,     307,     291,     299
     317,     304,     312,     307,     304,     310,     341,     304
     305,     326,     300,     323,     295,     299,     300,     285
     303,     274,     301,     281,     304,     286,     288,     295
     294,     234,     249,     308,     293,     258,     300,     283
     316,     271,     314,     310,     298,     323,     338,     297
     335,     302,     329,     335,     314,     351,     348,     311
     314,     323,     326,     320,     318,     319,     349,     292
     320,     331,     284,     326,     282,     279,     262,     276
     315,     280,     298,     326,     287,     306,     302,     283
     270,     271,     234,     256,     266,     257,     233,     251
     263,     282,     276,     245,     268,     305,     301,     289
     241,     310,     277,     316,     278,     284,     349,     295
     305,     283,     278,     308,     317,     324,     341,     318
     322,     327,     335,     351,     357,     307,     349,     365
     346,     357,     342,     364,     340,     359,     339,     327
     309,     342,     304,     304,     339,     313,     312,     323
     320,     352,     293,     337,     337,     322,     303,     296
     320,     301,     306,     311,     332,     322,     352,     351
     344,     359,     415,     387,     382,     371,     377,     378
     403,     380,     394,     412,     397,     406,     415,     378
     392,     398,     389,     392,     357,     356,     371,     359
     340,     345,     365,     322,     335,     350,     338,     347
     359,     326,     353,     346,     348,     348,     329,     318
     306,     310,     359,     299,     372,     357,     303,     297
     304,     320,     325,     317,     292,     287,     295,     309
     299,     296,     283,     293,     299,     285,     288,     324
     314,     296,     262,     303,     273,     268,     230,     243
     273,     285,     270,     294,     289,     291,     291,     275
     275,     319,     283,     269,     321,     283,     270,     267
     304,     277,     262,     272,     266,     285,     287,     283
     299,     267,     297,     285,     288,     260,     280,     242
     251,     291,     270,     248,     283,     247,     225,     216
     274,     224,     225,     245,     242,     263,     286,     232
     247,     268,     224,     279,     233,     224,     242,     215
     241,     245,     274,     248,     237,     243,     237,     243
     261,     242,     249,     243,     236,     212,     248,     232
     242,     249,     241,     220,     239,     239,     295,     260
     269,     260,     297,     293,     282,     302,     301,     284
     279,     275,     313,     309,     284,     317,     302,     308
     284,     312,     347,     303,     288,     326,     287,     292
     271,     310,     275,     278,     278,     245,     318,     294
     275,     271,     264,     263,     238,     272,     263,     270
     226,     264,     286,     280,     271,     265,     295,     264
     264,     290,     247,     289,     283,     287,     301,     293
     275,     288,     303,     286,     298,     305,     266,     282
     287,     243,     304,     337,     287,     304,     308,     314
     336,     286,     272,     296,     284,     296,     314,     258
     271,     272,     270,     294,     278,     293,     307,     267
     271,     297,     284,     274,     292,     299,     291,     280
     302,     282,     288,     290,     278,     294,     286,     287
     247,     284,     291,     296,     272,     280,     282,     293
     296,     300,     295,     260,     279,     289,     280,     277
     279,     277,     276,     277,     270,     293,     281,     257
     276,     279,     302,     279,     292,     302,     274,     273
     301,     237,     285,     285,     312,     311,     283,     297
     296,     298,     263,     261,     292,     268,     270,     296
     300,     312,     270,     295,     259,     272,     279,     224
     296,     274,     261,     279,     241,     277,     260,     283
     261,     265,     256,     270,     267,     301,     278,     269
     261,     260,     236,     257,     264,     267,     298,     279
     238,     276,     229,     270,     278,     266,     300,     282
     293,     242,     263,     301,     289,     277,     325,     287
     329,     321,     336,     304,     364,     358,     450,     440
     427,     451,     465,     499,     471,     494,     491,     498
     479,     472,     478,     507,     497,     502,     527,     530
     534,     564,     508,     596,     560,     530,     537,     561
     519,     504,     528,     449,     511,     470,     432,     400
     465,     409,     417,     413,     377,     376,     350,     350
     347,     306,     318,     334,     297,     302,     305,     274
     283,     284,     301,     264,     282,     233,     246,     240
     279,     224,     232,     266,     230,     249,     214,     238
     274,     218,     242,     215,     219,     225,     227,     225
     243,     225,     258,     247,     233,     232,     244,     230
     250,     240,     251,     264,     268,     256,     256,     249
     244,     246,     236,     261,     277,     283,     250,     297
     269,     258,     283,     290,     300,     292,     294,     271
     303,     265,     295,     290,     319,     310,     262,     283
     256,     272,     321,     287,     265,     279,     230,     256
     263,     245,     273,     277,     272,     273,     244,     261
     237,     258,     240,     230,     208,     239,     243,     243
     231,     215,     258,     256,     218,     196,     235,     231
     247,     230,     210,     241,     207,     222,     277,     212
     219,     211,     210,     211,     209,     231,     229,     209
     188,     204,     233,     200,     235,     207,     208,     224
     219,     186,     211,     214,     201,     195,     233,     201
     203,     209,     204,     205,     204,     215,     232,     238
     250,     235,     209,     237,     267,     261,     207,     241
     245,     234,     213,     235,     232,     256,     260,     226
     213,     235,     228,     231,     245,     235,     219,     249
     232,     206,     218,     226,     216,     225,     217,     240
     205,     213,     202,     231,     206,     202,     228,     214
     204,     225,     239,     223,     217,     223,     250,     256
     264,     243,     240,     189,     229,     242,     229,     237
     251,     259,     267,     289,     269,     290,     232,     248
     273,     279,     264,     264,     265,     271,     265,     283
     277,     248,     257,     246,     282,     266,     267,     278
     271,     278,     285,     289,     302,     267,     271,     276
     267,     281,     271,     245,     246,     237,     233,     239
     219,     242,     250,     239,     237,     240,     221,     226
     226,     236,     224,     206,     245,     263,     203,     210
     217,     203,     208,     191,     237,     201,     223,     200
     218,     216,     236,     215,     211,     202,     217,     227
     210,     233,     224,     260,     229,     250,     276,     213
     235,     241,     225,     224,     235,     217,     229,     238
     250,     262,     206,     232,     234,     200,     210,     242
     215,     218,     234,     198,     257,     208,     225,     213
     213,     222,     229,     235,     234,     217,     242,     233
     229,     222,     194,     225,     211,     239,     243,     275
     274,     241,     239,     266,     247,     268,     229,     241
     223,     265,     222,     258,     257,     236,     280,     262
     243,     293,     241,     261,     274,     287,     277,     287
     265,     247,     290,     247,     249,     285,     256,     257
     265,     248,     263,     247,     230,     282,     230,     235
     234,     278,     257,     269,     249,     268,     216,     215
     236,     230,     214,     217,     228,     213,     242,     230
     221,     235,     231,     232,     207,     249,     211,     229
     227,     226,     214,     216,     218,     249,     217,     218
     256,     261,     257,     210,     232,     222,     216,     226
     212,     183,     224,     215,     218,     223,     201,     227
     212,     216,     214,     221,     185,     213,     187,     240
     175,     188,     211,     179,     212,     183,     227,     195
     189,     228,     193,     210,     200,     185,     220,     186
     219,     190,     201,     182,     196,     202,     209,     206
     203,     212,     217,     187,     219,     245,     237,     237
     250,     244,     268,     259,     244,     266,     265,     270
     263,     217,     226,     295,     250,     240,     275,     258
     246,     282,     264,     336,     272,     290,     286,     275
     264,     241,     238,     239,     256,     241,     243,     242
     218,     221,     235,     212,     220,     232,     260,     231
     213,     238,     203,     213,     214,     208,     204,     207
     205,     225,     202,     210,     224,     222,     199,     239
     195,     231,     205,     225,     205,     225,     199,     195
     211,     200,     226,     207,     222,     194,     213,     210
     201,     202,     193,     216,     197,     216,     215,     241
     208,     197,     214,     185,     187,     196,     222,     209
     200,     204,     180,     193,     200,     222,     182,     186
     173,     168,     198,     198,     185,     193,     183,     200
     186,     194,     192,     190,     181,     183,     174,     174
     194,     203,     204,     193,     193,     195,     192,     205
     198,     190,     215,     213,     210,     205,     193,     198
     199,     183,     209,     197,     221,     210,     204,     180
     215,     224,     192,     207,     222,     225,     224,     256
     201,     226,     241,     211,     232,     224,     235,     214
     221,     202,     213,     227,     214,     197,     221,     199
     200,     207,     204,     205,     211,     207,     204,     215
     215,     197,     220,     231,     227,     214,     175,     190
     225,     210,     216,     222,     224,     202,     192,     225
     215,     194,     217,     211,     187,     200,     186,     227
     209,     232,     244,     261,     279,     271,     297,     275
     267,     247,     283,     269,     263,     284,     243,     272
     273,     279,     308,     285,     301,     310,     304,     297
     306,     297,     291,     236,     258,     239,     247,     219
     247,     235,     229,     279,     233,     218,     206,     220
     223,     218,     203,     217,     216,     206,     200,     201
     186,     203,     192,     195,     178,     203,/
