[Measurement conditions]
Sample identification,
Comment,
Anode material,Cu
K-Alpha1 wavelength,1.5405980
K-Alpha2 wavelength,1.5444260
Ratio K-Alpha2/K-Alpha1,0.500
Divergence slit,Fixed,0.76mm
Monochromator used,NO
Generator voltage, 40
Tube current, 15
File date and time,04/Apr/2023 08:22
Unit cell,
h k l, 0 0 0
Scan axis,Gonio
Scan range,4.997000000,69.978311200
Scan step size,0.0434658
No. of points, 1495
Scan type,CONTINUOUS
Time per step,96.390
[Scan points]
Angle, TimePerStep, Intensity, ESD
5.018732880, 96.390, 10853.0, 104.1777
5.062198640, 96.390, 11161.0, 105.6456
5.105664400, 96.390, 11560.0, 107.5174
5.149130160, 96.390, 12004.0, 109.5628
5.192595920, 96.390, 12838.0, 113.3049
5.236061680, 96.390, 12974.0, 113.9035
5.279527440, 96.390, 13878.0, 117.8049
5.322993200, 96.390, 15725.0, 125.3994
5.366458960, 96.390, 17554.0, 132.4915
5.409924720, 96.390, 19851.0, 140.8936
5.453390480, 96.390, 23753.0, 154.1201
5.496856240, 96.390, 31146.0, 176.4823
5.540322000, 96.390, 37508.0, 193.6698
5.583787760, 96.390, 44749.0, 211.5396
5.627253520, 96.390, 56040.0, 236.7277
5.670719280, 96.390, 75541.0, 274.8472
5.714185040, 96.390, 105578.0, 324.9277
5.757650800, 96.390, 142790.0, 377.8756
5.801116560, 96.390, 221710.0, 470.8609
5.844582320, 96.390, 357677.0, 598.0610
5.888048080, 96.390, 435720.0, 660.0909
5.931513840, 96.390, 385082.0, 620.5498
5.974979600, 96.390, 206682.0, 454.6229
6.018445360, 96.390, 63300.0, 251.5949
6.061911120, 96.390, 27021.0, 164.3807
6.105376880, 96.390, 19509.0, 139.6746
6.148842640, 96.390, 16658.0, 129.0659
6.192308400, 96.390, 14852.0, 121.8688
6.235774160, 96.390, 13645.0, 116.8118
6.279239920, 96.390, 12114.0, 110.0636
6.322705680, 96.390, 11287.0, 106.2403
6.366171440, 96.390, 10504.0, 102.4890
6.409637200, 96.390, 10326.0, 101.6169
6.453102960, 96.390, 9415.0, 97.0309
6.496568720, 96.390, 9339.0, 96.6385
6.540034480, 96.390, 8967.0, 94.6942
6.583500240, 96.390, 8305.0, 91.1318
6.626966000, 96.390, 8390.0, 91.5969
6.670431760, 96.390, 8123.0, 90.1277
6.713897520, 96.390, 7859.0, 88.6510
6.757363280, 96.390, 7587.0, 87.1034
6.800829040, 96.390, 7502.0, 86.6141
6.844294800, 96.390, 7102.0, 84.2734
6.887760560, 96.390, 6819.0, 82.5772
6.931226320, 96.390, 6838.0, 82.6922
6.974692080, 96.390, 6659.0, 81.6027
7.018157840, 96.390, 6358.0, 79.7371
7.061623600, 96.390, 6136.0, 78.3326
7.105089360, 96.390, 5977.0, 77.3111
7.148555120, 96.390, 5839.0, 76.4133
7.192020880, 96.390, 5731.0, 75.7034
7.235486640, 96.390, 5604.0, 74.8599
7.278952400, 96.390, 5348.0, 73.1300
7.322418160, 96.390, 5324.0, 72.9657
7.365883920, 96.390, 5392.0, 73.4302
7.409349680, 96.390, 5130.0, 71.6240
7.452815440, 96.390, 4881.0, 69.8642
7.496281200, 96.390, 4736.0, 68.8186
7.539746960, 96.390, 4664.0, 68.2935
7.583212720, 96.390, 4535.0, 67.3424
7.626678480, 96.390, 4460.0, 66.7832
7.670144240, 96.390, 4376.0, 66.1513
7.713610000, 96.390, 4350.0, 65.9545
7.757075760, 96.390, 4340.0, 65.8787
7.800541520, 96.390, 4467.0, 66.8356
7.844007280, 96.390, 4289.0, 65.4905
7.887473040, 96.390, 4251.0, 65.1997
7.930938800, 96.390, 4252.0, 65.2074
7.974404560, 96.390, 4178.0, 64.6375
8.017870320, 96.390, 4464.0, 66.8132
8.061336080, 96.390, 4463.0, 66.8057
8.104801840, 96.390, 4490.0, 67.0075
8.148267600, 96.390, 4075.0, 63.8357
8.191733360, 96.390, 4131.0, 64.2729
8.235199120, 96.390, 4098.0, 64.0156
8.278664880, 96.390, 4088.0, 63.9375
8.322130640, 96.390, 4228.0, 65.0231
8.365596400, 96.390, 4479.0, 66.9253
8.409062160, 96.390, 4634.0, 68.0735
8.452527920, 96.390, 5138.0, 71.6798
8.495993680, 96.390, 5147.0, 71.7426
8.539459440, 96.390, 5361.0, 73.2189
8.582925200, 96.390, 5075.0, 71.2390
8.626390960, 96.390, 4642.0, 68.1322
8.669856720, 96.390, 4154.0, 64.4515
8.713322480, 96.390, 3798.0, 61.6279
8.756788240, 96.390, 3765.0, 61.3596
8.800254000, 96.390, 3823.0, 61.8304
8.843719760, 96.390, 3899.0, 62.4420
8.887185520, 96.390, 3983.0, 63.1110
8.930651280, 96.390, 4375.0, 66.1438
8.974117040, 96.390, 4420.0, 66.4831
9.017582800, 96.390, 4861.0, 69.7209
9.061048560, 96.390, 5298.0, 72.7874
9.104514320, 96.390, 5929.0, 77.0000
9.147980080, 96.390, 6561.0, 81.0000
9.191445840, 96.390, 7093.0, 84.2200
9.234911600, 96.390, 7602.0, 87.1894
9.278377360, 96.390, 7711.0, 87.8123
9.321843120, 96.390, 7949.0, 89.1572
9.365308880, 96.390, 8227.0, 90.7028
9.408774640, 96.390, 7618.0, 87.2812
9.452240400, 96.390, 7053.0, 83.9821
9.495706160, 96.390, 6511.0, 80.6908
9.539171920, 96.390, 6982.0, 83.5584
9.582637680, 96.390, 7858.0, 88.6454
9.626103440, 96.390, 8912.0, 94.4034
9.669569200, 96.390, 9926.0, 99.6293
9.713034960, 96.390, 10322.0, 101.5972
9.756500720, 96.390, 10156.0, 100.7770
9.799966480, 96.390, 9095.0, 95.3677
9.843432240, 96.390, 8607.0, 92.7739
9.886898000, 96.390, 9132.0, 95.5615
9.930363760, 96.390, 10626.0, 103.0825
9.973829520, 96.390, 11423.0, 106.8784
10.017295280, 96.390, 12156.0, 110.2543
10.060761040, 96.390, 11801.0, 108.6324
10.104226800, 96.390, 9246.0, 96.1561
10.147692560, 96.390, 6650.0, 81.5475
10.191158320, 96.390, 5036.0, 70.9648
10.234624080, 96.390, 4162.0, 64.5136
10.278089840, 96.390, 4056.0, 63.6867
10.321555600, 96.390, 4421.0, 66.4906
10.365021360, 96.390, 4576.0, 67.6461
10.408487120, 96.390, 4615.0, 67.9338
10.451952880, 96.390, 4154.0, 64.4515
10.495418640, 96.390, 3909.0, 62.5220
10.538884400, 96.390, 3801.0, 61.6523
10.582350160, 96.390, 3800.0, 61.6441
10.625815920, 96.390, 3885.0, 62.3298
10.669281680, 96.390, 3880.0, 62.2896
10.712747440, 96.390, 3909.0, 62.5220
10.756213200, 96.390, 3993.0, 63.1902
10.799678960, 96.390, 4128.0, 64.2495
10.843144720, 96.390, 4535.0, 67.3424
10.886610480, 96.390, 4592.0, 67.7643
10.930076240, 96.390, 4265.0, 65.3070
10.973542000, 96.390, 4396.0, 66.3023
11.017007760, 96.390, 4217.0, 64.9384
11.060473520, 96.390, 4171.0, 64.5833
11.103939280, 96.390, 4163.0, 64.5213
11.147405040, 96.390, 4380.0, 66.1816
11.190870800, 96.390, 4591.0, 67.7569
11.234336560, 96.390, 4797.0, 69.2604
11.277802320, 96.390, 5278.0, 72.6498
11.321268080, 96.390, 5694.0, 75.4586
11.364733840, 96.390, 6774.0, 82.3043
11.408199600, 96.390, 8357.0, 91.4166
11.451665360, 96.390, 10916.0, 104.4797
11.495131120, 96.390, 16722.0, 129.3136
11.538596880, 96.390, 27645.0, 166.2679
11.582062640, 96.390, 31244.0, 176.7597
11.625528400, 96.390, 26603.0, 163.1043
11.668994160, 96.390, 29887.0, 172.8786
11.712459920, 96.390, 41612.0, 203.9902
11.755925680, 96.390, 58527.0, 241.9235
11.799391440, 96.390, 69025.0, 262.7261
11.842857200, 96.390, 54626.0, 233.7221
11.886322960, 96.390, 28492.0, 168.7957
11.929788720, 96.390, 11785.0, 108.5587
11.973254480, 96.390, 8080.0, 89.8888
12.016720240, 96.390, 7569.0, 87.0000
12.060186000, 96.390, 7928.0, 89.0393
12.103651760, 96.390, 8597.0, 92.7200
12.147117520, 96.390, 9554.0, 97.7446
12.190583280, 96.390, 10743.0, 103.6484
12.234049040, 96.390, 13347.0, 115.5292
12.277514800, 96.390, 17175.0, 131.0534
12.320980560, 96.390, 20102.0, 141.7815
12.364446320, 96.390, 21250.0, 145.7738
12.407912080, 96.390, 20107.0, 141.7992
12.451377840, 96.390, 17474.0, 132.1893
12.494843600, 96.390, 15721.0, 125.3834
12.538309360, 96.390, 12305.0, 110.9279
12.581775120, 96.390, 8894.0, 94.3080
12.625240880, 96.390, 6196.0, 78.7147
12.668706640, 96.390, 5112.0, 71.4983
12.712172400, 96.390, 4950.0, 70.3562
12.755638160, 96.390, 4906.0, 70.0428
12.799103920, 96.390, 4990.0, 70.6399
12.842569680, 96.390, 5138.0, 71.6798
12.886035440, 96.390, 5357.0, 73.1915
12.929501200, 96.390, 5771.0, 75.9671
12.972966960, 96.390, 6102.0, 78.1153
13.016432720, 96.390, 6210.0, 78.8036
13.059898480, 96.390, 6508.0, 80.6722
13.103364240, 96.390, 6506.0, 80.6598
13.146830000, 96.390, 5893.0, 76.7659
13.190295760, 96.390, 5400.0, 73.4847
13.233761520, 96.390, 4808.0, 69.3397
13.277227280, 96.390, 4361.0, 66.0379
13.320693040, 96.390, 4187.0, 64.7070
13.364158800, 96.390, 4325.0, 65.7647
13.407624560, 96.390, 4313.0, 65.6734
13.451090320, 96.390, 4342.0, 65.8939
13.494556080, 96.390, 4475.0, 66.8954
13.538021840, 96.390, 4575.0, 67.6387
13.581487600, 96.390, 4868.0, 69.7711
13.624953360, 96.390, 5459.0, 73.8850
13.668419120, 96.390, 5919.0, 76.9350
13.711884880, 96.390, 6231.0, 78.9367
13.755350640, 96.390, 6508.0, 80.6722
13.798816400, 96.390, 6720.0, 81.9756
13.842282160, 96.390, 6761.0, 82.2253
13.885747920, 96.390, 6842.0, 82.7164
13.929213680, 96.390, 7566.0, 86.9828
13.972679440, 96.390, 8339.0, 91.3181
14.016145200, 96.390, 9255.0, 96.2029
14.059610960, 96.390, 10088.0, 100.4390
14.103076720, 96.390, 10539.0, 102.6596
14.146542480, 96.390, 10814.0, 103.9904
14.190008240, 96.390, 9925.0, 99.6243
14.233474000, 96.390, 8873.0, 94.1966
14.276939760, 96.390, 7728.0, 87.9090
14.320405520, 96.390, 6557.0, 80.9753
14.363871280, 96.390, 5529.0, 74.3572
14.407337040, 96.390, 4664.0, 68.2935
14.450802800, 96.390, 4499.0, 67.0746
14.494268560, 96.390, 4353.0, 65.9773
14.537734320, 96.390, 4388.0, 66.2420
14.581200080, 96.390, 4435.0, 66.5958
14.624665840, 96.390, 4594.0, 67.7791
14.668131600, 96.390, 4751.0, 68.9275
14.711597360, 96.390, 4806.0, 69.3253
14.755063120, 96.390, 4748.0, 68.9057
14.798528880, 96.390, 4789.0, 69.2026
14.841994640, 96.390, 4775.0, 69.1014
14.885460400, 96.390, 4685.0, 68.4471
14.928926160, 96.390, 4825.0, 69.4622
14.972391920, 96.390, 4720.0, 68.7023
15.015857680, 96.390, 4697.0, 68.5347
15.059323440, 96.390, 4872.0, 69.7997
15.102789200, 96.390, 5057.0, 71.1126
15.146254960, 96.390, 5151.0, 71.7705
15.189720720, 96.390, 5332.0, 73.0205
15.233186480, 96.390, 5971.0, 77.2722
15.276652240, 96.390, 6232.0, 78.9430
15.320118000, 96.390, 6666.0, 81.6456
15.363583760, 96.390, 6670.0, 81.6701
15.407049520, 96.390, 6411.0, 80.0687
15.450515280, 96.390, 6309.0, 79.4292
15.493981040, 96.390, 5998.0, 77.4468
15.537446800, 96.390, 5658.0, 75.2197
15.580912560, 96.390, 5713.0, 75.5844
15.624378320, 96.390, 5890.0, 76.7463
15.667844080, 96.390, 5936.0, 77.0454
15.711309840, 96.390, 5810.0, 76.2234
15.754775600, 96.390, 5540.0, 74.4312
15.798241360, 96.390, 5179.0, 71.9653
15.841707120, 96.390, 5000.0, 70.7107
15.885172880, 96.390, 4717.0, 68.6804
15.928638640, 96.390, 4820.0, 69.4262
15.972104400, 96.390, 4885.0, 69.8928
16.015570160, 96.390, 5129.0, 71.6170
16.059035920, 96.390, 5378.0, 73.3348
16.102501680, 96.390, 5427.0, 73.6682
16.145967440, 96.390, 5469.0, 73.9527
16.189433200, 96.390, 5427.0, 73.6682
16.232898960, 96.390, 5390.0, 73.4166
16.276364720, 96.390, 5010.0, 70.7814
16.319830480, 96.390, 4847.0, 69.6204
16.363296240, 96.390, 4885.0, 69.8928
16.406762000, 96.390, 5098.0, 71.4003
16.450227760, 96.390, 5189.0, 72.0347
16.493693520, 96.390, 5552.0, 74.5117
16.537159280, 96.390, 5668.0, 75.2861
16.580625040, 96.390, 6166.0, 78.5239
16.624090800, 96.390, 6800.0, 82.4621
16.667556560, 96.390, 7359.0, 85.7846
16.711022320, 96.390, 7630.0, 87.3499
16.754488080, 96.390, 7851.0, 88.6059
16.797953840, 96.390, 8437.0, 91.8531
16.841419600, 96.390, 9108.0, 95.4358
16.884885360, 96.390, 10927.0, 104.5323
16.928351120, 96.390, 13370.0, 115.6287
16.971816880, 96.390, 15857.0, 125.9246
17.015282640, 96.390, 16367.0, 127.9336
17.058748400, 96.390, 15934.0, 126.2299
17.102214160, 96.390, 15276.0, 123.5961
17.145679920, 96.390, 14888.0, 122.0164
17.189145680, 96.390, 14544.0, 120.5985
17.232611440, 96.390, 13680.0, 116.9615
17.276077200, 96.390, 11980.0, 109.4532
17.319542960, 96.390, 10886.0, 104.3360
17.363008720, 96.390, 11460.0, 107.0514
17.406474480, 96.390, 13210.0, 114.9348
17.449940240, 96.390, 15490.0, 124.4588
17.493406000, 96.390, 18028.0, 134.2684
17.536871760, 96.390, 18866.0, 137.3536
17.580337520, 96.390, 18055.0, 134.3689
17.623803280, 96.390, 16235.0, 127.4166
17.667269040, 96.390, 14674.0, 121.1363
17.710734800, 96.390, 13762.0, 117.3116
17.754200560, 96.390, 13557.0, 116.4345
17.797666320, 96.390, 13781.0, 117.3925
17.841132080, 96.390, 14927.0, 122.1761
17.884597840, 96.390, 16272.0, 127.5617
17.928063600, 96.390, 17661.0, 132.8947
17.971529360, 96.390, 19072.0, 138.1014
18.014995120, 96.390, 21654.0, 147.1530
18.058460880, 96.390, 26468.0, 162.6899
18.101926640, 96.390, 33263.0, 182.3815
18.145392400, 96.390, 41044.0, 202.5932
18.188858160, 96.390, 49582.0, 222.6702
18.232323920, 96.390, 52969.0, 230.1500
18.275789680, 96.390, 46878.0, 216.5133
18.319255440, 96.390, 36610.0, 191.3374
18.362721200, 96.390, 26284.0, 162.1234
18.406186960, 96.390, 19402.0, 139.2911
18.449652720, 96.390, 14159.0, 118.9916
18.493118480, 96.390, 10927.0, 104.5323
18.536584240, 96.390, 10522.0, 102.5768
18.580050000, 96.390, 10862.0, 104.2209
18.623515760, 96.390, 11585.0, 107.6336
18.666981520, 96.390, 12385.0, 111.2879
18.710447280, 96.390, 13950.0, 118.1101
18.753913040, 96.390, 16464.0, 128.3121
18.797378800, 96.390, 19766.0, 140.5916
18.840844560, 96.390, 21975.0, 148.2397
18.884310320, 96.390, 22916.0, 151.3803
18.927776080, 96.390, 21926.0, 148.0743
18.971241840, 96.390, 20566.0, 143.4085
19.014707600, 96.390, 18700.0, 136.7479
19.058173360, 96.390, 17410.0, 131.9470
19.101639120, 96.390, 17870.0, 133.6787
19.145104880, 96.390, 18546.0, 136.1837
19.188570640, 96.390, 19264.0, 138.7948
19.232036400, 96.390, 19965.0, 141.2976
19.275502160, 96.390, 22830.0, 151.0960
19.318967920, 96.390, 25217.0, 158.7986
19.362433680, 96.390, 26855.0, 163.8750
19.405899440, 96.390, 27114.0, 164.6633
19.449365200, 96.390, 26322.0, 162.2406
19.492830960, 96.390, 24135.0, 155.3544
19.536296720, 96.390, 21103.0, 145.2687
19.579762480, 96.390, 18848.0, 137.2880
19.623228240, 96.390, 18154.0, 134.7368
19.666694000, 96.390, 19612.0, 140.0429
19.710159760, 96.390, 26684.0, 163.3524
19.753625520, 96.390, 37845.0, 194.5379
19.797091280, 96.390, 40870.0, 202.1633
19.840557040, 96.390, 35037.0, 187.1817
19.884022800, 96.390, 30901.0, 175.7868
19.927488560, 96.390, 24330.0, 155.9808
19.970954320, 96.390, 16326.0, 127.7732
20.014420080, 96.390, 11962.0, 109.3709
20.057885840, 96.390, 10497.0, 102.4549
20.101351600, 96.390, 9445.0, 97.1854
20.144817360, 96.390, 8690.0, 93.2202
20.188283120, 96.390, 8344.0, 91.3455
20.231748880, 96.390, 7837.0, 88.5268
20.275214640, 96.390, 7464.0, 86.3944
20.318680400, 96.390, 7514.0, 86.6833
20.362146160, 96.390, 7549.0, 86.8850
20.405611920, 96.390, 8409.0, 91.7006
20.449077680, 96.390, 9637.0, 98.1682
20.492543440, 96.390, 11311.0, 106.3532
20.536009200, 96.390, 13517.0, 116.2626
20.579474960, 96.390, 15663.0, 125.1519
20.622940720, 96.390, 17539.0, 132.4349
20.666406480, 96.390, 18085.0, 134.4805
20.709872240, 96.390, 16984.0, 130.3227
20.753338000, 96.390, 15794.0, 125.6742
20.796803760, 96.390, 14817.0, 121.7251
20.840269520, 96.390, 14357.0, 119.8207
20.883735280, 96.390, 15240.0, 123.4504
20.927201040, 96.390, 16309.0, 127.7067
20.970666800, 96.390, 17572.0, 132.5594
21.014132560, 96.390, 17899.0, 133.7871
21.057598320, 96.390, 17650.0, 132.8533
21.101064080, 96.390, 17080.0, 130.6905
21.144529840, 96.390, 16775.0, 129.5183
21.187995600, 96.390, 16611.0, 128.8837
21.231461360, 96.390, 15465.0, 124.3584
21.274927120, 96.390, 14136.0, 118.8949
21.318392880, 96.390, 12550.0, 112.0268
21.361858640, 96.390, 11607.0, 107.7358
21.405324400, 96.390, 11561.0, 107.5221
21.448790160, 96.390, 11925.0, 109.2016
21.492255920, 96.390, 12773.0, 113.0177
21.535721680, 96.390, 12863.0, 113.4152
21.579187440, 96.390, 13030.0, 114.1490
21.622653200, 96.390, 12902.0, 113.5870
21.666118960, 96.390, 12004.0, 109.5628
21.709584720, 96.390, 11160.0, 105.6409
21.753050480, 96.390, 10894.0, 104.3743
21.796516240, 96.390, 11552.0, 107.4802
21.839982000, 96.390, 13760.0, 117.3030
21.883447760, 96.390, 17137.0, 130.9084
21.926913520, 96.390, 19106.0, 138.2245
21.970379280, 96.390, 19926.0, 141.1595
22.013845040, 96.390, 17946.0, 133.9627
22.057310800, 96.390, 15055.0, 122.6988
22.100776560, 96.390, 11656.0, 107.9630
22.144242320, 96.390, 8623.0, 92.8601
22.187708080, 96.390, 7258.0, 85.1939
22.231173840, 96.390, 6468.0, 80.4239
22.274639600, 96.390, 6543.0, 80.8888
22.318105360, 96.390, 6315.0, 79.4670
22.361571120, 96.390, 6489.0, 80.5543
22.405036880, 96.390, 6610.0, 81.3019
22.448502640, 96.390, 6342.0, 79.6367
22.491968400, 96.390, 6468.0, 80.4239
22.535434160, 96.390, 6795.0, 82.4318
22.578899920, 96.390, 7038.0, 83.8928
22.622365680, 96.390, 7709.0, 87.8009
22.665831440, 96.390, 8029.0, 89.6047
22.709297200, 96.390, 8699.0, 93.2684
22.752762960, 96.390, 9205.0, 95.9427
22.796228720, 96.390, 9118.0, 95.4882
22.839694480, 96.390, 9114.0, 95.4673
22.883160240, 96.390, 9291.0, 96.3898
22.926626000, 96.390, 9522.0, 97.5807
22.970091760, 96.390, 9434.0, 97.1288
23.013557520, 96.390, 9481.0, 97.3704
23.057023280, 96.390, 9838.0, 99.1867
23.100489040, 96.390, 10052.0, 100.2597
23.143954800, 96.390, 9405.0, 96.9794
23.187420560, 96.390, 8790.0, 93.7550
23.230886320, 96.390, 8257.0, 90.8680
23.274352080, 96.390, 8646.0, 92.9839
23.317817840, 96.390, 9150.0, 95.6556
23.361283600, 96.390, 10187.0, 100.9307
23.404749360, 96.390, 11150.0, 105.5936
23.448215120, 96.390, 11582.0, 107.6197
23.491680880, 96.390, 11833.0, 108.7796
23.535146640, 96.390, 12034.0, 109.6996
23.578612400, 96.390, 12348.0, 111.1216
23.622078160, 96.390, 11707.0, 108.1989
23.665543920, 96.390, 10609.0, 103.0000
23.709009680, 96.390, 9798.0, 98.9848
23.752475440, 96.390, 9120.0, 95.4987
23.795941200, 96.390, 8240.0, 90.7744
23.839406960, 96.390, 7377.0, 85.8895
23.882872720, 96.390, 6623.0, 81.3818
23.926338480, 96.390, 5979.0, 77.3240
23.969804240, 96.390, 5925.0, 76.9740
24.013270000, 96.390, 5822.0, 76.3020
24.056735760, 96.390, 6011.0, 77.5306
24.100201520, 96.390, 6135.0, 78.3262
24.143667280, 96.390, 6589.0, 81.1727
24.187133040, 96.390, 6899.0, 83.0602
24.230598800, 96.390, 7309.0, 85.4927
24.274064560, 96.390, 7873.0, 88.7299
24.317530320, 96.390, 8277.0, 90.9780
24.360996080, 96.390, 8562.0, 92.5311
24.404461840, 96.390, 8516.0, 92.2822
24.447927600, 96.390, 8514.0, 92.2713
24.491393360, 96.390, 7968.0, 89.2637
24.534859120, 96.390, 7350.0, 85.7321
24.578324880, 96.390, 6706.0, 81.8902
24.621790640, 96.390, 6349.0, 79.6806
24.665256400, 96.390, 6251.0, 79.0633
24.708722160, 96.390, 6432.0, 80.1998
24.752187920, 96.390, 6887.0, 82.9880
24.795653680, 96.390, 7754.0, 88.0568
24.839119440, 96.390, 8367.0, 91.4713
24.882585200, 96.390, 8715.0, 93.3542
24.926050960, 96.390, 8624.0, 92.8655
24.969516720, 96.390, 8551.0, 92.4716
25.012982480, 96.390, 8834.0, 93.9894
25.056448240, 96.390, 9752.0, 98.7522
25.099914000, 96.390, 10267.0, 101.3262
25.143379760, 96.390, 9390.0, 96.9020
25.186845520, 96.390, 8303.0, 91.1208
25.230311280, 96.390, 7638.0, 87.3957
25.273777040, 96.390, 7501.0, 86.6083
25.317242800, 96.390, 7660.0, 87.5214
25.360708560, 96.390, 8055.0, 89.7497
25.404174320, 96.390, 8209.0, 90.6035
25.447640080, 96.390, 8119.0, 90.1055
25.491105840, 96.390, 7513.0, 86.6776
25.534571600, 96.390, 7185.0, 84.7644
25.578037360, 96.390, 6721.0, 81.9817
25.621503120, 96.390, 6228.0, 78.9177
25.664968880, 96.390, 5686.0, 75.4056
25.708434640, 96.390, 5200.0, 72.1110
25.751900400, 96.390, 4788.0, 69.1954
25.795366160, 96.390, 4754.0, 68.9493
25.838831920, 96.390, 4468.0, 66.8431
25.882297680, 96.390, 4361.0, 66.0379
25.925763440, 96.390, 4384.0, 66.2118
25.969229200, 96.390, 4578.0, 67.6609
26.012694960, 96.390, 4635.0, 68.0808
26.056160720, 96.390, 4610.0, 67.8970
26.099626480, 96.390, 4655.0, 68.2276
26.143092240, 96.390, 4801.0, 69.2892
26.186558000, 96.390, 5428.0, 73.6750
26.230023760, 96.390, 5930.0, 77.0065
26.273489520, 96.390, 6545.0, 80.9012
26.316955280, 96.390, 7256.0, 85.1822
26.360421040, 96.390, 7953.0, 89.1796
26.403886800, 96.390, 8451.0, 91.9293
26.447352560, 96.390, 8630.0, 92.8978
26.490818320, 96.390, 8721.0, 93.3863
26.534284080, 96.390, 8387.0, 91.5806
26.577749840, 96.390, 7754.0, 88.0568
26.621215600, 96.390, 6890.0, 83.0060
26.664681360, 96.390, 6178.0, 78.6003
26.708147120, 96.390, 5886.0, 76.7203
26.751612880, 96.390, 5898.0, 76.7984
26.795078640, 96.390, 6395.0, 79.9687
26.838544400, 96.390, 6799.0, 82.4560
26.882010160, 96.390, 7098.0, 84.2496
26.925475920, 96.390, 7271.0, 85.2702
26.968941680, 96.390, 7179.0, 84.7290
27.012407440, 96.390, 6730.0, 82.0366
27.055873200, 96.390, 5969.0, 77.2593
27.099338960, 96.390, 5330.0, 73.0068
27.142804720, 96.390, 4940.0, 70.2851
27.186270480, 96.390, 4611.0, 67.9043
27.229736240, 96.390, 4355.0, 65.9924
27.273202000, 96.390, 4251.0, 65.1997
27.316667760, 96.390, 4407.0, 66.3852
27.360133520, 96.390, 4354.0, 65.9848
27.403599280, 96.390, 4366.0, 66.0757
27.447065040, 96.390, 4455.0, 66.7458
27.490530800, 96.390, 4311.0, 65.6582
27.533996560, 96.390, 4109.0, 64.1015
27.577462320, 96.390, 4032.0, 63.4980
27.620928080, 96.390, 3897.0, 62.4260
27.664393840, 96.390, 3994.0, 63.1981
27.707859600, 96.390, 4081.0, 63.8827
27.751325360, 96.390, 4156.0, 64.4670
27.794791120, 96.390, 4004.0, 63.2772
27.838256880, 96.390, 4187.0, 64.7070
27.881722640, 96.390, 4196.0, 64.7765
27.925188400, 96.390, 4158.0, 64.4826
27.968654160, 96.390, 4125.0, 64.2262
28.012119920, 96.390, 4389.0, 66.2495
28.055585680, 96.390, 4383.0, 66.2042
28.099051440, 96.390, 4565.0, 67.5648
28.142517200, 96.390, 4679.0, 68.4032
28.185982960, 96.390, 4950.0, 70.3562
28.229448720, 96.390, 5141.0, 71.7008
28.272914480, 96.390, 5551.0, 74.5050
28.316380240, 96.390, 5834.0, 76.3806
28.359846000, 96.390, 5739.0, 75.7562
28.403311760, 96.390, 5449.0, 73.8173
28.446777520, 96.390, 5464.0, 73.9189
28.490243280, 96.390, 5988.0, 77.3822
28.533709040, 96.390, 5951.0, 77.1427
28.577174800, 96.390, 5549.0, 74.4916
28.620640560, 96.390, 5247.0, 72.4362
28.664106320, 96.390, 5082.0, 71.2881
28.707572080, 96.390, 5059.0, 71.1266
28.751037840, 96.390, 4939.0, 70.2780
28.794503600, 96.390, 4655.0, 68.2276
28.837969360, 96.390, 4275.0, 65.3835
28.881435120, 96.390, 4187.0, 64.7070
28.924900880, 96.390, 4215.0, 64.9230
28.968366640, 96.390, 4242.0, 65.1306
29.011832400, 96.390, 4400.0, 66.3325
29.055298160, 96.390, 4225.0, 65.0000
29.098763920, 96.390, 4405.0, 66.3702
29.142229680, 96.390, 4197.0, 64.7843
29.185695440, 96.390, 4203.0, 64.8305
29.229161200, 96.390, 4191.0, 64.7379
29.272626960, 96.390, 4208.0, 64.8691
29.316092720, 96.390, 4261.0, 65.2763
29.359558480, 96.390, 4316.0, 65.6963
29.403024240, 96.390, 4389.0, 66.2495
29.446490000, 96.390, 4539.0, 67.3721
29.489955760, 96.390, 4373.0, 66.1287
29.533421520, 96.390, 4444.0, 66.6633
29.576887280, 96.390, 4386.0, 66.2269
29.620353040, 96.390, 4406.0, 66.3777
29.663818800, 96.390, 4587.0, 67.7274
29.707284560, 96.390, 4717.0, 68.6804
29.750750320, 96.390, 5088.0, 71.3302
29.794216080, 96.390, 5214.0, 72.2080
29.837681840, 96.390, 5242.0, 72.4017
29.881147600, 96.390, 5194.0, 72.0694
29.924613360, 96.390, 4982.0, 70.5833
29.968079120, 96.390, 4861.0, 69.7209
30.011544880, 96.390, 4479.0, 66.9253
30.055010640, 96.390, 4298.0, 65.5591
30.098476400, 96.390, 4057.0, 63.6946
30.141942160, 96.390, 4185.0, 64.6916
30.185407920, 96.390, 4311.0, 65.6582
30.228873680, 96.390, 4383.0, 66.2042
30.272339440, 96.390, 4591.0, 67.7569
30.315805200, 96.390, 4471.0, 66.8655
30.359270960, 96.390, 4451.0, 66.7158
30.402736720, 96.390, 4531.0, 67.3127
30.446202480, 96.390, 4813.0, 69.3758
30.489668240, 96.390, 5225.0, 72.2842
30.533134000, 96.390, 5524.0, 74.3236
30.576599760, 96.390, 5863.0, 76.5702
30.620065520, 96.390, 5954.0, 77.1622
30.663531280, 96.390, 5935.0, 77.0390
30.706997040, 96.390, 5782.0, 76.0395
30.750462800, 96.390, 5267.0, 72.5741
30.793928560, 96.390, 5216.0, 72.2219
30.837394320, 96.390, 5099.0, 71.4073
30.880860080, 96.390, 5445.0, 73.7902
30.924325840, 96.390, 5878.0, 76.6681
30.967791600, 96.390, 5680.0, 75.3658
31.011257360, 96.390, 4848.0, 69.6276
31.054723120, 96.390, 4411.0, 66.4154
31.098188880, 96.390, 3934.0, 62.7216
31.141654640, 96.390, 3852.0, 62.0645
31.185120400, 96.390, 3698.0, 60.8112
31.228586160, 96.390, 3629.0, 60.2412
31.272051920, 96.390, 3503.0, 59.1861
31.315517680, 96.390, 3529.0, 59.4054
31.358983440, 96.390, 3419.0, 58.4722
31.402449200, 96.390, 3423.0, 58.5064
31.445914960, 96.390, 3431.0, 58.5747
31.489380720, 96.390, 3508.0, 59.2284
31.532846480, 96.390, 3501.0, 59.1692
31.576312240, 96.390, 3332.0, 57.7235
31.619778000, 96.390, 3340.0, 57.7927
31.663243760, 96.390, 3404.0, 58.3438
31.706709520, 96.390, 3299.0, 57.4369
31.750175280, 96.390, 3266.0, 57.1489
31.793641040, 96.390, 3443.0, 58.6771
31.837106800, 96.390, 3446.0, 58.7026
31.880572560, 96.390, 3347.0, 57.8533
31.924038320, 96.390, 3354.0, 57.9137
31.967504080, 96.390, 3468.0, 58.8897
32.010969840, 96.390, 3495.0, 59.1185
32.054435600, 96.390, 3594.0, 59.9500
32.097901360, 96.390, 3786.0, 61.5305
32.141367120, 96.390, 3980.0, 63.0872
32.184832880, 96.390, 4121.0, 64.1950
32.228298640, 96.390, 4175.0, 64.6142
32.271764400, 96.390, 4146.0, 64.3894
32.315230160, 96.390, 3962.0, 62.9444
32.358695920, 96.390, 3958.0, 62.9126
32.402161680, 96.390, 3926.0, 62.6578
32.445627440, 96.390, 3874.0, 62.2415
32.489093200, 96.390, 3865.0, 62.1691
32.532558960, 96.390, 3805.0, 61.6847
32.576024720, 96.390, 3881.0, 62.2977
32.619490480, 96.390, 3856.0, 62.0967
32.662956240, 96.390, 3939.0, 62.7615
32.706422000, 96.390, 3984.0, 63.1189
32.749887760, 96.390, 3984.0, 63.1189
32.793353520, 96.390, 4001.0, 63.2535
32.836819280, 96.390, 4122.0, 64.2028
32.880285040, 96.390, 4014.0, 63.3561
32.923750800, 96.390, 4146.0, 64.3894
32.967216560, 96.390, 4256.0, 65.2380
33.010682320, 96.390, 4311.0, 65.6582
33.054148080, 96.390, 4378.0, 66.1665
33.097613840, 96.390, 4194.0, 64.7611
33.141079600, 96.390, 4226.0, 65.0077
33.184545360, 96.390, 4014.0, 63.3561
33.228011120, 96.390, 3829.0, 61.8789
33.271476880, 96.390, 3715.0, 60.9508
33.314942640, 96.390, 3737.0, 61.1310
33.358408400, 96.390, 3586.0, 59.8832
33.401874160, 96.390, 3411.0, 58.4038
33.445339920, 96.390, 3502.0, 59.1777
33.488805680, 96.390, 3563.0, 59.6909
33.532271440, 96.390, 3634.0, 60.2827
33.575737200, 96.390, 3829.0, 61.8789
33.619202960, 96.390, 3713.0, 60.9344
33.662668720, 96.390, 4000.0, 63.2456
33.706134480, 96.390, 4117.0, 64.1639
33.749600240, 96.390, 4273.0, 65.3682
33.793066000, 96.390, 4717.0, 68.6804
33.836531760, 96.390, 5160.0, 71.8331
33.879997520, 96.390, 5710.0, 75.5645
33.923463280, 96.390, 6077.0, 77.9551
33.966929040, 96.390, 5939.0, 77.0649
34.010394800, 96.390, 5926.0, 76.9805
34.053860560, 96.390, 5420.0, 73.6206
34.097326320, 96.390, 4958.0, 70.4131
34.140792080, 96.390, 4377.0, 66.1589
34.184257840, 96.390, 4090.0, 63.9531
34.227723600, 96.390, 3932.0, 62.7057
34.271189360, 96.390, 3841.0, 61.9758
34.314655120, 96.390, 3879.0, 62.2816
34.358120880, 96.390, 4025.0, 63.4429
34.401586640, 96.390, 4271.0, 65.3529
34.445052400, 96.390, 4337.0, 65.8559
34.488518160, 96.390, 4391.0, 66.2646
34.531983920, 96.390, 4385.0, 66.2193
34.575449680, 96.390, 4273.0, 65.3682
34.618915440, 96.390, 4470.0, 66.8581
34.662381200, 96.390, 4796.0, 69.2532
34.705846960, 96.390, 4895.0, 69.9643
34.749312720, 96.390, 4806.0, 69.3253
34.792778480, 96.390, 4596.0, 67.7938
34.836244240, 96.390, 4632.0, 68.0588
34.879710000, 96.390, 4254.0, 65.2227
34.923175760, 96.390, 4119.0, 64.1794
34.966641520, 96.390, 3851.0, 62.0564
35.010107280, 96.390, 3654.0, 60.4483
35.053573040, 96.390, 3750.0, 61.2372
35.097038800, 96.390, 3750.0, 61.2372
35.140504560, 96.390, 3753.0, 61.2617
35.183970320, 96.390, 3729.0, 61.0655
35.227436080, 96.390, 3728.0, 61.0574
35.270901840, 96.390, 3819.0, 61.7981
35.314367600, 96.390, 4023.0, 63.4271
35.357833360, 96.390, 4059.0, 63.7103
35.401299120, 96.390, 4039.0, 63.5531
35.444764880, 96.390, 4118.0, 64.1716
35.488230640, 96.390, 4195.0, 64.7688
35.531696400, 96.390, 4382.0, 66.1967
35.575162160, 96.390, 4505.0, 67.1193
35.618627920, 96.390, 5180.0, 71.9722
35.662093680, 96.390, 5883.0, 76.7007
35.705559440, 96.390, 5805.0, 76.1906
35.749025200, 96.390, 5512.0, 74.2428
35.792490960, 96.390, 5702.0, 75.5116
35.835956720, 96.390, 5982.0, 77.3434
35.879422480, 96.390, 6516.0, 80.7217
35.922888240, 96.390, 6443.0, 80.2683
35.966354000, 96.390, 6020.0, 77.5887
36.009819760, 96.390, 5634.0, 75.0600
36.053285520, 96.390, 4895.0, 69.9643
36.096751280, 96.390, 4314.0, 65.6810
36.140217040, 96.390, 3987.0, 63.1427
36.183682800, 96.390, 3834.0, 61.9193
36.227148560, 96.390, 3655.0, 60.4566
36.270614320, 96.390, 3534.0, 59.4475
36.314080080, 96.390, 3748.0, 61.2209
36.357545840, 96.390, 3757.0, 61.2944
36.401011600, 96.390, 3622.0, 60.1831
36.444477360, 96.390, 3847.0, 62.0242
36.487943120, 96.390, 3823.0, 61.8304
36.531408880, 96.390, 3856.0, 62.0967
36.574874640, 96.390, 3999.0, 63.2376
36.618340400, 96.390, 3895.0, 62.4099
36.661806160, 96.390, 3905.0, 62.4900
36.705271920, 96.390, 3788.0, 61.5467
36.748737680, 96.390, 3774.0, 61.4329
36.792203440, 96.390, 3748.0, 61.2209
36.835669200, 96.390, 3589.0, 59.9083
36.879134960, 96.390, 3497.0, 59.1354
36.922600720, 96.390, 3570.0, 59.7495
36.966066480, 96.390, 3621.0, 60.1747
37.009532240, 96.390, 3549.0, 59.5735
37.052998000, 96.390, 3499.0, 59.1523
37.096463760, 96.390, 3553.0, 59.6070
37.139929520, 96.390, 3438.0, 58.6345
37.183395280, 96.390, 3390.0, 58.2237
37.226861040, 96.390, 3422.0, 58.4979
37.270326800, 96.390, 3613.0, 60.1082
37.313792560, 96.390, 3631.0, 60.2578
37.357258320, 96.390, 3744.0, 61.1882
37.400724080, 96.390, 3876.0, 62.2575
37.444189840, 96.390, 3786.0, 61.5305
37.487655600, 96.390, 3835.0, 61.9274
37.531121360, 96.390, 3669.0, 60.5723
37.574587120, 96.390, 3451.0, 58.7452
37.618052880, 96.390, 3605.0, 60.0417
37.661518640, 96.390, 3747.0, 61.2127
37.704984400, 96.390, 3966.0, 62.9762
37.748450160, 96.390, 4056.0, 63.6867
37.791915920, 96.390, 4209.0, 64.8768
37.835381680, 96.390, 4066.0, 63.7652
37.878847440, 96.390, 4030.0, 63.4823
37.922313200, 96.390, 4023.0, 63.4271
37.965778960, 96.390, 3865.0, 62.1691
38.009244720, 96.390, 3849.0, 62.0403
38.052710480, 96.390, 3909.0, 62.5220
38.096176240, 96.390, 3983.0, 63.1110
38.139642000, 96.390, 4151.0, 64.4283
38.183107760, 96.390, 4059.0, 63.7103
38.226573520, 96.390, 4015.0, 63.3640
38.270039280, 96.390, 3806.0, 61.6928
38.313505040, 96.390, 3643.0, 60.3573
38.356970800, 96.390, 3524.0, 59.3633
38.400436560, 96.390, 3332.0, 57.7235
38.443902320, 96.390, 3380.0, 58.1378
38.487368080, 96.390, 3307.0, 57.5065
38.530833840, 96.390, 3404.0, 58.3438
38.574299600, 96.390, 3431.0, 58.5747
38.617765360, 96.390, 3744.0, 61.1882
38.661231120, 96.390, 3890.0, 62.3699
38.704696880, 96.390, 3914.0, 62.5620
38.748162640, 96.390, 3971.0, 63.0159
38.791628400, 96.390, 3954.0, 62.8808
38.835094160, 96.390, 3949.0, 62.8411
38.878559920, 96.390, 3954.0, 62.8808
38.922025680, 96.390, 3866.0, 62.1772
38.965491440, 96.390, 3771.0, 61.4085
39.008957200, 96.390, 3724.0, 61.0246
39.052422960, 96.390, 3607.0, 60.0583
39.095888720, 96.390, 3571.0, 59.7578
39.139354480, 96.390, 3691.0, 60.7536
39.182820240, 96.390, 3669.0, 60.5723
39.226286000, 96.390, 3608.0, 60.0666
39.269751760, 96.390, 3521.0, 59.3380
39.313217520, 96.390, 3696.0, 60.7947
39.356683280, 96.390, 3825.0, 61.8466
39.400149040, 96.390, 3860.0, 62.1289
39.443614800, 96.390, 4192.0, 64.7457
39.487080560, 96.390, 4255.0, 65.2304
39.530546320, 96.390, 4157.0, 64.4748
39.574012080, 96.390, 4369.0, 66.0984
39.617477840, 96.390, 4335.0, 65.8407
39.660943600, 96.390, 4311.0, 65.6582
39.704409360, 96.390, 4514.0, 67.1863
39.747875120, 96.390, 4895.0, 69.9643
39.791340880, 96.390, 5170.0, 71.9027
39.834806640, 96.390, 5582.0, 74.7128
39.878272400, 96.390, 6445.0, 80.2808
39.921738160, 96.390, 7243.0, 85.1058
39.965203920, 96.390, 7725.0, 87.8920
40.008669680, 96.390, 7929.0, 89.0449
40.052135440, 96.390, 7655.0, 87.4929
40.095601200, 96.390, 7200.0, 84.8528
40.139066960, 96.390, 6785.0, 82.3711
40.182532720, 96.390, 6636.0, 81.4616
40.225998480, 96.390, 6600.0, 81.2404
40.269464240, 96.390, 6193.0, 78.6956
40.312930000, 96.390, 5743.0, 75.7826
40.356395760, 96.390, 5335.0, 73.0411
40.399861520, 96.390, 4837.0, 69.5485
40.443327280, 96.390, 4364.0, 66.0606
40.486793040, 96.390, 4051.0, 63.6475
40.530258800, 96.390, 4071.0, 63.8044
40.573724560, 96.390, 3971.0, 63.0159
40.617190320, 96.390, 3935.0, 62.7296
40.660656080, 96.390, 3922.0, 62.6259
40.704121840, 96.390, 4125.0, 64.2262
40.747587600, 96.390, 4169.0, 64.5678
40.791053360, 96.390, 4156.0, 64.4670
40.834519120, 96.390, 4092.0, 63.9687
40.877984880, 96.390, 4268.0, 65.3299
40.921450640, 96.390, 4400.0, 66.3325
40.964916400, 96.390, 4175.0, 64.6142
41.008382160, 96.390, 4164.0, 64.5291
41.051847920, 96.390, 4150.0, 64.4205
41.095313680, 96.390, 3997.0, 63.2218
41.138779440, 96.390, 3703.0, 60.8523
41.182245200, 96.390, 3579.0, 59.8247
41.225710960, 96.390, 3694.0, 60.7783
41.269176720, 96.390, 3458.0, 58.8048
41.312642480, 96.390, 3440.0, 58.6515
41.356108240, 96.390, 3405.0, 58.3524
41.399574000, 96.390, 3238.0, 56.9034
41.443039760, 96.390, 3403.0, 58.3352
41.486505520, 96.390, 3365.0, 58.0086
41.529971280, 96.390, 3314.0, 57.5674
41.573437040, 96.390, 3387.0, 58.1979
41.616902800, 96.390, 3295.0, 57.4021
41.660368560, 96.390, 3290.0, 57.3585
41.703834320, 96.390, 3441.0, 58.6600
41.747300080, 96.390, 3333.0, 57.7321
41.790765840, 96.390, 3468.0, 58.8897
41.834231600, 96.390, 3504.0, 59.1946
41.877697360, 96.390, 3563.0, 59.6909
41.921163120, 96.390, 3583.0, 59.8582
41.964628880, 96.390, 3594.0, 59.9500
42.008094640, 96.390, 3531.0, 59.4222
42.051560400, 96.390, 3512.0, 59.2621
42.095026160, 96.390, 3692.0, 60.7618
42.138491920, 96.390, 3620.0, 60.1664
42.181957680, 96.390, 3726.0, 61.0410
42.225423440, 96.390, 3686.0, 60.7124
42.268889200, 96.390, 3716.0, 60.9590
42.312354960, 96.390, 3687.0, 60.7207
42.355820720, 96.390, 3578.0, 59.8164
42.399286480, 96.390, 3475.0, 58.9491
42.442752240, 96.390, 3436.0, 58.6174
42.486218000, 96.390, 3462.0, 58.8388
42.529683760, 96.390, 3538.0, 59.4811
42.573149520, 96.390, 3582.0, 59.8498
42.616615280, 96.390, 3763.0, 61.3433
42.660081040, 96.390, 3791.0, 61.5711
42.703546800, 96.390, 3907.0, 62.5060
42.747012560, 96.390, 4143.0, 64.3661
42.790478320, 96.390, 4510.0, 67.1565
42.833944080, 96.390, 4684.0, 68.4398
42.877409840, 96.390, 4537.0, 67.3573
42.920875600, 96.390, 4582.0, 67.6905
42.964341360, 96.390, 4535.0, 67.3424
43.007807120, 96.390, 4374.0, 66.1362
43.051272880, 96.390, 4218.0, 64.9461
43.094738640, 96.390, 4148.0, 64.4050
43.138204400, 96.390, 4077.0, 63.8514
43.181670160, 96.390, 3811.0, 61.7333
43.225135920, 96.390, 3655.0, 60.4566
43.268601680, 96.390, 3554.0, 59.6154
43.312067440, 96.390, 3329.0, 57.6975
43.355533200, 96.390, 3342.0, 57.8100
43.398998960, 96.390, 3210.0, 56.6569
43.442464720, 96.390, 3066.0, 55.3715
43.485930480, 96.390, 3240.0, 56.9210
43.529396240, 96.390, 3071.0, 55.4166
43.572862000, 96.390, 3141.0, 56.0446
43.616327760, 96.390, 3049.0, 55.2178
43.659793520, 96.390, 3098.0, 55.6597
43.703259280, 96.390, 3007.0, 54.8361
43.746725040, 96.390, 3020.0, 54.9545
43.790190800, 96.390, 3104.0, 55.7136
43.833656560, 96.390, 2999.0, 54.7631
43.877122320, 96.390, 2847.0, 53.3573
43.920588080, 96.390, 2962.0, 54.4243
43.964053840, 96.390, 2880.0, 53.6656
44.007519600, 96.390, 2973.0, 54.5252
44.050985360, 96.390, 3024.0, 54.9909
44.094451120, 96.390, 3016.0, 54.9181
44.137916880, 96.390, 3130.0, 55.9464
44.181382640, 96.390, 3014.0, 54.8999
44.224848400, 96.390, 3076.0, 55.4617
44.268314160, 96.390, 3063.0, 55.3444
44.311779920, 96.390, 2985.0, 54.6352
44.355245680, 96.390, 3047.0, 55.1996
44.398711440, 96.390, 3057.0, 55.2901
44.442177200, 96.390, 3196.0, 56.5332
44.485642960, 96.390, 3261.0, 57.1052
44.529108720, 96.390, 3257.0, 57.0701
44.572574480, 96.390, 3248.0, 56.9912
44.616040240, 96.390, 3254.0, 57.0438
44.659506000, 96.390, 3349.0, 57.8705
44.702971760, 96.390, 3311.0, 57.5413
44.746437520, 96.390, 3417.0, 58.4551
44.789903280, 96.390, 3393.0, 58.2495
44.833369040, 96.390, 3472.0, 58.9237
44.876834800, 96.390, 3578.0, 59.8164
44.920300560, 96.390, 3573.0, 59.7746
44.963766320, 96.390, 3671.0, 60.5888
45.007232080, 96.390, 3415.0, 58.4380
45.050697840, 96.390, 3554.0, 59.6154
45.094163600, 96.390, 3580.0, 59.8331
45.137629360, 96.390, 3620.0, 60.1664
45.181095120, 96.390, 3876.0, 62.2575
45.224560880, 96.390, 3719.0, 60.9836
45.268026640, 96.390, 3771.0, 61.4085
45.311492400, 96.390, 4072.0, 63.8122
45.354958160, 96.390, 4062.0, 63.7338
45.398423920, 96.390, 3744.0, 61.1882
45.441889680, 96.390, 3741.0, 61.1637
45.485355440, 96.390, 3570.0, 59.7495
45.528821200, 96.390, 3424.0, 58.5150
45.572286960, 96.390, 3246.0, 56.9737
45.615752720, 96.390, 3173.0, 56.3294
45.659218480, 96.390, 3075.0, 55.4527
45.702684240, 96.390, 3054.0, 55.2630
45.746150000, 96.390, 3150.0, 56.1249
45.789615760, 96.390, 3129.0, 55.9375
45.833081520, 96.390, 3079.0, 55.4887
45.876547280, 96.390, 3195.0, 56.5243
45.920013040, 96.390, 3073.0, 55.4346
45.963478800, 96.390, 3355.0, 57.9224
46.006944560, 96.390, 3572.0, 59.7662
46.050410320, 96.390, 3855.0, 62.0886
46.093876080, 96.390, 4355.0, 65.9924
46.137341840, 96.390, 4744.0, 68.8767
46.180807600, 96.390, 4955.0, 70.3918
46.224273360, 96.390, 5263.0, 72.5465
46.267739120, 96.390, 5093.0, 71.3653
46.311204880, 96.390, 4939.0, 70.2780
46.354670640, 96.390, 4670.0, 68.3374
46.398136400, 96.390, 4763.0, 69.0145
46.441602160, 96.390, 4041.0, 63.5689
46.485067920, 96.390, 3665.0, 60.5392
46.528533680, 96.390, 3588.0, 59.8999
46.571999440, 96.390, 3348.0, 57.8619
46.615465200, 96.390, 3228.0, 56.8155
46.658930960, 96.390, 3270.0, 57.1839
46.702396720, 96.390, 3294.0, 57.3934
46.745862480, 96.390, 3406.0, 58.3609
46.789328240, 96.390, 3398.0, 58.2924
46.832794000, 96.390, 3306.0, 57.4978
46.876259760, 96.390, 3281.0, 57.2800
46.919725520, 96.390, 3289.0, 57.3498
46.963191280, 96.390, 3175.0, 56.3471
47.006657040, 96.390, 3174.0, 56.3383
47.050122800, 96.390, 3215.0, 56.7010
47.093588560, 96.390, 3193.0, 56.5066
47.137054320, 96.390, 3098.0, 55.6597
47.180520080, 96.390, 3133.0, 55.9732
47.223985840, 96.390, 3224.0, 56.7803
47.267451600, 96.390, 3166.0, 56.2672
47.310917360, 96.390, 3154.0, 56.1605
47.354383120, 96.390, 3147.0, 56.0981
47.397848880, 96.390, 3036.0, 55.0999
47.441314640, 96.390, 2874.0, 53.6097
47.484780400, 96.390, 2885.0, 53.7122
47.528246160, 96.390, 2929.0, 54.1202
47.571711920, 96.390, 2818.0, 53.0848
47.615177680, 96.390, 2857.0, 53.4509
47.658643440, 96.390, 2715.0, 52.1057
47.702109200, 96.390, 2786.0, 52.7826
47.745574960, 96.390, 2763.0, 52.5642
47.789040720, 96.390, 2819.0, 53.0943
47.832506480, 96.390, 2857.0, 53.4509
47.875972240, 96.390, 2778.0, 52.7067
47.919438000, 96.390, 2807.0, 52.9811
47.962903760, 96.390, 2987.0, 54.6535
48.006369520, 96.390, 2944.0, 54.2586
48.049835280, 96.390, 2793.0, 52.8488
48.093301040, 96.390, 2852.0, 53.4041
48.136766800, 96.390, 2665.0, 51.6236
48.180232560, 96.390, 2739.0, 52.3355
48.223698320, 96.390, 2869.0, 53.5630
48.267164080, 96.390, 3085.0, 55.5428
48.310629840, 96.390, 3152.0, 56.1427
48.354095600, 96.390, 3054.0, 55.2630
48.397561360, 96.390, 3093.0, 55.6147
48.441027120, 96.390, 3230.0, 56.8331
48.484492880, 96.390, 3096.0, 55.6417
48.527958640, 96.390, 2972.0, 54.5161
48.571424400, 96.390, 2906.0, 53.9073
48.614890160, 96.390, 2944.0, 54.2586
48.658355920, 96.390, 2865.0, 53.5257
48.701821680, 96.390, 2808.0, 52.9906
48.745287440, 96.390, 2669.0, 51.6624
48.788753200, 96.390, 2550.0, 50.4975
48.832218960, 96.390, 2666.0, 51.6333
48.875684720, 96.390, 2711.0, 52.0673
48.919150480, 96.390, 2603.0, 51.0196
48.962616240, 96.390, 2537.0, 50.3686
49.006082000, 96.390, 2566.0, 50.6557
49.049547760, 96.390, 2574.0, 50.7346
49.093013520, 96.390, 2554.0, 50.5371
49.136479280, 96.390, 2594.0, 50.9313
49.179945040, 96.390, 2535.0, 50.3488
49.223410800, 96.390, 2590.0, 50.8920
49.266876560, 96.390, 2509.0, 50.0899
49.310342320, 96.390, 2565.0, 50.6458
49.353808080, 96.390, 2567.0, 50.6656
49.397273840, 96.390, 2707.0, 52.0288
49.440739600, 96.390, 2545.0, 50.4480
49.484205360, 96.390, 2615.0, 51.1371
49.527671120, 96.390, 2638.0, 51.3615
49.571136880, 96.390, 2450.0, 49.4975
49.614602640, 96.390, 2404.0, 49.0306
49.658068400, 96.390, 2486.0, 49.8598
49.701534160, 96.390, 2575.0, 50.7445
49.744999920, 96.390, 2483.0, 49.8297
49.788465680, 96.390, 2615.0, 51.1371
49.831931440, 96.390, 2601.0, 51.0000
49.875397200, 96.390, 2558.0, 50.5767
49.918862960, 96.390, 2415.0, 49.1426
49.962328720, 96.390, 2523.0, 50.2295
50.005794480, 96.390, 2500.0, 50.0000
50.049260240, 96.390, 2583.0, 50.8232
50.092726000, 96.390, 2492.0, 49.9199
50.136191760, 96.390, 2685.0, 51.8170
50.179657520, 96.390, 2584.0, 50.8331
50.223123280, 96.390, 2693.0, 51.8941
50.266589040, 96.390, 2720.0, 52.1536
50.310054800, 96.390, 2612.0, 51.1077
50.353520560, 96.390, 2610.0, 51.0882
50.396986320, 96.390, 2522.0, 50.2195
50.440452080, 96.390, 2511.0, 50.1099
50.483917840, 96.390, 2524.0, 50.2394
50.527383600, 96.390, 2417.0, 49.1630
50.570849360, 96.390, 2361.0, 48.5901
50.614315120, 96.390, 2328.0, 48.2494
50.657780880, 96.390, 2325.0, 48.2183
50.701246640, 96.390, 2372.0, 48.7032
50.744712400, 96.390, 2297.0, 47.9270
50.788178160, 96.390, 2303.0, 47.9896
50.831643920, 96.390, 2309.0, 48.0521
50.875109680, 96.390, 2346.0, 48.4355
50.918575440, 96.390, 2303.0, 47.9896
50.962041200, 96.390, 2424.0, 49.2341
51.005506960, 96.390, 2476.0, 49.7594
51.048972720, 96.390, 2306.0, 48.0208
51.092438480, 96.390, 2321.0, 48.1768
51.135904240, 96.390, 2349.0, 48.4665
51.179370000, 96.390, 2280.0, 47.7493
51.222835760, 96.390, 2220.0, 47.1169
51.266301520, 96.390, 2227.0, 47.1911
51.309767280, 96.390, 2255.0, 47.4868
51.353233040, 96.390, 2183.0, 46.7226
51.396698800, 96.390, 2173.0, 46.6154
51.440164560, 96.390, 2211.0, 47.0213
51.483630320, 96.390, 2283.0, 47.7807
51.527096080, 96.390, 2197.0, 46.8722
51.570561840, 96.390, 2274.0, 47.6865
51.614027600, 96.390, 2208.0, 46.9894
51.657493360, 96.390, 2257.0, 47.5079
51.700959120, 96.390, 2311.0, 48.0729
51.744424880, 96.390, 2234.0, 47.2652
51.787890640, 96.390, 2199.0, 46.8935
51.831356400, 96.390, 2225.0, 47.1699
51.874822160, 96.390, 2286.0, 47.8121
51.918287920, 96.390, 2352.0, 48.4974
51.961753680, 96.390, 2328.0, 48.2494
52.005219440, 96.390, 2290.0, 47.8539
52.048685200, 96.390, 2360.0, 48.5798
52.092150960, 96.390, 2411.0, 49.1019
52.135616720, 96.390, 2411.0, 49.1019
52.179082480, 96.390, 2406.0, 49.0510
52.222548240, 96.390, 2383.0, 48.8160
52.266014000, 96.390, 2288.0, 47.8330
52.309479760, 96.390, 2375.0, 48.7340
52.352945520, 96.390, 2315.0, 48.1144
52.396411280, 96.390, 2355.0, 48.5283
52.439877040, 96.390, 2270.0, 47.6445
52.483342800, 96.390, 2323.0, 48.1975
52.526808560, 96.390, 2213.0, 47.0425
52.570274320, 96.390, 2133.0, 46.1844
52.613740080, 96.390, 2162.0, 46.4973
52.657205840, 96.390, 2166.0, 46.5403
52.700671600, 96.390, 2139.0, 46.2493
52.744137360, 96.390, 2313.0, 48.0937
52.787603120, 96.390, 2253.0, 47.4658
52.831068880, 96.390, 2272.0, 47.6655
52.874534640, 96.390, 2234.0, 47.2652
52.918000400, 96.390, 2267.0, 47.6130
52.961466160, 96.390, 2346.0, 48.4355
53.004931920, 96.390, 2192.0, 46.8188
53.048397680, 96.390, 2192.0, 46.8188
53.091863440, 96.390, 2201.0, 46.9148
53.135329200, 96.390, 2253.0, 47.4658
53.178794960, 96.390, 2231.0, 47.2335
53.222260720, 96.390, 2332.0, 48.2908
53.265726480, 96.390, 2361.0, 48.5901
53.309192240, 96.390, 2349.0, 48.4665
53.352658000, 96.390, 2329.0, 48.2597
53.396123760, 96.390, 2193.0, 46.8295
53.439589520, 96.390, 2182.0, 46.7119
53.483055280, 96.390, 2145.0, 46.3141
53.526521040, 96.390, 2201.0, 46.9148
53.569986800, 96.390, 2111.0, 45.9456
53.613452560, 96.390, 2100.0, 45.8258
53.656918320, 96.390, 2137.0, 46.2277
53.700384080, 96.390, 2087.0, 45.6837
53.743849840, 96.390, 2160.0, 46.4758
53.787315600, 96.390, 2155.0, 46.4220
53.830781360, 96.390, 2142.0, 46.2817
53.874247120, 96.390, 2172.0, 46.6047
53.917712880, 96.390, 2060.0, 45.3872
53.961178640, 96.390, 2052.0, 45.2990
54.004644400, 96.390, 2017.0, 44.9110
54.048110160, 96.390, 2076.0, 45.5631
54.091575920, 96.390, 1973.0, 44.4185
54.135041680, 96.390, 2109.0, 45.9239
54.178507440, 96.390, 1985.0, 44.5533
54.221973200, 96.390, 2010.0, 44.8330
54.265438960, 96.390, 1999.0, 44.7102
54.308904720, 96.390, 2017.0, 44.9110
54.352370480, 96.390, 2050.0, 45.2769
54.395836240, 96.390, 2008.0, 44.8107
54.439302000, 96.390, 2045.0, 45.2217
54.482767760, 96.390, 2121.0, 46.0543
54.526233520, 96.390, 2027.0, 45.0222
54.569699280, 96.390, 2021.0, 44.9555
54.613165040, 96.390, 2101.0, 45.8367
54.656630800, 96.390, 1959.0, 44.2606
54.700096560, 96.390, 1929.0, 43.9204
54.743562320, 96.390, 1959.0, 44.2606
54.787028080, 96.390, 1925.0, 43.8748
54.830493840, 96.390, 1880.0, 43.3590
54.873959600, 96.390, 1823.0, 42.6966
54.917425360, 96.390, 1803.0, 42.4617
54.960891120, 96.390, 1852.0, 43.0349
55.004356880, 96.390, 1775.0, 42.1307
55.047822640, 96.390, 1846.0, 42.9651
55.091288400, 96.390, 1853.0, 43.0465
55.134754160, 96.390, 1805.0, 42.4853
55.178219920, 96.390, 1859.0, 43.1161
55.221685680, 96.390, 1838.0, 42.8719
55.265151440, 96.390, 1836.0, 42.8486
55.308617200, 96.390, 1783.0, 42.2256
55.352082960, 96.390, 1948.0, 44.1362
55.395548720, 96.390, 1860.0, 43.1277
55.439014480, 96.390, 1812.0, 42.5676
55.482480240, 96.390, 1735.0, 41.6533
55.525946000, 96.390, 1821.0, 42.6732
55.569411760, 96.390, 1863.0, 43.1625
55.612877520, 96.390, 1877.0, 43.3244
55.656343280, 96.390, 1943.0, 44.0795
55.699809040, 96.390, 1895.0, 43.5316
55.743274800, 96.390, 1873.0, 43.2782
55.786740560, 96.390, 1971.0, 44.3959
55.830206320, 96.390, 2163.0, 46.5081
55.873672080, 96.390, 2092.0, 45.7384
55.917137840, 96.390, 1960.0, 44.2719
55.960603600, 96.390, 1947.0, 44.1248
56.004069360, 96.390, 2082.0, 45.6289
56.047535120, 96.390, 2046.0, 45.2327
56.091000880, 96.390, 2033.0, 45.0888
56.134466640, 96.390, 1921.0, 43.8292
56.177932400, 96.390, 1979.0, 44.4860
56.221398160, 96.390, 1903.0, 43.6234
56.264863920, 96.390, 1957.0, 44.2380
56.308329680, 96.390, 1862.0, 43.1509
56.351795440, 96.390, 1822.0, 42.6849
56.395261200, 96.390, 1807.0, 42.5088
56.438726960, 96.390, 1821.0, 42.6732
56.482192720, 96.390, 1747.0, 41.7971
56.525658480, 96.390, 1755.0, 41.8927
56.569124240, 96.390, 1758.0, 41.9285
56.612590000, 96.390, 1856.0, 43.0813
56.656055760, 96.390, 1794.0, 42.3556
56.699521520, 96.390, 1786.0, 42.2611
56.742987280, 96.390, 1854.0, 43.0581
56.786453040, 96.390, 1758.0, 41.9285
56.829918800, 96.390, 1766.0, 42.0238
56.873384560, 96.390, 1769.0, 42.0595
56.916850320, 96.390, 1760.0, 41.9524
56.960316080, 96.390, 1769.0, 42.0595
57.003781840, 96.390, 1730.0, 41.5933
57.047247600, 96.390, 1686.0, 41.0609
57.090713360, 96.390, 1659.0, 40.7308
57.134179120, 96.390, 1687.0, 41.0731
57.177644880, 96.390, 1671.0, 40.8779
57.221110640, 96.390, 1675.0, 40.9268
57.264576400, 96.390, 1660.0, 40.7431
57.308042160, 96.390, 1728.0, 41.5692
57.351507920, 96.390, 1805.0, 42.4853
57.394973680, 96.390, 1692.0, 41.1339
57.438439440, 96.390, 1603.0, 40.0375
57.481905200, 96.390, 1638.0, 40.4722
57.525370960, 96.390, 1679.0, 40.9756
57.568836720, 96.390, 1631.0, 40.3856
57.612302480, 96.390, 1773.0, 42.1070
57.655768240, 96.390, 1670.0, 40.8656
57.699234000, 96.390, 1700.0, 41.2311
57.742699760, 96.390, 1688.0, 41.0853
57.786165520, 96.390, 1714.0, 41.4005
57.829631280, 96.390, 1697.0, 41.1947
57.873097040, 96.390, 1664.0, 40.7922
57.916562800, 96.390, 1629.0, 40.3609
57.960028560, 96.390, 1660.0, 40.7431
58.003494320, 96.390, 1695.0, 41.1704
58.046960080, 96.390, 1640.0, 40.4969
58.090425840, 96.390, 1640.0, 40.4969
58.133891600, 96.390, 1658.0, 40.7185
58.177357360, 96.390, 1596.0, 39.9500
58.220823120, 96.390, 1631.0, 40.3856
58.264288880, 96.390, 1618.0, 40.2244
58.307754640, 96.390, 1660.0, 40.7431
58.351220400, 96.390, 1697.0, 41.1947
58.394686160, 96.390, 1598.0, 39.9750
58.438151920, 96.390, 1679.0, 40.9756
58.481617680, 96.390, 1601.0, 40.0125
58.525083440, 96.390, 1658.0, 40.7185
58.568549200, 96.390, 1561.0, 39.5095
58.612014960, 96.390, 1538.0, 39.2173
58.655480720, 96.390, 1630.0, 40.3733
58.698946480, 96.390, 1657.0, 40.7063
58.742412240, 96.390, 1672.0, 40.8901
58.785878000, 96.390, 1663.0, 40.7799
58.829343760, 96.390, 1676.0, 40.9390
58.872809520, 96.390, 1702.0, 41.2553
58.916275280, 96.390, 1641.0, 40.5093
58.959741040, 96.390, 1628.0, 40.3485
59.003206800, 96.390, 1653.0, 40.6571
59.046672560, 96.390, 1704.0, 41.2795
59.090138320, 96.390, 1667.0, 40.8289
59.133604080, 96.390, 1664.0, 40.7922
59.177069840, 96.390, 1770.0, 42.0714
59.220535600, 96.390, 1737.0, 41.6773
59.264001360, 96.390, 1699.0, 41.2189
59.307467120, 96.390, 1636.0, 40.4475
59.350932880, 96.390, 1706.0, 41.3038
59.394398640, 96.390, 1584.0, 39.7995
59.437864400, 96.390, 1661.0, 40.7554
59.481330160, 96.390, 1712.0, 41.3763
59.524795920, 96.390, 1604.0, 40.0500
59.568261680, 96.390, 1669.0, 40.8534
59.611727440, 96.390, 1711.0, 41.3642
59.655193200, 96.390, 1612.0, 40.1497
59.698658960, 96.390, 1611.0, 40.1373
59.742124720, 96.390, 1571.0, 39.6358
59.785590480, 96.390, 1604.0, 40.0500
59.829056240, 96.390, 1595.0, 39.9375
59.872522000, 96.390, 1582.0, 39.7744
59.915987760, 96.390, 1508.0, 38.8330
59.959453520, 96.390, 1597.0, 39.9625
60.002919280, 96.390, 1550.0, 39.3700
60.046385040, 96.390, 1493.0, 38.6394
60.089850800, 96.390, 1506.0, 38.8072
60.133316560, 96.390, 1591.0, 39.8873
60.176782320, 96.390, 1511.0, 38.8716
60.220248080, 96.390, 1535.0, 39.1791
60.263713840, 96.390, 1416.0, 37.6298
60.307179600, 96.390, 1511.0, 38.8716
60.350645360, 96.390, 1470.0, 38.3406
60.394111120, 96.390, 1493.0, 38.6394
60.437576880, 96.390, 1515.0, 38.9230
60.481042640, 96.390, 1518.0, 38.9615
60.524508400, 96.390, 1512.0, 38.8844
60.567974160, 96.390, 1554.0, 39.4208
60.611439920, 96.390, 1466.0, 38.2884
60.654905680, 96.390, 1434.0, 37.8682
60.698371440, 96.390, 1445.0, 38.0132
60.741837200, 96.390, 1432.0, 37.8418
60.785302960, 96.390, 1541.0, 39.2556
60.828768720, 96.390, 1488.0, 38.5746
60.872234480, 96.390, 1497.0, 38.6911
60.915700240, 96.390, 1426.0, 37.7624
60.959166000, 96.390, 1472.0, 38.3667
61.002631760, 96.390, 1522.0, 39.0128
61.046097520, 96.390, 1436.0, 37.8946
61.089563280, 96.390, 1437.0, 37.9078
61.133029040, 96.390, 1414.0, 37.6032
61.176494800, 96.390, 1500.0, 38.7298
61.219960560, 96.390, 1474.0, 38.3927
61.263426320, 96.390, 1490.0, 38.6005
61.306892080, 96.390, 1537.0, 39.2046
61.350357840, 96.390, 1481.0, 38.4838
61.393823600, 96.390, 1494.0, 38.6523
61.437289360, 96.390, 1466.0, 38.2884
61.480755120, 96.390, 1441.0, 37.9605
61.524220880, 96.390, 1426.0, 37.7624
61.567686640, 96.390, 1485.0, 38.5357
61.611152400, 96.390, 1490.0, 38.6005
61.654618160, 96.390, 1501.0, 38.7427
61.698083920, 96.390, 1465.0, 38.2753
61.741549680, 96.390, 1554.0, 39.4208
61.785015440, 96.390, 1578.0, 39.7240
61.828481200, 96.390, 1493.0, 38.6394
61.871946960, 96.390, 1434.0, 37.8682
61.915412720, 96.390, 1442.0, 37.9737
61.958878480, 96.390, 1525.0, 39.0512
62.002344240, 96.390, 1438.0, 37.9210
62.045810000, 96.390, 1468.0, 38.3145
62.089275760, 96.390, 1444.0, 38.0000
62.132741520, 96.390, 1454.0, 38.1314
62.176207280, 96.390, 1468.0, 38.3145
62.219673040, 96.390, 1406.0, 37.4967
62.263138800, 96.390, 1408.0, 37.5233
62.306604560, 96.390, 1433.0, 37.8550
62.350070320, 96.390, 1405.0, 37.4833
62.393536080, 96.390, 1443.0, 37.9868
62.437001840, 96.390, 1502.0, 38.7556
62.480467600, 96.390, 1435.0, 37.8814
62.523933360, 96.390, 1519.0, 38.9744
62.567399120, 96.390, 1454.0, 38.1314
62.610864880, 96.390, 1499.0, 38.7169
62.654330640, 96.390, 1477.0, 38.4318
62.697796400, 96.390, 1469.0, 38.3275
62.741262160, 96.390, 1386.0, 37.2290
62.784727920, 96.390, 1480.0, 38.4708
62.828193680, 96.390, 1471.0, 38.3536
62.871659440, 96.390, 1420.0, 37.6829
62.915125200, 96.390, 1411.0, 37.5633
62.958590960, 96.390, 1502.0, 38.7556
63.002056720, 96.390, 1431.0, 37.8286
63.045522480, 96.390, 1393.0, 37.3229
63.088988240, 96.390, 1407.0, 37.5100
63.132454000, 96.390, 1385.0, 37.2156
63.175919760, 96.390, 1338.0, 36.5787
63.219385520, 96.390, 1388.0, 37.2559
63.262851280, 96.390, 1453.0, 38.1182
63.306317040, 96.390, 1420.0, 37.6829
63.349782800, 96.390, 1417.0, 37.6431
63.393248560, 96.390, 1347.0, 36.7015
63.436714320, 96.390, 1398.0, 37.3898
63.480180080, 96.390, 1406.0, 37.4967
63.523645840, 96.390, 1411.0, 37.5633
63.567111600, 96.390, 1410.0, 37.5500
63.610577360, 96.390, 1427.0, 37.7757
63.654043120, 96.390, 1433.0, 37.8550
63.697508880, 96.390, 1401.0, 37.4299
63.740974640, 96.390, 1365.0, 36.9459
63.784440400, 96.390, 1388.0, 37.2559
63.827906160, 96.390, 1388.0, 37.2559
63.871371920, 96.390, 1375.0, 37.0810
63.914837680, 96.390, 1371.0, 37.0270
63.958303440, 96.390, 1390.0, 37.2827
64.001769200, 96.390, 1372.0, 37.0405
64.045234960, 96.390, 1408.0, 37.5233
64.088700720, 96.390, 1383.0, 37.1887
64.132166480, 96.390, 1375.0, 37.0810
64.175632240, 96.390, 1321.0, 36.3456
64.219098000, 96.390, 1442.0, 37.9737
64.262563760, 96.390, 1391.0, 37.2961
64.306029520, 96.390, 1406.0, 37.4967
64.349495280, 96.390, 1410.0, 37.5500
64.392961040, 96.390, 1480.0, 38.4708
64.436426800, 96.390, 1496.0, 38.6782
64.479892560, 96.390, 1418.0, 37.6563
64.523358320, 96.390, 1402.0, 37.4433
64.566824080, 96.390, 1404.0, 37.4700
64.610289840, 96.390, 1386.0, 37.2290
64.653755600, 96.390, 1429.0, 37.8021
64.697221360, 96.390, 1378.0, 37.1214
64.740687120, 96.390, 1392.0, 37.3095
64.784152880, 96.390, 1370.0, 37.0135
64.827618640, 96.390, 1435.0, 37.8814
64.871084400, 96.390, 1388.0, 37.2559
64.914550160, 96.390, 1381.0, 37.1618
64.958015920, 96.390, 1412.0, 37.5766
65.001481680, 96.390, 1453.0, 38.1182
65.044947440, 96.390, 1420.0, 37.6829
65.088413200, 96.390, 1395.0, 37.3497
65.131878960, 96.390, 1351.0, 36.7560
65.175344720, 96.390, 1382.0, 37.1753
65.218810480, 96.390, 1346.0, 36.6879
65.262276240, 96.390, 1333.0, 36.5103
65.305742000, 96.390, 1445.0, 38.0132
65.349207760, 96.390, 1418.0, 37.6563
65.392673520, 96.390, 1382.0, 37.1753
65.436139280, 96.390, 1381.0, 37.1618
65.479605040, 96.390, 1472.0, 38.3667
65.523070800, 96.390, 1342.0, 36.6333
65.566536560, 96.390, 1370.0, 37.0135
65.610002320, 96.390, 1374.0, 37.0675
65.653468080, 96.390, 1349.0, 36.7287
65.696933840, 96.390, 1389.0, 37.2693
65.740399600, 96.390, 1464.0, 38.2623
65.783865360, 96.390, 1315.0, 36.2629
65.827331120, 96.390, 1363.0, 36.9188
65.870796880, 96.390, 1377.0, 37.1080
65.914262640, 96.390, 1391.0, 37.2961
65.957728400, 96.390, 1368.0, 36.9865
66.001194160, 96.390, 1346.0, 36.6879
66.044659920, 96.390, 1361.0, 36.8917
66.088125680, 96.390, 1350.0, 36.7423
66.131591440, 96.390, 1418.0, 37.6563
66.175057200, 96.390, 1383.0, 37.1887
66.218522960, 96.390, 1340.0, 36.6060
66.261988720, 96.390, 1282.0, 35.8050
66.305454480, 96.390, 1382.0, 37.1753
66.348920240, 96.390, 1306.0, 36.1386
66.392386000, 96.390, 1376.0, 37.0945
66.435851760, 96.390, 1340.0, 36.6060
66.479317520, 96.390, 1286.0, 35.8608
66.522783280, 96.390, 1359.0, 36.8646
66.566249040, 96.390, 1269.0, 35.6230
66.609714800, 96.390, 1355.0, 36.8103
66.653180560, 96.390, 1267.0, 35.5949
66.696646320, 96.390, 1368.0, 36.9865
66.740112080, 96.390, 1356.0, 36.8239
66.783577840, 96.390, 1317.0, 36.2905
66.827043600, 96.390, 1398.0, 37.3898
66.870509360, 96.390, 1393.0, 37.3229
66.913975120, 96.390, 1263.0, 35.5387
66.957440880, 96.390, 1291.0, 35.9305
67.000906640, 96.390, 1333.0, 36.5103
67.044372400, 96.390, 1320.0, 36.3318
67.087838160, 96.390, 1321.0, 36.3456
67.131303920, 96.390, 1351.0, 36.7560
67.174769680, 96.390, 1334.0, 36.5240
67.218235440, 96.390, 1269.0, 35.6230
67.261701200, 96.390, 1258.0, 35.4683
67.305166960, 96.390, 1278.0, 35.7491
67.348632720, 96.390, 1315.0, 36.2629
67.392098480, 96.390, 1333.0, 36.5103
67.435564240, 96.390, 1383.0, 37.1887
67.479030000, 96.390, 1316.0, 36.2767
67.522495760, 96.390, 1350.0, 36.7423
67.565961520, 96.390, 1298.0, 36.0278
67.609427280, 96.390, 1322.0, 36.3593
67.652893040, 96.390, 1280.0, 35.7771
67.696358800, 96.390, 1316.0, 36.2767
67.739824560, 96.390, 1334.0, 36.5240
67.783290320, 96.390, 1330.0, 36.4692
67.826756080, 96.390, 1207.0, 34.7419
67.870221840, 96.390, 1292.0, 35.9444
67.913687600, 96.390, 1324.0, 36.3868
67.957153360, 96.390, 1292.0, 35.9444
68.000619120, 96.390, 1346.0, 36.6879
68.044084880, 96.390, 1233.0, 35.1141
68.087550640, 96.390, 1270.0, 35.6371
68.131016400, 96.390, 1253.0, 35.3977
68.174482160, 96.390, 1360.0, 36.8782
68.217947920, 96.390, 1304.0, 36.1109
68.261413680, 96.390, 1369.0, 37.0000
68.304879440, 96.390, 1310.0, 36.1939
68.348345200, 96.390, 1328.0, 36.4417
68.391810960, 96.390, 1342.0, 36.6333
68.435276720, 96.390, 1304.0, 36.1109
68.478742480, 96.390, 1364.0, 36.9324
68.522208240, 96.390, 1290.0, 35.9166
68.565674000, 96.390, 1294.0, 35.9722
68.609139760, 96.390, 1286.0, 35.8608
68.652605520, 96.390, 1276.0, 35.7211
68.696071280, 96.390, 1246.0, 35.2987
68.739537040, 96.390, 1351.0, 36.7560
68.783002800, 96.390, 1299.0, 36.0416
68.826468560, 96.390, 1339.0, 36.5923
68.869934320, 96.390, 1379.0, 37.1349
68.913400080, 96.390, 1247.0, 35.3129
68.956865840, 96.390, 1280.0, 35.7771
69.000331600, 96.390, 1286.0, 35.8608
69.043797360, 96.390, 1331.0, 36.4829
69.087263120, 96.390, 1363.0, 36.9188
69.130728880, 96.390, 1252.0, 35.3836
69.174194640, 96.390, 1299.0, 36.0416
69.217660400, 96.390, 1251.0, 35.3695
69.261126160, 96.390, 1191.0, 34.5109
69.304591920, 96.390, 1218.0, 34.8999
69.348057680, 96.390, 1282.0, 35.8050
69.391523440, 96.390, 1280.0, 35.7771
69.434989200, 96.390, 1258.0, 35.4683
69.478454960, 96.390, 1271.0, 35.6511
69.521920720, 96.390, 1272.0, 35.6651
69.565386480, 96.390, 1307.0, 36.1525
69.608852240, 96.390, 1224.0, 34.9857
69.652318000, 96.390, 1273.0, 35.6791
69.695783760, 96.390, 1305.0, 36.1248
69.739249520, 96.390, 1263.0, 35.5387
69.782715280, 96.390, 1321.0, 36.3456
69.826181040, 96.390, 1307.0, 36.1525
69.869646800, 96.390, 1359.0, 36.8646
69.913112560, 96.390, 1329.0, 36.4555
69.956578320, 96.390, 1285.0, 35.8469
