$$ -----------------------
$$ Labels defined by JCAMP
$$ -----------------------

## TITLE= Unknown
## JCAMP-DX= 4.24
## DATA TYPE= RD
## BLOCKS= 1
## ORIGIN= PANalytical B.V.
## OWNER= Copyright(C) 2004 by PANalytical B.V.
## DATE= 23/03/27
## TIME= 13:10:39
## SAMPLE DESCRIPTION= 2023_03_27_10_70_30min_Pro_THCa_Mix
## SOURCE REFERENCE= Converted XRDML file

$$ ------------------------------------
$$ Labels defined by PANalytical
$$ ------------------------------------

$$ Wavelengths are given in Angstrom.
##$WAVELENGTH ALPHA1= 1.5405980
##$WAVELENGTH ALPHA2= 1.5444260
##$INTENSITY RATIO ALPHA2/ALPHA1= 0.5000000
##$MONOCHROMATOR= NO
##$SPINNING= YES
##$REVOLUTION TIME= 1.0
##$GENERATOR VOLTAGE= 40
##$TUBE CURRENT= 15
##$ANODE MATERIAL= Cu
##$TUBE FOCUS= LONG FINE
##$SCAN TYPE= CONTINUOUS
##$COUNT TIME= 76.245
##$DIVERGENCE SLIT= 0.45836

$$ -----------------------------------------------------
$$ Labels defined by PANalytical for PC-APD files
$$ -----------------------------------------------------

##$DIFFRACTOMETER= XPERT

$$ ------------------------------------------------------
$$ Labels defined by PANalytical for APD1700 files
$$ ------------------------------------------------------

##$TAKE OFF ANGLE= 6.000
##$DETECTOR TYPE= PIXcel3D-Medipix3 1x1 detector

$$ -----------------------
$$ Labels defined by JCAMP
$$ -----------------------

## XUNITS= TWO-THETA
## YUNITS= COUNTS
## XFACTOR= 1.0
## YFACTOR= 1.0
## FIRSTX= 10.0114332
## LASTX= 69.9941820
## DELTAX= 0.0108664
## NPOINTS= 5521
## FIRSTY= 18894.000
## MINX= 10.01143
## MAXX= 69.99418
## MINY= 1271.000
## MAXY= 53194.000
## XYDATA= X++<Y..Y>
   10.0114    18894.000    20015.000    21188.000    22783.000    23932.000
   10.0658    24975.000    26412.000    27786.000    28380.000    29492.000
   10.1201    29925.000    30106.000    30358.000    30494.000    30106.000
   10.1744    29479.000    28597.000    27976.000    26580.000    25259.000
   10.2288    23325.000    21287.000    18435.000    15672.000    13447.000
   10.2831    11109.000     9238.000     7953.000     6950.000     6217.000
   10.3374     5831.000     5559.000     5359.000     5134.000     5097.000
   10.3918     5029.000     4890.000     4970.000     4850.000     4811.000
   10.4461     4709.000     4894.000     4677.000     4887.000     4731.000
   10.5004     4669.000     4644.000     4668.000     4610.000     4577.000
   10.5548     4512.000     4641.000     4448.000     4497.000     4564.000
   10.6091     4528.000     4359.000     4361.000     4386.000     4505.000
   10.6634     4322.000     4363.000     4467.000     4315.000     4426.000
   10.7178     4515.000     4185.000     4400.000     4253.000     4276.000
   10.7721     4300.000     4219.000     4379.000     4213.000     4379.000
   10.8264     4432.000     4262.000     4295.000     4225.000     4244.000
   10.8807     4098.000     4201.000     4274.000     4280.000     4294.000
   10.9351     4247.000     4291.000     4187.000     4201.000     4278.000
   10.9894     4172.000     4257.000     4336.000     4322.000     4258.000
   11.0437     4218.000     4240.000     4296.000     4146.000     4143.000
   11.0981     4033.000     4162.000     4148.000     4126.000     4197.000
   11.1524     4178.000     4061.000     4142.000     4097.000     4101.000
   11.2067     4022.000     4214.000     3974.000     4139.000     4072.000
   11.2611     4149.000     4158.000     4119.000     3986.000     4065.000
   11.3154     4069.000     4064.000     3963.000     4024.000     3859.000
   11.3697     4051.000     3955.000     4038.000     4148.000     4142.000
   11.4241     3942.000     3909.000     4057.000     4080.000     3946.000
   11.4784     4011.000     4110.000     4092.000     3942.000     4025.000
   11.5327     3927.000     3994.000     3951.000     4030.000     3906.000
   11.5871     4043.000     4006.000     4063.000     3989.000     3992.000
   11.6414     3924.000     3927.000     3842.000     3947.000     3940.000
   11.6957     3979.000     3884.000     3896.000     3966.000     3910.000
   11.7501     3961.000     4018.000     3868.000     3900.000     3975.000
   11.8044     4041.000     3883.000     4060.000     4022.000     3945.000
   11.8587     3895.000     3947.000     3981.000     3984.000     3983.000
   11.9131     4129.000     4021.000     3994.000     3991.000     4065.000
   11.9674     4026.000     4126.000     4191.000     3925.000     4112.000
   12.0217     4147.000     4055.000     4171.000     4177.000     4316.000
   12.0761     4252.000     4325.000     4298.000     4481.000     4499.000
   12.1304     4475.000     4608.000     4601.000     4550.000     4590.000
   12.1847     4670.000     4773.000     4872.000     4854.000     4928.000
   12.2391     4909.000     5111.000     5257.000     5415.000     5502.000
   12.2934     5600.000     5769.000     5884.000     6214.000     6240.000
   12.3477     6618.000     6766.000     7028.000     7047.000     7407.000
   12.4021     7808.000     8037.000     8195.000     8515.000     8816.000
   12.4564     9377.000     9586.000    10201.000    10791.000    11250.000
   12.5107    12207.000    12976.000    13884.000    14905.000    16093.000
   12.5650    17012.000    18383.000    19469.000    20809.000    21730.000
   12.6194    22778.000    23808.000    25022.000    26125.000    27644.000
   12.6737    28901.000    30953.000    31840.000    34181.000    34018.000
   12.7280    35123.000    34145.000    34304.000    32582.000    31636.000
   12.7824    29987.000    27079.000    25948.000    23088.000    21574.000
   12.8367    18734.000    16539.000    13964.000    12327.000    10650.000
   12.8910     9368.000     8578.000     8257.000     8108.000     7775.000
   12.9454     7684.000     8065.000     8068.000     8224.000     8421.000
   12.9997     8846.000     9045.000     9248.000     9737.000     9681.000
   13.0540    10285.000    10397.000    10922.000    11055.000    11294.000
   13.1084    11850.000    11988.000    12040.000    12344.000    12560.000
   13.1627    12647.000    12320.000    12196.000    11624.000    11106.000
   13.2170    10515.000     9594.000     8607.000     8017.000     7053.000
   13.2714     6433.000     5928.000     5361.000     5106.000     4959.000
   13.3257     4727.000     4647.000     4566.000     4511.000     4388.000
   13.3800     4488.000     4437.000     4353.000     4370.000     4473.000
   13.4344     4316.000     4361.000     4283.000     4228.000     4302.000
   13.4887     4320.000     4217.000     4322.000     4259.000     4332.000
   13.5430     4231.000     4210.000     4346.000     4272.000     4334.000
   13.5974     4301.000     4419.000     4404.000     4402.000     4462.000
   13.6517     4520.000     4515.000     4574.000     4536.000     4576.000
   13.7060     4724.000     4809.000     4722.000     4830.000     4796.000
   13.7604     4919.000     5036.000     5065.000     5131.000     5248.000
   13.8147     5344.000     5524.000     5714.000     5834.000     5927.000
   13.8690     6078.000     6309.000     6312.000     6739.000     6959.000
   13.9234     7278.000     7539.000     7824.000     8120.000     8336.000
   13.9777     8820.000     9079.000     9475.000     9754.000    10488.000
   14.0320    11103.000    11638.000    12548.000    13323.000    14051.000
   14.0863    14977.000    16114.000    16954.000    17955.000    18323.000
   14.1407    19039.000    19089.000    19216.000    18943.000    18933.000
   14.1950    17972.000    17962.000    17238.000    16209.000    14997.000
   14.2493    13927.000    12364.000    11032.000     9401.000     8382.000
   14.3037     6930.000     6425.000     5629.000     5155.000     4849.000
   14.3580     4650.000     4678.000     4534.000     4521.000     4507.000
   14.4123     4438.000     4472.000     4368.000     4164.000     4382.000
   14.4667     4501.000     4431.000     4396.000     4334.000     4522.000
   14.5210     4436.000     4402.000     4563.000     4389.000     4452.000
   14.5753     4481.000     4448.000     4551.000     4575.000     4568.000
   14.6297     4526.000     4770.000     4670.000     4748.000     4933.000
   14.6840     4779.000     4868.000     4971.000     4998.000     4999.000
   14.7383     5041.000     5172.000     5253.000     5435.000     5571.000
   14.7927     5767.000     5858.000     6131.000     6143.000     6371.000
   14.8470     6669.000     6921.000     7368.000     7704.000     8088.000
   14.9013     8439.000     9165.000     9850.000    10326.000    10843.000
   14.9557    11622.000    11814.000    12267.000    12754.000    13033.000
   15.0100    13796.000    14498.000    15023.000    15766.000    16281.000
   15.0643    17212.000    18153.000    18797.000    19865.000    20989.000
   15.1187    22138.000    23403.000    24416.000    25599.000    26577.000
   15.1730    27764.000    28481.000    29243.000    29446.000    29238.000
   15.2273    28440.000    26772.000    24656.000    22180.000    19672.000
   15.2817    16815.000    14847.000    12614.000    11117.000     9780.000
   15.3360     8896.000     8222.000     7606.000     7140.000     7039.000
   15.3903     6827.000     6717.000     6322.000     6247.000     6184.000
   15.4447     6138.000     5950.000     5889.000     5731.000     5707.000
   15.4990     5655.000     5457.000     5422.000     5195.000     5273.000
   15.5533     5213.000     5127.000     5054.000     5052.000     5027.000
   15.6076     5058.000     4934.000     4834.000     4953.000     4709.000
   15.6620     4799.000     4740.000     4694.000     4588.000     4656.000
   15.7163     4697.000     4882.000     4797.000     4727.000     4734.000
   15.7706     4920.000     4804.000     5016.000     4938.000     4852.000
   15.8250     4780.000     5023.000     5184.000     5059.000     5292.000
   15.8793     5309.000     5472.000     5515.000     5573.000     5901.000
   15.9336     5937.000     6154.000     6430.000     6543.000     6619.000
   15.9880     6835.000     7118.000     7099.000     7171.000     7240.000
   16.0423     7393.000     7641.000     7796.000     8018.000     8277.000
   16.0966     8433.000     8657.000     9180.000     9209.000     9892.000
   16.1510     9782.000    10311.000    10300.000    10811.000    10985.000
   16.2053    11287.000    11471.000    11992.000    12381.000    12647.000
   16.2596    13125.000    13927.000    14431.000    15354.000    16364.000
   16.3140    17121.000    18306.000    19568.000    20408.000    22087.000
   16.3683    22706.000    23803.000    24931.000    25482.000    26394.000
   16.4226    27560.000    28291.000    29234.000    29778.000    30309.000
   16.4770    30498.000    30376.000    29851.000    28772.000    27940.000
   16.5313    26382.000    24842.000    23110.000    20897.000    18991.000
   16.5856    16932.000    15121.000    13362.000    12393.000    11632.000
   16.6400    11072.000    10634.000    11070.000    11104.000    12015.000
   16.6943    12705.000    12967.000    13743.000    14621.000    15476.000
   16.7486    16224.000    17261.000    18173.000    19124.000    20166.000
   16.8030    21160.000    21687.000    22651.000    23679.000    24411.000
   16.8573    25548.000    26067.000    26777.000    27579.000    28179.000
   16.9116    28718.000    29662.000    30729.000    31002.000    31857.000
   16.9660    32247.000    32836.000    33020.000    33595.000    33979.000
   17.0203    34736.000    35359.000    36387.000    37233.000    36760.000
   17.0746    36893.000    36225.000    35123.000    33470.000    31331.000
   17.1290    29504.000    26612.000    24099.000    21791.000    18663.000
   17.1833    16502.000    14244.000    12339.000    10576.000     9435.000
   17.2376     8225.000     7714.000     7268.000     6833.000     6579.000
   17.2919     6565.000     6543.000     6405.000     6226.000     6312.000
   17.3463     6269.000     6312.000     6250.000     6416.000     6346.000
   17.4006     6256.000     6582.000     6590.000     6471.000     6455.000
   17.4549     6615.000     6754.000     6763.000     6683.000     6881.000
   17.5093     6834.000     7073.000     7247.000     7458.000     7596.000
   17.5636     7746.000     7855.000     8386.000     8766.000     8947.000
   17.6179     9214.000     9823.000    10411.000    10732.000    11398.000
   17.6723    12461.000    12942.000    13583.000    14009.000    14853.000
   17.7266    15438.000    16215.000    16983.000    17256.000    18159.000
   17.7809    19174.000    20020.000    20937.000    22279.000    23930.000
   17.8353    24784.000    25846.000    27096.000    28077.000    28677.000
   17.8896    29395.000    30299.000    30869.000    31827.000    32916.000
   17.9439    34399.000    35473.000    37160.000    38587.000    40567.000
   17.9983    41596.000    43702.000    44410.000    46242.000    47266.000
   18.0526    48653.000    49048.000    49278.000    48484.000    47255.000
   18.1069    45520.000    43401.000    40029.000    36445.000    32593.000
   18.1613    28940.000    25508.000    22521.000    20016.000    18286.000
   18.2156    17179.000    16146.000    15860.000    15612.000    15510.000
   18.2699    15827.000    15969.000    16288.000    16498.000    16893.000
   18.3243    17068.000    17113.000    17386.000    17487.000    17624.000
   18.3786    17789.000    18259.000    18530.000    18299.000    18485.000
   18.4329    18309.000    18383.000    18609.000    18569.000    18746.000
   18.4873    19274.000    19544.000    19944.000    20254.000    20347.000
   18.5416    20818.000    20966.000    21110.000    21496.000    21373.000
   18.5959    21882.000    21865.000    22685.000    22911.000    23849.000
   18.6503    24098.000    24799.000    25083.000    26565.000    27597.000
   18.7046    29161.000    31285.000    33108.000    34660.000    35671.000
   18.7589    36345.000    36284.000    35315.000    33834.000    30847.000
   18.8132    29040.000    26277.000    24162.000    21569.000    19701.000
   18.8676    18038.000    16904.000    15829.000    14817.000    14300.000
   18.9219    13725.000    13033.000    12474.000    11789.000    10795.000
   18.9762    10235.000     9546.000     8771.000     8465.000     8111.000
   19.0306     7875.000     7435.000     7525.000     7443.000     7384.000
   19.0849     7592.000     7741.000     7754.000     7813.000     7942.000
   19.1392     8110.000     8424.000     8647.000     8852.000     9244.000
   19.1936     9410.000    10010.000    10416.000    10724.000    11194.000
   19.2479    11877.000    12569.000    12989.000    14006.000    14868.000
   19.3022    15589.000    16867.000    17438.000    18547.000    19713.000
   19.3566    21101.000    21959.000    23023.000    24413.000    25178.000
   19.4109    26079.000    27220.000    28471.000    28963.000    29942.000
   19.4652    30523.000    31018.000    31605.000    31612.000    32232.000
   19.5196    32440.000    32932.000    33272.000    33309.000    33564.000
   19.5739    33957.000    33963.000    34081.000    34254.000    34527.000
   19.6282    33621.000    33053.000    31726.000    29949.000    28332.000
   19.6826    26248.000    25146.000    23916.000    23350.000    22234.000
   19.7369    22636.000    22256.000    22515.000    23110.000    23727.000
   19.7912    24451.000    24520.000    25006.000    25320.000    26091.000
   19.8456    26849.000    28383.000    29212.000    30057.000    31801.000
   19.8999    32581.000    33679.000    34888.000    36153.000    35738.000
   19.9542    35550.000    35586.000    33645.000    32535.000    30323.000
   20.0086    28117.000    26507.000    24198.000    22356.000    20848.000
   20.0629    19023.000    17887.000    16764.000    15988.000    15104.000
   20.1172    14721.000    14455.000    14216.000    14343.000    14756.000
   20.1716    14846.000    15255.000    15770.000    16408.000    17115.000
   20.2259    17851.000    18787.000    19244.000    19974.000    20545.000
   20.2802    21408.000    21725.000    22066.000    22336.000    22540.000
   20.3346    22013.000    22279.000    22016.000    21562.000    21227.000
   20.3889    20933.000    20189.000    19894.000    19038.000    18250.000
   20.4432    17049.000    16130.000    15174.000    14154.000    12976.000
   20.4975    12395.000    11312.000    10509.000     9827.000     9358.000
   20.5519     8934.000     8550.000     8285.000     8188.000     8046.000
   20.6062     7973.000     7820.000     7711.000     7653.000     7768.000
   20.6605     7722.000     7996.000     7921.000     8073.000     8275.000
   20.7149     8400.000     8190.000     8481.000     8837.000     9073.000
   20.7692     9033.000     9485.000     9530.000     9871.000    10260.000
   20.8235    10532.000    10651.000    11134.000    11367.000    11740.000
   20.8779    12226.000    12584.000    13199.000    13531.000    13563.000
   20.9322    14293.000    14366.000    14632.000    14528.000    14719.000
   20.9865    14456.000    14854.000    14691.000    14554.000    14906.000
   21.0409    15101.000    15237.000    15853.000    16284.000    16681.000
   21.0952    17814.000    18570.000    19925.000    21347.000    22979.000
   21.1495    24977.000    26623.000    29203.000    31296.000    33419.000
   21.2039    35510.000    37432.000    39846.000    41414.000    43595.000
   21.2582    45536.000    46554.000    48596.000    49447.000    49772.000
   21.3125    50452.000    50424.000    49988.000    49768.000    48721.000
   21.3669    48280.000    47627.000    47072.000    46149.000    45522.000
   21.4212    45347.000    44141.000    42627.000    40790.000    38517.000
   21.4755    35950.000    32547.000    29891.000    26324.000    23894.000
   21.5299    21117.000    20200.000    18241.000    18120.000    17155.000
   21.5842    17107.000    17211.000    17919.000    18741.000    19408.000
   21.6385    20098.000    20570.000    21342.000    21650.000    22028.000
   21.6929    22688.000    22752.000    22769.000    22950.000    22865.000
   21.7472    22498.000    21966.000    21425.000    20825.000    19969.000
   21.8015    18776.000    17588.000    16397.000    15315.000    14053.000
   21.8559    12929.000    12043.000    10778.000    10205.000     9274.000
   21.9102     8642.000     8175.000     7904.000     7605.000     7386.000
   21.9645     6980.000     6932.000     6788.000     6826.000     6674.000
   22.0188     6605.000     6723.000     6785.000     6598.000     6669.000
   22.0732     6550.000     6561.000     6530.000     6641.000     6495.000
   22.1275     6690.000     6624.000     6639.000     6589.000     6570.000
   22.1818     6569.000     6701.000     6672.000     6744.000     6664.000
   22.2362     6816.000     6858.000     6769.000     6764.000     6933.000
   22.2905     6811.000     7116.000     7103.000     7298.000     7183.000
   22.3448     7456.000     7551.000     7968.000     7978.000     8312.000
   22.3992     8642.000     9020.000     9510.000    10224.000    10652.000
   22.4535    11694.000    12416.000    13292.000    14329.000    15565.000
   22.5078    16745.000    18212.000    19475.000    20389.000    21872.000
   22.5622    23417.000    24686.000    26102.000    27858.000    29173.000
   22.6165    30983.000    32651.000    34047.000    35852.000    37392.000
   22.6708    38838.000    40519.000    42714.000    43916.000    45745.000
   22.7252    47329.000    48918.000    51025.000    51819.000    52410.000
   22.7795    53194.000    52635.000    51728.000    49378.000    46873.000
   22.8338    42952.000    38336.000    33470.000    28698.000    24624.000
   22.8882    20487.000    17646.000    14950.000    12675.000    10867.000
   22.9425     9979.000     9132.000     8638.000     8423.000     8343.000
   22.9968     8370.000     8192.000     8220.000     7924.000     8052.000
   23.0512     7874.000     7819.000     7930.000     7650.000     7634.000
   23.1055     7776.000     7779.000     7485.000     7607.000     7498.000
   23.1598     7297.000     7317.000     7362.000     7238.000     6978.000
   23.2142     7161.000     6920.000     6982.000     7065.000     7037.000
   23.2685     7061.000     7264.000     7300.000     7764.000     8161.000
   23.3228     8708.000     9116.000     9881.000    10392.000    11127.000
   23.3772    11611.000    12295.000    12928.000    13325.000    13854.000
   23.4315    14331.000    14662.000    15112.000    15368.000    15515.000
   23.4858    15650.000    15865.000    16184.000    16658.000    16648.000
   23.5402    17279.000    17038.000    17837.000    18032.000    18452.000
   23.5945    19255.000    19352.000    19287.000    18966.000    18445.000
   23.6488    17391.000    16799.000    15245.000    14277.000    12646.000
   23.7031    11568.000    10439.000     9621.000     8683.000     8370.000
   23.7575     7683.000     7526.000     7345.000     7064.000     7071.000
   23.8118     6909.000     6997.000     6705.000     7040.000     6737.000
   23.8661     6894.000     7010.000     6997.000     7008.000     7052.000
   23.9205     7171.000     7452.000     7331.000     7706.000     7952.000
   23.9748     8124.000     8337.000     8706.000     9010.000     9278.000
   24.0291     9568.000     9887.000    10298.000    10670.000    10990.000
   24.0835    11630.000    11879.000    12258.000    12086.000    12342.000
   24.1378    12241.000    12424.000    12453.000    12374.000    12184.000
   24.1921    11980.000    11999.000    12023.000    11975.000    12028.000
   24.2465    12090.000    12266.000    12607.000    12689.000    12816.000
   24.3008    12771.000    13147.000    13008.000    12964.000    12840.000
   24.3551    12659.000    12671.000    11813.000    11611.000    11032.000
   24.4095    10934.000    10222.000     9923.000     9857.000    10133.000
   24.4638    10443.000    10487.000    10985.000    12007.000    12556.000
   24.5181    13907.000    15055.000    16542.000    17628.000    18848.000
   24.5725    20283.000    21284.000    22342.000    23466.000    24013.000
   24.6268    25316.000    25967.000    26935.000    27727.000    28256.000
   24.6811    28832.000    30132.000    30814.000    32199.000    32727.000
   24.7355    33563.000    34109.000    34996.000    35786.000    36328.000
   24.7898    36426.000    36035.000    35931.000    35106.000    33284.000
   24.8441    31633.000    29559.000    27134.000    24782.000    22576.000
   24.8985    20571.000    18715.000    16863.000    14981.000    13404.000
   24.9528    12036.000    10913.000     9956.000     9365.000     8960.000
   25.0071     8624.000     8112.000     7852.000     7466.000     7242.000
   25.0615     6916.000     6935.000     6764.000     6696.000     6631.000
   25.1158     6690.000     6980.000     6812.000     6914.000     6976.000
   25.1701     7049.000     7164.000     7337.000     7397.000     7596.000
   25.2244     7721.000     7970.000     8076.000     8281.000     8424.000
   25.2788     8441.000     8756.000     8706.000     8868.000     8870.000
   25.3331     8973.000     9383.000     9061.000     9458.000     9446.000
   25.3874     9751.000     9664.000    10155.000    10183.000    10363.000
   25.4418    10562.000    10640.000    11027.000    11227.000    11466.000
   25.4961    12192.000    12493.000    12986.000    13672.000    14268.000
   25.5504    14680.000    15192.000    15269.000    15683.000    15403.000
   25.6048    15284.000    14374.000    13865.000    12792.000    12151.000
   25.6591    11105.000    10417.000     9834.000     9228.000     8591.000
   25.7134     8026.000     7650.000     7552.000     7313.000     7345.000
   25.7678     7127.000     7075.000     7210.000     7166.000     7390.000
   25.8221     7298.000     7615.000     7845.000     8018.000     8267.000
   25.8764     8579.000     8854.000     8985.000     9329.000     9508.000
   25.9308     9764.000     9852.000    10127.000     9868.000     9822.000
   25.9851     9386.000     9164.000     8569.000     7913.000     7394.000
   26.0394     6799.000     6337.000     5937.000     5657.000     5296.000
   26.0938     5190.000     4980.000     4829.000     4656.000     4659.000
   26.1481     4632.000     4536.000     4618.000     4644.000     4597.000
   26.2024     4586.000     4629.000     4659.000     4717.000     4631.000
   26.2568     4718.000     4692.000     4753.000     4980.000     4768.000
   26.3111     5084.000     5111.000     5032.000     5139.000     5195.000
   26.3654     5198.000     5287.000     5432.000     5330.000     5534.000
   26.4198     5548.000     5426.000     5652.000     5750.000     5804.000
   26.4741     5766.000     5963.000     6105.000     5996.000     6076.000
   26.5284     5903.000     5932.000     5776.000     5782.000     5681.000
   26.5828     5623.000     5448.000     5413.000     5456.000     5258.000
   26.6371     5283.000     5200.000     5247.000     5216.000     5178.000
   26.6914     5109.000     5144.000     5121.000     5280.000     5191.000
   26.7458     5268.000     5301.000     5425.000     5707.000     5770.000
   26.8001     5803.000     6122.000     6326.000     6801.000     6764.000
   26.8544     7066.000     7359.000     7828.000     7997.000     8363.000
   26.9087     8525.000     9014.000     9319.000     9566.000     9721.000
   26.9631     9903.000    10240.000    10253.000    10624.000    10992.000
   27.0174    10934.000    11240.000    11148.000    11185.000    11023.000
   27.0717    11319.000    11034.000    10939.000    10632.000    10310.000
   27.1261     9750.000     9377.000     8752.000     8709.000     8078.000
   27.1804     7720.000     7295.000     6862.000     6548.000     6429.000
   27.2347     6030.000     5740.000     5819.000     5569.000     5344.000
   27.2891     5231.000     5319.000     5373.000     5199.000     5223.000
   27.3434     5391.000     5322.000     5372.000     5357.000     5420.000
   27.3977     5461.000     5390.000     5537.000     5481.000     5394.000
   27.4521     5487.000     5546.000     5594.000     5515.000     5687.000
   27.5064     5701.000     5652.000     5798.000     5959.000     5979.000
   27.5607     6063.000     6157.000     6299.000     6476.000     6631.000
   27.6151     6722.000     6679.000     6772.000     6902.000     7038.000
   27.6694     6968.000     7094.000     7148.000     7157.000     7355.000
   27.7237     7351.000     7427.000     7605.000     7411.000     7362.000
   27.7781     7502.000     7518.000     7432.000     7572.000     7598.000
   27.8324     7540.000     7292.000     7323.000     7175.000     6925.000
   27.8867     6831.000     6464.000     6315.000     6000.000     5692.000
   27.9411     5573.000     5293.000     5245.000     4945.000     4865.000
   27.9954     4739.000     4499.000     4449.000     4374.000     4284.000
   28.0497     4323.000     4215.000     4292.000     4285.000     4225.000
   28.1041     4244.000     4185.000     4184.000     4175.000     4197.000
   28.1584     4253.000     4377.000     4369.000     4489.000     4551.000
   28.2127     4423.000     4533.000     4591.000     4746.000     4737.000
   28.2671     4961.000     5033.000     4991.000     5194.000     5046.000
   28.3214     5116.000     5104.000     5266.000     5194.000     4997.000
   28.3757     5295.000     5010.000     5106.000     4900.000     5048.000
   28.4300     5042.000     5012.000     4999.000     4860.000     4891.000
   28.4844     4864.000     4921.000     4948.000     4842.000     4877.000
   28.5387     4710.000     4596.000     4660.000     4413.000     4410.000
   28.5930     4285.000     4267.000     4384.000     4090.000     4219.000
   28.6474     4196.000     4240.000     4148.000     4118.000     4176.000
   28.7017     4186.000     4183.000     4259.000     4267.000     4355.000
   28.7560     4387.000     4391.000     4443.000     4311.000     4579.000
   28.8104     4451.000     4495.000     4516.000     4563.000     4541.000
   28.8647     4533.000     4634.000     4640.000     4720.000     4843.000
   28.9190     4858.000     4889.000     5027.000     4926.000     5062.000
   28.9734     5029.000     5066.000     5024.000     5180.000     4872.000
   29.0277     5091.000     5093.000     5133.000     4975.000     5148.000
   29.0820     5027.000     5175.000     5134.000     5352.000     5332.000
   29.1364     5283.000     5462.000     5428.000     5769.000     5703.000
   29.1907     5828.000     5878.000     5865.000     5965.000     5876.000
   29.2450     5951.000     6058.000     6137.000     6092.000     6261.000
   29.2994     6041.000     6099.000     6028.000     6196.000     6005.000
   29.3537     6051.000     5817.000     5755.000     5752.000     5322.000
   29.4080     5338.000     5130.000     5007.000     4876.000     4768.000
   29.4624     4459.000     4511.000     4358.000     4196.000     4147.000
   29.5167     4069.000     4148.000     4021.000     3877.000     3856.000
   29.5710     3824.000     3860.000     3862.000     3845.000     3825.000
   29.6254     3912.000     3785.000     3765.000     3739.000     3900.000
   29.6797     3774.000     3850.000     3863.000     3832.000     3946.000
   29.7340     3843.000     3930.000     3843.000     3913.000     3889.000
   29.7884     3826.000     3926.000     3971.000     3970.000     4013.000
   29.8427     4054.000     4127.000     3919.000     4121.000     4245.000
   29.8970     4209.000     4232.000     4325.000     4465.000     4485.000
   29.9514     4636.000     4812.000     4796.000     4847.000     4913.000
   30.0057     4894.000     4850.000     4901.000     5130.000     5076.000
   30.0600     5052.000     5278.000     5370.000     5326.000     5485.000
   30.1143     5626.000     5572.000     5626.000     5782.000     5859.000
   30.1687     6084.000     6224.000     6145.000     6245.000     6315.000
   30.2230     6259.000     6413.000     6702.000     6672.000     6817.000
   30.2773     6842.000     6871.000     6936.000     7219.000     7196.000
   30.3317     7620.000     7522.000     7822.000     7680.000     7718.000
   30.3860     7931.000     7719.000     7625.000     7711.000     7616.000
   30.4403     7491.000     7364.000     7361.000     7319.000     7409.000
   30.4947     7391.000     7498.000     7602.000     7914.000     7985.000
   30.5490     8050.000     8022.000     8406.000     8478.000     8539.000
   30.6033     8810.000     8703.000     8882.000     8634.000     8219.000
   30.6577     8029.000     7798.000     7463.000     7304.000     6964.000
   30.7120     6770.000     6172.000     5995.000     5803.000     5610.000
   30.7663     5324.000     5202.000     5133.000     5006.000     4805.000
   30.8207     4714.000     4620.000     4461.000     4393.000     4333.000
   30.8750     4239.000     4141.000     4137.000     4136.000     3965.000
   30.9293     4023.000     3773.000     3844.000     3898.000     3892.000
   30.9837     3911.000     3913.000     3855.000     3887.000     3858.000
   31.0380     3844.000     3944.000     3815.000     3869.000     3928.000
   31.0923     3955.000     3995.000     4031.000     3979.000     3851.000
   31.1467     3806.000     3853.000     4000.000     3756.000     3879.000
   31.2010     3782.000     4035.000     3840.000     3934.000     3929.000
   31.2553     3862.000     3945.000     3985.000     3934.000     3960.000
   31.3097     4147.000     3922.000     4023.000     4065.000     4244.000
   31.3640     4203.000     4393.000     4500.000     4468.000     4544.000
   31.4183     4714.000     4774.000     5050.000     5220.000     5415.000
   31.4727     5531.000     5844.000     5920.000     6209.000     6194.000
   31.5270     6243.000     6323.000     6479.000     6158.000     6413.000
   31.5813     6172.000     6360.000     6167.000     6389.000     6195.000
   31.6356     6123.000     5941.000     6057.000     5844.000     5945.000
   31.6900     5915.000     5715.000     5763.000     5524.000     5515.000
   31.7443     5422.000     5302.000     5231.000     5157.000     5120.000
   31.7986     4897.000     4953.000     5034.000     4945.000     4814.000
   31.8530     4903.000     4837.000     5072.000     5062.000     5344.000
   31.9073     5551.000     5849.000     5809.000     6088.000     6277.000
   31.9616     6236.000     6254.000     6154.000     6232.000     6265.000
   32.0160     6275.000     6475.000     6270.000     6374.000     6240.000
   32.0703     6361.000     6439.000     6447.000     6435.000     6289.000
   32.1246     6531.000     6454.000     6464.000     6441.000     6630.000
   32.1790     6595.000     6814.000     6707.000     6636.000     6426.000
   32.2333     6118.000     5937.000     5718.000     5388.000     5070.000
   32.2876     4971.000     4786.000     4512.000     4360.000     4242.000
   32.3420     4036.000     3902.000     3795.000     3882.000     3703.000
   32.3963     3695.000     3710.000     3790.000     3693.000     3754.000
   32.4506     3763.000     3758.000     3770.000     3772.000     3830.000
   32.5050     3874.000     3943.000     3869.000     3735.000     3974.000
   32.5593     3786.000     4007.000     4111.000     4058.000     4018.000
   32.6136     4167.000     4149.000     4269.000     4008.000     4183.000
   32.6680     4246.000     4241.000     4336.000     4346.000     4269.000
   32.7223     4253.000     4196.000     4256.000     4298.000     4358.000
   32.7766     4375.000     4322.000     4269.000     4372.000     4245.000
   32.8310     4271.000     4246.000     4275.000     4396.000     4332.000
   32.8853     4274.000     4244.000     4312.000     4241.000     4154.000
   32.9396     4326.000     4281.000     4237.000     4232.000     4408.000
   32.9940     4269.000     4333.000     4530.000     4612.000     4482.000
   33.0483     4452.000     4422.000     4499.000     4628.000     4482.000
   33.1026     4569.000     4669.000     4723.000     4710.000     4616.000
   33.1570     4691.000     4743.000     4602.000     4625.000     4660.000
   33.2113     4620.000     4625.000     4781.000     4714.000     4674.000
   33.2656     4562.000     4735.000     4684.000     4711.000     4590.000
   33.3199     4726.000     4686.000     4642.000     4880.000     4615.000
   33.3743     4662.000     4618.000     4657.000     4560.000     4622.000
   33.4286     4581.000     4706.000     4513.000     4551.000     4414.000
   33.4829     4539.000     4565.000     4487.000     4643.000     4526.000
   33.5373     4513.000     4591.000     4474.000     4651.000     4739.000
   33.5916     4758.000     4809.000     4808.000     4819.000     4899.000
   33.6459     4920.000     4908.000     4916.000     4785.000     4822.000
   33.7003     4763.000     4843.000     4881.000     4926.000     4918.000
   33.7546     5184.000     5376.000     5518.000     5666.000     6022.000
   33.8089     6320.000     6290.000     6548.000     6970.000     6896.000
   33.8633     7311.000     7345.000     7615.000     7804.000     8060.000
   33.9176     8226.000     8179.000     8428.000     8611.000     8839.000
   33.9719     8950.000     9253.000     9276.000     9326.000     9059.000
   34.0263     9220.000     9164.000     9049.000     8951.000     8859.000
   34.0806     8367.000     8205.000     7843.000     7358.000     7084.000
   34.1349     6741.000     6609.000     6104.000     5995.000     5689.000
   34.1893     5444.000     5235.000     5238.000     4948.000     5016.000
   34.2436     4634.000     4940.000     4800.000     4808.000     4763.000
   34.2979     4733.000     4780.000     4774.000     4688.000     4712.000
   34.3523     4705.000     4687.000     4486.000     4414.000     4318.000
   34.4066     4238.000     4219.000     4311.000     4247.000     4208.000
   34.4609     4153.000     4080.000     4234.000     4283.000     4330.000
   34.5153     4339.000     4427.000     4488.000     4694.000     4848.000
   34.5696     4902.000     4833.000     4961.000     5002.000     5065.000
   34.6239     5195.000     5013.000     5170.000     5155.000     5149.000
   34.6783     5190.000     5264.000     5225.000     5311.000     5460.000
   34.7326     5533.000     5451.000     5550.000     5694.000     5635.000
   34.7869     5703.000     5801.000     5825.000     5749.000     5724.000
   34.8412     5676.000     5409.000     5357.000     5164.000     4995.000
   34.8956     5052.000     4763.000     4728.000     4482.000     4524.000
   34.9499     4292.000     4349.000     4215.000     4225.000     4098.000
   35.0042     4036.000     3986.000     4136.000     4002.000     4032.000
   35.0586     3885.000     3958.000     3963.000     3959.000     3828.000
   35.1129     3835.000     3679.000     3739.000     3758.000     3768.000
   35.1672     3659.000     3746.000     3654.000     3764.000     3799.000
   35.2216     3757.000     3816.000     3905.000     4037.000     4193.000
   35.2759     4151.000     4308.000     4381.000     4420.000     4742.000
   35.3302     4802.000     4954.000     4821.000     5156.000     5212.000
   35.3846     5382.000     5237.000     5311.000     5467.000     5483.000
   35.4389     5788.000     5750.000     5779.000     5995.000     5872.000
   35.4932     5776.000     5936.000     5942.000     5681.000     5747.000
   35.5476     5726.000     5600.000     5522.000     5272.000     5115.000
   35.6019     4971.000     4811.000     4918.000     4671.000     4790.000
   35.6562     4635.000     4735.000     4603.000     4654.000     4659.000
   35.7106     4358.000     4380.000     4244.000     4216.000     4101.000
   35.7649     4199.000     4107.000     4111.000     3893.000     3955.000
   35.8192     4117.000     3884.000     3812.000     3741.000     3761.000
   35.8736     3707.000     3645.000     3698.000     3645.000     3678.000
   35.9279     3703.000     3686.000     3640.000     3651.000     3625.000
   35.9822     3636.000     3759.000     3749.000     3726.000     3759.000
   36.0366     3750.000     3801.000     3876.000     3832.000     3987.000
   36.0909     3926.000     4007.000     4121.000     4215.000     4169.000
   36.1452     4210.000     4286.000     4450.000     4371.000     4502.000
   36.1996     4437.000     4784.000     4728.000     4835.000     4848.000
   36.2539     4910.000     5088.000     5286.000     5441.000     5646.000
   36.3082     5609.000     5938.000     5987.000     6031.000     6056.000
   36.3626     6094.000     6255.000     6291.000     6356.000     6430.000
   36.4169     6305.000     6568.000     6486.000     6639.000     6643.000
   36.4712     6639.000     6630.000     6662.000     6558.000     6543.000
   36.5255     6566.000     6508.000     6206.000     6246.000     6257.000
   36.5799     6160.000     5929.000     5734.000     5562.000     5412.000
   36.6342     5257.000     4916.000     4792.000     4580.000     4443.000
   36.6885     4406.000     4183.000     4112.000     4049.000     3889.000
   36.7429     3875.000     3714.000     3691.000     3813.000     3696.000
   36.7972     3694.000     3689.000     3684.000     3582.000     3733.000
   36.8515     3718.000     3711.000     3837.000     3806.000     3810.000
   36.9059     3988.000     3989.000     4051.000     4004.000     4126.000
   36.9602     4054.000     4196.000     4237.000     4422.000     4272.000
   37.0145     4470.000     4313.000     4478.000     4392.000     4622.000
   37.0689     4549.000     4593.000     4375.000     4620.000     4495.000
   37.1232     4590.000     4455.000     4535.000     4583.000     4689.000
   37.1775     4576.000     4629.000     4568.000     4736.000     4839.000
   37.2319     4761.000     4733.000     4753.000     4880.000     5050.000
   37.2862     4970.000     5057.000     5075.000     5278.000     5186.000
   37.3405     5273.000     5256.000     5344.000     5492.000     5664.000
   37.3949     5801.000     5836.000     5830.000     5841.000     5887.000
   37.4492     5968.000     5779.000     6086.000     6006.000     5955.000
   37.5035     5895.000     5799.000     6096.000     5940.000     5974.000
   37.5579     5988.000     5818.000     5908.000     5655.000     5775.000
   37.6122     5724.000     5830.000     5712.000     5638.000     5750.000
   37.6665     5716.000     5717.000     5473.000     5393.000     5053.000
   37.7209     4947.000     4846.000     4813.000     4782.000     4563.000
   37.7752     4599.000     4555.000     4465.000     4397.000     4486.000
   37.8295     4261.000     4212.000     4342.000     4320.000     4140.000
   37.8839     4231.000     4212.000     4221.000     4192.000     4077.000
   37.9382     4061.000     4225.000     4126.000     4260.000     4249.000
   37.9925     4195.000     4124.000     4110.000     4247.000     4188.000
   38.0468     4090.000     4173.000     4145.000     4191.000     4072.000
   38.1012     4196.000     4089.000     4232.000     4085.000     4213.000
   38.1555     4169.000     4155.000     4013.000     4058.000     3970.000
   38.2098     4038.000     4105.000     3967.000     3962.000     3864.000
   38.2642     3808.000     3937.000     3736.000     3827.000     3885.000
   38.3185     3990.000     3760.000     3793.000     3596.000     3588.000
   38.3728     3441.000     3392.000     3430.000     3517.000     3525.000
   38.4272     3424.000     3506.000     3577.000     3477.000     3481.000
   38.4815     3439.000     3583.000     3517.000     3596.000     3535.000
   38.5358     3755.000     3735.000     3978.000     3990.000     4126.000
   38.5902     4147.000     4188.000     4292.000     4310.000     4284.000
   38.6445     4316.000     4326.000     4341.000     4593.000     4560.000
   38.6988     4738.000     4593.000     4737.000     4797.000     4901.000
   38.7532     4860.000     4933.000     4964.000     4818.000     4960.000
   38.8075     4815.000     4799.000     4796.000     4735.000     4547.000
   38.8618     4622.000     4470.000     4400.000     4285.000     4323.000
   38.9162     4128.000     4165.000     4058.000     4105.000     4068.000
   38.9705     3888.000     3804.000     3792.000     3713.000     3770.000
   39.0248     3640.000     3708.000     3635.000     3614.000     3547.000
   39.0792     3437.000     3430.000     3652.000     3517.000     3451.000
   39.1335     3455.000     3440.000     3484.000     3577.000     3408.000
   39.1878     3393.000     3354.000     3441.000     3457.000     3474.000
   39.2422     3436.000     3520.000     3514.000     3577.000     3594.000
   39.2965     3710.000     3577.000     3588.000     3763.000     3727.000
   39.3508     3876.000     3856.000     3887.000     3991.000     4005.000
   39.4052     4213.000     4129.000     4189.000     4369.000     4356.000
   39.4595     4423.000     4732.000     4795.000     5036.000     5050.000
   39.5138     5314.000     5358.000     5587.000     5786.000     5947.000
   39.5682     6108.000     6152.000     6280.000     6240.000     6092.000
   39.6225     6122.000     6290.000     6408.000     6304.000     6424.000
   39.6768     6660.000     6763.000     6902.000     6740.000     6809.000
   39.7311     6905.000     7008.000     6878.000     6875.000     7077.000
   39.7855     6869.000     6796.000     6806.000     6686.000     6502.000
   39.8398     6442.000     6112.000     5909.000     5842.000     5669.000
   39.8941     5564.000     5260.000     5075.000     5131.000     4915.000
   39.9485     4699.000     4877.000     4662.000     4731.000     4570.000
   40.0028     4616.000     4583.000     4682.000     4619.000     4749.000
   40.0571     4798.000     4797.000     4813.000     4708.000     4729.000
   40.1115     4895.000     4852.000     4809.000     4706.000     4795.000
   40.1658     4803.000     4895.000     4823.000     4852.000     4825.000
   40.2201     4715.000     4860.000     4848.000     4955.000     4892.000
   40.2745     4849.000     4969.000     4968.000     5096.000     5114.000
   40.3288     5195.000     4982.000     4886.000     4901.000     4737.000
   40.3831     4753.000     4840.000     4867.000     4714.000     4797.000
   40.4375     4440.000     4636.000     4430.000     4557.000     4459.000
   40.4918     4484.000     4576.000     4677.000     4610.000     4725.000
   40.5461     4740.000     4798.000     4773.000     4948.000     4986.000
   40.6005     5034.000     5082.000     5179.000     5267.000     5305.000
   40.6548     5283.000     5343.000     5359.000     5337.000     5457.000
   40.7091     5245.000     5228.000     5277.000     5215.000     5176.000
   40.7635     5173.000     5122.000     5123.000     4957.000     5130.000
   40.8178     4978.000     4941.000     4882.000     4687.000     4645.000
   40.8721     4698.000     4662.000     4598.000     4425.000     4471.000
   40.9265     4367.000     4371.000     4311.000     4472.000     4349.000
   40.9808     4185.000     4169.000     4292.000     4175.000     4131.000
   41.0351     4155.000     3987.000     4108.000     4084.000     3966.000
   41.0895     3899.000     3968.000     3819.000     3909.000     3744.000
   41.1438     3670.000     3750.000     3684.000     3680.000     3604.000
   41.1981     3593.000     3550.000     3685.000     3629.000     3573.000
   41.2524     3551.000     3572.000     3542.000     3554.000     3558.000
   41.3068     3610.000     3496.000     3598.000     3545.000     3554.000
   41.3611     3407.000     3435.000     3443.000     3481.000     3504.000
   41.4154     3329.000     3530.000     3585.000     3432.000     3563.000
   41.4698     3483.000     3527.000     3643.000     3418.000     3494.000
   41.5241     3455.000     3562.000     3522.000     3506.000     3480.000
   41.5784     3459.000     3606.000     3486.000     3595.000     3555.000
   41.6328     3487.000     3529.000     3441.000     3574.000     3514.000
   41.6871     3607.000     3568.000     3509.000     3378.000     3638.000
   41.7414     3574.000     3674.000     3750.000     3677.000     3631.000
   41.7958     3801.000     3688.000     3780.000     3730.000     3820.000
   41.8501     3770.000     3829.000     3919.000     3857.000     3872.000
   41.9044     3915.000     4072.000     4130.000     4157.000     3915.000
   41.9588     3938.000     4037.000     4116.000     4089.000     4136.000
   42.0131     4269.000     4295.000     4253.000     4258.000     4480.000
   42.0674     4257.000     4373.000     4197.000     4182.000     4273.000
   42.1218     4117.000     4239.000     4240.000     4152.000     4269.000
   42.1761     4142.000     4146.000     4276.000     4169.000     4062.000
   42.2304     4198.000     4233.000     4151.000     4162.000     4056.000
   42.2848     4215.000     4021.000     4272.000     4180.000     4278.000
   42.3391     4232.000     4433.000     4388.000     4416.000     4556.000
   42.3934     4537.000     4701.000     4671.000     4707.000     4686.000
   42.4478     4650.000     4875.000     4945.000     4879.000     4984.000
   42.5021     5191.000     5083.000     5053.000     5215.000     5331.000
   42.5564     5168.000     5300.000     5166.000     5326.000     5079.000
   42.6108     5102.000     5165.000     5026.000     5009.000     4969.000
   42.6651     4882.000     4702.000     4751.000     4704.000     4678.000
   42.7194     4654.000     4586.000     4545.000     4607.000     4539.000
   42.7737     4417.000     4408.000     4331.000     4394.000     4260.000
   42.8281     4260.000     4220.000     4248.000     4088.000     4238.000
   42.8824     4293.000     4277.000     4128.000     4285.000     4322.000
   42.9367     4307.000     4303.000     4328.000     4236.000     4287.000
   42.9911     4380.000     4293.000     4377.000     4545.000     4455.000
   43.0454     4432.000     4437.000     4398.000     4511.000     4570.000
   43.0997     4461.000     4274.000     4259.000     4225.000     4205.000
   43.1541     4237.000     4122.000     4141.000     4109.000     4163.000
   43.2084     4150.000     4114.000     4203.000     4104.000     4111.000
   43.2627     4210.000     4370.000     4304.000     4336.000     4323.000
   43.3171     4308.000     4308.000     4432.000     4335.000     4397.000
   43.3714     4547.000     4508.000     4456.000     4473.000     4610.000
   43.4257     4543.000     4747.000     4599.000     4662.000     4506.000
   43.4801     4572.000     4404.000     4525.000     4438.000     4557.000
   43.5344     4252.000     4418.000     4391.000     4331.000     4279.000
   43.5887     4187.000     4194.000     4067.000     4087.000     4064.000
   43.6431     3984.000     3913.000     3944.000     3875.000     3896.000
   43.6974     3783.000     3852.000     3696.000     3625.000     3659.000
   43.7517     3591.000     3644.000     3823.000     3778.000     3604.000
   43.8061     3665.000     3627.000     3562.000     3561.000     3607.000
   43.8604     3548.000     3583.000     3600.000     3723.000     3681.000
   43.9147     3803.000     3746.000     3785.000     3821.000     3964.000
   43.9691     3892.000     4014.000     4072.000     4120.000     4054.000
   44.0234     4100.000     4033.000     4211.000     4081.000     4102.000
   44.0777     4165.000     4365.000     4418.000     4332.000     4492.000
   44.1321     4425.000     4344.000     4427.000     4385.000     4317.000
   44.1864     4366.000     4372.000     4370.000     4262.000     4239.000
   44.2407     4379.000     4231.000     4359.000     4205.000     4352.000
   44.2951     4274.000     4450.000     4322.000     4424.000     4463.000
   44.3494     4217.000     4366.000     4395.000     4285.000     4437.000
   44.4037     4134.000     4287.000     4150.000     4106.000     4151.000
   44.4580     4044.000     3959.000     4073.000     3897.000     4003.000
   44.5124     3922.000     3833.000     3757.000     3805.000     3727.000
   44.5667     3791.000     3830.000     3746.000     3640.000     3750.000
   44.6210     3821.000     3864.000     3768.000     3928.000     3872.000
   44.6754     3909.000     3849.000     4012.000     4120.000     4339.000
   44.7297     4307.000     4576.000     4496.000     4641.000     4734.000
   44.7840     4880.000     4993.000     5189.000     5236.000     5333.000
   44.8384     5365.000     5543.000     5551.000     5653.000     5588.000
   44.8927     5549.000     5497.000     5328.000     5318.000     5063.000
   44.9470     5178.000     4957.000     4721.000     4618.000     4428.000
   45.0014     4391.000     4059.000     4103.000     3941.000     3795.000
   45.0557     3831.000     3889.000     3730.000     3628.000     3508.000
   45.1100     3537.000     3392.000     3338.000     3220.000     3307.000
   45.1644     3265.000     3312.000     3406.000     3427.000     3372.000
   45.2187     3349.000     3393.000     3474.000     3405.000     3313.000
   45.2730     3291.000     3322.000     3208.000     3268.000     3265.000
   45.3274     3218.000     3301.000     3206.000     3327.000     3334.000
   45.3817     3273.000     3220.000     3479.000     3393.000     3261.000
   45.4360     3475.000     3290.000     3488.000     3440.000     3462.000
   45.4904     3430.000     3406.000     3401.000     3578.000     3474.000
   45.5447     3656.000     3560.000     3619.000     3590.000     3709.000
   45.5990     3696.000     3689.000     3685.000     3803.000     3784.000
   45.6534     3776.000     3699.000     3808.000     3886.000     3701.000
   45.7077     3791.000     3785.000     3689.000     3709.000     3564.000
   45.7620     3577.000     3525.000     3546.000     3473.000     3520.000
   45.8164     3423.000     3415.000     3449.000     3347.000     3280.000
   45.8707     3469.000     3297.000     3576.000     3452.000     3490.000
   45.9250     3444.000     3573.000     3647.000     3659.000     3813.000
   45.9793     3891.000     3824.000     4090.000     4099.000     4053.000
   46.0337     4335.000     4281.000     4355.000     4294.000     4435.000
   46.0880     4357.000     4318.000     4423.000     4541.000     4520.000
   46.1423     4530.000     4465.000     4694.000     4573.000     4592.000
   46.1967     4702.000     4614.000     4634.000     4534.000     4678.000
   46.2510     4567.000     4592.000     4695.000     4829.000     4841.000
   46.3053     4985.000     4670.000     4708.000     4819.000     4677.000
   46.3597     4729.000     4663.000     4729.000     4585.000     4473.000
   46.4140     4474.000     4497.000     4480.000     4366.000     4344.000
   46.4683     4251.000     4262.000     4139.000     4220.000     4026.000
   46.5227     4050.000     3942.000     4014.000     3903.000     3826.000
   46.5770     3666.000     3804.000     3559.000     3557.000     3506.000
   46.6313     3555.000     3375.000     3572.000     3415.000     3493.000
   46.6857     3276.000     3353.000     3349.000     3346.000     3235.000
   46.7400     3439.000     3234.000     3370.000     3255.000     3385.000
   46.7943     3307.000     3525.000     3237.000     3318.000     3458.000
   46.8487     3303.000     3277.000     3257.000     3273.000     3330.000
   46.9030     3383.000     3448.000     3449.000     3409.000     3461.000
   46.9573     3490.000     3485.000     3531.000     3484.000     3488.000
   47.0117     3469.000     3526.000     3495.000     3454.000     3500.000
   47.0660     3571.000     3524.000     3498.000     3432.000     3491.000
   47.1203     3561.000     3366.000     3364.000     3433.000     3396.000
   47.1747     3333.000     3351.000     3418.000     3451.000     3411.000
   47.2290     3487.000     3371.000     3471.000     3501.000     3476.000
   47.2833     3554.000     3450.000     3607.000     3473.000     3454.000
   47.3377     3599.000     3569.000     3689.000     3685.000     3570.000
   47.3920     3752.000     3705.000     3638.000     3773.000     3625.000
   47.4463     3750.000     3695.000     3726.000     3754.000     3720.000
   47.5007     3713.000     3748.000     3532.000     3622.000     3449.000
   47.5550     3362.000     3308.000     3386.000     3404.000     3371.000
   47.6093     3416.000     3289.000     3330.000     3191.000     3184.000
   47.6636     3157.000     3228.000     3159.000     3219.000     3190.000
   47.7180     3214.000     3171.000     3343.000     3221.000     3166.000
   47.7723     3121.000     3303.000     3129.000     3099.000     3172.000
   47.8266     3062.000     3029.000     3005.000     3034.000     3179.000
   47.8810     3032.000     3057.000     3038.000     3016.000     3032.000
   47.9353     2976.000     2920.000     2921.000     2958.000     2941.000
   47.9896     2861.000     2865.000     2910.000     2847.000     2853.000
   48.0440     2906.000     2907.000     2870.000     2814.000     2975.000
   48.0983     2971.000     2982.000     2938.000     2918.000     3026.000
   48.1526     3105.000     3049.000     3068.000     3103.000     3109.000
   48.2070     3170.000     3036.000     3175.000     3216.000     3338.000
   48.2613     3317.000     3299.000     3458.000     3484.000     3662.000
   48.3156     3737.000     3780.000     3876.000     3880.000     3882.000
   48.3700     3722.000     3860.000     3745.000     3902.000     3626.000
   48.4243     3737.000     3866.000     3940.000     4013.000     3965.000
   48.4786     3998.000     3874.000     3802.000     3814.000     3704.000
   48.5330     3667.000     3613.000     3531.000     3519.000     3510.000
   48.5873     3543.000     3449.000     3386.000     3377.000     3304.000
   48.6416     3215.000     3266.000     3094.000     3108.000     3179.000
   48.6960     2999.000     3045.000     3037.000     2950.000     2930.000
   48.7503     2957.000     2957.000     2933.000     2859.000     2864.000
   48.8046     2882.000     2890.000     2917.000     2930.000     2878.000
   48.8590     2929.000     2842.000     2889.000     2909.000     2889.000
   48.9133     2781.000     2789.000     2871.000     2913.000     2924.000
   48.9676     2887.000     2870.000     2874.000     2876.000     2929.000
   49.0220     2915.000     2969.000     2954.000     2949.000     2917.000
   49.0763     2930.000     2887.000     2973.000     2973.000     3010.000
   49.1306     2949.000     3073.000     3012.000     3071.000     3108.000
   49.1849     3170.000     3104.000     3063.000     3178.000     3285.000
   49.2393     3144.000     3244.000     3108.000     3279.000     3113.000
   49.2936     3143.000     3086.000     3222.000     3120.000     3011.000
   49.3479     3100.000     2995.000     3010.000     2953.000     3030.000
   49.4023     2978.000     2868.000     3024.000     2942.000     2803.000
   49.4566     2833.000     2926.000     2911.000     2757.000     2802.000
   49.5109     2601.000     2763.000     2740.000     2665.000     2696.000
   49.5653     2691.000     2592.000     2714.000     2690.000     2652.000
   49.6196     2574.000     2583.000     2690.000     2634.000     2745.000
   49.6739     2680.000     2760.000     2690.000     2691.000     2687.000
   49.7283     2698.000     2682.000     2724.000     2755.000     2783.000
   49.7826     2788.000     2781.000     2788.000     2810.000     2774.000
   49.8369     2770.000     2797.000     2799.000     2608.000     2731.000
   49.8913     2680.000     2717.000     2649.000     2688.000     2678.000
   49.9456     2610.000     2698.000     2651.000     2602.000     2663.000
   49.9999     2517.000     2665.000     2603.000     2463.000     2606.000
   50.0543     2536.000     2504.000     2612.000     2574.000     2557.000
   50.1086     2520.000     2657.000     2536.000     2571.000     2634.000
   50.1629     2542.000     2560.000     2609.000     2435.000     2608.000
   50.2173     2544.000     2566.000     2587.000     2600.000     2539.000
   50.2716     2634.000     2475.000     2662.000     2535.000     2615.000
   50.3259     2489.000     2574.000     2610.000     2518.000     2669.000
   50.3803     2676.000     2608.000     2582.000     2600.000     2644.000
   50.4346     2627.000     2579.000     2537.000     2643.000     2604.000
   50.4889     2710.000     2607.000     2676.000     2734.000     2703.000
   50.5433     2783.000     2839.000     2778.000     2800.000     2727.000
   50.5976     2755.000     2861.000     2853.000     2674.000     2897.000
   50.6519     2811.000     2841.000     2757.000     2975.000     2874.000
   50.7063     3002.000     2893.000     3020.000     3040.000     3097.000
   50.7606     3069.000     3140.000     3136.000     3184.000     3089.000
   50.8149     3188.000     3128.000     3188.000     3088.000     3118.000
   50.8692     3179.000     3143.000     3233.000     3258.000     3177.000
   50.9236     3266.000     3211.000     3197.000     3207.000     3229.000
   50.9779     3080.000     3235.000     3027.000     3104.000     3120.000
   51.0322     2967.000     2924.000     2892.000     2920.000     2915.000
   51.0866     2757.000     2764.000     2856.000     2726.000     2669.000
   51.1409     2756.000     2602.000     2594.000     2568.000     2606.000
   51.1952     2562.000     2611.000     2421.000     2486.000     2566.000
   51.2496     2622.000     2514.000     2513.000     2520.000     2489.000
   51.3039     2431.000     2492.000     2616.000     2489.000     2534.000
   51.3582     2555.000     2517.000     2610.000     2530.000     2599.000
   51.4126     2512.000     2614.000     2592.000     2678.000     2537.000
   51.4669     2655.000     2649.000     2657.000     2637.000     2740.000
   51.5212     2765.000     2725.000     2598.000     2773.000     2730.000
   51.5756     2815.000     2714.000     2707.000     2679.000     2699.000
   51.6299     2729.000     2733.000     2669.000     2659.000     2658.000
   51.6842     2644.000     2726.000     2683.000     2555.000     2641.000
   51.7386     2674.000     2507.000     2693.000     2550.000     2494.000
   51.7929     2573.000     2559.000     2564.000     2481.000     2504.000
   51.8472     2377.000     2468.000     2361.000     2474.000     2362.000
   51.9016     2483.000     2451.000     2490.000     2344.000     2419.000
   51.9559     2406.000     2406.000     2398.000     2364.000     2389.000
   52.0102     2329.000     2246.000     2337.000     2369.000     2347.000
   52.0646     2302.000     2333.000     2307.000     2381.000     2330.000
   52.1189     2397.000     2381.000     2419.000     2322.000     2293.000
   52.1732     2327.000     2341.000     2411.000     2352.000     2416.000
   52.2276     2460.000     2477.000     2397.000     2472.000     2464.000
   52.2819     2354.000     2374.000     2493.000     2453.000     2606.000
   52.3362     2571.000     2517.000     2610.000     2645.000     2537.000
   52.3905     2545.000     2645.000     2542.000     2624.000     2537.000
   52.4449     2601.000     2570.000     2699.000     2554.000     2593.000
   52.4992     2568.000     2596.000     2536.000     2537.000     2544.000
   52.5535     2605.000     2572.000     2589.000     2546.000     2635.000
   52.6079     2599.000     2561.000     2630.000     2631.000     2720.000
   52.6622     2736.000     2675.000     2588.000     2640.000     2700.000
   52.7165     2573.000     2691.000     2648.000     2530.000     2500.000
   52.7709     2648.000     2459.000     2528.000     2640.000     2573.000
   52.8252     2452.000     2536.000     2459.000     2599.000     2526.000
   52.8795     2583.000     2538.000     2459.000     2390.000     2512.000
   52.9339     2426.000     2449.000     2397.000     2468.000     2443.000
   52.9882     2431.000     2558.000     2588.000     2584.000     2630.000
   53.0425     2736.000     2761.000     2856.000     2889.000     2889.000
   53.0969     3005.000     2894.000     3112.000     3077.000     3146.000
   53.1512     3006.000     3163.000     3198.000     3249.000     3224.000
   53.2055     3307.000     3328.000     3439.000     3476.000     3413.000
   53.2599     3474.000     3497.000     3487.000     3517.000     3463.000
   53.3142     3454.000     3517.000     3393.000     3189.000     3140.000
   53.3685     3034.000     2977.000     2812.000     2936.000     2874.000
   53.4229     2874.000     2802.000     2800.000     2692.000     2729.000
   53.4772     2698.000     2605.000     2613.000     2565.000     2490.000
   53.5315     2542.000     2546.000     2421.000     2450.000     2412.000
   53.5859     2291.000     2381.000     2314.000     2262.000     2248.000
   53.6402     2251.000     2302.000     2253.000     2321.000     2359.000
   53.6945     2257.000     2382.000     2266.000     2258.000     2192.000
   53.7489     2368.000     2270.000     2284.000     2284.000     2307.000
   53.8032     2271.000     2373.000     2389.000     2426.000     2414.000
   53.8575     2407.000     2431.000     2421.000     2543.000     2445.000
   53.9119     2368.000     2379.000     2334.000     2315.000     2373.000
   53.9662     2311.000     2274.000     2291.000     2340.000     2323.000
   54.0205     2346.000     2315.000     2342.000     2277.000     2306.000
   54.0748     2389.000     2279.000     2190.000     2196.000     2196.000
   54.1292     2302.000     2268.000     2263.000     2221.000     2304.000
   54.1835     2355.000     2238.000     2259.000     2283.000     2198.000
   54.2378     2297.000     2262.000     2236.000     2207.000     2235.000
   54.2922     2263.000     2229.000     2288.000     2266.000     2294.000
   54.3465     2228.000     2226.000     2267.000     2301.000     2235.000
   54.4008     2196.000     2192.000     2127.000     2157.000     2223.000
   54.4552     2063.000     2121.000     2139.000     2145.000     2181.000
   54.5095     2142.000     2120.000     2233.000     2114.000     2185.000
   54.5638     2097.000     2108.000     2162.000     1994.000     2048.000
   54.6182     2008.000     2053.000     2156.000     2063.000     1977.000
   54.6725     2083.000     2057.000     2018.000     2054.000     1992.000
   54.7268     2073.000     2074.000     2024.000     2013.000     1933.000
   54.7812     2063.000     2026.000     2083.000     2065.000     2197.000
   54.8355     2112.000     2060.000     2167.000     2093.000     2107.000
   54.8898     2114.000     2083.000     2140.000     2110.000     2112.000
   54.9442     2118.000     2077.000     2126.000     2096.000     2105.000
   54.9985     2147.000     2120.000     2108.000     2030.000     2064.000
   55.0528     2060.000     2035.000     2002.000     2128.000     2049.000
   55.1072     1993.000     2080.000     1990.000     2059.000     2015.000
   55.1615     2058.000     1955.000     1993.000     2015.000     1974.000
   55.2158     1992.000     2072.000     2013.000     1997.000     2088.000
   55.2702     2050.000     2037.000     2022.000     2054.000     2007.000
   55.3245     2044.000     2019.000     2080.000     2116.000     2115.000
   55.3788     2103.000     2062.000     2139.000     2073.000     2086.000
   55.4332     2333.000     2251.000     2231.000     2312.000     2352.000
   55.4875     2456.000     2265.000     2349.000     2261.000     2314.000
   55.5418     2301.000     2416.000     2376.000     2268.000     2306.000
   55.5961     2367.000     2475.000     2546.000     2503.000     2511.000
   55.6505     2440.000     2504.000     2553.000     2573.000     2523.000
   55.7048     2586.000     2584.000     2612.000     2683.000     2532.000
   55.7591     2614.000     2621.000     2612.000     2531.000     2609.000
   55.8135     2511.000     2548.000     2642.000     2647.000     2582.000
   55.8678     2546.000     2683.000     2751.000     2582.000     2586.000
   55.9221     2621.000     2538.000     2503.000     2501.000     2445.000
   55.9765     2426.000     2404.000     2386.000     2356.000     2337.000
   56.0308     2309.000     2379.000     2406.000     2425.000     2381.000
   56.0851     2423.000     2444.000     2459.000     2447.000     2366.000
   56.1395     2499.000     2472.000     2342.000     2355.000     2288.000
   56.1938     2298.000     2258.000     2321.000     2259.000     2333.000
   56.2481     2247.000     2236.000     2312.000     2262.000     2299.000
   56.3025     2280.000     2283.000     2271.000     2240.000     2166.000
   56.3568     2187.000     2248.000     2108.000     2185.000     2168.000
   56.4111     2179.000     2034.000     2051.000     2140.000     2036.000
   56.4655     2019.000     2026.000     2071.000     2049.000     1980.000
   56.5198     2040.000     2013.000     2068.000     2017.000     1993.000
   56.5741     2016.000     2098.000     2015.000     2038.000     1898.000
   56.6285     2039.000     1995.000     1883.000     1985.000     1978.000
   56.6828     1982.000     2004.000     1923.000     2016.000     2071.000
   56.7371     2018.000     1993.000     1999.000     1916.000     2013.000
   56.7915     2043.000     1992.000     1944.000     1930.000     1930.000
   56.8458     1893.000     1887.000     1937.000     1924.000     1909.000
   56.9001     1883.000     1876.000     1916.000     1960.000     1896.000
   56.9545     1934.000     1821.000     1964.000     1932.000     1880.000
   57.0088     1908.000     1967.000     1998.000     1861.000     1977.000
   57.0631     2023.000     1969.000     2021.000     1981.000     2018.000
   57.1175     1985.000     1930.000     1983.000     1940.000     1925.000
   57.1718     1864.000     1967.000     2010.000     1916.000     1915.000
   57.2261     1913.000     1934.000     1932.000     1915.000     1922.000
   57.2804     1899.000     1885.000     1916.000     1948.000     1956.000
   57.3348     1909.000     1961.000     1939.000     1928.000     1948.000
   57.3891     2001.000     1903.000     1874.000     1908.000     1903.000
   57.4434     1986.000     1955.000     1953.000     1996.000     1949.000
   57.4978     2024.000     1964.000     1907.000     1900.000     1961.000
   57.5521     1943.000     1906.000     1996.000     1941.000     1949.000
   57.6064     1924.000     1903.000     1943.000     1977.000     1962.000
   57.6608     1996.000     1939.000     2003.000     2027.000     1963.000
   57.7151     2010.000     2025.000     2063.000     1982.000     2010.000
   57.7694     1964.000     1974.000     1963.000     1898.000     1972.000
   57.8238     1959.000     1922.000     1981.000     1942.000     1951.000
   57.8781     1952.000     1925.000     1982.000     1955.000     1983.000
   57.9324     1861.000     1915.000     1892.000     1863.000     1945.000
   57.9868     1823.000     1894.000     1923.000     1838.000     1771.000
   58.0411     1893.000     1824.000     1896.000     1846.000     1866.000
   58.0954     1805.000     1940.000     1872.000     1871.000     1791.000
   58.1498     1887.000     1941.000     1919.000     1887.000     1884.000
   58.2041     1847.000     1956.000     1917.000     1967.000     1818.000
   58.2584     1928.000     1871.000     1864.000     1850.000     1935.000
   58.3128     1970.000     1944.000     1928.000     1959.000     1949.000
   58.3671     1870.000     1962.000     1993.000     2005.000     2002.000
   58.4214     1999.000     2011.000     1974.000     2093.000     2029.000
   58.4758     2137.000     2129.000     2170.000     2083.000     2066.000
   58.5301     2098.000     2106.000     2058.000     2130.000     2080.000
   58.5844     2122.000     2063.000     2185.000     2174.000     2109.000
   58.6388     2241.000     2214.000     2292.000     2285.000     2363.000
   58.6931     2404.000     2297.000     2240.000     2338.000     2377.000
   58.7474     2325.000     2334.000     2237.000     2376.000     2382.000
   58.8017     2283.000     2310.000     2308.000     2306.000     2383.000
   58.8561     2309.000     2349.000     2335.000     2309.000     2218.000
   58.9104     2265.000     2282.000     2194.000     2159.000     2142.000
   58.9647     2176.000     2142.000     1951.000     1948.000     1983.000
   59.0191     1923.000     2065.000     1966.000     2021.000     2015.000
   59.0734     1956.000     1945.000     1891.000     1987.000     1894.000
   59.1277     1949.000     1874.000     1936.000     1931.000     1864.000
   59.1821     1943.000     1881.000     1923.000     1868.000     1865.000
   59.2364     1998.000     1852.000     1835.000     1945.000     2025.000
   59.2907     1929.000     1875.000     1976.000     1971.000     1870.000
   59.3451     1961.000     1913.000     1938.000     1970.000     1954.000
   59.3994     1939.000     1909.000     1928.000     1976.000     1815.000
   59.4537     1842.000     1865.000     1850.000     1805.000     1827.000
   59.5081     1781.000     1892.000     1849.000     1763.000     1700.000
   59.5624     1837.000     1790.000     1842.000     1712.000     1782.000
   59.6167     1737.000     1730.000     1705.000     1790.000     1800.000
   59.6711     1709.000     1687.000     1721.000     1708.000     1694.000
   59.7254     1773.000     1657.000     1693.000     1655.000     1752.000
   59.7797     1752.000     1745.000     1686.000     1703.000     1716.000
   59.8341     1674.000     1720.000     1678.000     1664.000     1697.000
   59.8884     1732.000     1697.000     1721.000     1682.000     1704.000
   59.9427     1660.000     1777.000     1716.000     1747.000     1743.000
   59.9971     1772.000     1692.000     1762.000     1772.000     1711.000
   60.0514     1702.000     1829.000     1666.000     1717.000     1785.000
   60.1057     1782.000     1764.000     1727.000     1689.000     1650.000
   60.1601     1722.000     1743.000     1694.000     1696.000     1651.000
   60.2144     1657.000     1682.000     1663.000     1749.000     1821.000
   60.2687     1754.000     1710.000     1672.000     1689.000     1755.000
   60.3231     1741.000     1749.000     1773.000     1769.000     1760.000
   60.3774     1632.000     1673.000     1684.000     1662.000     1687.000
   60.4317     1689.000     1778.000     1697.000     1693.000     1741.000
   60.4860     1665.000     1704.000     1666.000     1703.000     1809.000
   60.5404     1669.000     1643.000     1720.000     1691.000     1736.000
   60.5947     1667.000     1712.000     1757.000     1746.000     1726.000
   60.6490     1698.000     1626.000     1698.000     1733.000     1723.000
   60.7034     1687.000     1657.000     1636.000     1686.000     1684.000
   60.7577     1674.000     1655.000     1764.000     1653.000     1791.000
   60.8120     1737.000     1770.000     1720.000     1743.000     1665.000
   60.8664     1707.000     1779.000     1753.000     1714.000     1710.000
   60.9207     1735.000     1777.000     1696.000     1768.000     1742.000
   60.9750     1773.000     1806.000     1754.000     1875.000     1845.000
   61.0294     1873.000     1880.000     1832.000     1756.000     1852.000
   61.0837     1752.000     1783.000     1853.000     1748.000     1844.000
   61.1380     1845.000     1865.000     1888.000     1880.000     1911.000
   61.1924     1914.000     1902.000     1876.000     1973.000     1821.000
   61.2467     1869.000     1879.000     1789.000     1880.000     1929.000
   61.3010     1850.000     1933.000     1897.000     1814.000     1859.000
   61.3554     1802.000     1818.000     1852.000     1865.000     1811.000
   61.4097     1833.000     1875.000     1783.000     1846.000     1788.000
   61.4640     1880.000     1875.000     1939.000     1914.000     1901.000
   61.5184     1948.000     1968.000     1933.000     1960.000     1946.000
   61.5727     1960.000     1911.000     1944.000     1881.000     2012.000
   61.6270     1869.000     2036.000     1997.000     2010.000     1994.000
   61.6814     2047.000     1879.000     2036.000     1928.000     1919.000
   61.7357     1979.000     1933.000     1883.000     1848.000     1854.000
   61.7900     1933.000     1857.000     1911.000     1813.000     1808.000
   61.8444     1779.000     1786.000     1779.000     1854.000     1731.000
   61.8987     1782.000     1725.000     1745.000     1737.000     1745.000
   61.9530     1678.000     1674.000     1711.000     1620.000     1716.000
   62.0073     1735.000     1696.000     1681.000     1678.000     1670.000
   62.0617     1683.000     1657.000     1632.000     1589.000     1607.000
   62.1160     1631.000     1630.000     1663.000     1666.000     1547.000
   62.1703     1569.000     1601.000     1548.000     1648.000     1675.000
   62.2247     1609.000     1675.000     1709.000     1605.000     1658.000
   62.2790     1675.000     1614.000     1667.000     1633.000     1674.000
   62.3333     1630.000     1699.000     1682.000     1686.000     1639.000
   62.3877     1705.000     1660.000     1724.000     1698.000     1729.000
   62.4420     1678.000     1678.000     1710.000     1750.000     1781.000
   62.4963     1700.000     1727.000     1675.000     1771.000     1674.000
   62.5507     1676.000     1792.000     1803.000     1674.000     1780.000
   62.6050     1740.000     1723.000     1796.000     1774.000     1716.000
   62.6593     1740.000     1746.000     1795.000     1727.000     1774.000
   62.7137     1763.000     1707.000     1755.000     1783.000     1756.000
   62.7680     1720.000     1725.000     1622.000     1642.000     1706.000
   62.8223     1654.000     1641.000     1714.000     1645.000     1563.000
   62.8767     1653.000     1644.000     1570.000     1692.000     1657.000
   62.9310     1655.000     1643.000     1611.000     1610.000     1572.000
   62.9853     1597.000     1687.000     1574.000     1581.000     1666.000
   63.0397     1629.000     1602.000     1556.000     1619.000     1568.000
   63.0940     1614.000     1565.000     1604.000     1563.000     1598.000
   63.1483     1595.000     1641.000     1620.000     1649.000     1681.000
   63.2027     1587.000     1707.000     1673.000     1684.000     1632.000
   63.2570     1617.000     1577.000     1568.000     1605.000     1628.000
   63.3113     1561.000     1621.000     1650.000     1677.000     1573.000
   63.3657     1592.000     1630.000     1538.000     1591.000     1539.000
   63.4200     1624.000     1587.000     1595.000     1529.000     1536.000
   63.4743     1530.000     1516.000     1520.000     1548.000     1576.000
   63.5287     1564.000     1499.000     1566.000     1532.000     1561.000
   63.5830     1554.000     1625.000     1573.000     1573.000     1569.000
   63.6373     1553.000     1578.000     1543.000     1466.000     1495.000
   63.6916     1468.000     1576.000     1495.000     1581.000     1474.000
   63.7460     1561.000     1541.000     1568.000     1512.000     1584.000
   63.8003     1488.000     1533.000     1511.000     1557.000     1545.000
   63.8546     1504.000     1567.000     1612.000     1549.000     1569.000
   63.9090     1509.000     1564.000     1540.000     1596.000     1516.000
   63.9633     1652.000     1512.000     1535.000     1579.000     1483.000
   64.0176     1519.000     1617.000     1591.000     1605.000     1599.000
   64.0720     1587.000     1629.000     1637.000     1629.000     1567.000
   64.1263     1687.000     1639.000     1576.000     1649.000     1605.000
   64.1806     1546.000     1563.000     1614.000     1689.000     1664.000
   64.2350     1588.000     1556.000     1624.000     1606.000     1600.000
   64.2893     1592.000     1558.000     1553.000     1516.000     1635.000
   64.3436     1507.000     1474.000     1540.000     1595.000     1543.000
   64.3980     1539.000     1502.000     1572.000     1507.000     1607.000
   64.4523     1610.000     1506.000     1559.000     1526.000     1546.000
   64.5066     1622.000     1533.000     1528.000     1613.000     1583.000
   64.5610     1554.000     1525.000     1505.000     1460.000     1486.000
   64.6153     1514.000     1520.000     1532.000     1521.000     1612.000
   64.6696     1497.000     1461.000     1522.000     1459.000     1523.000
   64.7240     1486.000     1528.000     1537.000     1487.000     1487.000
   64.7783     1530.000     1489.000     1472.000     1525.000     1552.000
   64.8326     1516.000     1534.000     1580.000     1545.000     1569.000
   64.8870     1569.000     1526.000     1593.000     1612.000     1528.000
   64.9413     1546.000     1585.000     1591.000     1585.000     1665.000
   64.9956     1613.000     1624.000     1563.000     1609.000     1550.000
   65.0500     1600.000     1520.000     1560.000     1542.000     1584.000
   65.1043     1563.000     1543.000     1454.000     1530.000     1471.000
   65.1586     1575.000     1530.000     1549.000     1495.000     1530.000
   65.2129     1478.000     1549.000     1522.000     1541.000     1490.000
   65.2673     1481.000     1557.000     1480.000     1452.000     1427.000
   65.3216     1508.000     1478.000     1516.000     1503.000     1448.000
   65.3759     1517.000     1477.000     1449.000     1547.000     1449.000
   65.4303     1483.000     1433.000     1485.000     1493.000     1567.000
   65.4846     1483.000     1493.000     1564.000     1448.000     1511.000
   65.5389     1420.000     1517.000     1509.000     1553.000     1510.000
   65.5933     1526.000     1411.000     1505.000     1479.000     1480.000
   65.6476     1499.000     1518.000     1482.000     1508.000     1513.000
   65.7019     1505.000     1494.000     1521.000     1494.000     1468.000
   65.7563     1467.000     1457.000     1524.000     1451.000     1448.000
   65.8106     1474.000     1507.000     1472.000     1446.000     1486.000
   65.8649     1393.000     1439.000     1431.000     1431.000     1419.000
   65.9193     1445.000     1408.000     1519.000     1393.000     1426.000
   65.9736     1461.000     1459.000     1446.000     1416.000     1424.000
   66.0279     1464.000     1466.000     1432.000     1462.000     1439.000
   66.0823     1453.000     1486.000     1478.000     1502.000     1461.000
   66.1366     1453.000     1465.000     1554.000     1463.000     1494.000
   66.1909     1395.000     1471.000     1488.000     1483.000     1494.000
   66.2453     1460.000     1400.000     1453.000     1394.000     1441.000
   66.2996     1382.000     1446.000     1447.000     1455.000     1426.000
   66.3539     1438.000     1398.000     1402.000     1432.000     1530.000
   66.4083     1443.000     1428.000     1447.000     1333.000     1433.000
   66.4626     1425.000     1478.000     1463.000     1403.000     1446.000
   66.5169     1398.000     1397.000     1392.000     1390.000     1396.000
   66.5713     1479.000     1433.000     1434.000     1364.000     1414.000
   66.6256     1382.000     1391.000     1422.000     1443.000     1411.000
   66.6799     1395.000     1421.000     1348.000     1456.000     1416.000
   66.7343     1429.000     1478.000     1409.000     1387.000     1362.000
   66.7886     1454.000     1435.000     1450.000     1409.000     1470.000
   66.8429     1441.000     1443.000     1396.000     1412.000     1432.000
   66.8972     1423.000     1389.000     1471.000     1413.000     1475.000
   66.9516     1411.000     1412.000     1372.000     1441.000     1384.000
   67.0059     1437.000     1373.000     1467.000     1467.000     1498.000
   67.0602     1481.000     1454.000     1404.000     1446.000     1457.000
   67.1146     1408.000     1466.000     1476.000     1460.000     1485.000
   67.1689     1475.000     1538.000     1477.000     1550.000     1499.000
   67.2232     1457.000     1405.000     1603.000     1504.000     1587.000
   67.2776     1459.000     1538.000     1466.000     1541.000     1486.000
   67.3319     1561.000     1583.000     1524.000     1551.000     1529.000
   67.3862     1558.000     1568.000     1538.000     1554.000     1529.000
   67.4406     1538.000     1540.000     1645.000     1595.000     1632.000
   67.4949     1473.000     1465.000     1575.000     1543.000     1521.000
   67.5492     1499.000     1423.000     1405.000     1511.000     1475.000
   67.6036     1512.000     1494.000     1503.000     1557.000     1480.000
   67.6579     1462.000     1499.000     1507.000     1482.000     1446.000
   67.7122     1444.000     1397.000     1462.000     1487.000     1406.000
   67.7666     1479.000     1438.000     1419.000     1486.000     1426.000
   67.8209     1421.000     1429.000     1391.000     1459.000     1355.000
   67.8752     1476.000     1395.000     1403.000     1455.000     1463.000
   67.9296     1476.000     1363.000     1367.000     1320.000     1449.000
   67.9839     1406.000     1425.000     1435.000     1359.000     1402.000
   68.0382     1411.000     1325.000     1368.000     1371.000     1352.000
   68.0926     1387.000     1356.000     1421.000     1426.000     1423.000
   68.1469     1422.000     1396.000     1420.000     1398.000     1400.000
   68.2012     1352.000     1478.000     1351.000     1362.000     1304.000
   68.2556     1457.000     1393.000     1359.000     1432.000     1409.000
   68.3099     1348.000     1432.000     1378.000     1326.000     1377.000
   68.3642     1392.000     1384.000     1328.000     1350.000     1352.000
   68.4185     1323.000     1369.000     1385.000     1271.000     1347.000
   68.4729     1335.000     1348.000     1363.000     1400.000     1345.000
   68.5272     1413.000     1344.000     1385.000     1331.000     1360.000
   68.5815     1333.000     1338.000     1446.000     1345.000     1320.000
   68.6359     1355.000     1320.000     1373.000     1376.000     1362.000
   68.6902     1344.000     1419.000     1406.000     1442.000     1347.000
   68.7445     1423.000     1320.000     1323.000     1366.000     1341.000
   68.7989     1405.000     1323.000     1406.000     1313.000     1426.000
   68.8532     1345.000     1397.000     1417.000     1386.000     1381.000
   68.9075     1420.000     1379.000     1413.000     1380.000     1382.000
   68.9619     1358.000     1382.000     1317.000     1346.000     1454.000
   69.0162     1375.000     1388.000     1408.000     1391.000     1428.000
   69.0705     1404.000     1394.000     1425.000     1400.000     1403.000
   69.1249     1379.000     1305.000     1454.000     1423.000     1352.000
   69.1792     1412.000     1335.000     1431.000     1470.000     1392.000
   69.2335     1375.000     1493.000     1361.000     1453.000     1427.000
   69.2879     1456.000     1405.000     1411.000     1285.000     1395.000
   69.3422     1368.000     1348.000     1383.000     1453.000     1394.000
   69.3965     1400.000     1477.000     1433.000     1426.000     1331.000
   69.4509     1331.000     1383.000     1442.000     1411.000     1465.000
   69.5052     1458.000     1473.000     1409.000     1432.000     1416.000
   69.5595     1452.000     1454.000     1484.000     1425.000     1524.000
   69.6139     1412.000     1454.000     1461.000     1521.000     1513.000
   69.6682     1485.000     1479.000     1468.000     1557.000     1504.000
   69.7225     1559.000     1518.000     1519.000     1613.000     1608.000
   69.7769     1470.000     1435.000     1512.000     1500.000     1542.000
   69.8312     1473.000     1502.000     1446.000     1454.000     1432.000
   69.8855     1467.000     1550.000     1537.000     1521.000     1453.000
   69.9398     1470.000     1407.000     1468.000     1465.000     1421.000
   69.9942     1415.000
## END= 
