$$ -----------------------
$$ Labels defined by JCAMP
$$ -----------------------

## TITLE= Unknown
## JCAMP-DX= 4.24
## DATA TYPE= RD
## BLOCKS= 1
## ORIGIN= PANalytical B.V.
## OWNER= Copyright(C) 2004 by PANalytical B.V.
## DATE= 23/04/04
## TIME= 10:27:13
## SAMPLE DESCRIPTION= 
## SOURCE REFERENCE= Converted XRDML file

$$ ------------------------------------
$$ Labels defined by PANalytical
$$ ------------------------------------

$$ Wavelengths are given in Angstrom.
##$WAVELENGTH ALPHA1= 1.5405980
##$WAVELENGTH ALPHA2= 1.5444260
##$INTENSITY RATIO ALPHA2/ALPHA1= 0.5000000
##$MONOCHROMATOR= NO
##$SPINNING= YES
##$REVOLUTION TIME= 1.0
##$GENERATOR VOLTAGE= 40
##$TUBE CURRENT= 15
##$ANODE MATERIAL= Cu
##$TUBE FOCUS= LONG FINE
##$SCAN TYPE= CONTINUOUS
##$COUNT TIME= 58.395
##$DIVERGENCE SLIT= 0.45836

$$ -----------------------------------------------------
$$ Labels defined by PANalytical for PC-APD files
$$ -----------------------------------------------------

##$DIFFRACTOMETER= XPERT

$$ ------------------------------------------------------
$$ Labels defined by PANalytical for APD1700 files
$$ ------------------------------------------------------

##$TAKE OFF ANGLE= 6.000
##$DETECTOR TYPE= PIXcel3D-Medipix3 1x1 detector

$$ -----------------------
$$ Labels defined by JCAMP
$$ -----------------------

## XUNITS= TWO-THETA
## YUNITS= COUNTS
## XFACTOR= 1.0
## YFACTOR= 1.0
## FIRSTX= 3.0004332
## LASTX= 59.9949110
## DELTAX= 0.0108664
## NPOINTS= 5246
## FIRSTY= 107914.000
## MINX= 3.00043
## MAXX= 59.99491
## MINY= 969.000
## MAXY= 301408.000
## XYDATA= X++<Y..Y>
    3.0004   107914.000   106810.000   104702.000   104061.000   102730.000
    3.0548   101521.000   100843.000    99704.000    97898.000    96935.000
    3.1091    95187.000    94089.000    93062.000    91531.000    90652.000
    3.1634    88828.000    88450.000    86396.000    85548.000    84036.000
    3.2178    83284.000    81549.000    80128.000    79428.000    77793.000
    3.2721    76931.000    75394.000    74611.000    73318.000    72394.000
    3.3264    71345.000    70567.000    68566.000    68504.000    66565.000
    3.3808    65975.000    65265.000    64248.000    63007.000    62547.000
    3.4351    61760.000    60768.000    59354.000    58543.000    57575.000
    3.4894    56695.000    55818.000    54825.000    53996.000    53191.000
    3.5438    52673.000    51599.000    50734.000    49832.000    49092.000
    3.5981    48307.000    47291.000    46671.000    45532.000    45124.000
    3.6524    44418.000    43400.000    42361.000    42100.000    41051.000
    3.7068    40891.000    39308.000    39496.000    38486.000    38628.000
    3.7611    36948.000    36602.000    35914.000    35484.000    34711.000
    3.8154    34273.000    33616.000    32898.000    32779.000    31601.000
    3.8697    30753.000    30445.000    30005.000    29279.000    28730.000
    3.9241    28589.000    28250.000    27200.000    26778.000    26395.000
    3.9784    25826.000    25290.000    24623.000    24413.000    23632.000
    4.0327    23539.000    22933.000    23086.000    22180.000    21808.000
    4.0871    21097.000    20871.000    20286.000    19703.000    19689.000
    4.1414    19288.000    18658.000    18377.000    17899.000    17708.000
    4.1957    17254.000    17035.000    16605.000    16385.000    15914.000
    4.2501    15726.000    15396.000    14864.000    14673.000    14112.000
    4.3044    14281.000    13824.000    13588.000    13114.000    12931.000
    4.3587    12619.000    12525.000    12179.000    11981.000    11787.000
    4.4131    11452.000    11256.000    10880.000    11075.000    10406.000
    4.4674    10641.000     9934.000    10136.000     9765.000     9812.000
    4.5217     9478.000     9356.000     9107.000     9101.000     8825.000
    4.5761     8591.000     8659.000     8418.000     8164.000     8256.000
    4.6304     7966.000     8092.000     7833.000     7739.000     7737.000
    4.6847     7466.000     7422.000     7247.000     7253.000     7207.000
    4.7391     7233.000     7113.000     7008.000     7008.000     6945.000
    4.7934     7093.000     6843.000     6872.000     6900.000     6988.000
    4.8477     6869.000     6999.000     6670.000     6720.000     6667.000
    4.9021     6872.000     6545.000     6678.000     6655.000     6826.000
    4.9564     6664.000     6928.000     6619.000     6688.000     6598.000
    5.0107     6791.000     6702.000     6731.000     6781.000     6956.000
    5.0651     6912.000     7037.000     7063.000     7074.000     7016.000
    5.1194     7450.000     7246.000     7677.000     7364.000     7445.000
    5.1737     7548.000     7689.000     7550.000     7832.000     7959.000
    5.2281     7847.000     8101.000     8209.000     8275.000     8642.000
    5.2824     8644.000     9046.000     9231.000     9510.000    10028.000
    5.3367    10249.000    10561.000    10823.000    10805.000    11684.000
    5.3911    11925.000    12354.000    12842.000    13579.000    13895.000
    5.4454    14883.000    15138.000    16200.000    17240.000    18621.000
    5.4997    19516.000    21236.000    21967.000    23540.000    24651.000
    5.5540    25844.000    26714.000    28376.000    29341.000    31125.000
    5.6084    32257.000    34722.000    36178.000    39144.000    41629.000
    5.6627    45543.000    50079.000    55452.000    59522.000    64511.000
    5.7170    68738.000    73094.000    79409.000    85804.000    94413.000
    5.7714   105110.000   115238.000   130578.000   147583.000   169317.000
    5.8257   195412.000   220056.000   244327.000   265188.000   277799.000
    5.8800   288967.000   292039.000   297275.000   301408.000   299555.000
    5.9344   285118.000   244692.000   197279.000   148287.000   110608.000
    5.9887    77845.000    53765.000    39050.000    29612.000    24276.000
    6.0430    20390.000    18190.000    15754.000    14465.000    13325.000
    6.0974    12418.000    11801.000    11573.000    10966.000    10746.000
    6.1517    10496.000    10306.000    10006.000     9812.000     9399.000
    6.2060     9396.000     8921.000     8783.000     8444.000     8464.000
    6.2604     8108.000     8064.000     7763.000     7601.000     7290.000
    6.3147     7248.000     7183.000     7135.000     6885.000     6935.000
    6.3690     6541.000     6600.000     6457.000     6520.000     6253.000
    6.4234     6334.000     6060.000     6278.000     5899.000     6059.000
    6.4777     5813.000     5892.000     5766.000     5780.000     5497.000
    6.5320     5669.000     5588.000     5523.000     5372.000     5478.000
    6.5864     5479.000     5336.000     5282.000     5283.000     5126.000
    6.6407     5257.000     5047.000     5121.000     4989.000     5042.000
    6.6950     4876.000     5001.000     4801.000     5019.000     4813.000
    6.7494     4940.000     4616.000     4764.000     4787.000     4836.000
    6.8037     4485.000     4868.000     4420.000     4667.000     4501.000
    6.8580     4656.000     4436.000     4394.000     4318.000     4463.000
    6.9124     4288.000     4417.000     4121.000     4179.000     4105.000
    6.9667     4127.000     4091.000     4174.000     3999.000     3985.000
    7.0210     3957.000     4002.000     3819.000     3855.000     3778.000
    7.0753     3873.000     3709.000     3791.000     3682.000     3816.000
    7.1297     3666.000     3823.000     3657.000     3641.000     3673.000
    7.1840     3686.000     3385.000     3609.000     3526.000     3497.000
    7.2383     3419.000     3457.000     3364.000     3479.000     3318.000
    7.2927     3454.000     3397.000     3342.000     3379.000     3338.000
    7.3470     3333.000     3290.000     3259.000     3294.000     3174.000
    7.4013     3176.000     3091.000     3193.000     3147.000     3172.000
    7.4557     3003.000     3061.000     3004.000     3130.000     2894.000
    7.5100     3008.000     2934.000     3036.000     2932.000     2860.000
    7.5643     2784.000     2886.000     2877.000     2800.000     2753.000
    7.6187     2924.000     2719.000     2790.000     2737.000     2792.000
    7.6730     2643.000     2814.000     2759.000     2678.000     2753.000
    7.7273     2740.000     2683.000     2751.000     2691.000     2776.000
    7.7817     2711.000     2734.000     2672.000     2789.000     2728.000
    7.8360     2756.000     2574.000     2742.000     2574.000     2709.000
    7.8903     2660.000     2718.000     2492.000     2671.000     2589.000
    7.9447     2741.000     2690.000     2739.000     2748.000     2745.000
    7.9990     2785.000     2819.000     2692.000     2737.000     2748.000
    8.0533     2720.000     2753.000     2804.000     2747.000     2797.000
    8.1077     2652.000     2707.000     2585.000     2609.000     2559.000
    8.1620     2613.000     2505.000     2589.000     2451.000     2547.000
    8.2163     2480.000     2545.000     2395.000     2531.000     2506.000
    8.2707     2521.000     2515.000     2620.000     2617.000     2631.000
    8.3250     2609.000     2695.000     2736.000     2872.000     2802.000
    8.3793     2849.000     2783.000     2881.000     2933.000     3100.000
    8.4337     3030.000     3138.000     3068.000     3094.000     3147.000
    8.4880     3397.000     3269.000     3317.000     3316.000     3215.000
    8.5423     3159.000     3206.000     2997.000     3091.000     3040.000
    8.5966     3092.000     3018.000     2909.000     2768.000     2724.000
    8.6510     2690.000     2618.000     2396.000     2494.000     2314.000
    8.7053     2417.000     2348.000     2360.000     2405.000     2478.000
    8.7596     2318.000     2456.000     2407.000     2411.000     2334.000
    8.8140     2411.000     2391.000     2453.000     2434.000     2492.000
    8.8683     2433.000     2478.000     2417.000     2555.000     2521.000
    8.9226     2638.000     2591.000     2688.000     2765.000     2819.000
    8.9770     2879.000     2991.000     2965.000     3046.000     3017.000
    9.0313     3104.000     3179.000     3322.000     3312.000     3652.000
    9.0856     3448.000     3681.000     3659.000     3961.000     3974.000
    9.1400     4107.000     4081.000     4371.000     4273.000     4483.000
    9.1943     4457.000     4659.000     4699.000     4920.000     4934.000
    9.2486     5006.000     5086.000     5009.000     5140.000     5172.000
    9.3030     5118.000     5256.000     5072.000     5188.000     5224.000
    9.3573     5067.000     4981.000     5035.000     4684.000     4791.000
    9.4116     4650.000     4542.000     4417.000     4434.000     4355.000
    9.4660     4280.000     4267.000     4274.000     4144.000     4172.000
    9.5203     4166.000     4318.000     4300.000     4623.000     4597.000
    9.5746     4754.000     4967.000     5195.000     5401.000     5662.000
    9.6290     5493.000     6058.000     5835.000     6176.000     6363.000
    9.6833     6494.000     6477.000     6768.000     6547.000     6737.000
    9.7376     6494.000     6534.000     6336.000     6238.000     5781.000
    9.7920     6019.000     5551.000     5713.000     5373.000     5446.000
    9.8463     5315.000     5433.000     5524.000     5591.000     5695.000
    9.9006     6293.000     6272.000     6779.000     6643.000     7037.000
    9.9550     7198.000     7490.000     7244.000     7677.000     7738.000
   10.0093     8155.000     8111.000     8305.000     7937.000     8205.000
   10.0636     7598.000     7257.000     6697.000     6478.000     5679.000
   10.1180     5334.000     4843.000     4501.000     4101.000     3872.000
   10.1723     3481.000     3315.000     2957.000     2928.000     2727.000
   10.2266     2672.000     2597.000     2557.000     2429.000     2524.000
   10.2809     2520.000     2458.000     2631.000     2588.000     2454.000
   10.3353     2464.000     2486.000     2573.000     2508.000     2515.000
   10.3896     2414.000     2503.000     2450.000     2478.000     2420.000
   10.4439     2401.000     2236.000     2462.000     2188.000     2413.000
   10.4983     2346.000     2337.000     2344.000     2263.000     2376.000
   10.5526     2333.000     2365.000     2347.000     2339.000     2360.000
   10.6069     2377.000     2347.000     2352.000     2432.000     2446.000
   10.6613     2520.000     2468.000     2550.000     2450.000     2554.000
   10.7156     2444.000     2526.000     2442.000     2542.000     2388.000
   10.7699     2656.000     2498.000     2714.000     2609.000     2700.000
   10.8243     2677.000     2677.000     2723.000     2738.000     2692.000
   10.8786     2793.000     2780.000     2812.000     2763.000     2848.000
   10.9329     2712.000     2767.000     2646.000     2647.000     2771.000
   10.9873     2757.000     2588.000     2764.000     2575.000     2677.000
   11.0416     2585.000     2620.000     2613.000     2780.000     2584.000
   11.0959     2685.000     2747.000     2682.000     2634.000     2870.000
   11.1503     2783.000     2933.000     2964.000     2985.000     3029.000
   11.2046     3071.000     2957.000     3042.000     3137.000     3132.000
   11.2589     3225.000     3408.000     3354.000     3525.000     3630.000
   11.3133     3725.000     3665.000     3788.000     4113.000     4288.000
   11.3676     4478.000     4654.000     4754.000     5398.000     5595.000
   11.4219     6076.000     6549.000     7124.000     7469.000     8465.000
   11.4763     8969.000    10428.000    11812.000    14252.000    16082.000
   11.5306    18389.000    19717.000    20757.000    20730.000    20279.000
   11.5849    19222.000    18000.000    17097.000    16644.000    16179.000
   11.6393    16460.000    16846.000    18008.000    19346.000    20859.000
   11.6936    23234.000    25691.000    28133.000    31606.000    34866.000
   11.7479    37417.000    40792.000    42767.000    45322.000    46305.000
   11.8022    47989.000    48006.000    46454.000    43430.000    37878.000
   11.8566    31740.000    25274.000    19602.000    14916.000    11426.000
   11.9109     9041.000     7574.000     6263.000     5826.000     5396.000
   11.9652     5201.000     4924.000     5049.000     4816.000     4802.000
   12.0196     4884.000     4936.000     5113.000     5230.000     5031.000
   12.0739     5291.000     5317.000     5578.000     5503.000     5758.000
   12.1282     5843.000     5984.000     5992.000     6258.000     6335.000
   12.1826     6772.000     6846.000     7404.000     7622.000     8365.000
   12.2369     8649.000     9481.000     9843.000    10678.000    11210.000
   12.2912    11792.000    12485.000    12659.000    12941.000    13185.000
   12.3456    13603.000    13739.000    13431.000    13362.000    13198.000
   12.3999    13221.000    12687.000    12529.000    12341.000    12014.000
   12.4542    11349.000    11185.000    10654.000    10353.000     9837.000
   12.5086     9513.000     8939.000     8473.000     7724.000     7155.000
   12.5629     6369.000     5766.000     5251.000     4683.000     4354.000
   12.6172     3876.000     3572.000     3513.000     3354.000     3349.000
   12.6716     3109.000     3168.000     3081.000     3272.000     3096.000
   12.7259     3244.000     3123.000     3227.000     3044.000     3149.000
   12.7802     3201.000     3336.000     3288.000     3192.000     3181.000
   12.8346     3362.000     3332.000     3478.000     3458.000     3648.000
   12.8889     3676.000     3722.000     3532.000     3819.000     3802.000
   12.9432     4032.000     3823.000     4133.000     3990.000     4122.000
   12.9976     3959.000     4227.000     4100.000     4130.000     4235.000
   13.0519     4387.000     4241.000     4237.000     4345.000     4272.000
   13.1062     4145.000     4069.000     3951.000     4018.000     3684.000
   13.1606     3790.000     3427.000     3689.000     3275.000     3284.000
   13.2149     3097.000     3027.000     2979.000     3103.000     2893.000
   13.2692     2877.000     2806.000     2865.000     2756.000     2788.000
   13.3236     2717.000     2871.000     2734.000     2845.000     2748.000
   13.3779     2781.000     2712.000     2859.000     2728.000     2938.000
   13.4322     2821.000     2910.000     2901.000     2965.000     2923.000
   13.4865     2967.000     2827.000     3036.000     3000.000     3008.000
   13.5409     3031.000     3144.000     2966.000     3121.000     3306.000
   13.5952     3313.000     3372.000     3497.000     3418.000     3651.000
   13.6495     3757.000     3883.000     3755.000     3974.000     3871.000
   13.7039     4139.000     4057.000     4105.000     4382.000     4558.000
   13.7582     4573.000     4836.000     4870.000     4911.000     4813.000
   13.8125     5017.000     4620.000     4759.000     4563.000     4562.000
   13.8669     4426.000     4649.000     4428.000     4730.000     4800.000
   13.9212     5002.000     5159.000     5416.000     5533.000     5835.000
   13.9755     5921.000     6127.000     6160.000     6469.000     6336.000
   14.0299     6751.000     6565.000     6732.000     6745.000     6855.000
   14.0842     6665.000     6992.000     7041.000     6936.000     7063.000
   14.1385     6943.000     6986.000     6935.000     6802.000     6745.000
   14.1929     6340.000     6163.000     6012.000     5699.000     5411.000
   14.2472     5121.000     4786.000     4755.000     4291.000     4407.000
   14.3015     4034.000     3967.000     3923.000     3606.000     3527.000
   14.3559     3469.000     3419.000     3233.000     3055.000     3106.000
   14.4102     2829.000     3013.000     2783.000     2857.000     2849.000
   14.4645     2932.000     2736.000     2804.000     2806.000     2837.000
   14.5189     2844.000     2972.000     2881.000     3006.000     2824.000
   14.5732     2993.000     2899.000     3069.000     2971.000     3045.000
   14.6275     2985.000     3130.000     3038.000     3109.000     3045.000
   14.6819     3093.000     3144.000     3307.000     3114.000     3274.000
   14.7362     3108.000     3266.000     3099.000     3155.000     3257.000
   14.7905     3177.000     3065.000     3192.000     3060.000     3167.000
   14.8449     3061.000     3171.000     3095.000     3052.000     3020.000
   14.8992     3231.000     3145.000     3066.000     3054.000     3085.000
   14.9535     2992.000     3110.000     3001.000     3078.000     3044.000
   15.0078     3217.000     3211.000     3245.000     3080.000     3146.000
   15.0622     3251.000     3227.000     3146.000     3265.000     3259.000
   15.1165     3397.000     3263.000     3420.000     3349.000     3513.000
   15.1708     3428.000     3518.000     3683.000     3669.000     3811.000
   15.2252     3870.000     3836.000     4040.000     3891.000     4183.000
   15.2795     4206.000     4281.000     4247.000     4470.000     4323.000
   15.3338     4431.000     4558.000     4498.000     4302.000     4395.000
   15.3882     4211.000     4378.000     4186.000     4159.000     4101.000
   15.4425     4056.000     3864.000     3975.000     3847.000     4032.000
   15.4968     3865.000     3814.000     3698.000     3910.000     3620.000
   15.5512     3690.000     3768.000     3850.000     3747.000     3887.000
   15.6055     3864.000     3887.000     3834.000     3845.000     3757.000
   15.6598     3692.000     3716.000     3842.000     3695.000     3779.000
   15.7142     3665.000     3681.000     3816.000     3792.000     3504.000
   15.7685     3639.000     3512.000     3444.000     3338.000     3386.000
   15.8228     3324.000     3320.000     3254.000     3174.000     3220.000
   15.8772     3198.000     3125.000     3196.000     3126.000     3104.000
   15.9315     3128.000     3190.000     3133.000     3336.000     3257.000
   15.9858     3281.000     3380.000     3388.000     3313.000     3470.000
   16.0402     3430.000     3526.000     3556.000     3523.000     3621.000
   16.0945     3731.000     3678.000     3626.000     3580.000     3660.000
   16.1488     3649.000     3753.000     3610.000     3701.000     3509.000
   16.2032     3569.000     3490.000     3415.000     3506.000     3423.000
   16.2575     3275.000     3344.000     3193.000     3219.000     3125.000
   16.3118     3334.000     3186.000     3276.000     3154.000     3367.000
   16.3662     3196.000     3280.000     3354.000     3309.000     3272.000
   16.4205     3460.000     3321.000     3460.000     3486.000     3427.000
   16.4748     3447.000     3666.000     3569.000     3609.000     3649.000
   16.5292     3752.000     3952.000     4058.000     3909.000     4150.000
   16.5835     4224.000     4351.000     4287.000     4573.000     4519.000
   16.6378     4758.000     4684.000     4893.000     4797.000     4920.000
   16.6921     4819.000     5140.000     5138.000     5304.000     5254.000
   16.7465     5229.000     5411.000     5538.000     5573.000     5649.000
   16.8008     5654.000     5987.000     5873.000     6188.000     6229.000
   16.8551     6562.000     6787.000     7162.000     7270.000     7871.000
   16.9095     8103.000     8431.000     8808.000     9023.000     9462.000
   16.9638     9868.000    10077.000    10302.000    10406.000    10619.000
   17.0181    10505.000    10979.000    10783.000    10815.000    10382.000
   17.0725    10560.000    10301.000    10186.000     9933.000    10027.000
   17.1268     9510.000     9756.000     9299.000     9072.000     8947.000
   17.1811     8788.000     8438.000     8608.000     8416.000     8380.000
   17.2355     8049.000     8029.000     7615.000     7630.000     7291.000
   17.2898     7428.000     7165.000     7380.000     7124.000     7199.000
   17.3441     7072.000     7472.000     7604.000     7866.000     8099.000
   17.3985     8597.000     8793.000     8993.000     9342.000     9859.000
   17.4528    10369.000    10725.000    11105.000    11970.000    11885.000
   17.5071    12626.000    12705.000    12730.000    12751.000    12751.000
   17.5615    12606.000    12404.000    12053.000    11831.000    11440.000
   17.6158    11165.000    11141.000    10789.000    10393.000    10387.000
   17.6701     9960.000     9813.000     9457.000     9483.000     9169.000
   17.7245     9414.000     9364.000     9293.000     9142.000     9356.000
   17.7788     9343.000     9580.000     9511.000     9735.000     9758.000
   17.8331    10046.000    10247.000    10467.000    10675.000    10969.000
   17.8875    11188.000    11695.000    12006.000    12312.000    12200.000
   17.9418    12672.000    12615.000    12898.000    12770.000    13070.000
   17.9961    13240.000    13771.000    14076.000    14663.000    15365.000
   18.0505    16554.000    17623.000    18644.000    19533.000    20880.000
   18.1048    22188.000    23218.000    24490.000    26113.000    27392.000
   18.1591    29070.000    30407.000    31752.000    33441.000    34020.000
   18.2134    34580.000    34007.000    33727.000    32440.000    31615.000
   18.2678    29903.000    28440.000    27363.000    25551.000    24562.000
   18.3221    22430.000    21581.000    19828.000    18695.000    17208.000
   18.3764    15897.000    14466.000    13468.000    11994.000    11104.000
   18.4308    10116.000     9336.000     8627.000     8171.000     7581.000
   18.4851     7411.000     6978.000     7070.000     6972.000     6989.000
   18.5394     6934.000     7184.000     7032.000     7195.000     7229.000
   18.5938     7505.000     7559.000     7831.000     7800.000     8010.000
   18.6481     8310.000     8514.000     8672.000     8995.000     9204.000
   18.7024     9388.000     9669.000    10360.000    10672.000    11117.000
   18.7568    11708.000    12284.000    12957.000    13450.000    14219.000
   18.8111    14561.000    14956.000    15185.000    15466.000    15681.000
   18.8654    15704.000    15618.000    15518.000    15549.000    15331.000
   18.9198    15622.000    15218.000    15024.000    14816.000    14710.000
   18.9741    14248.000    14415.000    13692.000    13627.000    12922.000
   19.0284    13027.000    12385.000    12220.000    11727.000    11937.000
   19.0828    11729.000    12153.000    12243.000    12480.000    12673.000
   19.1371    13038.000    13230.000    13602.000    13478.000    14270.000
   19.1914    14511.000    14653.000    14779.000    15654.000    15470.000
   19.2458    15801.000    16194.000    16683.000    16781.000    17080.000
   19.3001    17146.000    17475.000    17350.000    17771.000    17820.000
   19.3544    18031.000    18279.000    18730.000    18510.000    18326.000
   19.4088    17833.000    18034.000    17992.000    17659.000    17109.000
   19.4631    17117.000    16237.000    16314.000    15468.000    15373.000
   19.5174    14831.000    14174.000    13827.000    13525.000    12961.000
   19.5718    13103.000    12481.000    12451.000    12172.000    12156.000
   19.6261    12203.000    12421.000    12560.000    13391.000    13867.000
   19.6804    15357.000    16618.000    19171.000    21220.000    23840.000
   19.7348    25718.000    27748.000    28618.000    29160.000    29506.000
   19.7891    27509.000    27177.000    25312.000    24470.000    22878.000
   19.8434    22083.000    21193.000    19212.000    19192.000    17128.000
   19.8977    17119.000    14692.000    14064.000    12404.000    11690.000
   19.9521    10389.000     9842.000     8971.000     8279.000     7804.000
   20.0064     7696.000     7327.000     7168.000     6971.000     7138.000
   20.0607     6693.000     6648.000     6548.000     6313.000     6105.000
   20.1151     6268.000     5957.000     5888.000     5585.000     5757.000
   20.1694     5522.000     5569.000     5356.000     5368.000     5191.000
   20.2237     5218.000     4995.000     5204.000     5063.000     5062.000
   20.2781     5001.000     4989.000     4901.000     4959.000     4874.000
   20.3324     5038.000     5023.000     5252.000     5238.000     5393.000
   20.3867     5392.000     5612.000     5612.000     6180.000     6029.000
   20.4411     6536.000     6794.000     6953.000     7135.000     7702.000
   20.4954     7831.000     8524.000     8737.000     9308.000     9510.000
   20.5497     9893.000     9969.000    10642.000    10575.000    11166.000
   20.6041    11318.000    11527.000    11628.000    12173.000    11904.000
   20.6584    12091.000    11915.000    12024.000    11420.000    11728.000
   20.7127    11447.000    11280.000    10697.000    11059.000    10708.000
   20.7671    11068.000    10841.000    10796.000    10766.000    10747.000
   20.8214    10676.000    10710.000    10244.000    10694.000    10579.000
   20.8757    10787.000    10592.000    11001.000    11101.000    11505.000
   20.9301    11485.000    12034.000    11962.000    12283.000    12593.000
   20.9844    12685.000    12707.000    12738.000    12838.000    12583.000
   21.0387    12578.000    12768.000    12408.000    12377.000    11963.000
   21.0931    12249.000    11767.000    11995.000    11448.000    11473.000
   21.1474    11288.000    11232.000    11002.000    10902.000    10705.000
   21.2017    10978.000    10472.000    10066.000    10031.000     9768.000
   21.2561     9506.000     9369.000     8908.000     8759.000     8239.000
   21.3104     8262.000     8020.000     7888.000     7702.000     7638.000
   21.3647     7284.000     7440.000     7434.000     7562.000     7525.000
   21.4190     7801.000     7781.000     8127.000     8109.000     8594.000
   21.4734     8540.000     8796.000     8505.000     8848.000     8703.000
   21.5277     8856.000     8970.000     8907.000     8751.000     8744.000
   21.5820     8705.000     8726.000     8609.000     8499.000     8244.000
   21.6364     8237.000     7964.000     7899.000     7637.000     7573.000
   21.6907     7370.000     7372.000     7046.000     6979.000     6995.000
   21.7450     6981.000     6905.000     7102.000     6935.000     7288.000
   21.7994     7427.000     7857.000     8159.000     8237.000     8849.000
   21.8537     9363.000     9691.000    10234.000    10519.000    11229.000
   21.9080    11523.000    12031.000    11848.000    11957.000    11797.000
   21.9624    11767.000    11168.000    11342.000    10644.000    10561.000
   22.0167    10294.000     9858.000     9590.000     9334.000     9005.000
   22.0710     8215.000     7800.000     7425.000     6906.000     6584.000
   22.1254     6125.000     5906.000     5524.000     5309.000     5037.000
   22.1797     4912.000     4711.000     4581.000     4474.000     4558.000
   22.2340     4253.000     4222.000     4290.000     4278.000     4270.000
   22.2884     4181.000     4292.000     4267.000     4262.000     4328.000
   22.3427     4220.000     4321.000     4235.000     4311.000     4335.000
   22.3970     4268.000     4227.000     4327.000     4154.000     4186.000
   22.4514     4151.000     4278.000     4242.000     4308.000     4214.000
   22.5057     4439.000     4435.000     4492.000     4409.000     4573.000
   22.5600     4711.000     4688.000     4867.000     4953.000     5064.000
   22.6144     5052.000     5151.000     5263.000     5433.000     5646.000
   22.6687     5698.000     5789.000     5792.000     6028.000     5887.000
   22.7230     6031.000     6000.000     6085.000     6174.000     6054.000
   22.7774     5977.000     5925.000     5874.000     6215.000     5915.000
   22.8317     6063.000     6079.000     6039.000     6217.000     6241.000
   22.8860     6408.000     6460.000     6282.000     6529.000     6325.000
   22.9404     6521.000     6334.000     6654.000     6193.000     6328.000
   22.9947     6356.000     6500.000     6595.000     6641.000     6659.000
   23.0490     6724.000     6556.000     6683.000     6765.000     6916.000
   23.1033     6430.000     6343.000     6256.000     6306.000     6053.000
   23.1577     5826.000     5741.000     5891.000     5506.000     5553.000
   23.2120     5433.000     5379.000     5437.000     5566.000     5592.000
   23.2663     5876.000     5834.000     5924.000     5828.000     6232.000
   23.3207     6237.000     6427.000     6475.000     6845.000     6917.000
   23.3750     7230.000     7141.000     7365.000     7557.000     7661.000
   23.4293     7496.000     7750.000     7583.000     7890.000     7624.000
   23.4837     7906.000     7702.000     7971.000     7870.000     7980.000
   23.5380     7812.000     7933.000     7837.000     7802.000     7515.000
   23.5923     7711.000     7421.000     7385.000     7161.000     7161.000
   23.6467     7012.000     6814.000     6508.000     6699.000     6276.000
   23.7010     6383.000     6211.000     6045.000     6014.000     5931.000
   23.7553     5872.000     5845.000     5532.000     5492.000     5228.000
   23.8097     5285.000     4929.000     4828.000     4752.000     4488.000
   23.8640     4493.000     4265.000     4328.000     4297.000     4213.000
   23.9183     4065.000     4078.000     4121.000     3971.000     4062.000
   23.9727     3990.000     4132.000     3969.000     3966.000     4039.000
   24.0270     3933.000     3956.000     4015.000     4065.000     4183.000
   24.0813     4187.000     4124.000     4220.000     4209.000     4342.000
   24.1357     4312.000     4551.000     4420.000     4565.000     4593.000
   24.1900     4730.000     4875.000     4818.000     5047.000     4913.000
   24.2443     5100.000     5185.000     5299.000     5342.000     5548.000
   24.2987     5478.000     5576.000     5526.000     5657.000     5760.000
   24.3530     5770.000     5681.000     5688.000     5629.000     5786.000
   24.4073     5568.000     5826.000     5727.000     5751.000     5686.000
   24.4617     5709.000     5539.000     5516.000     5400.000     5235.000
   24.5160     5227.000     5054.000     4904.000     4646.000     4570.000
   24.5703     4508.000     4363.000     4165.000     4426.000     4261.000
   24.6246     4261.000     4222.000     4150.000     4162.000     4073.000
   24.6790     4259.000     4231.000     4431.000     4452.000     4408.000
   24.7333     4712.000     4752.000     4778.000     5021.000     5057.000
   24.7876     5229.000     5494.000     5563.000     5720.000     5829.000
   24.8420     5914.000     6008.000     6087.000     5883.000     5972.000
   24.8963     5922.000     5713.000     5899.000     5822.000     5882.000
   24.9506     5869.000     5806.000     5776.000     5879.000     5724.000
   25.0050     5939.000     5848.000     5942.000     6094.000     5926.000
   25.0593     5965.000     6158.000     6181.000     6218.000     5859.000
   25.1136     5848.000     5551.000     5503.000     5383.000     5376.000
   25.1680     5041.000     4911.000     4736.000     4772.000     4686.000
   25.2223     4739.000     4461.000     4604.000     4590.000     4641.000
   25.2766     4598.000     4770.000     4823.000     4890.000     4878.000
   25.3310     5042.000     5039.000     5204.000     5282.000     5336.000
   25.3853     5328.000     5572.000     5267.000     5398.000     5424.000
   25.4396     5398.000     5300.000     5159.000     5061.000     5123.000
   25.4940     4934.000     4937.000     4881.000     4853.000     4882.000
   25.5483     4799.000     4647.000     4632.000     4508.000     4572.000
   25.6026     4455.000     4334.000     4367.000     4209.000     4282.000
   25.6570     4052.000     3975.000     3980.000     3720.000     3676.000
   25.7113     3555.000     3553.000     3376.000     3431.000     3316.000
   25.7656     3256.000     3110.000     3127.000     3117.000     3098.000
   25.8200     3177.000     3028.000     3009.000     3105.000     3031.000
   25.8743     3018.000     3049.000     3008.000     3008.000     3015.000
   25.9286     3098.000     3047.000     3085.000     3076.000     3003.000
   25.9830     3000.000     3101.000     3083.000     3175.000     3011.000
   26.0373     3137.000     3045.000     3197.000     3239.000     3133.000
   26.0916     3229.000     3218.000     3236.000     3157.000     3388.000
   26.1460     3388.000     3442.000     3505.000     3562.000     3610.000
   26.2003     3783.000     3711.000     3962.000     4088.000     4171.000
   26.2546     4332.000     4430.000     4597.000     4643.000     4881.000
   26.3089     5002.000     5215.000     5298.000     5250.000     5559.000
   26.3633     5555.000     5797.000     5720.000     5818.000     5759.000
   26.4176     6168.000     5963.000     6124.000     5933.000     6037.000
   26.4719     6181.000     5977.000     5806.000     5983.000     5748.000
   26.5263     5635.000     5476.000     5602.000     5312.000     5214.000
   26.5806     5076.000     5063.000     4821.000     4683.000     4626.000
   26.6349     4568.000     4316.000     4148.000     4119.000     3967.000
   26.6893     3910.000     3936.000     4028.000     4030.000     3935.000
   26.7436     4096.000     3973.000     4166.000     4264.000     4391.000
   26.7979     4312.000     4664.000     4650.000     4733.000     4649.000
   26.8523     4757.000     4861.000     4671.000     4804.000     4945.000
   26.9066     4755.000     4848.000     4852.000     4865.000     4758.000
   26.9609     4714.000     4684.000     4664.000     4558.000     4523.000
   27.0153     4390.000     4435.000     4203.000     4034.000     3883.000
   27.0696     3839.000     3606.000     3611.000     3639.000     3430.000
   27.1239     3406.000     3260.000     3183.000     3230.000     3097.000
   27.1783     2998.000     3118.000     2911.000     2941.000     2924.000
   27.2326     2960.000     2929.000     2910.000     2905.000     2913.000
   27.2869     2928.000     2957.000     2923.000     2873.000     3012.000
   27.3413     2946.000     2942.000     2950.000     3009.000     2889.000
   27.3956     2996.000     2969.000     3085.000     2905.000     2959.000
   27.4499     2956.000     2919.000     3009.000     2928.000     2839.000
   27.5043     2714.000     2775.000     2724.000     2779.000     2846.000
   27.5586     2769.000     2685.000     2623.000     2640.000     2713.000
   27.6129     2775.000     2717.000     2747.000     2611.000     2557.000
   27.6673     2626.000     2712.000     2793.000     2671.000     2717.000
   27.7216     2702.000     2731.000     2699.000     2698.000     2704.000
   27.7759     2784.000     2753.000     2784.000     2733.000     2879.000
   27.8302     2866.000     2870.000     2741.000     2824.000     2850.000
   27.8846     2928.000     2831.000     2805.000     2783.000     2932.000
   27.9389     2913.000     2908.000     2829.000     2867.000     2835.000
   27.9932     2914.000     2905.000     2878.000     3030.000     2942.000
   28.0476     2915.000     2936.000     2989.000     2944.000     3040.000
   28.1019     3066.000     2982.000     3092.000     3174.000     3172.000
   28.1562     3218.000     3206.000     3269.000     3232.000     3305.000
   28.2106     3462.000     3483.000     3423.000     3591.000     3645.000
   28.2649     3766.000     3727.000     3820.000     3696.000     3671.000
   28.3192     3745.000     3798.000     3685.000     3660.000     3661.000
   28.3736     3627.000     3517.000     3567.000     3572.000     3702.000
   28.4279     3591.000     3712.000     3744.000     3878.000     4001.000
   28.4822     4084.000     4050.000     4017.000     4006.000     3963.000
   28.5366     3943.000     3873.000     3741.000     3810.000     3730.000
   28.5909     3653.000     3728.000     3586.000     3722.000     3601.000
   28.6452     3716.000     3495.000     3583.000     3541.000     3522.000
   28.6996     3533.000     3495.000     3383.000     3327.000     3202.000
   28.7539     3229.000     3149.000     3100.000     3058.000     2973.000
   28.8082     2955.000     2929.000     2830.000     2831.000     2840.000
   28.8626     2796.000     2868.000     2869.000     2857.000     2801.000
   28.9169     2777.000     2783.000     2844.000     2882.000     2939.000
   28.9712     2912.000     2739.000     2912.000     2925.000     2945.000
   29.0256     2913.000     2979.000     2936.000     2834.000     2940.000
   29.0799     2959.000     2869.000     2891.000     2842.000     2942.000
   29.1342     2831.000     2857.000     2880.000     2929.000     2854.000
   29.1886     2856.000     2834.000     2755.000     2783.000     2833.000
   29.2429     2872.000     2990.000     2783.000     2980.000     2875.000
   29.2972     2842.000     2860.000     2985.000     2918.000     2986.000
   29.3516     2929.000     3057.000     3037.000     3019.000     2955.000
   29.4059     2996.000     3121.000     3052.000     3087.000     3006.000
   29.4602     3083.000     3005.000     3004.000     2997.000     3039.000
   29.5145     2966.000     3065.000     3034.000     2893.000     3046.000
   29.5689     2966.000     3067.000     3048.000     3136.000     2982.000
   29.6232     3020.000     3027.000     3087.000     3138.000     3104.000
   29.6775     3244.000     3201.000     3320.000     3294.000     3384.000
   29.7319     3371.000     3392.000     3549.000     3376.000     3394.000
   29.7862     3402.000     3498.000     3602.000     3521.000     3580.000
   29.8405     3580.000     3616.000     3678.000     3509.000     3514.000
   29.8949     3442.000     3366.000     3373.000     3284.000     3347.000
   29.9492     3357.000     3251.000     3255.000     3177.000     3043.000
   30.0035     3016.000     2964.000     2901.000     2777.000     2862.000
   30.0579     2797.000     2789.000     2779.000     2761.000     2791.000
   30.1122     2821.000     2985.000     2935.000     2903.000     3067.000
   30.1665     3005.000     2985.000     3154.000     3018.000     3151.000
   30.2209     3111.000     3157.000     3181.000     3198.000     3087.000
   30.2752     3240.000     3033.000     3082.000     3174.000     2991.000
   30.3295     3069.000     3157.000     2963.000     2943.000     2944.000
   30.3839     3015.000     3002.000     3148.000     3129.000     3118.000
   30.4382     3338.000     3342.000     3363.000     3505.000     3477.000
   30.4925     3555.000     3730.000     3661.000     3617.000     3826.000
   30.5469     3685.000     3798.000     3761.000     3957.000     3770.000
   30.6012     3854.000     3896.000     3832.000     4050.000     3910.000
   30.6555     3891.000     3891.000     3998.000     4045.000     3816.000
   30.7099     3814.000     3717.000     3522.000     3720.000     3533.000
   30.7642     3463.000     3479.000     3405.000     3422.000     3468.000
   30.8185     3441.000     3543.000     3391.000     3452.000     3427.000
   30.8729     3522.000     3647.000     3682.000     3706.000     3766.000
   30.9272     3599.000     3849.000     3614.000     3450.000     3292.000
   30.9815     3340.000     3196.000     3176.000     3104.000     2970.000
   31.0358     3058.000     2793.000     2875.000     2815.000     2730.000
   31.0902     2620.000     2683.000     2652.000     2716.000     2606.000
   31.1445     2626.000     2535.000     2659.000     2534.000     2578.000
   31.1988     2399.000     2557.000     2490.000     2508.000     2417.000
   31.2532     2445.000     2407.000     2447.000     2328.000     2351.000
   31.3075     2338.000     2316.000     2305.000     2310.000     2316.000
   31.3618     2376.000     2289.000     2288.000     2230.000     2350.000
   31.4162     2253.000     2264.000     2313.000     2350.000     2305.000
   31.4705     2436.000     2350.000     2306.000     2354.000     2338.000
   31.5248     2398.000     2378.000     2297.000     2230.000     2388.000
   31.5792     2334.000     2271.000     2399.000     2263.000     2273.000
   31.6335     2233.000     2216.000     2241.000     2311.000     2268.000
   31.6878     2256.000     2234.000     2195.000     2220.000     2241.000
   31.7422     2263.000     2235.000     2261.000     2204.000     2188.000
   31.7965     2362.000     2264.000     2373.000     2304.000     2338.000
   31.8508     2349.000     2238.000     2304.000     2367.000     2328.000
   31.9052     2219.000     2275.000     2359.000     2281.000     2259.000
   31.9595     2219.000     2337.000     2252.000     2265.000     2300.000
   32.0138     2371.000     2328.000     2424.000     2343.000     2540.000
   32.0682     2479.000     2492.000     2595.000     2643.000     2532.000
   32.1225     2656.000     2599.000     2727.000     2740.000     2758.000
   32.1768     2739.000     2766.000     2826.000     2862.000     2774.000
   32.2312     2855.000     2844.000     2823.000     2851.000     2830.000
   32.2855     2878.000     2852.000     2798.000     2878.000     2634.000
   32.3398     2807.000     2712.000     2757.000     2736.000     2753.000
   32.3942     2746.000     2761.000     2612.000     2678.000     2620.000
   32.4485     2696.000     2686.000     2702.000     2507.000     2652.000
   32.5028     2528.000     2644.000     2589.000     2660.000     2554.000
   32.5572     2621.000     2637.000     2612.000     2625.000     2639.000
   32.6115     2553.000     2714.000     2621.000     2659.000     2715.000
   32.6658     2724.000     2694.000     2663.000     2730.000     2737.000
   32.7201     2677.000     2738.000     2762.000     2726.000     2740.000
   32.7745     2833.000     2739.000     2729.000     2877.000     2741.000
   32.8288     2887.000     2905.000     2848.000     2870.000     2817.000
   32.8831     2916.000     2771.000     2773.000     2852.000     2887.000
   32.9375     2808.000     2858.000     2820.000     2953.000     2919.000
   32.9918     2941.000     2845.000     2819.000     2871.000     2844.000
   33.0461     2829.000     2913.000     2810.000     2890.000     2765.000
   33.1005     2800.000     2844.000     2852.000     2764.000     2788.000
   33.1548     2751.000     2773.000     2654.000     2762.000     2641.000
   33.2091     2640.000     2615.000     2636.000     2459.000     2566.000
   33.2635     2551.000     2479.000     2448.000     2450.000     2322.000
   33.3178     2370.000     2361.000     2364.000     2423.000     2468.000
   33.3721     2343.000     2412.000     2364.000     2392.000     2403.000
   33.4265     2339.000     2373.000     2490.000     2416.000     2494.000
   33.4808     2505.000     2425.000     2390.000     2560.000     2530.000
   33.5351     2580.000     2453.000     2574.000     2602.000     2534.000
   33.5895     2600.000     2673.000     2687.000     2715.000     2664.000
   33.6438     2722.000     2636.000     2646.000     2682.000     2708.000
   33.6981     2698.000     2814.000     2644.000     2848.000     2757.000
   33.7525     3024.000     2941.000     3236.000     3134.000     3218.000
   33.8068     3242.000     3399.000     3500.000     3520.000     3612.000
   33.8611     3781.000     3928.000     4001.000     4132.000     4326.000
   33.9155     4372.000     4293.000     4319.000     4146.000     4139.000
   33.9698     4030.000     3867.000     3793.000     3813.000     3859.000
   34.0241     3619.000     3717.000     3462.000     3389.000     3238.000
   34.0785     3233.000     3010.000     3076.000     2941.000     2989.000
   34.1328     2781.000     2777.000     2553.000     2817.000     2703.000
   34.1871     2709.000     2672.000     2704.000     2581.000     2674.000
   34.2414     2551.000     2628.000     2572.000     2641.000     2547.000
   34.2958     2625.000     2558.000     2656.000     2643.000     2602.000
   34.3501     2595.000     2703.000     2670.000     2730.000     2728.000
   34.4044     2783.000     2739.000     2851.000     2934.000     2844.000
   34.4588     2892.000     2844.000     2872.000     2955.000     2943.000
   34.5131     3040.000     2919.000     3009.000     2999.000     2982.000
   34.5674     2979.000     3037.000     3016.000     3143.000     3170.000
   34.6218     3230.000     3200.000     3282.000     3287.000     3352.000
   34.6761     3348.000     3539.000     3322.000     3412.000     3371.000
   34.7304     3403.000     3492.000     3379.000     3351.000     3436.000
   34.7848     3286.000     3403.000     3258.000     3200.000     3240.000
   34.8391     3158.000     3052.000     3193.000     2928.000     2967.000
   34.8934     2727.000     2841.000     2736.000     2872.000     2681.000
   34.9478     2664.000     2641.000     2641.000     2513.000     2496.000
   35.0021     2554.000     2539.000     2436.000     2438.000     2479.000
   35.0564     2543.000     2561.000     2644.000     2525.000     2608.000
   35.1108     2617.000     2515.000     2560.000     2623.000     2570.000
   35.1651     2509.000     2440.000     2492.000     2542.000     2508.000
   35.2194     2595.000     2581.000     2675.000     2559.000     2594.000
   35.2738     2787.000     2740.000     2878.000     2849.000     2817.000
   35.3281     2851.000     2841.000     2579.000     2873.000     2840.000
   35.3824     2835.000     2785.000     2945.000     2848.000     2941.000
   35.4368     2701.000     2824.000     2809.000     2883.000     2879.000
   35.4911     2926.000     2853.000     2861.000     2873.000     2970.000
   35.5454     3042.000     3081.000     3127.000     3217.000     3343.000
   35.5998     3356.000     3546.000     3752.000     3613.000     3696.000
   35.6541     3531.000     3678.000     3476.000     3551.000     3572.000
   35.7084     3544.000     3507.000     3662.000     3571.000     3707.000
   35.7627     3737.000     3699.000     3585.000     3683.000     3740.000
   35.8171     3907.000     3980.000     4043.000     4236.000     4426.000
   35.8714     4489.000     4534.000     4498.000     4471.000     4446.000
   35.9257     4433.000     4324.000     4337.000     4255.000     4105.000
   35.9801     3994.000     3918.000     3753.000     3736.000     3530.000
   36.0344     3487.000     3296.000     3267.000     3011.000     3054.000
   36.0887     2719.000     2720.000     2799.000     2690.000     2628.000
   36.1431     2672.000     2645.000     2601.000     2555.000     2461.000
   36.1974     2509.000     2619.000     2514.000     2617.000     2498.000
   36.2517     2573.000     2511.000     2617.000     2424.000     2639.000
   36.3061     2567.000     2555.000     2583.000     2634.000     2568.000
   36.3604     2576.000     2466.000     2587.000     2523.000     2613.000
   36.4147     2391.000     2544.000     2473.000     2650.000     2584.000
   36.4691     2721.000     2586.000     2587.000     2666.000     2633.000
   36.5234     2661.000     2660.000     2630.000     2683.000     2729.000
   36.5777     2620.000     2661.000     2744.000     2698.000     2554.000
   36.6321     2543.000     2637.000     2595.000     2580.000     2570.000
   36.6864     2737.000     2628.000     2637.000     2496.000     2575.000
   36.7407     2537.000     2525.000     2516.000     2501.000     2484.000
   36.7951     2508.000     2481.000     2488.000     2427.000     2570.000
   36.8494     2430.000     2515.000     2454.000     2525.000     2385.000
   36.9037     2468.000     2427.000     2441.000     2461.000     2424.000
   36.9581     2430.000     2421.000     2416.000     2417.000     2356.000
   37.0124     2407.000     2341.000     2416.000     2397.000     2391.000
   37.0667     2307.000     2400.000     2275.000     2413.000     2297.000
   37.1211     2285.000     2232.000     2376.000     2267.000     2289.000
   37.1754     2331.000     2402.000     2310.000     2361.000     2382.000
   37.2297     2389.000     2214.000     2347.000     2418.000     2459.000
   37.2841     2465.000     2454.000     2609.000     2611.000     2480.000
   37.3384     2729.000     2600.000     2643.000     2682.000     2659.000
   37.3927     2596.000     2710.000     2584.000     2707.000     2572.000
   37.4470     2604.000     2582.000     2672.000     2490.000     2642.000
   37.5014     2457.000     2483.000     2461.000     2619.000     2480.000
   37.5557     2560.000     2497.000     2483.000     2338.000     2495.000
   37.6100     2504.000     2518.000     2424.000     2649.000     2518.000
   37.6644     2612.000     2659.000     2741.000     2742.000     2765.000
   37.7187     2736.000     2784.000     2748.000     2892.000     2753.000
   37.7730     2947.000     2709.000     2851.000     2803.000     2874.000
   37.8274     2761.000     2877.000     2695.000     2766.000     2672.000
   37.8817     2874.000     2761.000     2766.000     2711.000     2741.000
   37.9360     2665.000     2637.000     2573.000     2590.000     2542.000
   37.9904     2663.000     2520.000     2578.000     2533.000     2721.000
   38.0447     2592.000     2514.000     2552.000     2644.000     2532.000
   38.0990     2687.000     2565.000     2679.000     2564.000     2565.000
   38.1534     2445.000     2670.000     2574.000     2627.000     2448.000
   38.2077     2521.000     2427.000     2481.000     2487.000     2399.000
   38.2620     2496.000     2441.000     2423.000     2573.000     2379.000
   38.3164     2403.000     2345.000     2464.000     2193.000     2367.000
   38.3707     2361.000     2317.000     2285.000     2295.000     2327.000
   38.4250     2348.000     2287.000     2383.000     2276.000     2409.000
   38.4794     2345.000     2339.000     2303.000     2379.000     2317.000
   38.5337     2339.000     2319.000     2390.000     2302.000     2369.000
   38.5880     2310.000     2369.000     2352.000     2461.000     2386.000
   38.6424     2427.000     2401.000     2471.000     2346.000     2487.000
   38.6967     2440.000     2654.000     2520.000     2620.000     2516.000
   38.7510     2615.000     2578.000     2491.000     2613.000     2710.000
   38.8054     2592.000     2664.000     2608.000     2677.000     2668.000
   38.8597     2622.000     2523.000     2610.000     2597.000     2515.000
   38.9140     2486.000     2627.000     2558.000     2591.000     2512.000
   38.9683     2427.000     2428.000     2468.000     2474.000     2590.000
   39.0227     2495.000     2548.000     2353.000     2563.000     2449.000
   39.0770     2532.000     2536.000     2437.000     2391.000     2448.000
   39.1313     2404.000     2564.000     2480.000     2438.000     2539.000
   39.1857     2591.000     2412.000     2591.000     2459.000     2586.000
   39.2400     2484.000     2721.000     2527.000     2604.000     2487.000
   39.2943     2603.000     2569.000     2589.000     2641.000     2636.000
   39.3487     2700.000     2706.000     2622.000     2636.000     2730.000
   39.4030     2615.000     2657.000     2841.000     2720.000     2963.000
   39.4573     2827.000     2758.000     2816.000     2898.000     2821.000
   39.5117     2908.000     2923.000     2952.000     2851.000     3097.000
   39.5660     2967.000     2988.000     2988.000     3051.000     2891.000
   39.6203     3124.000     3005.000     3094.000     3083.000     3222.000
   39.6747     3017.000     3154.000     3186.000     3128.000     3245.000
   39.7290     3342.000     3380.000     3524.000     3494.000     3562.000
   39.7833     3643.000     3742.000     3740.000     3882.000     3929.000
   39.8377     4166.000     4259.000     4481.000     4556.000     4730.000
   39.8920     4765.000     4825.000     4886.000     4986.000     4865.000
   39.9463     5050.000     5152.000     5366.000     5096.000     5335.000
   40.0007     5153.000     5202.000     4959.000     5058.000     4799.000
   40.0550     4955.000     4827.000     4971.000     4709.000     4722.000
   40.1093     4412.000     4537.000     4299.000     4300.000     4271.000
   40.1637     4227.000     4125.000     4237.000     4146.000     4254.000
   40.2180     4372.000     4319.000     4327.000     4351.000     4121.000
   40.2723     4047.000     3877.000     3986.000     3831.000     3832.000
   40.3267     3688.000     3752.000     3634.000     3522.000     3295.000
   40.3810     3269.000     2963.000     3218.000     2975.000     3079.000
   40.4353     2999.000     2988.000     2846.000     2790.000     2665.000
   40.4897     2837.000     2732.000     2796.000     2659.000     2829.000
   40.5440     2798.000     2838.000     2705.000     2703.000     2814.000
   40.5983     2821.000     2734.000     2904.000     2718.000     2699.000
   40.6526     2791.000     2718.000     2819.000     2801.000     2855.000
   40.7070     2880.000     2804.000     2918.000     2825.000     2900.000
   40.7613     2777.000     2933.000     2785.000     2821.000     2738.000
   40.8156     2887.000     2813.000     2849.000     2726.000     2914.000
   40.8700     2710.000     2884.000     2746.000     2878.000     2783.000
   40.9243     2876.000     2818.000     2831.000     2749.000     2843.000
   40.9786     2718.000     2757.000     2630.000     2739.000     2680.000
   41.0330     2642.000     2546.000     2634.000     2563.000     2533.000
   41.0873     2422.000     2545.000     2434.000     2503.000     2384.000
   41.1416     2389.000     2327.000     2395.000     2296.000     2385.000
   41.1960     2285.000     2332.000     2333.000     2338.000     2336.000
   41.2503     2344.000     2264.000     2356.000     2365.000     2287.000
   41.3046     2302.000     2294.000     2294.000     2350.000     2171.000
   41.3590     2308.000     2199.000     2327.000     2219.000     2290.000
   41.4133     2229.000     2246.000     2180.000     2216.000     2226.000
   41.4676     2287.000     2226.000     2257.000     2189.000     2249.000
   41.5220     2203.000     2377.000     2215.000     2260.000     2219.000
   41.5763     2342.000     2187.000     2341.000     2253.000     2323.000
   41.6306     2242.000     2398.000     2264.000     2431.000     2370.000
   41.6850     2452.000     2438.000     2395.000     2322.000     2388.000
   41.7393     2232.000     2320.000     2245.000     2355.000     2252.000
   41.7936     2359.000     2256.000     2293.000     2286.000     2479.000
   41.8480     2320.000     2371.000     2274.000     2479.000     2324.000
   41.9023     2434.000     2366.000     2452.000     2294.000     2327.000
   41.9566     2364.000     2388.000     2419.000     2533.000     2345.000
   42.0110     2481.000     2391.000     2522.000     2425.000     2469.000
   42.0653     2353.000     2432.000     2365.000     2462.000     2376.000
   42.1196     2476.000     2372.000     2626.000     2396.000     2607.000
   42.1739     2547.000     2545.000     2502.000     2616.000     2477.000
   42.2283     2582.000     2526.000     2684.000     2420.000     2560.000
   42.2826     2505.000     2604.000     2472.000     2664.000     2531.000
   42.3369     2567.000     2424.000     2540.000     2462.000     2490.000
   42.3913     2315.000     2397.000     2314.000     2388.000     2373.000
   42.4456     2450.000     2333.000     2402.000     2260.000     2510.000
   42.4999     2241.000     2459.000     2333.000     2447.000     2420.000
   42.5543     2436.000     2344.000     2474.000     2484.000     2433.000
   42.6086     2513.000     2509.000     2522.000     2484.000     2477.000
   42.6629     2531.000     2461.000     2633.000     2544.000     2723.000
   42.7173     2708.000     2852.000     2879.000     2889.000     2858.000
   42.7716     2958.000     2978.000     3157.000     2948.000     3109.000
   42.8259     3013.000     3130.000     2980.000     3098.000     2984.000
   42.8803     3130.000     2925.000     3141.000     2948.000     3113.000
   42.9346     2943.000     3155.000     2888.000     3152.000     2857.000
   42.9889     2998.000     3037.000     2927.000     2840.000     3068.000
   43.0433     2936.000     3074.000     2941.000     3065.000     2954.000
   43.0976     2924.000     2883.000     2917.000     2615.000     2717.000
   43.1519     2704.000     2768.000     2646.000     2656.000     2639.000
   43.2063     2556.000     2499.000     2588.000     2429.000     2500.000
   43.2606     2281.000     2419.000     2209.000     2383.000     2172.000
   43.3149     2345.000     2286.000     2219.000     2182.000     2374.000
   43.3693     2190.000     2209.000     2131.000     2175.000     2146.000
   43.4236     2246.000     2011.000     2217.000     2134.000     2176.000
   43.4779     2176.000     2120.000     2172.000     2085.000     2193.000
   43.5323     2109.000     2046.000     2176.000     2074.000     2155.000
   43.5866     2085.000     2127.000     2108.000     2157.000     1987.000
   43.6409     2197.000     2123.000     2118.000     2024.000     2098.000
   43.6953     2004.000     2002.000     2004.000     2032.000     1934.000
   43.7496     2038.000     2021.000     2092.000     1925.000     2076.000
   43.8039     2005.000     2106.000     2009.000     1975.000     1899.000
   43.8582     2096.000     1931.000     2065.000     2013.000     2046.000
   43.9126     2004.000     2116.000     1944.000     2110.000     1930.000
   43.9669     2103.000     2002.000     2023.000     2013.000     2089.000
   44.0212     1975.000     2121.000     2045.000     2096.000     2019.000
   44.0756     2027.000     1998.000     2095.000     2060.000     2134.000
   44.1299     1965.000     2096.000     2021.000     2074.000     1959.000
   44.1842     2090.000     2031.000     2086.000     2120.000     2181.000
   44.2386     1993.000     2083.000     2096.000     2181.000     2104.000
   44.2929     2121.000     2033.000     2017.000     2093.000     2160.000
   44.3472     2015.000     2111.000     2043.000     2179.000     2050.000
   44.4016     2163.000     2091.000     2119.000     1894.000     2108.000
   44.4559     2051.000     2250.000     2127.000     2177.000     2153.000
   44.5102     2165.000     2103.000     2186.000     2094.000     2192.000
   44.5646     2143.000     2218.000     2045.000     2164.000     2119.000
   44.6189     2229.000     2151.000     2182.000     2080.000     2236.000
   44.6732     2130.000     2257.000     2101.000     2286.000     2190.000
   44.7276     2159.000     2261.000     2279.000     2219.000     2310.000
   44.7819     2350.000     2306.000     2466.000     2334.000     2293.000
   44.8362     2583.000     2347.000     2645.000     2428.000     2532.000
   44.8906     2418.000     2385.000     2367.000     2587.000     2426.000
   44.9449     2515.000     2393.000     2454.000     2340.000     2454.000
   44.9992     2360.000     2342.000     2216.000     2352.000     2282.000
   45.0536     2341.000     2380.000     2356.000     2270.000     2393.000
   45.1079     2300.000     2310.000     2285.000     2364.000     2247.000
   45.1622     2340.000     2337.000     2514.000     2417.000     2374.000
   45.2166     2310.000     2377.000     2373.000     2482.000     2409.000
   45.2709     2481.000     2380.000     2663.000     2537.000     2697.000
   45.3252     2640.000     2647.000     2433.000     2578.000     2357.000
   45.3795     2599.000     2371.000     2468.000     2300.000     2472.000
   45.4339     2323.000     2426.000     2258.000     2337.000     2207.000
   45.4882     2216.000     2212.000     2141.000     2150.000     2156.000
   45.5425     2189.000     2188.000     1998.000     2272.000     2149.000
   45.5969     2071.000     2017.000     2149.000     2049.000     2093.000
   45.6512     1901.000     2192.000     2073.000     2105.000     1991.000
   45.7055     2082.000     2107.000     2152.000     2074.000     2108.000
   45.7599     2047.000     2092.000     2090.000     2074.000     2079.000
   45.8142     2089.000     1989.000     2110.000     2065.000     2258.000
   45.8685     2083.000     2183.000     2213.000     2138.000     2045.000
   45.9229     2194.000     2116.000     2267.000     2143.000     2300.000
   45.9772     2349.000     2518.000     2470.000     2558.000     2476.000
   46.0315     2710.000     2637.000     2831.000     2689.000     2874.000
   46.0859     2953.000     3060.000     3012.000     3161.000     3151.000
   46.1402     3167.000     3092.000     3274.000     3160.000     3253.000
   46.1945     3140.000     3207.000     3077.000     3230.000     3087.000
   46.2489     3221.000     3194.000     3261.000     3156.000     3360.000
   46.3032     3148.000     3274.000     3028.000     3043.000     2930.000
   46.3575     2970.000     2884.000     2800.000     2692.000     2703.000
   46.4119     2556.000     2699.000     2594.000     2581.000     2449.000
   46.4662     2417.000     2316.000     2390.000     2260.000     2281.000
   46.5205     2148.000     2170.000     2131.000     2221.000     2166.000
   46.5749     2253.000     2180.000     2168.000     2082.000     2224.000
   46.6292     2162.000     2143.000     2120.000     2269.000     2105.000
   46.6835     2295.000     2253.000     2321.000     2115.000     2328.000
   46.7379     2215.000     2279.000     2233.000     2329.000     2205.000
   46.7922     2289.000     2202.000     2326.000     2261.000     2284.000
   46.8465     2275.000     2349.000     2244.000     2200.000     2137.000
   46.9009     2292.000     2134.000     2141.000     2047.000     2148.000
   46.9552     2084.000     2160.000     2146.000     2262.000     2061.000
   47.0095     2167.000     2120.000     2164.000     2151.000     2178.000
   47.0638     2010.000     2237.000     2080.000     2185.000     2155.000
   47.1182     2143.000     2090.000     2158.000     2004.000     2146.000
   47.1725     2064.000     2165.000     2085.000     2174.000     1985.000
   47.2268     2093.000     2090.000     2247.000     2081.000     2101.000
   47.2812     2084.000     2159.000     2144.000     2149.000     2031.000
   47.3355     2106.000     2057.000     2067.000     2066.000     2044.000
   47.3898     2080.000     2086.000     2002.000     2059.000     1939.000
   47.4442     2015.000     1895.000     2047.000     1960.000     1951.000
   47.4985     1953.000     2056.000     1920.000     2032.000     1959.000
   47.5528     2043.000     1969.000     1985.000     1837.000     1932.000
   47.6072     1865.000     1966.000     1838.000     1876.000     1827.000
   47.6615     1937.000     1876.000     1982.000     1883.000     1969.000
   47.7158     1812.000     1876.000     1906.000     1934.000     1840.000
   47.7702     1996.000     1838.000     1996.000     1931.000     1909.000
   47.8245     1944.000     2033.000     1852.000     1949.000     1843.000
   47.8788     1918.000     1915.000     1928.000     1811.000     1967.000
   47.9332     1889.000     1989.000     1865.000     1984.000     1789.000
   47.9875     1959.000     1933.000     1966.000     1839.000     1890.000
   48.0418     1886.000     1902.000     1794.000     1844.000     1849.000
   48.0962     1977.000     1788.000     1960.000     1863.000     1946.000
   48.1505     1895.000     1913.000     1722.000     1959.000     1742.000
   48.2048     2101.000     1907.000     2040.000     2004.000     2138.000
   48.2592     2027.000     2153.000     1940.000     2086.000     1997.000
   48.3135     2089.000     1946.000     2029.000     1858.000     2053.000
   48.3678     1931.000     2087.000     2006.000     2071.000     1890.000
   48.4222     2051.000     1964.000     2191.000     1983.000     2036.000
   48.4765     1998.000     2049.000     1970.000     2032.000     1954.000
   48.5308     2015.000     1899.000     2153.000     1963.000     1965.000
   48.5851     1899.000     1966.000     1898.000     1924.000     1858.000
   48.6395     1889.000     1965.000     1815.000     1749.000     1926.000
   48.6938     1740.000     1870.000     1724.000     1776.000     1729.000
   48.7481     1793.000     1692.000     1788.000     1676.000     1858.000
   48.8025     1673.000     1777.000     1755.000     1800.000     1706.000
   48.8568     1806.000     1764.000     1807.000     1714.000     1774.000
   48.9111     1658.000     1730.000     1690.000     1748.000     1660.000
   48.9655     1708.000     1726.000     1733.000     1706.000     1706.000
   49.0198     1615.000     1799.000     1680.000     1797.000     1672.000
   49.0741     1741.000     1664.000     1813.000     1658.000     1758.000
   49.1285     1630.000     1730.000     1735.000     1703.000     1691.000
   49.1828     1735.000     1642.000     1794.000     1750.000     1760.000
   49.2371     1735.000     1736.000     1801.000     1778.000     1702.000
   49.2915     1824.000     1744.000     1849.000     1773.000     1802.000
   49.3458     1769.000     1972.000     1725.000     1883.000     1780.000
   49.4001     1828.000     1712.000     1789.000     1737.000     1722.000
   49.4545     1639.000     1744.000     1675.000     1670.000     1759.000
   49.5088     1708.000     1611.000     1721.000     1611.000     1630.000
   49.5631     1734.000     1611.000     1584.000     1655.000     1587.000
   49.6175     1721.000     1622.000     1666.000     1609.000     1728.000
   49.6718     1627.000     1644.000     1592.000     1734.000     1686.000
   49.7261     1735.000     1573.000     1660.000     1639.000     1711.000
   49.7805     1681.000     1661.000     1679.000     1731.000     1623.000
   49.8348     1721.000     1684.000     1729.000     1711.000     1634.000
   49.8891     1727.000     1661.000     1642.000     1749.000     1729.000
   49.9435     1703.000     1670.000     1740.000     1610.000     1645.000
   49.9978     1609.000     1689.000     1604.000     1710.000     1609.000
   50.0521     1798.000     1640.000     1725.000     1582.000     1769.000
   50.1065     1612.000     1763.000     1737.000     1710.000     1693.000
   50.1608     1699.000     1694.000     1759.000     1742.000     1848.000
   50.2151     1834.000     1798.000     1774.000     1835.000     1688.000
   50.2694     1874.000     1666.000     1819.000     1662.000     1724.000
   50.3238     1711.000     1851.000     1683.000     1762.000     1622.000
   50.3781     1723.000     1644.000     1736.000     1650.000     1788.000
   50.4324     1620.000     1692.000     1581.000     1647.000     1578.000
   50.4868     1755.000     1618.000     1666.000     1556.000     1590.000
   50.5411     1615.000     1674.000     1523.000     1625.000     1609.000
   50.5954     1605.000     1526.000     1673.000     1572.000     1643.000
   50.6498     1507.000     1586.000     1511.000     1506.000     1564.000
   50.7041     1564.000     1585.000     1569.000     1538.000     1545.000
   50.7584     1506.000     1538.000     1420.000     1551.000     1539.000
   50.8128     1588.000     1489.000     1585.000     1471.000     1588.000
   50.8671     1576.000     1580.000     1494.000     1516.000     1567.000
   50.9214     1604.000     1482.000     1732.000     1550.000     1654.000
   50.9758     1533.000     1649.000     1489.000     1665.000     1549.000
   51.0301     1639.000     1529.000     1653.000     1477.000     1658.000
   51.0844     1551.000     1604.000     1551.000     1521.000     1572.000
   51.1388     1621.000     1571.000     1521.000     1577.000     1542.000
   51.1931     1509.000     1503.000     1465.000     1568.000     1470.000
   51.2474     1516.000     1431.000     1585.000     1503.000     1546.000
   51.3018     1461.000     1603.000     1520.000     1488.000     1483.000
   51.3561     1535.000     1536.000     1524.000     1509.000     1439.000
   51.4104     1449.000     1475.000     1476.000     1538.000     1473.000
   51.4648     1461.000     1501.000     1512.000     1471.000     1657.000
   51.5191     1452.000     1503.000     1541.000     1535.000     1404.000
   51.5734     1522.000     1450.000     1571.000     1526.000     1614.000
   51.6278     1512.000     1622.000     1518.000     1549.000     1544.000
   51.6821     1526.000     1569.000     1523.000     1441.000     1527.000
   51.7364     1466.000     1514.000     1500.000     1489.000     1477.000
   51.7907     1547.000     1493.000     1506.000     1461.000     1521.000
   51.8451     1531.000     1478.000     1487.000     1617.000     1466.000
   51.8994     1566.000     1533.000     1597.000     1531.000     1608.000
   51.9537     1495.000     1647.000     1549.000     1537.000     1584.000
   52.0081     1576.000     1466.000     1543.000     1552.000     1615.000
   52.0624     1581.000     1566.000     1651.000     1579.000     1592.000
   52.1167     1635.000     1520.000     1648.000     1566.000     1615.000
   52.1711     1549.000     1650.000     1595.000     1726.000     1570.000
   52.2254     1648.000     1508.000     1623.000     1610.000     1619.000
   52.2797     1482.000     1646.000     1515.000     1620.000     1489.000
   52.3341     1523.000     1518.000     1551.000     1500.000     1568.000
   52.3884     1505.000     1575.000     1419.000     1558.000     1488.000
   52.4427     1527.000     1460.000     1596.000     1469.000     1570.000
   52.4971     1451.000     1558.000     1474.000     1475.000     1488.000
   52.5514     1505.000     1492.000     1498.000     1460.000     1457.000
   52.6057     1439.000     1594.000     1454.000     1488.000     1417.000
   52.6601     1439.000     1463.000     1516.000     1410.000     1473.000
   52.7144     1449.000     1454.000     1423.000     1421.000     1443.000
   52.7687     1504.000     1430.000     1487.000     1515.000     1525.000
   52.8231     1488.000     1528.000     1475.000     1587.000     1434.000
   52.8774     1499.000     1507.000     1526.000     1487.000     1542.000
   52.9317     1480.000     1554.000     1523.000     1492.000     1450.000
   52.9861     1512.000     1457.000     1540.000     1439.000     1528.000
   53.0404     1533.000     1490.000     1455.000     1537.000     1502.000
   53.0947     1517.000     1475.000     1527.000     1608.000     1502.000
   53.1491     1562.000     1613.000     1663.000     1544.000     1504.000
   53.2034     1639.000     1483.000     1562.000     1511.000     1620.000
   53.2577     1522.000     1553.000     1494.000     1538.000     1555.000
   53.3121     1617.000     1541.000     1567.000     1487.000     1483.000
   53.3664     1489.000     1479.000     1444.000     1523.000     1457.000
   53.4207     1473.000     1471.000     1496.000     1419.000     1410.000
   53.4750     1477.000     1471.000     1422.000     1440.000     1385.000
   53.5294     1492.000     1381.000     1428.000     1407.000     1470.000
   53.5837     1411.000     1436.000     1381.000     1413.000     1412.000
   53.6380     1460.000     1377.000     1415.000     1419.000     1474.000
   53.6924     1385.000     1501.000     1374.000     1422.000     1367.000
   53.7467     1501.000     1432.000     1494.000     1369.000     1506.000
   53.8010     1364.000     1465.000     1365.000     1379.000     1391.000
   53.8554     1452.000     1314.000     1326.000     1339.000     1449.000
   53.9097     1338.000     1431.000     1386.000     1397.000     1345.000
   53.9640     1431.000     1420.000     1420.000     1347.000     1467.000
   54.0184     1312.000     1399.000     1319.000     1451.000     1330.000
   54.0727     1363.000     1235.000     1385.000     1240.000     1357.000
   54.1270     1315.000     1344.000     1291.000     1355.000     1348.000
   54.1814     1362.000     1257.000     1366.000     1395.000     1407.000
   54.2357     1236.000     1395.000     1388.000     1355.000     1305.000
   54.2900     1343.000     1394.000     1405.000     1351.000     1303.000
   54.3444     1294.000     1389.000     1358.000     1383.000     1360.000
   54.3987     1397.000     1404.000     1379.000     1367.000     1427.000
   54.4530     1353.000     1441.000     1292.000     1443.000     1377.000
   54.5074     1383.000     1322.000     1386.000     1295.000     1419.000
   54.5617     1366.000     1349.000     1309.000     1381.000     1353.000
   54.6160     1351.000     1334.000     1327.000     1313.000     1326.000
   54.6704     1303.000     1297.000     1259.000     1255.000     1253.000
   54.7247     1289.000     1293.000     1242.000     1316.000     1311.000
   54.7790     1235.000     1284.000     1218.000     1346.000     1254.000
   54.8334     1266.000     1191.000     1282.000     1225.000     1262.000
   54.8877     1199.000     1235.000     1205.000     1312.000     1192.000
   54.9420     1281.000     1146.000     1262.000     1260.000     1264.000
   54.9963     1176.000     1258.000     1173.000     1276.000     1135.000
   55.0507     1255.000     1149.000     1283.000     1191.000     1283.000
   55.1050     1223.000     1283.000     1220.000     1255.000     1184.000
   55.1593     1222.000     1144.000     1234.000     1237.000     1261.000
   55.2137     1216.000     1213.000     1227.000     1187.000     1241.000
   55.2680     1236.000     1196.000     1236.000     1142.000     1221.000
   55.3223     1223.000     1243.000     1155.000     1217.000     1206.000
   55.3767     1258.000     1182.000     1258.000     1202.000     1209.000
   55.4310     1225.000     1190.000     1283.000     1227.000     1225.000
   55.4853     1229.000     1206.000     1239.000     1223.000     1280.000
   55.5397     1236.000     1243.000     1258.000     1272.000     1226.000
   55.5940     1219.000     1229.000     1183.000     1224.000     1215.000
   55.6483     1195.000     1244.000     1263.000     1322.000     1235.000
   55.7027     1304.000     1311.000     1285.000     1254.000     1317.000
   55.7570     1303.000     1338.000     1241.000     1326.000     1256.000
   55.8113     1360.000     1313.000     1382.000     1364.000     1383.000
   55.8657     1394.000     1420.000     1326.000     1371.000     1313.000
   55.9200     1346.000     1304.000     1386.000     1345.000     1343.000
   55.9743     1279.000     1340.000     1319.000     1388.000     1411.000
   56.0287     1340.000     1287.000     1285.000     1310.000     1334.000
   56.0830     1388.000     1327.000     1311.000     1356.000     1230.000
   56.1373     1356.000     1290.000     1355.000     1247.000     1266.000
   56.1917     1299.000     1249.000     1282.000     1318.000     1261.000
   56.2460     1306.000     1349.000     1267.000     1244.000     1313.000
   56.3003     1257.000     1292.000     1183.000     1290.000     1169.000
   56.3547     1256.000     1230.000     1248.000     1144.000     1248.000
   56.4090     1187.000     1235.000     1178.000     1270.000     1154.000
   56.4633     1192.000     1147.000     1217.000     1126.000     1261.000
   56.5177     1182.000     1146.000     1178.000     1128.000     1141.000
   56.5720     1193.000     1196.000     1189.000     1117.000     1227.000
   56.6263     1179.000     1195.000     1106.000     1212.000     1084.000
   56.6806     1206.000     1137.000     1205.000     1103.000     1241.000
   56.7350     1107.000     1133.000     1107.000     1137.000     1144.000
   56.7893     1174.000     1081.000     1263.000     1193.000     1187.000
   56.8436     1098.000     1265.000     1138.000     1173.000     1123.000
   56.8980     1200.000     1115.000     1152.000     1093.000     1154.000
   56.9523     1152.000     1180.000     1148.000     1166.000     1107.000
   57.0066     1143.000     1128.000     1158.000     1154.000     1119.000
   57.0610     1100.000     1130.000     1098.000     1172.000     1109.000
   57.1153     1130.000     1068.000     1183.000     1161.000     1163.000
   57.1696     1083.000     1085.000     1151.000     1137.000     1158.000
   57.2240     1147.000     1086.000     1150.000     1127.000     1145.000
   57.2783     1113.000     1082.000     1084.000     1109.000     1172.000
   57.3326     1161.000     1125.000     1149.000     1103.000     1072.000
   57.3870     1076.000     1117.000     1077.000     1123.000     1114.000
   57.4413     1112.000     1020.000     1139.000     1022.000     1175.000
   57.4956     1073.000     1149.000     1168.000     1206.000     1060.000
   57.5500     1109.000     1106.000     1155.000     1156.000     1141.000
   57.6043     1073.000     1198.000     1032.000     1155.000     1118.000
   57.6586     1129.000     1148.000     1139.000     1059.000     1162.000
   57.7130     1121.000     1126.000     1100.000     1151.000     1198.000
   57.7673     1082.000     1093.000     1184.000     1092.000     1124.000
   57.8216     1106.000     1171.000     1089.000     1083.000     1078.000
   57.8760     1062.000     1107.000     1115.000     1046.000     1162.000
   57.9303     1155.000     1119.000     1152.000     1169.000     1109.000
   57.9846     1105.000     1074.000     1079.000     1080.000     1087.000
   58.0390     1103.000     1112.000     1083.000     1086.000     1049.000
   58.0933     1085.000     1103.000     1054.000     1071.000     1098.000
   58.1476     1036.000     1148.000     1064.000     1079.000     1059.000
   58.2019     1100.000     1098.000     1093.000     1058.000     1076.000
   58.2563     1045.000     1107.000     1054.000     1073.000     1018.000
   58.3106     1079.000     1064.000     1093.000     1071.000     1087.000
   58.3649     1061.000     1079.000     1020.000     1091.000     1076.000
   58.4193     1074.000     1123.000     1129.000     1111.000     1082.000
   58.4736     1050.000     1121.000     1065.000     1147.000     1080.000
   58.5279     1110.000     1060.000     1079.000     1026.000     1107.000
   58.5823     1134.000     1086.000     1097.000     1134.000     1095.000
   58.6366     1151.000     1041.000     1116.000     1069.000     1097.000
   58.6909     1077.000     1090.000     1045.000     1057.000     1081.000
   58.7453     1103.000     1035.000     1129.000     1096.000     1052.000
   58.7996     1121.000     1165.000     1135.000     1111.000     1059.000
   58.8539     1077.000     1096.000     1125.000     1036.000     1094.000
   58.9083     1073.000     1113.000     1137.000     1107.000     1114.000
   58.9626     1101.000     1063.000     1159.000     1071.000     1180.000
   59.0169     1088.000     1114.000     1096.000     1134.000     1049.000
   59.0713     1060.000     1116.000     1176.000     1123.000     1180.000
   59.1256     1112.000     1130.000     1109.000     1121.000     1076.000
   59.1799     1106.000     1100.000     1140.000     1033.000     1134.000
   59.2343     1075.000     1074.000     1126.000     1121.000     1086.000
   59.2886     1072.000     1036.000     1055.000     1096.000     1072.000
   59.3429     1072.000     1103.000     1091.000     1089.000     1078.000
   59.3973     1170.000     1128.000     1131.000     1113.000     1091.000
   59.4516     1080.000     1095.000     1147.000     1119.000     1106.000
   59.5059     1077.000     1098.000     1154.000     1036.000     1091.000
   59.5603     1079.000     1102.000     1055.000     1058.000     1037.000
   59.6146     1097.000     1062.000     1073.000     1071.000     1150.000
   59.6689     1044.000     1107.000     1094.000     1035.000     1103.000
   59.7233     1036.000     1006.000     1033.000     1013.000     1089.000
   59.7776     1076.000     1077.000     1052.000     1076.000     1063.000
   59.8319     1035.000     1064.000     1020.000     1008.000     1032.000
   59.8862     1067.000     1041.000      969.000     1041.000     1004.000
   59.9406     1005.000     1012.000     1003.000     1002.000     1019.000
   59.9949      995.000
## END= 
