$$ -----------------------
$$ Labels defined by JCAMP
$$ -----------------------

## TITLE= Unknown
## JCAMP-DX= 4.24
## DATA TYPE= RD
## BLOCKS= 1
## ORIGIN= PANalytical B.V.
## OWNER= Copyright(C) 2004 by PANalytical B.V.
## DATE= 23/07/24
## TIME= 18:18:14
## SAMPLE DESCRIPTION= 
## SOURCE REFERENCE= Converted XRDML file
##= Salicyclic Acid recrystallized in D2O on Si Wafer, Put wet SA needle xtal slurry on Si Wafer, Still 'wet' when initial pXRD starts, 3-60 degrees, 8 min, pXRD.

$$ ------------------------------------
$$ Labels defined by PANalytical
$$ ------------------------------------

$$ Wavelengths are given in Angstrom.
##$WAVELENGTH ALPHA1= 1.5405980
##$WAVELENGTH ALPHA2= 1.5444260
##$INTENSITY RATIO ALPHA2/ALPHA1= 0.5000000
##$MONOCHROMATOR= NO
##$SPINNING= YES
##$REVOLUTION TIME= 1.0
##$GENERATOR VOLTAGE= 40
##$TUBE CURRENT= 15
##$ANODE MATERIAL= Cu
##$TUBE FOCUS= LONG FINE
##$SCAN TYPE= CONTINUOUS
##$COUNT TIME= 18.870
##$DIVERGENCE SLIT= 0.45836

$$ -----------------------------------------------------
$$ Labels defined by PANalytical for PC-APD files
$$ -----------------------------------------------------

##$DIFFRACTOMETER= Unknown

$$ ------------------------------------------------------
$$ Labels defined by PANalytical for APD1700 files
$$ ------------------------------------------------------

##$TAKE OFF ANGLE= 6.000
##$DETECTOR TYPE= PIXcel3D-Medipix3 1x1 detector

$$ -----------------------
$$ Labels defined by JCAMP
$$ -----------------------

## XUNITS= TWO-THETA
## YUNITS= COUNTS
## XFACTOR= 1.0
## YFACTOR= 1.0
## FIRSTX= 3.0004332
## LASTX= 59.9949110
## DELTAX= 0.0108664
## NPOINTS= 5246
## FIRSTY= 7712.000
## MINX= 3.00043
## MAXX= 59.99491
## MINY= 114.000
## MAXY= 152270.000
## XYDATA= X++<Y..Y>
    3.0004     7712.000     7605.000     7491.000     7621.000     7129.000
    3.0548     7429.000     7272.000     7106.000     7120.000     6981.000
    3.1091     6792.000     6824.000     6683.000     6536.000     6605.000
    3.1634     6385.000     6176.000     6150.000     6072.000     6046.000
    3.2178     5952.000     5789.000     5702.000     5597.000     5534.000
    3.2721     5365.000     5345.000     5190.000     5176.000     5237.000
    3.3264     4920.000     4899.000     4961.000     4814.000     4717.000
    3.3808     4731.000     4535.000     4475.000     4547.000     4380.000
    3.4351     4426.000     4104.000     4126.000     4125.000     3999.000
    3.4894     4003.000     4084.000     3850.000     3862.000     3745.000
    3.5438     3652.000     3667.000     3515.000     3525.000     3481.000
    3.5981     3360.000     3366.000     3263.000     3375.000     3235.000
    3.6524     3178.000     3006.000     3059.000     2897.000     2967.000
    3.7068     2814.000     2912.000     2779.000     2784.000     2728.000
    3.7611     2642.000     2644.000     2552.000     2483.000     2322.000
    3.8154     2358.000     2332.000     2327.000     2371.000     2310.000
    3.8697     2209.000     2141.000     2087.000     2048.000     1991.000
    3.9241     2040.000     1918.000     1915.000     1871.000     1846.000
    3.9784     1728.000     1788.000     1719.000     1665.000     1665.000
    4.0327     1707.000     1616.000     1641.000     1557.000     1499.000
    4.0871     1525.000     1504.000     1513.000     1406.000     1394.000
    4.1414     1397.000     1332.000     1269.000     1269.000     1203.000
    4.1957     1259.000     1266.000     1180.000     1180.000     1157.000
    4.2501     1108.000     1086.000     1100.000     1074.000     1067.000
    4.3044     1009.000     1036.000      957.000      955.000     1061.000
    4.3587     1020.000      932.000      927.000      896.000      825.000
    4.4131      816.000      839.000      856.000      804.000      816.000
    4.4674      797.000      808.000      734.000      757.000      752.000
    4.5217      751.000      717.000      741.000      726.000      733.000
    4.5761      679.000      709.000      645.000      675.000      651.000
    4.6304      644.000      628.000      647.000      634.000      634.000
    4.6847      608.000      606.000      630.000      587.000      618.000
    4.7391      620.000      650.000      635.000      600.000      590.000
    4.7934      604.000      585.000      568.000      559.000      623.000
    4.8477      557.000      603.000      571.000      579.000      550.000
    4.9021      515.000      550.000      534.000      584.000      602.000
    4.9564      565.000      548.000      547.000      583.000      534.000
    5.0107      555.000      524.000      544.000      596.000      557.000
    5.0651      539.000      562.000      549.000      515.000      513.000
    5.1194      582.000      560.000      588.000      564.000      529.000
    5.1737      561.000      565.000      596.000      573.000      552.000
    5.2281      562.000      552.000      561.000      567.000      565.000
    5.2824      531.000      566.000      532.000      503.000      536.000
    5.3367      479.000      536.000      603.000      516.000      530.000
    5.3911      546.000      556.000      517.000      524.000      537.000
    5.4454      583.000      513.000      563.000      544.000      536.000
    5.4997      583.000      553.000      562.000      552.000      540.000
    5.5540      505.000      546.000      543.000      582.000      552.000
    5.6084      512.000      537.000      570.000      550.000      523.000
    5.6627      557.000      496.000      529.000      550.000      528.000
    5.7170      532.000      543.000      505.000      551.000      558.000
    5.7714      504.000      531.000      505.000      539.000      513.000
    5.8257      578.000      534.000      597.000      568.000      545.000
    5.8800      546.000      539.000      503.000      528.000      532.000
    5.9344      489.000      506.000      519.000      517.000      514.000
    5.9887      521.000      546.000      485.000      485.000      507.000
    6.0430      500.000      455.000      470.000      476.000      492.000
    6.0974      472.000      427.000      425.000      482.000      440.000
    6.1517      459.000      441.000      419.000      430.000      449.000
    6.2060      438.000      475.000      410.000      436.000      414.000
    6.2604      430.000      460.000      420.000      421.000      408.000
    6.3147      366.000      441.000      391.000      412.000      392.000
    6.3690      409.000      394.000      390.000      395.000      422.000
    6.4234      362.000      392.000      386.000      380.000      451.000
    6.4777      361.000      397.000      362.000      346.000      336.000
    6.5320      351.000      360.000      388.000      382.000      383.000
    6.5864      374.000      347.000      345.000      361.000      334.000
    6.6407      316.000      347.000      389.000      363.000      344.000
    6.6950      331.000      363.000      358.000      341.000      339.000
    6.7494      356.000      340.000      368.000      346.000      354.000
    6.8037      350.000      336.000      376.000      373.000      312.000
    6.8580      365.000      343.000      348.000      310.000      298.000
    6.9124      322.000      310.000      341.000      323.000      350.000
    6.9667      331.000      313.000      309.000      335.000      301.000
    7.0210      342.000      305.000      346.000      286.000      288.000
    7.0753      343.000      304.000      365.000      301.000      334.000
    7.1297      321.000      307.000      280.000      305.000      322.000
    7.1840      307.000      294.000      312.000      335.000      308.000
    7.2383      317.000      310.000      303.000      310.000      331.000
    7.2927      292.000      257.000      339.000      323.000      303.000
    7.3470      287.000      285.000      301.000      285.000      290.000
    7.4013      296.000      286.000      288.000      308.000      284.000
    7.4557      268.000      266.000      280.000      261.000      269.000
    7.5100      292.000      276.000      297.000      300.000      268.000
    7.5643      290.000      259.000      297.000      276.000      322.000
    7.6187      265.000      296.000      297.000      285.000      280.000
    7.6730      296.000      291.000      310.000      293.000      285.000
    7.7273      284.000      309.000      261.000      282.000      269.000
    7.7817      271.000      290.000      283.000      241.000      230.000
    7.8360      292.000      287.000      299.000      275.000      279.000
    7.8903      299.000      258.000      286.000      233.000      303.000
    7.9447      270.000      249.000      265.000      267.000      266.000
    7.9990      266.000      269.000      225.000      231.000      235.000
    8.0533      260.000      257.000      228.000      271.000      241.000
    8.1077      239.000      244.000      296.000      256.000      239.000
    8.1620      258.000      265.000      249.000      243.000      276.000
    8.2163      262.000      270.000      235.000      233.000      261.000
    8.2707      233.000      232.000      265.000      241.000      256.000
    8.3250      256.000      264.000      250.000      240.000      259.000
    8.3793      263.000      240.000      250.000      196.000      248.000
    8.4337      221.000      305.000      257.000      231.000      266.000
    8.4880      222.000      230.000      268.000      256.000      259.000
    8.5423      234.000      244.000      204.000      236.000      202.000
    8.5966      240.000      256.000      205.000      230.000      216.000
    8.6510      259.000      248.000      230.000      222.000      229.000
    8.7053      233.000      229.000      221.000      228.000      209.000
    8.7596      226.000      243.000      243.000      238.000      246.000
    8.8140      262.000      228.000      233.000      258.000      257.000
    8.8683      236.000      244.000      241.000      233.000      198.000
    8.9226      236.000      231.000      259.000      230.000      240.000
    8.9770      211.000      243.000      231.000      250.000      210.000
    9.0313      210.000      248.000      248.000      237.000      236.000
    9.0856      204.000      238.000      228.000      218.000      218.000
    9.1400      235.000      226.000      213.000      229.000      238.000
    9.1943      215.000      210.000      248.000      209.000      202.000
    9.2486      240.000      240.000      216.000      229.000      183.000
    9.3030      221.000      214.000      222.000      225.000      239.000
    9.3573      221.000      220.000      219.000      235.000      244.000
    9.4116      241.000      211.000      224.000      257.000      211.000
    9.4660      215.000      223.000      271.000      212.000      235.000
    9.5203      222.000      210.000      258.000      248.000      270.000
    9.5746      234.000      225.000      229.000      225.000      233.000
    9.6290      246.000      208.000      224.000      191.000      219.000
    9.6833      245.000      261.000      258.000      240.000      204.000
    9.7376      271.000      226.000      215.000      224.000      222.000
    9.7920      249.000      262.000      239.000      264.000      267.000
    9.8463      258.000      278.000      263.000      239.000      218.000
    9.9006      232.000      241.000      236.000      263.000      248.000
    9.9550      256.000      242.000      280.000      266.000      268.000
   10.0093      248.000      266.000      228.000      245.000      222.000
   10.0636      264.000      277.000      236.000      256.000      285.000
   10.1180      285.000      282.000      298.000      268.000      289.000
   10.1723      291.000      295.000      319.000      331.000      317.000
   10.2266      329.000      338.000      319.000      355.000      388.000
   10.2809      394.000      387.000      424.000      428.000      515.000
   10.3353      508.000      547.000      571.000      677.000      714.000
   10.3896      803.000      821.000      917.000      964.000     1030.000
   10.4439     1208.000     1221.000     1342.000     1487.000     1522.000
   10.4983     1717.000     1773.000     1891.000     2072.000     2343.000
   10.5526     2567.000     2743.000     3055.000     3274.000     3489.000
   10.6069     3945.000     4368.000     4661.000     5235.000     5640.000
   10.6613     6315.000     6994.000     8251.000     9441.000    11001.000
   10.7156    12791.000    15284.000    17980.000    22337.000    27050.000
   10.7699    31686.000    36750.000    40499.000    42928.000    45488.000
   10.8243    46831.000    47824.000    48202.000    49793.000    50775.000
   10.8786    53135.000    57124.000    62488.000    68497.000    72570.000
   10.9329    82080.000    83722.000    95329.000    96963.000   110027.000
   10.9873   117672.000   128755.000   136540.000   145574.000   150780.000
   11.0416   152270.000   147953.000   140981.000   124908.000   111058.000
   11.0959    88291.000    74510.000    56013.000    42930.000    31220.000
   11.1503    21761.000    15318.000    10264.000     7998.000     6542.000
   11.2046     5828.000     5284.000     5195.000     4699.000     4304.000
   11.2589     4228.000     3953.000     3703.000     3521.000     3459.000
   11.3133     3396.000     3217.000     3039.000     2952.000     2768.000
   11.3676     2628.000     2494.000     2458.000     2287.000     2220.000
   11.4219     2018.000     1964.000     1820.000     1644.000     1573.000
   11.4763     1491.000     1392.000     1326.000     1241.000     1285.000
   11.5306     1225.000     1188.000     1122.000     1142.000     1149.000
   11.5849     1143.000     1068.000     1147.000     1114.000     1127.000
   11.6393     1068.000     1059.000     1071.000     1036.000     1020.000
   11.6936     1044.000     1033.000     1048.000      967.000      939.000
   11.7479      964.000      917.000      984.000      993.000      941.000
   11.8022      923.000      939.000      888.000      931.000      918.000
   11.8566      888.000      872.000      830.000      899.000      763.000
   11.9109      886.000      888.000      806.000      789.000      841.000
   11.9652      871.000      785.000      798.000      790.000      808.000
   12.0196      816.000      805.000      768.000      765.000      795.000
   12.0739      804.000      791.000      728.000      752.000      733.000
   12.1282      700.000      763.000      752.000      715.000      734.000
   12.1826      722.000      697.000      725.000      721.000      712.000
   12.2369      697.000      690.000      627.000      694.000      714.000
   12.2912      677.000      711.000      685.000      625.000      656.000
   12.3456      673.000      618.000      642.000      626.000      616.000
   12.3999      649.000      622.000      600.000      624.000      595.000
   12.4542      595.000      596.000      607.000      582.000      620.000
   12.5086      576.000      548.000      586.000      559.000      542.000
   12.5629      582.000      529.000      553.000      556.000      553.000
   12.6172      561.000      536.000      562.000      544.000      547.000
   12.6716      530.000      553.000      509.000      551.000      473.000
   12.7259      472.000      491.000      557.000      476.000      493.000
   12.7802      500.000      516.000      512.000      451.000      473.000
   12.8346      478.000      445.000      511.000      484.000      464.000
   12.8889      447.000      447.000      456.000      450.000      438.000
   12.9432      426.000      466.000      442.000      421.000      421.000
   12.9976      427.000      401.000      421.000      472.000      436.000
   13.0519      427.000      413.000      451.000      409.000      412.000
   13.1062      410.000      383.000      372.000      391.000      379.000
   13.1606      408.000      411.000      405.000      424.000      374.000
   13.2149      389.000      389.000      399.000      371.000      345.000
   13.2692      361.000      395.000      369.000      382.000      390.000
   13.3236      342.000      354.000      403.000      384.000      366.000
   13.3779      354.000      361.000      349.000      368.000      350.000
   13.4322      323.000      378.000      333.000      362.000      354.000
   13.4865      360.000      350.000      343.000      360.000      375.000
   13.5409      317.000      338.000      363.000      336.000      331.000
   13.5952      316.000      330.000      338.000      310.000      335.000
   13.6495      322.000      330.000      358.000      302.000      319.000
   13.7039      291.000      312.000      310.000      331.000      311.000
   13.7582      311.000      306.000      326.000      344.000      307.000
   13.8125      295.000      302.000      301.000      304.000      301.000
   13.8669      297.000      316.000      298.000      290.000      306.000
   13.9212      283.000      292.000      326.000      289.000      279.000
   13.9755      290.000      278.000      301.000      266.000      291.000
   14.0299      277.000      278.000      285.000      292.000      267.000
   14.0842      299.000      292.000      264.000      315.000      285.000
   14.1385      308.000      284.000      278.000      279.000      278.000
   14.1929      241.000      246.000      258.000      278.000      239.000
   14.2472      238.000      300.000      269.000      271.000      290.000
   14.3015      281.000      262.000      276.000      308.000      257.000
   14.3559      263.000      274.000      281.000      257.000      256.000
   14.4102      263.000      246.000      248.000      260.000      219.000
   14.4645      241.000      238.000      260.000      264.000      285.000
   14.5189      267.000      292.000      237.000      258.000      258.000
   14.5732      259.000      238.000      249.000      230.000      235.000
   14.6275      220.000      227.000      230.000      222.000      257.000
   14.6819      276.000      273.000      250.000      224.000      200.000
   14.7362      240.000      247.000      281.000      268.000      260.000
   14.7905      257.000      276.000      233.000      262.000      294.000
   14.8449      310.000      227.000      263.000      250.000      246.000
   14.8992      290.000      310.000      296.000      307.000      329.000
   14.9535      322.000      338.000      349.000      373.000      383.000
   15.0078      362.000      384.000      420.000      377.000      429.000
   15.0622      415.000      498.000      533.000      611.000      570.000
   15.1165      611.000      673.000      668.000      732.000      739.000
   15.1708      765.000      759.000      800.000      713.000      736.000
   15.2252      745.000      852.000      883.000      922.000      950.000
   15.2795      952.000      995.000      978.000     1080.000     1152.000
   15.3338     1187.000     1481.000     1756.000     1943.000     2082.000
   15.3882     2046.000     1940.000     1764.000     1501.000     1294.000
   15.4425     1047.000      925.000      734.000      653.000      591.000
   15.4968      553.000      463.000      496.000      520.000      520.000
   15.5512      544.000      598.000      712.000      734.000      785.000
   15.6055      736.000      818.000      781.000      843.000      906.000
   15.6598      889.000      919.000      983.000     1060.000     1072.000
   15.7142     1110.000     1069.000     1046.000     1006.000     1010.000
   15.7685      980.000     1076.000     1090.000     1091.000     1079.000
   15.8228     1059.000     1080.000     1059.000     1011.000      948.000
   15.8772      850.000      754.000      583.000      551.000      475.000
   15.9315      421.000      385.000      344.000      336.000      334.000
   15.9858      313.000      304.000      299.000      355.000      325.000
   16.0402      344.000      289.000      303.000      295.000      289.000
   16.0945      293.000      258.000      292.000      262.000      281.000
   16.1488      279.000      261.000      243.000      263.000      243.000
   16.2032      282.000      237.000      257.000      248.000      289.000
   16.2575      288.000      244.000      268.000      280.000      294.000
   16.3118      299.000      292.000      297.000      289.000      279.000
   16.3662      267.000      291.000      291.000      295.000      329.000
   16.4205      284.000      305.000      302.000      307.000      337.000
   16.4748      344.000      373.000      382.000      421.000      382.000
   16.5292      432.000      407.000      401.000      412.000      442.000
   16.5835      478.000      501.000      495.000      528.000      580.000
   16.6378      644.000      664.000      704.000      684.000      719.000
   16.6921      755.000      804.000      864.000      882.000      922.000
   16.7465      951.000      949.000     1073.000     1094.000     1174.000
   16.8008     1288.000     1336.000     1454.000     1630.000     1717.000
   16.8551     1867.000     2077.000     2371.000     2524.000     2759.000
   16.9095     2966.000     3453.000     3711.000     4219.000     4618.000
   16.9638     5390.000     6195.000     7241.000     8681.000    10803.000
   17.0181    12519.000    15453.000    16779.000    19782.000    20450.000
   17.0725    22599.000    21766.000    22552.000    22578.000    23375.000
   17.1268    23837.000    24008.000    24744.000    25143.000    26784.000
   17.1811    28309.000    30696.000    32601.000    34301.000    35958.000
   17.2355    36436.000    36298.000    35030.000    33539.000    31224.000
   17.2898    28577.000    26456.000    24461.000    22422.000    21561.000
   17.3441    20030.000    19198.000    16848.000    15095.000    12712.000
   17.3985    11145.000     9538.000     8297.000     7566.000     6983.000
   17.4528     6627.000     6975.000     7731.000     8469.000     8497.000
   17.5071     9293.000     9720.000    10187.000     9657.000     9357.000
   17.5615     9024.000     8261.000     7883.000     7572.000     7323.000
   17.6158     6896.000     6451.000     5671.000     5009.000     4099.000
   17.6701     3392.000     2798.000     2228.000     1723.000     1332.000
   17.7245     1185.000      984.000      888.000      866.000      834.000
   17.7788      859.000      798.000      789.000      775.000      749.000
   17.8331      754.000      701.000      716.000      694.000      662.000
   17.8875      676.000      659.000      606.000      633.000      562.000
   17.9418      606.000      535.000      582.000      544.000      512.000
   17.9961      471.000      524.000      502.000      525.000      513.000
   18.0505      487.000      465.000      459.000      429.000      460.000
   18.1048      447.000      469.000      433.000      436.000      419.000
   18.1591      435.000      393.000      460.000      396.000      423.000
   18.2134      392.000      418.000      415.000      403.000      377.000
   18.2678      361.000      399.000      375.000      384.000      335.000
   18.3221      394.000      368.000      406.000      378.000      337.000
   18.3764      373.000      381.000      353.000      376.000      368.000
   18.4308      380.000      384.000      406.000      379.000      357.000
   18.4851      360.000      352.000      368.000      366.000      357.000
   18.5394      380.000      385.000      355.000      308.000      348.000
   18.5938      328.000      354.000      324.000      325.000      349.000
   18.6481      342.000      327.000      332.000      362.000      344.000
   18.7024      317.000      336.000      340.000      295.000      301.000
   18.7568      303.000      329.000      329.000      337.000      332.000
   18.8111      308.000      327.000      349.000      299.000      318.000
   18.8654      319.000      328.000      305.000      327.000      311.000
   18.9198      323.000      313.000      319.000      290.000      284.000
   18.9741      277.000      322.000      288.000      316.000      286.000
   19.0284      280.000      294.000      274.000      292.000      293.000
   19.0828      311.000      281.000      291.000      293.000      278.000
   19.1371      304.000      262.000      285.000      269.000      323.000
   19.1914      296.000      282.000      259.000      298.000      291.000
   19.2458      271.000      288.000      279.000      302.000      300.000
   19.3001      260.000      263.000      249.000      282.000      262.000
   19.3544      273.000      316.000      279.000      293.000      282.000
   19.4088      329.000      296.000      275.000      269.000      293.000
   19.4631      294.000      266.000      263.000      278.000      282.000
   19.5174      271.000      292.000      287.000      260.000      298.000
   19.5718      265.000      256.000      282.000      259.000      296.000
   19.6261      241.000      230.000      269.000      234.000      277.000
   19.6804      236.000      287.000      265.000      283.000      256.000
   19.7348      295.000      217.000      289.000      242.000      242.000
   19.7891      295.000      272.000      239.000      267.000      256.000
   19.8434      257.000      223.000      244.000      240.000      264.000
   19.8977      238.000      224.000      209.000      228.000      244.000
   19.9521      265.000      223.000      242.000      238.000      216.000
   20.0064      229.000      264.000      238.000      241.000      262.000
   20.0607      213.000      227.000      250.000      231.000      237.000
   20.1151      259.000      245.000      236.000      217.000      248.000
   20.1694      212.000      226.000      231.000      204.000      229.000
   20.2237      237.000      223.000      226.000      212.000      223.000
   20.2781      220.000      213.000      201.000      219.000      191.000
   20.3324      219.000      217.000      219.000      190.000      217.000
   20.3867      192.000      203.000      205.000      202.000      188.000
   20.4411      230.000      195.000      221.000      195.000      190.000
   20.4954      197.000      214.000      190.000      196.000      224.000
   20.5497      197.000      216.000      206.000      210.000      213.000
   20.6041      238.000      193.000      193.000      217.000      202.000
   20.6584      201.000      231.000      186.000      187.000      188.000
   20.7127      177.000      216.000      205.000      183.000      166.000
   20.7671      209.000      210.000      195.000      190.000      231.000
   20.8214      211.000      174.000      178.000      174.000      222.000
   20.8757      180.000      202.000      211.000      179.000      212.000
   20.9301      203.000      183.000      194.000      186.000      189.000
   20.9844      209.000      208.000      215.000      198.000      172.000
   21.0387      185.000      188.000      192.000      220.000      206.000
   21.0931      191.000      203.000      178.000      195.000      216.000
   21.1474      182.000      190.000      177.000      192.000      189.000
   21.2017      173.000      197.000      196.000      241.000      204.000
   21.2561      191.000      178.000      186.000      184.000      185.000
   21.3104      209.000      188.000      170.000      203.000      192.000
   21.3647      195.000      195.000      159.000      185.000      165.000
   21.4190      208.000      175.000      219.000      226.000      182.000
   21.4734      212.000      207.000      186.000      170.000      174.000
   21.5277      164.000      182.000      163.000      205.000      178.000
   21.5820      203.000      184.000      182.000      224.000      187.000
   21.6364      195.000      181.000      171.000      211.000      196.000
   21.6907      209.000      185.000      200.000      217.000      219.000
   21.7450      174.000      209.000      234.000      246.000      219.000
   21.7994      248.000      235.000      275.000      285.000      320.000
   21.8537      305.000      306.000      335.000      362.000      357.000
   21.9080      325.000      336.000      319.000      309.000      324.000
   21.9624      360.000      320.000      338.000      347.000      319.000
   22.0167      336.000      365.000      363.000      404.000      420.000
   22.0710      440.000      487.000      529.000      550.000      425.000
   22.1254      523.000      428.000      425.000      418.000      334.000
   22.1797      374.000      300.000      284.000      251.000      246.000
   22.2340      206.000      204.000      202.000      191.000      202.000
   22.2884      189.000      219.000      193.000      201.000      179.000
   22.3427      194.000      193.000      209.000      202.000      194.000
   22.3970      180.000      145.000      149.000      175.000      189.000
   22.4514      213.000      167.000      179.000      183.000      167.000
   22.5057      200.000      171.000      210.000      192.000      165.000
   22.5600      162.000      169.000      181.000      183.000      171.000
   22.6144      193.000      172.000      167.000      168.000      194.000
   22.6687      160.000      200.000      183.000      181.000      163.000
   22.7230      179.000      162.000      170.000      191.000      169.000
   22.7774      161.000      175.000      175.000      196.000      178.000
   22.8317      172.000      173.000      133.000      162.000      165.000
   22.8860      173.000      159.000      180.000      171.000      183.000
   22.9404      162.000      172.000      181.000      173.000      152.000
   22.9947      169.000      184.000      162.000      184.000      173.000
   23.0490      165.000      172.000      159.000      180.000      152.000
   23.1033      161.000      148.000      182.000      178.000      164.000
   23.1577      160.000      154.000      154.000      141.000      174.000
   23.2120      160.000      166.000      158.000      151.000      172.000
   23.2663      175.000      180.000      178.000      138.000      163.000
   23.3207      214.000      176.000      186.000      191.000      165.000
   23.3750      191.000      170.000      181.000      187.000      182.000
   23.4293      150.000      176.000      181.000      195.000      164.000
   23.4837      182.000      212.000      176.000      171.000      174.000
   23.5380      182.000      188.000      180.000      179.000      189.000
   23.5923      195.000      176.000      148.000      198.000      174.000
   23.6467      171.000      181.000      180.000      203.000      211.000
   23.7010      213.000      212.000      241.000      218.000      225.000
   23.7553      224.000      280.000      247.000      221.000      226.000
   23.8097      214.000      218.000      216.000      190.000      197.000
   23.8640      175.000      204.000      198.000      203.000      176.000
   23.9183      155.000      173.000      172.000      163.000      176.000
   23.9727      173.000      186.000      187.000      173.000      190.000
   24.0270      167.000      183.000      183.000      172.000      180.000
   24.0813      161.000      176.000      186.000      182.000      182.000
   24.1357      175.000      168.000      161.000      181.000      187.000
   24.1900      192.000      177.000      171.000      184.000      194.000
   24.2443      170.000      191.000      183.000      194.000      183.000
   24.2987      179.000      196.000      161.000      169.000      174.000
   24.3530      168.000      180.000      192.000      206.000      176.000
   24.4073      184.000      173.000      174.000      182.000      166.000
   24.4617      185.000      192.000      193.000      203.000      186.000
   24.5160      185.000      194.000      201.000      200.000      171.000
   24.5703      181.000      194.000      189.000      191.000      206.000
   24.6246      190.000      168.000      178.000      194.000      184.000
   24.6790      233.000      191.000      217.000      200.000      248.000
   24.7333      246.000      248.000      321.000      249.000      302.000
   24.7876      287.000      318.000      298.000      323.000      300.000
   24.8420      282.000      296.000      274.000      285.000      281.000
   24.8963      303.000      313.000      319.000      347.000      363.000
   24.9506      400.000      438.000      465.000      530.000      556.000
   25.0050      586.000      641.000      632.000      596.000      662.000
   25.0593      711.000      712.000      795.000      833.000      825.000
   25.1136      961.000      920.000      909.000      976.000      904.000
   25.1680      901.000      898.000      824.000      872.000      759.000
   25.2223      690.000      683.000      644.000      575.000      573.000
   25.2766      569.000      551.000      529.000      496.000      517.000
   25.3310      479.000      466.000      450.000      453.000      421.000
   25.3853      423.000      397.000      412.000      392.000      410.000
   25.4396      352.000      362.000      325.000      329.000      303.000
   25.4940      305.000      309.000      244.000      226.000      223.000
   25.5483      190.000      212.000      196.000      219.000      185.000
   25.6026      189.000      176.000      192.000      182.000      198.000
   25.6570      180.000      191.000      181.000      188.000      181.000
   25.7113      179.000      162.000      192.000      189.000      179.000
   25.7656      198.000      185.000      203.000      192.000      208.000
   25.8200      186.000      160.000      192.000      173.000      194.000
   25.8743      170.000      168.000      181.000      192.000      173.000
   25.9286      169.000      186.000      200.000      166.000      185.000
   25.9830      153.000      173.000      193.000      161.000      172.000
   26.0373      179.000      188.000      192.000      178.000      203.000
   26.0916      179.000      176.000      184.000      175.000      192.000
   26.1460      192.000      192.000      194.000      197.000      178.000
   26.2003      208.000      182.000      216.000      162.000      196.000
   26.2546      194.000      162.000      196.000      178.000      201.000
   26.3089      175.000      182.000      182.000      160.000      176.000
   26.3633      207.000      191.000      193.000      176.000      188.000
   26.4176      186.000      180.000      183.000      202.000      191.000
   26.4719      185.000      181.000      175.000      205.000      147.000
   26.5263      221.000      191.000      176.000      209.000      185.000
   26.5806      197.000      159.000      204.000      198.000      195.000
   26.6349      196.000      193.000      183.000      183.000      171.000
   26.6893      176.000      194.000      211.000      199.000      222.000
   26.7436      184.000      212.000      191.000      216.000      191.000
   26.7979      190.000      182.000      184.000      177.000      167.000
   26.8523      209.000      230.000      190.000      194.000      184.000
   26.9066      213.000      191.000      185.000      195.000      224.000
   26.9609      236.000      182.000      213.000      194.000      197.000
   27.0153      203.000      198.000      224.000      234.000      224.000
   27.0696      238.000      224.000      230.000      236.000      210.000
   27.1239      241.000      245.000      257.000      224.000      258.000
   27.1783      239.000      245.000      279.000      261.000      219.000
   27.2326      239.000      240.000      247.000      275.000      247.000
   27.2869      266.000      238.000      239.000      248.000      271.000
   27.3413      277.000      260.000      265.000      246.000      266.000
   27.3956      290.000      279.000      256.000      289.000      295.000
   27.4499      293.000      287.000      269.000      274.000      285.000
   27.5043      307.000      341.000      317.000      321.000      295.000
   27.5586      333.000      299.000      373.000      336.000      359.000
   27.6129      389.000      330.000      405.000      420.000      374.000
   27.6673      423.000      455.000      488.000      527.000      526.000
   27.7216      561.000      679.000      737.000      767.000      875.000
   27.7759     1016.000     1163.000     1384.000     1541.000     1920.000
   27.8302     2334.000     2825.000     3605.000     4172.000     5005.000
   27.8846     5339.000     5758.000     5423.000     5658.000     5164.000
   27.9389     5301.000     5377.000     5602.000     5527.000     5831.000
   27.9932     5655.000     6621.000     6410.000     7132.000     6530.000
   28.0476     6611.000     5743.000     5741.000     5685.000     5537.000
   28.1019     5619.000     5117.000     4788.000     4526.000     4709.000
   28.1562     4810.000     5327.000     5080.000     5363.000     4805.000
   28.2106     4037.000     3319.000     2902.000     2773.000     2700.000
   28.2649     2506.000     2101.000     1698.000     1244.000      983.000
   28.3192      816.000      754.000      698.000      696.000      687.000
   28.3736      671.000      589.000      574.000      588.000      603.000
   28.4279      561.000      495.000      523.000      504.000      557.000
   28.4822      546.000      571.000      611.000      620.000      639.000
   28.5366      572.000      570.000      494.000      481.000      491.000
   28.5909      535.000      577.000      613.000      689.000      731.000
   28.6452      878.000      971.000      932.000      883.000      861.000
   28.6996      865.000      913.000      988.000      977.000      970.000
   28.7539      925.000      853.000      725.000      729.000      625.000
   28.8082      548.000      505.000      486.000      472.000      424.000
   28.8626      415.000      353.000      337.000      330.000      285.000
   28.9169      306.000      274.000      295.000      284.000      330.000
   28.9712      269.000      286.000      289.000      295.000      274.000
   29.0256      246.000      262.000      271.000      272.000      268.000
   29.0799      213.000      248.000      246.000      256.000      280.000
   29.1342      258.000      232.000      225.000      263.000      205.000
   29.1886      228.000      220.000      176.000      207.000      194.000
   29.2429      225.000      221.000      224.000      237.000      205.000
   29.2972      216.000      229.000      201.000      213.000      227.000
   29.3516      207.000      222.000      225.000      218.000      226.000
   29.4059      233.000      219.000      155.000      235.000      201.000
   29.4602      222.000      243.000      214.000      222.000      236.000
   29.5145      218.000      198.000      235.000      210.000      199.000
   29.5689      209.000      211.000      213.000      213.000      209.000
   29.6232      197.000      202.000      200.000      217.000      204.000
   29.6775      231.000      206.000      197.000      197.000      191.000
   29.7319      200.000      191.000      186.000      192.000      240.000
   29.7862      230.000      206.000      215.000      201.000      233.000
   29.8405      205.000      241.000      236.000      201.000      237.000
   29.8949      206.000      257.000      195.000      223.000      215.000
   29.9492      237.000      193.000      212.000      209.000      190.000
   30.0035      217.000      207.000      207.000      210.000      214.000
   30.0579      220.000      205.000      196.000      225.000      242.000
   30.1122      217.000      220.000      230.000      262.000      279.000
   30.1665      257.000      297.000      232.000      226.000      248.000
   30.2209      241.000      290.000      277.000      280.000      265.000
   30.2752      248.000      249.000      246.000      270.000      276.000
   30.3295      289.000      273.000      267.000      287.000      276.000
   30.3839      269.000      284.000      278.000      287.000      305.000
   30.4382      311.000      324.000      310.000      336.000      315.000
   30.4925      340.000      380.000      384.000      342.000      433.000
   30.5469      354.000      389.000      385.000      360.000      341.000
   30.6012      356.000      355.000      329.000      402.000      359.000
   30.6555      340.000      363.000      349.000      375.000      404.000
   30.7099      424.000      475.000      494.000      478.000      450.000
   30.7642      430.000      404.000      410.000      389.000      380.000
   30.8185      396.000      367.000      375.000      375.000      380.000
   30.8729      353.000      433.000      464.000      572.000      644.000
   30.9272      699.000      699.000      661.000      582.000      585.000
   30.9815      469.000      492.000      503.000      552.000      464.000
   31.0358      394.000      337.000      300.000      240.000      216.000
   31.0902      241.000      209.000      249.000      216.000      244.000
   31.1445      190.000      193.000      201.000      201.000      218.000
   31.1988      200.000      195.000      183.000      202.000      181.000
   31.2532      204.000      200.000      199.000      206.000      203.000
   31.3075      203.000      198.000      197.000      207.000      211.000
   31.3618      242.000      195.000      222.000      233.000      231.000
   31.4162      209.000      214.000      210.000      202.000      203.000
   31.4705      229.000      211.000      239.000      208.000      214.000
   31.5248      210.000      200.000      209.000      239.000      225.000
   31.5792      249.000      260.000      248.000      328.000      333.000
   31.6335      378.000      425.000      422.000      435.000      427.000
   31.6878      398.000      383.000      388.000      453.000      492.000
   31.7422      509.000      548.000      475.000      445.000      438.000
   31.7965      417.000      445.000      448.000      440.000      535.000
   31.8508      511.000      505.000      472.000      428.000      409.000
   31.9052      444.000      462.000      470.000      460.000      419.000
   31.9595      443.000      430.000      351.000      363.000      416.000
   32.0138      370.000      395.000      406.000      326.000      271.000
   32.0682      250.000      265.000      272.000      271.000      225.000
   32.1225      213.000      241.000      205.000      202.000      198.000
   32.1768      211.000      187.000      193.000      196.000      198.000
   32.2312      212.000      210.000      219.000      197.000      194.000
   32.2855      207.000      194.000      189.000      174.000      198.000
   32.3398      183.000      158.000      169.000      191.000      187.000
   32.3942      192.000      181.000      201.000      207.000      183.000
   32.4485      206.000      206.000      249.000      208.000      215.000
   32.5028      222.000      219.000      212.000      242.000      239.000
   32.5572      239.000      246.000      260.000      259.000      269.000
   32.6115      291.000      268.000      331.000      292.000      282.000
   32.6658      311.000      379.000      356.000      427.000      471.000
   32.7201      570.000      590.000      599.000      623.000      577.000
   32.7745      594.000      641.000      627.000      714.000      751.000
   32.8288      738.000      726.000      671.000      529.000      555.000
   32.8831      496.000      446.000      441.000      442.000      390.000
   32.9375      339.000      315.000      286.000      275.000      264.000
   32.9918      246.000      262.000      259.000      260.000      237.000
   33.0461      233.000      245.000      295.000      311.000      367.000
   33.1005      411.000      414.000      515.000      558.000      559.000
   33.1548      582.000      565.000      559.000      627.000      542.000
   33.2091      601.000      585.000      639.000      663.000      627.000
   33.2635      625.000      615.000      608.000      574.000      620.000
   33.3178      617.000      697.000      785.000      956.000     1018.000
   33.3721     1099.000     1127.000     1108.000      925.000      932.000
   33.4265      855.000      812.000      780.000      716.000      651.000
   33.4808      639.000      580.000      547.000      477.000      371.000
   33.5351      404.000      377.000      386.000      337.000      327.000
   33.5895      319.000      332.000      287.000      311.000      312.000
   33.6438      334.000      323.000      307.000      286.000      303.000
   33.6981      298.000      287.000      237.000      228.000      236.000
   33.7525      242.000      256.000      259.000      236.000      218.000
   33.8068      235.000      215.000      214.000      208.000      197.000
   33.8611      227.000      196.000      188.000      225.000      183.000
   33.9155      183.000      196.000      209.000      183.000      189.000
   33.9698      198.000      193.000      160.000      175.000      164.000
   34.0241      171.000      197.000      197.000      164.000      191.000
   34.0785      160.000      168.000      185.000      170.000      168.000
   34.1328      186.000      198.000      154.000      188.000      209.000
   34.1871      200.000      180.000      206.000      172.000      172.000
   34.2414      199.000      186.000      178.000      180.000      166.000
   34.2958      164.000      199.000      160.000      175.000      179.000
   34.3501      193.000      190.000      182.000      180.000      181.000
   34.4044      168.000      188.000      165.000      188.000      180.000
   34.4588      209.000      177.000      171.000      179.000      189.000
   34.5131      193.000      205.000      188.000      197.000      221.000
   34.5674      202.000      201.000      203.000      195.000      225.000
   34.6218      260.000      266.000      324.000      335.000      380.000
   34.6761      465.000      469.000      561.000      459.000      490.000
   34.7304      462.000      474.000      480.000      531.000      560.000
   34.7848      565.000      566.000      528.000      539.000      538.000
   34.8391      530.000      587.000      521.000      515.000      491.000
   34.8934      469.000      449.000      453.000      436.000      453.000
   34.9478      408.000      423.000      439.000      401.000      392.000
   35.0021      303.000      317.000      287.000      307.000      246.000
   35.0564      341.000      274.000      328.000      278.000      307.000
   35.1108      288.000      315.000      294.000      270.000      302.000
   35.1651      304.000      291.000      320.000      305.000      311.000
   35.2194      310.000      328.000      335.000      382.000      404.000
   35.2738      478.000      545.000      593.000      667.000      691.000
   35.3281      838.000      873.000     1107.000     1003.000     1046.000
   35.3824      988.000      829.000      934.000      881.000      991.000
   35.4368      873.000      926.000      883.000      871.000      867.000
   35.4911      927.000      955.000     1026.000     1096.000     1226.000
   35.5454     1606.000     1866.000     2192.000     2237.000     2062.000
   35.5998     1732.000     1349.000     1026.000     1033.000     1029.000
   35.6541     1219.000     1219.000     1123.000      953.000      698.000
   35.7084      517.000      436.000      401.000      290.000      300.000
   35.7627      273.000      269.000      257.000      226.000      240.000
   35.8171      193.000      221.000      243.000      232.000      218.000
   35.8714      213.000      190.000      206.000      205.000      200.000
   35.9257      208.000      228.000      204.000      195.000      160.000
   35.9801      190.000      190.000      199.000      162.000      203.000
   36.0344      199.000      166.000      180.000      162.000      195.000
   36.0887      176.000      172.000      194.000      181.000      162.000
   36.1431      163.000      160.000      152.000      186.000      172.000
   36.1974      170.000      157.000      172.000      159.000      175.000
   36.2517      180.000      158.000      160.000      168.000      178.000
   36.3061      191.000      166.000      167.000      180.000      177.000
   36.3604      184.000      161.000      187.000      166.000      173.000
   36.4147      162.000      159.000      191.000      163.000      177.000
   36.4691      199.000      179.000      192.000      201.000      200.000
   36.5234      178.000      225.000      206.000      186.000      199.000
   36.5777      218.000      212.000      237.000      228.000      241.000
   36.6321      215.000      233.000      271.000      262.000      240.000
   36.6864      245.000      233.000      239.000      210.000      222.000
   36.7407      231.000      209.000      215.000      221.000      229.000
   36.7951      213.000      226.000      207.000      225.000      203.000
   36.8494      205.000      220.000      192.000      213.000      214.000
   36.9037      198.000      207.000      207.000      209.000      212.000
   36.9581      216.000      203.000      225.000      193.000      181.000
   37.0124      183.000      204.000      196.000      206.000      204.000
   37.0667      166.000      204.000      193.000      189.000      160.000
   37.1211      160.000      172.000      184.000      187.000      207.000
   37.1754      154.000      173.000      172.000      159.000      147.000
   37.2297      172.000      177.000      171.000      169.000      166.000
   37.2841      141.000      175.000      188.000      174.000      155.000
   37.3384      145.000      149.000      149.000      179.000      151.000
   37.3927      149.000      152.000      170.000      159.000      167.000
   37.4470      145.000      170.000      153.000      197.000      163.000
   37.5014      171.000      160.000      185.000      153.000      177.000
   37.5557      176.000      171.000      163.000      171.000      157.000
   37.6100      155.000      172.000      148.000      152.000      172.000
   37.6644      164.000      157.000      182.000      180.000      199.000
   37.7187      176.000      159.000      188.000      198.000      187.000
   37.7730      190.000      172.000      183.000      202.000      225.000
   37.8274      243.000      240.000      303.000      307.000      353.000
   37.8817      353.000      334.000      336.000      335.000      292.000
   37.9360      301.000      330.000      299.000      352.000      291.000
   37.9904      301.000      304.000      306.000      318.000      325.000
   38.0447      257.000      247.000      248.000      290.000      266.000
   38.0990      236.000      259.000      230.000      213.000      198.000
   38.1534      192.000      204.000      224.000      211.000      189.000
   38.2077      205.000      177.000      161.000      188.000      158.000
   38.2620      189.000      167.000      196.000      174.000      167.000
   38.3164      189.000      184.000      162.000      162.000      202.000
   38.3707      166.000      167.000      167.000      169.000      172.000
   38.4250      205.000      178.000      166.000      170.000      169.000
   38.4794      168.000      147.000      172.000      177.000      165.000
   38.5337      136.000      193.000      179.000      165.000      172.000
   38.5880      160.000      138.000      148.000      158.000      163.000
   38.6424      162.000      173.000      157.000      180.000      165.000
   38.6967      165.000      169.000      177.000      178.000      178.000
   38.7510      163.000      172.000      155.000      161.000      151.000
   38.8054      168.000      147.000      169.000      171.000      153.000
   38.8597      180.000      176.000      167.000      169.000      154.000
   38.9140      151.000      191.000      185.000      165.000      123.000
   38.9683      162.000      177.000      154.000      169.000      181.000
   39.0227      154.000      174.000      176.000      172.000      177.000
   39.0770      184.000      182.000      217.000      189.000      216.000
   39.1313      210.000      222.000      206.000      210.000      226.000
   39.1857      205.000      203.000      234.000      244.000      265.000
   39.2400      247.000      230.000      234.000      238.000      260.000
   39.2943      228.000      261.000      265.000      296.000      245.000
   39.3487      291.000      257.000      235.000      274.000      264.000
   39.4030      294.000      278.000      306.000      304.000      317.000
   39.4573      320.000      354.000      393.000      360.000      359.000
   39.5117      385.000      391.000      374.000      429.000      476.000
   39.5660      442.000      467.000      480.000      493.000      527.000
   39.6203      506.000      489.000      506.000      486.000      518.000
   39.6747      482.000      535.000      536.000      514.000      487.000
   39.7290      510.000      493.000      536.000      525.000      604.000
   39.7833      610.000      544.000      518.000      457.000      433.000
   39.8377      390.000      345.000      374.000      399.000      403.000
   39.8920      444.000      417.000      409.000      390.000      350.000
   39.9463      393.000      386.000      390.000      428.000      313.000
   40.0007      294.000      286.000      307.000      283.000      283.000
   40.0550      335.000      307.000      321.000      290.000      258.000
   40.1093      250.000      223.000      228.000      241.000      220.000
   40.1637      225.000      198.000      213.000      188.000      192.000
   40.2180      160.000      182.000      195.000      183.000      210.000
   40.2723      191.000      201.000      198.000      190.000      175.000
   40.3267      153.000      173.000      160.000      151.000      179.000
   40.3810      160.000      176.000      208.000      161.000      151.000
   40.4353      156.000      182.000      168.000      127.000      152.000
   40.4897      142.000      168.000      141.000      182.000      155.000
   40.5440      171.000      171.000      165.000      164.000      167.000
   40.5983      167.000      154.000      167.000      150.000      145.000
   40.6526      170.000      149.000      186.000      165.000      183.000
   40.7070      181.000      148.000      140.000      152.000      164.000
   40.7613      171.000      164.000      183.000      161.000      184.000
   40.8156      167.000      196.000      152.000      153.000      153.000
   40.8700      170.000      171.000      157.000      150.000      189.000
   40.9243      177.000      164.000      164.000      164.000      168.000
   40.9786      153.000      176.000      174.000      142.000      163.000
   41.0330      171.000      176.000      150.000      133.000      145.000
   41.0873      162.000      164.000      137.000      144.000      163.000
   41.1416      137.000      143.000      143.000      159.000      159.000
   41.1960      159.000      156.000      164.000      171.000      160.000
   41.2503      174.000      163.000      147.000      148.000      165.000
   41.3046      153.000      131.000      145.000      143.000      147.000
   41.3590      139.000      155.000      169.000      158.000      148.000
   41.4133      157.000      153.000      145.000      153.000      156.000
   41.4676      129.000      129.000      147.000      158.000      146.000
   41.5220      154.000      146.000      129.000      153.000      120.000
   41.5763      138.000      158.000      135.000      149.000      161.000
   41.6306      153.000      153.000      173.000      160.000      170.000
   41.6850      156.000      149.000      150.000      120.000      161.000
   41.7393      148.000      172.000      142.000      171.000      133.000
   41.7936      169.000      133.000      160.000      117.000      132.000
   41.8480      149.000      161.000      148.000      141.000      157.000
   41.9023      162.000      147.000      156.000      130.000      160.000
   41.9566      179.000      130.000      182.000      147.000      121.000
   42.0110      167.000      138.000      176.000      179.000      197.000
   42.0653      169.000      174.000      164.000      167.000      156.000
   42.1196      164.000      165.000      133.000      177.000      161.000
   42.1739      162.000      192.000      156.000      188.000      131.000
   42.2283      179.000      157.000      165.000      151.000      181.000
   42.2826      145.000      188.000      170.000      159.000      151.000
   42.3369      131.000      154.000      148.000      146.000      159.000
   42.3913      151.000      125.000      143.000      146.000      170.000
   42.4456      132.000      150.000      139.000      138.000      140.000
   42.4999      131.000      159.000      163.000      157.000      148.000
   42.5543      162.000      164.000      167.000      136.000      140.000
   42.6086      155.000      155.000      134.000      164.000      141.000
   42.6629      141.000      150.000      124.000      140.000      147.000
   42.7173      146.000      135.000      169.000      168.000      166.000
   42.7716      179.000      168.000      168.000      127.000      139.000
   42.8259      145.000      153.000      140.000      165.000      134.000
   42.8803      159.000      167.000      183.000      149.000      163.000
   42.9346      163.000      183.000      165.000      169.000      154.000
   42.9889      171.000      151.000      164.000      173.000      175.000
   43.0433      154.000      185.000      154.000      177.000      161.000
   43.0976      168.000      160.000      183.000      171.000      167.000
   43.1519      153.000      170.000      170.000      165.000      152.000
   43.2063      183.000      146.000      159.000      177.000      149.000
   43.2606      168.000      164.000      176.000      155.000      155.000
   43.3149      163.000      161.000      167.000      142.000      149.000
   43.3693      147.000      141.000      151.000      129.000      158.000
   43.4236      166.000      139.000      156.000      146.000      184.000
   43.4779      149.000      158.000      132.000      149.000      155.000
   43.5323      168.000      179.000      170.000      163.000      151.000
   43.5866      170.000      152.000      181.000      168.000      145.000
   43.6409      154.000      148.000      158.000      156.000      155.000
   43.6953      141.000      168.000      155.000      192.000      164.000
   43.7496      179.000      187.000      190.000      197.000      172.000
   43.8039      175.000      194.000      180.000      197.000      182.000
   43.8582      174.000      154.000      207.000      183.000      199.000
   43.9126      200.000      217.000      192.000      207.000      196.000
   43.9669      182.000      197.000      204.000      197.000      179.000
   44.0212      190.000      173.000      234.000      175.000      177.000
   44.0756      176.000      180.000      189.000      183.000      182.000
   44.1299      160.000      155.000      176.000      146.000      188.000
   44.1842      194.000      173.000      148.000      176.000      179.000
   44.2386      174.000      153.000      162.000      163.000      158.000
   44.2929      161.000      145.000      157.000      151.000      160.000
   44.3472      144.000      185.000      152.000      170.000      143.000
   44.4016      168.000      161.000      140.000      136.000      157.000
   44.4559      188.000      170.000      169.000      176.000      175.000
   44.5102      179.000      158.000      172.000      157.000      136.000
   44.5646      169.000      175.000      180.000      188.000      176.000
   44.6189      183.000      154.000      155.000      150.000      159.000
   44.6732      160.000      181.000      195.000      190.000      186.000
   44.7276      214.000      225.000      239.000      277.000      276.000
   44.7819      276.000      284.000      239.000      231.000      239.000
   44.8362      256.000      238.000      247.000      258.000      271.000
   44.8906      294.000      280.000      283.000      285.000      241.000
   44.9449      276.000      293.000      335.000      389.000      469.000
   44.9992      465.000      453.000      406.000      424.000      310.000
   45.0536      323.000      315.000      273.000      284.000      327.000
   45.1079      289.000      338.000      294.000      293.000      295.000
   45.1622      249.000      229.000      220.000      203.000      184.000
   45.2166      183.000      196.000      167.000      140.000      153.000
   45.2709      154.000      183.000      179.000      147.000      151.000
   45.3252      152.000      152.000      164.000      163.000      172.000
   45.3795      164.000      158.000      159.000      185.000      170.000
   45.4339      172.000      153.000      153.000      164.000      184.000
   45.4882      162.000      158.000      180.000      181.000      155.000
   45.5425      140.000      133.000      160.000      145.000      167.000
   45.5969      159.000      164.000      159.000      152.000      136.000
   45.6512      174.000      168.000      168.000      166.000      154.000
   45.7055      142.000      167.000      163.000      157.000      169.000
   45.7599      183.000      165.000      167.000      163.000      186.000
   45.8142      175.000      184.000      188.000      188.000      177.000
   45.8685      182.000      189.000      202.000      180.000      230.000
   45.9229      199.000      234.000      224.000      212.000      229.000
   45.9772      238.000      244.000      238.000      274.000      277.000
   46.0315      263.000      263.000      238.000      239.000      243.000
   46.0859      282.000      276.000      259.000      280.000      233.000
   46.1402      240.000      244.000      243.000      224.000      243.000
   46.1945      260.000      232.000      197.000      229.000      198.000
   46.2489      188.000      198.000      197.000      198.000      182.000
   46.3032      194.000      201.000      207.000      211.000      183.000
   46.3575      185.000      190.000      182.000      195.000      180.000
   46.4119      202.000      181.000      194.000      213.000      212.000
   46.4662      224.000      261.000      260.000      234.000      266.000
   46.5205      314.000      352.000      419.000      458.000      506.000
   46.5749      535.000      555.000      591.000      569.000      650.000
   46.6292      682.000      705.000      701.000      770.000      793.000
   46.6835      801.000      772.000      700.000      730.000      700.000
   46.7379      656.000      674.000      689.000      711.000      696.000
   46.7922      574.000      640.000      548.000      562.000      544.000
   46.8465      504.000      486.000      489.000      463.000      361.000
   46.9009      371.000      334.000      324.000      319.000      341.000
   46.9552      316.000      313.000      293.000      295.000      280.000
   47.0095      250.000      241.000      240.000      246.000      302.000
   47.0638      269.000      313.000      336.000      301.000      292.000
   47.1182      312.000      297.000      275.000      239.000      242.000
   47.1725      220.000      221.000      243.000      238.000      274.000
   47.2268      244.000      221.000      236.000      223.000      207.000
   47.2812      195.000      205.000      183.000      189.000      187.000
   47.3355      186.000      202.000      158.000      200.000      158.000
   47.3898      173.000      120.000      156.000      188.000      169.000
   47.4442      183.000      168.000      156.000      150.000      188.000
   47.4985      152.000      170.000      170.000      172.000      191.000
   47.5528      177.000      180.000      181.000      172.000      213.000
   47.6072      166.000      181.000      208.000      168.000      200.000
   47.6615      200.000      186.000      198.000      162.000      152.000
   47.7158      176.000      192.000      203.000      160.000      187.000
   47.7702      186.000      194.000      198.000      188.000      172.000
   47.8245      193.000      190.000      199.000      176.000      222.000
   47.8788      174.000      208.000      191.000      159.000      139.000
   47.9332      169.000      178.000      178.000      171.000      174.000
   47.9875      177.000      155.000      169.000      189.000      184.000
   48.0418      155.000      167.000      170.000      164.000      193.000
   48.0962      184.000      182.000      164.000      148.000      178.000
   48.1505      180.000      157.000      172.000      160.000      175.000
   48.2048      155.000      168.000      165.000      164.000      160.000
   48.2592      201.000      172.000      166.000      176.000      155.000
   48.3135      156.000      177.000      165.000      145.000      171.000
   48.3678      191.000      181.000      186.000      182.000      151.000
   48.4222      171.000      175.000      181.000      185.000      232.000
   48.4765      196.000      199.000      215.000      223.000      173.000
   48.5308      181.000      182.000      174.000      161.000      217.000
   48.5851      165.000      178.000      207.000      208.000      187.000
   48.6395      163.000      189.000      187.000      195.000      165.000
   48.6938      153.000      183.000      181.000      209.000      212.000
   48.7481      173.000      170.000      182.000      181.000      200.000
   48.8025      183.000      182.000      191.000      188.000      185.000
   48.8568      172.000      154.000      202.000      185.000      194.000
   48.9111      186.000      172.000      153.000      187.000      184.000
   48.9655      173.000      202.000      186.000      192.000      193.000
   49.0198      178.000      182.000      186.000      221.000      215.000
   49.0741      219.000      226.000      203.000      210.000      219.000
   49.1285      214.000      203.000      225.000      229.000      270.000
   49.1828      270.000      280.000      235.000      262.000      268.000
   49.2371      269.000      271.000      341.000      372.000      411.000
   49.2915      453.000      497.000      525.000      474.000      462.000
   49.3458      395.000      324.000      278.000      306.000      260.000
   49.4001      313.000      298.000      345.000      287.000      366.000
   49.4545      303.000      285.000      259.000      226.000      230.000
   49.5088      223.000      187.000      179.000      210.000      204.000
   49.5631      215.000      171.000      191.000      209.000      196.000
   49.6175      193.000      194.000      169.000      192.000      209.000
   49.6718      173.000      182.000      181.000      207.000      178.000
   49.7261      202.000      223.000      210.000      244.000      232.000
   49.7805      198.000      192.000      217.000      232.000      227.000
   49.8348      204.000      220.000      241.000      270.000      300.000
   49.8891      300.000      299.000      275.000      234.000      275.000
   49.9435      324.000      296.000      290.000      284.000      335.000
   49.9978      330.000      339.000      355.000      312.000      310.000
   50.0521      351.000      292.000      268.000      294.000      258.000
   50.1065      288.000      283.000      288.000      271.000      265.000
   50.1608      218.000      232.000      223.000      207.000      221.000
   50.2151      212.000      197.000      224.000      176.000      184.000
   50.2694      177.000      187.000      189.000      189.000      208.000
   50.3238      166.000      196.000      203.000      177.000      184.000
   50.3781      180.000      198.000      193.000      206.000      203.000
   50.4324      204.000      192.000      212.000      214.000      207.000
   50.4868      216.000      201.000      203.000      207.000      208.000
   50.5411      180.000      170.000      211.000      211.000      194.000
   50.5954      213.000      209.000      206.000      186.000      190.000
   50.6498      193.000      184.000      227.000      236.000      204.000
   50.7041      202.000      205.000      227.000      211.000      234.000
   50.7584      193.000      204.000      196.000      229.000      211.000
   50.8128      219.000      234.000      237.000      273.000      266.000
   50.8671      281.000      337.000      366.000      422.000      427.000
   50.9214      433.000      411.000      401.000      427.000      429.000
   50.9758      478.000      508.000      544.000      595.000      567.000
   51.0301      612.000      715.000      766.000      832.000      823.000
   51.0844      875.000      800.000      793.000      786.000      751.000
   51.1388      751.000      703.000      630.000      655.000      598.000
   51.1931      644.000      633.000      648.000      615.000      673.000
   51.2474      694.000      659.000      720.000      764.000      672.000
   51.3018      696.000      663.000      553.000      539.000      605.000
   51.3561      579.000      617.000      660.000      749.000      727.000
   51.4104      801.000      746.000      681.000      730.000      630.000
   51.4648      622.000      600.000      549.000      541.000      575.000
   51.5191      469.000      521.000      483.000      484.000      487.000
   51.5734      443.000      387.000      384.000      345.000      334.000
   51.6278      312.000      297.000      241.000      259.000      232.000
   51.6821      262.000      196.000      220.000      202.000      218.000
   51.7364      216.000      203.000      203.000      204.000      172.000
   51.7907      197.000      179.000      191.000      193.000      180.000
   51.8451      191.000      183.000      179.000      166.000      176.000
   51.8994      193.000      180.000      176.000      180.000      180.000
   51.9537      160.000      194.000      183.000      198.000      185.000
   52.0081      172.000      177.000      174.000      153.000      186.000
   52.0624      167.000      164.000      171.000      184.000      187.000
   52.1167      180.000      196.000      171.000      168.000      149.000
   52.1711      174.000      160.000      168.000      168.000      189.000
   52.2254      162.000      152.000      161.000      150.000      180.000
   52.2797      161.000      191.000      172.000      168.000      166.000
   52.3341      174.000      169.000      180.000      150.000      155.000
   52.3884      170.000      157.000      152.000      180.000      171.000
   52.4427      161.000      166.000      155.000      164.000      162.000
   52.4971      143.000      157.000      150.000      161.000      176.000
   52.5514      161.000      158.000      126.000      166.000      157.000
   52.6057      169.000      154.000      150.000      156.000      154.000
   52.6601      139.000      159.000      163.000      160.000      189.000
   52.7144      167.000      155.000      154.000      182.000      175.000
   52.7687      150.000      153.000      155.000      160.000      169.000
   52.8231      142.000      159.000      153.000      182.000      167.000
   52.8774      166.000      184.000      154.000      173.000      189.000
   52.9317      180.000      163.000      162.000      165.000      163.000
   52.9861      180.000      189.000      175.000      167.000      167.000
   53.0404      163.000      169.000      146.000      168.000      160.000
   53.0947      166.000      165.000      132.000      148.000      163.000
   53.1491      180.000      166.000      163.000      166.000      168.000
   53.2034      190.000      188.000      189.000      207.000      166.000
   53.2577      180.000      210.000      200.000      172.000      200.000
   53.3121      173.000      190.000      193.000      187.000      187.000
   53.3664      195.000      186.000      208.000      172.000      207.000
   53.4207      193.000      211.000      191.000      179.000      170.000
   53.4750      177.000      174.000      185.000      161.000      188.000
   53.5294      165.000      187.000      160.000      176.000      146.000
   53.5837      173.000      167.000      161.000      143.000      163.000
   53.6380      191.000      179.000      173.000      152.000      147.000
   53.6924      171.000      146.000      163.000      150.000      156.000
   53.7467      191.000      151.000      170.000      150.000      171.000
   53.8010      142.000      160.000      133.000      158.000      144.000
   53.8554      149.000      148.000      170.000      189.000      162.000
   53.9097      157.000      157.000      132.000      162.000      157.000
   53.9640      150.000      155.000      150.000      158.000      151.000
   54.0184      153.000      145.000      177.000      170.000      151.000
   54.0727      192.000      167.000      175.000      156.000      179.000
   54.1270      176.000      143.000      160.000      145.000      179.000
   54.1814      159.000      163.000      182.000      197.000      211.000
   54.2357      216.000      224.000      276.000      290.000      323.000
   54.2900      289.000      266.000      273.000      267.000      264.000
   54.3444      241.000      248.000      232.000      239.000      257.000
   54.3987      279.000      285.000      317.000      327.000      369.000
   54.4530      431.000      462.000      560.000      606.000      634.000
   54.5074      558.000      420.000      345.000      302.000      273.000
   54.5617      264.000      209.000      244.000      262.000      314.000
   54.6160      315.000      379.000      372.000      333.000      363.000
   54.6704      273.000      257.000      223.000      222.000      188.000
   54.7247      197.000      219.000      165.000      175.000      179.000
   54.7790      163.000      174.000      173.000      177.000      165.000
   54.8334      172.000      172.000      149.000      180.000      169.000
   54.8877      188.000      154.000      231.000      193.000      171.000
   54.9420      174.000      193.000      201.000      192.000      161.000
   54.9963      168.000      178.000      177.000      159.000      189.000
   55.0507      166.000      180.000      169.000      176.000      166.000
   55.1050      156.000      186.000      180.000      162.000      180.000
   55.1593      163.000      177.000      175.000      168.000      158.000
   55.2137      166.000      185.000      162.000      190.000      144.000
   55.2680      148.000      160.000      159.000      174.000      192.000
   55.3223      158.000      172.000      149.000      157.000      135.000
   55.3767      171.000      145.000      147.000      164.000      150.000
   55.4310      149.000      158.000      149.000      154.000      166.000
   55.4853      151.000      147.000      158.000      142.000      165.000
   55.5397      127.000      162.000      137.000      152.000      163.000
   55.5940      158.000      144.000      143.000      152.000      133.000
   55.6483      153.000      146.000      143.000      129.000      146.000
   55.7027      136.000      175.000      142.000      156.000      157.000
   55.7570      164.000      153.000      140.000      156.000      131.000
   55.8113      158.000      165.000      159.000      161.000      148.000
   55.8657      145.000      159.000      161.000      150.000      173.000
   55.9200      181.000      146.000      161.000      167.000      159.000
   55.9743      174.000      170.000      170.000      171.000      185.000
   56.0287      216.000      190.000      168.000      182.000      187.000
   56.0830      144.000      155.000      156.000      196.000      146.000
   56.1373      172.000      164.000      163.000      159.000      188.000
   56.1917      191.000      182.000      171.000      177.000      179.000
   56.2460      189.000      180.000      141.000      172.000      171.000
   56.3003      165.000      160.000      134.000      172.000      142.000
   56.3547      154.000      142.000      133.000      153.000      170.000
   56.4090      165.000      144.000      147.000      152.000      158.000
   56.4633      122.000      152.000      166.000      158.000      163.000
   56.5177      177.000      183.000      153.000      155.000      157.000
   56.5720      158.000      138.000      151.000      165.000      146.000
   56.6263      183.000      187.000      136.000      198.000      156.000
   56.6806      168.000      175.000      159.000      191.000      187.000
   56.7350      189.000      181.000      182.000      189.000      160.000
   56.7893      146.000      175.000      206.000      196.000      208.000
   56.8436      225.000      236.000      278.000      332.000      391.000
   56.8980      441.000      543.000      540.000      508.000      454.000
   56.9523      438.000      395.000      414.000      421.000      423.000
   57.0066      445.000      482.000      474.000      526.000      540.000
   57.0610      631.000      619.000      740.000      789.000      937.000
   57.1153     1033.000     1166.000     1227.000     1120.000      940.000
   57.1696      941.000      780.000      669.000      593.000      495.000
   57.2240      447.000      455.000      495.000      532.000      570.000
   57.2783      619.000      601.000      640.000      602.000      482.000
   57.3326      427.000      348.000      290.000      299.000      233.000
   57.3870      256.000      224.000      211.000      205.000      179.000
   57.4413      184.000      164.000      168.000      170.000      176.000
   57.4956      179.000      181.000      175.000      171.000      161.000
   57.5500      149.000      168.000      191.000      155.000      158.000
   57.6043      165.000      146.000      167.000      150.000      169.000
   57.6586      135.000      173.000      169.000      171.000      165.000
   57.7130      162.000      177.000      149.000      168.000      182.000
   57.7673      160.000      188.000      195.000      192.000      211.000
   57.8216      193.000      185.000      228.000      184.000      150.000
   57.8760      204.000      198.000      217.000      199.000      215.000
   57.9303      221.000      244.000      247.000      278.000      256.000
   57.9846      248.000      208.000      244.000      222.000      283.000
   58.0390      263.000      238.000      262.000      269.000      265.000
   58.0933      216.000      247.000      222.000      221.000      224.000
   58.1476      245.000      238.000      233.000      261.000      244.000
   58.2019      273.000      261.000      203.000      247.000      210.000
   58.2563      237.000      201.000      223.000      218.000      200.000
   58.3106      187.000      190.000      198.000      195.000      197.000
   58.3649      205.000      181.000      181.000      188.000      189.000
   58.4193      188.000      173.000      183.000      185.000      183.000
   58.4736      213.000      242.000      234.000      284.000      300.000
   58.5279      333.000      301.000      353.000      322.000      380.000
   58.5823      387.000      392.000      425.000      443.000      408.000
   58.6366      403.000      396.000      375.000      411.000      410.000
   58.6909      413.000      422.000      402.000      403.000      421.000
   58.7453      383.000      389.000      336.000      361.000      346.000
   58.7996      332.000      323.000      301.000      276.000      261.000
   58.8539      278.000      228.000      261.000      250.000      219.000
   58.9083      239.000      213.000      204.000      197.000      191.000
   58.9626      172.000      171.000      167.000      162.000      151.000
   59.0169      154.000      138.000      139.000      124.000      120.000
   59.0713      131.000      156.000      141.000      141.000      144.000
   59.1256      135.000      134.000      129.000      164.000      155.000
   59.1799      127.000      128.000      129.000      123.000      130.000
   59.2343      119.000      128.000      125.000      125.000      138.000
   59.2886      144.000      141.000      125.000      126.000      136.000
   59.3429      130.000      145.000      126.000      124.000      167.000
   59.3973      157.000      139.000      132.000      151.000      132.000
   59.4516      136.000      126.000      160.000      142.000      138.000
   59.5059      143.000      126.000      116.000      132.000      141.000
   59.5603      146.000      140.000      128.000      125.000      123.000
   59.6146      140.000      150.000      147.000      144.000      158.000
   59.6689      138.000      128.000      137.000      151.000      153.000
   59.7233      118.000      141.000      136.000      137.000      137.000
   59.7776      143.000      156.000      142.000      152.000      140.000
   59.8319      119.000      135.000      128.000      114.000      132.000
   59.8862      131.000      126.000      123.000      126.000      129.000
   59.9406      136.000      131.000      118.000      118.000      124.000
   59.9949      140.000
## END= 
