$$ -----------------------
$$ Labels defined by JCAMP
$$ -----------------------

## TITLE= Unknown
## JCAMP-DX= 4.24
## DATA TYPE= RD
## BLOCKS= 1
## ORIGIN= PANalytical B.V.
## OWNER= Copyright(C) 2004 by PANalytical B.V.
## DATE= 23/04/04
## TIME= 10:04:13
## SAMPLE DESCRIPTION= 
## SOURCE REFERENCE= Converted XRDML file

$$ ------------------------------------
$$ Labels defined by PANalytical
$$ ------------------------------------

$$ Wavelengths are given in Angstrom.
##$WAVELENGTH ALPHA1= 1.5405980
##$WAVELENGTH ALPHA2= 1.5444260
##$INTENSITY RATIO ALPHA2/ALPHA1= 0.5000000
##$MONOCHROMATOR= NO
##$SPINNING= YES
##$REVOLUTION TIME= 1.0
##$GENERATOR VOLTAGE= 40
##$TUBE CURRENT= 15
##$ANODE MATERIAL= Cu
##$TUBE FOCUS= LONG FINE
##$SCAN TYPE= CONTINUOUS
##$COUNT TIME= 58.395
##$DIVERGENCE SLIT= 0.45836

$$ -----------------------------------------------------
$$ Labels defined by PANalytical for PC-APD files
$$ -----------------------------------------------------

##$DIFFRACTOMETER= XPERT

$$ ------------------------------------------------------
$$ Labels defined by PANalytical for APD1700 files
$$ ------------------------------------------------------

##$TAKE OFF ANGLE= 6.000
##$DETECTOR TYPE= PIXcel3D-Medipix3 1x1 detector

$$ -----------------------
$$ Labels defined by JCAMP
$$ -----------------------

## XUNITS= TWO-THETA
## YUNITS= COUNTS
## XFACTOR= 1.0
## YFACTOR= 1.0
## FIRSTX= 3.0004332
## LASTX= 59.9949110
## DELTAX= 0.0108664
## NPOINTS= 5246
## FIRSTY= 105554.000
## MINX= 3.00043
## MAXX= 59.99491
## MINY= 1082.000
## MAXY= 191077.000
## XYDATA= X++<Y..Y>
    3.0004   105554.000   105059.000   103453.000   102815.000   101325.000
    3.0548    99593.000    98629.000    97150.000    96124.000    94961.000
    3.1091    94429.000    92773.000    91527.000    89724.000    88940.000
    3.1634    87838.000    86063.000    85150.000    84055.000    82943.000
    3.2178    82010.000    80607.000    79246.000    78190.000    77316.000
    3.2721    75400.000    74723.000    73275.000    72339.000    71332.000
    3.3264    70306.000    68680.000    68338.000    66784.000    65901.000
    3.3808    65267.000    63853.000    63468.000    61895.000    61647.000
    3.4351    60284.000    59593.000    58751.000    57903.000    57007.000
    3.4894    56018.000    54830.000    54234.000    53176.000    52185.000
    3.5438    51839.000    50596.000    49849.000    48967.000    48235.000
    3.5981    47632.000    46497.000    45810.000    45136.000    44316.000
    3.6524    43859.000    42926.000    42156.000    41529.000    40982.000
    3.7068    40274.000    39603.000    38872.000    38180.000    37492.000
    3.7611    37118.000    36335.000    35254.000    35462.000    34212.000
    3.8154    33923.000    32846.000    32538.000    32072.000    31424.000
    3.8697    30750.000    30114.000    29947.000    29342.000    28868.000
    3.9241    27929.000    27730.000    26882.000    26483.000    26010.000
    3.9784    25738.000    25079.000    24931.000    24121.000    23938.000
    4.0327    23336.000    22938.000    22225.000    21916.000    21475.000
    4.0871    21138.000    20769.000    20113.000    20032.000    19639.000
    4.1414    18994.000    18744.000    18419.000    18246.000    17676.000
    4.1957    17199.000    16807.000    16850.000    16307.000    16103.000
    4.2501    15735.000    15413.000    15241.000    14640.000    14598.000
    4.3044    13985.000    13867.000    13780.000    13446.000    13109.000
    4.3587    12723.000    12645.000    12359.000    12247.000    11829.000
    4.4131    12004.000    11565.000    11392.000    11221.000    11121.000
    4.4674    10737.000    10782.000    10568.000    10272.000    10003.000
    4.5217     9802.000     9838.000     9906.000     9576.000     9521.000
    4.5761     9359.000     9249.000     9324.000     9029.000     9061.000
    4.6304     8950.000     8830.000     8975.000     8781.000     8594.000
    4.6847     8652.000     8581.000     8560.000     8332.000     8483.000
    4.7391     8543.000     8528.000     8443.000     8370.000     8477.000
    4.7934     8464.000     8566.000     8403.000     8486.000     8562.000
    4.8477     8600.000     8641.000     8671.000     8728.000     8798.000
    4.9021     8739.000     9292.000     8909.000     9294.000     9210.000
    4.9564     9385.000     9653.000     9637.000     9635.000    10037.000
    5.0107     9903.000    10187.000    10151.000    10456.000    10513.000
    5.0651    10846.000    11050.000    11274.000    11301.000    11666.000
    5.1194    11831.000    12205.000    12276.000    12672.000    12971.000
    5.1737    13213.000    13566.000    14067.000    14660.000    15099.000
    5.2281    15980.000    16212.000    16790.000    17785.000    18143.000
    5.2824    18656.000    19289.000    20377.000    21316.000    22206.000
    5.3367    22744.000    23607.000    24403.000    25312.000    26739.000
    5.3911    27206.000    28489.000    29813.000    31233.000    32558.000
    5.4454    34332.000    35793.000    37526.000    39477.000    41422.000
    5.4997    44032.000    47124.000    50103.000    53321.000    57600.000
    5.5540    62321.000    68131.000    74732.000    81232.000    88260.000
    5.6084    93588.000    98810.000   103913.000   109555.000   117242.000
    5.6627   126040.000   133704.000   141299.000   148973.000   158511.000
    5.7170   166402.000   173658.000   180552.000   185471.000   189653.000
    5.7714   190248.000   191077.000   190332.000   189675.000   187445.000
    5.8257   187393.000   186110.000   184469.000   182548.000   182022.000
    5.8800   182970.000   185364.000   188170.000   190128.000   189453.000
    5.9344   187345.000   182079.000   175732.000   166387.000   154092.000
    5.9887   142592.000   128288.000   113655.000    97999.000    83341.000
    6.0430    70767.000    57964.000    49184.000    40618.000    34927.000
    6.0974    29263.000    25996.000    23101.000    21230.000    19314.000
    6.1517    18092.000    16549.000    15888.000    14130.000    13361.000
    6.2060    12528.000    12186.000    11369.000    11207.000    10731.000
    6.2604    10625.000    10111.000     9806.000     9461.000     9447.000
    6.3147     8818.000     8615.000     8284.000     8364.000     8142.000
    6.3690     7922.000     7699.000     7573.000     7389.000     7389.000
    6.4234     7142.000     7109.000     6762.000     6865.000     6719.000
    6.4777     6745.000     6497.000     6565.000     6348.000     6443.000
    6.5320     6396.000     6303.000     6186.000     6380.000     6058.000
    6.5864     6111.000     5863.000     5939.000     5719.000     5832.000
    6.6407     5864.000     5982.000     5719.000     5652.000     5473.000
    6.6950     5625.000     5459.000     5504.000     5316.000     5527.000
    6.7494     5194.000     5353.000     5266.000     5361.000     5143.000
    6.8037     5369.000     5167.000     5219.000     5104.000     5243.000
    6.8580     4953.000     5035.000     5006.000     4970.000     4795.000
    6.9124     4922.000     4707.000     5003.000     4668.000     4900.000
    6.9667     4585.000     4888.000     4526.000     4715.000     4489.000
    7.0210     4724.000     4603.000     4696.000     4494.000     4570.000
    7.0753     4389.000     4675.000     4357.000     4522.000     4427.000
    7.1297     4449.000     4501.000     4567.000     4425.000     4489.000
    7.1840     4301.000     4345.000     4379.000     4527.000     4439.000
    7.2383     4596.000     4399.000     4533.000     4331.000     4515.000
    7.2927     4340.000     4470.000     4319.000     4758.000     4440.000
    7.3470     4689.000     4498.000     4751.000     4565.000     4793.000
    7.4013     4730.000     4919.000     4830.000     5112.000     4937.000
    7.4557     5125.000     5125.000     5165.000     5160.000     5285.000
    7.5100     5191.000     5453.000     5403.000     5490.000     5314.000
    7.5643     5441.000     5248.000     5472.000     5290.000     5427.000
    7.6187     5149.000     5358.000     5096.000     5213.000     5016.000
    7.6730     5150.000     5039.000     5008.000     4766.000     5002.000
    7.7273     4761.000     4928.000     4681.000     4698.000     4411.000
    7.7817     4479.000     4115.000     4369.000     4032.000     4117.000
    7.8360     3828.000     3940.000     3848.000     3813.000     3628.000
    7.8903     3732.000     3600.000     3691.000     3574.000     3679.000
    7.9447     3399.000     3637.000     3512.000     3640.000     3460.000
    7.9990     3480.000     3442.000     3468.000     3388.000     3542.000
    8.0533     3314.000     3559.000     3419.000     3561.000     3307.000
    8.1077     3515.000     3307.000     3495.000     3451.000     3514.000
    8.1620     3437.000     3461.000     3444.000     3567.000     3454.000
    8.2163     3679.000     3571.000     3861.000     3639.000     3825.000
    8.2707     3833.000     4059.000     4071.000     4148.000     4087.000
    8.3250     4317.000     4327.000     4506.000     4508.000     4832.000
    8.3793     4847.000     5049.000     5092.000     5352.000     5417.000
    8.4337     5803.000     5840.000     6185.000     6178.000     6442.000
    8.4880     6924.000     7167.000     7389.000     7971.000     8005.000
    8.5423     8670.000     9112.000     9762.000    10271.000    11232.000
    8.5966    11800.000    12775.000    13558.000    14692.000    15730.000
    8.6510    16843.000    17879.000    18931.000    19366.000    20415.000
    8.7053    20751.000    21274.000    20861.000    21194.000    20402.000
    8.7596    20650.000    19832.000    19533.000    19287.000    19193.000
    8.8140    18818.000    19044.000    18512.000    18373.000    18088.000
    8.8683    17842.000    17286.000    17041.000    16420.000    15818.000
    8.9226    14943.000    14440.000    13864.000    13327.000    12365.000
    8.9770    12111.000    11401.000    10945.000    10423.000    10280.000
    9.0313     9960.000     9734.000     9660.000     9726.000     9627.000
    9.0856     9929.000     9760.000    10088.000     9752.000     9873.000
    9.1400     9637.000    10016.000     9849.000    10055.000    10052.000
    9.1943    10156.000    10032.000    10206.000    10201.000    10348.000
    9.2486     9740.000    10163.000     9804.000     9850.000     9478.000
    9.3030     9643.000     9407.000     9395.000     8761.000     9038.000
    9.3573     8585.000     8588.000     8134.000     8250.000     7747.000
    9.4116     7728.000     7438.000     7371.000     6958.000     6947.000
    9.4660     6573.000     6811.000     6499.000     6733.000     6438.000
    9.5203     6741.000     6609.000     6827.000     6910.000     7169.000
    9.5746     7424.000     7853.000     8119.000     8506.000     8866.000
    9.6290     9454.000     9809.000    10240.000    10197.000    10929.000
    9.6833    11075.000    11794.000    11947.000    12659.000    13077.000
    9.7376    13508.000    13676.000    13813.000    13404.000    13755.000
    9.7920    13574.000    13547.000    13353.000    13468.000    13241.000
    9.8463    13307.000    12877.000    13204.000    12820.000    13028.000
    9.9006    12768.000    12837.000    12336.000    12353.000    11698.000
    9.9550    11624.000    10989.000    10877.000    10058.000     9976.000
   10.0093     9869.000     9679.000     9194.000     9274.000     9012.000
   10.0636     9097.000     8975.000     8831.000     8773.000     8896.000
   10.1180     8812.000     8962.000     8817.000     9141.000     8963.000
   10.1723     9394.000     9705.000     9937.000    10058.000    10437.000
   10.2266    10912.000    11396.000    11659.000    12225.000    12453.000
   10.2809    13533.000    13835.000    14873.000    15515.000    16549.000
   10.3353    17091.000    18413.000    19103.000    20240.000    21125.000
   10.3896    22047.000    22883.000    23641.000    24346.000    25170.000
   10.4439    25636.000    26750.000    26994.000    28238.000    28077.000
   10.4983    28683.000    28880.000    28775.000    28764.000    28734.000
   10.5526    28197.000    27868.000    26986.000    26816.000    25724.000
   10.6069    24788.000    23532.000    22565.000    20954.000    20335.000
   10.6613    18818.000    17869.000    16385.000    15662.000    14344.000
   10.7156    13335.000    12311.000    11743.000    10777.000    10169.000
   10.7699     9198.000     8773.000     7793.000     7378.000     6636.000
   10.8243     6483.000     5810.000     5827.000     5333.000     5208.000
   10.8786     4754.000     4755.000     4516.000     4534.000     4323.000
   10.9329     4400.000     4243.000     4271.000     4012.000     4251.000
   10.9873     3939.000     4028.000     3981.000     4190.000     4047.000
   11.0416     4272.000     4072.000     4233.000     4163.000     4321.000
   11.0959     4301.000     4520.000     4424.000     4689.000     4667.000
   11.1503     4889.000     4666.000     4927.000     4769.000     5347.000
   11.2046     5219.000     5515.000     5459.000     5636.000     5641.000
   11.2589     5935.000     5934.000     6369.000     6269.000     6459.000
   11.3133     6709.000     7066.000     7084.000     7317.000     7192.000
   11.3676     7120.000     7056.000     7019.000     6723.000     6776.000
   11.4219     6598.000     6678.000     6314.000     6611.000     6207.000
   11.4763     6322.000     6016.000     6019.000     5744.000     6001.000
   11.5306     5613.000     5540.000     5405.000     5541.000     5256.000
   11.5849     5232.000     5121.000     5078.000     4859.000     4901.000
   11.6393     4625.000     4773.000     4477.000     4633.000     4274.000
   11.6936     4300.000     4028.000     4140.000     3997.000     3896.000
   11.7479     3780.000     3855.000     3510.000     3673.000     3426.000
   11.8022     3492.000     3372.000     3344.000     3251.000     3397.000
   11.8566     3204.000     3305.000     3122.000     3341.000     3122.000
   11.9109     3355.000     3218.000     3510.000     3161.000     3420.000
   11.9652     3321.000     3533.000     3380.000     3645.000     3476.000
   12.0196     3765.000     3628.000     3786.000     3745.000     4053.000
   12.0739     3998.000     4217.000     4268.000     4433.000     4470.000
   12.1282     4812.000     4621.000     4860.000     4882.000     5131.000
   12.1826     5147.000     5550.000     5562.000     5774.000     5772.000
   12.2369     6187.000     5794.000     6095.000     6147.000     6550.000
   12.2912     6436.000     6759.000     6628.000     6821.000     6617.000
   12.3456     6882.000     6657.000     6843.000     6717.000     6861.000
   12.3999     6690.000     6774.000     6584.000     6934.000     6491.000
   12.4542     6597.000     6406.000     6542.000     6222.000     6300.000
   12.5086     6249.000     6091.000     5819.000     5982.000     5788.000
   12.5629     5791.000     5417.000     5742.000     5425.000     5429.000
   12.6172     5265.000     5364.000     4949.000     4949.000     4741.000
   12.6716     4785.000     4690.000     4528.000     4409.000     4376.000
   12.7259     4133.000     4210.000     3950.000     4096.000     3744.000
   12.7802     3741.000     3584.000     3650.000     3471.000     3563.000
   12.8346     3468.000     3630.000     3455.000     3639.000     3532.000
   12.8889     3655.000     3563.000     3710.000     3589.000     3692.000
   12.9432     3650.000     3896.000     3786.000     3979.000     3817.000
   12.9976     3978.000     3787.000     3994.000     3852.000     4040.000
   13.0519     4015.000     4134.000     3843.000     4038.000     3738.000
   13.1062     4105.000     3879.000     4046.000     3826.000     4018.000
   13.1606     3899.000     3935.000     3853.000     3908.000     3690.000
   13.2149     3845.000     3702.000     3732.000     3656.000     3717.000
   13.2692     3608.000     3829.000     3622.000     3748.000     3616.000
   13.3236     3734.000     3567.000     3626.000     3520.000     3761.000
   13.3779     3687.000     3813.000     3763.000     3847.000     3725.000
   13.4322     4046.000     3950.000     4217.000     4067.000     4271.000
   13.4865     4173.000     4416.000     4553.000     4532.000     4437.000
   13.5409     4722.000     4377.000     4702.000     4503.000     4781.000
   13.5952     4613.000     4873.000     4596.000     4774.000     4666.000
   13.6495     4853.000     4747.000     4831.000     4724.000     4869.000
   13.7039     4509.000     4737.000     4613.000     4579.000     4506.000
   13.7582     4611.000     4338.000     4338.000     4002.000     4254.000
   13.8125     4043.000     4075.000     3788.000     3941.000     3536.000
   13.8669     3546.000     3399.000     3485.000     3198.000     3454.000
   13.9212     3243.000     3431.000     3208.000     3400.000     3234.000
   13.9755     3440.000     3310.000     3365.000     3283.000     3442.000
   14.0299     3368.000     3450.000     3376.000     3631.000     3495.000
   14.0842     3688.000     3545.000     3765.000     3655.000     3954.000
   14.1385     3815.000     4198.000     4054.000     4228.000     4225.000
   14.1929     4579.000     4636.000     4894.000     5007.000     5329.000
   14.2472     5367.000     5797.000     5944.000     6488.000     6517.000
   14.3015     7183.000     7267.000     7991.000     7764.000     8519.000
   14.3559     8690.000     9509.000     9540.000    10223.000    10391.000
   14.4102    11039.000    11133.000    11786.000    11702.000    12047.000
   14.4645    12287.000    12568.000    12425.000    12720.000    12716.000
   14.5189    12725.000    12615.000    12926.000    12584.000    12979.000
   14.5732    12685.000    13397.000    12853.000    13335.000    12592.000
   14.6275    12908.000    12550.000    12491.000    11711.000    11578.000
   14.6819    10819.000    10795.000    10131.000     9690.000     9156.000
   14.7362     9052.000     8585.000     8542.000     8202.000     8403.000
   14.7905     7968.000     8012.000     7674.000     7948.000     7431.000
   14.8449     7551.000     7317.000     7544.000     7308.000     7427.000
   14.8992     7304.000     7363.000     7221.000     7450.000     7101.000
   14.9535     7332.000     7186.000     7469.000     7490.000     7441.000
   15.0078     7262.000     7720.000     7109.000     7249.000     7048.000
   15.0622     7181.000     6976.000     7020.000     6693.000     6952.000
   15.1165     6596.000     6706.000     6305.000     6519.000     6238.000
   15.1708     6454.000     6238.000     6409.000     6255.000     6564.000
   15.2252     6270.000     6584.000     6506.000     6552.000     6488.000
   15.2795     6674.000     6598.000     6761.000     6603.000     6685.000
   15.3338     6553.000     6647.000     6601.000     6686.000     6640.000
   15.3882     6811.000     6626.000     6830.000     6636.000     6734.000
   15.4425     6571.000     7063.000     6853.000     7147.000     6925.000
   15.4968     7256.000     7181.000     7431.000     7357.000     7650.000
   15.5512     7546.000     7835.000     7526.000     7751.000     7716.000
   15.6055     7947.000     7574.000     7869.000     7797.000     8004.000
   15.6598     7738.000     8246.000     7802.000     8056.000     7715.000
   15.7142     8107.000     7681.000     8023.000     7684.000     7595.000
   15.7685     7151.000     7268.000     6827.000     6762.000     6262.000
   15.8228     6231.000     5786.000     5916.000     5523.000     5627.000
   15.8772     5201.000     5265.000     4890.000     5081.000     4704.000
   15.9315     4685.000     4537.000     4539.000     4325.000     4215.000
   15.9858     4147.000     4026.000     3927.000     3878.000     3812.000
   16.0402     3871.000     3642.000     3775.000     3579.000     3780.000
   16.0945     3473.000     3662.000     3572.000     3667.000     3588.000
   16.1488     3714.000     3666.000     3781.000     3622.000     3698.000
   16.2032     3603.000     3907.000     3819.000     4082.000     4010.000
   16.2575     4237.000     4121.000     4340.000     4276.000     4423.000
   16.3118     4474.000     4706.000     4528.000     4906.000     4676.000
   16.3662     5017.000     4863.000     5043.000     5087.000     5255.000
   16.4205     5209.000     5540.000     5428.000     5671.000     5566.000
   16.4748     5780.000     5689.000     5974.000     5918.000     6395.000
   16.5292     6340.000     6806.000     6690.000     6968.000     6922.000
   16.5835     7354.000     7208.000     7796.000     7627.000     7879.000
   16.6378     7954.000     8220.000     8209.000     8628.000     8643.000
   16.6921     8829.000     8686.000     9156.000     9307.000     9541.000
   16.7465     9353.000     9837.000     9690.000     9930.000     9729.000
   16.8008     9949.000     9946.000    10014.000     9942.000    10171.000
   16.8551    10094.000    10366.000    10189.000    10330.000    10164.000
   16.9095    10264.000    10153.000    10592.000    10309.000    10637.000
   16.9638    10468.000    11027.000    10924.000    11696.000    11506.000
   17.0181    12423.000    12547.000    13689.000    14340.000    15578.000
   17.0725    16921.000    18590.000    20178.000    22237.000    23377.000
   17.1268    24134.000    24047.000    24231.000    23582.000    23713.000
   17.1811    23314.000    23335.000    23053.000    23203.000    23731.000
   17.2355    24214.000    24638.000    25331.000    25541.000    26244.000
   17.2898    26384.000    27421.000    27548.000    28833.000    29039.000
   17.3441    30162.000    30585.000    31585.000    31922.000    32346.000
   17.3985    32811.000    33368.000    33501.000    33949.000    33642.000
   17.4528    33684.000    33270.000    32953.000    32419.000    32057.000
   17.5071    30849.000    29832.000    29046.000    27862.000    26299.000
   17.5615    25358.000    23986.000    22884.000    22144.000    21721.000
   17.6158    20556.000    20129.000    19385.000    19482.000    18677.000
   17.6701    18502.000    17916.000    17908.000    17127.000    16890.000
   17.7245    16488.000    16063.000    15528.000    15531.000    14816.000
   17.7788    14499.000    13964.000    13727.000    13077.000    13129.000
   17.8331    12502.000    12466.000    11886.000    11717.000    11301.000
   17.8875    11219.000    10738.000    10742.000    10142.000    10119.000
   17.9418     9659.000     9617.000     9235.000     9121.000     8584.000
   17.9961     8821.000     8344.000     8475.000     8117.000     8302.000
   18.0505     8124.000     8134.000     7978.000     8129.000     7908.000
   18.1048     8009.000     7940.000     7705.000     7772.000     7559.000
   18.1591     7143.000     7251.000     7010.000     7243.000     6998.000
   18.2134     7128.000     7015.000     7313.000     7193.000     7685.000
   18.2678     7573.000     8159.000     8065.000     8658.000     8859.000
   18.3221     9492.000     9756.000    10401.000    10791.000    11654.000
   18.3764    12094.000    12883.000    13128.000    14002.000    14840.000
   18.4308    15540.000    16044.000    16575.000    16912.000    17946.000
   18.4851    17912.000    18524.000    18573.000    19263.000    19173.000
   18.5394    19147.000    19178.000    19448.000    19110.000    19130.000
   18.5938    18951.000    18705.000    18391.000    18499.000    18165.000
   18.6481    18023.000    17146.000    17092.000    16502.000    16078.000
   18.7024    15114.000    14852.000    13522.000    12936.000    12099.000
   18.7568    11384.000    10555.000    10047.000     9280.000     8826.000
   18.8111     8107.000     7855.000     7311.000     7023.000     6514.000
   18.8654     6451.000     6020.000     6201.000     5761.000     6027.000
   18.9198     5578.000     5700.000     5475.000     5548.000     5459.000
   18.9741     5620.000     5490.000     5618.000     5359.000     5613.000
   19.0284     5427.000     5564.000     5476.000     5567.000     5727.000
   19.0828     6032.000     5893.000     6136.000     6077.000     6378.000
   19.1371     6188.000     6599.000     6504.000     7084.000     7031.000
   19.1914     7488.000     7594.000     8050.000     8084.000     8608.000
   19.2458     8557.000     9117.000     9295.000     9706.000     9740.000
   19.3001    10159.000    10295.000    10689.000    10780.000    11322.000
   19.3544    11413.000    12050.000    12013.000    12665.000    12939.000
   19.4088    13638.000    13800.000    14564.000    15061.000    15682.000
   19.4631    16153.000    16545.000    16727.000    17403.000    17462.000
   19.5174    18008.000    17751.000    18116.000    17888.000    18180.000
   19.5718    17915.000    18102.000    17469.000    17740.000    16947.000
   19.6261    17119.000    16825.000    16746.000    16439.000    16376.000
   19.6804    15922.000    15769.000    15376.000    15056.000    14561.000
   19.7348    14174.000    13675.000    13313.000    12697.000    12277.000
   19.7891    11438.000    11334.000    10666.000    10533.000     9827.000
   19.8434     9652.000     9410.000     9139.000     8710.000     8792.000
   19.8977     8547.000     8455.000     8051.000     8159.000     7927.000
   19.9521     7929.000     7745.000     7752.000     7537.000     7724.000
   20.0064     7185.000     7556.000     7262.000     7487.000     7204.000
   20.0607     7084.000     7091.000     7035.000     6634.000     6975.000
   20.1151     6637.000     6640.000     6325.000     6490.000     6276.000
   20.1694     6271.000     6081.000     6147.000     6089.000     6208.000
   20.2237     6110.000     6261.000     5969.000     6149.000     5965.000
   20.2781     6030.000     5837.000     5953.000     5702.000     5926.000
   20.3324     5556.000     5811.000     5700.000     5572.000     5557.000
   20.3867     5788.000     5577.000     5967.000     5817.000     5962.000
   20.4411     5780.000     6127.000     5792.000     6153.000     6321.000
   20.4954     6409.000     6336.000     6493.000     6725.000     6914.000
   20.5497     7116.000     7334.000     7440.000     7774.000     7838.000
   20.6041     8517.000     8594.000     9070.000     9006.000     9578.000
   20.6584     9714.000    10445.000    10569.000    11431.000    11787.000
   20.7127    12489.000    12753.000    13720.000    14378.000    15260.000
   20.7671    15819.000    16967.000    17569.000    18687.000    19522.000
   20.8214    20930.000    21522.000    22953.000    23556.000    24521.000
   20.8757    25531.000    26288.000    26780.000    27473.000    27751.000
   20.9301    28398.000    28931.000    29298.000    29196.000    29701.000
   20.9844    29430.000    29310.000    28966.000    28781.000    28652.000
   21.0387    28346.000    28087.000    27526.000    27094.000    26601.000
   21.0931    26022.000    25746.000    24964.000    24165.000    23089.000
   21.1474    22759.000    21325.000    20711.000    19293.000    19078.000
   21.2017    17726.000    17252.000    16229.000    15656.000    14970.000
   21.2561    14394.000    13817.000    13606.000    13109.000    12984.000
   21.3104    12420.000    12535.000    12123.000    12262.000    11737.000
   21.3647    11750.000    11925.000    11898.000    11696.000    11761.000
   21.4190    11609.000    11597.000    11619.000    11686.000    11727.000
   21.4734    11802.000    11956.000    12061.000    12279.000    12495.000
   21.5277    12666.000    13277.000    13482.000    13912.000    14154.000
   21.5820    14586.000    14966.000    15484.000    15387.000    16063.000
   21.6364    15842.000    16422.000    16410.000    16317.000    16255.000
   21.6907    16403.000    16080.000    15999.000    15538.000    15420.000
   21.7450    15008.000    14993.000    14374.000    14561.000    13998.000
   21.7994    13534.000    13270.000    12939.000    12437.000    12355.000
   21.8537    11797.000    11412.000    10896.000    10953.000    10593.000
   21.9080    10524.000    10051.000     9861.000     9751.000     9468.000
   21.9624     9320.000     9018.000     8650.000     8561.000     8010.000
   22.0167     7802.000     7293.000     7498.000     6889.000     6886.000
   22.0710     6831.000     6900.000     6488.000     6554.000     6459.000
   22.1254     6409.000     6144.000     6164.000     6015.000     5956.000
   22.1797     5755.000     5993.000     5644.000     5903.000     5783.000
   22.2340     5844.000     5798.000     6122.000     6101.000     6315.000
   22.2884     6254.000     6550.000     6715.000     7246.000     6895.000
   22.3427     7344.000     7602.000     7946.000     7945.000     8328.000
   22.3970     8425.000     8756.000     8843.000     9317.000     8988.000
   22.4514     9373.000     9482.000     9822.000     9706.000    10269.000
   22.5057    10241.000    10528.000    10573.000    11069.000    11182.000
   22.5600    11484.000    11334.000    11946.000    11890.000    12337.000
   22.6144    12153.000    12634.000    12278.000    12617.000    12380.000
   22.6687    12407.000    12263.000    12373.000    11921.000    11902.000
   22.7230    11652.000    11416.000    11044.000    11342.000    10993.000
   22.7774    10888.000    10506.000    10471.000    10246.000    10174.000
   22.8317     9874.000     9957.000     9694.000     9727.000     9612.000
   22.8860     9956.000     9778.000    10010.000     9806.000    10279.000
   22.9404     9968.000    10117.000     9718.000     9698.000     9125.000
   22.9947     9238.000     8762.000     8916.000     8148.000     8064.000
   23.0490     7941.000     7566.000     7251.000     7188.000     6832.000
   23.1033     7106.000     6733.000     6766.000     6689.000     6746.000
   23.1577     6506.000     6546.000     6429.000     6581.000     6388.000
   23.2120     6564.000     6276.000     6426.000     6153.000     6263.000
   23.2663     6108.000     6260.000     5843.000     6114.000     5719.000
   23.3207     5852.000     5756.000     5750.000     5460.000     5506.000
   23.3750     5301.000     5439.000     5083.000     5300.000     5134.000
   23.4293     5265.000     5092.000     5270.000     5099.000     5323.000
   23.4837     5033.000     5341.000     5093.000     5303.000     5273.000
   23.5380     5183.000     5135.000     5247.000     5282.000     5377.000
   23.5923     5183.000     5419.000     5383.000     5546.000     5426.000
   23.6467     5788.000     5480.000     5639.000     5530.000     5775.000
   23.7010     5619.000     5996.000     5788.000     6283.000     6168.000
   23.7553     6344.000     6253.000     6621.000     6545.000     6923.000
   23.8097     6865.000     7367.000     7232.000     7649.000     7655.000
   23.8640     7788.000     7713.000     8010.000     7901.000     8166.000
   23.9183     7864.000     8045.000     7989.000     7933.000     7714.000
   23.9727     7751.000     7720.000     7865.000     7714.000     7590.000
   24.0270     7460.000     7869.000     7569.000     7702.000     7495.000
   24.0813     7560.000     7406.000     7383.000     7166.000     7115.000
   24.1357     7093.000     7079.000     6703.000     6762.000     6651.000
   24.1900     6608.000     6341.000     6465.000     6203.000     6458.000
   24.2443     6457.000     6670.000     6599.000     6753.000     6775.000
   24.2987     6928.000     6877.000     7089.000     7024.000     7277.000
   24.3530     7058.000     7545.000     7232.000     7441.000     7453.000
   24.4073     7700.000     7671.000     7899.000     7686.000     7807.000
   24.4617     7615.000     7660.000     7427.000     7746.000     7653.000
   24.5160     7663.000     7413.000     7571.000     7479.000     7613.000
   24.5703     7269.000     7611.000     7266.000     7218.000     6991.000
   24.6246     7033.000     6818.000     6803.000     6635.000     6631.000
   24.6790     6354.000     6407.000     6146.000     6251.000     5924.000
   24.7333     5952.000     5848.000     5831.000     5402.000     5558.000
   24.7876     5277.000     5337.000     5259.000     5277.000     4965.000
   24.8420     5231.000     4896.000     5030.000     4964.000     4898.000
   24.8963     4631.000     4761.000     4691.000     4606.000     4509.000
   24.9506     4633.000     4400.000     4654.000     4272.000     4413.000
   25.0050     4249.000     4385.000     4233.000     4264.000     4268.000
   25.0593     4352.000     4234.000     4357.000     4191.000     4501.000
   25.1136     4421.000     4402.000     4412.000     4575.000     4454.000
   25.1680     4825.000     4545.000     4766.000     4698.000     4763.000
   25.2223     4609.000     4971.000     4856.000     4938.000     4967.000
   25.2766     5105.000     5106.000     5201.000     5092.000     5333.000
   25.3310     5181.000     5301.000     5397.000     5590.000     5273.000
   25.3853     5479.000     5452.000     5598.000     5558.000     5627.000
   25.4396     5675.000     5852.000     5496.000     5448.000     5496.000
   25.4940     5717.000     5685.000     5793.000     5541.000     5567.000
   25.5483     5459.000     5531.000     5416.000     5536.000     5295.000
   25.6026     5492.000     5129.000     5330.000     5265.000     5191.000
   25.6570     5010.000     5013.000     4906.000     4950.000     5064.000
   25.7113     5095.000     4776.000     4993.000     4741.000     4772.000
   25.7656     4631.000     4848.000     4560.000     4681.000     4545.000
   25.8200     4682.000     4560.000     4610.000     4547.000     4881.000
   25.8743     4542.000     4930.000     4806.000     5035.000     4934.000
   25.9286     5228.000     5121.000     5152.000     5113.000     5337.000
   25.9830     5216.000     5435.000     5487.000     5579.000     5593.000
   26.0373     5672.000     5726.000     6049.000     6062.000     6205.000
   26.0916     6117.000     6322.000     6358.000     6614.000     6347.000
   26.1460     6596.000     6425.000     6600.000     6420.000     6535.000
   26.2003     6401.000     6628.000     6263.000     6458.000     6388.000
   26.2546     6433.000     6078.000     6204.000     6222.000     6230.000
   26.3089     6119.000     6339.000     6136.000     6293.000     6025.000
   26.3633     6295.000     6074.000     6256.000     6059.000     6344.000
   26.4176     6258.000     6569.000     6347.000     6654.000     6284.000
   26.4719     6556.000     6062.000     6191.000     5764.000     5759.000
   26.5263     5614.000     5382.000     5207.000     5152.000     5109.000
   26.5806     4799.000     4817.000     4608.000     4470.000     4618.000
   26.6349     4320.000     4422.000     4350.000     4304.000     4249.000
   26.6893     4279.000     4206.000     4192.000     4161.000     4125.000
   26.7436     4154.000     4098.000     3986.000     4035.000     3895.000
   26.7979     3917.000     3760.000     3939.000     3734.000     3909.000
   26.8523     3657.000     3828.000     3761.000     3791.000     3904.000
   26.9066     3841.000     3838.000     3932.000     3971.000     3943.000
   26.9609     3955.000     4143.000     4125.000     4296.000     4281.000
   27.0153     4561.000     4439.000     4476.000     4436.000     4590.000
   27.0696     4557.000     4620.000     4718.000     4827.000     4871.000
   27.1239     4932.000     4971.000     5044.000     4978.000     5037.000
   27.1783     4813.000     5083.000     4953.000     4958.000     4848.000
   27.2326     4797.000     4709.000     4736.000     4680.000     4764.000
   27.2869     4604.000     4651.000     4526.000     4464.000     4435.000
   27.3413     4426.000     4250.000     4388.000     4162.000     4198.000
   27.3956     4055.000     4093.000     4005.000     4070.000     3917.000
   27.4499     3813.000     3774.000     3854.000     3753.000     3681.000
   27.5043     3663.000     3570.000     3593.000     3664.000     3493.000
   27.5586     3522.000     3488.000     3543.000     3331.000     3251.000
   27.6129     3265.000     3284.000     3237.000     3295.000     3189.000
   27.6673     3104.000     3152.000     3024.000     3123.000     3121.000
   27.7216     3033.000     3142.000     2952.000     2956.000     2876.000
   27.7759     2992.000     3015.000     3084.000     2935.000     2995.000
   27.8302     2941.000     2955.000     2853.000     3013.000     2982.000
   27.8846     2991.000     2741.000     3031.000     2974.000     2997.000
   27.9389     2931.000     3101.000     3033.000     3091.000     2931.000
   27.9932     3036.000     2951.000     3065.000     3009.000     3086.000
   28.0476     2912.000     3102.000     2933.000     3081.000     3062.000
   28.1019     3144.000     3153.000     3102.000     3183.000     3123.000
   28.1562     3133.000     3202.000     3189.000     3274.000     3168.000
   28.2106     3193.000     3199.000     3169.000     3254.000     3320.000
   28.2649     3296.000     3383.000     3258.000     3320.000     3291.000
   28.3192     3431.000     3347.000     3293.000     3459.000     3475.000
   28.3736     3434.000     3455.000     3496.000     3511.000     3517.000
   28.4279     3636.000     3565.000     3679.000     3631.000     3619.000
   28.4822     3583.000     3885.000     3978.000     4021.000     3957.000
   28.5366     4115.000     4230.000     4252.000     4229.000     4340.000
   28.5909     4327.000     4421.000     4527.000     4655.000     4615.000
   28.6452     4756.000     4715.000     4899.000     4881.000     4976.000
   28.6996     5226.000     5344.000     5275.000     5401.000     5379.000
   28.7539     5525.000     5328.000     5552.000     5384.000     5512.000
   28.8082     5531.000     5644.000     5358.000     5472.000     5320.000
   28.8626     5449.000     5268.000     5326.000     5329.000     5207.000
   28.9169     5175.000     5072.000     4977.000     5065.000     4825.000
   28.9712     5060.000     4869.000     4761.000     4665.000     4826.000
   29.0256     4800.000     4774.000     4559.000     4729.000     4695.000
   29.0799     4644.000     4652.000     4737.000     4657.000     4791.000
   29.1342     4797.000     4756.000     4697.000     4878.000     4745.000
   29.1886     4936.000     4872.000     5038.000     4999.000     5113.000
   29.2429     4926.000     4950.000     4963.000     5190.000     4990.000
   29.2972     5119.000     5049.000     5186.000     4925.000     5179.000
   29.3516     4980.000     5139.000     4983.000     5195.000     5012.000
   29.4059     5073.000     5075.000     4878.000     4930.000     4905.000
   29.4602     4832.000     4823.000     4645.000     4681.000     4653.000
   29.5145     4556.000     4565.000     4434.000     4524.000     4628.000
   29.5689     4397.000     4400.000     4321.000     4303.000     4464.000
   29.6232     4378.000     4187.000     4451.000     4243.000     4460.000
   29.6775     4323.000     4425.000     4419.000     4489.000     4493.000
   29.7319     4494.000     4419.000     4616.000     4272.000     4541.000
   29.7862     4439.000     4642.000     4492.000     4438.000     4480.000
   29.8405     4425.000     4353.000     4503.000     4411.000     4472.000
   29.8949     4456.000     4558.000     4421.000     4343.000     4361.000
   29.9492     4374.000     4274.000     4420.000     4315.000     4419.000
   30.0035     4257.000     4436.000     4327.000     4279.000     4390.000
   30.0579     4339.000     4171.000     4281.000     4207.000     4061.000
   30.1122     4213.000     4131.000     4222.000     4283.000     4174.000
   30.1665     4202.000     4211.000     4331.000     4275.000     4387.000
   30.2209     4167.000     4354.000     4205.000     4302.000     4277.000
   30.2752     4271.000     4251.000     4193.000     4264.000     4305.000
   30.3295     4041.000     4222.000     3943.000     4140.000     3950.000
   30.3839     3977.000     3972.000     3888.000     3821.000     3888.000
   30.4382     3783.000     3646.000     3706.000     3660.000     3604.000
   30.4925     3609.000     3543.000     3542.000     3354.000     3456.000
   30.5469     3384.000     3457.000     3219.000     3214.000     3235.000
   30.6012     3198.000     3070.000     3171.000     3134.000     3118.000
   30.6555     3042.000     3025.000     3113.000     3105.000     3057.000
   30.7099     3010.000     3061.000     3071.000     3057.000     3034.000
   30.7642     3078.000     3194.000     3019.000     3169.000     3253.000
   30.8185     3191.000     3304.000     3407.000     3413.000     3611.000
   30.8729     3552.000     3592.000     3654.000     3907.000     3791.000
   30.9272     3745.000     3956.000     3845.000     3870.000     4002.000
   30.9815     3891.000     4044.000     3989.000     4005.000     3936.000
   31.0358     4034.000     3857.000     3980.000     3947.000     3869.000
   31.0902     3878.000     3817.000     3798.000     3713.000     3676.000
   31.1445     3653.000     3627.000     3604.000     3494.000     3461.000
   31.1988     3411.000     3400.000     3408.000     3376.000     3244.000
   31.2532     3313.000     3252.000     3276.000     3190.000     3128.000
   31.3075     3164.000     3136.000     3017.000     3152.000     3057.000
   31.3618     3061.000     3001.000     3019.000     2908.000     3036.000
   31.4162     2939.000     3090.000     3036.000     2925.000     3091.000
   31.4705     3001.000     2998.000     3021.000     3072.000     3051.000
   31.5248     2964.000     3026.000     3027.000     3055.000     3027.000
   31.5792     3041.000     3046.000     3151.000     3196.000     3109.000
   31.6335     3097.000     3227.000     3238.000     3200.000     3315.000
   31.6878     3265.000     3288.000     3405.000     3363.000     3401.000
   31.7422     3425.000     3560.000     3473.000     3501.000     3475.000
   31.7965     3356.000     3453.000     3509.000     3513.000     3596.000
   31.8508     3436.000     3570.000     3695.000     3496.000     3384.000
   31.9052     3467.000     3564.000     3437.000     3571.000     3520.000
   31.9595     3396.000     3428.000     3369.000     3346.000     3424.000
   32.0138     3273.000     3338.000     3456.000     3321.000     3361.000
   32.0682     3203.000     3321.000     3238.000     3300.000     3231.000
   32.1225     3183.000     3117.000     3138.000     3092.000     3207.000
   32.1768     3156.000     3091.000     3023.000     3072.000     2993.000
   32.2312     3027.000     3068.000     3024.000     3052.000     3104.000
   32.2855     3055.000     2966.000     2981.000     2932.000     2961.000
   32.3398     3089.000     2947.000     2900.000     2842.000     2845.000
   32.3942     2959.000     2904.000     2890.000     2904.000     2878.000
   32.4485     2861.000     2833.000     2939.000     2901.000     2756.000
   32.5028     2894.000     2888.000     2789.000     2813.000     2801.000
   32.5572     2978.000     2982.000     2970.000     2907.000     2897.000
   32.6115     2965.000     3029.000     2982.000     3006.000     3015.000
   32.6658     2994.000     3036.000     3057.000     3000.000     3182.000
   32.7201     3058.000     3150.000     3158.000     3023.000     3085.000
   32.7745     3143.000     3010.000     3161.000     3010.000     3058.000
   32.8288     3106.000     3023.000     3022.000     3105.000     3141.000
   32.8831     3212.000     3077.000     3038.000     3075.000     3124.000
   32.9375     3136.000     3184.000     3065.000     3167.000     3158.000
   32.9918     3122.000     3075.000     3033.000     3041.000     3175.000
   33.0461     3012.000     2989.000     3115.000     3053.000     3104.000
   33.1005     2998.000     3010.000     2981.000     2949.000     2973.000
   33.1548     2955.000     2957.000     2876.000     2927.000     2873.000
   33.2091     2964.000     2865.000     2858.000     2959.000     2828.000
   33.2635     2769.000     2823.000     2886.000     2923.000     2958.000
   33.3178     2891.000     2918.000     2868.000     2881.000     2898.000
   33.3721     2943.000     3041.000     2979.000     3041.000     2973.000
   33.4265     3031.000     2982.000     2959.000     2937.000     2978.000
   33.4808     3069.000     3069.000     2973.000     2984.000     3100.000
   33.5351     2939.000     2992.000     2989.000     3125.000     3093.000
   33.5895     3071.000     3022.000     2969.000     3022.000     2978.000
   33.6438     2995.000     2962.000     3117.000     2984.000     2992.000
   33.6981     2952.000     2904.000     2864.000     2883.000     2849.000
   33.7525     2822.000     2950.000     2720.000     2858.000     2711.000
   33.8068     2883.000     2766.000     2801.000     2748.000     2808.000
   33.8611     2795.000     2665.000     2713.000     2849.000     2865.000
   33.9155     2822.000     2681.000     2811.000     2744.000     2829.000
   33.9698     2817.000     2785.000     2779.000     2792.000     2864.000
   34.0241     2799.000     2842.000     2885.000     2973.000     2886.000
   34.0785     2959.000     2886.000     2910.000     2977.000     2952.000
   34.1328     2897.000     3054.000     2962.000     2984.000     2875.000
   34.1871     2948.000     2960.000     2921.000     2987.000     3006.000
   34.2414     2942.000     2879.000     2884.000     2962.000     2916.000
   34.2958     2899.000     2788.000     2958.000     2819.000     2799.000
   34.3501     2776.000     2693.000     2730.000     2749.000     2675.000
   34.4044     2720.000     2615.000     2656.000     2668.000     2589.000
   34.4588     2646.000     2498.000     2600.000     2620.000     2576.000
   34.5131     2618.000     2548.000     2491.000     2565.000     2448.000
   34.5674     2497.000     2468.000     2452.000     2397.000     2386.000
   34.6218     2346.000     2415.000     2402.000     2330.000     2377.000
   34.6761     2346.000     2354.000     2262.000     2340.000     2324.000
   34.7304     2316.000     2251.000     2385.000     2392.000     2344.000
   34.7848     2427.000     2468.000     2387.000     2427.000     2395.000
   34.8391     2453.000     2480.000     2467.000     2453.000     2458.000
   34.8934     2529.000     2437.000     2473.000     2526.000     2455.000
   34.9478     2387.000     2531.000     2549.000     2481.000     2523.000
   35.0021     2556.000     2518.000     2491.000     2466.000     2536.000
   35.0564     2548.000     2529.000     2506.000     2538.000     2533.000
   35.1108     2565.000     2516.000     2557.000     2556.000     2582.000
   35.1651     2585.000     2630.000     2555.000     2649.000     2585.000
   35.2194     2515.000     2608.000     2490.000     2514.000     2465.000
   35.2738     2520.000     2689.000     2593.000     2643.000     2470.000
   35.3281     2416.000     2562.000     2541.000     2569.000     2488.000
   35.3824     2510.000     2519.000     2476.000     2571.000     2525.000
   35.4368     2590.000     2536.000     2525.000     2518.000     2564.000
   35.4911     2601.000     2537.000     2533.000     2636.000     2589.000
   35.5454     2630.000     2675.000     2764.000     2696.000     2728.000
   35.5998     2664.000     2671.000     2636.000     2765.000     2752.000
   35.6541     2644.000     2726.000     2795.000     2703.000     2639.000
   35.7084     2652.000     2769.000     2681.000     2721.000     2805.000
   35.7627     2658.000     2693.000     2642.000     2747.000     2639.000
   35.8171     2728.000     2672.000     2843.000     2638.000     2641.000
   35.8714     2698.000     2693.000     2758.000     2794.000     2775.000
   35.9257     2671.000     2828.000     2760.000     2729.000     2834.000
   35.9801     2790.000     2677.000     2754.000     2826.000     2672.000
   36.0344     2769.000     2733.000     2844.000     2732.000     2738.000
   36.0887     2754.000     2803.000     2767.000     2764.000     2757.000
   36.1431     2691.000     2777.000     2765.000     2742.000     2706.000
   36.1974     2745.000     2851.000     2748.000     2831.000     2772.000
   36.2517     2778.000     2699.000     2764.000     2814.000     2684.000
   36.3061     2587.000     2737.000     2712.000     2642.000     2741.000
   36.3604     2707.000     2621.000     2661.000     2673.000     2646.000
   36.4147     2714.000     2572.000     2775.000     2712.000     2691.000
   36.4691     2807.000     2731.000     2801.000     2715.000     2730.000
   36.5234     2859.000     2752.000     2820.000     2836.000     2673.000
   36.5777     2649.000     2781.000     2790.000     2645.000     2671.000
   36.6321     2725.000     2672.000     2632.000     2628.000     2650.000
   36.6864     2612.000     2700.000     2642.000     2522.000     2550.000
   36.7407     2671.000     2597.000     2561.000     2672.000     2569.000
   36.7951     2526.000     2517.000     2528.000     2512.000     2567.000
   36.8494     2548.000     2519.000     2445.000     2415.000     2398.000
   36.9037     2434.000     2444.000     2458.000     2403.000     2454.000
   36.9581     2430.000     2511.000     2484.000     2489.000     2562.000
   37.0124     2484.000     2423.000     2468.000     2609.000     2391.000
   37.0667     2466.000     2445.000     2580.000     2458.000     2518.000
   37.1211     2441.000     2465.000     2571.000     2633.000     2442.000
   37.1754     2572.000     2497.000     2478.000     2484.000     2561.000
   37.2297     2589.000     2651.000     2597.000     2601.000     2517.000
   37.2841     2586.000     2551.000     2597.000     2634.000     2681.000
   37.3384     2621.000     2673.000     2639.000     2727.000     2682.000
   37.3927     2686.000     2645.000     2636.000     2673.000     2895.000
   37.4470     2813.000     2856.000     2962.000     2835.000     2828.000
   37.5014     3008.000     2906.000     2935.000     3021.000     3080.000
   37.5557     3082.000     3169.000     3077.000     3067.000     3145.000
   37.6100     3153.000     3116.000     3250.000     3164.000     3228.000
   37.6644     3131.000     3235.000     3093.000     3263.000     3202.000
   37.7187     3254.000     3214.000     3281.000     3222.000     3150.000
   37.7730     3158.000     3234.000     3129.000     3273.000     3230.000
   37.8274     3247.000     3129.000     3229.000     3151.000     3292.000
   37.8817     3041.000     3159.000     3206.000     3030.000     3037.000
   37.9360     3116.000     3192.000     3191.000     3177.000     3068.000
   37.9904     3099.000     3222.000     3084.000     3067.000     3234.000
   38.0447     3205.000     3167.000     3164.000     3126.000     3108.000
   38.0990     3189.000     3159.000     3216.000     3167.000     3263.000
   38.1534     3083.000     3124.000     3171.000     3063.000     3158.000
   38.2077     3081.000     3213.000     3202.000     3224.000     3255.000
   38.2620     3281.000     3222.000     3162.000     3223.000     3268.000
   38.3164     3147.000     3156.000     3337.000     3309.000     3222.000
   38.3707     3409.000     3317.000     3354.000     3362.000     3353.000
   38.4250     3374.000     3447.000     3624.000     3612.000     3592.000
   38.4794     3646.000     3558.000     3737.000     3705.000     3815.000
   38.5337     3777.000     3931.000     3801.000     3877.000     3868.000
   38.5880     3857.000     3846.000     3799.000     3721.000     3834.000
   38.6424     3740.000     3679.000     3586.000     3691.000     3589.000
   38.6967     3701.000     3648.000     3683.000     3482.000     3432.000
   38.7510     3469.000     3513.000     3492.000     3414.000     3403.000
   38.8054     3318.000     3303.000     3419.000     3344.000     3389.000
   38.8597     3335.000     3321.000     3226.000     3310.000     3372.000
   38.9140     3329.000     3301.000     3317.000     3305.000     3285.000
   38.9683     3303.000     3254.000     3220.000     3202.000     3158.000
   39.0227     3301.000     3314.000     3146.000     3194.000     3164.000
   39.0770     3189.000     3181.000     3094.000     3072.000     3014.000
   39.1313     3120.000     3019.000     2985.000     2920.000     3051.000
   39.1857     2974.000     3027.000     2878.000     2982.000     2891.000
   39.2400     2727.000     2852.000     2888.000     2864.000     2888.000
   39.2943     2768.000     2828.000     2708.000     2600.000     2644.000
   39.3487     2572.000     2615.000     2642.000     2589.000     2600.000
   39.4030     2559.000     2593.000     2546.000     2594.000     2615.000
   39.4573     2530.000     2491.000     2495.000     2453.000     2538.000
   39.5117     2514.000     2639.000     2509.000     2623.000     2508.000
   39.5660     2611.000     2588.000     2618.000     2560.000     2696.000
   39.6203     2709.000     2756.000     2608.000     2686.000     2700.000
   39.6747     2733.000     2682.000     2711.000     2651.000     2661.000
   39.7290     2658.000     2686.000     2693.000     2600.000     2754.000
   39.7833     2845.000     2695.000     2800.000     2735.000     2726.000
   39.8377     2745.000     2764.000     2755.000     2763.000     2774.000
   39.8920     3010.000     2823.000     2771.000     2807.000     2749.000
   39.9463     2811.000     2638.000     2803.000     2699.000     2690.000
   40.0007     2845.000     2728.000     2602.000     2748.000     2663.000
   40.0550     2753.000     2719.000     2735.000     2677.000     2675.000
   40.1093     2670.000     2594.000     2692.000     2700.000     2632.000
   40.1637     2720.000     2725.000     2699.000     2594.000     2545.000
   40.2180     2597.000     2667.000     2682.000     2723.000     2666.000
   40.2723     2617.000     2535.000     2602.000     2727.000     2532.000
   40.3267     2594.000     2567.000     2725.000     2596.000     2641.000
   40.3810     2548.000     2605.000     2599.000     2638.000     2502.000
   40.4353     2505.000     2581.000     2551.000     2521.000     2620.000
   40.4897     2550.000     2602.000     2623.000     2634.000     2537.000
   40.5440     2520.000     2548.000     2566.000     2554.000     2571.000
   40.5983     2641.000     2583.000     2564.000     2645.000     2544.000
   40.6526     2607.000     2640.000     2558.000     2502.000     2673.000
   40.7070     2579.000     2664.000     2602.000     2622.000     2601.000
   40.7613     2652.000     2634.000     2681.000     2664.000     2717.000
   40.8156     2723.000     2707.000     2744.000     2830.000     2685.000
   40.8700     2783.000     2702.000     2792.000     2791.000     2857.000
   40.9243     2800.000     2871.000     2769.000     2818.000     2918.000
   40.9786     2903.000     2847.000     2947.000     2967.000     2919.000
   41.0330     3025.000     2976.000     2931.000     2954.000     2902.000
   41.0873     2962.000     2981.000     3062.000     2953.000     2943.000
   41.1416     2990.000     3037.000     3096.000     2919.000     2964.000
   41.1960     3084.000     3059.000     3029.000     3024.000     3020.000
   41.2503     2968.000     3111.000     2981.000     3047.000     2979.000
   41.3046     3096.000     2912.000     3036.000     2979.000     2963.000
   41.3590     2917.000     3027.000     2819.000     2945.000     2980.000
   41.4133     3012.000     2998.000     2950.000     2894.000     3100.000
   41.4676     2928.000     3138.000     3114.000     3184.000     3217.000
   41.5220     3211.000     3212.000     3256.000     3282.000     3285.000
   41.5763     3331.000     3413.000     3378.000     3435.000     3412.000
   41.6306     3346.000     3291.000     3372.000     3342.000     3465.000
   41.6850     3350.000     3418.000     3349.000     3410.000     3341.000
   41.7393     3388.000     3334.000     3322.000     3285.000     3438.000
   41.7936     3385.000     3366.000     3434.000     3384.000     3306.000
   41.8480     3377.000     3367.000     3292.000     3327.000     3352.000
   41.9023     3270.000     3351.000     3258.000     3311.000     3178.000
   41.9566     3194.000     3082.000     3125.000     3203.000     3073.000
   42.0110     3076.000     3047.000     2978.000     2937.000     2987.000
   42.0653     3011.000     2911.000     3066.000     2808.000     2940.000
   42.1196     2840.000     2980.000     2811.000     2860.000     2807.000
   42.1739     2928.000     2859.000     2875.000     2903.000     2849.000
   42.2283     2859.000     2848.000     2886.000     2932.000     2813.000
   42.2826     2875.000     2788.000     2874.000     2963.000     2888.000
   42.3369     2862.000     2969.000     2873.000     2973.000     2849.000
   42.3913     3023.000     2791.000     2945.000     2816.000     2965.000
   42.4456     2837.000     2911.000     2990.000     3115.000     2977.000
   42.4999     3002.000     2906.000     2887.000     3030.000     2997.000
   42.5543     2972.000     3075.000     3041.000     2951.000     2980.000
   42.6086     3129.000     2971.000     3178.000     3039.000     3036.000
   42.6629     2981.000     2918.000     2975.000     2941.000     2994.000
   42.7173     2899.000     2859.000     2968.000     2894.000     2757.000
   42.7716     2759.000     2738.000     2813.000     2809.000     2813.000
   42.8259     2837.000     2728.000     2905.000     2746.000     2798.000
   42.8803     2615.000     2793.000     2735.000     2865.000     2758.000
   42.9346     2767.000     2779.000     2800.000     2842.000     2838.000
   42.9889     2938.000     3038.000     2885.000     3148.000     2967.000
   43.0433     2988.000     2958.000     3004.000     2908.000     2987.000
   43.0976     2868.000     3170.000     2974.000     2944.000     2921.000
   43.1519     2962.000     2916.000     3020.000     2890.000     3099.000
   43.2063     2921.000     3008.000     2892.000     2967.000     2836.000
   43.2606     2830.000     2774.000     2872.000     2717.000     2784.000
   43.3149     2616.000     2685.000     2606.000     2672.000     2502.000
   43.3693     2581.000     2481.000     2521.000     2415.000     2446.000
   43.4236     2339.000     2450.000     2335.000     2312.000     2301.000
   43.4779     2371.000     2316.000     2374.000     2305.000     2362.000
   43.5323     2201.000     2341.000     2382.000     2297.000     2367.000
   43.5866     2316.000     2359.000     2411.000     2448.000     2450.000
   43.6409     2400.000     2498.000     2456.000     2583.000     2500.000
   43.6953     2556.000     2477.000     2565.000     2529.000     2648.000
   43.7496     2485.000     2650.000     2568.000     2501.000     2472.000
   43.8039     2669.000     2597.000     2687.000     2523.000     2611.000
   43.8582     2525.000     2583.000     2581.000     2588.000     2551.000
   43.9126     2550.000     2588.000     2512.000     2527.000     2513.000
   43.9669     2449.000     2488.000     2410.000     2486.000     2431.000
   44.0212     2460.000     2384.000     2448.000     2334.000     2347.000
   44.0756     2321.000     2310.000     2364.000     2284.000     2230.000
   44.1299     2384.000     2224.000     2347.000     2201.000     2257.000
   44.1842     2274.000     2320.000     2232.000     2377.000     2253.000
   44.2386     2285.000     2281.000     2298.000     2204.000     2178.000
   44.2929     2238.000     2319.000     2282.000     2257.000     2268.000
   44.3472     2325.000     2200.000     2296.000     2230.000     2355.000
   44.4016     2197.000     2319.000     2342.000     2329.000     2302.000
   44.4559     2368.000     2319.000     2398.000     2313.000     2346.000
   44.5102     2333.000     2449.000     2382.000     2463.000     2390.000
   44.5646     2538.000     2538.000     2496.000     2436.000     2440.000
   44.6189     2380.000     2507.000     2385.000     2528.000     2406.000
   44.6732     2535.000     2412.000     2416.000     2441.000     2473.000
   44.7276     2422.000     2433.000     2475.000     2570.000     2509.000
   44.7819     2532.000     2455.000     2571.000     2539.000     2559.000
   44.8362     2482.000     2573.000     2420.000     2666.000     2636.000
   44.8906     2621.000     2596.000     2570.000     2555.000     2612.000
   44.9449     2566.000     2634.000     2530.000     2638.000     2471.000
   44.9992     2449.000     2545.000     2570.000     2584.000     2583.000
   45.0536     2594.000     2526.000     2579.000     2608.000     2518.000
   45.1079     2647.000     2586.000     2486.000     2469.000     2543.000
   45.1622     2502.000     2456.000     2411.000     2597.000     2484.000
   45.2166     2492.000     2361.000     2440.000     2339.000     2355.000
   45.2709     2419.000     2391.000     2365.000     2323.000     2350.000
   45.3252     2265.000     2198.000     2204.000     2336.000     2309.000
   45.3795     2174.000     2229.000     2165.000     2279.000     2168.000
   45.4339     2304.000     2104.000     2306.000     2105.000     2327.000
   45.4882     2238.000     2301.000     2120.000     2155.000     2224.000
   45.5425     2246.000     2124.000     2346.000     2225.000     2346.000
   45.5969     2161.000     2229.000     2295.000     2257.000     2291.000
   45.6512     2322.000     2235.000     2281.000     2214.000     2273.000
   45.7055     2428.000     2419.000     2346.000     2400.000     2350.000
   45.7599     2383.000     2371.000     2403.000     2280.000     2330.000
   45.8142     2402.000     2401.000     2316.000     2356.000     2364.000
   45.8685     2400.000     2359.000     2378.000     2299.000     2386.000
   45.9229     2350.000     2250.000     2371.000     2311.000     2284.000
   45.9772     2404.000     2243.000     2302.000     2174.000     2262.000
   46.0315     2321.000     2279.000     2196.000     2345.000     2300.000
   46.0859     2304.000     2236.000     2286.000     2205.000     2255.000
   46.1402     2239.000     2190.000     2193.000     2186.000     2189.000
   46.1945     2235.000     2157.000     2199.000     2175.000     2282.000
   46.2489     2204.000     2181.000     2254.000     2325.000     2309.000
   46.3032     2336.000     2280.000     2328.000     2290.000     2370.000
   46.3575     2366.000     2337.000     2231.000     2411.000     2424.000
   46.4119     2451.000     2445.000     2501.000     2397.000     2454.000
   46.4662     2363.000     2535.000     2487.000     2503.000     2424.000
   46.5205     2556.000     2599.000     2574.000     2504.000     2556.000
   46.5749     2476.000     2564.000     2624.000     2600.000     2438.000
   46.6292     2572.000     2437.000     2422.000     2440.000     2527.000
   46.6835     2410.000     2398.000     2306.000     2399.000     2395.000
   46.7379     2331.000     2252.000     2414.000     2268.000     2455.000
   46.7922     2281.000     2313.000     2227.000     2347.000     2172.000
   46.8465     2207.000     2180.000     2249.000     2229.000     2246.000
   46.9009     2141.000     2241.000     2083.000     2204.000     2040.000
   46.9552     2199.000     2130.000     2240.000     2156.000     2183.000
   47.0095     2177.000     2286.000     2082.000     2146.000     2196.000
   47.0638     2157.000     2189.000     2196.000     2152.000     2182.000
   47.1182     2031.000     2229.000     2087.000     2288.000     2159.000
   47.1725     2256.000     2071.000     2245.000     2084.000     2154.000
   47.2268     2089.000     2155.000     2184.000     2123.000     2092.000
   47.2812     2287.000     2080.000     2067.000     2029.000     2103.000
   47.3355     2050.000     2113.000     2059.000     2119.000     2068.000
   47.3898     2115.000     1978.000     2072.000     2050.000     2110.000
   47.4442     2087.000     2168.000     2135.000     2109.000     2076.000
   47.4985     2131.000     2023.000     2096.000     2195.000     2148.000
   47.5528     2077.000     2226.000     2112.000     2207.000     2135.000
   47.6072     2257.000     2130.000     2195.000     2192.000     2175.000
   47.6615     2124.000     2164.000     2203.000     2246.000     2137.000
   47.7158     2228.000     2180.000     2215.000     2203.000     2198.000
   47.7702     2203.000     2191.000     2238.000     2230.000     2225.000
   47.8245     2333.000     2238.000     2366.000     2160.000     2274.000
   47.8788     2112.000     2296.000     2090.000     2182.000     2156.000
   47.9332     2261.000     2141.000     2279.000     2118.000     2315.000
   47.9875     2153.000     2302.000     2146.000     2255.000     2194.000
   48.0418     2261.000     2137.000     2137.000     2099.000     2254.000
   48.0962     2141.000     2255.000     2066.000     2135.000     2085.000
   48.1505     2080.000     2132.000     2166.000     2075.000     2134.000
   48.2048     2069.000     2087.000     2004.000     2209.000     2090.000
   48.2592     2079.000     1985.000     2175.000     2056.000     2042.000
   48.3135     2071.000     2103.000     2015.000     2082.000     2082.000
   48.3678     2094.000     2050.000     2226.000     2103.000     2165.000
   48.4222     2165.000     2212.000     2079.000     2127.000     2124.000
   48.4765     2188.000     2046.000     2088.000     2124.000     2174.000
   48.5308     2074.000     2050.000     2033.000     2044.000     2000.000
   48.5851     2105.000     2057.000     2147.000     2036.000     2111.000
   48.6395     1966.000     2056.000     1991.000     1969.000     1978.000
   48.6938     2038.000     1964.000     2069.000     2067.000     2160.000
   48.7481     1929.000     2052.000     2000.000     2019.000     1958.000
   48.8025     2049.000     1909.000     2037.000     1984.000     1970.000
   48.8568     2013.000     1965.000     1960.000     2064.000     1957.000
   48.9111     2133.000     2007.000     1945.000     1977.000     1997.000
   48.9655     1920.000     2022.000     1885.000     1963.000     1912.000
   49.0198     1942.000     1920.000     1955.000     1880.000     2020.000
   49.0741     1880.000     1977.000     1908.000     1992.000     1879.000
   49.1285     1996.000     1847.000     1957.000     1896.000     1946.000
   49.1828     1786.000     1997.000     1973.000     1984.000     1885.000
   49.2371     2001.000     1925.000     1981.000     1820.000     1994.000
   49.2915     1910.000     1950.000     1938.000     1877.000     1902.000
   49.3458     1921.000     1942.000     1945.000     1901.000     2016.000
   49.4001     1856.000     2002.000     1941.000     1999.000     1887.000
   49.4545     2023.000     1950.000     1983.000     1876.000     2097.000
   49.5088     1987.000     1990.000     1962.000     2049.000     1954.000
   49.5631     2096.000     2048.000     2089.000     1990.000     2114.000
   49.6175     2002.000     2138.000     1949.000     2052.000     2045.000
   49.6718     2122.000     1990.000     2082.000     1994.000     2132.000
   49.7261     2074.000     2133.000     1965.000     2128.000     2082.000
   49.7805     2123.000     1986.000     2152.000     2041.000     2037.000
   49.8348     1978.000     2157.000     1992.000     2052.000     1973.000
   49.8891     2014.000     2016.000     2031.000     1931.000     2112.000
   49.9435     1994.000     2068.000     1979.000     2135.000     2036.000
   49.9978     2036.000     1989.000     2013.000     1881.000     2001.000
   50.0521     1799.000     2068.000     1896.000     2074.000     1844.000
   50.1065     1931.000     1829.000     1904.000     1804.000     1914.000
   50.1608     1777.000     1855.000     1786.000     1877.000     1748.000
   50.2151     1889.000     1861.000     1773.000     1858.000     1856.000
   50.2694     1775.000     1869.000     1786.000     1831.000     1809.000
   50.3238     1814.000     1736.000     1837.000     1755.000     1826.000
   50.3781     1766.000     1794.000     1779.000     1812.000     1740.000
   50.4324     1876.000     1866.000     1890.000     1768.000     1859.000
   50.4868     1773.000     1923.000     1773.000     1896.000     1853.000
   50.5411     1905.000     1843.000     1856.000     1855.000     1939.000
   50.5954     1817.000     1970.000     1796.000     1862.000     1916.000
   50.6498     1941.000     1898.000     1850.000     1821.000     1883.000
   50.7041     1798.000     1938.000     1944.000     2006.000     1824.000
   50.7584     1904.000     1832.000     1906.000     1875.000     1896.000
   50.8128     1821.000     1912.000     1778.000     1912.000     1826.000
   50.8671     1848.000     1801.000     1935.000     1845.000     1888.000
   50.9214     1844.000     1824.000     1852.000     1896.000     1771.000
   50.9758     1854.000     1888.000     1884.000     1820.000     1871.000
   51.0301     1806.000     1769.000     1666.000     1859.000     1870.000
   51.0844     1777.000     1805.000     1827.000     1879.000     1881.000
   51.1388     1827.000     1878.000     1785.000     1893.000     1712.000
   51.1931     1805.000     1818.000     1840.000     1803.000     1933.000
   51.2474     1804.000     1850.000     1818.000     1833.000     1786.000
   51.3018     1906.000     1730.000     1836.000     1732.000     1738.000
   51.3561     1696.000     1851.000     1679.000     1819.000     1666.000
   51.4104     1787.000     1721.000     1850.000     1686.000     1780.000
   51.4648     1638.000     1752.000     1711.000     1696.000     1683.000
   51.5191     1704.000     1674.000     1757.000     1708.000     1797.000
   51.5734     1724.000     1784.000     1713.000     1797.000     1755.000
   51.6278     1803.000     1755.000     1785.000     1731.000     1847.000
   51.6821     1746.000     1860.000     1752.000     1825.000     1694.000
   51.7364     1787.000     1703.000     1767.000     1719.000     1847.000
   51.7907     1754.000     1846.000     1810.000     1835.000     1734.000
   51.8451     1833.000     1803.000     1821.000     1781.000     1881.000
   51.8994     1737.000     1866.000     1805.000     1920.000     1765.000
   51.9537     1948.000     1776.000     1884.000     1800.000     1848.000
   52.0081     1862.000     1857.000     1697.000     1813.000     1810.000
   52.0624     1851.000     1699.000     1853.000     1762.000     1821.000
   52.1167     1715.000     1913.000     1814.000     1920.000     1726.000
   52.1711     1826.000     1720.000     1812.000     1696.000     1825.000
   52.2254     1854.000     1805.000     1740.000     1798.000     1737.000
   52.2797     1756.000     1639.000     1767.000     1701.000     1746.000
   52.3341     1667.000     1713.000     1601.000     1704.000     1655.000
   52.3884     1674.000     1684.000     1799.000     1697.000     1677.000
   52.4427     1745.000     1709.000     1614.000     1794.000     1650.000
   52.4971     1749.000     1703.000     1746.000     1731.000     1726.000
   52.5514     1668.000     1648.000     1693.000     1787.000     1634.000
   52.6057     1717.000     1603.000     1686.000     1616.000     1725.000
   52.6601     1644.000     1637.000     1616.000     1625.000     1567.000
   52.7144     1743.000     1560.000     1689.000     1661.000     1687.000
   52.7687     1593.000     1647.000     1572.000     1655.000     1601.000
   52.8231     1672.000     1572.000     1712.000     1550.000     1621.000
   52.8774     1574.000     1624.000     1560.000     1742.000     1572.000
   52.9317     1645.000     1501.000     1658.000     1553.000     1660.000
   52.9861     1527.000     1620.000     1549.000     1622.000     1569.000
   53.0404     1596.000     1552.000     1540.000     1550.000     1574.000
   53.0947     1503.000     1622.000     1515.000     1556.000     1561.000
   53.1491     1641.000     1514.000     1657.000     1564.000     1500.000
   53.2034     1580.000     1583.000     1448.000     1566.000     1435.000
   53.2577     1598.000     1454.000     1610.000     1397.000     1523.000
   53.3121     1511.000     1567.000     1522.000     1564.000     1545.000
   53.3664     1608.000     1431.000     1557.000     1462.000     1607.000
   53.4207     1470.000     1548.000     1491.000     1519.000     1424.000
   53.4750     1603.000     1484.000     1525.000     1571.000     1576.000
   53.5294     1472.000     1532.000     1549.000     1551.000     1471.000
   53.5837     1537.000     1515.000     1599.000     1469.000     1586.000
   53.6380     1469.000     1602.000     1551.000     1620.000     1561.000
   53.6924     1612.000     1540.000     1608.000     1469.000     1558.000
   53.7467     1486.000     1628.000     1532.000     1564.000     1446.000
   53.8010     1539.000     1507.000     1522.000     1505.000     1564.000
   53.8554     1461.000     1498.000     1509.000     1565.000     1490.000
   53.9097     1515.000     1450.000     1550.000     1458.000     1568.000
   53.9640     1417.000     1514.000     1412.000     1470.000     1445.000
   54.0184     1512.000     1506.000     1492.000     1415.000     1477.000
   54.0727     1414.000     1573.000     1506.000     1610.000     1448.000
   54.1270     1445.000     1430.000     1445.000     1472.000     1495.000
   54.1814     1408.000     1507.000     1406.000     1502.000     1418.000
   54.2357     1461.000     1471.000     1481.000     1463.000     1505.000
   54.2900     1466.000     1522.000     1425.000     1505.000     1454.000
   54.3444     1542.000     1461.000     1455.000     1483.000     1450.000
   54.3987     1460.000     1501.000     1433.000     1518.000     1421.000
   54.4530     1479.000     1437.000     1491.000     1388.000     1443.000
   54.5074     1415.000     1499.000     1397.000     1494.000     1381.000
   54.5617     1488.000     1400.000     1459.000     1419.000     1504.000
   54.6160     1444.000     1492.000     1404.000     1488.000     1428.000
   54.6704     1516.000     1467.000     1530.000     1431.000     1478.000
   54.7247     1472.000     1495.000     1422.000     1487.000     1464.000
   54.7790     1404.000     1406.000     1475.000     1430.000     1524.000
   54.8334     1422.000     1458.000     1426.000     1567.000     1465.000
   54.8877     1483.000     1389.000     1503.000     1399.000     1465.000
   54.9420     1443.000     1479.000     1455.000     1479.000     1401.000
   54.9963     1514.000     1408.000     1449.000     1359.000     1427.000
   55.0507     1382.000     1373.000     1412.000     1517.000     1409.000
   55.1050     1415.000     1428.000     1430.000     1395.000     1486.000
   55.1593     1419.000     1454.000     1367.000     1449.000     1354.000
   55.2137     1456.000     1353.000     1452.000     1402.000     1397.000
   55.2680     1303.000     1423.000     1317.000     1436.000     1353.000
   55.3223     1348.000     1400.000     1401.000     1327.000     1400.000
   55.3767     1347.000     1426.000     1325.000     1404.000     1311.000
   55.4310     1361.000     1359.000     1411.000     1343.000     1361.000
   55.4853     1358.000     1397.000     1300.000     1349.000     1393.000
   55.5397     1452.000     1361.000     1423.000     1375.000     1371.000
   55.5940     1362.000     1377.000     1324.000     1420.000     1344.000
   55.6483     1405.000     1353.000     1421.000     1325.000     1395.000
   55.7027     1376.000     1424.000     1298.000     1370.000     1348.000
   55.7570     1482.000     1351.000     1367.000     1318.000     1458.000
   55.8113     1392.000     1522.000     1376.000     1438.000     1406.000
   55.8657     1524.000     1389.000     1481.000     1464.000     1556.000
   55.9200     1411.000     1452.000     1478.000     1521.000     1466.000
   55.9743     1554.000     1454.000     1433.000     1419.000     1532.000
   56.0287     1453.000     1477.000     1444.000     1441.000     1411.000
   56.0830     1426.000     1376.000     1439.000     1382.000     1516.000
   56.1373     1326.000     1474.000     1414.000     1503.000     1362.000
   56.1917     1415.000     1320.000     1462.000     1445.000     1456.000
   56.2460     1359.000     1382.000     1392.000     1389.000     1364.000
   56.3003     1433.000     1386.000     1327.000     1339.000     1384.000
   56.3547     1370.000     1396.000     1343.000     1404.000     1301.000
   56.4090     1318.000     1338.000     1357.000     1333.000     1328.000
   56.4633     1330.000     1378.000     1242.000     1342.000     1272.000
   56.5177     1378.000     1318.000     1341.000     1296.000     1426.000
   56.5720     1240.000     1379.000     1312.000     1375.000     1295.000
   56.6263     1386.000     1346.000     1358.000     1316.000     1444.000
   56.6806     1326.000     1408.000     1274.000     1464.000     1359.000
   56.7350     1465.000     1318.000     1428.000     1290.000     1450.000
   56.7893     1389.000     1432.000     1349.000     1356.000     1339.000
   56.8436     1432.000     1316.000     1427.000     1267.000     1364.000
   56.8980     1300.000     1342.000     1242.000     1388.000     1337.000
   56.9523     1402.000     1261.000     1400.000     1345.000     1322.000
   57.0066     1315.000     1358.000     1252.000     1330.000     1314.000
   57.0610     1308.000     1298.000     1394.000     1246.000     1348.000
   57.1153     1264.000     1314.000     1248.000     1319.000     1242.000
   57.1696     1289.000     1211.000     1313.000     1259.000     1335.000
   57.2240     1192.000     1304.000     1273.000     1247.000     1248.000
   57.2783     1253.000     1333.000     1339.000     1219.000     1371.000
   57.3326     1215.000     1304.000     1300.000     1313.000     1254.000
   57.3870     1297.000     1218.000     1340.000     1207.000     1312.000
   57.4413     1236.000     1308.000     1230.000     1312.000     1278.000
   57.4956     1227.000     1235.000     1294.000     1230.000     1263.000
   57.5500     1217.000     1339.000     1193.000     1291.000     1198.000
   57.6043     1327.000     1243.000     1345.000     1243.000     1286.000
   57.6586     1254.000     1440.000     1280.000     1313.000     1186.000
   57.7130     1309.000     1223.000     1327.000     1196.000     1294.000
   57.7673     1260.000     1341.000     1245.000     1339.000     1194.000
   57.8216     1307.000     1269.000     1355.000     1375.000     1326.000
   57.8760     1305.000     1333.000     1269.000     1257.000     1223.000
   57.9303     1325.000     1284.000     1306.000     1278.000     1311.000
   57.9846     1278.000     1290.000     1268.000     1314.000     1275.000
   58.0390     1343.000     1320.000     1331.000     1245.000     1328.000
   58.0933     1256.000     1381.000     1235.000     1258.000     1181.000
   58.1476     1331.000     1276.000     1302.000     1200.000     1343.000
   58.2019     1233.000     1319.000     1241.000     1236.000     1181.000
   58.2563     1227.000     1162.000     1223.000     1251.000     1298.000
   58.3106     1181.000     1263.000     1267.000     1272.000     1185.000
   58.3649     1318.000     1190.000     1251.000     1137.000     1235.000
   58.4193     1180.000     1205.000     1149.000     1241.000     1118.000
   58.4736     1222.000     1163.000     1203.000     1142.000     1149.000
   58.5279     1173.000     1226.000     1135.000     1221.000     1211.000
   58.5823     1185.000     1152.000     1241.000     1154.000     1225.000
   58.6366     1141.000     1231.000     1132.000     1219.000     1160.000
   58.6909     1218.000     1186.000     1230.000     1107.000     1178.000
   58.7453     1125.000     1189.000     1170.000     1152.000     1155.000
   58.7996     1235.000     1132.000     1211.000     1186.000     1220.000
   58.8539     1104.000     1230.000     1151.000     1206.000     1155.000
   58.9083     1165.000     1120.000     1203.000     1204.000     1194.000
   58.9626     1119.000     1199.000     1155.000     1173.000     1147.000
   59.0169     1197.000     1255.000     1155.000     1183.000     1326.000
   59.0713     1181.000     1189.000     1167.000     1219.000     1122.000
   59.1256     1181.000     1157.000     1199.000     1197.000     1194.000
   59.1799     1187.000     1245.000     1113.000     1171.000     1210.000
   59.2343     1168.000     1116.000     1212.000     1178.000     1203.000
   59.2886     1166.000     1208.000     1155.000     1243.000     1163.000
   59.3429     1159.000     1184.000     1271.000     1108.000     1198.000
   59.3973     1193.000     1171.000     1108.000     1154.000     1252.000
   59.4516     1169.000     1082.000     1137.000     1187.000     1162.000
   59.5059     1155.000     1156.000     1187.000     1264.000     1171.000
   59.5603     1217.000     1103.000     1309.000     1124.000     1262.000
   59.6146     1186.000     1218.000     1119.000     1263.000     1169.000
   59.6689     1242.000     1190.000     1243.000     1203.000     1215.000
   59.7233     1231.000     1298.000     1190.000     1269.000     1193.000
   59.7776     1218.000     1181.000     1272.000     1211.000     1248.000
   59.8319     1232.000     1295.000     1118.000     1315.000     1169.000
   59.8862     1185.000     1183.000     1208.000     1118.000     1213.000
   59.9406     1204.000     1179.000     1195.000     1202.000     1228.000
   59.9949     1188.000
## END= 
