SampleIdent,2025_06_03_Sorbic_Acid_3_60_8min,/
Title1,Sorbic Acid Standard,/
Title2,,/
DiffrType,?,/
DiffrNumber,1,/
Anode,Cu,/
LabdaAlpha1, 1.540598,/
LabdaAlpha2, 1.544426,/
RatioAlpha21, 0.50000,/
DivergenceSlit,Fixed, 1/2,/
ReceivingSlit,UNDEFINED,/
MonochromatorUsed,NO,/
GeneratorVoltage,  40,/
TubeCurrent,  15,/
FileDateTime,03-jun-2025 15:22,/
DataAngleRange,   3.00043,  59.99491,/
ScanStepSize, 0.01086644000,/
ScanType,CONTINUOUS,/
ScanStepTime, 18.87,/
RawScan
   43466,   42799,   42172,   42049,   41335,   40942,   40196,   39728
   39310,   38962,   38287,   37942,   37624,   36975,   36684,   35649
   35240,   34646,   34560,   33967,   33410,   32849,   32541,   32104
   31364,   30915,   30290,   30010,   30007,   29215,   29073,   28548
   28049,   27836,   27475,   26990,   26703,   26075,   26059,   25323
   24883,   24635,   24359,   23743,   23552,   23281,   22964,   22561
   22188,   21979,   21581,   21276,   21008,   20502,   19931,   20105
   19845,   19198,   18863,   18549,   18352,   18270,   17763,   17631
   17381,   16857,   16529,   16437,   16186,   15944,   15652,   15364
   15047,   14588,   14510,   14401,   14198,   13814,   13674,   13454
   13256,   12794,   12710,   12508,   12206,   11975,   11870,   11631
   11279,   11334,   10865,   10799,   10666,   10368,   10374,   10188
    9969,    9653,    9378,    9287,    8851,    8837,    8911,    8635
    8594,    8330,    8286,    8131,    7910,    7677,    7630,    7382
    7142,    7177,    7090,    6841,    6605,    6575,    6525,    6324
    6363,    6125,    5985,    5923,    5717,    5661,    5396,    5293
    5398,    5129,    5166,    4976,    4710,    4841,    4645,    4576
    4542,    4487,    4319,    4332,    4108,    3938,    3912,    3821
    3862,    3722,    3787,    3558,    3581,    3553,    3400,    3262
    3248,    3235,    3205,    3034,    3061,    3007,    2997,    2948
    2811,    2765,    2657,    2686,    2631,    2570,    2565,    2586
    2583,    2649,    2496,    2472,    2513,    2407,    2327,    2348
    2307,    2408,    2271,    2278,    2289,    2254,    2285,    2328
    2297,    2247,    2213,    2304,    2248,    2215,    2225,    2297
    2242,    2254,    2243,    2263,    2236,    2214,    2260,    2275
    2279,    2250,    2265,    2232,    2264,    2244,    2249,    2155
    2269,    2225,    2131,    2295,    2292,    2173,    2232,    2248
    2250,    2218,    2208,    2269,    2174,    2094,    2111,    2144
    2036,    1985,    1936,    2001,    1955,    1917,    1876,    1893
    1795,    1884,    1821,    1846,    1817,    1712,    1779,    1753
    1682,    1700,    1583,    1622,    1575,    1599,    1593,    1559
    1491,    1514,    1515,    1426,    1510,    1462,    1441,    1466
    1455,    1387,    1428,    1365,    1431,    1421,    1394,    1462
    1425,    1386,    1360,    1373,    1346,    1403,    1335,    1360
    1372,    1338,    1366,    1376,    1313,    1308,    1357,    1354
    1280,    1320,    1342,    1387,    1271,    1327,    1276,    1247
    1277,    1321,    1306,    1329,    1296,    1249,    1278,    1247
    1270,    1328,    1239,    1232,    1244,    1243,    1215,    1211
    1179,    1245,    1244,    1225,    1178,    1240,    1178,    1245
    1183,    1194,    1194,    1242,    1185,    1145,    1186,    1211
    1164,    1140,    1106,    1141,    1142,    1127,    1134,    1118
    1103,    1173,    1107,    1136,    1128,    1059,    1121,    1054
    1101,    1098,    1130,    1110,    1131,    1101,    1048,    1121
    1072,    1118,    1077,    1048,    1041,     991,    1077,    1038
    1017,    1028,    1060,    1003,    1063,    1044,    1027,    1047
    1015,    1011,    1069,    1016,    1019,    1034,    1001,    1064
    1031,    1059,    1034,    1003,    1018,    1017,    1005,    1026
     992,     984,    1024,     945,     957,     985,    1016,     984
     979,    1015,     959,    1007,    1002,     937,     971,     999
    1034,     968,    1019,    1071,     984,     947,     970,     994
     992,     967,     946,     950,     989,    1001,     981,    1050
     904,    1017,     960,     968,     985,     957,     997,     929
     976,     962,     956,     981,     954,     974,     956,     961
     931,     959,     982,     972,     935,    1052,     970,     988
     986,     986,     952,     994,     981,     944,     989,     995
     947,     938,     917,     948,     925,     975,    1055,     992
    1010,     971,     969,     914,     987,     963,     985,     923
     985,     952,    1020,     974,     982,     933,     909,    1008
     987,     929,    1001,    1009,     945,     963,    1037,     919
    1035,     965,     945,    1041,     959,    1021,     971,     936
     963,     967,     994,     911,     982,     975,     950,     945
     921,    1013,    1006,    1030,     982,     958,     945,     992
     902,     962,     976,    1043,     943,     983,     882,     889
     973,    1031,     984,     997,    1001,    1003,     979,     934
     949,     976,     954,     986,     983,     997,     955,     996
     992,     916,    1022,     953,     949,    1020,     992,     997
    1017,    1033,    1025,    1000,    1046,    1003,     995,    1004
    1062,    1083,    1001,    1020,    1030,    1010,    1044,    1026
    1073,    1076,    1048,    1065,    1110,    1084,    1071,    1066
    1069,    1083,    1042,    1101,    1093,    1107,    1128,    1141
    1172,    1100,    1178,    1105,    1186,    1132,    1132,    1138
    1073,    1111,    1163,    1115,    1099,    1057,    1150,    1083
    1090,    1125,    1123,    1095,    1093,    1084,    1129,    1041
    1046,    1094,    1004,    1043,    1008,    1065,    1056,    1075
    1012,    1056,    1031,    1023,    1071,    1081,    1018,    1043
    1016,    1078,    1047,    1054,    1055,    1048,    1048,    1078
    1111,    1051,    1101,    1067,    1073,    1057,    1126,    1014
    1114,    1064,    1064,    1038,    1060,    1048,    1022,    1045
    1067,    1123,    1062,    1085,    1049,    1012,    1074,    1058
    1039,    1126,    1038,    1038,    1065,    1091,    1049,    1057
    1068,    1054,    1100,    1097,    1104,    1036,    1081,    1095
    1067,    1127,    1033,    1131,    1122,    1089,    1135,    1027
    1086,    1098,    1155,    1109,    1141,    1141,    1108,    1133
    1124,    1110,    1178,    1136,    1126,    1124,    1094,    1089
    1132,    1226,    1186,    1247,    1149,    1197,    1196,    1249
    1121,    1229,    1158,    1173,    1181,    1154,    1157,    1144
    1212,    1163,    1146,    1079,    1151,    1087,    1095,    1194
    1134,    1109,    1096,    1201,    1138,    1152,    1131,    1191
    1122,    1171,    1150,    1092,    1220,    1160,    1187,    1277
    1186,    1277,    1189,    1237,    1297,    1328,    1398,    1386
    1345,    1501,    1479,    1565,    1557,    1647,    1703,    1729
    1733,    1834,    1951,    1992,    2054,    2081,    2075,    2249
    2337,    2507,    2557,    2645,    2831,    2896,    3074,    3310
    3558,    3762,    4010,    4433,    4666,    5333,    5844,    6254
    7117,    8402,    9664,   11211,   13192,   15266,   16921,   18977
   20696,   22084,   23732,   25481,   26287,   27239,   28716,   29220
   30810,   31603,   32716,   34125,   35594,   37637,   39371,   42126
   43693,   45111,   46294,   47346,   47450,   47221,   45637,   43801
   41483,   38830,   35590,   32036,   28282,   25369,   21913,   19977
   17685,   16135,   14355,   13027,   12078,   11258,   10615,   10461
    9970,    9948,    9157,    9111,    7788,    7067,    5887,    4935
    4039,    3444,    3049,    2776,    2492,    2394,    2271,    2210
    2096,    2007,    2005,    1896,    1768,    1752,    1768,    1817
    1695,    1708,    1682,    1674,    1600,    1545,    1601,    1549
    1637,    1608,    1506,    1578,    1542,    1563,    1552,    1526
    1536,    1466,    1487,    1493,    1550,    1475,    1477,    1449
    1519,    1488,    1571,    1400,    1546,    1488,    1513,    1450
    1515,    1487,    1428,    1468,    1500,    1514,    1507,    1520
    1437,    1508,    1508,    1582,    1541,    1520,    1605,    1537
    1636,    1589,    1648,    1652,    1665,    1697,    1773,    1804
    1854,    1944,    1937,    1992,    1993,    2067,    2177,    2242
    2315,    2299,    2385,    2434,    2551,    2573,    2725,    2747
    3015,    3012,    3264,    3639,    3676,    4075,    4251,    4605
    4763,    5184,    5343,    5655,    5914,    6159,    6092,    6392
    6292,    6580,    6467,    6722,    6525,    6716,    6807,    7015
    7199,    7580,    8315,    8899,    9457,   10228,   11036,   12207
   12536,   13050,   13482,   13692,   13431,   13121,   12674,   11640
   10312,    8836,    7160,    5656,    4298,    3369,    2622,    2102
    1866,    1866,    1734,    1730,    1657,    1565,    1571,    1511
    1475,    1497,    1435,    1506,    1409,    1386,    1421,    1400
    1411,    1335,    1353,    1327,    1375,    1304,    1255,    1268
    1291,    1246,    1264,    1322,    1247,    1207,    1286,    1232
    1225,    1270,    1264,    1207,    1265,    1241,    1211,    1258
    1164,    1258,    1217,    1279,    1240,    1247,    1222,    1234
    1187,    1124,    1186,    1197,    1188,    1213,    1187,    1132
    1246,    1240,    1158,    1114,    1133,    1144,    1190,    1205
    1188,    1207,    1154,    1198,    1177,    1121,    1162,    1036
    1179,    1142,    1074,    1151,    1126,    1145,    1146,    1126
    1118,    1135,    1093,    1139,    1138,    1151,    1101,    1141
    1128,    1183,    1151,    1136,    1113,    1076,    1140,    1092
    1137,    1054,    1147,    1091,    1130,    1114,    1089,    1097
    1165,    1089,    1117,    1122,    1098,    1122,    1131,    1117
    1112,    1114,    1117,    1075,    1088,    1137,    1005,    1043
    1089,    1039,    1131,    1111,    1105,    1077,    1086,    1037
    1103,    1025,    1071,    1094,    1048,    1035,    1046,     996
    1079,    1056,    1038,    1020,    1154,    1057,    1070,    1049
    1020,    1045,    1048,     982,    1044,    1052,    1132,    1087
    1079,    1129,    1000,    1029,    1026,    1116,    1079,    1016
     979,    1033,    1001,    1066,    1044,     986,    1054,     994
    1079,    1061,    1034,     982,    1063,    1019,    1077,     977
    1058,     982,    1008,    1023,    1041,     995,    1028,     945
    1030,    1009,    1053,     965,    1017,    1038,    1036,    1010
     949,     995,    1018,    1084,    1019,    1044,    1028,     980
     971,     984,     988,    1018,    1010,    1018,     998,     994
    1038,     965,    1025,     995,     965,    1022,     974,    1070
    1066,    1030,    1056,    1080,    1110,    1092,    1076,    1105
    1037,    1119,    1133,    1064,    1073,    1120,    1116,    1089
    1161,    1105,    1105,    1186,    1141,    1189,    1267,    1184
    1287,    1346,    1315,    1399,    1525,    1559,    1649,    1659
    1614,    1762,    1751,    1797,    1752,    1920,    1868,    1877
    1929,    1954,    2088,    2071,    2183,    2244,    2366,    2427
    2509,    2474,    2498,    2410,    2515,    2322,    2134,    2104
    1976,    1931,    1835,    1806,    1679,    1608,    1465,    1596
    1484,    1430,    1453,    1303,    1298,    1179,    1190,    1133
    1110,    1066,     976,     972,     984,     941,     962,     939
     909,    1007,     922,     962,     954,     959,     923,     964
     926,     909,     937,     939,     956,     905,     956,     983
     962,     963,     942,     918,     890,     907,     896,     899
     938,     916,     945,     926,     928,     944,     874,    1020
     940,     909,     929,     906,     899,     935,     968,     952
     890,     903,     856,     916,     943,     929,     916,     880
     922,     905,     979,     902,     909,     847,     862,     921
     898,     848,     876,     910,     913,     892,     883,     954
     849,     925,     909,     903,     938,     958,     915,     865
     885,     927,     885,     861,     817,     890,     819,     908
     863,     936,     938,     861,     922,     847,     954,     901
     931,     897,     932,     847,     848,     939,     905,     903
     842,     940,     877,     888,     866,     888,     854,     835
     904,     929,     895,     989,     881,     874,     884,     892
     929,     896,     914,     937,     943,     969,     955,     948
     946,     920,     892,     964,     937,     948,     931,     976
     963,     906,     918,     942,     961,    1089,     969,     986
    1023,    1048,    1086,    1134,    1181,    1276,    1285,    1383
    1375,    1489,    1548,    1495,    1521,    1640,    1624,    1674
    1600,    1670,    1667,    1606,    1537,    1488,    1471,    1428
    1405,    1405,    1406,    1285,    1302,    1357,    1440,    1384
    1509,    1501,    1518,    1620,    1724,    1653,    1758,    1771
    1767,    1712,    1753,    1756,    1729,    1761,    1659,    1579
    1467,    1325,    1258,    1165,    1134,    1080,    1057,    1019
     988,     977,     927,     962,     966,     981,     944,     911
     956,     938,     901,     971,     985,     925,     939,     917
     962,     953,    1032,     931,     918,     926,     998,     919
     941,     963,     953,     916,     901,    1000,     970,     952
     935,     892,    1010,     970,    1009,    1014,     982,    1015
     989,     976,    1023,     989,    1032,    1017,     991,    1041
    1018,    1070,    1071,    1097,    1159,    1020,    1127,    1121
    1103,    1158,    1197,    1167,    1235,    1246,    1228,    1301
    1266,    1323,    1299,    1411,    1366,    1444,    1418,    1467
    1403,    1417,    1423,    1480,    1524,    1468,    1401,    1339
    1432,    1375,    1366,    1400,    1350,    1365,    1445,    1506
    1498,    1344,    1459,    1331,    1323,    1292,    1308,    1235
    1131,    1138,    1128,    1044,    1029,     997,     991,     947
     950,     974,     894,    1009,     918,     972,     960,    1005
    1013,    1000,     978,     977,     930,     937,     996,     980
    1002,    1021,    1018,     969,     996,     965,     994,     956
    1008,    1009,     944,    1007,     986,    1029,    1016,    1000
    1014,     970,    1069,     983,    1004,    1022,     962,    1012
    1029,     960,     931,     961,     939,    1033,    1074,     993
    1006,    1011,     988,    1079,    1061,    1045,    1050,    1054
     999,    1028,    1009,    1096,    1099,    1082,    1065,    1070
    1092,    1091,    1119,    1151,    1090,    1131,    1143,    1197
    1234,    1198,    1207,    1155,    1236,    1194,    1181,    1244
    1240,    1336,    1281,    1320,    1281,    1262,    1256,    1181
    1232,    1183,    1173,    1173,    1204,    1222,    1172,    1190
    1197,    1247,    1166,    1216,    1161,    1174,    1144,    1157
    1236,    1162,    1188,    1194,    1137,    1202,    1099,    1107
    1117,    1172,    1094,    1146,    1137,    1077,    1059,    1068
    1109,    1089,    1117,    1124,    1135,    1077,    1052,    1124
    1071,    1109,    1143,    1186,    1131,    1105,    1113,    1129
    1114,    1207,    1165,    1098,    1100,    1155,    1082,    1146
    1135,    1209,    1141,    1151,    1134,    1144,    1203,    1228
    1094,    1170,    1185,    1199,    1196,    1189,    1158,    1149
    1150,    1175,    1235,    1188,    1188,    1192,    1160,    1241
    1203,    1271,    1198,    1277,    1254,    1156,    1202,    1191
    1190,    1255,    1182,    1250,    1310,    1210,    1294,    1234
    1229,    1277,    1251,    1253,    1204,    1257,    1322,    1297
    1415,    1317,    1276,    1407,    1371,    1359,    1411,    1332
    1328,    1387,    1376,    1399,    1448,    1498,    1475,    1534
    1521,    1627,    1671,    1643,    1704,    1655,    1809,    1755
    1764,    1930,    1899,    1930,    1988,    2003,    2134,    2066
    2212,    2099,    2143,    2271,    2302,    2444,    2591,    2523
    2579,    2746,    2730,    2979,    3065,    3170,    3186,    3375
    3468,    3597,    3651,    3841,    3893,    3956,    4109,    4201
    4296,    4640,    4581,    4899,    5343,    5529,    5740,    6288
    6702,    7241,    7845,    8619,    9635,   10856,   11908,   13381
   14762,   16453,   17982,   19639,   21613,   23976,   26740,   29336
   32091,   34748,   38165,   40832,   43770,   46036,   49791,   53447
   57008,   61618,   67404,   72624,   78831,   83255,   87976,   89609
   90876,   90900,   91342,   90281,   88312,   83823,   82768,   77024
   76698,   71715,   73552,   70567,   73856,   72807,   74491,   73589
   75649,   73569,   74049,   70433,   68094,   64324,   59952,   56485
   51466,   47037,   42976,   40250,   37398,   35017,   32226,   30352
   26366,   23786,   20928,   19013,   17017,   14979,   13044,   11242
    9580,    8529,    7757,    7220,    6951,    6395,    6231,    6143
    6225,    6254,    6309,    6471,    6623,    6957,    7311,    7501
    8056,    8095,    8737,    9285,    9878,   10193,   10285,   10350
    9994,    9934,    9649,    9242,    8785,    8456,    8115,    7887
    7795,    7609,    7375,    7379,    7233,    7214,    6954,    6772
    6571,    6441,    6288,    6160,    6138,    5821,    5846,    5679
    5785,    5583,    5455,    5173,    5278,    4950,    4928,    4764
    4452,    4309,    4050,    3851,    3476,    3311,    3043,    2801
    2881,    2573,    2453,    2417,    2412,    2327,    2235,    2331
    2303,    2252,    2231,    2121,    2262,    2142,    2114,    2233
    2142,    2257,    2143,    2231,    2291,    2199,    2264,    2212
    2192,    2173,    2255,    2205,    2203,    2333,    2302,    2355
    2377,    2328,    2353,    2373,    2362,    2423,    2397,    2554
    2578,    2594,    2621,    2782,    2722,    2917,    3043,    3147
    3426,    3538,    3951,    4247,    4661,    5272,    5678,    6354
    7027,    7862,    8789,   10088,   10948,   11933,   13117,   14279
   15048,   16780,   18082,   19295,   20642,   22558,   23534,   24340
   25023,   25917,   25719,   26263,   26388,   26939,   26595,   25442
   24079,   22759,   21626,   20943,   19543,   18557,   16695,   15373
   13979,   12952,   12439,   11929,   11369,   10812,   10301,    9707
    9100,    9096,    8788,    8374,    7623,    6929,    6117,    5671
    5358,    4842,    4343,    3931,    3606,    3175,    2804,    2774
    2547,    2498,    2443,    2275,    2225,    2194,    2118,    2081
    2089,    2102,    1977,    2018,    1877,    1960,    1967,    1905
    1851,    1842,    1947,    1812,    1774,    1786,    1776,    1787
    1759,    1774,    1740,    1716,    1653,    1715,    1706,    1730
    1723,    1709,    1725,    1716,    1629,    1765,    1712,    1804
    1704,    1723,    1713,    1805,    1775,    1720,    1723,    1740
    1708,    1646,    1645,    1687,    1786,    1761,    1707,    1656
    1697,    1637,    1665,    1726,    1685,    1697,    1605,    1739
    1669,    1726,    1759,    1665,    1742,    1837,    1835,    1792
    1880,    1827,    1802,    1802,    1867,    1967,    1846,    1867
    1878,    1815,    1759,    1797,    1767,    1757,    1745,    1817
    1696,    1724,    1707,    1626,    1705,    1653,    1675,    1717
    1683,    1709,    1700,    1675,    1649,    1762,    1728,    1729
    1681,    1659,    1693,    1810,    1823,    1825,    1850,    1871
    1897,    1995,    2014,    2095,    2127,    2185,    2170,    2210
    2247,    2324,    2360,    2380,    2563,    2582,    2709,    2711
    2725,    2655,    2733,    2827,    2714,    2724,    2682,    2645
    2535,    2421,    2240,    2134,    2183,    2028,    1897,    1856
    1700,    1719,    1779,    1686,    1625,    1663,    1631,    1665
    1517,    1606,    1655,    1702,    1598,    1560,    1563,    1661
    1648,    1664,    1718,    1610,    1612,    1595,    1719,    1680
    1642,    1646,    1704,    1706,    1648,    1739,    1790,    1805
    1827,    1754,    1779,    1843,    1862,    1851,    1926,    1948
    1962,    2055,    2072,    2104,    2098,    2134,    2174,    2353
    2320,    2294,    2415,    2441,    2563,    2511,    2517,    2534
    2513,    2586,    2555,    2788,    2716,    2764,    2721,    2771
    2943,    3012,    3134,    3206,    3522,    3539,    3781,    4216
    4531,    4956,    5551,    6563,    7358,    8336,    8830,    9690
   10203,   11221,   12109,   13272,   14365,   15855,   16666,   17915
   18693,   19997,   20814,   22505,   23935,   25314,   27204,   29166
   29945,   30920,   30301,   30059,   28503,   26693,   25091,   23823
   22404,   20874,   19429,   17932,   16241,   15446,   14617,   13416
   12748,   11436,   10937,    9991,    9570,    8847,    8240,    7773
    6914,    6381,    5654,    5182,    4558,    4238,    3802,    3444
    3098,    2802,    2601,    2473,    2181,    2163,    2133,    2002
    1926,    1816,    1775,    1819,    1796,    1756,    1687,    1682
    1589,    1595,    1582,    1588,    1585,    1508,    1536,    1501
    1463,    1471,    1512,    1494,    1564,    1522,    1449,    1459
    1425,    1378,    1450,    1386,    1358,    1438,    1451,    1437
    1375,    1501,    1401,    1439,    1423,    1357,    1432,    1345
    1424,    1368,    1385,    1318,    1367,    1345,    1386,    1326
    1339,    1339,    1319,    1345,    1310,    1268,    1370,    1271
    1300,    1346,    1370,    1311,    1256,    1269,    1331,    1253
    1285,    1325,    1288,    1265,    1285,    1271,    1225,    1292
    1248,    1305,    1330,    1285,    1311,    1282,    1250,    1214
    1270,    1255,    1186,    1203,    1206,    1249,    1334,    1245
    1271,    1173,    1178,    1139,    1215,    1172,    1174,    1188
    1160,    1263,    1176,    1224,    1259,    1281,    1254,    1283
    1189,    1262,    1224,    1250,    1249,    1270,    1286,    1176
    1196,    1331,    1286,    1321,    1316,    1303,    1208,    1333
    1252,    1336,    1404,    1397,    1437,    1425,    1411,    1579
    1538,    1617,    1627,    1676,    1657,    1790,    1689,    1694
    1834,    1714,    1788,    1807,    1759,    1752,    1629,    1636
    1584,    1564,    1477,    1448,    1427,    1390,    1369,    1263
    1248,    1347,    1247,    1266,    1168,    1255,    1121,    1173
    1094,    1108,    1170,    1125,    1116,    1072,    1067,    1066
    1078,    1049,     989,    1085,    1076,    1084,    1029,    1067
    1061,    1078,    1045,    1008,    1061,    1050,    1070,    1067
    1060,    1039,     986,    1118,    1062,    1015,     993,    1080
    1016,    1111,    1028,    1033,    1068,    1034,    1086,     982
    1010,     989,     981,    1027,    1019,    1049,    1015,    1055
    1067,    1050,     966,    1059,    1058,     984,    1004,     963
    1007,    1000,     991,    1017,    1037,    1048,    1023,    1041
    1018,    1005,    1011,    1031,    1068,    1011,     987,    1045
     988,     986,     993,    1004,     988,     968,     948,    1071
    1048,    1031,     998,     994,     975,    1011,    1017,     996
     965,    1041,     988,     992,     960,    1042,    1020,     998
     995,     996,     957,     961,    1013,    1049,    1039,    1004
    1012,    1058,    1038,     994,    1037,     987,     998,    1023
     998,    1082,    1038,    1044,    1076,    1040,    1090,    1096
    1053,    1105,    1105,    1164,    1124,    1132,    1180,    1226
    1262,    1334,    1541,    1426,    1550,    1622,    1647,    1761
    1887,    1975,    2072,    2168,    2223,    2307,    2304,    2272
    2442,    2453,    2536,    2668,    2765,    2731,    2781,    2854
    2848,    2723,    2649,    2626,    2460,    2447,    2355,    2308
    2262,    2209,    2194,    2065,    2156,    2071,    2045,    2118
    2053,    2014,    2040,    1993,    1970,    2009,    1893,    1906
    1836,    1831,    1725,    1776,    1684,    1661,    1661,    1662
    1654,    1650,    1679,    1658,    1733,    1753,    1800,    1879
    1871,    2027,    2148,    2086,    2272,    2430,    2321,    2363
    2361,    2632,    2473,    2549,    2742,    2708,    2814,    2995
    3188,    3298,    3368,    3607,    3717,    3669,    3719,    3580
    3679,    3599,    3495,    3476,    3245,    3288,    3166,    3001
    2981,    2859,    2746,    2570,    2400,    2501,    2395,    2346
    2304,    2331,    2212,    2327,    2144,    2272,    2119,    2308
    2213,    2141,    2136,    2090,    2174,    2012,    2033,    2022
    1964,    1884,    1960,    1909,    1915,    1957,    1844,    1795
    1776,    1709,    1621,    1586,    1489,    1487,    1465,    1451
    1431,    1357,    1296,    1242,    1228,    1198,    1243,    1265
    1244,    1278,    1236,    1294,    1324,    1313,    1337,    1364
    1276,    1354,    1297,    1280,    1257,    1292,    1200,    1210
    1185,    1190,    1125,    1153,    1137,    1198,    1165,    1157
    1171,    1178,    1199,    1267,    1229,    1226,    1252,    1187
    1249,    1279,    1244,    1239,    1198,    1183,    1146,    1233
    1191,    1082,    1099,    1117,    1100,    1037,    1069,    1073
    1037,     992,    1043,    1008,    1071,     973,     964,     986
     978,     980,     981,    1016,     996,     968,    1018,     998
     913,     939,     991,    1003,    1012,    1071,    1095,    1105
    1127,    1145,    1160,    1212,    1288,    1279,    1253,    1261
    1251,    1287,    1362,    1310,    1355,    1316,    1439,    1352
    1307,    1337,    1438,    1398,    1365,    1403,    1393,    1367
    1254,    1271,    1376,    1355,    1242,    1282,    1253,    1248
    1208,    1203,    1168,    1132,    1185,    1128,    1134,    1062
    1071,    1065,    1028,    1051,    1054,    1006,     972,     961
    1002,     998,     905,     897,     866,     885,     849,     896
     863,     864,     796,     837,     860,     854,     780,     843
     798,     871,     803,     889,     824,     843,     790,     888
     841,     827,     869,     832,     893,     925,     912,     905
     863,     912,     938,     951,     928,     929,     931,     905
    1039,     959,     925,     993,     913,     952,     924,     891
     923,     982,     908,     918,     923,     901,     925,     913
     877,     893,     868,     881,     867,     870,     899,     884
     852,     910,     882,     849,     826,     889,     891,     862
     853,     817,     852,     870,     810,     858,     840,     890
     833,     902,     846,     852,     844,     888,     869,     843
     886,     831,     813,     867,     857,     823,     839,     876
     863,     901,     896,     915,     884,     839,     875,     870
     852,     973,     940,     992,     960,     987,    1023,    1114
    1126,    1089,    1233,    1193,    1307,    1297,    1371,    1497
    1541,    1539,    1695,    1762,    1791,    1813,    1948,    1906
    1982,    2034,    2034,    2011,    1970,    1837,    1889,    1902
    1914,    1875,    2010,    1997,    2056,    2251,    2320,    2486
    2618,    2830,    2925,    3033,    3146,    3265,    3477,    3470
    3587,    3771,    4059,    4140,    4423,    4557,    4847,    4828
    5089,    5031,    4962,    4875,    4948,    4807,    4618,    4415
    4258,    3882,    3708,    3366,    3237,    3072,    2895,    2497
    2386,    2164,    1911,    1856,    1648,    1603,    1561,    1445
    1380,    1260,    1270,    1271,    1236,    1264,    1204,    1154
    1070,    1121,    1078,    1101,    1031,    1084,    1002,    1079
     959,     970,     983,     969,     956,     964,     959,     928
     922,     936,     922,     960,     937,     963,     945,     944
     939,     885,     995,    1011,     954,     967,     935,    1025
     994,    1039,     998,    1000,    1027,    1015,     986,    1022
    1022,    1091,    1060,    1158,    1089,    1191,    1219,    1150
    1214,    1264,    1268,    1277,    1313,    1413,    1389,    1358
    1474,    1482,    1480,    1387,    1357,    1327,    1352,    1245
    1237,    1225,    1171,    1221,    1162,    1192,    1176,    1158
    1113,    1157,    1182,    1158,    1182,    1225,    1210,    1160
    1117,    1168,    1109,    1042,    1015,    1028,    1010,     990
    1057,     943,     864,     892,     902,     876,     871,     933
     864,     859,     819,     827,     838,     808,     826,     866
     805,     817,     851,     808,     872,     810,     769,     815
     826,     818,     862,     832,     869,     870,     889,     883
     880,     834,     835,     822,     886,     827,     889,     837
     833,     829,     838,     828,     813,     841,     866,     875
     873,     789,     858,     855,     891,     865,     866,     849
     832,     845,     840,     888,     860,     832,     816,     850
     832,     779,     846,     807,     793,     815,     787,     810
     816,     819,     834,     788,     790,     797,     840,     808
     842,     821,     783,     844,     819,     822,     817,     813
     819,     810,     804,     829,     838,     829,     815,     824
     877,     824,     843,     787,     798,     811,     802,     807
     835,     805,     817,     828,     841,     894,     839,     817
     787,     863,     849,     882,     854,     805,     861,     811
     856,     859,     856,     842,     860,     823,     904,     776
     853,     808,     840,     819,     905,     853,     972,     811
     894,     887,     932,     959,    1004,     939,     996,    1057
    1018,     887,    1025,    1017,    1014,     990,    1001,    1025
    1019,     978,    1053,    1054,    1044,    1116,    1192,    1133
    1110,    1196,    1221,    1059,    1196,    1154,    1180,    1182
    1192,    1263,    1272,    1231,    1374,    1309,    1333,    1370
    1329,    1324,    1336,    1377,    1403,    1387,    1407,    1413
    1455,    1438,    1509,    1592,    1648,    1778,    1741,    1883
    2031,    2105,    2203,    2122,    2158,    2160,    2125,    2127
    2043,    2106,    1963,    1991,    1898,    1852,    1774,    1768
    1650,    1678,    1672,    1476,    1484,    1438,    1346,    1352
    1276,    1267,    1369,    1393,    1407,    1360,    1495,    1445
    1600,    1605,    1723,    1844,    1924,    2040,    1976,    2021
    2135,    2116,    2148,    2155,    2197,    2172,    2179,    2136
    2309,    2302,    2462,    2538,    2613,    2620,    2712,    2775
    2827,    3042,    3284,    3432,    3606,    3678,    3841,    3895
    3890,    4075,    3690,    3734,    3448,    3192,    3146,    2866
    2711,    2591,    2455,    2328,    2137,    2003,    1850,    1520
    1562,    1385,    1283,    1264,    1124,    1135,    1169,    1142
    1126,    1053,    1014,    1080,    1064,    1061,    1020,    1035
    1034,     938,    1000,     967,     970,     959,     890,     889
     907,     870,     882,     920,     873,     874,     856,     805
     893,     937,     875,     908,     847,     863,     864,     928
     938,     984,     975,     974,    1040,    1003,     971,    1030
    1108,    1103,    1024,    1045,    1104,    1177,    1186,    1232
    1184,    1261,    1176,    1264,    1287,    1315,    1318,    1275
    1300,    1270,    1306,    1256,    1231,    1262,    1176,    1216
    1190,    1180,    1194,    1169,    1240,    1252,    1257,    1275
    1313,    1306,    1317,    1289,    1359,    1292,    1390,    1267
    1343,    1329,    1378,    1384,    1367,    1385,    1410,    1314
    1425,    1374,    1427,    1490,    1490,    1491,    1546,    1596
    1572,    1602,    1509,    1532,    1454,    1466,    1427,    1428
    1414,    1426,    1384,    1346,    1298,    1340,    1320,    1250
    1253,    1178,    1250,    1115,    1122,    1074,    1056,    1021
     922,     964,     928,     961,     923,     899,     911,     898
     878,     846,     867,     825,     839,     806,     803,     754
     789,     758,     810,     767,     813,     746,     787,     753
     765,     782,     752,     834,     723,     838,     768,     811
     763,     737,     754,     820,     772,     793,     793,     722
     741,     790,     770,     801,     819,     782,     752,     762
     777,     741,     736,     760,     720,     766,     764,     698
     733,     710,     711,     702,     731,     727,     759,     704
     757,     700,     727,     729,     728,     717,     768,     714
     775,     751,     785,     768,     764,     787,     819,     817
     784,     828,     850,     844,     845,     893,     845,     905
     988,     967,     988,    1018,     989,     995,     973,     996
     978,     956,     963,     966,    1033,     979,     974,     938
     926,     962,     901,     965,     848,     912,     896,     878
     865,     885,     879,     853,     867,     814,     850,     863
     866,     823,     898,     886,     875,     915,     913,     907
     924,     893,     997,     989,    1047,    1021,    1148,    1056
    1168,    1174,    1265,    1204,    1194,    1186,    1178,    1181
    1273,    1154,    1162,    1158,    1101,    1052,    1122,    1079
    1140,     995,    1004,     971,     946,     890,     899,     858
     893,     828,     853,     810,     816,     780,     867,     827
     808,     802,     757,     807,     758,     772,     720,     742
     744,     755,     747,     730,     721,     727,     767,     734
     753,     767,     773,     718,     721,     742,     773,     717
     723,     689,     683,     770,     655,     713,     708,     720
     724,     755,     731,     665,     698,     730,     723,     727
     757,     730,     729,     706,     726,     785,     726,     742
     716,     721,     718,     753,     670,     682,     707,     738
     744,     756,     688,     675,     691,     729,     690,     710
     717,     695,     662,     728,     759,     667,     720,     733
     721,     719,     672,     734,     741,     722,     687,     662
     719,     714,     679,     674,     653,     712,     702,     727
     668,     729,     739,     708,     722,     693,     699,     723
     697,     723,     728,     720,     697,     727,     731,     722
     767,     811,     736,     777,     807,     770,     795,     856
     778,     804,     813,     808,     808,     776,     821,     789
     787,     770,     861,     824,     813,     819,     825,     806
     836,     812,     854,     834,     835,     852,     807,     824
     854,     823,     778,     868,     873,     914,     926,     926
     940,     970,    1012,    1024,    1038,    1029,    1079,    1032
    1031,    1104,    1057,    1089,    1147,    1122,    1251,    1222
    1348,    1276,    1235,    1185,    1178,    1175,    1190,    1157
    1216,    1253,    1285,    1263,    1322,    1351,    1353,    1368
    1267,    1243,    1254,    1233,    1146,    1080,    1035,    1181
    1144,    1223,    1207,    1188,    1206,    1219,    1311,    1375
    1395,    1593,    1548,    1729,    1772,    1815,    1765,    1803
    1776,    1760,    1727,    1776,    1705,    1741,    1767,    1682
    1690,    1630,    1640,    1498,    1528,    1500,    1528,    1474
    1381,    1297,    1359,    1372,    1419,    1494,    1658,    1776
    1983,    2228,    2208,    2729,    2419,    2916,    2631,    2978
    2745,    2917,    2787,    2898,    2816,    2779,    2515,    2560
    2473,    2434,    2361,    2507,    2490,    2487,    2392,    2310
    2178,    2081,    1900,    1759,    1650,    1629,    1554,    1491
    1560,    1566,    1589,    1725,    1610,    1580,    1555,    1521
    1474,    1412,    1313,    1291,    1224,    1196,    1160,    1262
    1111,    1187,    1054,    1073,     991,    1019,     950,     988
     936,     853,     907,     904,     898,     898,     873,     873
     826,     883,     866,     924,     855,     910,     884,     953
     951,    1008,    1017,    1143,    1180,    1211,    1285,    1446
    1555,    1517,    1585,    1649,    1731,    1739,    1771,    1665
    1723,    1645,    1755,    1706,    1692,    1716,    1712,    1718
    1788,    1797,    1688,    1737,    1537,    1580,    1468,    1456
    1373,    1485,    1350,    1285,    1375,    1267,    1253,    1256
    1162,    1213,    1111,    1076,    1054,    1032,     967,    1003
     936,     932,     906,     831,     809,     813,     823,     795
     868,     789,     761,     830,     759,     817,     775,     748
     760,     764,     734,     764,     795,     809,     818,     844
     866,     927,     932,     880,     949,     932,     941,     924
     936,     899,     873,     912,     887,     878,     899,     912
     930,     947,     853,     852,     882,     813,     810,     786
     887,     849,     880,     914,     867,     848,     881,     920
     912,     901,     932,    1002,     962,     939,     958,     875
     900,     920,     963,     913,     931,     941,     972,     921
     899,     943,     887,     969,     924,     908,     938,     890
     988,     919,     932,     874,     910,     889,     898,     893
     865,     930,     928,     864,     948,     943,     910,     889
     864,     915,     975,     891,     915,     966,     998,     926
    1000,     972,    1031,     993,    1063,     947,     988,    1007
    1008,     923,     910,     910,     928,     888,     915,     913
     910,     951,     942,     920,     927,     888,     862,     876
     857,     870,     851,     849,     802,     761,     787,     785
     780,     770,     727,     712,     767,     759,     760,     695
     727,     739,     739,     728,     712,     706,     643,     696
     722,     712,     673,     698,     700,     694,     721,     772
     729,     701,     695,     711,     676,     672,     663,     680
     680,     630,     683,     706,     718,     787,     792,     744
     761,     769,     824,     777,     799,     774,     766,     790
     739,     717,     758,     767,     802,     756,     767,     705
     714,     739,     727,     722,     699,     654,     695,     754
     707,     703,     625,     669,     662,     632,     667,     711
     697,     651,     676,     675,     671,     701,     621,     670
     621,     654,     638,     639,     626,     651,     652,     631
     666,     662,     704,     638,     658,     652,     678,     648
     669,     649,     645,     659,     609,     701,     646,     638
     667,     711,     689,     656,     638,     692,     666,     605
     667,     665,     631,     652,     644,     627,     653,     633
     645,     671,     638,     603,     609,     654,     607,     649
     648,     596,     604,     631,     670,     575,     650,     625
     664,     628,     665,     613,     635,     623,     621,     665
     669,     622,     612,     651,     661,     606,     628,     633
     646,     662,     634,     648,     627,     564,     630,     657
     621,     641,     633,     579,     618,     607,     607,     590
     611,     573,     617,     630,     564,     651,     626,     637
     626,     626,     639,     633,     607,     662,     633,     612
     667,     655,     656,     679,     649,     681,     657,     706
     662,     677,     699,     705,     705,     732,     754,     726
     746,     709,     715,     766,     751,     764,     693,     729
     751,     719,     724,     713,     770,     742,     697,     718
     678,     733,     660,     723,     670,     744,     672,     665
     688,     747,     684,     662,     669,     681,     671,     700
     656,     664,     699,     661,     696,     688,     712,     702
     704,     729,     660,     714,     684,     697,     680,     742
     671,     681,     683,     686,     676,     671,     677,     655
     670,     701,     718,     739,     722,     733,     754,     753
     757,     696,     714,     692,     755,     702,     761,     705
     832,     776,     788,     705,     784,     771,     776,     797
     754,     756,     781,     780,     753,     784,     772,     787
     752,     739,     780,     826,     760,     769,     756,     824
     748,     732,     682,     703,     667,     684,     648,     657
     671,     651,     661,     613,     639,     571,     589,     616
     610,     604,     596,     598,     595,     606,     633,     615
     588,     578,     600,     604,     585,     589,     627,     646
     598,     552,     610,     618,     632,     607,     612,     637
     599,     595,     586,     620,     567,     630,     610,     619
     593,     604,     582,     590,     590,     602,     609,     633
     603,     605,     579,     635,     583,     580,     647,     595
     608,     600,     565,     582,     603,     621,     591,     600
     616,     615,     620,     651,     637,     619,     646,     663
     656,     622,     620,     684,     652,     586,     636,     627
     615,     600,     641,     606,     616,     640,     637,     654
     607,     654,     601,     641,     631,     633,     669,     624
     613,     669,     631,     614,     646,     591,     634,     619
     619,     658,     626,     638,     627,     622,     647,     648
     677,     631,     647,     718,     646,     655,     666,     629
     651,     652,     669,     658,     660,     664,     667,     660
     603,     648,     624,     627,     664,     655,     706,     734
     705,     668,     716,     697,     740,     702,     691,     737
     704,     770,     751,     744,     765,     809,     871,     814
     859,     912,     883,     978,     919,     956,     953,     914
     896,     951,     949,    1072,    1032,    1070,    1087,    1092
    1130,    1008,     998,     989,     929,     990,     916,     959
    1005,     996,    1035,    1055,    1077,    1056,    1056,    1128
    1098,    1143,    1129,    1150,    1139,    1042,    1045,    1022
    1016,    1004,    1012,     949,     984,     955,     935,     885
     896,     915,     892,     853,     757,     846,     768,     745
     752,     689,     743,     701,     670,     669,     684,     666
     622,     638,     655,     631,     677,     594,     608,     616
     645,     623,     576,     660,     582,     625,     643,     620
     614,     597,     573,     593,     575,     624,     583,     627
     602,     571,     607,     625,     639,     621,     581,     645
     626,     635,     626,     620,     673,     599,     602,     602
     586,     596,     570,     615,     608,     577,     591,     615
     617,     585,     584,     541,     569,     567,     569,     564
     586,     577,     630,     585,     590,     550,     536,     567
     590,     604,     608,     533,     547,     564,     561,     561
     551,     541,     516,     556,     541,     540,     530,     549
     562,     577,     561,     600,     515,     575,     583,     584
     572,     580,     545,     560,     569,     604,     619,     611
     579,     571,     645,     557,     584,     580,     563,     611
     584,     564,     588,     570,     591,     588,     575,     617
     565,     585,     590,     532,     582,     565,     588,     570
     552,     548,     600,     559,     548,     611,     609,     548
     574,     615,     601,     588,     531,     603,     616,     577
     588,     586,     590,     609,     570,     584,     579,     617
     590,     586,     607,     608,     620,     581,     626,     663
     587,     582,     600,     628,     618,     588,     616,     623
     605,     652,     646,     643,     676,     641,     636,     610
     654,     688,     651,     674,     603,     718,     657,     664
     703,     619,     633,     616,     602,     624,     623,     614
     653,     629,     582,     591,     594,     574,     659,     574
     617,     625,     622,     604,     617,     655,     614,     592
     620,     617,     593,     609,     560,     625,     622,     673
     599,     606,     596,     583,     648,     591,     642,     660
     658,     681,     688,     624,     625,     588,     651,     679
     691,     670,     682,     628,     694,     685,     678,     695
     667,     717,     719,     691,     799,     813,     854,     855
     947,     875,     911,     986,     958,     988,    1018,     984
     983,     989,     983,     937,    1004,     986,    1014,     939
     962,     897,     940,     944,     930,     891,     917,     875
     868,     855,     872,     819,     788,     796,     829,     810
     869,     775,     818,     910,     894,     859,     927,     892
     953,     918,     931,     927,     852,     826,     787,     782
     784,     806,     753,     764,     808,     763,     734,     773
     773,     731,     724,     680,     709,     657,     671,     615
     653,     590,     625,     655,     634,     643,     617,     617
     621,     607,     655,     527,     536,     602,     580,     610
     597,     565,     554,     606,     634,     520,     577,     608
     585,     558,     600,     538,     593,     597,     563,     578
     592,     563,     521,     541,     565,     557,     582,     625
     580,     591,     624,     604,     604,     602,     679,     634
     639,     637,     608,     644,     676,     646,     683,     651
     674,     624,     735,     667,     650,     625,     623,     615
     628,     649,     611,     626,     657,     612,     622,     625
     611,     668,     590,     674,     668,     663,     608,     626
     619,     597,     575,     600,     617,     647,     626,     624
     565,     612,     600,     576,     586,     595,     602,     605
     592,     585,     541,     595,     566,     577,     578,     569
     561,     583,     560,     596,     640,     571,     603,     588
     610,     627,     588,     581,     592,     601,     603,     599
     676,     626,     655,     649,     643,     628,     626,     584
     567,     632,     589,     577,     589,     624,     584,     580
     591,     621,     560,     586,     595,     582,     571,     545
     568,     577,     528,     524,     592,     573,     569,     552
     581,     581,     576,     625,     555,     613,     587,     605
     640,     635,     617,     645,     582,     645,     677,     720
     758,     822,     849,     862,     946,    1080,    1043,    1125
    1152,    1237,    1177,    1243,    1176,    1194,    1198,    1114
    1136,    1123,    1115,    1102,    1205,    1141,    1248,    1150
    1170,    1138,    1122,    1140,    1083,    1002,     904,     860
     837,     800,     814,     767,     764,     761,     817,     681
     759,     696,     656,     653,     647,     585,     584,     617
     594,     598,     568,     583,     565,     535,/
