SampleIdent,2025_06_03_CBD_10_80_50s,/
Title1,Crystalline CBD Standard,/
Title2,,/
DiffrType,?,/
DiffrNumber,1,/
Anode,Cu,/
LabdaAlpha1, 1.540598,/
LabdaAlpha2, 1.544426,/
RatioAlpha21, 0.50000,/
DivergenceSlit,Fixed, 1/2,/
ReceivingSlit,UNDEFINED,/
MonochromatorUsed,NO,/
GeneratorVoltage,  40,/
TubeCurrent,  15,/
FileDateTime,03-jun-2025 12:56,/
DataAngleRange,  10.00543,  79.99617,/
ScanStepSize, 0.01086644000,/
ScanType,CONTINUOUS,/
ScanStepTime, 48.195,/
RawScan
   16658,   18432,   19810,   22110,   24359,   26440,   28707,   31161
   33903,   37278,   40232,   43745,   46356,   49516,   51657,   53938
   54530,   56527,   56348,   58506,   57658,   58248,   56802,   55667
   52575,   49855,   45746,   41982,   37208,   33520,   29272,   25340
   22396,   19176,   16866,   14195,   12630,   10907,    9483,    8189
    6885,    5862,    5196,    4707,    4277,    4278,    4022,    4077
    3890,    3921,    3886,    3683,    3747,    3695,    3756,    3605
    3488,    3556,    3502,    3502,    3386,    3381,    3391,    3267
    3278,    3303,    3164,    3207,    3244,    3118,    3128,    3105
    3141,    3163,    3124,    3111,    3130,    3034,    3229,    2945
    2970,    3149,    2987,    3031,    2971,    3139,    3119,    3091
    3025,    2972,    2892,    3018,    2982,    2946,    2945,    3034
    3061,    3087,    3098,    3046,    3131,    3011,    3032,    3066
    2972,    3069,    3091,    3033,    3026,    3146,    3139,    3102
    3134,    3192,    3227,    3257,    3450,    3438,    3493,    3552
    3657,    3581,    3704,    3729,    3802,    3815,    3767,    3865
    4018,    4024,    4321,    4305,    4364,    4426,    4575,    4795
    5057,    5284,    5524,    5876,    6198,    6701,    7291,    7541
    8305,    9010,    9670,   10533,   11571,   12650,   13796,   15228
   16552,   17440,   18192,   18511,   19016,   19222,   18826,   18405
   17882,   17166,   16004,   15293,   14090,   12760,   11575,   10347
    9053,    8062,    7241,    6286,    5594,    4962,    4469,    4127
    3886,    3809,    3614,    3631,    3547,    3312,    3363,    3407
    3282,    3369,    3345,    3277,    3281,    3382,    3331,    3390
    3490,    3331,    3496,    3480,    3693,    3574,    3680,    3688
    3737,    3902,    3936,    4010,    4186,    4304,    4480,    4632
    4773,    5022,    5438,    5784,    6154,    6658,    6956,    7310
    7719,    8070,    8376,    8454,    8740,    8848,    9017,    9303
    9396,    9455,    9558,   10178,    9834,   10280,   10174,   10072
   10165,    9858,    9845,    9746,    9183,    8763,    8325,    7667
    7131,    6452,    5975,    5465,    5086,    4514,    4285,    4260
    4165,    4054,    4199,    4231,    4321,    4327,    4402,    4499
    4665,    4862,    5130,    5229,    5471,    5662,    5773,    6129
    6454,    6952,    7212,    7620,    8205,    9010,    9881,   10398
   11532,   12353,   13740,   14745,   15797,   17169,   17966,   19336
   20281,   21706,   22675,   23755,   24463,   25394,   25547,   25644
   25966,   25364,   25143,   24348,   22997,   22083,   20671,   18758
   16938,   15026,   13258,   11839,   10472,    9302,    8205,    7343
    6535,    5725,    5239,    4942,    4447,    4297,    4123,    4125
    4129,    4055,    4143,    4295,    4300,    4324,    4339,    4553
    4696,    4773,    4917,    5086,    5620,    5749,    6064,    6486
    6832,    7494,    7654,    8222,    8945,    9711,   10443,   11132
   11678,   12361,   12847,   13155,   13739,   14158,   14091,   14324
   14661,   14771,   14852,   14970,   14927,   14482,   13902,   13224
   12704,   11571,   10526,    9506,    8250,    7354,    6377,    5761
    5095,    4447,    4140,    3641,    3467,    3306,    3151,    2973
    3009,    2801,    2891,    2833,    2739,    2789,    2752,    2725
    2713,    2680,    2623,    2710,    2701,    2593,    2562,    2537
    2524,    2651,    2608,    2510,    2484,    2524,    2582,    2550
    2487,    2501,    2519,    2520,    2542,    2565,    2464,    2586
    2486,    2602,    2526,    2559,    2620,    2630,    2549,    2567
    2554,    2472,    2523,    2597,    2601,    2685,    2639,    2652
    2750,    2739,    2758,    2656,    2866,    2860,    3001,    2903
    2979,    3116,    3122,    3122,    3267,    3306,    3420,    3503
    3560,    3548,    3744,    3760,    3806,    3915,    4233,    4278
    4414,    4726,    4910,    5253,    5480,    5932,    6474,    6861
    7606,    8230,    9210,    9975,   11042,   11963,   13034,   13860
   14936,   15620,   16736,   17756,   18476,   19324,   20299,   21324
   22335,   23305,   24886,   25661,   26717,   28154,   28469,   28597
   28255,   27007,   25745,   23960,   21961,   19634,   16870,   14807
   12965,   11398,   10307,    9667,    9304,    8885,    8806,    8759
    8968,    8844,    9107,    8810,    9223,    9236,    9118,    8852
    8599,    8379,    8149,    7502,    7005,    6375,    5877,    5571
    5164,    4772,    4447,    4093,    3821,    3612,    3458,    3292
    3156,    2951,    2942,    2904,    2847,    2850,    2917,    2889
    2695,    2728,    2767,    2843,    2837,    2838,    2779,    2823
    2813,    2810,    2782,    2650,    2768,    2752,    2789,    2757
    2786,    2828,    2810,    2845,    2872,    2988,    2934,    3079
    3021,    3273,    3394,    3424,    3484,    3596,    3611,    3850
    3882,    3984,    4054,    4073,    4263,    4144,    4360,    4291
    4345,    4261,    4027,    3879,    3865,    3755,    3603,    3407
    3369,    3244,    3219,    3086,    3051,    3065,    3040,    2941
    2953,    3012,    2880,    2934,    2948,    3014,    3008,    3199
    3056,    3222,    3227,    3334,    3455,    3587,    3563,    3759
    3868,    3987,    4000,    4276,    4398,    4443,    4485,    4564
    4728,    4890,    4932,    5096,    4852,    4959,    4931,    5134
    4978,    4905,    4828,    4905,    4852,    4985,    4853,    4652
    4556,    4606,    4585,    4587,    4339,    4279,    4122,    4253
    4513,    4502,    4498,    4851,    4991,    5205,    5433,    5643
    5823,    5925,    6021,    6193,    6417,    6525,    6677,    6867
    7079,    7068,    7063,    7100,    7328,    7144,    7376,    7382
    7580,    7612,    7831,    7848,    8278,    8434,    8826,    9300
    9664,   10587,   11391,   12359,   13530,   14650,   16310,   18054
   19967,   21928,   24769,   27485,   31004,   34143,   37887,   41313
   44925,   48728,   51928,   55567,   58996,   60414,   62558,   62138
   61923,   60362,   58676,   53978,   49884,   43511,   38826,   32915
   28185,   23234,   19164,   16042,   13262,   11186,    9877,    8613
    7721,    7081,    6621,    6119,    5762,    5522,    5544,    5161
    5019,    4852,    4999,    4924,    5045,    4999,    5065,    5317
    5241,    5422,    5355,    5656,    5611,    6047,    6250,    6635
    6889,    7623,    8363,    8647,   10069,    9994,   11696,   12289
   13033,   14435,   14843,   15583,   16527,   14930,   15011,   12980
   11428,   10205,    8496,    7445,    6142,    5071,    4592,    4312
    4219,    4068,    3934,    3971,    3898,    3841,    3861,    3923
    4022,    4051,    3888,    4017,    4031,    4072,    4187,    4049
    4192,    4257,    4165,    4286,    4375,    4300,    4497,    4644
    4681,    4793,    4821,    5130,    5085,    5358,    5369,    5783
    6082,    6430,    6864,    7236,    7680,    8416,    9078,    9742
   10484,   11622,   12551,   13868,   15267,   16595,   18642,   20520
   22952,   25312,   27555,   30215,   32296,   34213,   38038,   39532
   43842,   45083,   48011,   50979,   52426,   55880,   55870,   57728
   57693,   57155,   57278,   55846,   53406,   51191,   47683,   44470
   40806,   37440,   34319,   32124,   29665,   27918,   26619,   25257
   24824,   24026,   23090,   22141,   20698,   19485,   17598,   16156
   15065,   13641,   12386,   11197,   10414,    9547,    8960,    8492
    7922,    7605,    7430,    7046,    6983,    6727,    6373,    6154
    6133,    5713,    5877,    5758,    5654,    5652,    5830,    5989
    6257,    6622,    6898,    7365,    7505,    8116,    8648,    9223
    9869,   10330,   10825,   11294,   12096,   12322,   12772,   13248
   13529,   13655,   13713,   13368,   13249,   12867,   12234,   11819
   10808,   10335,    9631,    8788,    8219,    7710,    7186,    6834
    6345,    6091,    5899,    5750,    5428,    5361,    5459,    5346
    5358,    5265,    5283,    5286,    5166,    5141,    5179,    5219
    5106,    5159,    5004,    4824,    4842,    4689,    4620,    4502
    4529,    4363,    4340,    4322,    4314,    4400,    4353,    4238
    4253,    4341,    4343,    4331,    4264,    4293,    4302,    4503
    4360,    4449,    4534,    4445,    4396,    4666,    4734,    4863
    5039,    5244,    5342,    5592,    5917,    5987,    6387,    6831
    7316,    8067,    8577,    9467,   10340,   11413,   12521,   13726
   15179,   16988,   18432,   20525,   22475,   24065,   25929,   27162
   28969,   30133,   30465,   31406,   31853,   31913,   32021,   31673
   32432,   31677,   31367,   30135,   29244,   27799,   26592,   24872
   23075,   21568,   19792,   17399,   15256,   13656,   12232,   11265
   10410,    9862,    9495,    9311,    9382,    9141,    9261,    9480
    9464,    9548,    9731,    9871,    9835,    9888,    9937,    9628
    9667,    9408,    9392,    9122,    8974,    8607,    8193,    7881
    7689,    7276,    7043,    6633,    6192,    5974,    5594,    5277
    5025,    4764,    4500,    4360,    4260,    4291,    4166,    4291
    4039,    4207,    4255,    4245,    4225,    4289,    4277,    4265
    4258,    4374,    4527,    4539,    4661,    4490,    4496,    4708
    4809,    4920,    5109,    5304,    5461,    5677,    5882,    6301
    6799,    7099,    7705,    8247,    8889,    9510,   10271,   11274
   12142,   13025,   14087,   15122,   16098,   18006,   19013,   20953
   22047,   23278,   24492,   25482,   26065,   26157,   26618,   26296
   26165,   25879,   25162,   24676,   23872,   22965,   21439,   20537
   19036,   17825,   16193,   14500,   13206,   12055,   11499,   11106
   10663,   10558,   10627,   11119,   11700,   12277,   13440,   14772
   15640,   17417,   19308,   21584,   24046,   26928,   29747,   33575
   36537,   40320,   42472,   46544,   48982,   52708,   53909,   57488
   59040,   60830,   61429,   62400,   61395,   60425,   58959,   58563
   57518,   57037,   55532,   54933,   53527,   51482,   48642,   45537
   41362,   36369,   31135,   25509,   21805,   18342,   15300,   12456
   10291,    8650,    7860,    7375,    7027,    6954,    7224,    7396
    7570,    7735,    8148,    8846,    9338,   10232,   11017,   12026
   12720,   14058,   14702,   15891,   16610,   17008,   17683,   18208
   19011,   19818,   21064,   21411,   21539,   21808,   21925,   21943
   22191,   21856,   21364,   20608,   20116,   19172,   18108,   16787
   15715,   14361,   13270,   12173,   10952,   10145,    9308,    8829
    8428,    8050,    7681,    7660,    7408,    7405,    7538,    7655
    7681,    7568,    7571,    7329,    7205,    7222,    6974,    6888
    6745,    6753,    6543,    6297,    6210,    5980,    5753,    5580
    5229,    5272,    5049,    4809,    4871,    4851,    4736,    4741
    4615,    4600,    4707,    4608,    4603,    4588,    4641,    4462
    4688,    4563,    4515,    4602,    4585,    4349,    4500,    4453
    4385,    4479,    4510,    4635,    4712,    4877,    5233,    5357
    5718,    6006,    6463,    6752,    7356,    7815,    8233,    8607
    9024,    9181,    9573,    9782,    9927,   10139,   10406,   10255
   10358,   10403,   10352,   10364,   10109,   10135,   10084,   10401
   10580,   10603,   10629,   10452,   10480,   10239,   10049,    9711
    9485,    8818,    8557,    7997,    7721,    7251,    7065,    6574
    6367,    6041,    5838,    5490,    5440,    5122,    4891,    4842
    4500,    4384,    4278,    4129,    3996,    3956,    4166,    4071
    3983,    4091,    4064,    4218,    4313,    4538,    4645,    4706
    4949,    5307,    5480,    5760,    6032,    6333,    6663,    6706
    6853,    7356,    7431,    7939,    8067,    8192,    8107,    8186
    8489,    8452,    8787,    8739,    8899,    9025,    9134,    9177
    9157,    9329,    9035,    8754,    8420,    8090,    7363,    6968
    6631,    6263,    6089,    5607,    5567,    5410,    5347,    5581
    5359,    5499,    5509,    5564,    5607,    5598,    5779,    5764
    5733,    5739,    5845,    5739,    5497,    5466,    5345,    5012
    4997,    4700,    4523,    4409,    4230,    4131,    4003,    3792
    3787,    3762,    3755,    3686,    3655,    3475,    3687,    3677
    3720,    3777,    3840,    3926,    4079,    4106,    4307,    4514
    4589,    4904,    5140,    5255,    5393,    5704,    6113,    6434
    6735,    6866,    7297,    7467,    7626,    7750,    8083,    7990
    8058,    8288,    8359,    8214,    8294,    8223,    8039,    7964
    8267,    7993,    7363,    7084,    6901,    6854,    6689,    6401
    6347,    6140,    5900,    5897,    5814,    5807,    5783,    5752
    5738,    5817,    5845,    5821,    5927,    5964,    5806,    5623
    5540,    5358,    5179,    4912,    4927,    4584,    4470,    4311
    4161,    4129,    3982,    3830,    3747,    3651,    3560,    3484
    3377,    3396,    3322,    3223,    3128,    3240,    3115,    3179
    3046,    3093,    3057,    3094,    3187,    3110,    3185,    3066
    3068,    3212,    3246,    3212,    3278,    3198,    3251,    3376
    3405,    3482,    3468,    3625,    3736,    3773,    3912,    4124
    4266,    4412,    4591,    4700,    4986,    5192,    5410,    5650
    5729,    6098,    6368,    6513,    6553,    6918,    7127,    7247
    7327,    7347,    7495,    7628,    7846,    7733,    8018,    8305
    8411,    8473,    8502,    8543,    8367,    8462,    8176,    8309
    7814,    7714,    7293,    7117,    7126,    6908,    6664,    6603
    6587,    6499,    6523,    6271,    6338,    6337,    6035,    5927
    5917,    5878,    5676,    5704,    5344,    5354,    5193,    5183
    5023,    5071,    5037,    4906,    4797,    4811,    4596,    4460
    4490,    4333,    4293,    4236,    4038,    3910,    3937,    3799
    3916,    3899,    3933,    4070,    3991,    4241,    4494,    4384
    4697,    4711,    4773,    4770,    4803,    4836,    4944,    5082
    4957,    5130,    5147,    5076,    5276,    5254,    5472,    5478
    5618,    5533,    5603,    5401,    5339,    5117,    5291,    4952
    4797,    4782,    4711,    4759,    4676,    4563,    4785,    4737
    4739,    4919,    4891,    5029,    5160,    5111,    5231,    5480
    5449,    5759,    5886,    5909,    6106,    6343,    6582,    6930
    7387,    7690,    8105,    8311,    8538,    8640,    8816,    8747
    8881,    8773,    8763,    8572,    8362,    8157,    8289,    8405
    8098,    8140,    8225,    8160,    7997,    7864,    7662,    7171
    6775,    6511,    6228,    6013,    5692,    5446,    5268,    4875
    4675,    4514,    4332,    4166,    4048,    3904,    3881,    3800
    3789,    3732,    3616,    3509,    3561,    3538,    3529,    3462
    3613,    3575,    3662,    3608,    3570,    3637,    3537,    3551
    3548,    3570,    3601,    3556,    3537,    3513,    3578,    3513
    3633,    3616,    3643,    3643,    3704,    3704,    3695,    3908
    3877,    3964,    4014,    3941,    3906,    4085,    4020,    3992
    4078,    3983,    4017,    4080,    4053,    4157,    4185,    4239
    4196,    4222,    4188,    4222,    4394,    4139,    4359,    4277
    4426,    4469,    4650,    4622,    4616,    4893,    4806,    4873
    5074,    5041,    5174,    5167,    5079,    5070,    5002,    4996
    4738,    4851,    4723,    4581,    4529,    4450,    4289,    4289
    4339,    4479,    4534,    4671,    4834,    4953,    4982,    5220
    5450,    5737,    6021,    6304,    6603,    6688,    6920,    7015
    7269,    7394,    7633,    8037,    8127,    8323,    8412,    8851
    8635,    8847,    8694,    8494,    8394,    8272,    8169,    8030
    7865,    7403,    7313,    6840,    6533,    6137,    5867,    5604
    5254,    4940,    4653,    4555,    4415,    3915,    3963,    3755
    3671,    3832,    3673,    3565,    3621,    3715,    3597,    3673
    3795,    3770,    3741,    3806,    3861,    3822,    3577,    3637
    3693,    3719,    3487,    3613,    3458,    3410,    3305,    3225
    3324,    3156,    3129,    3044,    2973,    2930,    3008,    2776
    2776,    2787,    2629,    2720,    2662,    2672,    2573,    2572
    2567,    2481,    2416,    2379,    2325,    2409,    2336,    2318
    2418,    2418,    2359,    2346,    2420,    2374,    2434,    2385
    2425,    2387,    2345,    2338,    2417,    2324,    2416,    2289
    2316,    2347,    2397,    2379,    2448,    2487,    2474,    2439
    2409,    2390,    2448,    2438,    2560,    2535,    2626,    2564
    2733,    2649,    2608,    2736,    2751,    2767,    2877,    2927
    2932,    2956,    3005,    3007,    3160,    3157,    3066,    3290
    3243,    3279,    3366,    3407,    3413,    3485,    3518,    3502
    3553,    3432,    3563,    3592,    3637,    3694,    3732,    3700
    3693,    3692,    3622,    3535,    3601,    3517,    3535,    3623
    3616,    3708,    3672,    3756,    3597,    3515,    3703,    3562
    3643,    3546,    3580,    3597,    3666,    3564,    3511,    3447
    3267,    3310,    3173,    3190,    3322,    3285,    3317,    3179
    3086,    3180,    3199,    3192,    3126,    3211,    3236,    3433
    3449,    3617,    3603,    3694,    3760,    3957,    3986,    4085
    3976,    4362,    4437,    4515,    4346,    4417,    4550,    4560
    4619,    4478,    4537,    4665,    4504,    4452,    4344,    4240
    4170,    4255,    3964,    3999,    3742,    3629,    3569,    3573
    3500,    3425,    3219,    3195,    2967,    3019,    3039,    2881
    2895,    2796,    2688,    2614,    2489,    2427,    2485,    2411
    2403,    2399,    2335,    2419,    2231,    2261,    2283,    2272
    2222,    2233,    2296,    2310,    2267,    2273,    2270,    2234
    2211,    2244,    2237,    2228,    2242,    2260,    2235,    2255
    2201,    2262,    2254,    2261,    2260,    2209,    2294,    2342
    2323,    2364,    2339,    2286,    2403,    2426,    2404,    2442
    2538,    2472,    2581,    2417,    2647,    2512,    2590,    2631
    2670,    2631,    2653,    2700,    2668,    2665,    2652,    2692
    2654,    2722,    2719,    2694,    2533,    2599,    2652,    2575
    2579,    2629,    2502,    2497,    2434,    2481,    2487,    2517
    2529,    2448,    2506,    2492,    2556,    2550,    2623,    2690
    2620,    2707,    2608,    2804,    2845,    2987,    3044,    3078
    3176,    3286,    3447,    3451,    3633,    3691,    3867,    3870
    3942,    3957,    3880,    4027,    3970,    3781,    3804,    3668
    3534,    3534,    3453,    3343,    3391,    3188,    3137,    3083
    2908,    2896,    2842,    2787,    2643,    2632,    2703,    2611
    2573,    2629,    2582,    2645,    2669,    2712,    2726,    2782
    2753,    2834,    2828,    2941,    2921,    2964,    2847,    2896
    2835,    2792,    2725,    2776,    2867,    2754,    2646,    2715
    2688,    2580,    2666,    2684,    2714,    2839,    2717,    2794
    2798,    2797,    2808,    2889,    2960,    2944,    2827,    2889
    2872,    3002,    2995,    2911,    2991,    2925,    2910,    2933
    2927,    2935,    2842,    2697,    2695,    2700,    2647,    2617
    2628,    2577,    2493,    2573,    2520,    2440,    2475,    2458
    2438,    2481,    2433,    2477,    2560,    2461,    2476,    2525
    2415,    2534,    2520,    2457,    2464,    2459,    2492,    2524
    2628,    2563,    2422,    2475,    2545,    2535,    2490,    2692
    2527,    2692,    2527,    2649,    2790,    2924,    2978,    3156
    3332,    3470,    3750,    3934,    4067,    4243,    4570,    4672
    4577,    4832,    4912,    4936,    4891,    4825,    4826,    4818
    4851,    4753,    4857,    4533,    4683,    4400,    4405,    4260
    3919,    3827,    3677,    3671,    3461,    3347,    3283,    3250
    3172,    3078,    3118,    3017,    2860,    2924,    2891,    2938
    2963,    3002,    3001,    2935,    2935,    2992,    2897,    2870
    3008,    3020,    3078,    3058,    3022,    2976,    2958,    2937
    3016,    3068,    3109,    3117,    3159,    3187,    3302,    3373
    3329,    3461,    3519,    3584,    3586,    3804,    3868,    4064
    4149,    4331,    4374,    4366,    4573,    4784,    4798,    4859
    4939,    5146,    5287,    5386,    5438,    5505,    5538,    5502
    5410,    5588,    5779,    5696,    5833,    6066,    5978,    5891
    5820,    5901,    5414,    5434,    5200,    4793,    4778,    4626
    4489,    4316,    4222,    4099,    3900,    3949,    3651,    3656
    3698,    3634,    3715,    3794,    3727,    3999,    3901,    3924
    4009,    4037,    3948,    4138,    4027,    4223,    4081,    4106
    4081,    4274,    4090,    4265,    4157,    4228,    4049,    3890
    4026,    3644,    3562,    3383,    3306,    3259,    3211,    3093
    3019,    3006,    2900,    2764,    2758,    2785,    2698,    2730
    2731,    2706,    2747,    2707,    2733,    2719,    2674,    2556
    2675,    2423,    2446,    2535,    2416,    2374,    2328,    2463
    2500,    2342,    2260,    2362,    2311,    2385,    2366,    2318
    2398,    2326,    2469,    2511,    2489,    2484,    2473,    2502
    2404,    2416,    2481,    2479,    2498,    2444,    2440,    2438
    2314,    2413,    2437,    2296,    2199,    2196,    2233,    2186
    2118,    2179,    2065,    2222,    2121,    2158,    2159,    2209
    2165,    2135,    2113,    2071,    2192,    2158,    2188,    2356
    2238,    2250,    2272,    2321,    2383,    2259,    2300,    2262
    2360,    2416,    2429,    2444,    2467,    2509,    2459,    2578
    2557,    2578,    2622,    2660,    2594,    2627,    2700,    2812
    2834,    2880,    2877,    2898,    2830,    3059,    3185,    3260
    3231,    3257,    3307,    3234,    3282,    3287,    3133,    3224
    3224,    3232,    3060,    3085,    3013,    3062,    2887,    2883
    2851,    2839,    2735,    2812,    2793,    2823,    2887,    2821
    2836,    2751,    2956,    2933,    2947,    3030,    3103,    3088
    3110,    2957,    2897,    2935,    2908,    2932,    2931,    3036
    2988,    3095,    3144,    2972,    2974,    2935,    2918,    2817
    2819,    2790,    2771,    2785,    2688,    2720,    2659,    2711
    2617,    2688,    2626,    2610,    2628,    2554,    2546,    2453
    2550,    2547,    2493,    2423,    2620,    2474,    2463,    2429
    2510,    2479,    2400,    2366,    2511,    2526,    2541,    2555
    2516,    2528,    2470,    2437,    2506,    2441,    2432,    2377
    2488,    2478,    2415,    2379,    2385,    2311,    2412,    2333
    2415,    2370,    2484,    2316,    2516,    2550,    2452,    2487
    2597,    2619,    2588,    2640,    2542,    2614,    2659,    2592
    2739,    2796,    2620,    2733,    2635,    2707,    2742,    2699
    2692,    2811,    2752,    2730,    2866,    2752,    2701,    2638
    2827,    2697,    2735,    2837,    2809,    2877,    2944,    2996
    3043,    3041,    3096,    3214,    3309,    3385,    3294,    3395
    3477,    3325,    3420,    3344,    3341,    3273,    3173,    3181
    3162,    3069,    2865,    2849,    2790,    2641,    2592,    2555
    2441,    2395,    2420,    2376,    2363,    2308,    2322,    2315
    2185,    2241,    2233,    2241,    2099,    2192,    2279,    2262
    2171,    2264,    2261,    2270,    2276,    2251,    2259,    2269
    2250,    2160,    2292,    2208,    2188,    2131,    2233,    2114
    2050,    2098,    2227,    2107,    2258,    2162,    2139,    2131
    2076,    2208,    2201,    2245,    2149,    2164,    2216,    2133
    2192,    2088,    2172,    2106,    2254,    2194,    2082,    2184
    2151,    2076,    2177,    2244,    2193,    2228,    2336,    2383
    2372,    2451,    2360,    2476,    2412,    2334,    2451,    2365
    2401,    2417,    2538,    2401,    2602,    2531,    2428,    2382
    2404,    2375,    2409,    2359,    2307,    2384,    2300,    2323
    2447,    2316,    2448,    2459,    2533,    2672,    2667,    2715
    2664,    2587,    2672,    2627,    2470,    2547,    2436,    2553
    2487,    2418,    2457,    2409,    2401,    2262,    2291,    2207
    2199,    2106,    2174,    2134,    2140,    2226,    2201,    2195
    2218,    2125,    2108,    2199,    2266,    2312,    2318,    2163
    2291,    2287,    2299,    2262,    2195,    2278,    2220,    2202
    2193,    2159,    2117,    2056,    2201,    2148,    2084,    2044
    2061,    1996,    2036,    1981,    1932,    1996,    1972,    2068
    1972,    2000,    2034,    1869,    2049,    2067,    2049,    2077
    2130,    2166,    2133,    2169,    2283,    2213,    2388,    2327
    2406,    2509,    2482,    2482,    2593,    2534,    2580,    2666
    2721,    2755,    2857,    2882,    2954,    3182,    3067,    3095
    3124,    3101,    3092,    3111,    2977,    2964,    2952,    2834
    2950,    2910,    2845,    2848,    3076,    2990,    3018,    3063
    2982,    2975,    2932,    3065,    2885,    3113,    3163,    3005
    3087,    2980,    2874,    2789,    2912,    2861,    2757,    2797
    2855,    2655,    2707,    2575,    2537,    2527,    2395,    2375
    2283,    2254,    2263,    2263,    2193,    2262,    2171,    2132
    2091,    2101,    2109,    2114,    2049,    2043,    2100,    2134
    2141,    2208,    2189,    2228,    2197,    2230,    2183,    2154
    2192,    2134,    2143,    2141,    2110,    2014,    2054,    1951
    1970,    2056,    2022,    1971,    1942,    1895,    1897,    1896
    1941,    1967,    1913,    1973,    1986,    1831,    1915,    1970
    1939,    1849,    1972,    1918,    1850,    1872,    1839,    1944
    1888,    1908,    1877,    1854,    1884,    1952,    1904,    1869
    1903,    1890,    1921,    2028,    1979,    2095,    2027,    2059
    2189,    1970,    2075,    2115,    2117,    2003,    2177,    2149
    2204,    2107,    2238,    2305,    2196,    2270,    2302,    2442
    2327,    2439,    2579,    2577,    2598,    2623,    2652,    2721
    2722,    2832,    2826,    2816,    2881,    2820,    2779,    2835
    2682,    2752,    2646,    2588,    2557,    2546,    2489,    2458
    2458,    2378,    2313,    2281,    2251,    2170,    2224,    2147
    2097,    1995,    2048,    2002,    1954,    2009,    1981,    1931
    1984,    1983,    1917,    2009,    1949,    2000,    1978,    1989
    2087,    1997,    2032,    2027,    2118,    2065,    2110,    2119
    2240,    2278,    2261,    2408,    2478,    2460,    2477,    2461
    2538,    2456,    2565,    2631,    2636,    2637,    2742,    2739
    2863,    2839,    2840,    2766,    2851,    2907,    2900,    2872
    2804,    2879,    2720,    2872,    2721,    2844,    2858,    2779
    2856,    2767,    2819,    2790,    2710,    2790,    2708,    2680
    2638,    2589,    2685,    2620,    2678,    2647,    2667,    2628
    2495,    2632,    2605,    2609,    2446,    2505,    2513,    2491
    2362,    2384,    2401,    2338,    2287,    2273,    2196,    2278
    2103,    2194,    2135,    2174,    2043,    2178,    2144,    2158
    2180,    2228,    2314,    2308,    2455,    2432,    2561,    2574
    2505,    2511,    2565,    2610,    2676,    2719,    2781,    2644
    2627,    2777,    2642,    2768,    2760,    2667,    2641,    2599
    2663,    2601,    2611,    2538,    2587,    2482,    2666,    2567
    2512,    2562,    2528,    2452,    2625,    2515,    2472,    2420
    2451,    2404,    2350,    2350,    2324,    2297,    2320,    2284
    2217,    2197,    2102,    2146,    2159,    2153,    2091,    2056
    1994,    2102,    2075,    1972,    2133,    2043,    2033,    1999
    2038,    2061,    1985,    2008,    2013,    1893,    1965,    1940
    1944,    1915,    1848,    1831,    1816,    1883,    1811,    1905
    1806,    1823,    1815,    1643,    1820,    1819,    1784,    1719
    1830,    1741,    1713,    1710,    1780,    1801,    1848,    1823
    1774,    1872,    1909,    1894,    1859,    1882,    1904,    1981
    1982,    1963,    1964,    1941,    2062,    1907,    1952,    2163
    1960,    1988,    2066,    2055,    2115,    2076,    2036,    2094
    2046,    2138,    2131,    2016,    2074,    1926,    1950,    2043
    1949,    1863,    1844,    1881,    1943,    1848,    1904,    1832
    1790,    1831,    1840,    1779,    1881,    1772,    1805,    1878
    1850,    1792,    1879,    1914,    1829,    1878,    1864,    1918
    1940,    1864,    1959,    1854,    1920,    1939,    1890,    1903
    1884,    1910,    1973,    1965,    1934,    2004,    2037,    2001
    1999,    2067,    2074,    2197,    2182,    2156,    2233,    2290
    2314,    2363,    2439,    2507,    2476,    2452,    2446,    2450
    2408,    2488,    2331,    2274,    2332,    2328,    2424,    2290
    2333,    2370,    2275,    2195,    2194,    2242,    2252,    2139
    2201,    2224,    2151,    2254,    2168,    2258,    2164,    2222
    2200,    2253,    2179,    2147,    2300,    2222,    2179,    2196
    2194,    2180,    2080,    2153,    2014,    2050,    1969,    1994
    1959,    2024,    1973,    1912,    1974,    1958,    1896,    1924
    1813,    1865,    1904,    1852,    1934,    1918,    1898,    1889
    1896,    1942,    2018,    1954,    2062,    2085,    2164,    2082
    2057,    2043,    2095,    2093,    2006,    2114,    2137,    2055
    2176,    2224,    2116,    2282,    2077,    2191,    2234,    2269
    2232,    2150,    2172,    2204,    2142,    2110,    2124,    2066
    2083,    2140,    2157,    2100,    2231,    2158,    2139,    2218
    2217,    2183,    2092,    2151,    2097,    2086,    2143,    2196
    2075,    1987,    2033,    2075,    2088,    2087,    1978,    2105
    2082,    2028,    2091,    2111,    2034,    2099,    2123,    2128
    2064,    2185,    2098,    2129,    2126,    2204,    2056,    2129
    2120,    2178,    2147,    2171,    2136,    2068,    2126,    2183
    2064,    2189,    2165,    2095,    2124,    2173,    2109,    2203
    2146,    2285,    2264,    2348,    2346,    2296,    2287,    2278
    2354,    2494,    2472,    2425,    2352,    2437,    2304,    2300
    2381,    2327,    2260,    2187,    2248,    2244,    2177,    2212
    2204,    2118,    2031,    2038,    1930,    2012,    1903,    2075
    1909,    1903,    1912,    1896,    1926,    1913,    1927,    1905
    1796,    1956,    1923,    1839,    1808,    1820,    1920,    1788
    1735,    1811,    1765,    1766,    1800,    1758,    1764,    1763
    1788,    1820,    1700,    1694,    1781,    1767,    1742,    1814
    1721,    1674,    1697,    1785,    1731,    1796,    1706,    1796
    1784,    1752,    1747,    1729,    1794,    1861,    1835,    1901
    2010,    1995,    2052,    2288,    2250,    2293,    2270,    2350
    2427,    2400,    2345,    2295,    2347,    2310,    2326,    2282
    2292,    2304,    2295,    2221,    2213,    2128,    2054,    2050
    1979,    1962,    1919,    1904,    1842,    1953,    1894,    1784
    1828,    1800,    1835,    1819,    1722,    1798,    1863,    1825
    1770,    1916,    1802,    1862,    1845,    1919,    1843,    1853
    1872,    1833,    1824,    1808,    1758,    1848,    1829,    1838
    1820,    1851,    1862,    1906,    1810,    1766,    1836,    1843
    1881,    1845,    1860,    1789,    1837,    1766,    1718,    1776
    1727,    1744,    1702,    1754,    1715,    1692,    1657,    1612
    1744,    1644,    1725,    1719,    1695,    1668,    1612,    1663
    1684,    1588,    1640,    1634,    1653,    1571,    1636,    1616
    1639,    1535,    1621,    1608,    1696,    1642,    1621,    1645
    1659,    1635,    1629,    1575,    1548,    1628,    1625,    1667
    1612,    1698,    1682,    1693,    1669,    1676,    1644,    1811
    1693,    1708,    1782,    1722,    1776,    1755,    1798,    1779
    1862,    1802,    1852,    1833,    1876,    1865,    1859,    1738
    1899,    1794,    1880,    1850,    1886,    1874,    1893,    1822
    1902,    1895,    1834,    1820,    1889,    1818,    1793,    1933
    1912,    1869,    1918,    1926,    1940,    1942,    2041,    2030
    2077,    2121,    2072,    2163,    2209,    2269,    2268,    2217
    2222,    2242,    2210,    2147,    2204,    2112,    2230,    2177
    2211,    1990,    2036,    2057,    1958,    2044,    1952,    2012
    1856,    1835,    1902,    1788,    1711,    1839,    1818,    1759
    1758,    1691,    1731,    1840,    1722,    1735,    1752,    1655
    1711,    1769,    1672,    1595,    1738,    1670,    1689,    1652
    1579,    1638,    1576,    1656,    1564,    1634,    1639,    1596
    1681,    1656,    1557,    1701,    1707,    1667,    1752,    1793
    1851,    1724,    1809,    1827,    1784,    1817,    1754,    1859
    1862,    1872,    2001,    1965,    2051,    1980,    2006,    1938
    1992,    2098,    2000,    1972,    2017,    1940,    1969,    1900
    1906,    1878,    1868,    1902,    1861,    1805,    1818,    1798
    1765,    1713,    1742,    1779,    1806,    1754,    1702,    1784
    1783,    1750,    1725,    1738,    1789,    1813,    1819,    1816
    1796,    1829,    1831,    1905,    1884,    1735,    1855,    1802
    1780,    1771,    1717,    1628,    1717,    1712,    1739,    1663
    1777,    1728,    1687,    1803,    1722,    1770,    1649,    1648
    1655,    1636,    1671,    1685,    1647,    1688,    1613,    1647
    1654,    1592,    1662,    1586,    1608,    1565,    1540,    1500
    1590,    1551,    1542,    1564,    1547,    1502,    1489,    1508
    1546,    1540,    1504,    1466,    1542,    1587,    1535,    1491
    1526,    1560,    1572,    1479,    1507,    1520,    1465,    1517
    1516,    1475,    1431,    1505,    1427,    1495,    1423,    1439
    1449,    1458,    1457,    1424,    1465,    1480,    1486,    1458
    1417,    1471,    1382,    1475,    1429,    1420,    1464,    1489
    1429,    1505,    1483,    1465,    1452,    1460,    1453,    1487
    1505,    1469,    1456,    1488,    1494,    1484,    1488,    1512
    1522,    1513,    1581,    1536,    1576,    1557,    1512,    1627
    1630,    1645,    1580,    1655,    1757,    1707,    1655,    1613
    1705,    1768,    1797,    1751,    1822,    1672,    1766,    1673
    1792,    1721,    1813,    1763,    1830,    1647,    1798,    1677
    1710,    1678,    1659,    1696,    1669,    1679,    1677,    1728
    1793,    1786,    1724,    1788,    1767,    1776,    1809,    1877
    1767,    1783,    1805,    1816,    1715,    1696,    1743,    1712
    1821,    1730,    1775,    1641,    1687,    1633,    1611,    1717
    1602,    1616,    1558,    1504,    1467,    1563,    1543,    1545
    1556,    1472,    1460,    1474,    1522,    1470,    1474,    1525
    1482,    1484,    1432,    1509,    1469,    1527,    1467,    1413
    1501,    1461,    1414,    1488,    1435,    1535,    1486,    1467
    1477,    1497,    1445,    1492,    1441,    1533,    1519,    1517
    1527,    1599,    1570,    1556,    1521,    1616,    1545,    1538
    1623,    1502,    1633,    1640,    1578,    1635,    1617,    1613
    1503,    1615,    1615,    1575,    1580,    1635,    1576,    1557
    1638,    1586,    1559,    1570,    1614,    1405,    1508,    1466
    1520,    1492,    1422,    1451,    1434,    1387,    1453,    1380
    1321,    1381,    1352,    1345,    1430,    1364,    1404,    1335
    1341,    1408,    1328,    1399,    1373,    1377,    1370,    1368
    1349,    1363,    1389,    1341,    1342,    1417,    1416,    1472
    1392,    1427,    1384,    1391,    1419,    1430,    1392,    1455
    1412,    1389,    1394,    1378,    1425,    1415,    1447,    1375
    1368,    1369,    1381,    1394,    1494,    1378,    1452,    1452
    1399,    1424,    1406,    1377,    1449,    1437,    1403,    1435
    1413,    1366,    1408,    1391,    1380,    1354,    1370,    1418
    1356,    1409,    1346,    1358,    1289,    1310,    1359,    1326
    1327,    1379,    1376,    1281,    1347,    1301,    1375,    1312
    1405,    1340,    1299,    1400,    1349,    1383,    1388,    1465
    1371,    1365,    1391,    1333,    1412,    1399,    1476,    1386
    1473,    1472,    1428,    1416,    1458,    1459,    1450,    1409
    1450,    1436,    1376,    1447,    1391,    1441,    1358,    1374
    1361,    1384,    1405,    1343,    1381,    1328,    1306,    1283
    1289,    1324,    1350,    1288,    1293,    1327,    1227,    1299
    1313,    1336,    1351,    1323,    1348,    1376,    1291,    1313
    1338,    1288,    1338,    1410,    1339,    1341,    1353,    1356
    1354,    1328,    1341,    1319,    1352,    1369,    1346,    1406
    1317,    1270,    1300,    1408,    1322,    1310,    1341,    1376
    1377,    1423,    1407,    1405,    1369,    1370,    1449,    1397
    1389,    1377,    1427,    1361,    1417,    1389,    1435,    1333
    1451,    1448,    1366,    1420,    1417,    1330,    1341,    1347
    1396,    1337,    1347,    1249,    1243,    1331,    1344,    1250
    1360,    1368,    1289,    1318,    1279,    1268,    1318,    1351
    1284,    1277,    1357,    1280,    1274,    1238,    1302,    1263
    1297,    1314,    1293,    1318,    1339,    1329,    1303,    1375
    1302,    1319,    1303,    1318,    1278,    1231,    1327,    1306
    1351,    1351,    1347,    1341,    1370,    1342,    1343,    1422
    1393,    1356,    1417,    1364,    1364,    1314,    1362,    1368
    1364,    1350,    1396,    1281,    1410,    1388,    1346,    1411
    1348,    1307,    1322,    1359,    1400,    1337,    1345,    1316
    1347,    1279,    1289,    1340,    1365,    1298,    1310,    1298
    1248,    1276,    1265,    1341,    1253,    1263,    1249,    1258
    1261,    1300,    1293,    1269,    1284,    1243,    1263,    1232
    1288,    1244,    1243,    1225,    1238,    1214,    1240,    1211
    1272,    1273,    1207,    1184,    1241,    1172,    1220,    1170
    1222,    1171,    1178,    1165,    1161,    1269,    1196,    1182
    1191,    1160,    1180,    1204,    1149,    1233,    1167,    1189
    1129,    1165,    1173,    1113,    1201,    1190,    1224,    1144
    1177,    1160,    1194,    1194,    1166,    1142,    1217,    1174
    1146,    1122,    1114,    1133,    1124,    1092,    1166,    1138
    1229,    1206,    1162,    1185,    1150,    1105,    1122,    1110
    1147,    1217,    1153,    1111,    1186,    1209,    1221,    1209
    1259,    1192,    1146,    1231,    1242,    1262,    1247,    1255
    1339,    1360,    1268,    1290,    1250,    1255,    1265,    1251
    1198,    1233,    1209,    1230,    1175,    1205,    1223,    1216
    1286,    1186,    1235,    1236,    1278,    1252,    1206,    1230
    1198,    1248,    1158,    1185,    1138,    1190,    1224,    1239
    1202,    1199,    1220,    1173,    1217,    1154,    1174,    1139
    1165,    1139,    1135,    1178,    1180,    1148,    1104,    1180
    1116,    1144,    1135,    1110,    1134,    1092,    1071,    1124
    1135,    1057,    1086,    1099,    1073,    1108,    1092,    1112
    1180,    1181,    1117,    1116,    1156,    1130,    1080,    1056
    1044,    1130,    1054,    1104,    1075,    1074,    1131,    1094
    1050,    1173,    1093,    1101,    1093,    1064,    1061,    1112
    1050,    1099,    1152,    1105,    1103,    1196,    1157,    1170
    1165,    1196,    1131,    1208,    1085,    1184,    1108,    1133
    1138,    1083,    1093,    1124,    1169,    1102,    1143,    1067
    1135,    1114,    1138,    1155,    1050,    1141,    1174,    1085
    1090,    1128,    1100,    1078,    1064,    1116,    1189,    1132
    1161,    1097,    1128,    1132,    1071,    1110,    1122,    1137
    1151,    1114,    1219,    1144,    1225,    1190,    1205,    1210
    1209,    1238,    1132,    1228,    1161,    1146,    1192,    1170
    1223,    1181,    1175,    1200,    1214,    1149,    1146,    1188
    1187,    1158,    1170,    1125,    1124,    1152,    1186,    1116
    1144,    1168,    1166,    1143,    1139,    1141,    1155,    1063
    1143,    1119,    1131,    1104,    1106,    1107,    1097,    1121
    1111,    1018,    1051,    1036,    1097,    1059,    1145,    1130
    1196,    1098,    1073,    1082,    1132,    1017,    1066,    1073
    1107,    1106,    1139,    1092,    1119,    1091,    1083,    1101
    1098,    1113,    1077,    1132,    1107,    1053,    1115,    1165
    1141,    1211,    1091,    1116,    1156,    1093,    1119,    1138
    1156,    1055,    1060,    1101,    1100,    1076,    1100,    1073
    1081,    1084,    1075,    1085,    1013,    1093,    1014,    1077
    1110,    1060,    1034,    1050,    1017,    1033,    1099,    1149
    1076,    1094,    1120,    1076,    1074,    1074,    1014,    1031
    1007,    1050,    1033,    1040,     983,    1044,    1108,    1047
    1123,    1142,    1055,    1080,    1048,    1016,    1008,    1032
     980,     989,    1045,    1012,    1026,    1005,     988,    1036
    1013,    1013,     957,    1017,    1006,     971,     915,    1005
    1020,     946,     963,     956,     972,     984,     983,     965
     941,    1026,    1095,    1036,    1069,    1022,     994,    1012
    1019,    1023,    1046,     977,    1090,    1020,    1004,     973
    1016,    1036,     975,    1024,    1003,    1102,    1021,    1027
    1040,    1051,    1035,     981,    1015,    1004,    1133,    1004
    1053,     975,    1058,    1019,    1017,    1004,    1047,    1007
     986,    1016,    1021,    1000,    1050,    1064,    1060,     985
     967,    1039,     981,    1012,    1044,    1004,    1048,    1037
     993,    1048,     948,    1017,    1000,    1040,    1023,    1044
    1049,    1021,    1136,    1017,    1092,    1077,    1042,    1023
    1049,    1061,    1077,    1093,    1062,    1117,    1081,     998
    1055,    1073,    1071,    1071,    1042,    1108,    1073,    1086
    1070,    1050,    1077,    1067,    1043,    1053,    1078,    1057
    1041,    1011,    1099,    1121,    1080,    1040,    1091,    1079
    1106,    1068,    1013,    1076,    1058,    1060,    1067,    1065
    1071,    1043,     968,    1007,     964,    1075,     976,    1041
     995,    1121,    1020,     979,    1056,    1044,    1055,     979
     976,     988,     975,     968,    1011,    1081,     960,     976
    1073,    1042,    1008,     971,    1019,     970,     974,    1032
    1020,     951,     944,     969,    1039,    1015,     955,    1020
     992,     974,     979,     970,     962,     991,    1003,     977
     994,     987,     934,     942,     997,     914,     950,    1026
     996,     960,     904,     960,    1018,     948,     977,     967
     972,     950,     933,     989,     972,     961,    1029,     949
    1013,     990,    1016,     979,     990,     973,    1048,    1049
    1031,     995,    1068,    1089,    1036,    1021,    1022,     967
    1013,    1000,    1016,    1011,     983,    1054,    1050,    1061
    1052,     997,     988,    1006,    1040,    1042,     976,    1061
     974,    1008,    1013,     986,    1016,    1008,     964,     973
    1021,     987,     939,    1051,     984,     982,     994,     962
    1020,    1033,     972,     975,    1015,     980,     971,    1031
     973,    1068,     987,     963,     992,     959,     955,    1005
    1018,     960,     995,     964,     955,     979,     939,     996
     947,     999,     956,    1002,     944,     975,     976,     923
     951,    1005,     970,     977,     912,     901,     974,    1015
     926,     922,     916,     986,     952,     958,     943,     992
     910,     944,     987,     944,     942,     939,     948,     984
     953,     994,    1019,     978,     960,    1004,     940,    1005
     965,     954,     998,     956,    1010,     965,     948,    1021
     931,    1023,     957,    1022,     920,    1046,     937,     984
     936,     950,    1005,     949,     956,     973,     897,     938
     909,    1009,    1008,     939,     972,     965,     938,    1006
     938,     936,     972,     956,    1012,     981,     978,     975
     963,     943,     972,     938,     945,     918,     969,     901
     950,     939,     932,     945,     939,    1019,     886,     919
     970,     924,     920,     933,     932,     960,     935,     954
     956,     974,     984,     917,     905,     932,     918,     949
     937,     959,     893,     915,     926,     902,     883,     907
     887,     950,     947,     865,     911,     921,     889,     927
     907,     905,     945,     955,     955,     931,     888,     864
     898,     908,     957,     978,     925,     864,     950,     859
     961,     924,     863,     896,     941,     893,     914,     905
     901,     933,     887,     889,     896,     880,     884,     935
     889,     974,     860,     955,     837,     876,     879,     868
     920,     863,     937,     931,     906,     812,     890,     882
     891,     896,     916,     957,     882,     883,     869,     921
     894,     903,     890,     915,     924,     866,     914,     850
     939,     931,     861,     883,     821,     884,     885,     879
     908,     927,     869,     902,     914,     937,     885,     922
     909,     910,     908,     942,     892,     974,     906,     933
     846,     887,     889,     926,     940,     926,     879,     909
     859,     925,     931,     928,     871,     911,     872,     900
     872,     888,     928,     898,     882,     893,     910,     794
     909,     886,     907,     860,     951,     890,     938,     884
     907,     920,     928,     878,     878,     886,     917,     837
     848,     872,     924,     909,     914,     906,     900,     869
     891,     891,     907,     908,     871,     882,     869,     889
     854,     890,     816,     896,     861,     878,     868,     854
     884,     821,     898,     868,     873,     814,     831,     910
     843,     910,     885,     920,     864,     903,     882,     951
     924,     881,     854,     872,     825,     855,     875,     854
     924,     849,     891,     891,     897,     918,     854,     873
     901,     895,     838,     893,     905,     862,     796,     925
     875,     853,     859,     903,     866,     908,     846,     864
     892,     822,     917,     835,     855,     868,     855,     859
     839,     848,     832,     844,     866,     800,     838,     919
     899,     900,     858,     879,     901,     924,     872,     862
     843,     946,     947,     946,     946,     943,     980,     929
     974,     966,     988,     899,     972,     883,     917,     913
     886,     962,     910,     913,     950,     946,     941,     954
     866,     964,     882,     893,     878,     878,     955,     941
     888,     888,     907,     892,     903,     921,     859,     868
     847,     844,     862,     905,     780,     875,     897,     872
     853,     825,     924,     864,     904,     867,     837,     896
     900,     872,     912,     886,     888,     893,     820,     833
     831,     864,     877,     934,     852,     780,     843,     863
     804,     894,     902,     915,     857,     890,     874,     881
     825,     806,     861,     870,     852,     872,     821,     856
     847,     880,     863,     848,     848,     796,     854,     840
     842,     895,     880,     905,     891,     835,     859,     900
     840,     902,     889,     896,     899,     888,     924,     894
     862,     872,     887,     863,     861,     835,     883,     883
     823,     849,     878,     900,     868,     879,     939,     866
     886,     885,     869,     896,     893,     875,     829,     887
     888,     846,     860,     877,     853,     945,     821,     806
     816,     856,     853,     794,     850,     852,     824,     810
     857,     839,     830,     829,     859,     851,     901,     884
     814,     856,     859,     813,     813,     838,     831,     869
     826,     844,     879,     843,     840,     890,     819,     857
     886,     840,     889,     837,     898,     834,     866,     883
     856,     849,     855,     877,     880,     861,     849,     859
     835,     844,     864,     861,     847,     833,     851,     898
     807,     843,     829,     862,     867,     856,     904,     861
     901,     844,     885,     870,     864,     877,     881,     806
     875,     808,     817,     832,     854,     856,     860,     837
     870,     900,     887,     867,     829,     810,     831,     869
     835,     854,     925,     871,     868,     841,     832,     810
     845,     841,     827,     851,     905,     826,     800,     892
     808,     784,     915,     840,     825,     784,     836,     884
     857,     905,     807,     870,     866,     861,     832,     826
     832,     869,     834,     816,     861,     847,     839,     861
     810,     843,     859,     859,     881,     866,     814,     823
     851,     840,     861,     871,     863,     844,     779,     813
     847,     826,     906,     814,     838,     880,     797,     811
     833,     846,     878,     813,     870,     837,     838,     818
     807,     792,     770,     788,     796,     782,     841,     833
     845,     767,     802,     792,     832,     754,     888,     832
     815,     848,     829,     873,     883,     793,     827,     877
     850,     858,     894,     761,     856,     896,     866,     805
     833,     820,     784,     869,     862,     853,     828,     823
     818,     812,     874,     824,     837,     838,     784,     806
     832,     811,     899,     784,     782,     825,     808,     844
     905,     820,     825,     847,     803,     810,     843,     810
     840,     789,     818,     785,     800,     847,     854,     761
     785,     794,     854,     783,     749,     851,     824,     876
     821,     815,     835,     847,     843,     848,     872,     855
     831,     875,     790,     875,     797,     819,     741,     834
     807,     833,     806,     780,     824,     788,     828,     820
     842,     782,     823,     855,     789,     837,     799,     781
     861,     796,     772,     838,     835,     786,     831,     836
     812,     810,     858,     790,     807,     780,     807,     766
     795,     792,     770,     829,     836,     799,     850,     793
     848,     857,     857,     784,     825,     812,     834,     768
     832,     812,     833,     779,     804,     813,     841,     788
     806,     830,     827,     805,     831,     854,     761,     766
     823,     806,     860,     818,     791,     868,     832,     860
     829,     814,     869,     806,     743,     866,     845,     838
     888,     876,     835,     873,     827,     806,     816,     844
     806,     855,     821,     859,     886,     872,     878,     900
     853,     837,     858,     836,     871,     847,     806,     850
     829,     924,     852,     859,     872,     870,     860,     895
     857,     809,     876,     805,     880,     817,     812,     884
     848,     855,     841,     849,     794,     800,     837,     831
     879,     854,     795,     855,     815,     811,     814,     864
     778,     769,     815,     821,     897,     805,     882,     772
     856,     856,     864,     839,     866,     874,     837,     851
     859,     914,     806,     872,     849,     800,     845,     843
     771,     793,     826,     817,     779,     827,     811,     865
     814,     905,     795,     840,     805,     832,     863,     875
     790,     836,     806,     822,     850,     893,     868,     845
     813,     873,     874,     834,     846,     866,     848,     827
     872,     848,     881,     919,     898,     869,     887,     878
     877,     850,     882,     898,     858,     887,     884,     888
     901,     872,     823,     830,     831,     843,     857,     844
     839,     832,     821,     812,     853,     839,     835,     900
     905,     870,     810,     811,     818,     793,     837,     820
     830,     805,     883,     816,     819,     826,     813,     781
     811,     832,     807,     861,     847,     811,     841,     802
     761,     806,     873,     802,     829,     871,     807,     823
     824,     778,     820,     863,     791,     776,     809,     790
     827,     827,     815,     828,     826,     791,     793,     801
     821,     789,     804,     820,     802,     820,     793,     821
     814,     784,     799,     826,     810,     814,     817,     893
     786,     811,     822,     793,     775,     825,     803,     796
     846,     768,     824,     782,     845,     814,     812,     829
     850,     796,     793,     833,     816,     761,     837,     775
     815,     779,     759,     766,     760,     762,     776,     778
     762,     816,     807,     803,     820,     801,     804,     849
     783,     775,     859,     827,     771,     792,     808,     823
     850,     774,     818,     812,     791,     765,     815,     747
     838,     800,     825,     859,     804,     772,     844,     790
     727,     804,     746,     815,     836,     766,     825,     813
     841,     810,     846,     794,     764,     813,     845,     780
     804,     806,     787,     822,     798,     799,     813,     764
     830,     796,     857,     809,     833,     775,     856,     838
     835,     821,     796,     805,     804,     792,     816,     856
     813,     820,     805,     842,     807,     824,     852,     825
     784,     794,     787,     806,     820,     766,     801,     822
     780,     787,     730,     847,     833,     795,     730,     859
     792,     774,     785,     768,     813,     794,     820,     801
     828,     805,     791,     796,     827,     792,     762,     829
     789,     806,     812,     776,     796,     767,     827,     783
     806,     735,     807,     806,     775,     865,     791,     861
     831,     843,     835,     801,     784,     781,     747,     777
     826,     784,     777,     843,     826,     840,     793,     839
     782,     784,     814,     796,     812,     795,     796,     752
     799,     768,     841,     824,     817,     841,     811,     851
     839,     857,     827,     810,     811,     841,     780,     798
     807,     789,     819,     774,     808,     782,     805,     878
     820,     813,     800,     839,     767,     835,     836,     835
     802,     821,     818,     842,     796,     761,     832,     792
     818,     812,     810,     830,     836,     802,     786,     795
     780,     833,     794,     824,     845,     751,     821,     862
     858,     807,     819,     857,     817,     805,     810,     851
     873,     864,     809,     824,     843,     854,     805,     838
     817,     840,     819,     892,     896,     831,     776,     842
     821,     830,     846,     830,     798,     786,     846,     855
     835,     878,     792,     863,     801,     817,     824,     826
     854,     847,     815,     850,     869,     818,     798,     863
     832,     823,     802,     796,     859,     835,     832,     831
     810,     829,     799,     805,     795,     755,     829,     832
     837,     855,     809,     797,     839,     827,     763,     855
     803,     811,     828,     848,     755,     873,     815,     821
     790,     824,     855,     774,     888,     828,     823,     840
     860,     807,     808,     890,     813,     828,     828,     824
     854,     798,     883,     839,     850,     821,     765,     781
     809,     812,     784,     835,     811,     771,     798,     839
     811,     790,     795,     835,     819,     806,     760,     775
     887,     871,     797,     797,     755,     776,     792,     808
     823,     825,     775,     833,     792,     789,     803,     797
     834,     793,     800,     826,     791,     848,     763,     801
     743,     819,     802,     747,     827,     797,     800,     812
     779,     823,     814,     769,     829,     790,     843,     807
     804,     798,     795,     779,     811,     813,     776,     837
     836,     781,     772,     818,     794,     782,     787,     792
     759,     776,     853,     794,     740,     825,     779,     793
     751,     832,     854,     805,     792,     769,     802,     796
     821,     883,     827,     807,     762,     791,     809,     823
     793,     766,     809,     759,     764,     798,     791,     834
     829,     792,     806,     765,     797,     760,     844,     819
     798,     797,     786,     807,     783,     786,     801,     800
     805,     853,     852,     766,     806,     795,     765,     792
     827,     799,     780,     788,     789,     791,     798,     807
     808,     843,     794,     830,     824,     834,     813,     835
     809,     813,     853,     903,     844,     845,     822,     869
     786,     805,     852,     802,     843,     813,     805,     812
     844,     802,     830,     778,     811,     799,     790,     858
     839,     797,     852,     862,     861,     779,     794,     839
     768,     829,/
