SampleIdent,2025_06_07_Nifedipine_3_60_8min_pXRD,/
Title1,Nifedipine powder, yellow xtals.  Same sample as ssNMR, IR, DSC.,/
Title2,,/
DiffrType,?,/
DiffrNumber,1,/
Anode,Cu,/
LabdaAlpha1, 1.540598,/
LabdaAlpha2, 1.544426,/
RatioAlpha21, 0.50000,/
DivergenceSlit,Fixed, 1/2,/
ReceivingSlit,UNDEFINED,/
MonochromatorUsed,NO,/
GeneratorVoltage,  40,/
TubeCurrent,  15,/
FileDateTime,07-jun-2025 16:07,/
DataAngleRange,   3.00043,  59.99491,/
ScanStepSize, 0.01086644000,/
ScanType,CONTINUOUS,/
ScanStepTime, 18.87,/
RawScan
   43035,   42920,   42721,   42383,   41866,   40855,   40865,   40078
   39373,   39156,   38699,   38022,   37552,   37365,   36148,   36099
   35260,   35070,   34040,   33867,   33485,   32906,   32299,   31935
   31818,   31283,   30832,   30255,   30013,   29160,   28989,   28827
   28360,   27671,   27652,   26749,   26269,   26113,   25708,   25509
   24950,   24749,   24282,   24012,   23344,   23165,   23069,   22308
   22437,   21848,   21227,   20883,   21210,   20496,   20251,   19903
   19637,   19095,   19110,   18634,   18331,   18248,   17727,   17361
   17151,   16930,   16578,   16338,   15842,   15923,   15689,   15165
   15102,   14746,   14616,   14335,   13769,   13619,   13474,   13262
   12917,   12991,   12878,   12430,   12338,   11776,   11753,   11464
   11344,   11071,   10931,   10684,   10678,   10372,   10214,   10085
    9838,    9563,    9444,    9379,    9006,    8848,    8660,    8515
    8329,    8100,    8145,    7959,    7781,    7700,    7452,    7198
    7311,    7021,    6919,    6751,    6638,    6538,    6237,    6238
    6209,    6003,    5749,    5715,    5530,    5625,    5459,    5352
    5174,    5118,    5020,    4830,    4798,    4818,    4581,    4537
    4381,    4288,    4211,    4077,    3985,    3949,    3828,    3720
    3593,    3619,    3584,    3439,    3449,    3379,    3256,    3252
    3174,    3048,    3115,    2961,    2896,    2883,    2934,    2687
    2656,    2675,    2574,    2612,    2512,    2596,    2425,    2501
    2472,    2482,    2302,    2370,    2260,    2204,    2186,    2226
    2165,    2249,    2155,    2179,    2216,    2187,    2150,    2163
    2145,    2041,    2113,    2107,    2054,    2061,    2152,    2056
    2032,    2067,    2126,    1962,    2046,    2054,    2055,    2027
    2055,    2007,    2106,    2073,    1977,    2035,    2054,    1991
    2031,    2005,    1961,    2018,    1988,    1988,    2035,    1954
    2002,    1923,    1940,    1833,    1959,    1902,    1930,    1868
    1875,    1873,    1809,    1749,    1774,    1614,    1689,    1663
    1560,    1569,    1571,    1510,    1530,    1505,    1493,    1433
    1389,    1338,    1376,    1347,    1307,    1374,    1251,    1232
    1186,    1229,    1238,    1171,    1175,    1215,    1128,    1134
    1153,    1124,    1191,    1136,    1095,    1081,    1072,    1139
    1086,    1090,    1062,    1045,    1039,    1081,    1061,    1052
    1045,    1056,     990,    1045,    1008,    1032,    1061,     999
    1062,    1030,    1023,    1061,    1009,    1082,    1007,     952
    1030,     978,     927,    1035,     985,     936,     940,     965
     938,     933,     940,     962,     892,     914,     916,     898
     927,     867,     928,     885,     853,     854,     867,     870
     866,     841,     850,     875,     841,     827,     861,     875
     903,     791,     856,     814,     832,     856,     841,     866
     806,     808,     833,     836,     759,     788,     763,     859
     790,     837,     804,     728,     776,     831,     735,     787
     776,     739,     742,     722,     803,     735,     701,     709
     738,     726,     695,     731,     674,     722,     721,     703
     717,     678,     705,     698,     701,     682,     661,     682
     682,     687,     726,     685,     653,     692,     677,     659
     689,     689,     676,     716,     670,     657,     675,     709
     727,     689,     690,     740,     701,     738,     716,     760
     759,     742,     741,     799,     739,     795,     785,     822
     764,     769,     808,     829,     855,     869,     869,     927
     943,     956,     974,     999,    1093,    1044,    1102,    1193
    1172,    1224,    1278,    1291,    1290,    1412,    1443,    1515
    1565,    1652,    1648,    1684,    1867,    1790,    1853,    1945
    2095,    2306,    2420,    2661,    2815,    3029,    3157,    3393
    3535,    3664,    3539,    3809,    3713,    3759,    3695,    3890
    3887,    4176,    4514,    5211,    5772,    6371,    6962,    7525
    8021,    8615,    8751,    9200,    9203,    9502,    9005,    8442
    7589,    6913,    5973,    5489,    4610,    3952,    3232,    2627
    2165,    1797,    1552,    1242,    1192,    1026,     998,     914
     821,     843,     764,     797,     768,     793,     776,     812
     752,     747,     801,     740,     708,     702,     662,     725
     709,     717,     703,     656,     676,     645,     625,     652
     619,     628,     626,     665,     611,     663,     662,     633
     638,     648,     620,     679,     690,     610,     617,     631
     666,     595,     626,     616,     656,     628,     636,     620
     610,     690,     595,     560,     615,     652,     597,     648
     624,     615,     619,     615,     620,     564,     648,     571
     571,     589,     589,     580,     657,     595,     657,     633
     630,     672,     618,     614,     639,     676,     594,     616
     596,     584,     558,     582,     539,     595,     593,     600
     599,     648,     600,     606,     627,     613,     552,     602
     590,     587,     566,     623,     608,     604,     554,     607
     575,     618,     594,     634,     601,     600,     591,     561
     594,     612,     623,     604,     577,     600,     563,     642
     584,     641,     563,     598,     607,     583,     583,     609
     591,     555,     633,     558,     632,     638,     600,     616
     645,     656,     650,     620,     702,     673,     626,     654
     677,     704,     726,     685,     723,     703,     720,     764
     712,     697,     769,     717,     811,     793,     887,     923
     848,     906,     938,     995,     958,    1029,    1055,    1119
    1201,    1174,    1188,    1239,    1368,    1316,    1450,    1442
    1581,    1675,    1840,    2008,    2267,    2308,    2600,    2839
    3101,    3223,    3425,    3587,    3944,    4013,    4247,    4388
    4403,    4509,    4555,    4669,    4580,    4695,    4737,    4666
    4763,    4730,    4697,    4758,    4801,    4576,    4600,    4390
    4070,    3693,    3412,    3024,    2484,    2143,    1789,    1500
    1185,    1055,     972,     866,     827,     794,     802,     695
     734,     775,     695,     728,     700,     703,     679,     688
     712,     661,     699,     672,     701,     663,     630,     656
     647,     687,     651,     607,     635,     661,     650,     662
     626,     616,     710,     635,     704,     691,     707,     655
     673,     717,     727,     702,     787,     752,     730,     769
     800,     775,     826,     811,     853,     916,     953,     969
     971,    1047,     996,    1028,    1094,    1162,    1250,    1307
    1348,    1383,    1473,    1539,    1640,    1685,    1716,    1898
    1944,    1999,    2194,    2378,    2534,    2790,    3023,    3204
    3654,    4009,    4203,    4686,    4977,    5777,    6221,    7126
    7569,    8154,    8866,    9541,   10297,   11024,   11771,   12474
   13462,   14007,   14495,   14865,   15520,   15787,   16147,   16338
   15859,   15356,   14463,   13437,   11855,   10840,    9995,    9139
    8613,    8120,    7551,    7245,    6583,    6066,    5289,    4765
    4235,    3771,    3470,    3128,    3069,    2823,    2730,    2526
    2362,    2113,    1818,    1684,    1512,    1421,    1263,    1170
    1117,    1029,    1033,    1007,    1019,    1052,    1049,    1094
    1148,    1176,    1346,    1460,    1367,    1325,    1125,    1080
     952,     834,     814,     743,     730,     738,     732,     694
     719,     700,     725,     720,     733,     722,     733,     745
     705,     703,     689,     786,     640,     774,     725,     701
     782,     767,     766,     702,     725,     747,     769,     800
     761,     756,     842,     832,     815,     757,     811,     838
     865,     923,     891,     922,     971,    1007,    1013,    1007
    1006,    1028,    1175,    1232,    1359,    1358,    1546,    1435
    1560,    1670,    1800,    1894,    1971,    2011,    2111,    2127
    2077,    1962,    1913,    1825,    1722,    1494,    1537,    1402
    1241,    1125,    1112,     976,     966,     904,     859,     833
     798,     858,     793,     804,     762,     797,     836,     757
     822,     769,     740,     801,     780,     814,     834,     850
     845,     824,     799,     847,     912,     893,     942,     892
     879,     927,     904,     845,     863,     891,     816,     819
     762,     748,     680,     675,     686,     661,     665,     654
     624,     604,     630,     597,     575,     612,     605,     617
     599,     637,     631,     596,     596,     598,     571,     582
     644,     599,     619,     617,     599,     604,     604,     623
     620,     584,     589,     574,     565,     527,     580,     637
     617,     621,     603,     661,     614,     584,     583,     627
     593,     595,     638,     627,     653,     632,     595,     631
     584,     601,     633,     677,     630,     607,     678,     634
     676,     643,     651,     629,     655,     650,     711,     703
     735,     744,     776,     756,     724,     705,     790,     833
     840,     915,     911,     946,     997,     911,    1028,    1073
    1237,    1244,    1267,    1452,    1531,    1581,    1672,    1792
    1921,    2035,    2144,    2247,    2432,    2368,    2765,    2718
    2989,    2993,    3079,    3004,    3192,    3051,    2987,    2831
    2756,    2775,    2533,    2468,    2326,    2241,    2208,    2064
    1904,    1659,    1491,    1433,    1236,    1182,     997,     977
     885,     845,     777,     737,     716,     675,     677,     665
     631,     712,     670,     708,     687,     694,     738,     708
     723,     690,     675,     628,     645,     605,     641,     603
     571,     559,     575,     580,     599,     569,     586,     556
     599,     630,     574,     542,     608,     625,     585,     534
     576,     536,     585,     523,     555,     581,     582,     624
     644,     563,     661,     571,     604,     659,     622,     645
     597,     669,     630,     685,     710,     724,     702,     703
     726,     766,     751,     702,     773,     775,     819,     854
     853,     863,     912,     896,    1024,    1015,    1095,    1170
    1158,    1222,    1323,    1342,    1474,    1505,    1505,    1698
    1816,    1918,    1957,    2266,    2457,    2523,    2915,    3321
    3837,    4305,    5010,    5562,    6279,    6539,    6909,    6897
    7460,    7450,    7351,    8017,    8138,    8886,    9071,    9872
   10560,   11042,   11335,   11740,   11969,   11728,   11536,   11058
   10587,    9873,    8891,    8009,    7239,    6417,    5492,    4464
    3715,    3185,    2448,    2067,    1728,    1543,    1345,    1281
    1088,    1047,    1029,    1018,     945,     995,     916,     952
     924,     898,     928,     903,     850,     908,     881,     819
     774,     860,     813,     779,     779,     681,     779,     736
     741,     726,     791,     707,     721,     778,     778,     753
     780,     783,     776,     821,     822,     877,     868,    1013
    1009,    1026,    1068,    1042,    1240,    1275,    1310,    1513
    1511,    1668,    1781,    1806,    1841,    1967,    2052,    2050
    2199,    2309,    2418,    2477,    2516,    2540,    2735,    2664
    2779,    2770,    2751,    2732,    2601,    2611,    2514,    2503
    2327,    2306,    2208,    2028,    2056,    1914,    1817,    1747
    1635,    1545,    1425,    1327,    1209,    1180,    1045,     958
     913,     870,     853,     791,     693,     722,     644,     709
     642,     686,     648,     629,     641,     668,     629,     646
     688,     681,     637,     675,     661,     648,     711,     690
     715,     702,     701,     697,     656,     694,     720,     721
     740,     748,     734,     686,     697,     841,     762,     741
     753,     755,     806,     794,     853,     822,     859,     820
     878,     853,     953,     912,     917,     901,     940,     965
     927,    1046,     982,    1083,    1088,    1186,    1220,    1294
    1262,    1374,    1451,    1575,    1666,    1797,    2033,    2324
    2666,    3002,    3416,    3899,    4457,    5259,    5848,    6628
    7244,    8077,    9051,    9541,   10616,   11551,   12381,   12901
   13188,   13685,   13824,   14453,   13840,   13167,   12514,   12011
   10661,    9617,    8262,    7038,    5777,    4663,    3622,    2933
    2267,    1846,    1538,    1367,    1268,    1061,    1161,    1045
    1008,    1067,    1053,     991,    1054,    1026,    1071,     971
    1051,    1107,    1030,    1127,    1044,    1163,    1153,    1263
    1248,    1451,    1427,    1566,    1635,    1759,    1913,    2137
    2394,    2629,    3031,    3113,    3257,    3517,    3592,    3719
    3862,    3933,    4059,    4335,    4403,    4478,    4662,    4590
    4798,    4887,    4823,    4785,    4734,    4647,    4388,    4220
    3966,    3525,    3176,    2878,    2593,    2332,    2124,    2016
    1821,    1714,    1637,    1529,    1645,    1565,    1592,    1650
    1731,    1752,    1862,    1905,    2122,    2193,    2436,    2570
    3023,    3337,    4081,    4439,    5258,    5617,    6503,    6746
    7804,    8318,    9274,    9879,    9955,   10390,   10361,   10756
   10362,   11151,   10546,   11053,   10569,   11145,   10740,   11124
   11225,   11194,   11496,   11488,   11482,   11580,   11525,   11489
   11510,   11941,   12261,   12900,   14101,   14905,   16411,   16498
   17532,   17545,   19062,   18027,   19908,   18601,   19310,   16892
   16259,   13877,   12623,   10610,    9366,    7746,    6551,    5388
    4443,    3958,    3510,    3312,    2998,    2870,    2799,    2691
    2598,    2603,    2607,    2476,    2441,    2353,    2206,    2159
    2003,    1884,    1853,    1713,    1508,    1470,    1376,    1222
    1167,    1077,     978,     973,    1010,     985,     939,    1013
     940,     998,     935,     976,     924,     934,     918,     878
     930,     979,     985,     995,     981,    1014,    1011,     988
    1057,    1075,    1098,    1047,    1122,    1156,    1202,    1206
    1210,    1195,    1243,    1272,    1228,    1269,    1367,    1319
    1441,    1385,    1378,    1451,    1537,    1312,    1372,    1329
    1252,    1180,    1208,    1200,    1132,    1107,    1156,    1113
    1113,    1109,    1093,    1098,    1135,    1197,    1206,    1269
    1275,    1252,    1300,    1305,    1314,    1366,    1360,    1400
    1439,    1492,    1586,    1580,    1685,    1616,    1651,    1755
    1761,    1595,    1712,    1694,    1626,    1537,    1557,    1480
    1438,    1425,    1434,    1394,    1431,    1312,    1295,    1353
    1444,    1303,    1444,    1467,    1561,    1598,    1707,    1766
    1760,    1949,    1976,    2011,    2121,    2079,    2035,    1885
    1963,    1809,    1749,    1617,    1540,    1483,    1342,    1266
    1309,    1130,    1044,    1060,    1060,    1070,    1047,    1151
    1089,    1158,    1230,    1301,    1385,    1428,    1467,    1664
    1698,    1888,    2013,    2103,    2265,    2311,    2423,    2473
    2680,    2659,    2778,    2856,    2897,    3010,    3033,    3205
    3322,    3258,    3313,    3132,    3172,    3155,    3009,    3010
    2938,    2622,    2712,    2426,    2525,    2195,    2270,    2048
    2002,    1810,    1826,    1685,    1737,    1709,    1710,    1676
    1742,    1807,    1962,    2031,    2191,    2231,    2411,    2522
    2666,    2696,    2858,    2858,    2874,    2963,    3010,    2971
    3001,    2987,    3062,    3036,    3099,    3027,    3010,    2950
    3042,    3137,    3047,    2888,    2970,    2943,    2911,    3025
    3096,    3291,    3405,    3471,    3477,    3551,    3626,    3611
    3732,    3710,    3827,    3937,    4002,    4063,    4280,    4378
    4665,    4782,    4990,    5195,    5229,    5086,    4958,    4562
    4229,    3953,    3554,    3289,    2830,    2575,    2234,    2049
    1806,    1715,    1552,    1532,    1363,    1301,    1234,    1205
    1114,    1084,    1076,    1060,    1094,    1122,    1056,    1197
    1014,    1240,    1053,    1090,     981,    1074,     943,     963
     906,     917,     866,     776,     798,     797,     748,     846
     811,     873,     812,     850,     832,     786,     802,     832
     814,     796,     820,     832,     811,     873,     870,     844
     845,     802,     815,     847,     888,     933,     937,     948
     953,     998,    1064,    1129,    1117,    1231,    1231,    1287
    1275,    1314,    1337,    1379,    1395,    1410,    1379,    1389
    1358,    1454,    1490,    1545,    1477,    1519,    1470,    1541
    1460,    1507,    1470,    1286,    1345,    1269,    1332,    1269
    1196,    1201,    1241,    1181,    1143,    1139,    1179,    1184
    1232,    1266,    1279,    1356,    1386,    1343,    1474,    1472
    1592,    1697,    1750,    1887,    1998,    2047,    2245,    2357
    2490,    2681,    2809,    2942,    3221,    3240,    3463,    3652
    3740,    4014,    4233,    4513,    5080,    5314,    5660,    5840
    6063,    6081,    6082,    6135,    6271,    6280,    6458,    6334
    6510,    6533,    6621,    6716,    6592,    6634,    6699,    6882
    7165,    7251,    7312,    7505,    7625,    7922,    7972,    8075
    8264,    8267,    8796,    8776,    9239,    9469,    9943,   10812
   11284,   12443,   13198,   14665,   15927,   16583,   18854,   17939
   20386,   18561,   19813,   18057,   17603,   15700,   14211,   12629
   10763,    9563,    8114,    7116,    5680,    5123,    4484,    4045
    3491,    3496,    3309,    3425,    3391,    3258,    3421,    3530
    3435,    3479,    3214,    3232,    3168,    2976,    2874,    2729
    2565,    2529,    2405,    2376,    2256,    2135,    2116,    2045
    2017,    1911,    1902,    1908,    1828,    1830,    1766,    1666
    1661,    1616,    1462,    1464,    1356,    1360,    1283,    1305
    1245,    1212,    1207,    1149,    1195,    1203,    1164,    1114
    1153,    1109,    1125,    1146,    1089,    1161,    1201,    1171
    1227,    1214,    1156,    1235,    1226,    1198,    1314,    1358
    1433,    1461,    1524,    1571,    1772,    1931,    2088,    2313
    2441,    2747,    3036,    3301,    3662,    4214,    4595,    4950
    5574,    5835,    6336,    6603,    7215,    7545,    8254,    8895
    9207,    9760,   10068,   10494,   10928,   10640,   11180,   10609
   10279,    9515,    8857,    8186,    7701,    6892,    6441,    5576
    4848,    4434,    3865,    3583,    3403,    3344,    3120,    2981
    2841,    2647,    2519,    2542,    2497,    2365,    2380,    2348
    2205,    2207,    2248,    2186,    2199,    2237,    2241,    2216
    2195,    2287,    2390,    2368,    2423,    2483,    2415,    2412
    2500,    2569,    2761,    2839,    2974,    3200,    3411,    3370
    3501,    3365,    3656,    3486,    3632,    3598,    3566,    3507
    3467,    3263,    3285,    3301,    3264,    3231,    3069,    2986
    2902,    2718,    2611,    2535,    2345,    2411,    2172,    2090
    2089,    2100,    2112,    2149,    2097,    2171,    2161,    2215
    2324,    2409,    2364,    2448,    2521,    2662,    2948,    3196
    3525,    3818,    4029,    3992,    4312,    4331,    4600,    4918
    5088,    5299,    5472,    5763,    5908,    5915,    6205,    6355
    6436,    6580,    6565,    6632,    6569,    6412,    6205,    5785
    5609,    4921,    4152,    3826,    3386,    3013,    2648,    2218
    1966,    1749,    1502,    1347,    1193,    1156,    1097,    1143
    1058,     955,     986,     975,     950,     963,     963,     918
     908,     963,     897,     876,     865,     909,     886,     880
     853,     863,     867,     886,     879,     937,     885,     922
     888,     914,     874,     983,     945,    1040,     972,     987
    1171,    1094,    1151,    1221,    1289,    1395,    1352,    1441
    1499,    1540,    1590,    1678,    1693,    1706,    1763,    1738
    1830,    1844,    1863,    1788,    1840,    1895,    1908,    2070
    2314,    2335,    2505,    2582,    2665,    2694,    2755,    2788
    2690,    2697,    2579,    2582,    2329,    2351,    2243,    2236
    2183,    2237,    2137,    2153,    2093,    2079,    2010,    1918
    1863,    1688,    1773,    1550,    1538,    1458,    1379,    1263
    1276,    1208,    1094,    1034,    1068,    1022,    1031,    1099
    1081,    1069,    1090,    1124,    1125,    1079,    1078,    1096
    1061,    1029,     968,     981,    1070,    1051,    1004,     966
     985,     969,     993,    1020,     969,    1030,    1043,     924
     996,     941,    1002,     921,     970,     902,     901,     872
     926,     850,     856,     858,     840,     782,     787,     769
     700,     771,     748,     698,     760,     709,     779,     741
     756,     782,     690,     750,     738,     747,     766,     795
     834,     836,     861,     848,     865,     912,     976,     980
    1043,    1080,    1145,    1154,    1209,    1288,    1316,    1257
    1308,    1297,    1263,    1319,    1204,    1304,    1171,    1193
    1215,    1121,    1121,    1039,    1027,    1092,    1096,    1029
    1048,     901,     895,     887,     879,     924,     900,     892
     890,     867,     858,     910,     830,     927,     839,     885
     948,     975,    1000,    1001,    1062,    1086,    1152,    1209
    1215,    1291,    1355,    1368,    1391,    1491,    1514,    1544
    1542,    1476,    1513,    1375,    1617,    1320,    1474,    1235
    1353,    1194,    1242,    1263,    1244,    1124,    1128,    1192
    1148,    1118,    1152,    1172,    1203,    1080,    1160,    1155
    1127,    1071,    1099,    1160,    1127,    1106,    1110,    1091
    1114,    1042,    1113,    1041,    1104,    1096,    1039,     992
    1004,     998,     948,     914,     892,     898,     985,     916
     843,     905,     930,     970,     949,    1008,     977,    1035
    1017,    1009,    1044,    1042,    1074,    1071,    1103,    1183
    1161,    1137,    1159,    1166,    1220,    1199,    1183,    1179
    1267,    1321,    1259,    1276,    1260,    1324,    1267,    1243
    1233,    1298,    1297,    1315,    1369,    1336,    1301,    1421
    1445,    1461,    1494,    1490,    1557,    1550,    1553,    1586
    1612,    1591,    1598,    1602,    1595,    1523,    1409,    1390
    1404,    1368,    1381,    1289,    1290,    1252,    1188,    1264
    1129,    1190,    1092,    1182,    1172,    1119,    1202,    1236
    1319,    1401,    1569,    1559,    1718,    1769,    1735,    1669
    1732,    1684,    1815,    1891,    1721,    1748,    1656,    1666
    1521,    1433,    1437,    1383,    1361,    1253,    1343,    1248
    1203,    1231,    1193,    1262,    1235,    1157,    1342,    1335
    1352,    1400,    1419,    1473,    1561,    1502,    1582,    1599
    1590,    1638,    1642,    1691,    1738,    1688,    1679,    1573
    1504,    1487,    1472,    1440,    1389,    1387,    1313,    1299
    1185,    1168,    1128,    1107,    1034,    1126,    1166,    1189
    1142,    1205,    1212,    1310,    1376,    1412,    1384,    1512
    1525,    1460,    1583,    1644,    1557,    1679,    1594,    1679
    1700,    1787,    1665,    1618,    1694,    1653,    1672,    1835
    1797,    1901,    1773,    1831,    1716,    1681,    1514,    1339
    1286,    1431,    1286,    1240,    1157,    1043,     962,     908
     907,     855,     811,     855,     860,     780,     784,     781
     745,     786,     760,     767,     773,     763,     794,     783
     783,     840,     861,     848,     915,     873,     987,     997
    1006,    1015,    1122,    1069,    1141,    1101,    1096,    1092
    1097,    1153,    1170,    1187,    1184,    1209,    1190,    1261
    1316,    1310,    1319,    1345,    1347,    1427,    1448,    1514
    1551,    1537,    1655,    1543,    1578,    1635,    1763,    1794
    1754,    1751,    1812,    1784,    1863,    1835,    1931,    1914
    2004,    2021,    1946,    1980,    1958,    1838,    1901,    1882
    1855,    1776,    1744,    1726,    1675,    1659,    1571,    1552
    1444,    1416,    1362,    1346,    1331,    1209,    1200,    1179
    1224,    1150,    1098,    1157,    1027,     962,     976,    1014
     931,     976,    1009,     965,     975,     926,    1030,     966
    1103,    1027,    1032,    1173,    1171,    1121,    1166,    1144
    1147,    1165,    1206,    1212,    1222,    1242,    1160,    1144
    1064,    1017,     916,    1013,     914,     904,     860,     807
     785,     798,     778,     772,     751,     711,     724,     667
     662,     641,     672,     610,     673,     591,     567,     622
     625,     629,     627,     597,     631,     586,     567,     604
     590,     568,     620,     643,     581,     597,     608,     636
     585,     593,     613,     602,     646,     582,     651,     594
     617,     623,     600,     582,     599,     621,     634,     618
     668,     657,     628,     601,     648,     654,     573,     635
     649,     608,     592,     558,     646,     624,     592,     629
     584,     646,     634,     599,     616,     627,     611,     652
     600,     598,     653,     688,     716,     700,     713,     782
     784,     760,     713,     768,     810,     802,     780,     787
     856,     792,     816,     838,     831,     806,     832,     777
     801,     826,     849,     828,     857,     816,     827,     850
     868,     886,     915,     952,     984,     961,     944,    1034
     992,    1051,     969,    1004,    1026,     978,     967,     970
     985,     986,     918,     916,     893,     828,     778,     828
     808,     795,     779,     730,     720,     676,     699,     719
     647,     677,     665,     636,     704,     682,     657,     712
     651,     730,     685,     709,     757,     710,     783,     832
     822,     920,     861,     903,     902,     923,    1046,    1001
    1065,    1077,    1165,    1184,    1249,    1258,    1276,    1338
    1390,    1508,    1429,    1531,    1553,    1519,    1426,    1523
    1444,    1449,    1400,    1406,    1251,    1320,    1247,    1256
    1216,    1209,    1137,    1180,    1132,    1182,    1205,    1221
    1308,    1449,    1443,    1519,    1521,    1664,    1737,    1867
    2065,    2278,    2373,    2584,    2849,    2939,    3082,    3117
    3152,    3114,    3094,    3056,    3242,    3209,    3349,    3200
    3280,    3343,    3298,    3297,    3328,    3284,    3334,    3195
    3096,    2887,    2567,    2404,    2285,    2110,    1975,    2069
    1939,    1833,    1655,    1536,    1410,    1341,    1331,    1293
    1264,    1269,    1220,    1219,    1219,    1198,    1202,    1272
    1186,    1214,    1199,    1164,    1150,    1232,    1173,    1204
    1126,    1175,    1176,    1154,    1152,    1068,    1067,    1004
    1102,    1005,    1107,    1012,     959,     955,     890,     859
     851,     808,     810,     791,     813,     666,     733,     686
     719,     680,     710,     692,     718,     691,     705,     651
     670,     612,     707,     651,     679,     700,     658,     745
     729,     743,     758,     796,     783,     775,     828,     798
     791,     853,     811,     796,     768,     798,     869,     793
     796,     815,     780,     836,     731,     751,     742,     769
     707,     708,     766,     744,     776,     791,     759,     769
     810,     859,     863,     825,     944,     953,     983,    1022
    1056,    1054,    1125,    1127,    1138,    1212,    1191,    1266
    1238,    1177,    1207,    1197,    1144,    1118,    1099,    1115
    1140,    1045,    1051,    1010,     966,    1001,     938,     980
     833,     848,     890,     943,     838,     851,     790,     841
     791,     782,     815,     761,     764,     715,     710,     732
     709,     710,     698,     676,     690,     727,     708,     689
     693,     740,     745,     790,     784,     800,     817,     867
     852,     872,     947,     968,     915,     960,     969,     931
     968,     909,    1012,     961,    1021,     961,    1091,    1029
    1116,    1110,    1017,    1122,    1138,    1126,    1126,    1111
    1095,    1083,     986,    1018,     967,    1002,     872,     965
     887,     780,     826,     782,     726,     725,     723,     701
     665,     668,     646,     630,     626,     613,     631,     644
     614,     635,     588,     621,     595,     559,     556,     619
     616,     612,     614,     591,     599,     633,     628,     627
     670,     731,     738,     788,     766,     811,     826,     843
     813,     895,     866,     924,     953,     981,    1022,    1030
    1052,    1129,    1084,    1148,    1197,    1142,    1182,    1121
    1112,    1094,    1156,    1114,    1133,    1133,    1084,    1111
    1030,    1061,     982,     954,     969,     873,     920,     926
     946,     948,     810,     901,     882,     806,     786,     775
     811,     788,     770,     732,     739,     746,     732,     722
     692,     730,     724,     714,     730,     712,     740,     767
     768,     707,     730,     753,     719,     784,     756,     805
     823,     783,     813,     802,     836,     830,     879,     926
     876,    1002,     993,    1111,    1090,    1170,    1247,    1287
    1304,    1304,    1294,    1299,    1249,    1228,    1156,    1150
    1168,    1102,    1099,    1082,    1016,     964,     898,     912
     814,     735,     712,     719,     706,     698,     712,     663
     606,     667,     612,     665,     623,     662,     646,     681
     704,     714,     742,     759,     752,     823,     819,     826
     845,     858,     900,     945,     894,     902,     893,     811
     810,     828,     841,     805,     795,     795,     862,     861
     838,     904,     813,     802,     825,     836,     824,     926
     990,    1019,    1069,    1049,    1049,    1104,    1087,    1178
    1237,    1252,    1438,    1625,    1683,    1796,    1985,    2015
    2025,    2042,    2104,    2137,    2031,    2244,    2236,    2156
    1957,    1952,    1767,    1597,    1497,    1464,    1398,    1300
    1175,    1155,    1043,    1080,     880,     834,     734,     722
     749,     687,     665,     668,     713,     626,     693,     704
     745,     694,     718,     675,     728,     697,     707,     784
     820,     791,     727,     815,     784,     817,     869,     884
     851,     889,     883,     918,     820,     846,     853,     841
     831,     797,     890,     778,     750,     767,     685,     759
     702,     671,     680,     710,     689,     654,     650,     679
     679,     656,     654,     642,     656,     620,     622,     630
     590,     604,     572,     609,     640,     600,     615,     595
     584,     635,     622,     610,     609,     612,     597,     609
     642,     571,     633,     618,     599,     623,     593,     584
     575,     581,     552,     550,     566,     584,     564,     546
     527,     570,     584,     600,     586,     550,     566,     577
     605,     598,     581,     575,     592,     582,     572,     584
     622,     653,     577,     646,     624,     650,     673,     705
     662,     730,     742,     741,     758,     747,     782,     773
     791,     770,     813,     758,     839,     853,     886,     874
     872,     853,     864,     967,    1031,    1102,    1134,    1251
    1294,    1428,    1566,    1699,    1794,    1883,    1917,    1974
    1874,    1812,    1752,    1743,    1841,    1783,    1872,    1910
    1829,    1880,    1871,    1763,    1654,    1611,    1509,    1577
    1463,    1467,    1502,    1449,    1436,    1321,    1340,    1242
    1190,    1174,    1167,    1139,    1186,    1149,    1135,    1126
    1098,    1114,    1049,     992,     968,     963,     964,     985
     936,     912,     937,     920,     934,     925,     888,     869
     829,     797,     796,     806,     798,     777,     766,     756
     746,     692,     748,     782,     785,     820,     677,     790
     778,     778,     795,     830,     846,     819,     820,     853
     857,     837,     934,     945,    1017,    1013,     975,     942
    1031,    1013,     967,     958,     893,    1007,     873,     895
     927,     934,     962,     891,     919,     865,     896,     872
     844,     854,     890,     864,     860,     828,     854,     811
     833,     865,     813,     787,     829,     900,     864,     838
     890,     791,     844,     882,     907,     824,     871,     847
     812,     882,     825,     786,     811,     793,     765,     789
     742,     775,     739,     733,     781,     720,     828,     725
     768,     755,     809,     790,     768,     778,     754,     766
     749,     732,     666,     765,     718,     723,     728,     740
     676,     682,     675,     676,     648,     673,     653,     603
     605,     620,     620,     593,     627,     601,     638,     626
     619,     651,     653,     645,     657,     584,     654,     635
     708,     667,     695,     724,     727,     793,     797,     793
     799,     808,     857,     947,     931,     933,     903,     921
     970,     980,     972,    1050,     992,    1059,     971,    1088
    1097,    1179,    1211,    1128,    1199,    1174,    1176,    1160
    1182,    1120,    1098,    1113,    1066,    1034,    1037,    1081
    1012,    1067,     978,    1012,     894,     923,     866,     884
     873,     856,     898,     932,     881,     952,     935,    1032
    1040,    1004,     984,     952,     978,     969,    1016,     992
    1029,    1071,    1076,    1069,    1068,    1041,    1024,    1042
    1064,    1097,    1018,     963,     995,    1000,     957,     925
     906,     921,     831,     827,     873,     829,     840,     823
     787,     808,     756,     747,     811,     741,     776,     716
     735,     745,     796,     882,     897,     908,     956,     977
     937,     921,     881,     840,     860,     854,     777,     811
     764,     787,     778,     764,     756,     729,     688,     741
     632,     626,     642,     623,     582,     687,     625,     646
     614,     566,     579,     609,     565,     572,     588,     569
     596,     586,     577,     601,     604,     584,     578,     565
     588,     662,     622,     593,     548,     621,     560,     548
     585,     608,     614,     546,     589,     583,     550,     586
     549,     560,     564,     550,     523,     596,     590,     566
     549,     601,     570,     576,     580,     597,     585,     617
     612,     654,     623,     606,     615,     658,     613,     583
     586,     599,     625,     558,     631,     624,     579,     605
     533,     595,     583,     629,     578,     595,     540,     576
     565,     560,     573,     588,     628,     597,     604,     592
     672,     607,     672,     666,     665,     640,     663,     627
     692,     663,     731,     699,     691,     674,     688,     698
     698,     695,     633,     734,     625,     712,     624,     606
     655,     636,     582,     578,     591,     563,     597,     551
     549,     520,     560,     575,     528,     520,     521,     502
     569,     535,     502,     532,     559,     518,     611,     540
     535,     527,     612,     642,     626,     664,     628,     677
     695,     741,     798,     816,     782,     814,     805,     854
     881,     875,     866,     897,     899,     941,     928,     943
     947,     974,     929,     898,     936,     930,     825,     901
     851,     846,     893,     879,     835,     875,     784,     849
     793,     771,     777,     821,     803,     796,     804,     785
     774,     732,     736,     714,     762,     711,     744,     724
     761,     764,     793,     729,     733,     681,     758,     756
     738,     704,     749,     723,     715,     727,     721,     755
     705,     693,     711,     675,     687,     672,     675,     725
     645,     641,     687,     723,     662,     609,     654,     652
     676,     675,     633,     636,     655,     672,     647,     662
     700,     681,     666,     720,     674,     731,     735,     736
     686,     642,     651,     609,     611,     697,     643,     613
     612,     593,     610,     638,     592,     576,     559,     545
     553,     582,     563,     552,     544,     547,     556,     562
     572,     545,     589,     588,     554,     630,     636,     629
     660,     696,     706,     778,     838,     881,     894,     976
     970,    1096,    1017,    1008,    1063,    1034,     990,    1043
    1067,    1147,    1130,    1123,    1180,    1206,    1188,    1211
    1109,    1089,     980,     996,     875,     859,     843,     815
     850,     828,     805,     800,     784,     672,     706,     604
     608,     662,     586,     581,     590,     555,     580,     563
     566,     522,     528,     520,     503,     541,     563,     549
     549,     493,     575,     573,     568,     588,     637,     701
     643,     693,     711,     653,     691,     744,     730,     779
     803,     804,     866,     882,     962,    1037,    1022,    1105
    1228,    1328,    1288,    1333,    1312,    1306,    1234,    1181
    1129,    1005,     963,    1015,     975,     994,     968,     926
     974,     927,     915,     883,     880,     746,     752,     703
     695,     685,     623,     623,     657,     599,     640,     625
     552,     618,     600,     599,     590,     604,     576,     573
     547,     565,     584,     541,     556,     510,     522,     511
     568,     532,     591,     557,     546,     511,     561,     544
     565,     581,     549,     590,     563,     521,     542,     531
     591,     542,     599,     544,     597,     604,     569,     595
     589,     671,     631,     639,     645,     637,     658,     673
     692,     689,     760,     727,     701,     714,     710,     745
     696,     722,     732,     697,     734,     715,     736,     699
     736,     669,     730,     750,     691,     762,     674,     671
     712,     729,     658,     711,     701,     647,     672,     685
     664,     613,     702,     601,     674,     653,     713,     651
     580,     530,     613,     620,     581,     641,     623,     619
     613,     602,     664,     574,     632,     638,     654,     628
     673,     629,     649,     615,     605,     593,     622,     593
     570,     594,     621,     582,     609,     590,     611,     592
     591,     610,     627,     618,     644,     633,     607,     615
     670,     616,     577,     610,     580,     571,     574,     621
     549,     561,     524,     545,     562,     536,     519,     546
     509,     543,     504,     537,     482,     524,     477,     481
     459,     492,     479,     522,     465,     464,     440,     524
     450,     469,     491,     491,     523,     486,     549,     505
     502,     532,     518,     568,     528,     526,     523,     541
     578,     557,     582,     597,     510,     541,     535,     540
     584,     526,     518,     531,     494,     535,     486,     561
     499,     516,     481,     475,     472,     490,     476,     468
     486,     480,     467,     477,     508,     480,     514,     527
     446,     462,     496,     449,     441,     466,     448,     494
     459,     518,     454,     432,     410,     493,     498,     462
     490,     504,     481,     497,     504,     496,     486,     538
     465,     474,     474,     494,     493,     475,     488,     478
     449,     423,     451,     482,     483,     465,     473,     396
     499,     442,     453,     452,     497,     454,     469,     468
     442,     429,     449,     445,     479,     451,     456,     437
     433,     451,     473,     448,     438,     439,     444,     449
     435,     464,     412,     417,     409,     478,     425,     455
     456,     435,     447,     472,     462,     453,     506,     479
     452,     505,     499,     480,     443,     487,     509,     475
     518,     494,     504,     494,     553,     536,     524,     496
     537,     526,     548,     544,     553,     536,     550,     533
     558,     558,     643,     549,     656,     646,     629,     636
     626,     640,     636,     659,     650,     728,     747,     742
     760,     822,     880,     913,     918,     882,     885,     832
     807,     795,     716,     701,     727,     714,     753,     741
     766,     741,     797,     778,     804,     792,     754,     769
     693,     678,     677,     671,     650,     615,     562,     562
     628,     580,     554,     588,     624,     597,     549,     572
     532,     520,     490,     461,     506,     471,     445,     480
     489,     464,     456,     494,     485,     539,     503,     481
     533,     549,     524,     533,     567,     548,     569,     540
     517,     580,     590,     556,     557,     649,     628,     606
     618,     638,     666,     604,     625,     621,     597,     587
     607,     559,     610,     635,     586,     606,     622,     612
     581,     544,     596,     628,     577,     592,     590,     595
     571,     599,     597,     555,     581,     532,     575,     565
     551,     561,     587,     568,     565,     545,     542,     504
     524,     481,     528,     466,     457,     494,     491,     496
     493,     558,     542,     479,     516,     481,     550,     518
     541,     559,     593,     544,     605,     564,     624,     583
     598,     525,     579,     516,     553,     519,     548,     573
     551,     555,     525,     531,     526,     514,     503,     485
     467,     459,     458,     460,     460,     405,     444,     425
     412,     418,     449,     447,     426,     412,     408,     413
     397,     415,     412,     402,     433,     392,     390,     401
     388,     409,     432,     442,     419,     377,     418,     372
     386,     397,     394,     436,     432,     429,     428,     419
     452,     423,     444,     433,     457,     475,     480,     461
     508,     518,     508,     493,     456,     546,     515,     534
     496,     514,     483,     463,     549,     517,     489,     494
     481,     488,     504,     484,     450,     446,     461,     501
     484,     454,     494,     477,     465,     509,     467,     507
     486,     518,     470,     500,     520,     469,     535,     538
     484,     564,     535,     588,     561,     560,     535,     554
     567,     537,     552,     511,     528,     486,     527,     487
     541,     508,     525,     527,     559,     510,     475,     489
     503,     494,     457,     473,     475,     475,     485,     466
     475,     487,     500,     476,     472,     488,     429,     458
     455,     478,     516,     481,     506,     504,     534,     483
     505,     535,     519,     543,     544,     536,     508,     489
     538,     569,     523,     513,     527,     504,     579,     535
     563,     505,     567,     543,     494,     493,     506,     505
     501,     488,     442,     502,     496,     537,     492,     525
     474,     492,     464,     490,     460,     471,     456,     457
     462,     445,     473,     457,     456,     477,     458,     418
     430,     428,     410,     444,     431,     439,     449,     463
     461,     429,     455,     429,     442,     402,     470,     408
     470,     440,     438,     409,     430,     426,     439,     438
     468,     472,     468,     481,     473,     508,     488,     485
     515,     592,     592,     581,     625,     633,     670,     645
     655,     694,     674,     692,     652,     669,     618,     699
     603,     578,     570,     497,     526,     551,     576,     560
     511,     555,     538,     504,     513,     483,     429,     488
     443,     435,     426,     429,     438,     434,     465,     440
     458,     446,     455,     419,     492,     444,     423,     442
     434,     461,     497,     459,     435,     450,     436,     461
     440,     421,     505,     443,     436,     489,     483,     475
     485,     477,     414,     440,     422,     430,     427,     394
     421,     427,     465,     427,     432,     438,     488,     468
     428,     452,     450,     425,     442,     477,     454,     379
     415,     411,     421,     403,     416,     389,     421,     418
     406,     373,     404,     426,     389,     419,     414,     416
     379,     382,     413,     379,     402,     418,     380,     386
     370,     385,     389,     387,     399,     390,     372,     384
     350,     406,     409,     368,     424,     353,     412,     354
     384,     380,     372,     378,     364,     367,     376,     410
     369,     360,     390,     357,     384,     362,     419,     370
     381,     349,     338,     357,     342,     346,     328,     369
     294,     326,     344,     347,     360,     343,     348,     325
     347,     355,     340,     363,     345,     346,     336,     336
     328,     364,     344,     363,     358,     368,     339,     346
     333,     316,     364,     350,     323,     344,     310,     338
     347,     345,     360,     373,     340,     378,     340,     361
     291,     372,     360,     349,     333,     378,     332,     337
     375,     386,     356,     376,     335,     368,     375,     321
     338,     335,     368,     349,     363,     338,     362,     360
     353,     355,     344,     378,     383,     338,     381,     363
     374,     353,     350,     327,     340,     362,     368,     350
     346,     364,     341,     357,     390,     361,     372,     368
     370,     363,     386,     350,     368,     386,     332,     367
     364,     362,     363,     344,     367,     375,     367,     381
     358,     397,     403,     344,     346,     375,     398,     355
     355,     383,     340,     399,     382,     376,     366,     387
     415,     368,     394,     356,     381,     394,     328,     355
     383,     397,     366,     355,     379,     361,/
