Direct 2H with 1H decoupling.
##freq 61.4227
##col_ Hz	Spectrum	Model	Line#1
50025.6	1.19492	-5.79006	0.00391914
50022.6	1.22858	-5.79006	0.00391966
50019.5	1.26042	-5.79006	0.00392017
50016.5	1.28902	-5.79006	0.00392069
50013.4	1.31303	-5.79006	0.0039212
50010.4	1.33117	-5.79006	0.00392172
50007.3	1.34229	-5.79006	0.00392223
50004.3	1.34542	-5.79006	0.00392274
50001.2	1.33978	-5.79006	0.00392326
49998.2	1.32482	-5.79006	0.00392377
49995.1	1.30022	-5.79005	0.00392429
49992.1	1.26591	-5.79005	0.0039248
49989	1.22208	-5.79005	0.00392532
49986	1.16916	-5.79005	0.00392583
49982.9	1.10781	-5.79005	0.00392635
49979.9	1.03892	-5.79005	0.00392686
49976.8	0.963556	-5.79005	0.00392738
49973.8	0.882925	-5.79005	0.00392789
49970.7	0.798362	-5.79005	0.00392841
49967.7	0.711262	-5.79005	0.00392893
49964.6	0.623062	-5.79005	0.00392944
49961.6	0.535169	-5.79005	0.00392996
49958.5	0.448925	-5.79005	0.00393047
49955.4	0.365575	-5.79005	0.00393099
49952.4	0.286206	-5.79005	0.00393151
49949.3	0.211744	-5.79005	0.00393202
49946.3	0.142881	-5.79005	0.00393254
49943.2	0.0801063	-5.79005	0.00393306
49940.2	0.0236437	-5.79005	0.00393357
49937.1	-0.0265125	-5.79005	0.00393409
49934.1	-0.0706313	-5.79004	0.00393461
49931	-0.109206	-5.79004	0.00393512
49928	-0.142944	-5.79004	0.00393564
49924.9	-0.172744	-5.79004	0.00393616
49921.9	-0.19965	-5.79004	0.00393667
49918.8	-0.224819	-5.79004	0.00393719
49915.8	-0.249481	-5.79004	0.00393771
49912.7	-0.274875	-5.79004	0.00393823
49909.7	-0.302219	-5.79004	0.00393875
49906.6	-0.332644	-5.79004	0.00393926
49903.6	-0.367169	-5.79004	0.00393978
49900.5	-0.406619	-5.79004	0.0039403
49897.5	-0.451637	-5.79004	0.00394082
49894.4	-0.5026	-5.79004	0.00394134
49891.4	-0.559625	-5.79004	0.00394185
49888.3	-0.62255	-5.79004	0.00394237
49885.3	-0.690925	-5.79004	0.00394289
49882.2	-0.763987	-5.79004	0.00394341
49879.2	-0.840725	-5.79004	0.00394393
49876.1	-0.919844	-5.79003	0.00394445
49873.1	-0.99985	-5.79003	0.00394497
49870	-1.07905	-5.79003	0.00394549
49866.9	-1.15561	-5.79003	0.003946
49863.9	-1.22761	-5.79003	0.00394652
49860.8	-1.29311	-5.79003	0.00394704
49857.8	-1.35019	-5.79003	0.00394756
49854.7	-1.39703	-5.79003	0.00394808
49851.7	-1.43196	-5.79003	0.0039486
49848.6	-1.45352	-5.79003	0.00394912
49845.6	-1.46052	-5.79003	0.00394964
49842.5	-1.45206	-5.79003	0.00395016
49839.5	-1.42762	-5.79003	0.00395068
49836.4	-1.38702	-5.79003	0.0039512
49833.4	-1.33052	-5.79003	0.00395172
49830.3	-1.25875	-5.79003	0.00395224
49827.3	-1.17276	-5.79003	0.00395276
49824.2	-1.07399	-5.79003	0.00395328
49821.2	-0.964237	-5.79003	0.00395381
49818.1	-0.845612	-5.79002	0.00395433
49815.1	-0.720513	-5.79002	0.00395485
49812	-0.591556	-5.79002	0.00395537
49809	-0.461494	-5.79002	0.00395589
49805.9	-0.3332	-5.79002	0.00395641
49802.9	-0.209519	-5.79002	0.00395693
49799.8	-0.0932625	-5.79002	0.00395745
49796.8	0.0129125	-5.79002	0.00395798
49793.7	0.106556	-5.79002	0.0039585
49790.7	0.185506	-5.79002	0.00395902
49787.6	0.247919	-5.79002	0.00395954
49784.6	0.292356	-5.79002	0.00396006
49781.5	0.317819	-5.79002	0.00396058
49778.4	0.323763	-5.79002	0.00396111
49775.4	0.310137	-5.79002	0.00396163
49772.3	0.277369	-5.79002	0.00396215
49769.3	0.226388	-5.79002	0.00396267
49766.2	0.158569	-5.79002	0.0039632
49763.2	0.0757312	-5.79002	0.00396372
49760.1	-0.0199375	-5.79001	0.00396424
49757.1	-0.125925	-5.79001	0.00396477
49754	-0.239425	-5.79001	0.00396529
49751	-0.357475	-5.79001	0.00396581
49747.9	-0.476975	-5.79001	0.00396634
49744.9	-0.5948	-5.79001	0.00396686
49741.8	-0.707881	-5.79001	0.00396738
49738.8	-0.813275	-5.79001	0.00396791
49735.7	-0.908231	-5.79001	0.00396843
49732.7	-0.990306	-5.79001	0.00396895
49729.6	-1.05737	-5.79001	0.00396948
49726.6	-1.1077	-5.79001	0.00397
49723.5	-1.14003	-5.79001	0.00397053
49720.5	-1.15353	-5.79001	0.00397105
49717.4	-1.14789	-5.79001	0.00397157
49714.4	-1.12327	-5.79001	0.0039721
49711.3	-1.08033	-5.79001	0.00397262
49708.3	-1.02017	-5.79001	0.00397315
49705.2	-0.944337	-5.79001	0.00397367
49702.2	-0.854756	-5.79001	0.0039742
49699.1	-0.753656	-5.79	0.00397472
49696	-0.643544	-5.79	0.00397525
49693	-0.527094	-5.79	0.00397577
49689.9	-0.4071	-5.79	0.0039763
49686.9	-0.286381	-5.79	0.00397682
49683.8	-0.167706	-5.79	0.00397735
49680.8	-0.053725	-5.79	0.00397788
49677.7	0.0531062	-5.79	0.0039784
49674.7	0.150619	-5.79	0.00397893
49671.6	0.236944	-5.79	0.00397945
49668.6	0.310581	-5.79	0.00397998
49665.5	0.370438	-5.79	0.00398051
49662.5	0.415837	-5.79	0.00398103
49659.4	0.446562	-5.79	0.00398156
49656.4	0.462812	-5.79	0.00398208
49653.3	0.465219	-5.79	0.00398261
49650.3	0.454787	-5.79	0.00398314
49647.2	0.432894	-5.79	0.00398367
49644.2	0.401219	-5.79	0.00398419
49641.1	0.361675	-5.78999	0.00398472
49638.1	0.316369	-5.78999	0.00398525
49635	0.267513	-5.78999	0.00398577
49632	0.217362	-5.78999	0.0039863
49628.9	0.168125	-5.78999	0.00398683
49625.9	0.121919	-5.78999	0.00398736
49622.8	0.0806812	-5.78999	0.00398788
49619.8	0.0461062	-5.78999	0.00398841
49616.7	0.0196187	-5.78999	0.00398894
49613.7	0.002275	-5.78999	0.00398947
49610.6	-0.0052	-5.78999	0.00399
49607.5	-0.0025125	-5.78999	0.00399052
49604.5	0.0102438	-5.78999	0.00399105
49601.4	0.0325812	-5.78999	0.00399158
49598.4	0.0636187	-5.78999	0.00399211
49595.3	0.102106	-5.78999	0.00399264
49592.3	0.146475	-5.78999	0.00399317
49589.2	0.194881	-5.78999	0.0039937
49586.2	0.245256	-5.78999	0.00399422
49583.1	0.295381	-5.78998	0.00399475
49580.1	0.342944	-5.78998	0.00399528
49577	0.385619	-5.78998	0.00399581
49574	0.421125	-5.78998	0.00399634
49570.9	0.447331	-5.78998	0.00399687
49567.9	0.462281	-5.78998	0.0039974
49564.8	0.464287	-5.78998	0.00399793
49561.8	0.451969	-5.78998	0.00399846
49558.7	0.424313	-5.78998	0.00399899
49555.7	0.380688	-5.78998	0.00399952
49552.6	0.320912	-5.78998	0.00400005
49549.6	0.245212	-5.78998	0.00400058
49546.5	0.154269	-5.78998	0.00400111
49543.5	0.049175	-5.78998	0.00400164
49540.4	-0.0685562	-5.78998	0.00400217
49537.4	-0.197069	-5.78998	0.0040027
49534.3	-0.334163	-5.78998	0.00400323
49531.3	-0.477394	-5.78998	0.00400377
49528.2	-0.624088	-5.78997	0.0040043
49525.2	-0.771456	-5.78997	0.00400483
49522.1	-0.916625	-5.78997	0.00400536
49519	-1.05675	-5.78997	0.00400589
49516	-1.18906	-5.78997	0.00400642
49512.9	-1.31093	-5.78997	0.00400695
49509.9	-1.41998	-5.78997	0.00400748
49506.8	-1.51409	-5.78997	0.00400802
49503.8	-1.5915	-5.78997	0.00400855
49500.7	-1.65082	-5.78997	0.00400908
49497.7	-1.69107	-5.78997	0.00400961
49494.6	-1.71172	-5.78997	0.00401014
49491.6	-1.7127	-5.78997	0.00401068
49488.5	-1.69438	-5.78997	0.00401121
49485.5	-1.65758	-5.78997	0.00401174
49482.4	-1.60351	-5.78997	0.00401227
49479.4	-1.53381	-5.78997	0.00401281
49476.3	-1.45041	-5.78997	0.00401334
49473.3	-1.35555	-5.78997	0.00401387
49470.2	-1.2517	-5.78996	0.00401441
49467.2	-1.1415	-5.78996	0.00401494
49464.1	-1.02766	-5.78996	0.00401547
49461.1	-0.912937	-5.78996	0.00401601
49458	-0.80005	-5.78996	0.00401654
49455	-0.691606	-5.78996	0.00401707
49451.9	-0.590031	-5.78996	0.00401761
49448.9	-0.497544	-5.78996	0.00401814
49445.8	-0.416069	-5.78996	0.00401868
49442.8	-0.347231	-5.78996	0.00401921
49439.7	-0.292287	-5.78996	0.00401974
49436.7	-0.252137	-5.78996	0.00402028
49433.6	-0.227281	-5.78996	0.00402081
49430.5	-0.217837	-5.78996	0.00402135
49427.5	-0.223537	-5.78996	0.00402188
49424.4	-0.243756	-5.78996	0.00402242
49421.4	-0.277531	-5.78996	0.00402295
49418.3	-0.323594	-5.78996	0.00402349
49415.3	-0.380412	-5.78996	0.00402402
49412.2	-0.44625	-5.78995	0.00402456
49409.2	-0.5192	-5.78995	0.00402509
49406.1	-0.597237	-5.78995	0.00402563
49403.1	-0.6783	-5.78995	0.00402616
49400	-0.7603	-5.78995	0.0040267
49397	-0.841225	-5.78995	0.00402723
49393.9	-0.91915	-5.78995	0.00402777
49390.9	-0.992294	-5.78995	0.00402831
49387.8	-1.05906	-5.78995	0.00402884
49384.8	-1.11806	-5.78995	0.00402938
49381.7	-1.16817	-5.78995	0.00402991
49378.7	-1.20851	-5.78995	0.00403045
49375.6	-1.23844	-5.78995	0.00403099
49372.6	-1.25765	-5.78995	0.00403152
49369.5	-1.26605	-5.78995	0.00403206
49366.5	-1.26381	-5.78995	0.0040326
49363.4	-1.25136	-5.78995	0.00403313
49360.4	-1.22929	-5.78995	0.00403367
49357.3	-1.19844	-5.78995	0.00403421
49354.3	-1.15972	-5.78994	0.00403475
49351.2	-1.11422	-5.78994	0.00403528
49348.1	-1.06307	-5.78994	0.00403582
49345.1	-1.00744	-5.78994	0.00403636
49342	-0.948525	-5.78994	0.0040369
49339	-0.887469	-5.78994	0.00403743
49335.9	-0.825356	-5.78994	0.00403797
49332.9	-0.763194	-5.78994	0.00403851
49329.8	-0.701862	-5.78994	0.00403905
49326.8	-0.642125	-5.78994	0.00403959
49323.7	-0.584588	-5.78994	0.00404012
49320.7	-0.529712	-5.78994	0.00404066
49317.6	-0.477787	-5.78994	0.0040412
49314.6	-0.428975	-5.78994	0.00404174
49311.5	-0.383269	-5.78994	0.00404228
49308.5	-0.340537	-5.78994	0.00404282
49305.4	-0.300519	-5.78994	0.00404336
49302.4	-0.262856	-5.78994	0.0040439
49299.3	-0.227106	-5.78993	0.00404444
49296.3	-0.192762	-5.78993	0.00404498
49293.2	-0.159287	-5.78993	0.00404551
49290.2	-0.126112	-5.78993	0.00404605
49287.1	-0.0926937	-5.78993	0.00404659
49284.1	-0.0585063	-5.78993	0.00404713
49281	-0.02305	-5.78993	0.00404767
49278	0.014075	-5.78993	0.00404821
49274.9	0.0532375	-5.78993	0.00404875
49271.9	0.0947	-5.78993	0.00404929
49268.8	0.138644	-5.78993	0.00404983
49265.8	0.18515	-5.78993	0.00405037
49262.7	0.234206	-5.78993	0.00405092
49259.6	0.285731	-5.78993	0.00405146
49256.6	0.339525	-5.78993	0.004052
49253.5	0.395344	-5.78993	0.00405254
49250.5	0.452863	-5.78993	0.00405308
49247.4	0.511694	-5.78993	0.00405362
49244.4	0.571425	-5.78993	0.00405416
49241.3	0.631594	-5.78992	0.0040547
49238.3	0.691731	-5.78992	0.00405524
49235.2	0.751356	-5.78992	0.00405579
49232.2	0.809987	-5.78992	0.00405633
49229.1	0.867169	-5.78992	0.00405687
49226.1	0.922444	-5.78992	0.00405741
49223	0.9754	-5.78992	0.00405795
49220	1.02564	-5.78992	0.0040585
49216.9	1.07281	-5.78992	0.00405904
49213.9	1.11657	-5.78992	0.00405958
49210.8	1.15662	-5.78992	0.00406012
49207.8	1.19269	-5.78992	0.00406067
49204.7	1.22453	-5.78992	0.00406121
49201.7	1.25189	-5.78992	0.00406175
49198.6	1.27457	-5.78992	0.00406229
49195.6	1.29233	-5.78992	0.00406284
49192.5	1.30496	-5.78992	0.00406338
49189.5	1.31226	-5.78992	0.00406392
49186.4	1.31399	-5.78991	0.00406447
49183.4	1.30995	-5.78991	0.00406501
49180.3	1.29989	-5.78991	0.00406555
49177.3	1.28361	-5.78991	0.0040661
49174.2	1.26085	-5.78991	0.00406664
49171.1	1.23141	-5.78991	0.00406718
49168.1	1.19509	-5.78991	0.00406773
49165	1.15171	-5.78991	0.00406827
49162	1.10113	-5.78991	0.00406882
49158.9	1.04324	-5.78991	0.00406936
49155.9	0.978037	-5.78991	0.00406991
49152.8	0.905544	-5.78991	0.00407045
49149.8	0.825869	-5.78991	0.004071
49146.7	0.739237	-5.78991	0.00407154
49143.7	0.64595	-5.78991	0.00407209
49140.6	0.546425	-5.78991	0.00407263
49137.6	0.441194	-5.78991	0.00407318
49134.5	0.3309	-5.78991	0.00407372
49131.5	0.216294	-5.78991	0.00407427
49128.4	0.098225	-5.7899	0.00407481
49125.4	-0.0223375	-5.7899	0.00407536
49122.3	-0.144362	-5.7899	0.0040759
49119.3	-0.266744	-5.7899	0.00407645
49116.2	-0.388306	-5.7899	0.00407699
49113.2	-0.507856	-5.7899	0.00407754
49110.1	-0.624187	-5.7899	0.00407809
49107.1	-0.736106	-5.7899	0.00407863
49104	-0.84245	-5.7899	0.00407918
49101	-0.942137	-5.7899	0.00407973
49097.9	-1.03416	-5.7899	0.00408027
49094.9	-1.11762	-5.7899	0.00408082
49091.8	-1.19177	-5.7899	0.00408137
49088.7	-1.25604	-5.7899	0.00408191
49085.7	-1.30997	-5.7899	0.00408246
49082.6	-1.35333	-5.7899	0.00408301
49079.6	-1.38609	-5.7899	0.00408356
49076.5	-1.4084	-5.7899	0.0040841
49073.5	-1.42062	-5.78989	0.00408465
49070.4	-1.42331	-5.78989	0.0040852
49067.4	-1.4172	-5.78989	0.00408575
49064.3	-1.40322	-5.78989	0.00408629
49061.3	-1.38242	-5.78989	0.00408684
49058.2	-1.35601	-5.78989	0.00408739
49055.2	-1.32531	-5.78989	0.00408794
49052.1	-1.29167	-5.78989	0.00408849
49049.1	-1.25656	-5.78989	0.00408903
49046	-1.22139	-5.78989	0.00408958
49043	-1.18761	-5.78989	0.00409013
49039.9	-1.15659	-5.78989	0.00409068
49036.9	-1.12962	-5.78989	0.00409123
49033.8	-1.10789	-5.78989	0.00409178
49030.8	-1.09242	-5.78989	0.00409233
49027.7	-1.0841	-5.78989	0.00409288
49024.7	-1.08362	-5.78989	0.00409343
49021.6	-1.09148	-5.78989	0.00409398
49018.6	-1.10796	-5.78988	0.00409453
49015.5	-1.13312	-5.78988	0.00409508
49012.5	-1.16683	-5.78988	0.00409562
49009.4	-1.20872	-5.78988	0.00409617
49006.4	-1.25823	-5.78988	0.00409672
49003.3	-1.31462	-5.78988	0.00409727
49000.2	-1.37696	-5.78988	0.00409783
48997.2	-1.44419	-5.78988	0.00409838
48994.1	-1.51512	-5.78988	0.00409893
48991.1	-1.58847	-5.78988	0.00409948
48988	-1.66291	-5.78988	0.00410003
48985	-1.73705	-5.78988	0.00410058
48981.9	-1.80951	-5.78988	0.00410113
48978.9	-1.87896	-5.78988	0.00410168
48975.8	-1.9441	-5.78988	0.00410223
48972.8	-2.00373	-5.78988	0.00410278
48969.7	-2.05676	-5.78988	0.00410333
48966.7	-2.10225	-5.78988	0.00410389
48963.6	-2.13939	-5.78987	0.00410444
48960.6	-2.16754	-5.78987	0.00410499
48957.5	-2.18625	-5.78987	0.00410554
48954.5	-2.19526	-5.78987	0.00410609
48951.4	-2.19447	-5.78987	0.00410665
48948.4	-2.18399	-5.78987	0.0041072
48945.3	-2.1641	-5.78987	0.00410775
48942.3	-2.13525	-5.78987	0.0041083
48939.2	-2.09804	-5.78987	0.00410885
48936.2	-2.05323	-5.78987	0.00410941
48933.1	-2.00168	-5.78987	0.00410996
48930.1	-1.94437	-5.78987	0.00411051
48927	-1.88234	-5.78987	0.00411107
48924	-1.81673	-5.78987	0.00411162
48920.9	-1.74867	-5.78987	0.00411217
48917.9	-1.67935	-5.78987	0.00411273
48914.8	-1.60992	-5.78987	0.00411328
48911.7	-1.54153	-5.78987	0.00411383
48908.7	-1.47527	-5.78987	0.00411439
48905.6	-1.41219	-5.78986	0.00411494
48902.6	-1.35326	-5.78986	0.00411549
48899.5	-1.29934	-5.78986	0.00411605
48896.5	-1.25124	-5.78986	0.0041166
48893.4	-1.20961	-5.78986	0.00411716
48890.4	-1.17504	-5.78986	0.00411771
48887.3	-1.14798	-5.78986	0.00411827
48884.3	-1.12878	-5.78986	0.00411882
48881.2	-1.11764	-5.78986	0.00411937
48878.2	-1.1147	-5.78986	0.00411993
48875.1	-1.11995	-5.78986	0.00412048
48872.1	-1.13329	-5.78986	0.00412104
48869	-1.1545	-5.78986	0.00412159
48866	-1.1833	-5.78986	0.00412215
48862.9	-1.21927	-5.78986	0.00412271
48859.9	-1.26197	-5.78986	0.00412326
48856.8	-1.31082	-5.78986	0.00412382
48853.8	-1.36522	-5.78986	0.00412437
48850.7	-1.42448	-5.78985	0.00412493
48847.7	-1.48787	-5.78985	0.00412548
48844.6	-1.5546	-5.78985	0.00412604
48841.6	-1.62387	-5.78985	0.0041266
48838.5	-1.69483	-5.78985	0.00412715
48835.5	-1.76661	-5.78985	0.00412771
48832.4	-1.83833	-5.78985	0.00412827
48829.4	-1.90911	-5.78985	0.00412882
48826.3	-1.97809	-5.78985	0.00412938
48823.2	-2.04441	-5.78985	0.00412994
48820.2	-2.10725	-5.78985	0.00413049
48817.1	-2.16582	-5.78985	0.00413105
48814.1	-2.21939	-5.78985	0.00413161
48811	-2.2673	-5.78985	0.00413216
48808	-2.30895	-5.78985	0.00413272
48804.9	-2.34382	-5.78985	0.00413328
48801.9	-2.37153	-5.78985	0.00413384
48798.8	-2.39174	-5.78984	0.0041344
48795.8	-2.40426	-5.78984	0.00413495
48792.7	-2.40902	-5.78984	0.00413551
48789.7	-2.40606	-5.78984	0.00413607
48786.6	-2.39556	-5.78984	0.00413663
48783.6	-2.37782	-5.78984	0.00413719
48780.5	-2.35326	-5.78984	0.00413774
48777.5	-2.32242	-5.78984	0.0041383
48774.4	-2.28597	-5.78984	0.00413886
48771.4	-2.24466	-5.78984	0.00413942
48768.3	-2.19933	-5.78984	0.00413998
48765.3	-2.1509	-5.78984	0.00414054
48762.2	-2.10032	-5.78984	0.0041411
48759.2	-2.04862	-5.78984	0.00414166
48756.1	-1.9968	-5.78984	0.00414222
48753.1	-1.94586	-5.78984	0.00414278
48750	-1.89676	-5.78984	0.00414334
48747	-1.85041	-5.78984	0.0041439
48743.9	-1.80764	-5.78983	0.00414446
48740.8	-1.76918	-5.78983	0.00414502
48737.8	-1.73562	-5.78983	0.00414558
48734.7	-1.70742	-5.78983	0.00414614
48731.7	-1.68489	-5.78983	0.0041467
48728.6	-1.66818	-5.78983	0.00414726
48725.6	-1.65727	-5.78983	0.00414782
48722.5	-1.65195	-5.78983	0.00414838
48719.5	-1.65186	-5.78983	0.00414894
48716.4	-1.65648	-5.78983	0.0041495
48713.4	-1.66514	-5.78983	0.00415006
48710.3	-1.67702	-5.78983	0.00415062
48707.3	-1.69121	-5.78983	0.00415118
48704.2	-1.7067	-5.78983	0.00415175
48701.2	-1.72243	-5.78983	0.00415231
48698.1	-1.7373	-5.78983	0.00415287
48695.1	-1.75022	-5.78983	0.00415343
48692	-1.76014	-5.78982	0.00415399
48689	-1.76605	-5.78982	0.00415456
48685.9	-1.76707	-5.78982	0.00415512
48682.9	-1.76244	-5.78982	0.00415568
48679.8	-1.75154	-5.78982	0.00415624
48676.8	-1.73395	-5.78982	0.0041568
48673.7	-1.70944	-5.78982	0.00415737
48670.7	-1.67797	-5.78982	0.00415793
48667.6	-1.63977	-5.78982	0.00415849
48664.6	-1.59524	-5.78982	0.00415906
48661.5	-1.54502	-5.78982	0.00415962
48658.5	-1.48996	-5.78982	0.00416018
48655.4	-1.43111	-5.78982	0.00416075
48652.3	-1.36969	-5.78982	0.00416131
48649.3	-1.30703	-5.78982	0.00416187
48646.2	-1.24462	-5.78982	0.00416244
48643.2	-1.18401	-5.78982	0.004163
48640.1	-1.12677	-5.78982	0.00416356
48637.1	-1.0745	-5.78981	0.00416413
48634	-1.02873	-5.78981	0.00416469
48631	-0.990937	-5.78981	0.00416526
48627.9	-0.96245	-5.78981	0.00416582
48624.9	-0.94445	-5.78981	0.00416638
48621.8	-0.937937	-5.78981	0.00416695
48618.8	-0.943687	-5.78981	0.00416751
48615.7	-0.962225	-5.78981	0.00416808
48612.7	-0.993837	-5.78981	0.00416864
48609.6	-1.03853	-5.78981	0.00416921
48606.6	-1.09606	-5.78981	0.00416977
48603.5	-1.16588	-5.78981	0.00417034
48600.5	-1.24725	-5.78981	0.0041709
48597.4	-1.33916	-5.78981	0.00417147
48594.4	-1.44039	-5.78981	0.00417204
48591.3	-1.54957	-5.78981	0.0041726
48588.3	-1.66518	-5.78981	0.00417317
48585.2	-1.78559	-5.78981	0.00417373
48582.2	-1.90914	-5.7898	0.0041743
48579.1	-2.03412	-5.7898	0.00417487
48576.1	-2.15889	-5.7898	0.00417543
48573	-2.28187	-5.7898	0.004176
48570	-2.40159	-5.7898	0.00417657
48566.9	-2.51674	-5.7898	0.00417713
48563.8	-2.62619	-5.7898	0.0041777
48560.8	-2.72904	-5.7898	0.00417827
48557.7	-2.82459	-5.7898	0.00417883
48554.7	-2.91242	-5.7898	0.0041794
48551.6	-2.99233	-5.7898	0.00417997
48548.6	-3.06438	-5.7898	0.00418054
48545.5	-3.12888	-5.7898	0.0041811
48542.5	-3.18631	-5.7898	0.00418167
48539.4	-3.23739	-5.7898	0.00418224
48536.4	-3.28299	-5.7898	0.00418281
48533.3	-3.32408	-5.7898	0.00418337
48530.3	-3.36173	-5.7898	0.00418394
48527.2	-3.39704	-5.78979	0.00418451
48524.2	-3.43111	-5.78979	0.00418508
48521.1	-3.46496	-5.78979	0.00418565
48518.1	-3.49955	-5.78979	0.00418622
48515	-3.53567	-5.78979	0.00418679
48512	-3.57394	-5.78979	0.00418735
48508.9	-3.61476	-5.78979	0.00418792
48505.9	-3.65831	-5.78979	0.00418849
48502.8	-3.70449	-5.78979	0.00418906
48499.8	-3.75297	-5.78979	0.00418963
48496.7	-3.80313	-5.78979	0.0041902
48493.7	-3.8541	-5.78979	0.00419077
48490.6	-3.90477	-5.78979	0.00419134
48487.6	-3.95381	-5.78979	0.00419191
48484.5	-3.99972	-5.78979	0.00419248
48481.4	-4.04086	-5.78979	0.00419305
48478.4	-4.07547	-5.78979	0.00419362
48475.3	-4.10181	-5.78978	0.00419419
48472.3	-4.11808	-5.78978	0.00419476
48469.2	-4.12261	-5.78978	0.00419533
48466.2	-4.11384	-5.78978	0.0041959
48463.1	-4.0904	-5.78978	0.00419647
48460.1	-4.05114	-5.78978	0.00419704
48457	-3.99521	-5.78978	0.00419761
48454	-3.92209	-5.78978	0.00419819
48450.9	-3.83161	-5.78978	0.00419876
48447.9	-3.72399	-5.78978	0.00419933
48444.8	-3.59986	-5.78978	0.0041999
48441.8	-3.46022	-5.78978	0.00420047
48438.7	-3.3065	-5.78978	0.00420104
48435.7	-3.1405	-5.78978	0.00420161
48432.6	-2.96436	-5.78978	0.00420219
48429.6	-2.78052	-5.78978	0.00420276
48426.5	-2.59173	-5.78978	0.00420333
48423.5	-2.40091	-5.78978	0.0042039
48420.4	-2.21112	-5.78977	0.00420448
48417.4	-2.02552	-5.78977	0.00420505
48414.3	-1.84726	-5.78977	0.00420562
