Created as New Dataset,Sample 020 By YargerLab Date Thursday, August 07 2025
cm-1,A
4000.00,0.0076
3999.00,0.0076
3998.00,0.0076
3997.00,0.0076
3996.00,0.0076
3995.00,0.0076
3994.00,0.0076
3993.00,0.0076
3992.00,0.0076
3991.00,0.0076
3990.00,0.0076
3989.00,0.0076
3988.00,0.0076
3987.00,0.0076
3986.00,0.0076
3985.00,0.0076
3984.00,0.0076
3983.00,0.0076
3982.00,0.0076
3981.00,0.0076
3980.00,0.0076
3979.00,0.0076
3978.00,0.0076
3977.00,0.0076
3976.00,0.0076
3975.00,0.0076
3974.00,0.0076
3973.00,0.0075
3972.00,0.0075
3971.00,0.0075
3970.00,0.0075
3969.00,0.0076
3968.00,0.0076
3967.00,0.0076
3966.00,0.0077
3965.00,0.0077
3964.00,0.0077
3963.00,0.0077
3962.00,0.0076
3961.00,0.0076
3960.00,0.0076
3959.00,0.0076
3958.00,0.0076
3957.00,0.0076
3956.00,0.0076
3955.00,0.0076
3954.00,0.0076
3953.00,0.0076
3952.00,0.0076
3951.00,0.0076
3950.00,0.0077
3949.00,0.0076
3948.00,0.0076
3947.00,0.0076
3946.00,0.0076
3945.00,0.0076
3944.00,0.0076
3943.00,0.0076
3942.00,0.0076
3941.00,0.0076
3940.00,0.0075
3939.00,0.0075
3938.00,0.0075
3937.00,0.0075
3936.00,0.0076
3935.00,0.0075
3934.00,0.0075
3933.00,0.0075
3932.00,0.0076
3931.00,0.0076
3930.00,0.0076
3929.00,0.0076
3928.00,0.0076
3927.00,0.0076
3926.00,0.0076
3925.00,0.0076
3924.00,0.0076
3923.00,0.0076
3922.00,0.0075
3921.00,0.0075
3920.00,0.0075
3919.00,0.0075
3918.00,0.0076
3917.00,0.0076
3916.00,0.0076
3915.00,0.0076
3914.00,0.0076
3913.00,0.0076
3912.00,0.0075
3911.00,0.0075
3910.00,0.0075
3909.00,0.0075
3908.00,0.0076
3907.00,0.0076
3906.00,0.0076
3905.00,0.0076
3904.00,0.0076
3903.00,0.0076
3902.00,0.0076
3901.00,0.0076
3900.00,0.0076
3899.00,0.0076
3898.00,0.0076
3897.00,0.0076
3896.00,0.0076
3895.00,0.0075
3894.00,0.0076
3893.00,0.0076
3892.00,0.0076
3891.00,0.0076
3890.00,0.0076
3889.00,0.0076
3888.00,0.0076
3887.00,0.0076
3886.00,0.0076
3885.00,0.0076
3884.00,0.0076
3883.00,0.0076
3882.00,0.0076
3881.00,0.0075
3880.00,0.0075
3879.00,0.0076
3878.00,0.0075
3877.00,0.0075
3876.00,0.0075
3875.00,0.0075
3874.00,0.0075
3873.00,0.0075
3872.00,0.0075
3871.00,0.0075
3870.00,0.0075
3869.00,0.0075
3868.00,0.0075
3867.00,0.0075
3866.00,0.0075
3865.00,0.0075
3864.00,0.0075
3863.00,0.0075
3862.00,0.0075
3861.00,0.0075
3860.00,0.0075
3859.00,0.0075
3858.00,0.0075
3857.00,0.0076
3856.00,0.0076
3855.00,0.0075
3854.00,0.0075
3853.00,0.0075
3852.00,0.0075
3851.00,0.0075
3850.00,0.0075
3849.00,0.0075
3848.00,0.0075
3847.00,0.0075
3846.00,0.0075
3845.00,0.0075
3844.00,0.0075
3843.00,0.0075
3842.00,0.0075
3841.00,0.0075
3840.00,0.0075
3839.00,0.0075
3838.00,0.0075
3837.00,0.0075
3836.00,0.0075
3835.00,0.0075
3834.00,0.0075
3833.00,0.0075
3832.00,0.0075
3831.00,0.0076
3830.00,0.0076
3829.00,0.0076
3828.00,0.0076
3827.00,0.0076
3826.00,0.0076
3825.00,0.0075
3824.00,0.0075
3823.00,0.0075
3822.00,0.0075
3821.00,0.0075
3820.00,0.0075
3819.00,0.0075
3818.00,0.0075
3817.00,0.0075
3816.00,0.0074
3815.00,0.0075
3814.00,0.0075
3813.00,0.0075
3812.00,0.0075
3811.00,0.0075
3810.00,0.0075
3809.00,0.0075
3808.00,0.0075
3807.00,0.0075
3806.00,0.0075
3805.00,0.0075
3804.00,0.0074
3803.00,0.0074
3802.00,0.0075
3801.00,0.0075
3800.00,0.0075
3799.00,0.0075
3798.00,0.0075
3797.00,0.0075
3796.00,0.0075
3795.00,0.0075
3794.00,0.0075
3793.00,0.0075
3792.00,0.0075
3791.00,0.0075
3790.00,0.0075
3789.00,0.0075
3788.00,0.0075
3787.00,0.0075
3786.00,0.0075
3785.00,0.0075
3784.00,0.0075
3783.00,0.0075
3782.00,0.0075
3781.00,0.0075
3780.00,0.0075
3779.00,0.0075
3778.00,0.0075
3777.00,0.0075
3776.00,0.0075
3775.00,0.0075
3774.00,0.0075
3773.00,0.0075
3772.00,0.0075
3771.00,0.0075
3770.00,0.0075
3769.00,0.0075
3768.00,0.0075
3767.00,0.0075
3766.00,0.0075
3765.00,0.0075
3764.00,0.0075
3763.00,0.0075
3762.00,0.0075
3761.00,0.0075
3760.00,0.0075
3759.00,0.0075
3758.00,0.0075
3757.00,0.0075
3756.00,0.0075
3755.00,0.0075
3754.00,0.0074
3753.00,0.0074
3752.00,0.0074
3751.00,0.0073
3750.00,0.0073
3749.00,0.0073
3748.00,0.0073
3747.00,0.0073
3746.00,0.0073
3745.00,0.0073
3744.00,0.0074
3743.00,0.0074
3742.00,0.0074
3741.00,0.0074
3740.00,0.0074
3739.00,0.0074
3738.00,0.0074
3737.00,0.0074
3736.00,0.0074
3735.00,0.0074
3734.00,0.0074
3733.00,0.0074
3732.00,0.0074
3731.00,0.0074
3730.00,0.0074
3729.00,0.0074
3728.00,0.0074
3727.00,0.0074
3726.00,0.0074
3725.00,0.0074
3724.00,0.0074
3723.00,0.0074
3722.00,0.0074
3721.00,0.0074
3720.00,0.0074
3719.00,0.0074
3718.00,0.0073
3717.00,0.0073
3716.00,0.0073
3715.00,0.0074
3714.00,0.0074
3713.00,0.0073
3712.00,0.0073
3711.00,0.0073
3710.00,0.0073
3709.00,0.0073
3708.00,0.0073
3707.00,0.0073
3706.00,0.0073
3705.00,0.0073
3704.00,0.0073
3703.00,0.0073
3702.00,0.0073
3701.00,0.0073
3700.00,0.0073
3699.00,0.0073
3698.00,0.0073
3697.00,0.0073
3696.00,0.0073
3695.00,0.0073
3694.00,0.0073
3693.00,0.0073
3692.00,0.0073
3691.00,0.0073
3690.00,0.0073
3689.00,0.0074
3688.00,0.0074
3687.00,0.0074
3686.00,0.0075
3685.00,0.0075
3684.00,0.0075
3683.00,0.0075
3682.00,0.0076
3681.00,0.0076
3680.00,0.0076
3679.00,0.0076
3678.00,0.0076
3677.00,0.0076
3676.00,0.0076
3675.00,0.0076
3674.00,0.0076
3673.00,0.0076
3672.00,0.0076
3671.00,0.0076
3670.00,0.0076
3669.00,0.0077
3668.00,0.0077
3667.00,0.0077
3666.00,0.0077
3665.00,0.0077
3664.00,0.0077
3663.00,0.0077
3662.00,0.0077
3661.00,0.0078
3660.00,0.0078
3659.00,0.0078
3658.00,0.0078
3657.00,0.0078
3656.00,0.0078
3655.00,0.0078
3654.00,0.0078
3653.00,0.0079
3652.00,0.0079
3651.00,0.0079
3650.00,0.0079
3649.00,0.0079
3648.00,0.0080
3647.00,0.0080
3646.00,0.0080
3645.00,0.0080
3644.00,0.0081
3643.00,0.0081
3642.00,0.0082
3641.00,0.0082
3640.00,0.0083
3639.00,0.0083
3638.00,0.0083
3637.00,0.0083
3636.00,0.0083
3635.00,0.0083
3634.00,0.0084
3633.00,0.0084
3632.00,0.0084
3631.00,0.0083
3630.00,0.0083
3629.00,0.0083
3628.00,0.0084
3627.00,0.0084
3626.00,0.0084
3625.00,0.0085
3624.00,0.0085
3623.00,0.0086
3622.00,0.0086
3621.00,0.0086
3620.00,0.0087
3619.00,0.0087
3618.00,0.0088
3617.00,0.0088
3616.00,0.0088
3615.00,0.0089
3614.00,0.0089
3613.00,0.0089
3612.00,0.0090
3611.00,0.0090
3610.00,0.0091
3609.00,0.0091
3608.00,0.0091
3607.00,0.0092
3606.00,0.0092
3605.00,0.0092
3604.00,0.0093
3603.00,0.0093
3602.00,0.0094
3601.00,0.0094
3600.00,0.0095
3599.00,0.0096
3598.00,0.0096
3597.00,0.0097
3596.00,0.0097
3595.00,0.0097
3594.00,0.0098
3593.00,0.0098
3592.00,0.0099
3591.00,0.0099
3590.00,0.0099
3589.00,0.0100
3588.00,0.0100
3587.00,0.0101
3586.00,0.0102
3585.00,0.0103
3584.00,0.0103
3583.00,0.0104
3582.00,0.0104
3581.00,0.0105
3580.00,0.0105
3579.00,0.0106
3578.00,0.0107
3577.00,0.0107
3576.00,0.0108
3575.00,0.0108
3574.00,0.0109
3573.00,0.0110
3572.00,0.0110
3571.00,0.0111
3570.00,0.0111
3569.00,0.0112
3568.00,0.0113
3567.00,0.0114
3566.00,0.0114
3565.00,0.0114
3564.00,0.0114
3563.00,0.0115
3562.00,0.0115
3561.00,0.0116
3560.00,0.0117
3559.00,0.0117
3558.00,0.0118
3557.00,0.0118
3556.00,0.0119
3555.00,0.0119
3554.00,0.0119
3553.00,0.0120
3552.00,0.0120
3551.00,0.0121
3550.00,0.0122
3549.00,0.0123
3548.00,0.0123
3547.00,0.0124
3546.00,0.0124
3545.00,0.0125
3544.00,0.0125
3543.00,0.0125
3542.00,0.0126
3541.00,0.0126
3540.00,0.0127
3539.00,0.0127
3538.00,0.0127
3537.00,0.0128
3536.00,0.0128
3535.00,0.0129
3534.00,0.0129
3533.00,0.0129
3532.00,0.0129
3531.00,0.0130
3530.00,0.0130
3529.00,0.0131
3528.00,0.0131
3527.00,0.0131
3526.00,0.0132
3525.00,0.0132
3524.00,0.0132
3523.00,0.0133
3522.00,0.0133
3521.00,0.0133
3520.00,0.0133
3519.00,0.0133
3518.00,0.0134
3517.00,0.0134
3516.00,0.0135
3515.00,0.0135
3514.00,0.0136
3513.00,0.0136
3512.00,0.0136
3511.00,0.0137
3510.00,0.0137
3509.00,0.0137
3508.00,0.0137
3507.00,0.0137
3506.00,0.0138
3505.00,0.0138
3504.00,0.0139
3503.00,0.0139
3502.00,0.0139
3501.00,0.0139
3500.00,0.0139
3499.00,0.0140
3498.00,0.0140
3497.00,0.0140
3496.00,0.0141
3495.00,0.0141
3494.00,0.0141
3493.00,0.0141
3492.00,0.0142
3491.00,0.0142
3490.00,0.0142
3489.00,0.0143
3488.00,0.0143
3487.00,0.0143
3486.00,0.0143
3485.00,0.0144
3484.00,0.0144
3483.00,0.0144
3482.00,0.0144
3481.00,0.0145
3480.00,0.0145
3479.00,0.0145
3478.00,0.0145
3477.00,0.0146
3476.00,0.0146
3475.00,0.0146
3474.00,0.0147
3473.00,0.0147
3472.00,0.0147
3471.00,0.0147
3470.00,0.0147
3469.00,0.0147
3468.00,0.0147
3467.00,0.0148
3466.00,0.0148
3465.00,0.0148
3464.00,0.0148
3463.00,0.0149
3462.00,0.0149
3461.00,0.0149
3460.00,0.0149
3459.00,0.0149
3458.00,0.0150
3457.00,0.0150
3456.00,0.0150
3455.00,0.0150
3454.00,0.0150
3453.00,0.0150
3452.00,0.0150
3451.00,0.0150
3450.00,0.0150
3449.00,0.0150
3448.00,0.0151
3447.00,0.0151
3446.00,0.0152
3445.00,0.0152
3444.00,0.0152
3443.00,0.0151
3442.00,0.0151
3441.00,0.0151
3440.00,0.0151
3439.00,0.0151
3438.00,0.0151
3437.00,0.0151
3436.00,0.0151
3435.00,0.0151
3434.00,0.0151
3433.00,0.0151
3432.00,0.0152
3431.00,0.0152
3430.00,0.0152
3429.00,0.0152
3428.00,0.0152
3427.00,0.0152
3426.00,0.0152
3425.00,0.0152
3424.00,0.0152
3423.00,0.0152
3422.00,0.0152
3421.00,0.0152
3420.00,0.0152
3419.00,0.0152
3418.00,0.0152
3417.00,0.0152
3416.00,0.0151
3415.00,0.0151
3414.00,0.0152
3413.00,0.0152
3412.00,0.0152
3411.00,0.0152
3410.00,0.0152
3409.00,0.0152
3408.00,0.0152
3407.00,0.0151
3406.00,0.0151
3405.00,0.0151
3404.00,0.0151
3403.00,0.0151
3402.00,0.0151
3401.00,0.0151
3400.00,0.0151
3399.00,0.0151
3398.00,0.0151
3397.00,0.0151
3396.00,0.0151
3395.00,0.0151
3394.00,0.0152
3393.00,0.0152
3392.00,0.0152
3391.00,0.0152
3390.00,0.0152
3389.00,0.0152
3388.00,0.0152
3387.00,0.0152
3386.00,0.0152
3385.00,0.0151
3384.00,0.0151
3383.00,0.0151
3382.00,0.0151
3381.00,0.0151
3380.00,0.0151
3379.00,0.0151
3378.00,0.0151
3377.00,0.0152
3376.00,0.0152
3375.00,0.0152
3374.00,0.0152
3373.00,0.0152
3372.00,0.0151
3371.00,0.0151
3370.00,0.0150
3369.00,0.0150
3368.00,0.0150
3367.00,0.0151
3366.00,0.0151
3365.00,0.0152
3364.00,0.0152
3363.00,0.0152
3362.00,0.0152
3361.00,0.0152
3360.00,0.0152
3359.00,0.0152
3358.00,0.0152
3357.00,0.0153
3356.00,0.0153
3355.00,0.0153
3354.00,0.0153
3353.00,0.0152
3352.00,0.0152
3351.00,0.0152
3350.00,0.0152
3349.00,0.0152
3348.00,0.0153
3347.00,0.0153
3346.00,0.0153
3345.00,0.0153
3344.00,0.0153
3343.00,0.0153
3342.00,0.0153
3341.00,0.0153
3340.00,0.0152
3339.00,0.0152
3338.00,0.0152
3337.00,0.0152
3336.00,0.0152
3335.00,0.0153
3334.00,0.0153
3333.00,0.0153
3332.00,0.0153
3331.00,0.0154
3330.00,0.0153
3329.00,0.0153
3328.00,0.0153
3327.00,0.0152
3326.00,0.0152
3325.00,0.0152
3324.00,0.0152
3323.00,0.0152
3322.00,0.0153
3321.00,0.0153
3320.00,0.0153
3319.00,0.0154
3318.00,0.0154
3317.00,0.0154
3316.00,0.0154
3315.00,0.0153
3314.00,0.0153
3313.00,0.0153
3312.00,0.0153
3311.00,0.0153
3310.00,0.0152
3309.00,0.0151
3308.00,0.0151
3307.00,0.0151
3306.00,0.0151
3305.00,0.0152
3304.00,0.0152
3303.00,0.0153
3302.00,0.0154
3301.00,0.0154
3300.00,0.0154
3299.00,0.0154
3298.00,0.0153
3297.00,0.0153
3296.00,0.0153
3295.00,0.0153
3294.00,0.0153
3293.00,0.0153
3292.00,0.0153
3291.00,0.0153
3290.00,0.0154
3289.00,0.0154
3288.00,0.0154
3287.00,0.0154
3286.00,0.0154
3285.00,0.0154
3284.00,0.0154
3283.00,0.0154
3282.00,0.0154
3281.00,0.0154
3280.00,0.0154
3279.00,0.0154
3278.00,0.0154
3277.00,0.0154
3276.00,0.0154
3275.00,0.0154
3274.00,0.0154
3273.00,0.0153
3272.00,0.0153
3271.00,0.0153
3270.00,0.0154
3269.00,0.0154
3268.00,0.0154
3267.00,0.0154
3266.00,0.0154
3265.00,0.0154
3264.00,0.0153
3263.00,0.0153
3262.00,0.0154
3261.00,0.0154
3260.00,0.0154
3259.00,0.0154
3258.00,0.0153
3257.00,0.0153
3256.00,0.0153
3255.00,0.0153
3254.00,0.0153
3253.00,0.0153
3252.00,0.0153
3251.00,0.0153
3250.00,0.0152
3249.00,0.0152
3248.00,0.0152
3247.00,0.0152
3246.00,0.0152
3245.00,0.0152
3244.00,0.0152
3243.00,0.0152
3242.00,0.0152
3241.00,0.0152
3240.00,0.0153
3239.00,0.0153
3238.00,0.0153
3237.00,0.0152
3236.00,0.0152
3235.00,0.0152
3234.00,0.0151
3233.00,0.0151
3232.00,0.0151
3231.00,0.0151
3230.00,0.0151
3229.00,0.0151
3228.00,0.0151
3227.00,0.0151
3226.00,0.0151
3225.00,0.0151
3224.00,0.0151
3223.00,0.0151
3222.00,0.0151
3221.00,0.0150
3220.00,0.0150
3219.00,0.0150
3218.00,0.0150
3217.00,0.0149
3216.00,0.0149
3215.00,0.0149
3214.00,0.0149
3213.00,0.0149
3212.00,0.0149
3211.00,0.0149
3210.00,0.0149
3209.00,0.0149
3208.00,0.0148
3207.00,0.0148
3206.00,0.0148
3205.00,0.0148
3204.00,0.0148
3203.00,0.0147
3202.00,0.0147
3201.00,0.0147
3200.00,0.0147
3199.00,0.0147
3198.00,0.0146
3197.00,0.0146
3196.00,0.0146
3195.00,0.0146
3194.00,0.0146
3193.00,0.0146
3192.00,0.0146
3191.00,0.0146
3190.00,0.0145
3189.00,0.0145
3188.00,0.0145
3187.00,0.0145
3186.00,0.0145
3185.00,0.0145
3184.00,0.0145
3183.00,0.0145
3182.00,0.0145
3181.00,0.0144
3180.00,0.0144
3179.00,0.0144
3178.00,0.0144
3177.00,0.0144
3176.00,0.0144
3175.00,0.0144
3174.00,0.0144
3173.00,0.0144
3172.00,0.0143
3171.00,0.0143
3170.00,0.0143
3169.00,0.0143
3168.00,0.0143
3167.00,0.0143
3166.00,0.0142
3165.00,0.0142
3164.00,0.0142
3163.00,0.0142
3162.00,0.0142
3161.00,0.0142
3160.00,0.0141
3159.00,0.0141
3158.00,0.0141
3157.00,0.0141
3156.00,0.0141
3155.00,0.0141
3154.00,0.0141
3153.00,0.0140
3152.00,0.0140
3151.00,0.0140
3150.00,0.0140
3149.00,0.0140
3148.00,0.0140
3147.00,0.0140
3146.00,0.0139
3145.00,0.0139
3144.00,0.0139
3143.00,0.0138
3142.00,0.0138
3141.00,0.0138
3140.00,0.0139
3139.00,0.0138
3138.00,0.0138
3137.00,0.0138
3136.00,0.0138
3135.00,0.0137
3134.00,0.0137
3133.00,0.0137
3132.00,0.0137
3131.00,0.0137
3130.00,0.0137
3129.00,0.0137
3128.00,0.0137
3127.00,0.0137
3126.00,0.0137
3125.00,0.0137
3124.00,0.0136
3123.00,0.0136
3122.00,0.0136
3121.00,0.0136
3120.00,0.0136
3119.00,0.0136
3118.00,0.0136
3117.00,0.0136
3116.00,0.0136
3115.00,0.0136
3114.00,0.0136
3113.00,0.0135
3112.00,0.0135
3111.00,0.0135
3110.00,0.0135
3109.00,0.0135
3108.00,0.0135
3107.00,0.0135
3106.00,0.0134
3105.00,0.0134
3104.00,0.0134
3103.00,0.0133
3102.00,0.0133
3101.00,0.0133
3100.00,0.0133
3099.00,0.0133
3098.00,0.0132
3097.00,0.0132
3096.00,0.0132
3095.00,0.0132
3094.00,0.0132
3093.00,0.0132
3092.00,0.0132
3091.00,0.0132
3090.00,0.0132
3089.00,0.0132
3088.00,0.0132
3087.00,0.0132
3086.00,0.0132
3085.00,0.0132
3084.00,0.0132
3083.00,0.0132
3082.00,0.0132
3081.00,0.0132
3080.00,0.0132
3079.00,0.0132
3078.00,0.0132
3077.00,0.0132
3076.00,0.0132
3075.00,0.0132
3074.00,0.0132
3073.00,0.0132
3072.00,0.0132
3071.00,0.0132
3070.00,0.0132
3069.00,0.0131
3068.00,0.0131
3067.00,0.0131
3066.00,0.0131
3065.00,0.0130
3064.00,0.0130
3063.00,0.0130
3062.00,0.0130
3061.00,0.0130
3060.00,0.0129
3059.00,0.0129
3058.00,0.0129
3057.00,0.0128
3056.00,0.0128
3055.00,0.0128
3054.00,0.0128
3053.00,0.0128
3052.00,0.0128
3051.00,0.0128
3050.00,0.0127
3049.00,0.0127
3048.00,0.0127
3047.00,0.0127
3046.00,0.0127
3045.00,0.0127
3044.00,0.0127
3043.00,0.0127
3042.00,0.0126
3041.00,0.0126
3040.00,0.0126
3039.00,0.0126
3038.00,0.0126
3037.00,0.0126
3036.00,0.0126
3035.00,0.0126
3034.00,0.0126
3033.00,0.0125
3032.00,0.0125
3031.00,0.0125
3030.00,0.0125
3029.00,0.0125
3028.00,0.0125
3027.00,0.0125
3026.00,0.0125
3025.00,0.0125
3024.00,0.0124
3023.00,0.0124
3022.00,0.0124
3021.00,0.0124
3020.00,0.0124
3019.00,0.0125
3018.00,0.0125
3017.00,0.0125
3016.00,0.0125
3015.00,0.0126
3014.00,0.0126
3013.00,0.0127
3012.00,0.0127
3011.00,0.0128
3010.00,0.0129
3009.00,0.0130
3008.00,0.0131
3007.00,0.0132
3006.00,0.0134
3005.00,0.0135
3004.00,0.0137
3003.00,0.0139
3002.00,0.0142
3001.00,0.0144
3000.00,0.0147
2999.00,0.0149
2998.00,0.0152
2997.00,0.0155
2996.00,0.0159
2995.00,0.0162
2994.00,0.0166
2993.00,0.0170
2992.00,0.0173
2991.00,0.0177
2990.00,0.0181
2989.00,0.0185
2988.00,0.0190
2987.00,0.0194
2986.00,0.0198
2985.00,0.0202
2984.00,0.0205
2983.00,0.0209
2982.00,0.0212
2981.00,0.0215
2980.00,0.0218
2979.00,0.0220
2978.00,0.0223
2977.00,0.0224
2976.00,0.0226
2975.00,0.0227
2974.00,0.0229
2973.00,0.0231
2972.00,0.0232
2971.00,0.0234
2970.00,0.0236
2969.00,0.0237
2968.00,0.0239
2967.00,0.0240
2966.00,0.0242
2965.00,0.0244
2964.00,0.0247
2963.00,0.0249
2962.00,0.0252
2961.00,0.0254
2960.00,0.0257
2959.00,0.0259
2958.00,0.0262
2957.00,0.0264
2956.00,0.0265
2955.00,0.0267
2954.00,0.0268
2953.00,0.0269
2952.00,0.0270
2951.00,0.0270
2950.00,0.0270
2949.00,0.0270
2948.00,0.0270
2947.00,0.0269
2946.00,0.0268
2945.00,0.0267
2944.00,0.0267
2943.00,0.0266
2942.00,0.0266
2941.00,0.0265
2940.00,0.0265
2939.00,0.0265
2938.00,0.0266
2937.00,0.0266
2936.00,0.0267
2935.00,0.0268
2934.00,0.0269
2933.00,0.0270
2932.00,0.0271
2931.00,0.0272
2930.00,0.0273
2929.00,0.0275
2928.00,0.0276
2927.00,0.0277
2926.00,0.0277
2925.00,0.0278
2924.00,0.0278
2923.00,0.0278
2922.00,0.0278
2921.00,0.0277
2920.00,0.0276
2919.00,0.0275
2918.00,0.0274
2917.00,0.0272
2916.00,0.0270
2915.00,0.0268
2914.00,0.0265
2913.00,0.0263
2912.00,0.0260
2911.00,0.0257
2910.00,0.0254
2909.00,0.0250
2908.00,0.0247
2907.00,0.0245
2906.00,0.0242
2905.00,0.0240
2904.00,0.0238
2903.00,0.0236
2902.00,0.0234
2901.00,0.0233
2900.00,0.0233
2899.00,0.0232
2898.00,0.0232
2897.00,0.0231
2896.00,0.0231
2895.00,0.0231
2894.00,0.0232
2893.00,0.0232
2892.00,0.0232
2891.00,0.0232
2890.00,0.0232
2889.00,0.0232
2888.00,0.0232
2887.00,0.0232
2886.00,0.0231
2885.00,0.0231
2884.00,0.0231
2883.00,0.0232
2882.00,0.0232
2881.00,0.0232
2880.00,0.0232
2879.00,0.0233
2878.00,0.0233
2877.00,0.0234
2876.00,0.0235
2875.00,0.0235
2874.00,0.0236
2873.00,0.0236
2872.00,0.0237
2871.00,0.0237
2870.00,0.0237
2869.00,0.0236
2868.00,0.0236
2867.00,0.0235
2866.00,0.0234
2865.00,0.0233
2864.00,0.0232
2863.00,0.0231
2862.00,0.0231
2861.00,0.0230
2860.00,0.0230
2859.00,0.0229
2858.00,0.0228
2857.00,0.0227
2856.00,0.0225
2855.00,0.0222
2854.00,0.0219
2853.00,0.0216
2852.00,0.0213
2851.00,0.0210
2850.00,0.0207
2849.00,0.0203
2848.00,0.0200
2847.00,0.0197
2846.00,0.0194
2845.00,0.0191
2844.00,0.0187
2843.00,0.0184
2842.00,0.0181
2841.00,0.0178
2840.00,0.0175
2839.00,0.0172
2838.00,0.0170
2837.00,0.0168
2836.00,0.0166
2835.00,0.0164
2834.00,0.0162
2833.00,0.0161
2832.00,0.0159
2831.00,0.0157
2830.00,0.0155
2829.00,0.0153
2828.00,0.0152
2827.00,0.0150
2826.00,0.0149
2825.00,0.0147
2824.00,0.0145
2823.00,0.0144
2822.00,0.0143
2821.00,0.0141
2820.00,0.0140
2819.00,0.0139
2818.00,0.0138
2817.00,0.0137
2816.00,0.0136
2815.00,0.0135
2814.00,0.0134
2813.00,0.0133
2812.00,0.0132
2811.00,0.0131
2810.00,0.0131
2809.00,0.0130
2808.00,0.0129
2807.00,0.0129
2806.00,0.0128
2805.00,0.0127
2804.00,0.0127
2803.00,0.0126
2802.00,0.0125
2801.00,0.0125
2800.00,0.0124
2799.00,0.0124
2798.00,0.0123
2797.00,0.0123
2796.00,0.0122
2795.00,0.0122
2794.00,0.0122
2793.00,0.0121
2792.00,0.0121
2791.00,0.0121
2790.00,0.0120
2789.00,0.0120
2788.00,0.0119
2787.00,0.0119
2786.00,0.0119
2785.00,0.0118
2784.00,0.0118
2783.00,0.0118
2782.00,0.0117
2781.00,0.0117
2780.00,0.0117
2779.00,0.0116
2778.00,0.0116
2777.00,0.0116
2776.00,0.0116
2775.00,0.0115
2774.00,0.0115
2773.00,0.0115
2772.00,0.0115
2771.00,0.0114
2770.00,0.0114
2769.00,0.0114
2768.00,0.0114
2767.00,0.0113
2766.00,0.0113
2765.00,0.0113
2764.00,0.0113
2763.00,0.0113
2762.00,0.0113
2761.00,0.0113
2760.00,0.0113
2759.00,0.0113
2758.00,0.0112
2757.00,0.0112
2756.00,0.0112
2755.00,0.0113
2754.00,0.0112
2753.00,0.0112
2752.00,0.0112
2751.00,0.0112
2750.00,0.0112
2749.00,0.0112
2748.00,0.0112
2747.00,0.0113
2746.00,0.0113
2745.00,0.0113
2744.00,0.0113
2743.00,0.0113
2742.00,0.0113
2741.00,0.0113
2740.00,0.0113
2739.00,0.0112
2738.00,0.0112
2737.00,0.0112
2736.00,0.0113
2735.00,0.0113
2734.00,0.0113
2733.00,0.0112
2732.00,0.0112
2731.00,0.0112
2730.00,0.0112
2729.00,0.0112
2728.00,0.0112
2727.00,0.0112
2726.00,0.0111
2725.00,0.0111
2724.00,0.0111
2723.00,0.0111
2722.00,0.0111
2721.00,0.0110
2720.00,0.0110
2719.00,0.0110
2718.00,0.0110
2717.00,0.0110
2716.00,0.0110
2715.00,0.0110
2714.00,0.0110
2713.00,0.0110
2712.00,0.0110
2711.00,0.0110
2710.00,0.0110
2709.00,0.0110
2708.00,0.0109
2707.00,0.0109
2706.00,0.0109
2705.00,0.0108
2704.00,0.0108
2703.00,0.0108
2702.00,0.0108
2701.00,0.0108
2700.00,0.0108
2699.00,0.0108
2698.00,0.0108
2697.00,0.0108
2696.00,0.0107
2695.00,0.0107
2694.00,0.0107
2693.00,0.0107
2692.00,0.0107
2691.00,0.0107
2690.00,0.0106
2689.00,0.0106
2688.00,0.0106
2687.00,0.0106
2686.00,0.0106
2685.00,0.0106
2684.00,0.0106
2683.00,0.0105
2682.00,0.0105
2681.00,0.0105
2680.00,0.0105
2679.00,0.0105
2678.00,0.0105
2677.00,0.0105
2676.00,0.0105
2675.00,0.0105
2674.00,0.0105
2673.00,0.0105
2672.00,0.0105
2671.00,0.0104
2670.00,0.0104
2669.00,0.0104
2668.00,0.0104
2667.00,0.0105
2666.00,0.0105
2665.00,0.0105
2664.00,0.0106
2663.00,0.0106
2662.00,0.0106
2661.00,0.0106
2660.00,0.0107
2659.00,0.0107
2658.00,0.0107
2657.00,0.0107
2656.00,0.0107
2655.00,0.0107
2654.00,0.0107
2653.00,0.0107
2652.00,0.0107
2651.00,0.0107
2650.00,0.0106
2649.00,0.0106
2648.00,0.0106
2647.00,0.0106
2646.00,0.0106
2645.00,0.0106
2644.00,0.0106
2643.00,0.0106
2642.00,0.0105
2641.00,0.0105
2640.00,0.0105
2639.00,0.0105
2638.00,0.0105
2637.00,0.0104
2636.00,0.0104
2635.00,0.0104
2634.00,0.0104
2633.00,0.0104
2632.00,0.0104
2631.00,0.0104
2630.00,0.0104
2629.00,0.0103
2628.00,0.0103
2627.00,0.0103
2626.00,0.0103
2625.00,0.0103
2624.00,0.0103
2623.00,0.0102
2622.00,0.0102
2621.00,0.0102
2620.00,0.0102
2619.00,0.0102
2618.00,0.0102
2617.00,0.0102
2616.00,0.0102
2615.00,0.0102
2614.00,0.0102
2613.00,0.0101
2612.00,0.0101
2611.00,0.0101
2610.00,0.0101
2609.00,0.0101
2608.00,0.0100
2607.00,0.0100
2606.00,0.0101
2605.00,0.0101
2604.00,0.0100
2603.00,0.0100
2602.00,0.0099
2601.00,0.0099
2600.00,0.0099
2599.00,0.0099
2598.00,0.0099
2597.00,0.0099
2596.00,0.0099
2595.00,0.0099
2594.00,0.0099
2593.00,0.0099
2592.00,0.0099
2591.00,0.0098
2590.00,0.0098
2589.00,0.0098
2588.00,0.0098
2587.00,0.0098
2586.00,0.0098
2585.00,0.0098
2584.00,0.0098
2583.00,0.0098
2582.00,0.0098
2581.00,0.0098
2580.00,0.0098
2579.00,0.0098
2578.00,0.0098
2577.00,0.0098
2576.00,0.0098
2575.00,0.0098
2574.00,0.0097
2573.00,0.0097
2572.00,0.0097
2571.00,0.0097
2570.00,0.0097
2569.00,0.0097
2568.00,0.0097
2567.00,0.0097
2566.00,0.0096
2565.00,0.0096
2564.00,0.0096
2563.00,0.0096
2562.00,0.0096
2561.00,0.0095
2560.00,0.0095
2559.00,0.0095
2558.00,0.0095
2557.00,0.0095
2556.00,0.0095
2555.00,0.0095
2554.00,0.0094
2553.00,0.0094
2552.00,0.0095
2551.00,0.0095
2550.00,0.0095
2549.00,0.0095
2548.00,0.0095
2547.00,0.0094
2546.00,0.0094
2545.00,0.0094
2544.00,0.0094
2543.00,0.0093
2542.00,0.0093
2541.00,0.0093
2540.00,0.0093
2539.00,0.0093
2538.00,0.0092
2537.00,0.0092
2536.00,0.0092
2535.00,0.0092
2534.00,0.0092
2533.00,0.0092
2532.00,0.0092
2531.00,0.0092
2530.00,0.0092
2529.00,0.0092
2528.00,0.0092
2527.00,0.0091
2526.00,0.0090
2525.00,0.0090
2524.00,0.0090
2523.00,0.0090
2522.00,0.0090
2521.00,0.0090
2520.00,0.0090
2519.00,0.0090
2518.00,0.0090
2517.00,0.0089
2516.00,0.0089
2515.00,0.0089
2514.00,0.0088
2513.00,0.0089
2512.00,0.0089
2511.00,0.0089
2510.00,0.0089
2509.00,0.0089
2508.00,0.0089
2507.00,0.0088
2506.00,0.0088
2505.00,0.0088
2504.00,0.0088
2503.00,0.0088
2502.00,0.0088
2501.00,0.0088
2500.00,0.0088
2499.00,0.0088
2498.00,0.0088
2497.00,0.0087
2496.00,0.0087
2495.00,0.0087
2494.00,0.0087
2493.00,0.0087
2492.00,0.0087
2491.00,0.0087
2490.00,0.0087
2489.00,0.0087
2488.00,0.0087
2487.00,0.0087
2486.00,0.0087
2485.00,0.0087
2484.00,0.0087
2483.00,0.0086
2482.00,0.0086
2481.00,0.0086
2480.00,0.0086
2479.00,0.0086
2478.00,0.0086
2477.00,0.0086
2476.00,0.0086
2475.00,0.0086
2474.00,0.0086
2473.00,0.0086
2472.00,0.0086
2471.00,0.0086
2470.00,0.0086
2469.00,0.0086
2468.00,0.0086
2467.00,0.0086
2466.00,0.0086
2465.00,0.0086
2464.00,0.0087
2463.00,0.0087
2462.00,0.0087
2461.00,0.0087
2460.00,0.0087
2459.00,0.0087
2458.00,0.0087
2457.00,0.0087
2456.00,0.0087
2455.00,0.0087
2454.00,0.0087
2453.00,0.0086
2452.00,0.0086
2451.00,0.0086
2450.00,0.0086
2449.00,0.0086
2448.00,0.0086
2447.00,0.0086
2446.00,0.0086
2445.00,0.0086
2444.00,0.0085
2443.00,0.0085
2442.00,0.0085
2441.00,0.0085
2440.00,0.0085
2439.00,0.0085
2438.00,0.0085
2437.00,0.0085
2436.00,0.0085
2435.00,0.0085
2434.00,0.0085
2433.00,0.0085
2432.00,0.0085
2431.00,0.0085
2430.00,0.0085
2429.00,0.0084
2428.00,0.0084
2427.00,0.0084
2426.00,0.0084
2425.00,0.0084
2424.00,0.0085
2423.00,0.0085
2422.00,0.0085
2421.00,0.0085
2420.00,0.0085
2419.00,0.0084
2418.00,0.0084
2417.00,0.0084
2416.00,0.0084
2415.00,0.0084
2414.00,0.0084
2413.00,0.0084
2412.00,0.0084
2411.00,0.0084
2410.00,0.0084
2409.00,0.0083
2408.00,0.0083
2407.00,0.0082
2406.00,0.0082
2405.00,0.0082
2404.00,0.0082
2403.00,0.0082
2402.00,0.0082
2401.00,0.0082
2400.00,0.0082
2399.00,0.0082
2398.00,0.0082
2397.00,0.0082
2396.00,0.0082
2395.00,0.0082
2394.00,0.0082
2393.00,0.0082
2392.00,0.0082
2391.00,0.0082
2390.00,0.0082
2389.00,0.0081
2388.00,0.0081
2387.00,0.0081
2386.00,0.0080
2385.00,0.0080
2384.00,0.0080
2383.00,0.0080
2382.00,0.0079
2381.00,0.0079
2380.00,0.0079
2379.00,0.0079
2378.00,0.0079
2377.00,0.0079
2376.00,0.0079
2375.00,0.0079
2374.00,0.0079
2373.00,0.0079
2372.00,0.0079
2371.00,0.0079
2370.00,0.0079
2369.00,0.0079
2368.00,0.0078
2367.00,0.0078
2366.00,0.0079
2365.00,0.0079
2364.00,0.0079
2363.00,0.0079
2362.00,0.0079
2361.00,0.0079
2360.00,0.0080
2359.00,0.0080
2358.00,0.0080
2357.00,0.0080
2356.00,0.0080
2355.00,0.0080
2354.00,0.0079
2353.00,0.0079
2352.00,0.0078
2351.00,0.0078
2350.00,0.0078
2349.00,0.0080
2348.00,0.0082
2347.00,0.0083
2346.00,0.0083
2345.00,0.0082
2344.00,0.0082
2343.00,0.0082
2342.00,0.0082
2341.00,0.0082
2340.00,0.0083
2339.00,0.0083
2338.00,0.0083
2337.00,0.0083
2336.00,0.0083
2335.00,0.0082
2334.00,0.0082
2333.00,0.0082
2332.00,0.0082
2331.00,0.0082
2330.00,0.0082
2329.00,0.0084
2328.00,0.0087
2327.00,0.0091
2326.00,0.0094
2325.00,0.0095
2324.00,0.0094
2323.00,0.0091
2322.00,0.0089
2321.00,0.0088
2320.00,0.0088
2319.00,0.0088
2318.00,0.0088
2317.00,0.0088
2316.00,0.0087
2315.00,0.0087
2314.00,0.0086
2313.00,0.0086
2312.00,0.0085
2311.00,0.0085
2310.00,0.0085
2309.00,0.0085
2308.00,0.0085
2307.00,0.0085
2306.00,0.0085
2305.00,0.0085
2304.00,0.0085
2303.00,0.0085
2302.00,0.0085
2301.00,0.0086
2300.00,0.0086
2299.00,0.0087
2298.00,0.0087
2297.00,0.0087
2296.00,0.0088
2295.00,0.0089
2294.00,0.0089
2293.00,0.0090
2292.00,0.0091
2291.00,0.0092
2290.00,0.0092
2289.00,0.0093
2288.00,0.0093
2287.00,0.0092
2286.00,0.0092
2285.00,0.0091
2284.00,0.0091
2283.00,0.0091
2282.00,0.0090
2281.00,0.0089
2280.00,0.0089
2279.00,0.0089
2278.00,0.0088
2277.00,0.0088
2276.00,0.0088
2275.00,0.0088
2274.00,0.0087
2273.00,0.0087
2272.00,0.0087
2271.00,0.0087
2270.00,0.0086
2269.00,0.0086
2268.00,0.0085
2267.00,0.0085
2266.00,0.0084
2265.00,0.0084
2264.00,0.0084
2263.00,0.0084
2262.00,0.0083
2261.00,0.0084
2260.00,0.0084
2259.00,0.0084
2258.00,0.0083
2257.00,0.0083
2256.00,0.0082
2255.00,0.0082
2254.00,0.0082
2253.00,0.0082
2252.00,0.0083
2251.00,0.0083
2250.00,0.0082
2249.00,0.0082
2248.00,0.0083
2247.00,0.0083
2246.00,0.0084
2245.00,0.0084
2244.00,0.0084
2243.00,0.0084
2242.00,0.0083
2241.00,0.0082
2240.00,0.0083
2239.00,0.0084
2238.00,0.0084
2237.00,0.0084
2236.00,0.0084
2235.00,0.0083
2234.00,0.0082
2233.00,0.0081
2232.00,0.0081
2231.00,0.0081
2230.00,0.0082
2229.00,0.0082
2228.00,0.0083
2227.00,0.0083
2226.00,0.0083
2225.00,0.0084
2224.00,0.0084
2223.00,0.0084
2222.00,0.0083
2221.00,0.0082
2220.00,0.0081
2219.00,0.0081
2218.00,0.0082
2217.00,0.0083
2216.00,0.0083
2215.00,0.0084
2214.00,0.0083
2213.00,0.0083
2212.00,0.0083
2211.00,0.0083
2210.00,0.0083
2209.00,0.0083
2208.00,0.0083
2207.00,0.0083
2206.00,0.0082
2205.00,0.0082
2204.00,0.0081
2203.00,0.0081
2202.00,0.0081
2201.00,0.0081
2200.00,0.0082
2199.00,0.0083
2198.00,0.0083
2197.00,0.0083
2196.00,0.0083
2195.00,0.0083
2194.00,0.0082
2193.00,0.0082
2192.00,0.0082
2191.00,0.0083
2190.00,0.0083
2189.00,0.0084
2188.00,0.0084
2187.00,0.0084
2186.00,0.0083
2185.00,0.0082
2184.00,0.0081
2183.00,0.0081
2182.00,0.0082
2181.00,0.0082
2180.00,0.0083
2179.00,0.0082
2178.00,0.0080
2177.00,0.0078
2176.00,0.0078
2175.00,0.0078
2174.00,0.0079
2173.00,0.0080
2172.00,0.0081
2171.00,0.0082
2170.00,0.0083
2169.00,0.0085
2168.00,0.0087
2167.00,0.0089
2166.00,0.0090
2165.00,0.0091
2164.00,0.0092
2163.00,0.0092
2162.00,0.0087
2161.00,0.0077
2160.00,0.0065
2159.00,0.0054
2158.00,0.0049
2157.00,0.0049
2156.00,0.0053
2155.00,0.0056
2154.00,0.0059
2153.00,0.0060
2152.00,0.0062
2151.00,0.0063
2150.00,0.0063
2149.00,0.0064
2148.00,0.0064
2147.00,0.0065
2146.00,0.0065
2145.00,0.0065
2144.00,0.0065
2143.00,0.0064
2142.00,0.0064
2141.00,0.0064
2140.00,0.0064
2139.00,0.0065
2138.00,0.0064
2137.00,0.0063
2136.00,0.0062
2135.00,0.0061
2134.00,0.0061
2133.00,0.0061
2132.00,0.0062
2131.00,0.0064
2130.00,0.0065
2129.00,0.0067
2128.00,0.0068
2127.00,0.0070
2126.00,0.0071
2125.00,0.0072
2124.00,0.0073
2123.00,0.0073
2122.00,0.0073
2121.00,0.0073
2120.00,0.0074
2119.00,0.0075
2118.00,0.0076
2117.00,0.0078
2116.00,0.0079
2115.00,0.0080
2114.00,0.0080
2113.00,0.0079
2112.00,0.0079
2111.00,0.0079
2110.00,0.0079
2109.00,0.0079
2108.00,0.0078
2107.00,0.0078
2106.00,0.0078
2105.00,0.0078
2104.00,0.0078
2103.00,0.0078
2102.00,0.0078
2101.00,0.0077
2100.00,0.0077
2099.00,0.0076
2098.00,0.0075
2097.00,0.0073
2096.00,0.0072
2095.00,0.0072
2094.00,0.0073
2093.00,0.0074
2092.00,0.0076
2091.00,0.0077
2090.00,0.0077
2089.00,0.0076
2088.00,0.0077
2087.00,0.0077
2086.00,0.0078
2085.00,0.0079
2084.00,0.0079
2083.00,0.0080
2082.00,0.0080
2081.00,0.0080
2080.00,0.0080
2079.00,0.0080
2078.00,0.0080
2077.00,0.0079
2076.00,0.0079
2075.00,0.0079
2074.00,0.0078
2073.00,0.0077
2072.00,0.0077
2071.00,0.0076
2070.00,0.0076
2069.00,0.0076
2068.00,0.0077
2067.00,0.0077
2066.00,0.0077
2065.00,0.0076
2064.00,0.0076
2063.00,0.0075
2062.00,0.0074
2061.00,0.0074
2060.00,0.0075
2059.00,0.0076
2058.00,0.0078
2057.00,0.0079
2056.00,0.0080
2055.00,0.0081
2054.00,0.0082
2053.00,0.0085
2052.00,0.0087
2051.00,0.0087
2050.00,0.0084
2049.00,0.0081
2048.00,0.0079
2047.00,0.0078
2046.00,0.0078
2045.00,0.0077
2044.00,0.0078
2043.00,0.0078
2042.00,0.0078
2041.00,0.0077
2040.00,0.0078
2039.00,0.0079
2038.00,0.0078
2037.00,0.0077
2036.00,0.0076
2035.00,0.0074
2034.00,0.0072
2033.00,0.0071
2032.00,0.0071
2031.00,0.0072
2030.00,0.0071
2029.00,0.0070
2028.00,0.0070
2027.00,0.0069
2026.00,0.0069
2025.00,0.0069
2024.00,0.0070
2023.00,0.0070
2022.00,0.0069
2021.00,0.0068
2020.00,0.0068
2019.00,0.0068
2018.00,0.0067
2017.00,0.0066
2016.00,0.0066
2015.00,0.0067
2014.00,0.0069
2013.00,0.0070
2012.00,0.0072
2011.00,0.0072
2010.00,0.0071
2009.00,0.0068
2008.00,0.0065
2007.00,0.0063
2006.00,0.0061
2005.00,0.0062
2004.00,0.0063
2003.00,0.0065
2002.00,0.0066
2001.00,0.0068
2000.00,0.0070
1999.00,0.0070
1998.00,0.0070
1997.00,0.0070
1996.00,0.0071
1995.00,0.0073
1994.00,0.0074
1993.00,0.0073
1992.00,0.0073
1991.00,0.0072
1990.00,0.0071
1989.00,0.0072
1988.00,0.0074
1987.00,0.0076
1986.00,0.0076
1985.00,0.0077
1984.00,0.0078
1983.00,0.0080
1982.00,0.0082
1981.00,0.0082
1980.00,0.0080
1979.00,0.0076
1978.00,0.0070
1977.00,0.0067
1976.00,0.0066
1975.00,0.0066
1974.00,0.0066
1973.00,0.0065
1972.00,0.0064
1971.00,0.0063
1970.00,0.0063
1969.00,0.0064
1968.00,0.0066
1967.00,0.0066
1966.00,0.0065
1965.00,0.0064
1964.00,0.0062
1963.00,0.0061
1962.00,0.0060
1961.00,0.0059
1960.00,0.0059
1959.00,0.0060
1958.00,0.0060
1957.00,0.0061
1956.00,0.0062
1955.00,0.0063
1954.00,0.0063
1953.00,0.0064
1952.00,0.0064
1951.00,0.0065
1950.00,0.0064
1949.00,0.0064
1948.00,0.0064
1947.00,0.0064
1946.00,0.0063
1945.00,0.0062
1944.00,0.0063
1943.00,0.0063
1942.00,0.0063
1941.00,0.0064
1940.00,0.0064
1939.00,0.0065
1938.00,0.0065
1937.00,0.0066
1936.00,0.0066
1935.00,0.0067
1934.00,0.0066
1933.00,0.0066
1932.00,0.0066
1931.00,0.0066
1930.00,0.0066
1929.00,0.0066
1928.00,0.0066
1927.00,0.0066
1926.00,0.0066
1925.00,0.0066
1924.00,0.0067
1923.00,0.0068
1922.00,0.0067
1921.00,0.0067
1920.00,0.0068
1919.00,0.0068
1918.00,0.0068
1917.00,0.0067
1916.00,0.0067
1915.00,0.0066
1914.00,0.0066
1913.00,0.0067
1912.00,0.0068
1911.00,0.0070
1910.00,0.0070
1909.00,0.0070
1908.00,0.0070
1907.00,0.0071
1906.00,0.0070
1905.00,0.0070
1904.00,0.0070
1903.00,0.0070
1902.00,0.0069
1901.00,0.0069
1900.00,0.0069
1899.00,0.0069
1898.00,0.0068
1897.00,0.0068
1896.00,0.0069
1895.00,0.0069
1894.00,0.0069
1893.00,0.0068
1892.00,0.0069
1891.00,0.0069
1890.00,0.0069
1889.00,0.0068
1888.00,0.0068
1887.00,0.0068
1886.00,0.0067
1885.00,0.0067
1884.00,0.0068
1883.00,0.0069
1882.00,0.0069
1881.00,0.0068
1880.00,0.0068
1879.00,0.0067
1878.00,0.0066
1877.00,0.0066
1876.00,0.0067
1875.00,0.0067
1874.00,0.0067
1873.00,0.0067
1872.00,0.0067
1871.00,0.0066
1870.00,0.0066
1869.00,0.0067
1868.00,0.0067
1867.00,0.0068
1866.00,0.0067
1865.00,0.0067
1864.00,0.0067
1863.00,0.0067
1862.00,0.0067
1861.00,0.0067
1860.00,0.0068
1859.00,0.0068
1858.00,0.0068
1857.00,0.0068
1856.00,0.0068
1855.00,0.0068
1854.00,0.0067
1853.00,0.0067
1852.00,0.0067
1851.00,0.0067
1850.00,0.0067
1849.00,0.0067
1848.00,0.0066
1847.00,0.0066
1846.00,0.0065
1845.00,0.0065
1844.00,0.0065
1843.00,0.0066
1842.00,0.0066
1841.00,0.0066
1840.00,0.0067
1839.00,0.0067
1838.00,0.0067
1837.00,0.0067
1836.00,0.0067
1835.00,0.0067
1834.00,0.0067
1833.00,0.0066
1832.00,0.0066
1831.00,0.0066
1830.00,0.0067
1829.00,0.0067
1828.00,0.0066
1827.00,0.0066
1826.00,0.0066
1825.00,0.0066
1824.00,0.0066
1823.00,0.0066
1822.00,0.0065
1821.00,0.0065
1820.00,0.0064
1819.00,0.0063
1818.00,0.0062
1817.00,0.0062
1816.00,0.0062
1815.00,0.0063
1814.00,0.0063
1813.00,0.0064
1812.00,0.0065
1811.00,0.0065
1810.00,0.0065
1809.00,0.0065
1808.00,0.0065
1807.00,0.0065
1806.00,0.0065
1805.00,0.0064
1804.00,0.0064
1803.00,0.0065
1802.00,0.0065
1801.00,0.0065
1800.00,0.0066
1799.00,0.0066
1798.00,0.0065
1797.00,0.0065
1796.00,0.0065
1795.00,0.0064
1794.00,0.0064
1793.00,0.0064
1792.00,0.0064
1791.00,0.0065
1790.00,0.0064
1789.00,0.0064
1788.00,0.0065
1787.00,0.0065
1786.00,0.0065
1785.00,0.0065
1784.00,0.0065
1783.00,0.0065
1782.00,0.0065
1781.00,0.0065
1780.00,0.0065
1779.00,0.0065
1778.00,0.0064
1777.00,0.0064
1776.00,0.0064
1775.00,0.0064
1774.00,0.0063
1773.00,0.0063
1772.00,0.0063
1771.00,0.0064
1770.00,0.0064
1769.00,0.0064
1768.00,0.0065
1767.00,0.0065
1766.00,0.0065
1765.00,0.0064
1764.00,0.0065
1763.00,0.0065
1762.00,0.0065
1761.00,0.0065
1760.00,0.0065
1759.00,0.0065
1758.00,0.0065
1757.00,0.0065
1756.00,0.0065
1755.00,0.0064
1754.00,0.0064
1753.00,0.0063
1752.00,0.0063
1751.00,0.0063
1750.00,0.0063
1749.00,0.0063
1748.00,0.0064
1747.00,0.0064
1746.00,0.0064
1745.00,0.0064
1744.00,0.0064
1743.00,0.0064
1742.00,0.0063
1741.00,0.0063
1740.00,0.0064
1739.00,0.0065
1738.00,0.0064
1737.00,0.0064
1736.00,0.0063
1735.00,0.0063
1734.00,0.0064
1733.00,0.0065
1732.00,0.0068
1731.00,0.0071
1730.00,0.0074
1729.00,0.0075
1728.00,0.0077
1727.00,0.0079
1726.00,0.0080
1725.00,0.0081
1724.00,0.0084
1723.00,0.0086
1722.00,0.0087
1721.00,0.0088
1720.00,0.0090
1719.00,0.0092
1718.00,0.0094
1717.00,0.0097
1716.00,0.0101
1715.00,0.0107
1714.00,0.0112
1713.00,0.0118
1712.00,0.0124
1711.00,0.0131
1710.00,0.0138
1709.00,0.0146
1708.00,0.0155
1707.00,0.0166
1706.00,0.0179
1705.00,0.0192
1704.00,0.0206
1703.00,0.0219
1702.00,0.0233
1701.00,0.0254
1700.00,0.0283
1699.00,0.0310
1698.00,0.0335
1697.00,0.0362
1696.00,0.0398
1695.00,0.0437
1694.00,0.0473
1693.00,0.0508
1692.00,0.0544
1691.00,0.0581
1690.00,0.0619
1689.00,0.0656
1688.00,0.0692
1687.00,0.0725
1686.00,0.0757
1685.00,0.0789
1684.00,0.0822
1683.00,0.0852
1682.00,0.0880
1681.00,0.0908
1680.00,0.0934
1679.00,0.0957
1678.00,0.0978
1677.00,0.0996
1676.00,0.1009
1675.00,0.1018
1674.00,0.1025
1673.00,0.1037
1672.00,0.1050
1671.00,0.1058
1670.00,0.1059
1669.00,0.1057
1668.00,0.1059
1667.00,0.1067
1666.00,0.1077
1665.00,0.1088
1664.00,0.1095
1663.00,0.1097
1662.00,0.1097
1661.00,0.1099
1660.00,0.1105
1659.00,0.1111
1658.00,0.1117
1657.00,0.1124
1656.00,0.1131
1655.00,0.1133
1654.00,0.1115
1653.00,0.1076
1652.00,0.1045
1651.00,0.1039
1650.00,0.1044
1649.00,0.1043
1648.00,0.1026
1647.00,0.0991
1646.00,0.0950
1645.00,0.0917
1644.00,0.0893
1643.00,0.0871
1642.00,0.0847
1641.00,0.0820
1640.00,0.0792
1639.00,0.0766
1638.00,0.0741
1637.00,0.0710
1636.00,0.0670
1635.00,0.0630
1634.00,0.0601
1633.00,0.0582
1632.00,0.0567
1631.00,0.0552
1630.00,0.0536
1629.00,0.0520
1628.00,0.0507
1627.00,0.0496
1626.00,0.0490
1625.00,0.0488
1624.00,0.0489
1623.00,0.0492
1622.00,0.0497
1621.00,0.0503
1620.00,0.0508
1619.00,0.0510
1618.00,0.0507
1617.00,0.0498
1616.00,0.0486
1615.00,0.0476
1614.00,0.0469
1613.00,0.0463
1612.00,0.0456
1611.00,0.0449
1610.00,0.0440
1609.00,0.0431
1608.00,0.0419
1607.00,0.0406
1606.00,0.0391
1605.00,0.0375
1604.00,0.0358
1603.00,0.0341
1602.00,0.0325
1601.00,0.0311
1600.00,0.0298
1599.00,0.0288
1598.00,0.0280
1597.00,0.0274
1596.00,0.0270
1595.00,0.0268
1594.00,0.0269
1593.00,0.0273
1592.00,0.0281
1591.00,0.0291
1590.00,0.0303
1589.00,0.0316
1588.00,0.0330
1587.00,0.0341
1586.00,0.0348
1585.00,0.0352
1584.00,0.0350
1583.00,0.0344
1582.00,0.0334
1581.00,0.0323
1580.00,0.0311
1579.00,0.0299
1578.00,0.0287
1577.00,0.0274
1576.00,0.0262
1575.00,0.0253
1574.00,0.0248
1573.00,0.0244
1572.00,0.0241
1571.00,0.0236
1570.00,0.0231
1569.00,0.0225
1568.00,0.0221
1567.00,0.0217
1566.00,0.0214
1565.00,0.0211
1564.00,0.0207
1563.00,0.0202
1562.00,0.0197
1561.00,0.0192
1560.00,0.0188
1559.00,0.0184
1558.00,0.0180
1557.00,0.0178
1556.00,0.0178
1555.00,0.0178
1554.00,0.0177
1553.00,0.0176
1552.00,0.0175
1551.00,0.0175
1550.00,0.0174
1549.00,0.0172
1548.00,0.0170
1547.00,0.0169
1546.00,0.0167
1545.00,0.0166
1544.00,0.0164
1543.00,0.0162
1542.00,0.0159
1541.00,0.0157
1540.00,0.0156
1539.00,0.0154
1538.00,0.0155
1537.00,0.0156
1536.00,0.0157
1535.00,0.0158
1534.00,0.0158
1533.00,0.0157
1532.00,0.0157
1531.00,0.0157
1530.00,0.0157
1529.00,0.0157
1528.00,0.0157
1527.00,0.0157
1526.00,0.0157
1525.00,0.0157
1524.00,0.0158
1523.00,0.0158
1522.00,0.0159
1521.00,0.0161
1520.00,0.0163
1519.00,0.0165
1518.00,0.0169
1517.00,0.0172
1516.00,0.0173
1515.00,0.0174
1514.00,0.0175
1513.00,0.0176
1512.00,0.0177
1511.00,0.0178
1510.00,0.0179
1509.00,0.0179
1508.00,0.0181
1507.00,0.0183
1506.00,0.0187
1505.00,0.0192
1504.00,0.0201
1503.00,0.0211
1502.00,0.0222
1501.00,0.0234
1500.00,0.0248
1499.00,0.0263
1498.00,0.0278
1497.00,0.0293
1496.00,0.0305
1495.00,0.0315
1494.00,0.0321
1493.00,0.0324
1492.00,0.0323
1491.00,0.0316
1490.00,0.0306
1489.00,0.0292
1488.00,0.0278
1487.00,0.0265
1486.00,0.0251
1485.00,0.0239
1484.00,0.0229
1483.00,0.0220
1482.00,0.0211
1481.00,0.0204
1480.00,0.0199
1479.00,0.0196
1478.00,0.0195
1477.00,0.0195
1476.00,0.0198
1475.00,0.0201
1474.00,0.0207
1473.00,0.0218
1472.00,0.0234
1471.00,0.0253
1470.00,0.0273
1469.00,0.0296
1468.00,0.0320
1467.00,0.0347
1466.00,0.0376
1465.00,0.0408
1464.00,0.0440
1463.00,0.0467
1462.00,0.0487
1461.00,0.0503
1460.00,0.0513
1459.00,0.0513
1458.00,0.0502
1457.00,0.0478
1456.00,0.0452
1455.00,0.0433
1454.00,0.0420
1453.00,0.0410
1452.00,0.0400
1451.00,0.0393
1450.00,0.0390
1449.00,0.0393
1448.00,0.0400
1447.00,0.0411
1446.00,0.0426
1445.00,0.0443
1444.00,0.0462
1443.00,0.0482
1442.00,0.0502
1441.00,0.0523
1440.00,0.0542
1439.00,0.0561
1438.00,0.0578
1437.00,0.0596
1436.00,0.0613
1435.00,0.0628
1434.00,0.0642
1433.00,0.0655
1432.00,0.0666
1431.00,0.0675
1430.00,0.0684
1429.00,0.0694
1428.00,0.0707
1427.00,0.0723
1426.00,0.0742
1425.00,0.0764
1424.00,0.0785
1423.00,0.0802
1422.00,0.0814
1421.00,0.0819
1420.00,0.0809
1419.00,0.0784
1418.00,0.0749
1417.00,0.0714
1416.00,0.0680
1415.00,0.0645
1414.00,0.0610
1413.00,0.0577
1412.00,0.0547
1411.00,0.0521
1410.00,0.0501
1409.00,0.0486
1408.00,0.0475
1407.00,0.0467
1406.00,0.0462
1405.00,0.0459
1404.00,0.0457
1403.00,0.0455
1402.00,0.0453
1401.00,0.0449
1400.00,0.0440
1399.00,0.0428
1398.00,0.0413
1397.00,0.0398
1396.00,0.0382
1395.00,0.0364
1394.00,0.0348
1393.00,0.0335
1392.00,0.0325
1391.00,0.0318
1390.00,0.0313
1389.00,0.0310
1388.00,0.0308
1387.00,0.0309
1386.00,0.0312
1385.00,0.0318
1384.00,0.0325
1383.00,0.0333
1382.00,0.0341
1381.00,0.0350
1380.00,0.0358
1379.00,0.0364
1378.00,0.0369
1377.00,0.0372
1376.00,0.0373
1375.00,0.0373
1374.00,0.0371
1373.00,0.0369
1372.00,0.0367
1371.00,0.0364
1370.00,0.0361
1369.00,0.0357
1368.00,0.0353
1367.00,0.0349
1366.00,0.0347
1365.00,0.0346
1364.00,0.0346
1363.00,0.0346
1362.00,0.0346
1361.00,0.0345
1360.00,0.0342
1359.00,0.0336
1358.00,0.0327
1357.00,0.0315
1356.00,0.0303
1355.00,0.0291
1354.00,0.0280
1353.00,0.0272
1352.00,0.0265
1351.00,0.0260
1350.00,0.0256
1349.00,0.0253
1348.00,0.0251
1347.00,0.0248
1346.00,0.0247
1345.00,0.0245
1344.00,0.0244
1343.00,0.0243
1342.00,0.0243
1341.00,0.0243
1340.00,0.0243
1339.00,0.0243
1338.00,0.0244
1337.00,0.0245
1336.00,0.0247
1335.00,0.0250
1334.00,0.0253
1333.00,0.0256
1332.00,0.0260
1331.00,0.0264
1330.00,0.0268
1329.00,0.0273
1328.00,0.0278
1327.00,0.0284
1326.00,0.0291
1325.00,0.0299
1324.00,0.0308
1323.00,0.0316
1322.00,0.0325
1321.00,0.0333
1320.00,0.0341
1319.00,0.0346
1318.00,0.0350
1317.00,0.0352
1316.00,0.0352
1315.00,0.0349
1314.00,0.0346
1313.00,0.0341
1312.00,0.0336
1311.00,0.0331
1310.00,0.0326
1309.00,0.0324
1308.00,0.0322
1307.00,0.0322
1306.00,0.0324
1305.00,0.0328
1304.00,0.0334
1303.00,0.0341
1302.00,0.0352
1301.00,0.0366
1300.00,0.0383
1299.00,0.0406
1298.00,0.0433
1297.00,0.0467
1296.00,0.0505
1295.00,0.0547
1294.00,0.0593
1293.00,0.0640
1292.00,0.0688
1291.00,0.0734
1290.00,0.0776
1289.00,0.0814
1288.00,0.0846
1287.00,0.0870
1286.00,0.0886
1285.00,0.0894
1284.00,0.0893
1283.00,0.0885
1282.00,0.0871
1281.00,0.0854
1280.00,0.0836
1279.00,0.0821
1278.00,0.0809
1277.00,0.0802
1276.00,0.0800
1275.00,0.0802
1274.00,0.0806
1273.00,0.0811
1272.00,0.0814
1271.00,0.0813
1270.00,0.0808
1269.00,0.0798
1268.00,0.0783
1267.00,0.0763
1266.00,0.0740
1265.00,0.0714
1264.00,0.0687
1263.00,0.0660
1262.00,0.0632
1261.00,0.0605
1260.00,0.0579
1259.00,0.0555
1258.00,0.0533
1257.00,0.0512
1256.00,0.0493
1255.00,0.0476
1254.00,0.0461
1253.00,0.0447
1252.00,0.0436
1251.00,0.0426
1250.00,0.0419
1249.00,0.0414
1248.00,0.0412
1247.00,0.0411
1246.00,0.0413
1245.00,0.0416
1244.00,0.0421
1243.00,0.0427
1242.00,0.0433
1241.00,0.0439
1240.00,0.0444
1239.00,0.0449
1238.00,0.0454
1237.00,0.0458
1236.00,0.0462
1235.00,0.0465
1234.00,0.0468
1233.00,0.0471
1232.00,0.0473
1231.00,0.0474
1230.00,0.0474
1229.00,0.0474
1228.00,0.0472
1227.00,0.0471
1226.00,0.0469
1225.00,0.0467
1224.00,0.0466
1223.00,0.0466
1222.00,0.0465
1221.00,0.0465
1220.00,0.0464
1219.00,0.0463
1218.00,0.0460
1217.00,0.0456
1216.00,0.0450
1215.00,0.0442
1214.00,0.0432
1213.00,0.0422
1212.00,0.0410
1211.00,0.0399
1210.00,0.0388
1209.00,0.0378
1208.00,0.0369
1207.00,0.0361
1206.00,0.0355
1205.00,0.0351
1204.00,0.0349
1203.00,0.0348
1202.00,0.0350
1201.00,0.0353
1200.00,0.0358
1199.00,0.0364
1198.00,0.0370
1197.00,0.0378
1196.00,0.0385
1195.00,0.0391
1194.00,0.0394
1193.00,0.0394
1192.00,0.0391
1191.00,0.0384
1190.00,0.0375
1189.00,0.0365
1188.00,0.0354
1187.00,0.0344
1186.00,0.0335
1185.00,0.0327
1184.00,0.0320
1183.00,0.0314
1182.00,0.0310
1181.00,0.0307
1180.00,0.0305
1179.00,0.0304
1178.00,0.0304
1177.00,0.0305
1176.00,0.0306
1175.00,0.0308
1174.00,0.0311
1173.00,0.0314
1172.00,0.0317
1171.00,0.0320
1170.00,0.0323
1169.00,0.0325
1168.00,0.0326
1167.00,0.0327
1166.00,0.0329
1165.00,0.0330
1164.00,0.0332
1163.00,0.0335
1162.00,0.0340
1161.00,0.0347
1160.00,0.0354
1159.00,0.0361
1158.00,0.0367
1157.00,0.0371
1156.00,0.0371
1155.00,0.0369
1154.00,0.0364
1153.00,0.0356
1152.00,0.0346
1151.00,0.0335
1150.00,0.0323
1149.00,0.0311
1148.00,0.0299
1147.00,0.0288
1146.00,0.0278
1145.00,0.0269
1144.00,0.0261
1143.00,0.0255
1142.00,0.0251
1141.00,0.0247
1140.00,0.0245
1139.00,0.0244
1138.00,0.0246
1137.00,0.0249
1136.00,0.0256
1135.00,0.0266
1134.00,0.0280
1133.00,0.0296
1132.00,0.0312
1131.00,0.0327
1130.00,0.0337
1129.00,0.0341
1128.00,0.0338
1127.00,0.0329
1126.00,0.0316
1125.00,0.0301
1124.00,0.0288
1123.00,0.0276
1122.00,0.0267
1121.00,0.0261
1120.00,0.0255
1119.00,0.0251
1118.00,0.0248
1117.00,0.0246
1116.00,0.0245
1115.00,0.0244
1114.00,0.0245
1113.00,0.0246
1112.00,0.0247
1111.00,0.0248
1110.00,0.0249
1109.00,0.0251
1108.00,0.0252
1107.00,0.0255
1106.00,0.0258
1105.00,0.0263
1104.00,0.0268
1103.00,0.0273
1102.00,0.0278
1101.00,0.0283
1100.00,0.0285
1099.00,0.0285
1098.00,0.0283
1097.00,0.0279
1096.00,0.0275
1095.00,0.0270
1094.00,0.0265
1093.00,0.0261
1092.00,0.0256
1091.00,0.0252
1090.00,0.0248
1089.00,0.0246
1088.00,0.0244
1087.00,0.0243
1086.00,0.0242
1085.00,0.0242
1084.00,0.0243
1083.00,0.0244
1082.00,0.0246
1081.00,0.0248
1080.00,0.0251
1079.00,0.0254
1078.00,0.0258
1077.00,0.0263
1076.00,0.0268
1075.00,0.0273
1074.00,0.0278
1073.00,0.0283
1072.00,0.0289
1071.00,0.0295
1070.00,0.0303
1069.00,0.0313
1068.00,0.0324
1067.00,0.0338
1066.00,0.0355
1065.00,0.0373
1064.00,0.0393
1063.00,0.0415
1062.00,0.0437
1061.00,0.0457
1060.00,0.0476
1059.00,0.0490
1058.00,0.0499
1057.00,0.0500
1056.00,0.0494
1055.00,0.0481
1054.00,0.0461
1053.00,0.0439
1052.00,0.0415
1051.00,0.0392
1050.00,0.0371
1049.00,0.0353
1048.00,0.0340
1047.00,0.0330
1046.00,0.0324
1045.00,0.0320
1044.00,0.0318
1043.00,0.0317
1042.00,0.0318
1041.00,0.0318
1040.00,0.0320
1039.00,0.0321
1038.00,0.0322
1037.00,0.0324
1036.00,0.0326
1035.00,0.0328
1034.00,0.0331
1033.00,0.0334
1032.00,0.0337
1031.00,0.0339
1030.00,0.0339
1029.00,0.0337
1028.00,0.0333
1027.00,0.0327
1026.00,0.0320
1025.00,0.0314
1024.00,0.0309
1023.00,0.0306
1022.00,0.0304
1021.00,0.0304
1020.00,0.0305
1019.00,0.0305
1018.00,0.0305
1017.00,0.0303
1016.00,0.0301
1015.00,0.0296
1014.00,0.0290
1013.00,0.0284
1012.00,0.0277
1011.00,0.0272
1010.00,0.0268
1009.00,0.0266
1008.00,0.0267
1007.00,0.0271
1006.00,0.0276
1005.00,0.0281
1004.00,0.0287
1003.00,0.0291
1002.00,0.0293
1001.00,0.0293
1000.00,0.0292
999.00,0.0288
998.00,0.0284
997.00,0.0280
996.00,0.0276
995.00,0.0272
994.00,0.0268
993.00,0.0264
992.00,0.0259
991.00,0.0255
990.00,0.0251
989.00,0.0247
988.00,0.0243
987.00,0.0239
986.00,0.0235
985.00,0.0232
984.00,0.0229
983.00,0.0226
982.00,0.0225
981.00,0.0223
980.00,0.0222
979.00,0.0221
978.00,0.0221
977.00,0.0220
976.00,0.0220
975.00,0.0219
974.00,0.0217
973.00,0.0216
972.00,0.0214
971.00,0.0213
970.00,0.0211
969.00,0.0209
968.00,0.0208
967.00,0.0206
966.00,0.0204
965.00,0.0202
964.00,0.0200
963.00,0.0199
962.00,0.0197
961.00,0.0196
960.00,0.0195
959.00,0.0194
958.00,0.0193
957.00,0.0191
956.00,0.0190
955.00,0.0189
954.00,0.0187
953.00,0.0186
952.00,0.0185
951.00,0.0184
950.00,0.0184
949.00,0.0184
948.00,0.0184
947.00,0.0185
946.00,0.0185
945.00,0.0186
944.00,0.0188
943.00,0.0190
942.00,0.0192
941.00,0.0196
940.00,0.0200
939.00,0.0205
938.00,0.0211
937.00,0.0218
936.00,0.0225
935.00,0.0232
934.00,0.0237
933.00,0.0241
932.00,0.0242
931.00,0.0241
930.00,0.0239
929.00,0.0236
928.00,0.0234
927.00,0.0233
926.00,0.0232
925.00,0.0231
924.00,0.0230
923.00,0.0228
922.00,0.0226
921.00,0.0223
920.00,0.0221
919.00,0.0219
918.00,0.0217
917.00,0.0214
916.00,0.0211
915.00,0.0209
914.00,0.0206
913.00,0.0204
912.00,0.0203
911.00,0.0202
910.00,0.0201
909.00,0.0202
908.00,0.0203
907.00,0.0204
906.00,0.0207
905.00,0.0211
904.00,0.0216
903.00,0.0221
902.00,0.0226
901.00,0.0231
900.00,0.0236
899.00,0.0240
898.00,0.0244
897.00,0.0246
896.00,0.0247
895.00,0.0246
894.00,0.0244
893.00,0.0241
892.00,0.0237
891.00,0.0232
890.00,0.0228
889.00,0.0225
888.00,0.0223
887.00,0.0221
886.00,0.0220
885.00,0.0220
884.00,0.0221
883.00,0.0222
882.00,0.0224
881.00,0.0227
880.00,0.0231
879.00,0.0235
878.00,0.0239
877.00,0.0244
876.00,0.0250
875.00,0.0256
874.00,0.0261
873.00,0.0267
872.00,0.0272
871.00,0.0275
870.00,0.0278
869.00,0.0280
868.00,0.0281
867.00,0.0281
866.00,0.0281
865.00,0.0281
864.00,0.0282
863.00,0.0283
862.00,0.0285
861.00,0.0286
860.00,0.0288
859.00,0.0290
858.00,0.0293
857.00,0.0297
856.00,0.0301
855.00,0.0305
854.00,0.0310
853.00,0.0316
852.00,0.0321
851.00,0.0327
850.00,0.0333
849.00,0.0339
848.00,0.0344
847.00,0.0348
846.00,0.0351
845.00,0.0354
844.00,0.0356
843.00,0.0357
842.00,0.0357
841.00,0.0356
840.00,0.0356
839.00,0.0354
838.00,0.0353
837.00,0.0351
836.00,0.0350
835.00,0.0350
834.00,0.0350
833.00,0.0349
832.00,0.0349
831.00,0.0349
830.00,0.0349
829.00,0.0348
828.00,0.0347
827.00,0.0344
826.00,0.0342
825.00,0.0340
824.00,0.0339
823.00,0.0338
822.00,0.0338
821.00,0.0338
820.00,0.0339
819.00,0.0339
818.00,0.0339
817.00,0.0339
816.00,0.0338
815.00,0.0337
814.00,0.0335
813.00,0.0332
812.00,0.0328
811.00,0.0322
810.00,0.0315
809.00,0.0305
808.00,0.0294
807.00,0.0283
806.00,0.0272
805.00,0.0263
804.00,0.0255
803.00,0.0249
802.00,0.0244
801.00,0.0240
800.00,0.0238
799.00,0.0236
798.00,0.0235
797.00,0.0233
796.00,0.0233
795.00,0.0233
794.00,0.0233
793.00,0.0234
792.00,0.0235
791.00,0.0236
790.00,0.0236
789.00,0.0236
788.00,0.0236
787.00,0.0236
786.00,0.0236
785.00,0.0236
784.00,0.0237
783.00,0.0238
782.00,0.0239
781.00,0.0240
780.00,0.0242
779.00,0.0244
778.00,0.0245
777.00,0.0247
776.00,0.0247
775.00,0.0246
774.00,0.0244
773.00,0.0242
772.00,0.0241
771.00,0.0241
770.00,0.0242
769.00,0.0243
768.00,0.0245
767.00,0.0246
766.00,0.0248
765.00,0.0251
764.00,0.0253
763.00,0.0256
762.00,0.0260
761.00,0.0263
760.00,0.0267
759.00,0.0270
758.00,0.0274
757.00,0.0278
756.00,0.0282
755.00,0.0286
754.00,0.0290
753.00,0.0294
752.00,0.0298
751.00,0.0302
750.00,0.0306
749.00,0.0310
748.00,0.0313
747.00,0.0317
746.00,0.0322
745.00,0.0327
744.00,0.0332
743.00,0.0338
742.00,0.0345
741.00,0.0353
740.00,0.0362
739.00,0.0372
738.00,0.0379
737.00,0.0385
736.00,0.0388
735.00,0.0387
734.00,0.0385
733.00,0.0380
732.00,0.0374
731.00,0.0367
730.00,0.0361
729.00,0.0354
728.00,0.0347
727.00,0.0340
726.00,0.0333
725.00,0.0326
724.00,0.0320
723.00,0.0314
722.00,0.0308
721.00,0.0304
720.00,0.0301
719.00,0.0298
718.00,0.0297
717.00,0.0295
716.00,0.0293
715.00,0.0292
714.00,0.0291
713.00,0.0291
712.00,0.0290
711.00,0.0289
710.00,0.0287
709.00,0.0285
708.00,0.0284
707.00,0.0283
706.00,0.0283
705.00,0.0283
704.00,0.0284
703.00,0.0284
702.00,0.0285
701.00,0.0285
700.00,0.0286
699.00,0.0287
698.00,0.0290
697.00,0.0294
696.00,0.0299
695.00,0.0304
694.00,0.0309
693.00,0.0314
692.00,0.0319
691.00,0.0323
690.00,0.0328
689.00,0.0331
688.00,0.0333
687.00,0.0334
686.00,0.0334
685.00,0.0333
684.00,0.0333
683.00,0.0333
682.00,0.0334
681.00,0.0334
680.00,0.0335
679.00,0.0336
678.00,0.0338
677.00,0.0340
676.00,0.0342
675.00,0.0345
674.00,0.0349
673.00,0.0353
672.00,0.0358
671.00,0.0363
670.00,0.0368
669.00,0.0373
668.00,0.0378
667.00,0.0385
666.00,0.0391
665.00,0.0397
664.00,0.0404
663.00,0.0412
662.00,0.0419
661.00,0.0426
660.00,0.0434
659.00,0.0442
658.00,0.0451
657.00,0.0459
656.00,0.0468
655.00,0.0476
654.00,0.0483
653.00,0.0491
652.00,0.0497
651.00,0.0503
650.00,0.0507
649.00,0.0510
648.00,0.0512
647.00,0.0513
646.00,0.0512
645.00,0.0508
644.00,0.0504
643.00,0.0498
642.00,0.0491
641.00,0.0485
640.00,0.0478
639.00,0.0471
638.00,0.0463
637.00,0.0456
636.00,0.0449
635.00,0.0444
634.00,0.0439
633.00,0.0434
632.00,0.0430
631.00,0.0425
630.00,0.0421
629.00,0.0417
628.00,0.0414
627.00,0.0412
626.00,0.0410
625.00,0.0410
624.00,0.0409
623.00,0.0408
622.00,0.0405
621.00,0.0403
620.00,0.0400
619.00,0.0397
618.00,0.0394
617.00,0.0393
616.00,0.0392
615.00,0.0391
614.00,0.0390
613.00,0.0390
612.00,0.0390
611.00,0.0390
610.00,0.0391
609.00,0.0393
608.00,0.0394
607.00,0.0396
606.00,0.0397
605.00,0.0398
604.00,0.0400
603.00,0.0402
602.00,0.0405
601.00,0.0407
600.00,0.0408
599.00,0.0409
598.00,0.0410
597.00,0.0411
596.00,0.0411
595.00,0.0411
594.00,0.0410
593.00,0.0411
592.00,0.0413
591.00,0.0416
590.00,0.0422
589.00,0.0429
588.00,0.0439
587.00,0.0450
586.00,0.0461
585.00,0.0474
584.00,0.0487
583.00,0.0498
582.00,0.0508
581.00,0.0516
580.00,0.0522
579.00,0.0526
578.00,0.0528
577.00,0.0530
576.00,0.0531
575.00,0.0533
574.00,0.0534
573.00,0.0534
572.00,0.0535
571.00,0.0535
570.00,0.0534
569.00,0.0533
568.00,0.0534
567.00,0.0533
566.00,0.0531
565.00,0.0528
564.00,0.0523
563.00,0.0516
562.00,0.0509
561.00,0.0502
560.00,0.0496
559.00,0.0492
558.00,0.0489
557.00,0.0486
556.00,0.0482
555.00,0.0478
554.00,0.0473
553.00,0.0468
552.00,0.0465
551.00,0.0462
550.00,0.0459
549.00,0.0457
548.00,0.0455
547.00,0.0452
546.00,0.0449
545.00,0.0446
544.00,0.0442
543.00,0.0439
542.00,0.0435
541.00,0.0433
540.00,0.0432
539.00,0.0432
538.00,0.0431
537.00,0.0432
536.00,0.0434
535.00,0.0437
534.00,0.0443
533.00,0.0448
532.00,0.0453
531.00,0.0455
530.00,0.0454
529.00,0.0451
528.00,0.0448
527.00,0.0445
526.00,0.0441
525.00,0.0436
524.00,0.0433
523.00,0.0430
522.00,0.0428
521.00,0.0425
520.00,0.0422
519.00,0.0420
518.00,0.0419
517.00,0.0418
516.00,0.0418
515.00,0.0419
514.00,0.0418
513.00,0.0416
512.00,0.0416
511.00,0.0418
510.00,0.0421
509.00,0.0425
508.00,0.0428
507.00,0.0429
506.00,0.0428
505.00,0.0426
504.00,0.0424
503.00,0.0422
502.00,0.0421
501.00,0.0420
500.00,0.0420
499.00,0.0421
498.00,0.0421
497.00,0.0420
496.00,0.0419
495.00,0.0420
494.00,0.0421
493.00,0.0422
492.00,0.0424
491.00,0.0425
490.00,0.0426
489.00,0.0429
488.00,0.0431
487.00,0.0433
486.00,0.0434
485.00,0.0434
484.00,0.0435
483.00,0.0436
482.00,0.0437
481.00,0.0438
480.00,0.0438
479.00,0.0439
478.00,0.0440
477.00,0.0442
476.00,0.0447
475.00,0.0451
474.00,0.0454
473.00,0.0454
472.00,0.0452
471.00,0.0449
470.00,0.0447
469.00,0.0444
468.00,0.0442
467.00,0.0441
466.00,0.0442
465.00,0.0443
464.00,0.0443
463.00,0.0442
462.00,0.0439
461.00,0.0435
460.00,0.0431
459.00,0.0428
458.00,0.0425
457.00,0.0424
456.00,0.0423
455.00,0.0424
454.00,0.0424
453.00,0.0422
452.00,0.0420
451.00,0.0417
450.00,0.0413
449.00,0.0409
448.00,0.0406
447.00,0.0403
446.00,0.0402
445.00,0.0402
444.00,0.0403
443.00,0.0403
442.00,0.0401
441.00,0.0398
440.00,0.0396
439.00,0.0394
438.00,0.0394
437.00,0.0394
436.00,0.0395
435.00,0.0397
434.00,0.0397
433.00,0.0395
432.00,0.0389
431.00,0.0381
430.00,0.0375
429.00,0.0374
428.00,0.0374
427.00,0.0375
426.00,0.0375
425.00,0.0375
424.00,0.0375
423.00,0.0373
422.00,0.0371
421.00,0.0370
420.00,0.0372
419.00,0.0376
418.00,0.0381
417.00,0.0386
416.00,0.0391
415.00,0.0392
414.00,0.0390
413.00,0.0384
412.00,0.0377
411.00,0.0369
410.00,0.0364
409.00,0.0364
408.00,0.0368
407.00,0.0369
406.00,0.0366
405.00,0.0362
404.00,0.0359
403.00,0.0359
402.00,0.0361
401.00,0.0364
400.00,0.0367
