Created as New Dataset,Sample 001 By YargerLab Date Wednesday, August 06 2025
cm-1,A
4000.00,0.0005
3999.00,0.0005
3998.00,0.0005
3997.00,0.0005
3996.00,0.0005
3995.00,0.0005
3994.00,0.0005
3993.00,0.0005
3992.00,0.0005
3991.00,0.0005
3990.00,0.0005
3989.00,0.0005
3988.00,0.0005
3987.00,0.0005
3986.00,0.0005
3985.00,0.0005
3984.00,0.0005
3983.00,0.0005
3982.00,0.0005
3981.00,0.0005
3980.00,0.0005
3979.00,0.0005
3978.00,0.0005
3977.00,0.0005
3976.00,0.0005
3975.00,0.0005
3974.00,0.0005
3973.00,0.0005
3972.00,0.0005
3971.00,0.0005
3970.00,0.0005
3969.00,0.0005
3968.00,0.0005
3967.00,0.0005
3966.00,0.0005
3965.00,0.0005
3964.00,0.0005
3963.00,0.0005
3962.00,0.0005
3961.00,0.0005
3960.00,0.0005
3959.00,0.0005
3958.00,0.0005
3957.00,0.0005
3956.00,0.0006
3955.00,0.0006
3954.00,0.0006
3953.00,0.0006
3952.00,0.0006
3951.00,0.0006
3950.00,0.0006
3949.00,0.0006
3948.00,0.0006
3947.00,0.0006
3946.00,0.0006
3945.00,0.0006
3944.00,0.0006
3943.00,0.0006
3942.00,0.0006
3941.00,0.0006
3940.00,0.0006
3939.00,0.0005
3938.00,0.0005
3937.00,0.0005
3936.00,0.0005
3935.00,0.0006
3934.00,0.0006
3933.00,0.0006
3932.00,0.0006
3931.00,0.0006
3930.00,0.0006
3929.00,0.0006
3928.00,0.0006
3927.00,0.0006
3926.00,0.0005
3925.00,0.0005
3924.00,0.0005
3923.00,0.0006
3922.00,0.0006
3921.00,0.0006
3920.00,0.0006
3919.00,0.0006
3918.00,0.0006
3917.00,0.0006
3916.00,0.0006
3915.00,0.0006
3914.00,0.0006
3913.00,0.0006
3912.00,0.0005
3911.00,0.0005
3910.00,0.0005
3909.00,0.0006
3908.00,0.0006
3907.00,0.0006
3906.00,0.0007
3905.00,0.0008
3904.00,0.0008
3903.00,0.0009
3902.00,0.0009
3901.00,0.0010
3900.00,0.0010
3899.00,0.0009
3898.00,0.0009
3897.00,0.0008
3896.00,0.0008
3895.00,0.0007
3894.00,0.0007
3893.00,0.0007
3892.00,0.0007
3891.00,0.0007
3890.00,0.0007
3889.00,0.0008
3888.00,0.0008
3887.00,0.0008
3886.00,0.0008
3885.00,0.0008
3884.00,0.0008
3883.00,0.0008
3882.00,0.0008
3881.00,0.0008
3880.00,0.0008
3879.00,0.0007
3878.00,0.0007
3877.00,0.0007
3876.00,0.0007
3875.00,0.0007
3874.00,0.0007
3873.00,0.0008
3872.00,0.0008
3871.00,0.0009
3870.00,0.0009
3869.00,0.0009
3868.00,0.0009
3867.00,0.0010
3866.00,0.0010
3865.00,0.0010
3864.00,0.0009
3863.00,0.0009
3862.00,0.0008
3861.00,0.0008
3860.00,0.0008
3859.00,0.0008
3858.00,0.0008
3857.00,0.0009
3856.00,0.0010
3855.00,0.0011
3854.00,0.0012
3853.00,0.0012
3852.00,0.0012
3851.00,0.0013
3850.00,0.0012
3849.00,0.0011
3848.00,0.0009
3847.00,0.0008
3846.00,0.0007
3845.00,0.0007
3844.00,0.0007
3843.00,0.0008
3842.00,0.0008
3841.00,0.0009
3840.00,0.0010
3839.00,0.0011
3838.00,0.0011
3837.00,0.0010
3836.00,0.0010
3835.00,0.0010
3834.00,0.0010
3833.00,0.0010
3832.00,0.0009
3831.00,0.0009
3830.00,0.0008
3829.00,0.0008
3828.00,0.0008
3827.00,0.0008
3826.00,0.0008
3825.00,0.0008
3824.00,0.0009
3823.00,0.0009
3822.00,0.0010
3821.00,0.0010
3820.00,0.0010
3819.00,0.0010
3818.00,0.0010
3817.00,0.0010
3816.00,0.0009
3815.00,0.0009
3814.00,0.0008
3813.00,0.0008
3812.00,0.0007
3811.00,0.0007
3810.00,0.0007
3809.00,0.0007
3808.00,0.0007
3807.00,0.0007
3806.00,0.0008
3805.00,0.0009
3804.00,0.0010
3803.00,0.0011
3802.00,0.0011
3801.00,0.0010
3800.00,0.0010
3799.00,0.0010
3798.00,0.0009
3797.00,0.0008
3796.00,0.0008
3795.00,0.0007
3794.00,0.0007
3793.00,0.0006
3792.00,0.0006
3791.00,0.0006
3790.00,0.0006
3789.00,0.0006
3788.00,0.0006
3787.00,0.0006
3786.00,0.0006
3785.00,0.0006
3784.00,0.0006
3783.00,0.0006
3782.00,0.0007
3781.00,0.0007
3780.00,0.0007
3779.00,0.0006
3778.00,0.0006
3777.00,0.0006
3776.00,0.0006
3775.00,0.0006
3774.00,0.0007
3773.00,0.0007
3772.00,0.0007
3771.00,0.0007
3770.00,0.0007
3769.00,0.0007
3768.00,0.0007
3767.00,0.0007
3766.00,0.0007
3765.00,0.0007
3764.00,0.0007
3763.00,0.0007
3762.00,0.0008
3761.00,0.0008
3760.00,0.0008
3759.00,0.0008
3758.00,0.0008
3757.00,0.0008
3756.00,0.0009
3755.00,0.0009
3754.00,0.0010
3753.00,0.0011
3752.00,0.0011
3751.00,0.0012
3750.00,0.0012
3749.00,0.0013
3748.00,0.0014
3747.00,0.0014
3746.00,0.0014
3745.00,0.0014
3744.00,0.0014
3743.00,0.0013
3742.00,0.0012
3741.00,0.0012
3740.00,0.0011
3739.00,0.0011
3738.00,0.0011
3737.00,0.0011
3736.00,0.0010
3735.00,0.0010
3734.00,0.0010
3733.00,0.0010
3732.00,0.0009
3731.00,0.0009
3730.00,0.0008
3729.00,0.0008
3728.00,0.0008
3727.00,0.0007
3726.00,0.0007
3725.00,0.0007
3724.00,0.0007
3723.00,0.0007
3722.00,0.0007
3721.00,0.0007
3720.00,0.0007
3719.00,0.0007
3718.00,0.0006
3717.00,0.0006
3716.00,0.0006
3715.00,0.0007
3714.00,0.0007
3713.00,0.0008
3712.00,0.0009
3711.00,0.0009
3710.00,0.0009
3709.00,0.0008
3708.00,0.0008
3707.00,0.0007
3706.00,0.0007
3705.00,0.0006
3704.00,0.0006
3703.00,0.0006
3702.00,0.0005
3701.00,0.0005
3700.00,0.0005
3699.00,0.0005
3698.00,0.0005
3697.00,0.0005
3696.00,0.0005
3695.00,0.0005
3694.00,0.0005
3693.00,0.0006
3692.00,0.0006
3691.00,0.0007
3690.00,0.0008
3689.00,0.0008
3688.00,0.0008
3687.00,0.0008
3686.00,0.0008
3685.00,0.0007
3684.00,0.0006
3683.00,0.0006
3682.00,0.0005
3681.00,0.0005
3680.00,0.0006
3679.00,0.0007
3678.00,0.0008
3677.00,0.0009
3676.00,0.0010
3675.00,0.0010
3674.00,0.0011
3673.00,0.0011
3672.00,0.0011
3671.00,0.0011
3670.00,0.0010
3669.00,0.0009
3668.00,0.0009
3667.00,0.0008
3666.00,0.0008
3665.00,0.0007
3664.00,0.0007
3663.00,0.0006
3662.00,0.0005
3661.00,0.0005
3660.00,0.0006
3659.00,0.0006
3658.00,0.0007
3657.00,0.0007
3656.00,0.0007
3655.00,0.0008
3654.00,0.0008
3653.00,0.0009
3652.00,0.0010
3651.00,0.0011
3650.00,0.0011
3649.00,0.0011
3648.00,0.0011
3647.00,0.0011
3646.00,0.0011
3645.00,0.0010
3644.00,0.0010
3643.00,0.0009
3642.00,0.0008
3641.00,0.0008
3640.00,0.0008
3639.00,0.0007
3638.00,0.0007
3637.00,0.0007
3636.00,0.0007
3635.00,0.0007
3634.00,0.0008
3633.00,0.0009
3632.00,0.0010
3631.00,0.0011
3630.00,0.0012
3629.00,0.0012
3628.00,0.0012
3627.00,0.0012
3626.00,0.0012
3625.00,0.0011
3624.00,0.0011
3623.00,0.0010
3622.00,0.0010
3621.00,0.0011
3620.00,0.0011
3619.00,0.0012
3618.00,0.0012
3617.00,0.0013
3616.00,0.0013
3615.00,0.0013
3614.00,0.0013
3613.00,0.0013
3612.00,0.0013
3611.00,0.0013
3610.00,0.0013
3609.00,0.0013
3608.00,0.0013
3607.00,0.0013
3606.00,0.0013
3605.00,0.0013
3604.00,0.0013
3603.00,0.0012
3602.00,0.0012
3601.00,0.0012
3600.00,0.0013
3599.00,0.0013
3598.00,0.0013
3597.00,0.0013
3596.00,0.0013
3595.00,0.0013
3594.00,0.0013
3593.00,0.0014
3592.00,0.0014
3591.00,0.0015
3590.00,0.0015
3589.00,0.0016
3588.00,0.0016
3587.00,0.0016
3586.00,0.0016
3585.00,0.0016
3584.00,0.0016
3583.00,0.0016
3582.00,0.0016
3581.00,0.0016
3580.00,0.0016
3579.00,0.0016
3578.00,0.0016
3577.00,0.0017
3576.00,0.0017
3575.00,0.0017
3574.00,0.0017
3573.00,0.0017
3572.00,0.0017
3571.00,0.0018
3570.00,0.0019
3569.00,0.0020
3568.00,0.0020
3567.00,0.0020
3566.00,0.0020
3565.00,0.0020
3564.00,0.0020
3563.00,0.0020
3562.00,0.0021
3561.00,0.0021
3560.00,0.0021
3559.00,0.0020
3558.00,0.0020
3557.00,0.0020
3556.00,0.0020
3555.00,0.0021
3554.00,0.0021
3553.00,0.0021
3552.00,0.0022
3551.00,0.0022
3550.00,0.0023
3549.00,0.0023
3548.00,0.0023
3547.00,0.0023
3546.00,0.0023
3545.00,0.0024
3544.00,0.0024
3543.00,0.0024
3542.00,0.0024
3541.00,0.0024
3540.00,0.0024
3539.00,0.0025
3538.00,0.0025
3537.00,0.0025
3536.00,0.0026
3535.00,0.0026
3534.00,0.0026
3533.00,0.0026
3532.00,0.0026
3531.00,0.0026
3530.00,0.0026
3529.00,0.0027
3528.00,0.0027
3527.00,0.0028
3526.00,0.0028
3525.00,0.0028
3524.00,0.0029
3523.00,0.0029
3522.00,0.0029
3521.00,0.0029
3520.00,0.0029
3519.00,0.0029
3518.00,0.0029
3517.00,0.0029
3516.00,0.0029
3515.00,0.0030
3514.00,0.0030
3513.00,0.0030
3512.00,0.0030
3511.00,0.0030
3510.00,0.0030
3509.00,0.0030
3508.00,0.0031
3507.00,0.0031
3506.00,0.0031
3505.00,0.0032
3504.00,0.0032
3503.00,0.0032
3502.00,0.0032
3501.00,0.0032
3500.00,0.0032
3499.00,0.0032
3498.00,0.0032
3497.00,0.0032
3496.00,0.0032
3495.00,0.0032
3494.00,0.0032
3493.00,0.0032
3492.00,0.0033
3491.00,0.0033
3490.00,0.0033
3489.00,0.0033
3488.00,0.0033
3487.00,0.0033
3486.00,0.0033
3485.00,0.0033
3484.00,0.0034
3483.00,0.0034
3482.00,0.0034
3481.00,0.0034
3480.00,0.0034
3479.00,0.0034
3478.00,0.0035
3477.00,0.0035
3476.00,0.0035
3475.00,0.0035
3474.00,0.0035
3473.00,0.0036
3472.00,0.0036
3471.00,0.0036
3470.00,0.0036
3469.00,0.0036
3468.00,0.0036
3467.00,0.0036
3466.00,0.0036
3465.00,0.0036
3464.00,0.0036
3463.00,0.0036
3462.00,0.0036
3461.00,0.0037
3460.00,0.0037
3459.00,0.0038
3458.00,0.0038
3457.00,0.0038
3456.00,0.0038
3455.00,0.0038
3454.00,0.0039
3453.00,0.0039
3452.00,0.0039
3451.00,0.0039
3450.00,0.0040
3449.00,0.0040
3448.00,0.0040
3447.00,0.0040
3446.00,0.0040
3445.00,0.0040
3444.00,0.0040
3443.00,0.0040
3442.00,0.0040
3441.00,0.0041
3440.00,0.0041
3439.00,0.0041
3438.00,0.0041
3437.00,0.0041
3436.00,0.0042
3435.00,0.0042
3434.00,0.0042
3433.00,0.0042
3432.00,0.0042
3431.00,0.0042
3430.00,0.0042
3429.00,0.0042
3428.00,0.0043
3427.00,0.0043
3426.00,0.0043
3425.00,0.0044
3424.00,0.0044
3423.00,0.0044
3422.00,0.0044
3421.00,0.0045
3420.00,0.0045
3419.00,0.0045
3418.00,0.0046
3417.00,0.0046
3416.00,0.0047
3415.00,0.0047
3414.00,0.0047
3413.00,0.0048
3412.00,0.0048
3411.00,0.0048
3410.00,0.0049
3409.00,0.0049
3408.00,0.0049
3407.00,0.0050
3406.00,0.0050
3405.00,0.0051
3404.00,0.0051
3403.00,0.0052
3402.00,0.0052
3401.00,0.0052
3400.00,0.0052
3399.00,0.0053
3398.00,0.0053
3397.00,0.0053
3396.00,0.0053
3395.00,0.0053
3394.00,0.0053
3393.00,0.0053
3392.00,0.0053
3391.00,0.0053
3390.00,0.0053
3389.00,0.0053
3388.00,0.0052
3387.00,0.0052
3386.00,0.0052
3385.00,0.0052
3384.00,0.0052
3383.00,0.0051
3382.00,0.0051
3381.00,0.0051
3380.00,0.0050
3379.00,0.0049
3378.00,0.0049
3377.00,0.0048
3376.00,0.0048
3375.00,0.0048
3374.00,0.0047
3373.00,0.0047
3372.00,0.0046
3371.00,0.0046
3370.00,0.0045
3369.00,0.0045
3368.00,0.0044
3367.00,0.0044
3366.00,0.0044
3365.00,0.0044
3364.00,0.0044
3363.00,0.0043
3362.00,0.0043
3361.00,0.0043
3360.00,0.0042
3359.00,0.0042
3358.00,0.0041
3357.00,0.0041
3356.00,0.0041
3355.00,0.0040
3354.00,0.0040
3353.00,0.0039
3352.00,0.0039
3351.00,0.0039
3350.00,0.0039
3349.00,0.0038
3348.00,0.0038
3347.00,0.0038
3346.00,0.0037
3345.00,0.0037
3344.00,0.0037
3343.00,0.0036
3342.00,0.0036
3341.00,0.0036
3340.00,0.0036
3339.00,0.0036
3338.00,0.0036
3337.00,0.0036
3336.00,0.0035
3335.00,0.0035
3334.00,0.0035
3333.00,0.0034
3332.00,0.0034
3331.00,0.0034
3330.00,0.0034
3329.00,0.0034
3328.00,0.0034
3327.00,0.0033
3326.00,0.0033
3325.00,0.0033
3324.00,0.0032
3323.00,0.0032
3322.00,0.0032
3321.00,0.0033
3320.00,0.0033
3319.00,0.0033
3318.00,0.0033
3317.00,0.0033
3316.00,0.0032
3315.00,0.0032
3314.00,0.0032
3313.00,0.0033
3312.00,0.0033
3311.00,0.0033
3310.00,0.0033
3309.00,0.0033
3308.00,0.0032
3307.00,0.0032
3306.00,0.0032
3305.00,0.0032
3304.00,0.0032
3303.00,0.0032
3302.00,0.0032
3301.00,0.0033
3300.00,0.0033
3299.00,0.0033
3298.00,0.0033
3297.00,0.0033
3296.00,0.0033
3295.00,0.0033
3294.00,0.0033
3293.00,0.0033
3292.00,0.0033
3291.00,0.0034
3290.00,0.0034
3289.00,0.0034
3288.00,0.0033
3287.00,0.0033
3286.00,0.0033
3285.00,0.0033
3284.00,0.0033
3283.00,0.0034
3282.00,0.0034
3281.00,0.0034
3280.00,0.0034
3279.00,0.0035
3278.00,0.0035
3277.00,0.0035
3276.00,0.0035
3275.00,0.0035
3274.00,0.0035
3273.00,0.0035
3272.00,0.0035
3271.00,0.0035
3270.00,0.0035
3269.00,0.0036
3268.00,0.0036
3267.00,0.0036
3266.00,0.0036
3265.00,0.0036
3264.00,0.0036
3263.00,0.0036
3262.00,0.0036
3261.00,0.0036
3260.00,0.0036
3259.00,0.0036
3258.00,0.0036
3257.00,0.0036
3256.00,0.0036
3255.00,0.0036
3254.00,0.0036
3253.00,0.0037
3252.00,0.0037
3251.00,0.0037
3250.00,0.0037
3249.00,0.0037
3248.00,0.0037
3247.00,0.0037
3246.00,0.0037
3245.00,0.0038
3244.00,0.0038
3243.00,0.0038
3242.00,0.0038
3241.00,0.0039
3240.00,0.0039
3239.00,0.0039
3238.00,0.0039
3237.00,0.0039
3236.00,0.0038
3235.00,0.0038
3234.00,0.0038
3233.00,0.0038
3232.00,0.0038
3231.00,0.0038
3230.00,0.0039
3229.00,0.0039
3228.00,0.0039
3227.00,0.0038
3226.00,0.0038
3225.00,0.0038
3224.00,0.0039
3223.00,0.0039
3222.00,0.0039
3221.00,0.0039
3220.00,0.0039
3219.00,0.0039
3218.00,0.0039
3217.00,0.0039
3216.00,0.0039
3215.00,0.0039
3214.00,0.0039
3213.00,0.0039
3212.00,0.0039
3211.00,0.0038
3210.00,0.0038
3209.00,0.0038
3208.00,0.0038
3207.00,0.0038
3206.00,0.0038
3205.00,0.0037
3204.00,0.0037
3203.00,0.0037
3202.00,0.0037
3201.00,0.0036
3200.00,0.0036
3199.00,0.0036
3198.00,0.0036
3197.00,0.0035
3196.00,0.0035
3195.00,0.0035
3194.00,0.0035
3193.00,0.0035
3192.00,0.0035
3191.00,0.0035
3190.00,0.0034
3189.00,0.0034
3188.00,0.0034
3187.00,0.0034
3186.00,0.0033
3185.00,0.0033
3184.00,0.0033
3183.00,0.0033
3182.00,0.0032
3181.00,0.0032
3180.00,0.0032
3179.00,0.0032
3178.00,0.0031
3177.00,0.0031
3176.00,0.0030
3175.00,0.0030
3174.00,0.0029
3173.00,0.0029
3172.00,0.0029
3171.00,0.0029
3170.00,0.0029
3169.00,0.0029
3168.00,0.0028
3167.00,0.0028
3166.00,0.0028
3165.00,0.0028
3164.00,0.0027
3163.00,0.0027
3162.00,0.0026
3161.00,0.0026
3160.00,0.0026
3159.00,0.0026
3158.00,0.0026
3157.00,0.0025
3156.00,0.0025
3155.00,0.0025
3154.00,0.0024
3153.00,0.0024
3152.00,0.0024
3151.00,0.0024
3150.00,0.0023
3149.00,0.0023
3148.00,0.0023
3147.00,0.0023
3146.00,0.0022
3145.00,0.0022
3144.00,0.0022
3143.00,0.0022
3142.00,0.0022
3141.00,0.0022
3140.00,0.0022
3139.00,0.0022
3138.00,0.0021
3137.00,0.0021
3136.00,0.0021
3135.00,0.0021
3134.00,0.0020
3133.00,0.0020
3132.00,0.0020
3131.00,0.0020
3130.00,0.0020
3129.00,0.0019
3128.00,0.0019
3127.00,0.0019
3126.00,0.0019
3125.00,0.0019
3124.00,0.0019
3123.00,0.0019
3122.00,0.0019
3121.00,0.0019
3120.00,0.0018
3119.00,0.0018
3118.00,0.0018
3117.00,0.0018
3116.00,0.0017
3115.00,0.0017
3114.00,0.0017
3113.00,0.0017
3112.00,0.0017
3111.00,0.0017
3110.00,0.0017
3109.00,0.0017
3108.00,0.0016
3107.00,0.0016
3106.00,0.0016
3105.00,0.0016
3104.00,0.0015
3103.00,0.0015
3102.00,0.0015
3101.00,0.0015
3100.00,0.0015
3099.00,0.0015
3098.00,0.0015
3097.00,0.0015
3096.00,0.0015
3095.00,0.0014
3094.00,0.0015
3093.00,0.0015
3092.00,0.0015
3091.00,0.0015
3090.00,0.0015
3089.00,0.0015
3088.00,0.0015
3087.00,0.0015
3086.00,0.0015
3085.00,0.0015
3084.00,0.0015
3083.00,0.0014
3082.00,0.0014
3081.00,0.0014
3080.00,0.0014
3079.00,0.0014
3078.00,0.0014
3077.00,0.0014
3076.00,0.0014
3075.00,0.0013
3074.00,0.0013
3073.00,0.0013
3072.00,0.0013
3071.00,0.0013
3070.00,0.0013
3069.00,0.0013
3068.00,0.0013
3067.00,0.0013
3066.00,0.0013
3065.00,0.0013
3064.00,0.0013
3063.00,0.0013
3062.00,0.0013
3061.00,0.0013
3060.00,0.0013
3059.00,0.0013
3058.00,0.0013
3057.00,0.0013
3056.00,0.0013
3055.00,0.0013
3054.00,0.0013
3053.00,0.0013
3052.00,0.0013
3051.00,0.0013
3050.00,0.0013
3049.00,0.0013
3048.00,0.0013
3047.00,0.0013
3046.00,0.0013
3045.00,0.0013
3044.00,0.0012
3043.00,0.0012
3042.00,0.0013
3041.00,0.0013
3040.00,0.0013
3039.00,0.0013
3038.00,0.0013
3037.00,0.0013
3036.00,0.0013
3035.00,0.0013
3034.00,0.0013
3033.00,0.0013
3032.00,0.0013
3031.00,0.0013
3030.00,0.0013
3029.00,0.0012
3028.00,0.0012
3027.00,0.0012
3026.00,0.0012
3025.00,0.0012
3024.00,0.0013
3023.00,0.0013
3022.00,0.0013
3021.00,0.0013
3020.00,0.0013
3019.00,0.0012
3018.00,0.0012
3017.00,0.0012
3016.00,0.0012
3015.00,0.0012
3014.00,0.0013
3013.00,0.0013
3012.00,0.0013
3011.00,0.0013
3010.00,0.0014
3009.00,0.0014
3008.00,0.0015
3007.00,0.0015
3006.00,0.0016
3005.00,0.0016
3004.00,0.0017
3003.00,0.0017
3002.00,0.0018
3001.00,0.0019
3000.00,0.0020
2999.00,0.0021
2998.00,0.0021
2997.00,0.0022
2996.00,0.0023
2995.00,0.0023
2994.00,0.0023
2993.00,0.0023
2992.00,0.0023
2991.00,0.0023
2990.00,0.0023
2989.00,0.0023
2988.00,0.0023
2987.00,0.0023
2986.00,0.0024
2985.00,0.0024
2984.00,0.0024
2983.00,0.0025
2982.00,0.0025
2981.00,0.0026
2980.00,0.0026
2979.00,0.0026
2978.00,0.0027
2977.00,0.0027
2976.00,0.0028
2975.00,0.0029
2974.00,0.0031
2973.00,0.0033
2972.00,0.0034
2971.00,0.0035
2970.00,0.0036
2969.00,0.0037
2968.00,0.0038
2967.00,0.0039
2966.00,0.0040
2965.00,0.0042
2964.00,0.0043
2963.00,0.0045
2962.00,0.0045
2961.00,0.0045
2960.00,0.0044
2959.00,0.0043
2958.00,0.0041
2957.00,0.0040
2956.00,0.0040
2955.00,0.0039
2954.00,0.0039
2953.00,0.0039
2952.00,0.0040
2951.00,0.0040
2950.00,0.0041
2949.00,0.0042
2948.00,0.0043
2947.00,0.0044
2946.00,0.0044
2945.00,0.0045
2944.00,0.0045
2943.00,0.0045
2942.00,0.0045
2941.00,0.0046
2940.00,0.0047
2939.00,0.0048
2938.00,0.0049
2937.00,0.0051
2936.00,0.0054
2935.00,0.0056
2934.00,0.0059
2933.00,0.0061
2932.00,0.0064
2931.00,0.0066
2930.00,0.0068
2929.00,0.0070
2928.00,0.0071
2927.00,0.0071
2926.00,0.0071
2925.00,0.0071
2924.00,0.0069
2923.00,0.0068
2922.00,0.0066
2921.00,0.0064
2920.00,0.0062
2919.00,0.0060
2918.00,0.0058
2917.00,0.0056
2916.00,0.0054
2915.00,0.0053
2914.00,0.0052
2913.00,0.0051
2912.00,0.0050
2911.00,0.0049
2910.00,0.0048
2909.00,0.0048
2908.00,0.0047
2907.00,0.0046
2906.00,0.0045
2905.00,0.0044
2904.00,0.0043
2903.00,0.0043
2902.00,0.0042
2901.00,0.0042
2900.00,0.0041
2899.00,0.0041
2898.00,0.0040
2897.00,0.0040
2896.00,0.0040
2895.00,0.0039
2894.00,0.0039
2893.00,0.0039
2892.00,0.0039
2891.00,0.0038
2890.00,0.0038
2889.00,0.0037
2888.00,0.0037
2887.00,0.0037
2886.00,0.0037
2885.00,0.0036
2884.00,0.0036
2883.00,0.0036
2882.00,0.0036
2881.00,0.0036
2880.00,0.0037
2879.00,0.0037
2878.00,0.0037
2877.00,0.0038
2876.00,0.0038
2875.00,0.0039
2874.00,0.0039
2873.00,0.0039
2872.00,0.0039
2871.00,0.0038
2870.00,0.0038
2869.00,0.0038
2868.00,0.0039
2867.00,0.0039
2866.00,0.0039
2865.00,0.0040
2864.00,0.0041
2863.00,0.0043
2862.00,0.0044
2861.00,0.0046
2860.00,0.0048
2859.00,0.0049
2858.00,0.0050
2857.00,0.0051
2856.00,0.0051
2855.00,0.0050
2854.00,0.0050
2853.00,0.0049
2852.00,0.0049
2851.00,0.0048
2850.00,0.0047
2849.00,0.0045
2848.00,0.0043
2847.00,0.0041
2846.00,0.0038
2845.00,0.0036
2844.00,0.0034
2843.00,0.0033
2842.00,0.0031
2841.00,0.0030
2840.00,0.0029
2839.00,0.0027
2838.00,0.0026
2837.00,0.0025
2836.00,0.0025
2835.00,0.0024
2834.00,0.0023
2833.00,0.0022
2832.00,0.0022
2831.00,0.0021
2830.00,0.0021
2829.00,0.0021
2828.00,0.0020
2827.00,0.0020
2826.00,0.0019
2825.00,0.0019
2824.00,0.0018
2823.00,0.0018
2822.00,0.0018
2821.00,0.0018
2820.00,0.0017
2819.00,0.0017
2818.00,0.0017
2817.00,0.0016
2816.00,0.0016
2815.00,0.0016
2814.00,0.0016
2813.00,0.0015
2812.00,0.0015
2811.00,0.0015
2810.00,0.0015
2809.00,0.0015
2808.00,0.0015
2807.00,0.0015
2806.00,0.0015
2805.00,0.0015
2804.00,0.0014
2803.00,0.0014
2802.00,0.0014
2801.00,0.0014
2800.00,0.0014
2799.00,0.0014
2798.00,0.0014
2797.00,0.0013
2796.00,0.0013
2795.00,0.0013
2794.00,0.0013
2793.00,0.0013
2792.00,0.0013
2791.00,0.0013
2790.00,0.0013
2789.00,0.0013
2788.00,0.0012
2787.00,0.0012
2786.00,0.0012
2785.00,0.0012
2784.00,0.0013
2783.00,0.0013
2782.00,0.0013
2781.00,0.0013
2780.00,0.0013
2779.00,0.0013
2778.00,0.0012
2777.00,0.0012
2776.00,0.0012
2775.00,0.0012
2774.00,0.0012
2773.00,0.0012
2772.00,0.0012
2771.00,0.0012
2770.00,0.0012
2769.00,0.0012
2768.00,0.0012
2767.00,0.0012
2766.00,0.0011
2765.00,0.0011
2764.00,0.0011
2763.00,0.0011
2762.00,0.0011
2761.00,0.0011
2760.00,0.0012
2759.00,0.0012
2758.00,0.0012
2757.00,0.0012
2756.00,0.0012
2755.00,0.0012
2754.00,0.0012
2753.00,0.0012
2752.00,0.0012
2751.00,0.0012
2750.00,0.0012
2749.00,0.0012
2748.00,0.0012
2747.00,0.0012
2746.00,0.0012
2745.00,0.0012
2744.00,0.0012
2743.00,0.0012
2742.00,0.0012
2741.00,0.0012
2740.00,0.0012
2739.00,0.0012
2738.00,0.0012
2737.00,0.0012
2736.00,0.0012
2735.00,0.0012
2734.00,0.0012
2733.00,0.0012
2732.00,0.0012
2731.00,0.0012
2730.00,0.0012
2729.00,0.0012
2728.00,0.0012
2727.00,0.0012
2726.00,0.0012
2725.00,0.0012
2724.00,0.0012
2723.00,0.0012
2722.00,0.0012
2721.00,0.0012
2720.00,0.0012
2719.00,0.0012
2718.00,0.0012
2717.00,0.0012
2716.00,0.0012
2715.00,0.0012
2714.00,0.0012
2713.00,0.0012
2712.00,0.0012
2711.00,0.0012
2710.00,0.0012
2709.00,0.0012
2708.00,0.0012
2707.00,0.0012
2706.00,0.0012
2705.00,0.0012
2704.00,0.0012
2703.00,0.0012
2702.00,0.0012
2701.00,0.0012
2700.00,0.0012
2699.00,0.0012
2698.00,0.0012
2697.00,0.0012
2696.00,0.0012
2695.00,0.0011
2694.00,0.0011
2693.00,0.0011
2692.00,0.0011
2691.00,0.0011
2690.00,0.0011
2689.00,0.0011
2688.00,0.0011
2687.00,0.0011
2686.00,0.0011
2685.00,0.0011
2684.00,0.0011
2683.00,0.0011
2682.00,0.0011
2681.00,0.0011
2680.00,0.0011
2679.00,0.0011
2678.00,0.0011
2677.00,0.0011
2676.00,0.0011
2675.00,0.0011
2674.00,0.0011
2673.00,0.0011
2672.00,0.0011
2671.00,0.0011
2670.00,0.0011
2669.00,0.0012
2668.00,0.0012
2667.00,0.0012
2666.00,0.0012
2665.00,0.0012
2664.00,0.0013
2663.00,0.0013
2662.00,0.0014
2661.00,0.0014
2660.00,0.0014
2659.00,0.0015
2658.00,0.0015
2657.00,0.0015
2656.00,0.0015
2655.00,0.0016
2654.00,0.0016
2653.00,0.0016
2652.00,0.0016
2651.00,0.0016
2650.00,0.0016
2649.00,0.0016
2648.00,0.0016
2647.00,0.0016
2646.00,0.0016
2645.00,0.0016
2644.00,0.0016
2643.00,0.0016
2642.00,0.0016
2641.00,0.0016
2640.00,0.0016
2639.00,0.0016
2638.00,0.0016
2637.00,0.0016
2636.00,0.0016
2635.00,0.0016
2634.00,0.0015
2633.00,0.0015
2632.00,0.0015
2631.00,0.0015
2630.00,0.0015
2629.00,0.0015
2628.00,0.0015
2627.00,0.0015
2626.00,0.0015
2625.00,0.0014
2624.00,0.0014
2623.00,0.0014
2622.00,0.0014
2621.00,0.0014
2620.00,0.0015
2619.00,0.0015
2618.00,0.0014
2617.00,0.0014
2616.00,0.0014
2615.00,0.0014
2614.00,0.0014
2613.00,0.0013
2612.00,0.0013
2611.00,0.0013
2610.00,0.0013
2609.00,0.0013
2608.00,0.0013
2607.00,0.0013
2606.00,0.0013
2605.00,0.0013
2604.00,0.0013
2603.00,0.0013
2602.00,0.0014
2601.00,0.0014
2600.00,0.0013
2599.00,0.0013
2598.00,0.0013
2597.00,0.0013
2596.00,0.0012
2595.00,0.0012
2594.00,0.0012
2593.00,0.0012
2592.00,0.0012
2591.00,0.0012
2590.00,0.0012
2589.00,0.0012
2588.00,0.0012
2587.00,0.0012
2586.00,0.0012
2585.00,0.0012
2584.00,0.0012
2583.00,0.0012
2582.00,0.0012
2581.00,0.0012
2580.00,0.0012
2579.00,0.0012
2578.00,0.0012
2577.00,0.0012
2576.00,0.0012
2575.00,0.0011
2574.00,0.0011
2573.00,0.0011
2572.00,0.0010
2571.00,0.0010
2570.00,0.0010
2569.00,0.0010
2568.00,0.0010
2567.00,0.0010
2566.00,0.0010
2565.00,0.0010
2564.00,0.0010
2563.00,0.0010
2562.00,0.0010
2561.00,0.0010
2560.00,0.0010
2559.00,0.0010
2558.00,0.0010
2557.00,0.0010
2556.00,0.0010
2555.00,0.0009
2554.00,0.0010
2553.00,0.0010
2552.00,0.0010
2551.00,0.0010
2550.00,0.0010
2549.00,0.0010
2548.00,0.0010
2547.00,0.0010
2546.00,0.0010
2545.00,0.0010
2544.00,0.0010
2543.00,0.0010
2542.00,0.0009
2541.00,0.0009
2540.00,0.0009
2539.00,0.0009
2538.00,0.0009
2537.00,0.0009
2536.00,0.0009
2535.00,0.0009
2534.00,0.0009
2533.00,0.0009
2532.00,0.0009
2531.00,0.0009
2530.00,0.0009
2529.00,0.0009
2528.00,0.0009
2527.00,0.0009
2526.00,0.0009
2525.00,0.0009
2524.00,0.0009
2523.00,0.0009
2522.00,0.0009
2521.00,0.0009
2520.00,0.0009
2519.00,0.0009
2518.00,0.0009
2517.00,0.0009
2516.00,0.0009
2515.00,0.0009
2514.00,0.0008
2513.00,0.0008
2512.00,0.0008
2511.00,0.0008
2510.00,0.0008
2509.00,0.0008
2508.00,0.0008
2507.00,0.0008
2506.00,0.0008
2505.00,0.0007
2504.00,0.0007
2503.00,0.0008
2502.00,0.0008
2501.00,0.0008
2500.00,0.0008
2499.00,0.0008
2498.00,0.0009
2497.00,0.0009
2496.00,0.0009
2495.00,0.0009
2494.00,0.0009
2493.00,0.0009
2492.00,0.0008
2491.00,0.0008
2490.00,0.0007
2489.00,0.0007
2488.00,0.0008
2487.00,0.0008
2486.00,0.0008
2485.00,0.0008
2484.00,0.0008
2483.00,0.0008
2482.00,0.0007
2481.00,0.0007
2480.00,0.0007
2479.00,0.0007
2478.00,0.0007
2477.00,0.0007
2476.00,0.0007
2475.00,0.0007
2474.00,0.0007
2473.00,0.0007
2472.00,0.0007
2471.00,0.0008
2470.00,0.0008
2469.00,0.0007
2468.00,0.0007
2467.00,0.0007
2466.00,0.0007
2465.00,0.0008
2464.00,0.0008
2463.00,0.0008
2462.00,0.0008
2461.00,0.0008
2460.00,0.0008
2459.00,0.0008
2458.00,0.0008
2457.00,0.0008
2456.00,0.0009
2455.00,0.0009
2454.00,0.0009
2453.00,0.0009
2452.00,0.0009
2451.00,0.0009
2450.00,0.0009
2449.00,0.0008
2448.00,0.0008
2447.00,0.0008
2446.00,0.0008
2445.00,0.0008
2444.00,0.0008
2443.00,0.0007
2442.00,0.0007
2441.00,0.0007
2440.00,0.0007
2439.00,0.0007
2438.00,0.0007
2437.00,0.0007
2436.00,0.0007
2435.00,0.0007
2434.00,0.0007
2433.00,0.0007
2432.00,0.0007
2431.00,0.0006
2430.00,0.0006
2429.00,0.0006
2428.00,0.0006
2427.00,0.0006
2426.00,0.0006
2425.00,0.0006
2424.00,0.0006
2423.00,0.0005
2422.00,0.0005
2421.00,0.0005
2420.00,0.0005
2419.00,0.0006
2418.00,0.0006
2417.00,0.0006
2416.00,0.0006
2415.00,0.0006
2414.00,0.0006
2413.00,0.0005
2412.00,0.0005
2411.00,0.0005
2410.00,0.0006
2409.00,0.0006
2408.00,0.0006
2407.00,0.0005
2406.00,0.0005
2405.00,0.0005
2404.00,0.0004
2403.00,0.0004
2402.00,0.0004
2401.00,0.0004
2400.00,0.0004
2399.00,0.0004
2398.00,0.0004
2397.00,0.0004
2396.00,0.0004
2395.00,0.0004
2394.00,0.0004
2393.00,0.0004
2392.00,0.0004
2391.00,0.0004
2390.00,0.0004
2389.00,0.0004
2388.00,0.0004
2387.00,0.0004
2386.00,0.0003
2385.00,0.0003
2384.00,0.0002
2383.00,0.0001
2382.00,0.0001
2381.00,0.0000
2380.00,-0.0000
2379.00,-0.0001
2378.00,-0.0001
2377.00,-0.0001
2376.00,-0.0001
2375.00,-0.0001
2374.00,-0.0001
2373.00,-0.0000
2372.00,-0.0000
2371.00,-0.0001
2370.00,-0.0002
2369.00,-0.0002
2368.00,-0.0002
2367.00,-0.0001
2366.00,-0.0001
2365.00,-0.0000
2364.00,-0.0000
2363.00,-0.0001
2362.00,-0.0001
2361.00,-0.0001
2360.00,-0.0001
2359.00,-0.0001
2358.00,-0.0001
2357.00,-0.0000
2356.00,0.0000
2355.00,0.0001
2354.00,0.0001
2353.00,0.0001
2352.00,0.0001
2351.00,0.0001
2350.00,0.0001
2349.00,0.0001
2348.00,0.0002
2347.00,0.0002
2346.00,0.0002
2345.00,0.0002
2344.00,0.0002
2343.00,0.0002
2342.00,0.0003
2341.00,0.0003
2340.00,0.0004
2339.00,0.0005
2338.00,0.0005
2337.00,0.0005
2336.00,0.0005
2335.00,0.0005
2334.00,0.0006
2333.00,0.0006
2332.00,0.0005
2331.00,0.0005
2330.00,0.0006
2329.00,0.0007
2328.00,0.0011
2327.00,0.0014
2326.00,0.0017
2325.00,0.0019
2324.00,0.0018
2323.00,0.0015
2322.00,0.0013
2321.00,0.0011
2320.00,0.0010
2319.00,0.0010
2318.00,0.0010
2317.00,0.0010
2316.00,0.0010
2315.00,0.0010
2314.00,0.0009
2313.00,0.0008
2312.00,0.0008
2311.00,0.0007
2310.00,0.0007
2309.00,0.0007
2308.00,0.0007
2307.00,0.0007
2306.00,0.0007
2305.00,0.0008
2304.00,0.0008
2303.00,0.0009
2302.00,0.0010
2301.00,0.0010
2300.00,0.0011
2299.00,0.0010
2298.00,0.0010
2297.00,0.0011
2296.00,0.0011
2295.00,0.0013
2294.00,0.0014
2293.00,0.0015
2292.00,0.0016
2291.00,0.0016
2290.00,0.0017
2289.00,0.0017
2288.00,0.0018
2287.00,0.0018
2286.00,0.0018
2285.00,0.0017
2284.00,0.0017
2283.00,0.0016
2282.00,0.0016
2281.00,0.0016
2280.00,0.0016
2279.00,0.0015
2278.00,0.0015
2277.00,0.0014
2276.00,0.0014
2275.00,0.0014
2274.00,0.0014
2273.00,0.0015
2272.00,0.0015
2271.00,0.0015
2270.00,0.0015
2269.00,0.0014
2268.00,0.0013
2267.00,0.0012
2266.00,0.0012
2265.00,0.0011
2264.00,0.0011
2263.00,0.0011
2262.00,0.0011
2261.00,0.0012
2260.00,0.0012
2259.00,0.0012
2258.00,0.0011
2257.00,0.0011
2256.00,0.0010
2255.00,0.0009
2254.00,0.0008
2253.00,0.0008
2252.00,0.0008
2251.00,0.0008
2250.00,0.0009
2249.00,0.0009
2248.00,0.0009
2247.00,0.0010
2246.00,0.0010
2245.00,0.0010
2244.00,0.0011
2243.00,0.0011
2242.00,0.0011
2241.00,0.0011
2240.00,0.0011
2239.00,0.0011
2238.00,0.0011
2237.00,0.0012
2236.00,0.0013
2235.00,0.0013
2234.00,0.0012
2233.00,0.0011
2232.00,0.0010
2231.00,0.0010
2230.00,0.0010
2229.00,0.0011
2228.00,0.0011
2227.00,0.0011
2226.00,0.0012
2225.00,0.0012
2224.00,0.0012
2223.00,0.0012
2222.00,0.0012
2221.00,0.0011
2220.00,0.0011
2219.00,0.0011
2218.00,0.0011
2217.00,0.0011
2216.00,0.0010
2215.00,0.0011
2214.00,0.0011
2213.00,0.0012
2212.00,0.0012
2211.00,0.0012
2210.00,0.0012
2209.00,0.0012
2208.00,0.0012
2207.00,0.0012
2206.00,0.0011
2205.00,0.0011
2204.00,0.0011
2203.00,0.0011
2202.00,0.0011
2201.00,0.0011
2200.00,0.0011
2199.00,0.0011
2198.00,0.0010
2197.00,0.0009
2196.00,0.0009
2195.00,0.0009
2194.00,0.0010
2193.00,0.0011
2192.00,0.0013
2191.00,0.0013
2190.00,0.0014
2189.00,0.0014
2188.00,0.0015
2187.00,0.0015
2186.00,0.0014
2185.00,0.0013
2184.00,0.0011
2183.00,0.0009
2182.00,0.0008
2181.00,0.0009
2180.00,0.0010
2179.00,0.0011
2178.00,0.0010
2177.00,0.0009
2176.00,0.0007
2175.00,0.0006
2174.00,0.0007
2173.00,0.0009
2172.00,0.0012
2171.00,0.0015
2170.00,0.0018
2169.00,0.0019
2168.00,0.0020
2167.00,0.0020
2166.00,0.0020
2165.00,0.0020
2164.00,0.0021
2163.00,0.0021
2162.00,0.0016
2161.00,0.0006
2160.00,-0.0007
2159.00,-0.0017
2158.00,-0.0021
2157.00,-0.0020
2156.00,-0.0017
2155.00,-0.0013
2154.00,-0.0011
2153.00,-0.0009
2152.00,-0.0008
2151.00,-0.0007
2150.00,-0.0006
2149.00,-0.0006
2148.00,-0.0006
2147.00,-0.0005
2146.00,-0.0006
2145.00,-0.0006
2144.00,-0.0007
2143.00,-0.0008
2142.00,-0.0008
2141.00,-0.0007
2140.00,-0.0006
2139.00,-0.0006
2138.00,-0.0007
2137.00,-0.0009
2136.00,-0.0011
2135.00,-0.0013
2134.00,-0.0014
2133.00,-0.0012
2132.00,-0.0010
2131.00,-0.0008
2130.00,-0.0007
2129.00,-0.0006
2128.00,-0.0004
2127.00,-0.0003
2126.00,-0.0002
2125.00,-0.0001
2124.00,0.0000
2123.00,0.0001
2122.00,0.0003
2121.00,0.0004
2120.00,0.0004
2119.00,0.0005
2118.00,0.0006
2117.00,0.0007
2116.00,0.0007
2115.00,0.0008
2114.00,0.0008
2113.00,0.0009
2112.00,0.0009
2111.00,0.0008
2110.00,0.0007
2109.00,0.0007
2108.00,0.0006
2107.00,0.0006
2106.00,0.0006
2105.00,0.0006
2104.00,0.0007
2103.00,0.0006
2102.00,0.0006
2101.00,0.0006
2100.00,0.0006
2099.00,0.0006
2098.00,0.0005
2097.00,0.0004
2096.00,0.0003
2095.00,0.0002
2094.00,0.0002
2093.00,0.0003
2092.00,0.0004
2091.00,0.0005
2090.00,0.0006
2089.00,0.0006
2088.00,0.0007
2087.00,0.0007
2086.00,0.0007
2085.00,0.0008
2084.00,0.0008
2083.00,0.0008
2082.00,0.0009
2081.00,0.0009
2080.00,0.0009
2079.00,0.0009
2078.00,0.0010
2077.00,0.0010
2076.00,0.0010
2075.00,0.0009
2074.00,0.0008
2073.00,0.0008
2072.00,0.0007
2071.00,0.0007
2070.00,0.0007
2069.00,0.0007
2068.00,0.0007
2067.00,0.0007
2066.00,0.0006
2065.00,0.0006
2064.00,0.0006
2063.00,0.0006
2062.00,0.0006
2061.00,0.0006
2060.00,0.0006
2059.00,0.0006
2058.00,0.0006
2057.00,0.0006
2056.00,0.0006
2055.00,0.0007
2054.00,0.0010
2053.00,0.0013
2052.00,0.0016
2051.00,0.0016
2050.00,0.0014
2049.00,0.0011
2048.00,0.0009
2047.00,0.0008
2046.00,0.0008
2045.00,0.0007
2044.00,0.0007
2043.00,0.0008
2042.00,0.0008
2041.00,0.0009
2040.00,0.0010
2039.00,0.0012
2038.00,0.0013
2037.00,0.0012
2036.00,0.0011
2035.00,0.0008
2034.00,0.0006
2033.00,0.0004
2032.00,0.0004
2031.00,0.0003
2030.00,0.0003
2029.00,0.0002
2028.00,0.0001
2027.00,0.0001
2026.00,-0.0000
2025.00,-0.0001
2024.00,-0.0001
2023.00,-0.0000
2022.00,0.0000
2021.00,0.0001
2020.00,0.0001
2019.00,0.0001
2018.00,0.0000
2017.00,-0.0000
2016.00,-0.0000
2015.00,-0.0001
2014.00,-0.0002
2013.00,-0.0003
2012.00,-0.0002
2011.00,-0.0001
2010.00,-0.0000
2009.00,-0.0001
2008.00,-0.0003
2007.00,-0.0005
2006.00,-0.0007
2005.00,-0.0006
2004.00,-0.0004
2003.00,-0.0003
2002.00,-0.0001
2001.00,0.0000
2000.00,0.0002
1999.00,0.0003
1998.00,0.0003
1997.00,0.0004
1996.00,0.0004
1995.00,0.0004
1994.00,0.0004
1993.00,0.0004
1992.00,0.0005
1991.00,0.0007
1990.00,0.0007
1989.00,0.0007
1988.00,0.0007
1987.00,0.0008
1986.00,0.0010
1985.00,0.0012
1984.00,0.0015
1983.00,0.0018
1982.00,0.0021
1981.00,0.0022
1980.00,0.0021
1979.00,0.0016
1978.00,0.0010
1977.00,0.0004
1976.00,0.0001
1975.00,-0.0001
1974.00,-0.0002
1973.00,-0.0003
1972.00,-0.0003
1971.00,-0.0003
1970.00,-0.0004
1969.00,-0.0004
1968.00,-0.0004
1967.00,-0.0003
1966.00,-0.0003
1965.00,-0.0003
1964.00,-0.0004
1963.00,-0.0005
1962.00,-0.0006
1961.00,-0.0007
1960.00,-0.0008
1959.00,-0.0008
1958.00,-0.0007
1957.00,-0.0005
1956.00,-0.0004
1955.00,-0.0003
1954.00,-0.0002
1953.00,-0.0002
1952.00,-0.0002
1951.00,-0.0002
1950.00,-0.0002
1949.00,-0.0002
1948.00,-0.0001
1947.00,-0.0001
1946.00,-0.0002
1945.00,-0.0002
1944.00,-0.0003
1943.00,-0.0004
1942.00,-0.0005
1941.00,-0.0005
1940.00,-0.0004
1939.00,-0.0004
1938.00,-0.0004
1937.00,-0.0003
1936.00,-0.0003
1935.00,-0.0003
1934.00,-0.0002
1933.00,-0.0002
1932.00,-0.0002
1931.00,-0.0002
1930.00,-0.0002
1929.00,-0.0002
1928.00,-0.0002
1927.00,-0.0002
1926.00,-0.0002
1925.00,-0.0002
1924.00,-0.0002
1923.00,-0.0001
1922.00,-0.0000
1921.00,0.0001
1920.00,0.0001
1919.00,0.0001
1918.00,0.0001
1917.00,0.0001
1916.00,0.0001
1915.00,0.0001
1914.00,0.0002
1913.00,0.0002
1912.00,0.0002
1911.00,0.0002
1910.00,0.0002
1909.00,0.0002
1908.00,0.0003
1907.00,0.0004
1906.00,0.0004
1905.00,0.0004
1904.00,0.0003
1903.00,0.0003
1902.00,0.0002
1901.00,0.0002
1900.00,0.0002
1899.00,0.0002
1898.00,0.0002
1897.00,0.0003
1896.00,0.0003
1895.00,0.0003
1894.00,0.0002
1893.00,0.0002
1892.00,0.0002
1891.00,0.0001
1890.00,0.0001
1889.00,0.0001
1888.00,0.0001
1887.00,0.0002
1886.00,0.0002
1885.00,0.0002
1884.00,0.0002
1883.00,0.0002
1882.00,0.0002
1881.00,0.0001
1880.00,0.0001
1879.00,0.0001
1878.00,0.0002
1877.00,0.0002
1876.00,0.0003
1875.00,0.0003
1874.00,0.0003
1873.00,0.0003
1872.00,0.0003
1871.00,0.0003
1870.00,0.0002
1869.00,0.0002
1868.00,0.0002
1867.00,0.0002
1866.00,0.0002
1865.00,0.0002
1864.00,0.0003
1863.00,0.0003
1862.00,0.0002
1861.00,0.0002
1860.00,0.0003
1859.00,0.0003
1858.00,0.0003
1857.00,0.0002
1856.00,0.0002
1855.00,0.0002
1854.00,0.0002
1853.00,0.0003
1852.00,0.0003
1851.00,0.0004
1850.00,0.0004
1849.00,0.0004
1848.00,0.0004
1847.00,0.0004
1846.00,0.0003
1845.00,0.0003
1844.00,0.0003
1843.00,0.0003
1842.00,0.0003
1841.00,0.0003
1840.00,0.0003
1839.00,0.0003
1838.00,0.0003
1837.00,0.0003
1836.00,0.0003
1835.00,0.0004
1834.00,0.0004
1833.00,0.0004
1832.00,0.0003
1831.00,0.0003
1830.00,0.0003
1829.00,0.0004
1828.00,0.0004
1827.00,0.0004
1826.00,0.0004
1825.00,0.0004
1824.00,0.0004
1823.00,0.0004
1822.00,0.0004
1821.00,0.0004
1820.00,0.0003
1819.00,0.0002
1818.00,0.0001
1817.00,0.0001
1816.00,0.0002
1815.00,0.0002
1814.00,0.0003
1813.00,0.0003
1812.00,0.0004
1811.00,0.0004
1810.00,0.0005
1809.00,0.0004
1808.00,0.0004
1807.00,0.0005
1806.00,0.0005
1805.00,0.0005
1804.00,0.0005
1803.00,0.0005
1802.00,0.0005
1801.00,0.0005
1800.00,0.0005
1799.00,0.0005
1798.00,0.0005
1797.00,0.0005
1796.00,0.0005
1795.00,0.0005
1794.00,0.0005
1793.00,0.0005
1792.00,0.0005
1791.00,0.0005
1790.00,0.0005
1789.00,0.0005
1788.00,0.0005
1787.00,0.0005
1786.00,0.0005
1785.00,0.0005
1784.00,0.0005
1783.00,0.0005
1782.00,0.0005
1781.00,0.0005
1780.00,0.0005
1779.00,0.0005
1778.00,0.0005
1777.00,0.0005
1776.00,0.0005
1775.00,0.0006
1774.00,0.0006
1773.00,0.0006
1772.00,0.0006
1771.00,0.0007
1770.00,0.0007
1769.00,0.0007
1768.00,0.0007
1767.00,0.0007
1766.00,0.0007
1765.00,0.0007
1764.00,0.0007
1763.00,0.0007
1762.00,0.0007
1761.00,0.0007
1760.00,0.0007
1759.00,0.0007
1758.00,0.0007
1757.00,0.0006
1756.00,0.0007
1755.00,0.0007
1754.00,0.0007
1753.00,0.0007
1752.00,0.0007
1751.00,0.0007
1750.00,0.0007
1749.00,0.0007
1748.00,0.0008
1747.00,0.0008
1746.00,0.0008
1745.00,0.0008
1744.00,0.0008
1743.00,0.0008
1742.00,0.0008
1741.00,0.0008
1740.00,0.0009
1739.00,0.0009
1738.00,0.0010
1737.00,0.0010
1736.00,0.0010
1735.00,0.0011
1734.00,0.0011
1733.00,0.0011
1732.00,0.0011
1731.00,0.0011
1730.00,0.0011
1729.00,0.0012
1728.00,0.0012
1727.00,0.0012
1726.00,0.0013
1725.00,0.0013
1724.00,0.0013
1723.00,0.0014
1722.00,0.0015
1721.00,0.0015
1720.00,0.0015
1719.00,0.0016
1718.00,0.0016
1717.00,0.0016
1716.00,0.0017
1715.00,0.0017
1714.00,0.0017
1713.00,0.0018
1712.00,0.0019
1711.00,0.0021
1710.00,0.0022
1709.00,0.0023
1708.00,0.0025
1707.00,0.0025
1706.00,0.0026
1705.00,0.0028
1704.00,0.0030
1703.00,0.0032
1702.00,0.0034
1701.00,0.0037
1700.00,0.0041
1699.00,0.0044
1698.00,0.0047
1697.00,0.0051
1696.00,0.0057
1695.00,0.0063
1694.00,0.0069
1693.00,0.0073
1692.00,0.0079
1691.00,0.0085
1690.00,0.0092
1689.00,0.0098
1688.00,0.0104
1687.00,0.0110
1686.00,0.0117
1685.00,0.0124
1684.00,0.0131
1683.00,0.0138
1682.00,0.0142
1681.00,0.0147
1680.00,0.0153
1679.00,0.0158
1678.00,0.0163
1677.00,0.0167
1676.00,0.0171
1675.00,0.0174
1674.00,0.0176
1673.00,0.0178
1672.00,0.0181
1671.00,0.0184
1670.00,0.0186
1669.00,0.0187
1668.00,0.0189
1667.00,0.0192
1666.00,0.0197
1665.00,0.0202
1664.00,0.0208
1663.00,0.0213
1662.00,0.0216
1661.00,0.0220
1660.00,0.0225
1659.00,0.0231
1658.00,0.0237
1657.00,0.0243
1656.00,0.0250
1655.00,0.0258
1654.00,0.0261
1653.00,0.0259
1652.00,0.0255
1651.00,0.0257
1650.00,0.0261
1649.00,0.0266
1648.00,0.0269
1647.00,0.0268
1646.00,0.0264
1645.00,0.0260
1644.00,0.0257
1643.00,0.0256
1642.00,0.0254
1641.00,0.0250
1640.00,0.0247
1639.00,0.0243
1638.00,0.0239
1637.00,0.0233
1636.00,0.0222
1635.00,0.0211
1634.00,0.0202
1633.00,0.0197
1632.00,0.0196
1631.00,0.0195
1630.00,0.0195
1629.00,0.0194
1628.00,0.0193
1627.00,0.0192
1626.00,0.0191
1625.00,0.0189
1624.00,0.0186
1623.00,0.0181
1622.00,0.0176
1621.00,0.0172
1620.00,0.0170
1619.00,0.0168
1618.00,0.0163
1617.00,0.0155
1616.00,0.0145
1615.00,0.0138
1614.00,0.0135
1613.00,0.0134
1612.00,0.0133
1611.00,0.0132
1610.00,0.0129
1609.00,0.0125
1608.00,0.0121
1607.00,0.0116
1606.00,0.0110
1605.00,0.0105
1604.00,0.0099
1603.00,0.0093
1602.00,0.0088
1601.00,0.0083
1600.00,0.0079
1599.00,0.0075
1598.00,0.0072
1597.00,0.0070
1596.00,0.0068
1595.00,0.0066
1594.00,0.0065
1593.00,0.0065
1592.00,0.0067
1591.00,0.0069
1590.00,0.0071
1589.00,0.0073
1588.00,0.0074
1587.00,0.0076
1586.00,0.0077
1585.00,0.0078
1584.00,0.0078
1583.00,0.0079
1582.00,0.0079
1581.00,0.0079
1580.00,0.0079
1579.00,0.0078
1578.00,0.0077
1577.00,0.0074
1576.00,0.0069
1575.00,0.0065
1574.00,0.0062
1573.00,0.0061
1572.00,0.0060
1571.00,0.0059
1570.00,0.0057
1569.00,0.0055
1568.00,0.0054
1567.00,0.0053
1566.00,0.0051
1565.00,0.0049
1564.00,0.0047
1563.00,0.0045
1562.00,0.0044
1561.00,0.0042
1560.00,0.0040
1559.00,0.0035
1558.00,0.0032
1557.00,0.0030
1556.00,0.0030
1555.00,0.0030
1554.00,0.0031
1553.00,0.0031
1552.00,0.0030
1551.00,0.0030
1550.00,0.0030
1549.00,0.0030
1548.00,0.0030
1547.00,0.0029
1546.00,0.0029
1545.00,0.0028
1544.00,0.0027
1543.00,0.0026
1542.00,0.0025
1541.00,0.0024
1540.00,0.0023
1539.00,0.0023
1538.00,0.0023
1537.00,0.0023
1536.00,0.0023
1535.00,0.0023
1534.00,0.0023
1533.00,0.0023
1532.00,0.0023
1531.00,0.0023
1530.00,0.0023
1529.00,0.0023
1528.00,0.0023
1527.00,0.0023
1526.00,0.0023
1525.00,0.0023
1524.00,0.0023
1523.00,0.0023
1522.00,0.0023
1521.00,0.0024
1520.00,0.0024
1519.00,0.0024
1518.00,0.0025
1517.00,0.0025
1516.00,0.0026
1515.00,0.0027
1514.00,0.0027
1513.00,0.0028
1512.00,0.0029
1511.00,0.0030
1510.00,0.0031
1509.00,0.0032
1508.00,0.0034
1507.00,0.0035
1506.00,0.0037
1505.00,0.0039
1504.00,0.0041
1503.00,0.0045
1502.00,0.0049
1501.00,0.0054
1500.00,0.0059
1499.00,0.0065
1498.00,0.0071
1497.00,0.0077
1496.00,0.0080
1495.00,0.0081
1494.00,0.0080
1493.00,0.0079
1492.00,0.0077
1491.00,0.0074
1490.00,0.0069
1489.00,0.0063
1488.00,0.0058
1487.00,0.0054
1486.00,0.0050
1485.00,0.0047
1484.00,0.0044
1483.00,0.0042
1482.00,0.0040
1481.00,0.0039
1480.00,0.0038
1479.00,0.0038
1478.00,0.0039
1477.00,0.0039
1476.00,0.0040
1475.00,0.0042
1474.00,0.0044
1473.00,0.0048
1472.00,0.0053
1471.00,0.0059
1470.00,0.0066
1469.00,0.0074
1468.00,0.0084
1467.00,0.0093
1466.00,0.0102
1465.00,0.0108
1464.00,0.0112
1463.00,0.0115
1462.00,0.0117
1461.00,0.0119
1460.00,0.0121
1459.00,0.0121
1458.00,0.0117
1457.00,0.0109
1456.00,0.0101
1455.00,0.0095
1454.00,0.0093
1453.00,0.0091
1452.00,0.0091
1451.00,0.0091
1450.00,0.0092
1449.00,0.0094
1448.00,0.0097
1447.00,0.0100
1446.00,0.0105
1445.00,0.0111
1444.00,0.0118
1443.00,0.0125
1442.00,0.0132
1441.00,0.0139
1440.00,0.0145
1439.00,0.0150
1438.00,0.0154
1437.00,0.0157
1436.00,0.0158
1435.00,0.0159
1434.00,0.0161
1433.00,0.0164
1432.00,0.0166
1431.00,0.0168
1430.00,0.0169
1429.00,0.0170
1428.00,0.0172
1427.00,0.0176
1426.00,0.0180
1425.00,0.0184
1424.00,0.0188
1423.00,0.0190
1422.00,0.0191
1421.00,0.0191
1420.00,0.0187
1419.00,0.0178
1418.00,0.0166
1417.00,0.0154
1416.00,0.0144
1415.00,0.0134
1414.00,0.0124
1413.00,0.0116
1412.00,0.0108
1411.00,0.0101
1410.00,0.0096
1409.00,0.0092
1408.00,0.0090
1407.00,0.0090
1406.00,0.0090
1405.00,0.0090
1404.00,0.0091
1403.00,0.0092
1402.00,0.0093
1401.00,0.0094
1400.00,0.0094
1399.00,0.0092
1398.00,0.0090
1397.00,0.0088
1396.00,0.0085
1395.00,0.0082
1394.00,0.0078
1393.00,0.0074
1392.00,0.0072
1391.00,0.0071
1390.00,0.0072
1389.00,0.0073
1388.00,0.0074
1387.00,0.0075
1386.00,0.0074
1385.00,0.0072
1384.00,0.0069
1383.00,0.0067
1382.00,0.0066
1381.00,0.0066
1380.00,0.0067
1379.00,0.0069
1378.00,0.0072
1377.00,0.0075
1376.00,0.0078
1375.00,0.0079
1374.00,0.0078
1373.00,0.0075
1372.00,0.0074
1371.00,0.0073
1370.00,0.0073
1369.00,0.0075
1368.00,0.0077
1367.00,0.0079
1366.00,0.0080
1365.00,0.0080
1364.00,0.0079
1363.00,0.0079
1362.00,0.0079
1361.00,0.0082
1360.00,0.0085
1359.00,0.0086
1358.00,0.0085
1357.00,0.0082
1356.00,0.0078
1355.00,0.0074
1354.00,0.0071
1353.00,0.0070
1352.00,0.0069
1351.00,0.0068
1350.00,0.0069
1349.00,0.0069
1348.00,0.0069
1347.00,0.0068
1346.00,0.0067
1345.00,0.0066
1344.00,0.0064
1343.00,0.0061
1342.00,0.0059
1341.00,0.0057
1340.00,0.0054
1339.00,0.0053
1338.00,0.0052
1337.00,0.0052
1336.00,0.0053
1335.00,0.0054
1334.00,0.0056
1333.00,0.0058
1332.00,0.0060
1331.00,0.0062
1330.00,0.0064
1329.00,0.0065
1328.00,0.0066
1327.00,0.0067
1326.00,0.0068
1325.00,0.0070
1324.00,0.0071
1323.00,0.0073
1322.00,0.0075
1321.00,0.0077
1320.00,0.0079
1319.00,0.0080
1318.00,0.0080
1317.00,0.0080
1316.00,0.0079
1315.00,0.0078
1314.00,0.0077
1313.00,0.0076
1312.00,0.0074
1311.00,0.0074
1310.00,0.0074
1309.00,0.0075
1308.00,0.0077
1307.00,0.0079
1306.00,0.0083
1305.00,0.0088
1304.00,0.0093
1303.00,0.0100
1302.00,0.0106
1301.00,0.0111
1300.00,0.0116
1299.00,0.0120
1298.00,0.0126
1297.00,0.0132
1296.00,0.0140
1295.00,0.0149
1294.00,0.0158
1293.00,0.0168
1292.00,0.0177
1291.00,0.0185
1290.00,0.0192
1289.00,0.0199
1288.00,0.0206
1287.00,0.0212
1286.00,0.0216
1285.00,0.0218
1284.00,0.0218
1283.00,0.0216
1282.00,0.0212
1281.00,0.0208
1280.00,0.0203
1279.00,0.0198
1278.00,0.0194
1277.00,0.0192
1276.00,0.0191
1275.00,0.0191
1274.00,0.0191
1273.00,0.0191
1272.00,0.0190
1271.00,0.0188
1270.00,0.0185
1269.00,0.0181
1268.00,0.0177
1267.00,0.0171
1266.00,0.0165
1265.00,0.0159
1264.00,0.0152
1263.00,0.0145
1262.00,0.0138
1261.00,0.0132
1260.00,0.0125
1259.00,0.0120
1258.00,0.0115
1257.00,0.0110
1256.00,0.0106
1255.00,0.0103
1254.00,0.0100
1253.00,0.0098
1252.00,0.0096
1251.00,0.0096
1250.00,0.0096
1249.00,0.0097
1248.00,0.0098
1247.00,0.0100
1246.00,0.0103
1245.00,0.0104
1244.00,0.0106
1243.00,0.0107
1242.00,0.0107
1241.00,0.0108
1240.00,0.0110
1239.00,0.0113
1238.00,0.0117
1237.00,0.0121
1236.00,0.0124
1235.00,0.0127
1234.00,0.0128
1233.00,0.0128
1232.00,0.0126
1231.00,0.0124
1230.00,0.0121
1229.00,0.0119
1228.00,0.0116
1227.00,0.0114
1226.00,0.0113
1225.00,0.0112
1224.00,0.0111
1223.00,0.0110
1222.00,0.0109
1221.00,0.0110
1220.00,0.0110
1219.00,0.0111
1218.00,0.0112
1217.00,0.0113
1216.00,0.0115
1215.00,0.0116
1214.00,0.0116
1213.00,0.0115
1212.00,0.0112
1211.00,0.0109
1210.00,0.0105
1209.00,0.0101
1208.00,0.0098
1207.00,0.0095
1206.00,0.0093
1205.00,0.0092
1204.00,0.0092
1203.00,0.0093
1202.00,0.0094
1201.00,0.0096
1200.00,0.0098
1199.00,0.0101
1198.00,0.0105
1197.00,0.0108
1196.00,0.0111
1195.00,0.0112
1194.00,0.0111
1193.00,0.0109
1192.00,0.0105
1191.00,0.0100
1190.00,0.0095
1189.00,0.0091
1188.00,0.0087
1187.00,0.0083
1186.00,0.0080
1185.00,0.0077
1184.00,0.0075
1183.00,0.0074
1182.00,0.0073
1181.00,0.0072
1180.00,0.0071
1179.00,0.0071
1178.00,0.0071
1177.00,0.0071
1176.00,0.0071
1175.00,0.0071
1174.00,0.0071
1173.00,0.0071
1172.00,0.0071
1171.00,0.0071
1170.00,0.0069
1169.00,0.0068
1168.00,0.0066
1167.00,0.0065
1166.00,0.0063
1165.00,0.0061
1164.00,0.0059
1163.00,0.0057
1162.00,0.0056
1161.00,0.0056
1160.00,0.0058
1159.00,0.0061
1158.00,0.0066
1157.00,0.0072
1156.00,0.0079
1155.00,0.0084
1154.00,0.0086
1153.00,0.0084
1152.00,0.0079
1151.00,0.0072
1150.00,0.0065
1149.00,0.0060
1148.00,0.0056
1147.00,0.0053
1146.00,0.0050
1145.00,0.0049
1144.00,0.0048
1143.00,0.0047
1142.00,0.0047
1141.00,0.0046
1140.00,0.0046
1139.00,0.0046
1138.00,0.0046
1137.00,0.0047
1136.00,0.0048
1135.00,0.0051
1134.00,0.0056
1133.00,0.0063
1132.00,0.0070
1131.00,0.0078
1130.00,0.0084
1129.00,0.0088
1128.00,0.0088
1127.00,0.0087
1126.00,0.0084
1125.00,0.0081
1124.00,0.0077
1123.00,0.0072
1122.00,0.0068
1121.00,0.0065
1120.00,0.0062
1119.00,0.0061
1118.00,0.0060
1117.00,0.0060
1116.00,0.0060
1115.00,0.0060
1114.00,0.0060
1113.00,0.0059
1112.00,0.0057
1111.00,0.0056
1110.00,0.0054
1109.00,0.0053
1108.00,0.0052
1107.00,0.0052
1106.00,0.0053
1105.00,0.0056
1104.00,0.0060
1103.00,0.0065
1102.00,0.0071
1101.00,0.0075
1100.00,0.0078
1099.00,0.0079
1098.00,0.0078
1097.00,0.0075
1096.00,0.0070
1095.00,0.0065
1094.00,0.0060
1093.00,0.0056
1092.00,0.0054
1091.00,0.0052
1090.00,0.0051
1089.00,0.0050
1088.00,0.0049
1087.00,0.0049
1086.00,0.0048
1085.00,0.0048
1084.00,0.0049
1083.00,0.0049
1082.00,0.0049
1081.00,0.0050
1080.00,0.0050
1079.00,0.0050
1078.00,0.0050
1077.00,0.0051
1076.00,0.0051
1075.00,0.0052
1074.00,0.0052
1073.00,0.0052
1072.00,0.0053
1071.00,0.0053
1070.00,0.0053
1069.00,0.0053
1068.00,0.0053
1067.00,0.0053
1066.00,0.0053
1065.00,0.0054
1064.00,0.0055
1063.00,0.0056
1062.00,0.0059
1061.00,0.0063
1060.00,0.0068
1059.00,0.0075
1058.00,0.0083
1057.00,0.0092
1056.00,0.0101
1055.00,0.0109
1054.00,0.0115
1053.00,0.0121
1052.00,0.0125
1051.00,0.0129
1050.00,0.0132
1049.00,0.0133
1048.00,0.0131
1047.00,0.0126
1046.00,0.0120
1045.00,0.0113
1044.00,0.0106
1043.00,0.0100
1042.00,0.0094
1041.00,0.0090
1040.00,0.0087
1039.00,0.0085
1038.00,0.0085
1037.00,0.0086
1036.00,0.0087
1035.00,0.0088
1034.00,0.0087
1033.00,0.0087
1032.00,0.0089
1031.00,0.0094
1030.00,0.0102
1029.00,0.0112
1028.00,0.0124
1027.00,0.0134
1026.00,0.0139
1025.00,0.0140
1024.00,0.0135
1023.00,0.0128
1022.00,0.0121
1021.00,0.0113
1020.00,0.0107
1019.00,0.0101
1018.00,0.0096
1017.00,0.0091
1016.00,0.0087
1015.00,0.0083
1014.00,0.0079
1013.00,0.0077
1012.00,0.0075
1011.00,0.0075
1010.00,0.0077
1009.00,0.0079
1008.00,0.0083
1007.00,0.0086
1006.00,0.0089
1005.00,0.0092
1004.00,0.0093
1003.00,0.0093
1002.00,0.0092
1001.00,0.0090
1000.00,0.0087
999.00,0.0084
998.00,0.0081
997.00,0.0079
996.00,0.0078
995.00,0.0077
994.00,0.0075
993.00,0.0073
992.00,0.0071
991.00,0.0068
990.00,0.0066
989.00,0.0063
988.00,0.0061
987.00,0.0059
986.00,0.0057
985.00,0.0055
984.00,0.0054
983.00,0.0054
982.00,0.0053
981.00,0.0052
980.00,0.0052
979.00,0.0051
978.00,0.0050
977.00,0.0049
976.00,0.0048
975.00,0.0048
974.00,0.0047
973.00,0.0047
972.00,0.0046
971.00,0.0046
970.00,0.0046
969.00,0.0045
968.00,0.0045
967.00,0.0046
966.00,0.0046
965.00,0.0046
964.00,0.0047
963.00,0.0047
962.00,0.0047
961.00,0.0046
960.00,0.0043
959.00,0.0039
958.00,0.0034
957.00,0.0029
956.00,0.0025
955.00,0.0020
954.00,0.0017
953.00,0.0013
952.00,0.0011
951.00,0.0009
950.00,0.0008
949.00,0.0009
948.00,0.0010
947.00,0.0012
946.00,0.0014
945.00,0.0017
944.00,0.0020
943.00,0.0024
942.00,0.0028
941.00,0.0032
940.00,0.0035
939.00,0.0038
938.00,0.0040
937.00,0.0042
936.00,0.0044
935.00,0.0046
934.00,0.0047
933.00,0.0049
932.00,0.0050
931.00,0.0050
930.00,0.0050
929.00,0.0049
928.00,0.0049
927.00,0.0049
926.00,0.0050
925.00,0.0050
924.00,0.0051
923.00,0.0052
922.00,0.0053
921.00,0.0052
920.00,0.0051
919.00,0.0049
918.00,0.0047
917.00,0.0045
916.00,0.0044
915.00,0.0043
914.00,0.0043
913.00,0.0043
912.00,0.0043
911.00,0.0043
910.00,0.0043
909.00,0.0044
908.00,0.0044
907.00,0.0045
906.00,0.0046
905.00,0.0047
904.00,0.0049
903.00,0.0053
902.00,0.0056
901.00,0.0059
900.00,0.0060
899.00,0.0060
898.00,0.0058
897.00,0.0055
896.00,0.0053
895.00,0.0051
894.00,0.0050
893.00,0.0051
892.00,0.0053
891.00,0.0056
890.00,0.0059
889.00,0.0059
888.00,0.0057
887.00,0.0053
886.00,0.0049
885.00,0.0046
884.00,0.0044
883.00,0.0044
882.00,0.0043
881.00,0.0043
880.00,0.0043
879.00,0.0044
878.00,0.0047
877.00,0.0050
876.00,0.0055
875.00,0.0062
874.00,0.0070
873.00,0.0078
872.00,0.0086
871.00,0.0091
870.00,0.0093
869.00,0.0091
868.00,0.0086
867.00,0.0081
866.00,0.0076
865.00,0.0072
864.00,0.0069
863.00,0.0066
862.00,0.0063
861.00,0.0061
860.00,0.0060
859.00,0.0060
858.00,0.0061
857.00,0.0064
856.00,0.0068
855.00,0.0073
854.00,0.0078
853.00,0.0082
852.00,0.0088
851.00,0.0095
850.00,0.0101
849.00,0.0105
848.00,0.0104
847.00,0.0100
846.00,0.0095
845.00,0.0089
844.00,0.0085
843.00,0.0082
842.00,0.0080
841.00,0.0080
840.00,0.0081
839.00,0.0084
838.00,0.0089
837.00,0.0095
836.00,0.0100
835.00,0.0103
834.00,0.0104
833.00,0.0102
832.00,0.0098
831.00,0.0092
830.00,0.0085
829.00,0.0077
828.00,0.0070
827.00,0.0065
826.00,0.0061
825.00,0.0060
824.00,0.0061
823.00,0.0065
822.00,0.0073
821.00,0.0083
820.00,0.0092
819.00,0.0098
818.00,0.0103
817.00,0.0106
816.00,0.0106
815.00,0.0098
814.00,0.0084
813.00,0.0067
812.00,0.0054
811.00,0.0046
810.00,0.0043
809.00,0.0042
808.00,0.0043
807.00,0.0045
806.00,0.0046
805.00,0.0047
804.00,0.0048
803.00,0.0050
802.00,0.0051
801.00,0.0052
800.00,0.0052
799.00,0.0052
798.00,0.0052
797.00,0.0052
796.00,0.0052
795.00,0.0052
794.00,0.0051
793.00,0.0051
792.00,0.0050
791.00,0.0050
790.00,0.0051
789.00,0.0051
788.00,0.0052
787.00,0.0052
786.00,0.0052
785.00,0.0051
784.00,0.0051
783.00,0.0051
782.00,0.0052
781.00,0.0052
780.00,0.0053
779.00,0.0054
778.00,0.0055
777.00,0.0057
776.00,0.0060
775.00,0.0063
774.00,0.0064
773.00,0.0065
772.00,0.0064
771.00,0.0062
770.00,0.0061
769.00,0.0060
768.00,0.0060
767.00,0.0060
766.00,0.0061
765.00,0.0063
764.00,0.0064
763.00,0.0067
762.00,0.0070
761.00,0.0073
760.00,0.0074
759.00,0.0075
758.00,0.0075
757.00,0.0074
756.00,0.0073
755.00,0.0073
754.00,0.0073
753.00,0.0074
752.00,0.0074
751.00,0.0075
750.00,0.0076
749.00,0.0076
748.00,0.0077
747.00,0.0078
746.00,0.0079
745.00,0.0081
744.00,0.0083
743.00,0.0084
742.00,0.0086
741.00,0.0088
740.00,0.0091
739.00,0.0095
738.00,0.0100
737.00,0.0105
736.00,0.0110
735.00,0.0112
734.00,0.0113
733.00,0.0113
732.00,0.0114
731.00,0.0117
730.00,0.0121
729.00,0.0123
728.00,0.0123
727.00,0.0119
726.00,0.0113
725.00,0.0106
724.00,0.0100
723.00,0.0096
722.00,0.0093
721.00,0.0092
720.00,0.0092
719.00,0.0093
718.00,0.0095
717.00,0.0097
716.00,0.0100
715.00,0.0101
714.00,0.0102
713.00,0.0102
712.00,0.0100
711.00,0.0099
710.00,0.0097
709.00,0.0095
708.00,0.0095
707.00,0.0095
706.00,0.0095
705.00,0.0096
704.00,0.0098
703.00,0.0099
702.00,0.0101
701.00,0.0102
700.00,0.0103
699.00,0.0104
698.00,0.0104
697.00,0.0104
696.00,0.0103
695.00,0.0102
694.00,0.0100
693.00,0.0100
692.00,0.0100
691.00,0.0102
690.00,0.0105
689.00,0.0108
688.00,0.0110
687.00,0.0110
686.00,0.0110
685.00,0.0109
684.00,0.0110
683.00,0.0111
682.00,0.0112
681.00,0.0113
680.00,0.0115
679.00,0.0117
678.00,0.0119
677.00,0.0122
676.00,0.0125
675.00,0.0128
674.00,0.0131
673.00,0.0134
672.00,0.0136
671.00,0.0137
670.00,0.0138
669.00,0.0137
668.00,0.0137
667.00,0.0138
666.00,0.0138
665.00,0.0138
664.00,0.0140
663.00,0.0143
662.00,0.0146
661.00,0.0148
660.00,0.0149
659.00,0.0149
658.00,0.0149
657.00,0.0148
656.00,0.0149
655.00,0.0149
654.00,0.0151
653.00,0.0152
652.00,0.0154
651.00,0.0155
650.00,0.0155
649.00,0.0156
648.00,0.0156
647.00,0.0156
646.00,0.0156
645.00,0.0156
644.00,0.0155
643.00,0.0154
642.00,0.0153
641.00,0.0151
640.00,0.0150
639.00,0.0149
638.00,0.0148
637.00,0.0148
636.00,0.0147
635.00,0.0146
634.00,0.0145
633.00,0.0144
632.00,0.0143
631.00,0.0142
630.00,0.0142
629.00,0.0141
628.00,0.0142
627.00,0.0142
626.00,0.0142
625.00,0.0143
624.00,0.0145
623.00,0.0147
622.00,0.0148
621.00,0.0150
620.00,0.0150
619.00,0.0150
618.00,0.0150
617.00,0.0149
616.00,0.0147
615.00,0.0145
614.00,0.0143
613.00,0.0141
612.00,0.0139
611.00,0.0138
610.00,0.0139
609.00,0.0142
608.00,0.0146
607.00,0.0151
606.00,0.0156
605.00,0.0159
604.00,0.0163
603.00,0.0167
602.00,0.0170
601.00,0.0173
600.00,0.0175
599.00,0.0175
598.00,0.0175
597.00,0.0175
596.00,0.0174
595.00,0.0173
594.00,0.0173
593.00,0.0173
592.00,0.0173
591.00,0.0173
590.00,0.0173
589.00,0.0171
588.00,0.0171
587.00,0.0170
586.00,0.0170
585.00,0.0170
584.00,0.0169
583.00,0.0170
582.00,0.0171
581.00,0.0175
580.00,0.0180
579.00,0.0187
578.00,0.0196
577.00,0.0203
576.00,0.0206
575.00,0.0205
574.00,0.0201
573.00,0.0197
572.00,0.0193
571.00,0.0190
570.00,0.0187
569.00,0.0185
568.00,0.0185
567.00,0.0186
566.00,0.0187
565.00,0.0189
564.00,0.0191
563.00,0.0193
562.00,0.0196
561.00,0.0199
560.00,0.0200
559.00,0.0199
558.00,0.0196
557.00,0.0193
556.00,0.0191
555.00,0.0190
554.00,0.0189
553.00,0.0188
552.00,0.0187
551.00,0.0187
550.00,0.0188
549.00,0.0191
548.00,0.0195
547.00,0.0199
546.00,0.0202
545.00,0.0203
544.00,0.0203
543.00,0.0200
542.00,0.0195
541.00,0.0190
540.00,0.0185
539.00,0.0182
538.00,0.0180
537.00,0.0180
536.00,0.0180
535.00,0.0182
534.00,0.0185
533.00,0.0189
532.00,0.0193
531.00,0.0194
530.00,0.0192
529.00,0.0188
528.00,0.0186
527.00,0.0185
526.00,0.0184
525.00,0.0183
524.00,0.0183
523.00,0.0181
522.00,0.0178
521.00,0.0175
520.00,0.0173
519.00,0.0172
518.00,0.0172
517.00,0.0172
516.00,0.0172
515.00,0.0171
514.00,0.0170
513.00,0.0169
512.00,0.0169
511.00,0.0170
510.00,0.0171
509.00,0.0171
508.00,0.0172
507.00,0.0172
506.00,0.0172
505.00,0.0172
504.00,0.0172
503.00,0.0173
502.00,0.0173
501.00,0.0172
500.00,0.0171
499.00,0.0170
498.00,0.0169
497.00,0.0169
496.00,0.0170
495.00,0.0171
494.00,0.0173
493.00,0.0173
492.00,0.0171
491.00,0.0170
490.00,0.0170
489.00,0.0173
488.00,0.0176
487.00,0.0177
486.00,0.0177
485.00,0.0174
484.00,0.0171
483.00,0.0169
482.00,0.0168
481.00,0.0169
480.00,0.0170
479.00,0.0170
478.00,0.0170
477.00,0.0170
476.00,0.0171
475.00,0.0172
474.00,0.0175
473.00,0.0178
472.00,0.0181
471.00,0.0182
470.00,0.0181
469.00,0.0180
468.00,0.0177
467.00,0.0174
466.00,0.0172
465.00,0.0171
464.00,0.0171
463.00,0.0170
462.00,0.0169
461.00,0.0167
460.00,0.0166
459.00,0.0165
458.00,0.0165
457.00,0.0166
456.00,0.0167
455.00,0.0167
454.00,0.0166
453.00,0.0167
452.00,0.0171
451.00,0.0175
450.00,0.0177
449.00,0.0174
448.00,0.0170
447.00,0.0163
446.00,0.0157
445.00,0.0153
444.00,0.0152
443.00,0.0155
442.00,0.0159
441.00,0.0161
440.00,0.0161
439.00,0.0159
438.00,0.0155
437.00,0.0150
436.00,0.0145
435.00,0.0142
434.00,0.0143
433.00,0.0145
432.00,0.0147
431.00,0.0149
430.00,0.0150
429.00,0.0150
428.00,0.0150
427.00,0.0148
426.00,0.0145
425.00,0.0143
424.00,0.0143
423.00,0.0142
422.00,0.0140
421.00,0.0136
420.00,0.0131
419.00,0.0130
418.00,0.0133
417.00,0.0138
416.00,0.0143
415.00,0.0147
414.00,0.0148
413.00,0.0149
412.00,0.0149
411.00,0.0150
410.00,0.0150
409.00,0.0147
408.00,0.0141
407.00,0.0133
406.00,0.0125
405.00,0.0118
404.00,0.0115
403.00,0.0116
402.00,0.0122
401.00,0.0127
400.00,0.0129
