Created as New Dataset,Sample 1083 By YargerLab Date Wednesday, August 06 2025
cm-1,A
4000.00,0.0007
3999.00,0.0007
3998.00,0.0007
3997.00,0.0007
3996.00,0.0007
3995.00,0.0007
3994.00,0.0007
3993.00,0.0007
3992.00,0.0007
3991.00,0.0007
3990.00,0.0007
3989.00,0.0007
3988.00,0.0007
3987.00,0.0007
3986.00,0.0007
3985.00,0.0007
3984.00,0.0007
3983.00,0.0007
3982.00,0.0007
3981.00,0.0007
3980.00,0.0007
3979.00,0.0007
3978.00,0.0007
3977.00,0.0007
3976.00,0.0007
3975.00,0.0007
3974.00,0.0007
3973.00,0.0007
3972.00,0.0007
3971.00,0.0007
3970.00,0.0007
3969.00,0.0007
3968.00,0.0007
3967.00,0.0007
3966.00,0.0007
3965.00,0.0007
3964.00,0.0007
3963.00,0.0007
3962.00,0.0007
3961.00,0.0007
3960.00,0.0007
3959.00,0.0007
3958.00,0.0007
3957.00,0.0007
3956.00,0.0007
3955.00,0.0007
3954.00,0.0007
3953.00,0.0007
3952.00,0.0007
3951.00,0.0007
3950.00,0.0007
3949.00,0.0007
3948.00,0.0007
3947.00,0.0007
3946.00,0.0008
3945.00,0.0008
3944.00,0.0007
3943.00,0.0007
3942.00,0.0007
3941.00,0.0007
3940.00,0.0007
3939.00,0.0007
3938.00,0.0006
3937.00,0.0006
3936.00,0.0007
3935.00,0.0007
3934.00,0.0007
3933.00,0.0007
3932.00,0.0007
3931.00,0.0007
3930.00,0.0007
3929.00,0.0007
3928.00,0.0007
3927.00,0.0007
3926.00,0.0007
3925.00,0.0007
3924.00,0.0007
3923.00,0.0007
3922.00,0.0008
3921.00,0.0008
3920.00,0.0008
3919.00,0.0008
3918.00,0.0007
3917.00,0.0007
3916.00,0.0007
3915.00,0.0007
3914.00,0.0007
3913.00,0.0007
3912.00,0.0007
3911.00,0.0007
3910.00,0.0007
3909.00,0.0007
3908.00,0.0007
3907.00,0.0008
3906.00,0.0008
3905.00,0.0008
3904.00,0.0009
3903.00,0.0009
3902.00,0.0009
3901.00,0.0009
3900.00,0.0008
3899.00,0.0008
3898.00,0.0008
3897.00,0.0008
3896.00,0.0007
3895.00,0.0008
3894.00,0.0008
3893.00,0.0008
3892.00,0.0008
3891.00,0.0008
3890.00,0.0008
3889.00,0.0008
3888.00,0.0008
3887.00,0.0008
3886.00,0.0008
3885.00,0.0008
3884.00,0.0008
3883.00,0.0008
3882.00,0.0008
3881.00,0.0008
3880.00,0.0008
3879.00,0.0008
3878.00,0.0008
3877.00,0.0008
3876.00,0.0008
3875.00,0.0008
3874.00,0.0008
3873.00,0.0008
3872.00,0.0009
3871.00,0.0009
3870.00,0.0009
3869.00,0.0009
3868.00,0.0009
3867.00,0.0009
3866.00,0.0009
3865.00,0.0009
3864.00,0.0008
3863.00,0.0008
3862.00,0.0008
3861.00,0.0008
3860.00,0.0008
3859.00,0.0008
3858.00,0.0009
3857.00,0.0009
3856.00,0.0010
3855.00,0.0011
3854.00,0.0011
3853.00,0.0011
3852.00,0.0010
3851.00,0.0011
3850.00,0.0010
3849.00,0.0010
3848.00,0.0009
3847.00,0.0008
3846.00,0.0008
3845.00,0.0008
3844.00,0.0008
3843.00,0.0008
3842.00,0.0008
3841.00,0.0009
3840.00,0.0009
3839.00,0.0009
3838.00,0.0009
3837.00,0.0009
3836.00,0.0010
3835.00,0.0010
3834.00,0.0010
3833.00,0.0009
3832.00,0.0009
3831.00,0.0009
3830.00,0.0009
3829.00,0.0008
3828.00,0.0008
3827.00,0.0008
3826.00,0.0008
3825.00,0.0009
3824.00,0.0010
3823.00,0.0010
3822.00,0.0010
3821.00,0.0010
3820.00,0.0010
3819.00,0.0010
3818.00,0.0010
3817.00,0.0010
3816.00,0.0010
3815.00,0.0009
3814.00,0.0009
3813.00,0.0009
3812.00,0.0009
3811.00,0.0009
3810.00,0.0009
3809.00,0.0009
3808.00,0.0009
3807.00,0.0009
3806.00,0.0009
3805.00,0.0010
3804.00,0.0010
3803.00,0.0010
3802.00,0.0009
3801.00,0.0009
3800.00,0.0009
3799.00,0.0010
3798.00,0.0010
3797.00,0.0010
3796.00,0.0009
3795.00,0.0009
3794.00,0.0008
3793.00,0.0008
3792.00,0.0008
3791.00,0.0008
3790.00,0.0007
3789.00,0.0007
3788.00,0.0008
3787.00,0.0008
3786.00,0.0008
3785.00,0.0008
3784.00,0.0008
3783.00,0.0008
3782.00,0.0009
3781.00,0.0008
3780.00,0.0008
3779.00,0.0008
3778.00,0.0007
3777.00,0.0007
3776.00,0.0007
3775.00,0.0008
3774.00,0.0008
3773.00,0.0008
3772.00,0.0009
3771.00,0.0009
3770.00,0.0009
3769.00,0.0008
3768.00,0.0008
3767.00,0.0008
3766.00,0.0008
3765.00,0.0008
3764.00,0.0008
3763.00,0.0008
3762.00,0.0008
3761.00,0.0008
3760.00,0.0008
3759.00,0.0008
3758.00,0.0008
3757.00,0.0008
3756.00,0.0009
3755.00,0.0009
3754.00,0.0010
3753.00,0.0011
3752.00,0.0011
3751.00,0.0011
3750.00,0.0011
3749.00,0.0011
3748.00,0.0011
3747.00,0.0011
3746.00,0.0011
3745.00,0.0011
3744.00,0.0010
3743.00,0.0010
3742.00,0.0010
3741.00,0.0010
3740.00,0.0010
3739.00,0.0010
3738.00,0.0010
3737.00,0.0010
3736.00,0.0010
3735.00,0.0010
3734.00,0.0010
3733.00,0.0010
3732.00,0.0009
3731.00,0.0009
3730.00,0.0009
3729.00,0.0008
3728.00,0.0008
3727.00,0.0008
3726.00,0.0007
3725.00,0.0007
3724.00,0.0008
3723.00,0.0008
3722.00,0.0008
3721.00,0.0008
3720.00,0.0008
3719.00,0.0008
3718.00,0.0008
3717.00,0.0008
3716.00,0.0008
3715.00,0.0008
3714.00,0.0008
3713.00,0.0008
3712.00,0.0008
3711.00,0.0008
3710.00,0.0008
3709.00,0.0009
3708.00,0.0008
3707.00,0.0008
3706.00,0.0008
3705.00,0.0008
3704.00,0.0008
3703.00,0.0007
3702.00,0.0007
3701.00,0.0007
3700.00,0.0007
3699.00,0.0007
3698.00,0.0007
3697.00,0.0007
3696.00,0.0007
3695.00,0.0008
3694.00,0.0008
3693.00,0.0008
3692.00,0.0008
3691.00,0.0009
3690.00,0.0009
3689.00,0.0009
3688.00,0.0009
3687.00,0.0009
3686.00,0.0009
3685.00,0.0008
3684.00,0.0008
3683.00,0.0008
3682.00,0.0008
3681.00,0.0008
3680.00,0.0009
3679.00,0.0009
3678.00,0.0009
3677.00,0.0010
3676.00,0.0010
3675.00,0.0010
3674.00,0.0010
3673.00,0.0010
3672.00,0.0010
3671.00,0.0010
3670.00,0.0009
3669.00,0.0009
3668.00,0.0009
3667.00,0.0009
3666.00,0.0009
3665.00,0.0008
3664.00,0.0008
3663.00,0.0008
3662.00,0.0008
3661.00,0.0008
3660.00,0.0008
3659.00,0.0009
3658.00,0.0009
3657.00,0.0009
3656.00,0.0009
3655.00,0.0010
3654.00,0.0010
3653.00,0.0011
3652.00,0.0012
3651.00,0.0012
3650.00,0.0012
3649.00,0.0012
3648.00,0.0011
3647.00,0.0011
3646.00,0.0011
3645.00,0.0010
3644.00,0.0009
3643.00,0.0009
3642.00,0.0008
3641.00,0.0008
3640.00,0.0008
3639.00,0.0008
3638.00,0.0008
3637.00,0.0008
3636.00,0.0008
3635.00,0.0008
3634.00,0.0008
3633.00,0.0008
3632.00,0.0008
3631.00,0.0009
3630.00,0.0009
3629.00,0.0009
3628.00,0.0009
3627.00,0.0008
3626.00,0.0008
3625.00,0.0008
3624.00,0.0008
3623.00,0.0008
3622.00,0.0008
3621.00,0.0008
3620.00,0.0008
3619.00,0.0008
3618.00,0.0008
3617.00,0.0008
3616.00,0.0008
3615.00,0.0008
3614.00,0.0008
3613.00,0.0008
3612.00,0.0008
3611.00,0.0008
3610.00,0.0008
3609.00,0.0008
3608.00,0.0008
3607.00,0.0008
3606.00,0.0007
3605.00,0.0007
3604.00,0.0007
3603.00,0.0007
3602.00,0.0007
3601.00,0.0008
3600.00,0.0008
3599.00,0.0008
3598.00,0.0008
3597.00,0.0008
3596.00,0.0008
3595.00,0.0008
3594.00,0.0008
3593.00,0.0008
3592.00,0.0009
3591.00,0.0009
3590.00,0.0009
3589.00,0.0009
3588.00,0.0008
3587.00,0.0008
3586.00,0.0008
3585.00,0.0008
3584.00,0.0008
3583.00,0.0008
3582.00,0.0008
3581.00,0.0008
3580.00,0.0008
3579.00,0.0008
3578.00,0.0008
3577.00,0.0008
3576.00,0.0008
3575.00,0.0008
3574.00,0.0008
3573.00,0.0008
3572.00,0.0008
3571.00,0.0008
3570.00,0.0008
3569.00,0.0008
3568.00,0.0008
3567.00,0.0008
3566.00,0.0008
3565.00,0.0008
3564.00,0.0008
3563.00,0.0008
3562.00,0.0008
3561.00,0.0008
3560.00,0.0009
3559.00,0.0009
3558.00,0.0009
3557.00,0.0008
3556.00,0.0008
3555.00,0.0008
3554.00,0.0009
3553.00,0.0009
3552.00,0.0009
3551.00,0.0009
3550.00,0.0009
3549.00,0.0009
3548.00,0.0009
3547.00,0.0009
3546.00,0.0009
3545.00,0.0009
3544.00,0.0009
3543.00,0.0010
3542.00,0.0010
3541.00,0.0010
3540.00,0.0010
3539.00,0.0010
3538.00,0.0010
3537.00,0.0010
3536.00,0.0010
3535.00,0.0010
3534.00,0.0010
3533.00,0.0010
3532.00,0.0010
3531.00,0.0010
3530.00,0.0010
3529.00,0.0010
3528.00,0.0010
3527.00,0.0011
3526.00,0.0011
3525.00,0.0011
3524.00,0.0011
3523.00,0.0011
3522.00,0.0011
3521.00,0.0011
3520.00,0.0011
3519.00,0.0011
3518.00,0.0011
3517.00,0.0010
3516.00,0.0010
3515.00,0.0010
3514.00,0.0010
3513.00,0.0010
3512.00,0.0011
3511.00,0.0011
3510.00,0.0011
3509.00,0.0011
3508.00,0.0011
3507.00,0.0011
3506.00,0.0011
3505.00,0.0011
3504.00,0.0011
3503.00,0.0011
3502.00,0.0011
3501.00,0.0011
3500.00,0.0011
3499.00,0.0011
3498.00,0.0011
3497.00,0.0011
3496.00,0.0011
3495.00,0.0011
3494.00,0.0011
3493.00,0.0011
3492.00,0.0011
3491.00,0.0011
3490.00,0.0011
3489.00,0.0011
3488.00,0.0011
3487.00,0.0010
3486.00,0.0010
3485.00,0.0010
3484.00,0.0010
3483.00,0.0011
3482.00,0.0011
3481.00,0.0011
3480.00,0.0012
3479.00,0.0012
3478.00,0.0012
3477.00,0.0012
3476.00,0.0012
3475.00,0.0012
3474.00,0.0012
3473.00,0.0012
3472.00,0.0012
3471.00,0.0012
3470.00,0.0012
3469.00,0.0012
3468.00,0.0012
3467.00,0.0012
3466.00,0.0012
3465.00,0.0012
3464.00,0.0012
3463.00,0.0012
3462.00,0.0012
3461.00,0.0012
3460.00,0.0012
3459.00,0.0012
3458.00,0.0012
3457.00,0.0012
3456.00,0.0012
3455.00,0.0012
3454.00,0.0012
3453.00,0.0012
3452.00,0.0012
3451.00,0.0012
3450.00,0.0012
3449.00,0.0012
3448.00,0.0012
3447.00,0.0012
3446.00,0.0012
3445.00,0.0012
3444.00,0.0012
3443.00,0.0012
3442.00,0.0012
3441.00,0.0012
3440.00,0.0012
3439.00,0.0012
3438.00,0.0012
3437.00,0.0012
3436.00,0.0012
3435.00,0.0012
3434.00,0.0012
3433.00,0.0012
3432.00,0.0012
3431.00,0.0012
3430.00,0.0012
3429.00,0.0012
3428.00,0.0012
3427.00,0.0012
3426.00,0.0012
3425.00,0.0012
3424.00,0.0012
3423.00,0.0012
3422.00,0.0012
3421.00,0.0012
3420.00,0.0012
3419.00,0.0012
3418.00,0.0012
3417.00,0.0012
3416.00,0.0012
3415.00,0.0012
3414.00,0.0012
3413.00,0.0011
3412.00,0.0011
3411.00,0.0011
3410.00,0.0011
3409.00,0.0011
3408.00,0.0011
3407.00,0.0012
3406.00,0.0012
3405.00,0.0012
3404.00,0.0012
3403.00,0.0012
3402.00,0.0012
3401.00,0.0012
3400.00,0.0012
3399.00,0.0012
3398.00,0.0012
3397.00,0.0012
3396.00,0.0012
3395.00,0.0012
3394.00,0.0011
3393.00,0.0011
3392.00,0.0011
3391.00,0.0011
3390.00,0.0011
3389.00,0.0011
3388.00,0.0011
3387.00,0.0011
3386.00,0.0011
3385.00,0.0011
3384.00,0.0011
3383.00,0.0011
3382.00,0.0011
3381.00,0.0011
3380.00,0.0011
3379.00,0.0012
3378.00,0.0012
3377.00,0.0012
3376.00,0.0012
3375.00,0.0012
3374.00,0.0012
3373.00,0.0011
3372.00,0.0011
3371.00,0.0011
3370.00,0.0011
3369.00,0.0011
3368.00,0.0012
3367.00,0.0012
3366.00,0.0012
3365.00,0.0012
3364.00,0.0012
3363.00,0.0012
3362.00,0.0012
3361.00,0.0012
3360.00,0.0012
3359.00,0.0012
3358.00,0.0011
3357.00,0.0011
3356.00,0.0011
3355.00,0.0011
3354.00,0.0011
3353.00,0.0011
3352.00,0.0011
3351.00,0.0011
3350.00,0.0011
3349.00,0.0011
3348.00,0.0011
3347.00,0.0011
3346.00,0.0011
3345.00,0.0011
3344.00,0.0011
3343.00,0.0011
3342.00,0.0011
3341.00,0.0011
3340.00,0.0011
3339.00,0.0010
3338.00,0.0011
3337.00,0.0011
3336.00,0.0011
3335.00,0.0011
3334.00,0.0011
3333.00,0.0011
3332.00,0.0011
3331.00,0.0011
3330.00,0.0011
3329.00,0.0011
3328.00,0.0011
3327.00,0.0011
3326.00,0.0011
3325.00,0.0011
3324.00,0.0011
3323.00,0.0011
3322.00,0.0010
3321.00,0.0010
3320.00,0.0010
3319.00,0.0010
3318.00,0.0010
3317.00,0.0010
3316.00,0.0011
3315.00,0.0011
3314.00,0.0011
3313.00,0.0011
3312.00,0.0011
3311.00,0.0011
3310.00,0.0011
3309.00,0.0011
3308.00,0.0011
3307.00,0.0011
3306.00,0.0011
3305.00,0.0011
3304.00,0.0011
3303.00,0.0010
3302.00,0.0010
3301.00,0.0010
3300.00,0.0010
3299.00,0.0010
3298.00,0.0010
3297.00,0.0010
3296.00,0.0010
3295.00,0.0010
3294.00,0.0010
3293.00,0.0010
3292.00,0.0010
3291.00,0.0010
3290.00,0.0010
3289.00,0.0010
3288.00,0.0010
3287.00,0.0010
3286.00,0.0010
3285.00,0.0010
3284.00,0.0010
3283.00,0.0010
3282.00,0.0010
3281.00,0.0010
3280.00,0.0011
3279.00,0.0011
3278.00,0.0011
3277.00,0.0011
3276.00,0.0011
3275.00,0.0011
3274.00,0.0011
3273.00,0.0011
3272.00,0.0011
3271.00,0.0010
3270.00,0.0010
3269.00,0.0010
3268.00,0.0010
3267.00,0.0010
3266.00,0.0010
3265.00,0.0010
3264.00,0.0010
3263.00,0.0010
3262.00,0.0010
3261.00,0.0010
3260.00,0.0010
3259.00,0.0010
3258.00,0.0010
3257.00,0.0010
3256.00,0.0010
3255.00,0.0011
3254.00,0.0010
3253.00,0.0010
3252.00,0.0010
3251.00,0.0010
3250.00,0.0010
3249.00,0.0010
3248.00,0.0010
3247.00,0.0010
3246.00,0.0010
3245.00,0.0010
3244.00,0.0010
3243.00,0.0010
3242.00,0.0010
3241.00,0.0010
3240.00,0.0009
3239.00,0.0009
3238.00,0.0009
3237.00,0.0009
3236.00,0.0009
3235.00,0.0009
3234.00,0.0009
3233.00,0.0009
3232.00,0.0010
3231.00,0.0010
3230.00,0.0010
3229.00,0.0010
3228.00,0.0010
3227.00,0.0009
3226.00,0.0009
3225.00,0.0009
3224.00,0.0009
3223.00,0.0009
3222.00,0.0009
3221.00,0.0009
3220.00,0.0009
3219.00,0.0009
3218.00,0.0009
3217.00,0.0009
3216.00,0.0009
3215.00,0.0009
3214.00,0.0009
3213.00,0.0009
3212.00,0.0009
3211.00,0.0009
3210.00,0.0010
3209.00,0.0010
3208.00,0.0010
3207.00,0.0010
3206.00,0.0010
3205.00,0.0010
3204.00,0.0010
3203.00,0.0010
3202.00,0.0010
3201.00,0.0010
3200.00,0.0010
3199.00,0.0009
3198.00,0.0009
3197.00,0.0009
3196.00,0.0009
3195.00,0.0010
3194.00,0.0010
3193.00,0.0010
3192.00,0.0009
3191.00,0.0009
3190.00,0.0009
3189.00,0.0008
3188.00,0.0008
3187.00,0.0008
3186.00,0.0008
3185.00,0.0008
3184.00,0.0008
3183.00,0.0008
3182.00,0.0008
3181.00,0.0008
3180.00,0.0008
3179.00,0.0008
3178.00,0.0008
3177.00,0.0008
3176.00,0.0009
3175.00,0.0009
3174.00,0.0009
3173.00,0.0009
3172.00,0.0009
3171.00,0.0009
3170.00,0.0008
3169.00,0.0008
3168.00,0.0008
3167.00,0.0009
3166.00,0.0009
3165.00,0.0009
3164.00,0.0009
3163.00,0.0009
3162.00,0.0009
3161.00,0.0009
3160.00,0.0009
3159.00,0.0009
3158.00,0.0009
3157.00,0.0009
3156.00,0.0008
3155.00,0.0008
3154.00,0.0008
3153.00,0.0008
3152.00,0.0008
3151.00,0.0009
3150.00,0.0009
3149.00,0.0009
3148.00,0.0008
3147.00,0.0008
3146.00,0.0008
3145.00,0.0008
3144.00,0.0008
3143.00,0.0008
3142.00,0.0008
3141.00,0.0008
3140.00,0.0008
3139.00,0.0008
3138.00,0.0008
3137.00,0.0008
3136.00,0.0008
3135.00,0.0008
3134.00,0.0008
3133.00,0.0008
3132.00,0.0008
3131.00,0.0008
3130.00,0.0008
3129.00,0.0008
3128.00,0.0008
3127.00,0.0008
3126.00,0.0008
3125.00,0.0008
3124.00,0.0008
3123.00,0.0009
3122.00,0.0009
3121.00,0.0010
3120.00,0.0010
3119.00,0.0010
3118.00,0.0010
3117.00,0.0011
3116.00,0.0011
3115.00,0.0011
3114.00,0.0012
3113.00,0.0013
3112.00,0.0014
3111.00,0.0015
3110.00,0.0017
3109.00,0.0018
3108.00,0.0020
3107.00,0.0022
3106.00,0.0023
3105.00,0.0024
3104.00,0.0025
3103.00,0.0025
3102.00,0.0025
3101.00,0.0025
3100.00,0.0025
3099.00,0.0024
3098.00,0.0024
3097.00,0.0023
3096.00,0.0023
3095.00,0.0023
3094.00,0.0024
3093.00,0.0025
3092.00,0.0027
3091.00,0.0030
3090.00,0.0033
3089.00,0.0037
3088.00,0.0042
3087.00,0.0047
3086.00,0.0052
3085.00,0.0056
3084.00,0.0060
3083.00,0.0063
3082.00,0.0064
3081.00,0.0063
3080.00,0.0061
3079.00,0.0059
3078.00,0.0055
3077.00,0.0052
3076.00,0.0049
3075.00,0.0047
3074.00,0.0046
3073.00,0.0046
3072.00,0.0046
3071.00,0.0047
3070.00,0.0049
3069.00,0.0052
3068.00,0.0055
3067.00,0.0059
3066.00,0.0064
3065.00,0.0069
3064.00,0.0074
3063.00,0.0079
3062.00,0.0083
3061.00,0.0087
3060.00,0.0088
3059.00,0.0088
3058.00,0.0086
3057.00,0.0083
3056.00,0.0078
3055.00,0.0073
3054.00,0.0068
3053.00,0.0064
3052.00,0.0059
3051.00,0.0056
3050.00,0.0052
3049.00,0.0049
3048.00,0.0047
3047.00,0.0045
3046.00,0.0044
3045.00,0.0044
3044.00,0.0044
3043.00,0.0045
3042.00,0.0047
3041.00,0.0049
3040.00,0.0051
3039.00,0.0055
3038.00,0.0059
3037.00,0.0064
3036.00,0.0070
3035.00,0.0077
3034.00,0.0086
3033.00,0.0096
3032.00,0.0107
3031.00,0.0119
3030.00,0.0132
3029.00,0.0144
3028.00,0.0156
3027.00,0.0165
3026.00,0.0170
3025.00,0.0172
3024.00,0.0169
3023.00,0.0161
3022.00,0.0150
3021.00,0.0137
3020.00,0.0122
3019.00,0.0107
3018.00,0.0093
3017.00,0.0081
3016.00,0.0071
3015.00,0.0063
3014.00,0.0056
3013.00,0.0051
3012.00,0.0047
3011.00,0.0045
3010.00,0.0043
3009.00,0.0043
3008.00,0.0043
3007.00,0.0043
3006.00,0.0045
3005.00,0.0047
3004.00,0.0049
3003.00,0.0050
3002.00,0.0052
3001.00,0.0052
3000.00,0.0051
2999.00,0.0050
2998.00,0.0047
2997.00,0.0045
2996.00,0.0042
2995.00,0.0039
2994.00,0.0036
2993.00,0.0035
2992.00,0.0033
2991.00,0.0032
2990.00,0.0031
2989.00,0.0031
2988.00,0.0031
2987.00,0.0031
2986.00,0.0031
2985.00,0.0032
2984.00,0.0032
2983.00,0.0033
2982.00,0.0034
2981.00,0.0035
2980.00,0.0035
2979.00,0.0035
2978.00,0.0034
2977.00,0.0034
2976.00,0.0034
2975.00,0.0034
2974.00,0.0034
2973.00,0.0034
2972.00,0.0035
2971.00,0.0035
2970.00,0.0035
2969.00,0.0034
2968.00,0.0034
2967.00,0.0034
2966.00,0.0035
2965.00,0.0035
2964.00,0.0036
2963.00,0.0036
2962.00,0.0037
2961.00,0.0038
2960.00,0.0039
2959.00,0.0040
2958.00,0.0041
2957.00,0.0043
2956.00,0.0044
2955.00,0.0046
2954.00,0.0048
2953.00,0.0050
2952.00,0.0052
2951.00,0.0054
2950.00,0.0057
2949.00,0.0061
2948.00,0.0064
2947.00,0.0068
2946.00,0.0072
2945.00,0.0076
2944.00,0.0080
2943.00,0.0085
2942.00,0.0090
2941.00,0.0095
2940.00,0.0100
2939.00,0.0106
2938.00,0.0112
2937.00,0.0119
2936.00,0.0125
2935.00,0.0132
2934.00,0.0139
2933.00,0.0146
2932.00,0.0153
2931.00,0.0160
2930.00,0.0166
2929.00,0.0172
2928.00,0.0177
2927.00,0.0182
2926.00,0.0186
2925.00,0.0189
2924.00,0.0192
2923.00,0.0194
2922.00,0.0195
2921.00,0.0196
2920.00,0.0196
2919.00,0.0195
2918.00,0.0193
2917.00,0.0191
2916.00,0.0188
2915.00,0.0184
2914.00,0.0181
2913.00,0.0176
2912.00,0.0172
2911.00,0.0167
2910.00,0.0163
2909.00,0.0158
2908.00,0.0153
2907.00,0.0149
2906.00,0.0144
2905.00,0.0139
2904.00,0.0133
2903.00,0.0128
2902.00,0.0123
2901.00,0.0118
2900.00,0.0113
2899.00,0.0108
2898.00,0.0103
2897.00,0.0098
2896.00,0.0094
2895.00,0.0091
2894.00,0.0088
2893.00,0.0085
2892.00,0.0082
2891.00,0.0080
2890.00,0.0077
2889.00,0.0075
2888.00,0.0073
2887.00,0.0072
2886.00,0.0070
2885.00,0.0068
2884.00,0.0067
2883.00,0.0065
2882.00,0.0063
2881.00,0.0062
2880.00,0.0060
2879.00,0.0059
2878.00,0.0057
2877.00,0.0055
2876.00,0.0053
2875.00,0.0051
2874.00,0.0050
2873.00,0.0049
2872.00,0.0048
2871.00,0.0048
2870.00,0.0048
2869.00,0.0048
2868.00,0.0048
2867.00,0.0048
2866.00,0.0049
2865.00,0.0050
2864.00,0.0051
2863.00,0.0052
2862.00,0.0054
2861.00,0.0056
2860.00,0.0059
2859.00,0.0061
2858.00,0.0064
2857.00,0.0067
2856.00,0.0069
2855.00,0.0072
2854.00,0.0075
2853.00,0.0078
2852.00,0.0080
2851.00,0.0082
2850.00,0.0084
2849.00,0.0084
2848.00,0.0084
2847.00,0.0083
2846.00,0.0081
2845.00,0.0078
2844.00,0.0074
2843.00,0.0070
2842.00,0.0065
2841.00,0.0060
2840.00,0.0055
2839.00,0.0050
2838.00,0.0045
2837.00,0.0041
2836.00,0.0037
2835.00,0.0033
2834.00,0.0031
2833.00,0.0028
2832.00,0.0026
2831.00,0.0025
2830.00,0.0024
2829.00,0.0023
2828.00,0.0022
2827.00,0.0021
2826.00,0.0020
2825.00,0.0020
2824.00,0.0019
2823.00,0.0019
2822.00,0.0018
2821.00,0.0018
2820.00,0.0018
2819.00,0.0017
2818.00,0.0017
2817.00,0.0017
2816.00,0.0017
2815.00,0.0017
2814.00,0.0017
2813.00,0.0017
2812.00,0.0016
2811.00,0.0016
2810.00,0.0016
2809.00,0.0016
2808.00,0.0016
2807.00,0.0016
2806.00,0.0016
2805.00,0.0016
2804.00,0.0016
2803.00,0.0016
2802.00,0.0016
2801.00,0.0015
2800.00,0.0015
2799.00,0.0015
2798.00,0.0015
2797.00,0.0014
2796.00,0.0014
2795.00,0.0014
2794.00,0.0014
2793.00,0.0013
2792.00,0.0013
2791.00,0.0013
2790.00,0.0013
2789.00,0.0013
2788.00,0.0013
2787.00,0.0013
2786.00,0.0013
2785.00,0.0013
2784.00,0.0013
2783.00,0.0013
2782.00,0.0013
2781.00,0.0013
2780.00,0.0013
2779.00,0.0013
2778.00,0.0013
2777.00,0.0013
2776.00,0.0013
2775.00,0.0013
2774.00,0.0013
2773.00,0.0013
2772.00,0.0012
2771.00,0.0012
2770.00,0.0012
2769.00,0.0012
2768.00,0.0012
2767.00,0.0012
2766.00,0.0012
2765.00,0.0012
2764.00,0.0012
2763.00,0.0011
2762.00,0.0011
2761.00,0.0012
2760.00,0.0012
2759.00,0.0012
2758.00,0.0012
2757.00,0.0011
2756.00,0.0011
2755.00,0.0011
2754.00,0.0011
2753.00,0.0011
2752.00,0.0011
2751.00,0.0011
2750.00,0.0011
2749.00,0.0011
2748.00,0.0011
2747.00,0.0011
2746.00,0.0011
2745.00,0.0011
2744.00,0.0011
2743.00,0.0011
2742.00,0.0011
2741.00,0.0011
2740.00,0.0011
2739.00,0.0011
2738.00,0.0011
2737.00,0.0011
2736.00,0.0012
2735.00,0.0012
2734.00,0.0011
2733.00,0.0011
2732.00,0.0011
2731.00,0.0011
2730.00,0.0011
2729.00,0.0011
2728.00,0.0011
2727.00,0.0011
2726.00,0.0011
2725.00,0.0011
2724.00,0.0011
2723.00,0.0012
2722.00,0.0012
2721.00,0.0012
2720.00,0.0012
2719.00,0.0012
2718.00,0.0012
2717.00,0.0012
2716.00,0.0012
2715.00,0.0012
2714.00,0.0012
2713.00,0.0012
2712.00,0.0012
2711.00,0.0012
2710.00,0.0012
2709.00,0.0011
2708.00,0.0011
2707.00,0.0011
2706.00,0.0011
2705.00,0.0012
2704.00,0.0012
2703.00,0.0012
2702.00,0.0012
2701.00,0.0011
2700.00,0.0011
2699.00,0.0011
2698.00,0.0011
2697.00,0.0011
2696.00,0.0012
2695.00,0.0012
2694.00,0.0011
2693.00,0.0011
2692.00,0.0011
2691.00,0.0011
2690.00,0.0011
2689.00,0.0012
2688.00,0.0012
2687.00,0.0012
2686.00,0.0012
2685.00,0.0011
2684.00,0.0011
2683.00,0.0011
2682.00,0.0011
2681.00,0.0011
2680.00,0.0011
2679.00,0.0011
2678.00,0.0011
2677.00,0.0011
2676.00,0.0011
2675.00,0.0011
2674.00,0.0011
2673.00,0.0011
2672.00,0.0012
2671.00,0.0012
2670.00,0.0012
2669.00,0.0012
2668.00,0.0012
2667.00,0.0013
2666.00,0.0013
2665.00,0.0013
2664.00,0.0014
2663.00,0.0014
2662.00,0.0015
2661.00,0.0015
2660.00,0.0015
2659.00,0.0015
2658.00,0.0015
2657.00,0.0016
2656.00,0.0016
2655.00,0.0016
2654.00,0.0016
2653.00,0.0016
2652.00,0.0016
2651.00,0.0016
2650.00,0.0016
2649.00,0.0017
2648.00,0.0017
2647.00,0.0016
2646.00,0.0016
2645.00,0.0016
2644.00,0.0016
2643.00,0.0016
2642.00,0.0016
2641.00,0.0016
2640.00,0.0016
2639.00,0.0016
2638.00,0.0016
2637.00,0.0016
2636.00,0.0016
2635.00,0.0017
2634.00,0.0017
2633.00,0.0017
2632.00,0.0017
2631.00,0.0016
2630.00,0.0016
2629.00,0.0016
2628.00,0.0016
2627.00,0.0016
2626.00,0.0016
2625.00,0.0015
2624.00,0.0015
2623.00,0.0015
2622.00,0.0015
2621.00,0.0015
2620.00,0.0014
2619.00,0.0014
2618.00,0.0014
2617.00,0.0014
2616.00,0.0014
2615.00,0.0014
2614.00,0.0014
2613.00,0.0014
2612.00,0.0014
2611.00,0.0014
2610.00,0.0014
2609.00,0.0014
2608.00,0.0014
2607.00,0.0014
2606.00,0.0014
2605.00,0.0014
2604.00,0.0014
2603.00,0.0014
2602.00,0.0014
2601.00,0.0014
2600.00,0.0014
2599.00,0.0014
2598.00,0.0014
2597.00,0.0014
2596.00,0.0014
2595.00,0.0013
2594.00,0.0013
2593.00,0.0013
2592.00,0.0013
2591.00,0.0013
2590.00,0.0012
2589.00,0.0012
2588.00,0.0012
2587.00,0.0012
2586.00,0.0012
2585.00,0.0012
2584.00,0.0012
2583.00,0.0012
2582.00,0.0012
2581.00,0.0012
2580.00,0.0012
2579.00,0.0011
2578.00,0.0011
2577.00,0.0011
2576.00,0.0011
2575.00,0.0011
2574.00,0.0011
2573.00,0.0011
2572.00,0.0010
2571.00,0.0010
2570.00,0.0010
2569.00,0.0010
2568.00,0.0011
2567.00,0.0011
2566.00,0.0011
2565.00,0.0011
2564.00,0.0010
2563.00,0.0010
2562.00,0.0010
2561.00,0.0010
2560.00,0.0010
2559.00,0.0010
2558.00,0.0010
2557.00,0.0010
2556.00,0.0010
2555.00,0.0010
2554.00,0.0009
2553.00,0.0009
2552.00,0.0009
2551.00,0.0009
2550.00,0.0009
2549.00,0.0009
2548.00,0.0009
2547.00,0.0009
2546.00,0.0009
2545.00,0.0009
2544.00,0.0008
2543.00,0.0009
2542.00,0.0009
2541.00,0.0009
2540.00,0.0009
2539.00,0.0009
2538.00,0.0009
2537.00,0.0009
2536.00,0.0009
2535.00,0.0008
2534.00,0.0008
2533.00,0.0008
2532.00,0.0008
2531.00,0.0009
2530.00,0.0009
2529.00,0.0009
2528.00,0.0009
2527.00,0.0009
2526.00,0.0009
2525.00,0.0008
2524.00,0.0008
2523.00,0.0008
2522.00,0.0008
2521.00,0.0008
2520.00,0.0008
2519.00,0.0009
2518.00,0.0009
2517.00,0.0009
2516.00,0.0010
2515.00,0.0010
2514.00,0.0009
2513.00,0.0009
2512.00,0.0009
2511.00,0.0009
2510.00,0.0009
2509.00,0.0009
2508.00,0.0009
2507.00,0.0009
2506.00,0.0008
2505.00,0.0008
2504.00,0.0008
2503.00,0.0008
2502.00,0.0007
2501.00,0.0007
2500.00,0.0007
2499.00,0.0007
2498.00,0.0008
2497.00,0.0008
2496.00,0.0008
2495.00,0.0008
2494.00,0.0008
2493.00,0.0008
2492.00,0.0007
2491.00,0.0007
2490.00,0.0007
2489.00,0.0008
2488.00,0.0008
2487.00,0.0008
2486.00,0.0008
2485.00,0.0008
2484.00,0.0008
2483.00,0.0008
2482.00,0.0007
2481.00,0.0007
2480.00,0.0007
2479.00,0.0008
2478.00,0.0008
2477.00,0.0007
2476.00,0.0007
2475.00,0.0007
2474.00,0.0008
2473.00,0.0008
2472.00,0.0007
2471.00,0.0008
2470.00,0.0008
2469.00,0.0008
2468.00,0.0008
2467.00,0.0008
2466.00,0.0007
2465.00,0.0007
2464.00,0.0007
2463.00,0.0007
2462.00,0.0007
2461.00,0.0007
2460.00,0.0008
2459.00,0.0008
2458.00,0.0009
2457.00,0.0009
2456.00,0.0009
2455.00,0.0008
2454.00,0.0008
2453.00,0.0008
2452.00,0.0007
2451.00,0.0007
2450.00,0.0007
2449.00,0.0007
2448.00,0.0007
2447.00,0.0007
2446.00,0.0007
2445.00,0.0006
2444.00,0.0006
2443.00,0.0006
2442.00,0.0006
2441.00,0.0007
2440.00,0.0007
2439.00,0.0007
2438.00,0.0006
2437.00,0.0006
2436.00,0.0006
2435.00,0.0005
2434.00,0.0005
2433.00,0.0005
2432.00,0.0005
2431.00,0.0005
2430.00,0.0005
2429.00,0.0005
2428.00,0.0005
2427.00,0.0005
2426.00,0.0005
2425.00,0.0005
2424.00,0.0005
2423.00,0.0005
2422.00,0.0005
2421.00,0.0004
2420.00,0.0004
2419.00,0.0005
2418.00,0.0005
2417.00,0.0005
2416.00,0.0005
2415.00,0.0005
2414.00,0.0005
2413.00,0.0005
2412.00,0.0005
2411.00,0.0005
2410.00,0.0005
2409.00,0.0005
2408.00,0.0004
2407.00,0.0003
2406.00,0.0003
2405.00,0.0003
2404.00,0.0003
2403.00,0.0004
2402.00,0.0004
2401.00,0.0004
2400.00,0.0004
2399.00,0.0003
2398.00,0.0003
2397.00,0.0003
2396.00,0.0003
2395.00,0.0003
2394.00,0.0003
2393.00,0.0003
2392.00,0.0003
2391.00,0.0003
2390.00,0.0003
2389.00,0.0004
2388.00,0.0004
2387.00,0.0003
2386.00,0.0003
2385.00,0.0003
2384.00,0.0003
2383.00,0.0003
2382.00,0.0003
2381.00,0.0003
2380.00,0.0003
2379.00,0.0003
2378.00,0.0003
2377.00,0.0003
2376.00,0.0003
2375.00,0.0003
2374.00,0.0003
2373.00,0.0003
2372.00,0.0003
2371.00,0.0003
2370.00,0.0002
2369.00,0.0002
2368.00,0.0002
2367.00,0.0002
2366.00,0.0002
2365.00,0.0003
2364.00,0.0004
2363.00,0.0004
2362.00,0.0004
2361.00,0.0004
2360.00,0.0004
2359.00,0.0005
2358.00,0.0005
2357.00,0.0005
2356.00,0.0005
2355.00,0.0005
2354.00,0.0005
2353.00,0.0005
2352.00,0.0005
2351.00,0.0004
2350.00,0.0005
2349.00,0.0005
2348.00,0.0006
2347.00,0.0007
2346.00,0.0008
2345.00,0.0009
2344.00,0.0009
2343.00,0.0009
2342.00,0.0009
2341.00,0.0009
2340.00,0.0009
2339.00,0.0010
2338.00,0.0010
2337.00,0.0010
2336.00,0.0010
2335.00,0.0009
2334.00,0.0009
2333.00,0.0009
2332.00,0.0009
2331.00,0.0009
2330.00,0.0010
2329.00,0.0011
2328.00,0.0013
2327.00,0.0017
2326.00,0.0020
2325.00,0.0021
2324.00,0.0020
2323.00,0.0019
2322.00,0.0017
2321.00,0.0016
2320.00,0.0015
2319.00,0.0014
2318.00,0.0014
2317.00,0.0014
2316.00,0.0013
2315.00,0.0013
2314.00,0.0013
2313.00,0.0013
2312.00,0.0013
2311.00,0.0013
2310.00,0.0013
2309.00,0.0012
2308.00,0.0012
2307.00,0.0012
2306.00,0.0012
2305.00,0.0012
2304.00,0.0013
2303.00,0.0013
2302.00,0.0012
2301.00,0.0012
2300.00,0.0012
2299.00,0.0013
2298.00,0.0013
2297.00,0.0013
2296.00,0.0013
2295.00,0.0014
2294.00,0.0014
2293.00,0.0015
2292.00,0.0016
2291.00,0.0016
2290.00,0.0016
2289.00,0.0017
2288.00,0.0017
2287.00,0.0017
2286.00,0.0017
2285.00,0.0017
2284.00,0.0016
2283.00,0.0015
2282.00,0.0014
2281.00,0.0013
2280.00,0.0013
2279.00,0.0013
2278.00,0.0012
2277.00,0.0011
2276.00,0.0011
2275.00,0.0011
2274.00,0.0012
2273.00,0.0012
2272.00,0.0013
2271.00,0.0013
2270.00,0.0012
2269.00,0.0012
2268.00,0.0011
2267.00,0.0010
2266.00,0.0010
2265.00,0.0009
2264.00,0.0010
2263.00,0.0010
2262.00,0.0010
2261.00,0.0010
2260.00,0.0011
2259.00,0.0011
2258.00,0.0010
2257.00,0.0009
2256.00,0.0008
2255.00,0.0007
2254.00,0.0007
2253.00,0.0007
2252.00,0.0007
2251.00,0.0007
2250.00,0.0008
2249.00,0.0008
2248.00,0.0007
2247.00,0.0007
2246.00,0.0007
2245.00,0.0008
2244.00,0.0008
2243.00,0.0008
2242.00,0.0008
2241.00,0.0007
2240.00,0.0007
2239.00,0.0008
2238.00,0.0009
2237.00,0.0009
2236.00,0.0009
2235.00,0.0009
2234.00,0.0009
2233.00,0.0009
2232.00,0.0009
2231.00,0.0010
2230.00,0.0010
2229.00,0.0010
2228.00,0.0010
2227.00,0.0009
2226.00,0.0009
2225.00,0.0009
2224.00,0.0009
2223.00,0.0009
2222.00,0.0009
2221.00,0.0008
2220.00,0.0008
2219.00,0.0008
2218.00,0.0008
2217.00,0.0008
2216.00,0.0007
2215.00,0.0006
2214.00,0.0006
2213.00,0.0006
2212.00,0.0006
2211.00,0.0006
2210.00,0.0007
2209.00,0.0006
2208.00,0.0006
2207.00,0.0006
2206.00,0.0006
2205.00,0.0007
2204.00,0.0007
2203.00,0.0007
2202.00,0.0006
2201.00,0.0005
2200.00,0.0005
2199.00,0.0006
2198.00,0.0008
2197.00,0.0009
2196.00,0.0009
2195.00,0.0010
2194.00,0.0010
2193.00,0.0009
2192.00,0.0009
2191.00,0.0009
2190.00,0.0009
2189.00,0.0008
2188.00,0.0008
2187.00,0.0009
2186.00,0.0009
2185.00,0.0009
2184.00,0.0007
2183.00,0.0005
2182.00,0.0003
2181.00,0.0002
2180.00,0.0002
2179.00,0.0002
2178.00,0.0001
2177.00,0.0000
2176.00,-0.0001
2175.00,-0.0002
2174.00,-0.0001
2173.00,0.0001
2172.00,0.0004
2171.00,0.0008
2170.00,0.0011
2169.00,0.0013
2168.00,0.0014
2167.00,0.0015
2166.00,0.0016
2165.00,0.0017
2164.00,0.0019
2163.00,0.0019
2162.00,0.0015
2161.00,0.0005
2160.00,-0.0008
2159.00,-0.0020
2158.00,-0.0026
2157.00,-0.0026
2156.00,-0.0023
2155.00,-0.0019
2154.00,-0.0016
2153.00,-0.0014
2152.00,-0.0013
2151.00,-0.0013
2150.00,-0.0013
2149.00,-0.0014
2148.00,-0.0014
2147.00,-0.0014
2146.00,-0.0013
2145.00,-0.0013
2144.00,-0.0014
2143.00,-0.0014
2142.00,-0.0013
2141.00,-0.0013
2140.00,-0.0013
2139.00,-0.0012
2138.00,-0.0013
2137.00,-0.0015
2136.00,-0.0017
2135.00,-0.0019
2134.00,-0.0020
2133.00,-0.0019
2132.00,-0.0017
2131.00,-0.0014
2130.00,-0.0011
2129.00,-0.0009
2128.00,-0.0007
2127.00,-0.0005
2126.00,-0.0005
2125.00,-0.0005
2124.00,-0.0005
2123.00,-0.0004
2122.00,-0.0003
2121.00,-0.0002
2120.00,-0.0001
2119.00,-0.0000
2118.00,0.0001
2117.00,0.0001
2116.00,0.0002
2115.00,0.0003
2114.00,0.0003
2113.00,0.0004
2112.00,0.0004
2111.00,0.0004
2110.00,0.0004
2109.00,0.0003
2108.00,0.0003
2107.00,0.0003
2106.00,0.0003
2105.00,0.0003
2104.00,0.0002
2103.00,0.0002
2102.00,0.0002
2101.00,0.0003
2100.00,0.0003
2099.00,0.0002
2098.00,0.0000
2097.00,-0.0001
2096.00,-0.0003
2095.00,-0.0003
2094.00,-0.0002
2093.00,-0.0001
2092.00,-0.0000
2091.00,0.0001
2090.00,0.0002
2089.00,0.0002
2088.00,0.0003
2087.00,0.0003
2086.00,0.0004
2085.00,0.0004
2084.00,0.0005
2083.00,0.0005
2082.00,0.0005
2081.00,0.0005
2080.00,0.0005
2079.00,0.0005
2078.00,0.0005
2077.00,0.0005
2076.00,0.0005
2075.00,0.0005
2074.00,0.0005
2073.00,0.0005
2072.00,0.0004
2071.00,0.0004
2070.00,0.0003
2069.00,0.0002
2068.00,0.0001
2067.00,0.0001
2066.00,0.0001
2065.00,0.0001
2064.00,0.0002
2063.00,0.0002
2062.00,0.0002
2061.00,0.0002
2060.00,0.0002
2059.00,0.0002
2058.00,0.0003
2057.00,0.0003
2056.00,0.0003
2055.00,0.0004
2054.00,0.0006
2053.00,0.0009
2052.00,0.0011
2051.00,0.0012
2050.00,0.0010
2049.00,0.0007
2048.00,0.0004
2047.00,0.0002
2046.00,0.0002
2045.00,0.0003
2044.00,0.0004
2043.00,0.0005
2042.00,0.0005
2041.00,0.0005
2040.00,0.0005
2039.00,0.0005
2038.00,0.0005
2037.00,0.0004
2036.00,0.0005
2035.00,0.0005
2034.00,0.0003
2033.00,0.0001
2032.00,-0.0002
2031.00,-0.0004
2030.00,-0.0005
2029.00,-0.0004
2028.00,-0.0003
2027.00,-0.0002
2026.00,-0.0002
2025.00,-0.0003
2024.00,-0.0003
2023.00,-0.0004
2022.00,-0.0006
2021.00,-0.0007
2020.00,-0.0007
2019.00,-0.0007
2018.00,-0.0006
2017.00,-0.0006
2016.00,-0.0005
2015.00,-0.0004
2014.00,-0.0002
2013.00,-0.0002
2012.00,-0.0002
2011.00,-0.0002
2010.00,-0.0002
2009.00,-0.0004
2008.00,-0.0007
2007.00,-0.0010
2006.00,-0.0011
2005.00,-0.0011
2004.00,-0.0009
2003.00,-0.0006
2002.00,-0.0004
2001.00,-0.0002
2000.00,-0.0001
1999.00,-0.0001
1998.00,-0.0000
1997.00,-0.0001
1996.00,-0.0001
1995.00,-0.0001
1994.00,-0.0000
1993.00,0.0001
1992.00,0.0002
1991.00,0.0002
1990.00,0.0002
1989.00,0.0003
1988.00,0.0004
1987.00,0.0006
1986.00,0.0007
1985.00,0.0008
1984.00,0.0009
1983.00,0.0012
1982.00,0.0015
1981.00,0.0016
1980.00,0.0013
1979.00,0.0008
1978.00,0.0002
1977.00,-0.0002
1976.00,-0.0003
1975.00,-0.0003
1974.00,-0.0003
1973.00,-0.0002
1972.00,-0.0002
1971.00,-0.0002
1970.00,-0.0002
1969.00,-0.0001
1968.00,-0.0000
1967.00,0.0002
1966.00,0.0003
1965.00,0.0004
1964.00,0.0006
1963.00,0.0007
1962.00,0.0007
1961.00,0.0006
1960.00,0.0004
1959.00,0.0003
1958.00,0.0003
1957.00,0.0004
1956.00,0.0006
1955.00,0.0008
1954.00,0.0011
1953.00,0.0012
1952.00,0.0013
1951.00,0.0014
1950.00,0.0014
1949.00,0.0015
1948.00,0.0017
1947.00,0.0018
1946.00,0.0019
1945.00,0.0019
1944.00,0.0019
1943.00,0.0019
1942.00,0.0019
1941.00,0.0019
1940.00,0.0018
1939.00,0.0018
1938.00,0.0016
1937.00,0.0014
1936.00,0.0013
1935.00,0.0011
1934.00,0.0010
1933.00,0.0008
1932.00,0.0007
1931.00,0.0006
1930.00,0.0005
1929.00,0.0004
1928.00,0.0003
1927.00,0.0002
1926.00,0.0001
1925.00,0.0001
1924.00,0.0001
1923.00,0.0001
1922.00,0.0001
1921.00,0.0001
1920.00,0.0001
1919.00,0.0000
1918.00,0.0000
1917.00,0.0001
1916.00,0.0001
1915.00,0.0001
1914.00,0.0002
1913.00,0.0002
1912.00,0.0002
1911.00,0.0002
1910.00,0.0001
1909.00,0.0001
1908.00,0.0000
1907.00,0.0000
1906.00,0.0001
1905.00,0.0002
1904.00,0.0003
1903.00,0.0003
1902.00,0.0003
1901.00,0.0004
1900.00,0.0004
1899.00,0.0004
1898.00,0.0005
1897.00,0.0005
1896.00,0.0005
1895.00,0.0006
1894.00,0.0007
1893.00,0.0008
1892.00,0.0009
1891.00,0.0010
1890.00,0.0011
1889.00,0.0012
1888.00,0.0013
1887.00,0.0013
1886.00,0.0014
1885.00,0.0015
1884.00,0.0016
1883.00,0.0016
1882.00,0.0016
1881.00,0.0016
1880.00,0.0016
1879.00,0.0017
1878.00,0.0018
1877.00,0.0018
1876.00,0.0019
1875.00,0.0019
1874.00,0.0019
1873.00,0.0020
1872.00,0.0020
1871.00,0.0020
1870.00,0.0020
1869.00,0.0020
1868.00,0.0020
1867.00,0.0019
1866.00,0.0019
1865.00,0.0018
1864.00,0.0017
1863.00,0.0017
1862.00,0.0016
1861.00,0.0015
1860.00,0.0014
1859.00,0.0012
1858.00,0.0011
1857.00,0.0010
1856.00,0.0009
1855.00,0.0008
1854.00,0.0007
1853.00,0.0007
1852.00,0.0007
1851.00,0.0007
1850.00,0.0006
1849.00,0.0006
1848.00,0.0005
1847.00,0.0005
1846.00,0.0004
1845.00,0.0004
1844.00,0.0003
1843.00,0.0003
1842.00,0.0003
1841.00,0.0003
1840.00,0.0003
1839.00,0.0003
1838.00,0.0004
1837.00,0.0004
1836.00,0.0004
1835.00,0.0004
1834.00,0.0004
1833.00,0.0005
1832.00,0.0005
1831.00,0.0005
1830.00,0.0006
1829.00,0.0007
1828.00,0.0007
1827.00,0.0008
1826.00,0.0008
1825.00,0.0009
1824.00,0.0010
1823.00,0.0011
1822.00,0.0012
1821.00,0.0012
1820.00,0.0012
1819.00,0.0011
1818.00,0.0011
1817.00,0.0012
1816.00,0.0013
1815.00,0.0014
1814.00,0.0015
1813.00,0.0016
1812.00,0.0018
1811.00,0.0019
1810.00,0.0020
1809.00,0.0021
1808.00,0.0022
1807.00,0.0023
1806.00,0.0024
1805.00,0.0025
1804.00,0.0025
1803.00,0.0025
1802.00,0.0025
1801.00,0.0025
1800.00,0.0025
1799.00,0.0024
1798.00,0.0024
1797.00,0.0023
1796.00,0.0022
1795.00,0.0021
1794.00,0.0020
1793.00,0.0019
1792.00,0.0017
1791.00,0.0016
1790.00,0.0015
1789.00,0.0014
1788.00,0.0013
1787.00,0.0013
1786.00,0.0013
1785.00,0.0013
1784.00,0.0013
1783.00,0.0013
1782.00,0.0013
1781.00,0.0013
1780.00,0.0013
1779.00,0.0013
1778.00,0.0013
1777.00,0.0013
1776.00,0.0014
1775.00,0.0014
1774.00,0.0014
1773.00,0.0015
1772.00,0.0015
1771.00,0.0014
1770.00,0.0014
1769.00,0.0014
1768.00,0.0015
1767.00,0.0015
1766.00,0.0015
1765.00,0.0016
1764.00,0.0016
1763.00,0.0017
1762.00,0.0017
1761.00,0.0018
1760.00,0.0019
1759.00,0.0020
1758.00,0.0020
1757.00,0.0021
1756.00,0.0022
1755.00,0.0023
1754.00,0.0024
1753.00,0.0025
1752.00,0.0025
1751.00,0.0026
1750.00,0.0026
1749.00,0.0027
1748.00,0.0028
1747.00,0.0028
1746.00,0.0029
1745.00,0.0030
1744.00,0.0030
1743.00,0.0030
1742.00,0.0030
1741.00,0.0031
1740.00,0.0031
1739.00,0.0030
1738.00,0.0030
1737.00,0.0029
1736.00,0.0029
1735.00,0.0029
1734.00,0.0028
1733.00,0.0027
1732.00,0.0026
1731.00,0.0025
1730.00,0.0025
1729.00,0.0024
1728.00,0.0024
1727.00,0.0024
1726.00,0.0024
1725.00,0.0023
1724.00,0.0023
1723.00,0.0022
1722.00,0.0022
1721.00,0.0021
1720.00,0.0021
1719.00,0.0021
1718.00,0.0021
1717.00,0.0020
1716.00,0.0020
1715.00,0.0019
1714.00,0.0019
1713.00,0.0019
1712.00,0.0019
1711.00,0.0019
1710.00,0.0020
1709.00,0.0020
1708.00,0.0019
1707.00,0.0019
1706.00,0.0019
1705.00,0.0019
1704.00,0.0019
1703.00,0.0019
1702.00,0.0020
1701.00,0.0019
1700.00,0.0019
1699.00,0.0019
1698.00,0.0019
1697.00,0.0019
1696.00,0.0019
1695.00,0.0020
1694.00,0.0020
1693.00,0.0021
1692.00,0.0020
1691.00,0.0021
1690.00,0.0021
1689.00,0.0021
1688.00,0.0022
1687.00,0.0022
1686.00,0.0023
1685.00,0.0023
1684.00,0.0024
1683.00,0.0024
1682.00,0.0024
1681.00,0.0024
1680.00,0.0025
1679.00,0.0026
1678.00,0.0026
1677.00,0.0027
1676.00,0.0027
1675.00,0.0028
1674.00,0.0029
1673.00,0.0029
1672.00,0.0029
1671.00,0.0030
1670.00,0.0031
1669.00,0.0032
1668.00,0.0032
1667.00,0.0032
1666.00,0.0032
1665.00,0.0032
1664.00,0.0031
1663.00,0.0031
1662.00,0.0031
1661.00,0.0031
1660.00,0.0030
1659.00,0.0030
1658.00,0.0029
1657.00,0.0028
1656.00,0.0028
1655.00,0.0027
1654.00,0.0026
1653.00,0.0026
1652.00,0.0026
1651.00,0.0026
1650.00,0.0025
1649.00,0.0023
1648.00,0.0022
1647.00,0.0022
1646.00,0.0022
1645.00,0.0022
1644.00,0.0022
1643.00,0.0021
1642.00,0.0021
1641.00,0.0020
1640.00,0.0019
1639.00,0.0019
1638.00,0.0018
1637.00,0.0018
1636.00,0.0018
1635.00,0.0018
1634.00,0.0018
1633.00,0.0018
1632.00,0.0019
1631.00,0.0019
1630.00,0.0019
1629.00,0.0019
1628.00,0.0020
1627.00,0.0020
1626.00,0.0020
1625.00,0.0020
1624.00,0.0020
1623.00,0.0020
1622.00,0.0021
1621.00,0.0021
1620.00,0.0022
1619.00,0.0023
1618.00,0.0024
1617.00,0.0025
1616.00,0.0027
1615.00,0.0028
1614.00,0.0030
1613.00,0.0032
1612.00,0.0035
1611.00,0.0040
1610.00,0.0047
1609.00,0.0056
1608.00,0.0069
1607.00,0.0085
1606.00,0.0103
1605.00,0.0124
1604.00,0.0145
1603.00,0.0164
1602.00,0.0178
1601.00,0.0183
1600.00,0.0179
1599.00,0.0166
1598.00,0.0148
1597.00,0.0128
1596.00,0.0110
1595.00,0.0094
1594.00,0.0081
1593.00,0.0072
1592.00,0.0064
1591.00,0.0058
1590.00,0.0054
1589.00,0.0052
1588.00,0.0053
1587.00,0.0057
1586.00,0.0062
1585.00,0.0069
1584.00,0.0075
1583.00,0.0077
1582.00,0.0074
1581.00,0.0067
1580.00,0.0058
1579.00,0.0050
1578.00,0.0044
1577.00,0.0038
1576.00,0.0033
1575.00,0.0030
1574.00,0.0027
1573.00,0.0026
1572.00,0.0024
1571.00,0.0023
1570.00,0.0022
1569.00,0.0021
1568.00,0.0020
1567.00,0.0019
1566.00,0.0019
1565.00,0.0018
1564.00,0.0018
1563.00,0.0018
1562.00,0.0018
1561.00,0.0018
1560.00,0.0018
1559.00,0.0018
1558.00,0.0018
1557.00,0.0018
1556.00,0.0018
1555.00,0.0019
1554.00,0.0019
1553.00,0.0021
1552.00,0.0022
1551.00,0.0022
1550.00,0.0024
1549.00,0.0025
1548.00,0.0026
1547.00,0.0027
1546.00,0.0027
1545.00,0.0028
1544.00,0.0028
1543.00,0.0028
1542.00,0.0029
1541.00,0.0029
1540.00,0.0028
1539.00,0.0028
1538.00,0.0028
1537.00,0.0027
1536.00,0.0026
1535.00,0.0025
1534.00,0.0024
1533.00,0.0022
1532.00,0.0021
1531.00,0.0020
1530.00,0.0020
1529.00,0.0019
1528.00,0.0018
1527.00,0.0018
1526.00,0.0017
1525.00,0.0017
1524.00,0.0017
1523.00,0.0017
1522.00,0.0017
1521.00,0.0017
1520.00,0.0017
1519.00,0.0018
1518.00,0.0018
1517.00,0.0018
1516.00,0.0018
1515.00,0.0019
1514.00,0.0019
1513.00,0.0020
1512.00,0.0021
1511.00,0.0022
1510.00,0.0023
1509.00,0.0023
1508.00,0.0024
1507.00,0.0026
1506.00,0.0030
1505.00,0.0035
1504.00,0.0039
1503.00,0.0045
1502.00,0.0052
1501.00,0.0062
1500.00,0.0077
1499.00,0.0100
1498.00,0.0137
1497.00,0.0196
1496.00,0.0273
1495.00,0.0353
1494.00,0.0420
1493.00,0.0462
1492.00,0.0467
1491.00,0.0430
1490.00,0.0359
1489.00,0.0281
1488.00,0.0219
1487.00,0.0175
1486.00,0.0144
1485.00,0.0121
1484.00,0.0103
1483.00,0.0089
1482.00,0.0077
1481.00,0.0068
1480.00,0.0062
1479.00,0.0057
1478.00,0.0054
1477.00,0.0051
1476.00,0.0049
1475.00,0.0048
1474.00,0.0047
1473.00,0.0047
1472.00,0.0047
1471.00,0.0047
1470.00,0.0048
1469.00,0.0049
1468.00,0.0050
1467.00,0.0051
1466.00,0.0053
1465.00,0.0055
1464.00,0.0058
1463.00,0.0062
1462.00,0.0067
1461.00,0.0073
1460.00,0.0082
1459.00,0.0097
1458.00,0.0129
1457.00,0.0186
1456.00,0.0260
1455.00,0.0334
1454.00,0.0397
1453.00,0.0445
1452.00,0.0470
1451.00,0.0468
1450.00,0.0444
1449.00,0.0409
1448.00,0.0370
1447.00,0.0335
1446.00,0.0307
1445.00,0.0284
1444.00,0.0263
1443.00,0.0241
1442.00,0.0221
1441.00,0.0204
1440.00,0.0188
1439.00,0.0174
1438.00,0.0160
1437.00,0.0142
1436.00,0.0124
1435.00,0.0110
1434.00,0.0099
1433.00,0.0090
1432.00,0.0082
1431.00,0.0074
1430.00,0.0067
1429.00,0.0062
1428.00,0.0058
1427.00,0.0054
1426.00,0.0052
1425.00,0.0049
1424.00,0.0047
1423.00,0.0045
1422.00,0.0044
1421.00,0.0043
1420.00,0.0042
1419.00,0.0040
1418.00,0.0039
1417.00,0.0039
1416.00,0.0038
1415.00,0.0038
1414.00,0.0038
1413.00,0.0038
1412.00,0.0038
1411.00,0.0037
1410.00,0.0038
1409.00,0.0038
1408.00,0.0038
1407.00,0.0038
1406.00,0.0037
1405.00,0.0037
1404.00,0.0038
1403.00,0.0038
1402.00,0.0039
1401.00,0.0039
1400.00,0.0039
1399.00,0.0040
1398.00,0.0040
1397.00,0.0041
1396.00,0.0042
1395.00,0.0044
1394.00,0.0046
1393.00,0.0048
1392.00,0.0051
1391.00,0.0054
1390.00,0.0057
1389.00,0.0060
1388.00,0.0064
1387.00,0.0067
1386.00,0.0071
1385.00,0.0075
1384.00,0.0078
1383.00,0.0081
1382.00,0.0084
1381.00,0.0087
1380.00,0.0090
1379.00,0.0093
1378.00,0.0096
1377.00,0.0098
1376.00,0.0101
1375.00,0.0103
1374.00,0.0104
1373.00,0.0105
1372.00,0.0105
1371.00,0.0105
1370.00,0.0105
1369.00,0.0104
1368.00,0.0103
1367.00,0.0102
1366.00,0.0101
1365.00,0.0100
1364.00,0.0099
1363.00,0.0097
1362.00,0.0096
1361.00,0.0094
1360.00,0.0093
1359.00,0.0092
1358.00,0.0091
1357.00,0.0090
1356.00,0.0088
1355.00,0.0088
1354.00,0.0087
1353.00,0.0086
1352.00,0.0086
1351.00,0.0086
1350.00,0.0086
1349.00,0.0086
1348.00,0.0085
1347.00,0.0085
1346.00,0.0083
1345.00,0.0082
1344.00,0.0080
1343.00,0.0079
1342.00,0.0077
1341.00,0.0075
1340.00,0.0074
1339.00,0.0073
1338.00,0.0073
1337.00,0.0073
1336.00,0.0074
1335.00,0.0076
1334.00,0.0079
1333.00,0.0081
1332.00,0.0083
1331.00,0.0085
1330.00,0.0087
1329.00,0.0088
1328.00,0.0088
1327.00,0.0088
1326.00,0.0087
1325.00,0.0086
1324.00,0.0084
1323.00,0.0083
1322.00,0.0082
1321.00,0.0081
1320.00,0.0080
1319.00,0.0080
1318.00,0.0081
1317.00,0.0082
1316.00,0.0082
1315.00,0.0083
1314.00,0.0084
1313.00,0.0085
1312.00,0.0085
1311.00,0.0085
1310.00,0.0084
1309.00,0.0084
1308.00,0.0082
1307.00,0.0081
1306.00,0.0080
1305.00,0.0078
1304.00,0.0077
1303.00,0.0075
1302.00,0.0074
1301.00,0.0072
1300.00,0.0071
1299.00,0.0071
1298.00,0.0071
1297.00,0.0071
1296.00,0.0070
1295.00,0.0070
1294.00,0.0070
1293.00,0.0070
1292.00,0.0069
1291.00,0.0068
1290.00,0.0067
1289.00,0.0065
1288.00,0.0064
1287.00,0.0063
1286.00,0.0062
1285.00,0.0062
1284.00,0.0062
1283.00,0.0061
1282.00,0.0062
1281.00,0.0062
1280.00,0.0061
1279.00,0.0061
1278.00,0.0060
1277.00,0.0059
1276.00,0.0058
1275.00,0.0056
1274.00,0.0055
1273.00,0.0053
1272.00,0.0052
1271.00,0.0051
1270.00,0.0050
1269.00,0.0050
1268.00,0.0049
1267.00,0.0048
1266.00,0.0048
1265.00,0.0047
1264.00,0.0047
1263.00,0.0046
1262.00,0.0046
1261.00,0.0045
1260.00,0.0045
1259.00,0.0045
1258.00,0.0046
1257.00,0.0046
1256.00,0.0046
1255.00,0.0047
1254.00,0.0047
1253.00,0.0048
1252.00,0.0048
1251.00,0.0048
1250.00,0.0049
1249.00,0.0049
1248.00,0.0049
1247.00,0.0048
1246.00,0.0049
1245.00,0.0049
1244.00,0.0049
1243.00,0.0048
1242.00,0.0048
1241.00,0.0048
1240.00,0.0048
1239.00,0.0047
1238.00,0.0047
1237.00,0.0047
1236.00,0.0047
1235.00,0.0046
1234.00,0.0046
1233.00,0.0046
1232.00,0.0046
1231.00,0.0046
1230.00,0.0046
1229.00,0.0046
1228.00,0.0046
1227.00,0.0047
1226.00,0.0047
1225.00,0.0047
1224.00,0.0047
1223.00,0.0047
1222.00,0.0047
1221.00,0.0047
1220.00,0.0047
1219.00,0.0047
1218.00,0.0047
1217.00,0.0047
1216.00,0.0047
1215.00,0.0048
1214.00,0.0049
1213.00,0.0050
1212.00,0.0050
1211.00,0.0051
1210.00,0.0052
1209.00,0.0054
1208.00,0.0055
1207.00,0.0056
1206.00,0.0058
1205.00,0.0060
1204.00,0.0062
1203.00,0.0063
1202.00,0.0066
1201.00,0.0068
1200.00,0.0069
1199.00,0.0071
1198.00,0.0072
1197.00,0.0073
1196.00,0.0073
1195.00,0.0074
1194.00,0.0074
1193.00,0.0075
1192.00,0.0075
1191.00,0.0076
1190.00,0.0077
1189.00,0.0078
1188.00,0.0080
1187.00,0.0083
1186.00,0.0087
1185.00,0.0091
1184.00,0.0096
1183.00,0.0101
1182.00,0.0105
1181.00,0.0106
1180.00,0.0104
1179.00,0.0099
1178.00,0.0093
1177.00,0.0085
1176.00,0.0078
1175.00,0.0073
1174.00,0.0069
1173.00,0.0066
1172.00,0.0064
1171.00,0.0063
1170.00,0.0063
1169.00,0.0063
1168.00,0.0063
1167.00,0.0063
1166.00,0.0063
1165.00,0.0064
1164.00,0.0065
1163.00,0.0066
1162.00,0.0069
1161.00,0.0073
1160.00,0.0078
1159.00,0.0085
1158.00,0.0093
1157.00,0.0100
1156.00,0.0106
1155.00,0.0110
1154.00,0.0110
1153.00,0.0107
1152.00,0.0100
1151.00,0.0091
1150.00,0.0083
1149.00,0.0075
1148.00,0.0069
1147.00,0.0064
1146.00,0.0060
1145.00,0.0057
1144.00,0.0055
1143.00,0.0052
1142.00,0.0051
1141.00,0.0049
1140.00,0.0047
1139.00,0.0046
1138.00,0.0045
1137.00,0.0045
1136.00,0.0045
1135.00,0.0045
1134.00,0.0045
1133.00,0.0045
1132.00,0.0045
1131.00,0.0044
1130.00,0.0045
1129.00,0.0045
1128.00,0.0044
1127.00,0.0044
1126.00,0.0045
1125.00,0.0045
1124.00,0.0046
1123.00,0.0046
1122.00,0.0047
1121.00,0.0048
1120.00,0.0050
1119.00,0.0051
1118.00,0.0053
1117.00,0.0055
1116.00,0.0057
1115.00,0.0058
1114.00,0.0059
1113.00,0.0060
1112.00,0.0060
1111.00,0.0060
1110.00,0.0060
1109.00,0.0059
1108.00,0.0059
1107.00,0.0058
1106.00,0.0058
1105.00,0.0058
1104.00,0.0058
1103.00,0.0059
1102.00,0.0059
1101.00,0.0060
1100.00,0.0061
1099.00,0.0062
1098.00,0.0063
1097.00,0.0065
1096.00,0.0065
1095.00,0.0067
1094.00,0.0068
1093.00,0.0070
1092.00,0.0071
1091.00,0.0072
1090.00,0.0073
1089.00,0.0075
1088.00,0.0076
1087.00,0.0078
1086.00,0.0080
1085.00,0.0083
1084.00,0.0086
1083.00,0.0090
1082.00,0.0094
1081.00,0.0098
1080.00,0.0101
1079.00,0.0104
1078.00,0.0108
1077.00,0.0113
1076.00,0.0118
1075.00,0.0123
1074.00,0.0130
1073.00,0.0136
1072.00,0.0142
1071.00,0.0146
1070.00,0.0150
1069.00,0.0152
1068.00,0.0151
1067.00,0.0149
1066.00,0.0145
1065.00,0.0140
1064.00,0.0134
1063.00,0.0128
1062.00,0.0121
1061.00,0.0116
1060.00,0.0111
1059.00,0.0106
1058.00,0.0102
1057.00,0.0098
1056.00,0.0095
1055.00,0.0091
1054.00,0.0089
1053.00,0.0086
1052.00,0.0084
1051.00,0.0081
1050.00,0.0080
1049.00,0.0079
1048.00,0.0077
1047.00,0.0076
1046.00,0.0075
1045.00,0.0074
1044.00,0.0073
1043.00,0.0072
1042.00,0.0072
1041.00,0.0074
1040.00,0.0076
1039.00,0.0079
1038.00,0.0086
1037.00,0.0095
1036.00,0.0108
1035.00,0.0125
1034.00,0.0147
1033.00,0.0172
1032.00,0.0197
1031.00,0.0220
1030.00,0.0238
1029.00,0.0251
1028.00,0.0255
1027.00,0.0251
1026.00,0.0240
1025.00,0.0223
1024.00,0.0205
1023.00,0.0187
1022.00,0.0173
1021.00,0.0160
1020.00,0.0150
1019.00,0.0141
1018.00,0.0134
1017.00,0.0127
1016.00,0.0121
1015.00,0.0116
1014.00,0.0112
1013.00,0.0108
1012.00,0.0105
1011.00,0.0102
1010.00,0.0100
1009.00,0.0100
1008.00,0.0100
1007.00,0.0101
1006.00,0.0104
1005.00,0.0107
1004.00,0.0109
1003.00,0.0109
1002.00,0.0107
1001.00,0.0102
1000.00,0.0095
999.00,0.0089
998.00,0.0084
997.00,0.0080
996.00,0.0078
995.00,0.0077
994.00,0.0077
993.00,0.0077
992.00,0.0077
991.00,0.0077
990.00,0.0078
989.00,0.0080
988.00,0.0081
987.00,0.0084
986.00,0.0086
985.00,0.0089
984.00,0.0092
983.00,0.0094
982.00,0.0097
981.00,0.0099
980.00,0.0100
979.00,0.0100
978.00,0.0100
977.00,0.0098
976.00,0.0096
975.00,0.0094
974.00,0.0092
973.00,0.0092
972.00,0.0093
971.00,0.0094
970.00,0.0098
969.00,0.0101
968.00,0.0105
967.00,0.0109
966.00,0.0112
965.00,0.0113
964.00,0.0113
963.00,0.0112
962.00,0.0110
961.00,0.0106
960.00,0.0101
959.00,0.0096
958.00,0.0093
957.00,0.0089
956.00,0.0087
955.00,0.0085
954.00,0.0085
953.00,0.0085
952.00,0.0084
951.00,0.0085
950.00,0.0086
949.00,0.0087
948.00,0.0087
947.00,0.0088
946.00,0.0089
945.00,0.0090
944.00,0.0091
943.00,0.0091
942.00,0.0091
941.00,0.0090
940.00,0.0088
939.00,0.0085
938.00,0.0082
937.00,0.0079
936.00,0.0076
935.00,0.0073
934.00,0.0070
933.00,0.0068
932.00,0.0065
931.00,0.0063
930.00,0.0061
929.00,0.0060
928.00,0.0060
927.00,0.0060
926.00,0.0061
925.00,0.0062
924.00,0.0063
923.00,0.0064
922.00,0.0065
921.00,0.0067
920.00,0.0070
919.00,0.0073
918.00,0.0078
917.00,0.0083
916.00,0.0090
915.00,0.0098
914.00,0.0108
913.00,0.0118
912.00,0.0130
911.00,0.0141
910.00,0.0153
909.00,0.0164
908.00,0.0171
907.00,0.0176
906.00,0.0177
905.00,0.0173
904.00,0.0165
903.00,0.0155
902.00,0.0143
901.00,0.0130
900.00,0.0116
899.00,0.0103
898.00,0.0092
897.00,0.0083
896.00,0.0076
895.00,0.0071
894.00,0.0067
893.00,0.0064
892.00,0.0061
891.00,0.0059
890.00,0.0057
889.00,0.0055
888.00,0.0053
887.00,0.0052
886.00,0.0051
885.00,0.0050
884.00,0.0048
883.00,0.0047
882.00,0.0047
881.00,0.0047
880.00,0.0046
879.00,0.0046
878.00,0.0046
877.00,0.0046
876.00,0.0044
875.00,0.0043
874.00,0.0043
873.00,0.0042
872.00,0.0041
871.00,0.0040
870.00,0.0040
869.00,0.0040
868.00,0.0040
867.00,0.0040
866.00,0.0040
865.00,0.0040
864.00,0.0040
863.00,0.0040
862.00,0.0041
861.00,0.0041
860.00,0.0041
859.00,0.0040
858.00,0.0041
857.00,0.0042
856.00,0.0042
855.00,0.0044
854.00,0.0046
853.00,0.0048
852.00,0.0051
851.00,0.0054
850.00,0.0058
849.00,0.0063
848.00,0.0068
847.00,0.0073
846.00,0.0078
845.00,0.0082
844.00,0.0086
843.00,0.0088
842.00,0.0089
841.00,0.0090
840.00,0.0088
839.00,0.0085
838.00,0.0081
837.00,0.0076
836.00,0.0070
835.00,0.0063
834.00,0.0058
833.00,0.0053
832.00,0.0049
831.00,0.0046
830.00,0.0044
829.00,0.0042
828.00,0.0041
827.00,0.0040
826.00,0.0040
825.00,0.0040
824.00,0.0039
823.00,0.0039
822.00,0.0039
821.00,0.0040
820.00,0.0040
819.00,0.0040
818.00,0.0041
817.00,0.0041
816.00,0.0041
815.00,0.0041
814.00,0.0041
813.00,0.0042
812.00,0.0042
811.00,0.0041
810.00,0.0042
809.00,0.0042
808.00,0.0043
807.00,0.0043
806.00,0.0044
805.00,0.0044
804.00,0.0044
803.00,0.0045
802.00,0.0046
801.00,0.0048
800.00,0.0049
799.00,0.0050
798.00,0.0053
797.00,0.0055
796.00,0.0058
795.00,0.0061
794.00,0.0065
793.00,0.0069
792.00,0.0073
791.00,0.0077
790.00,0.0083
789.00,0.0088
788.00,0.0094
787.00,0.0100
786.00,0.0107
785.00,0.0114
784.00,0.0121
783.00,0.0129
782.00,0.0138
781.00,0.0149
780.00,0.0160
779.00,0.0173
778.00,0.0189
777.00,0.0206
776.00,0.0226
775.00,0.0247
774.00,0.0271
773.00,0.0296
772.00,0.0323
771.00,0.0352
770.00,0.0383
769.00,0.0415
768.00,0.0445
767.00,0.0476
766.00,0.0506
765.00,0.0536
764.00,0.0565
763.00,0.0595
762.00,0.0626
761.00,0.0657
760.00,0.0686
759.00,0.0714
758.00,0.0739
757.00,0.0758
756.00,0.0770
755.00,0.0775
754.00,0.0775
753.00,0.0772
752.00,0.0768
751.00,0.0766
750.00,0.0765
749.00,0.0764
748.00,0.0759
747.00,0.0747
746.00,0.0727
745.00,0.0695
744.00,0.0652
743.00,0.0602
742.00,0.0549
741.00,0.0498
740.00,0.0449
739.00,0.0403
738.00,0.0363
737.00,0.0325
736.00,0.0288
735.00,0.0254
734.00,0.0222
733.00,0.0193
732.00,0.0167
731.00,0.0145
730.00,0.0129
729.00,0.0116
728.00,0.0106
727.00,0.0099
726.00,0.0095
725.00,0.0091
724.00,0.0088
723.00,0.0087
722.00,0.0087
721.00,0.0087
720.00,0.0088
719.00,0.0090
718.00,0.0093
717.00,0.0098
716.00,0.0104
715.00,0.0113
714.00,0.0126
713.00,0.0144
712.00,0.0169
711.00,0.0204
710.00,0.0251
709.00,0.0313
708.00,0.0392
707.00,0.0489
706.00,0.0606
705.00,0.0743
704.00,0.0897
703.00,0.1069
702.00,0.1257
701.00,0.1458
700.00,0.1664
699.00,0.1872
698.00,0.2074
697.00,0.2250
696.00,0.2373
695.00,0.2413
694.00,0.2349
693.00,0.2185
692.00,0.1950
691.00,0.1692
690.00,0.1450
689.00,0.1241
688.00,0.1069
687.00,0.0934
686.00,0.0828
685.00,0.0744
684.00,0.0674
683.00,0.0616
682.00,0.0567
681.00,0.0524
680.00,0.0488
679.00,0.0457
678.00,0.0432
677.00,0.0410
676.00,0.0390
675.00,0.0372
674.00,0.0358
673.00,0.0345
672.00,0.0332
671.00,0.0321
670.00,0.0312
669.00,0.0302
668.00,0.0290
667.00,0.0277
666.00,0.0267
665.00,0.0258
664.00,0.0247
663.00,0.0237
662.00,0.0227
661.00,0.0218
660.00,0.0208
659.00,0.0198
658.00,0.0190
657.00,0.0182
656.00,0.0173
655.00,0.0166
654.00,0.0161
653.00,0.0156
652.00,0.0149
651.00,0.0143
650.00,0.0138
649.00,0.0134
648.00,0.0130
647.00,0.0126
646.00,0.0124
645.00,0.0123
644.00,0.0120
643.00,0.0118
642.00,0.0118
641.00,0.0118
640.00,0.0118
639.00,0.0119
638.00,0.0123
637.00,0.0126
636.00,0.0128
635.00,0.0131
634.00,0.0136
633.00,0.0140
632.00,0.0143
631.00,0.0145
630.00,0.0148
629.00,0.0150
628.00,0.0152
627.00,0.0153
626.00,0.0155
625.00,0.0157
624.00,0.0158
623.00,0.0161
622.00,0.0165
621.00,0.0167
620.00,0.0166
619.00,0.0162
618.00,0.0157
617.00,0.0152
616.00,0.0148
615.00,0.0145
614.00,0.0143
613.00,0.0140
612.00,0.0137
611.00,0.0134
610.00,0.0133
609.00,0.0131
608.00,0.0129
607.00,0.0128
606.00,0.0128
605.00,0.0129
604.00,0.0129
603.00,0.0129
602.00,0.0131
601.00,0.0133
600.00,0.0133
599.00,0.0135
598.00,0.0138
597.00,0.0141
596.00,0.0142
595.00,0.0143
594.00,0.0145
593.00,0.0148
592.00,0.0149
591.00,0.0151
590.00,0.0155
589.00,0.0158
588.00,0.0160
587.00,0.0161
586.00,0.0164
585.00,0.0166
584.00,0.0168
583.00,0.0171
582.00,0.0178
581.00,0.0186
580.00,0.0193
579.00,0.0200
578.00,0.0210
577.00,0.0219
576.00,0.0228
575.00,0.0238
574.00,0.0250
573.00,0.0262
572.00,0.0271
571.00,0.0281
570.00,0.0293
569.00,0.0305
568.00,0.0315
567.00,0.0326
566.00,0.0337
565.00,0.0348
564.00,0.0357
563.00,0.0367
562.00,0.0379
561.00,0.0391
560.00,0.0400
559.00,0.0410
558.00,0.0422
557.00,0.0434
556.00,0.0444
555.00,0.0454
554.00,0.0467
553.00,0.0480
552.00,0.0492
551.00,0.0506
550.00,0.0524
549.00,0.0544
548.00,0.0564
547.00,0.0586
546.00,0.0611
545.00,0.0639
544.00,0.0665
543.00,0.0691
542.00,0.0717
541.00,0.0741
540.00,0.0759
539.00,0.0772
538.00,0.0778
537.00,0.0773
536.00,0.0757
535.00,0.0732
534.00,0.0701
533.00,0.0665
532.00,0.0625
531.00,0.0585
530.00,0.0547
529.00,0.0512
528.00,0.0476
527.00,0.0442
526.00,0.0412
525.00,0.0385
524.00,0.0361
523.00,0.0342
522.00,0.0327
521.00,0.0313
520.00,0.0298
519.00,0.0285
518.00,0.0275
517.00,0.0266
516.00,0.0256
515.00,0.0247
514.00,0.0242
513.00,0.0237
512.00,0.0228
511.00,0.0220
510.00,0.0214
509.00,0.0206
508.00,0.0195
507.00,0.0186
506.00,0.0183
505.00,0.0180
504.00,0.0175
503.00,0.0169
502.00,0.0166
501.00,0.0163
500.00,0.0157
499.00,0.0152
498.00,0.0151
497.00,0.0150
496.00,0.0146
495.00,0.0142
494.00,0.0141
493.00,0.0140
492.00,0.0136
491.00,0.0133
490.00,0.0134
489.00,0.0133
488.00,0.0128
487.00,0.0124
486.00,0.0125
485.00,0.0125
484.00,0.0121
483.00,0.0117
482.00,0.0116
481.00,0.0114
480.00,0.0111
479.00,0.0109
478.00,0.0111
477.00,0.0111
476.00,0.0106
475.00,0.0102
474.00,0.0103
473.00,0.0106
472.00,0.0105
471.00,0.0104
470.00,0.0107
469.00,0.0109
468.00,0.0105
467.00,0.0101
466.00,0.0103
465.00,0.0106
464.00,0.0105
463.00,0.0104
462.00,0.0106
461.00,0.0106
460.00,0.0100
459.00,0.0094
458.00,0.0093
457.00,0.0093
456.00,0.0089
455.00,0.0086
454.00,0.0089
453.00,0.0091
452.00,0.0089
451.00,0.0088
450.00,0.0092
449.00,0.0097
448.00,0.0095
447.00,0.0092
446.00,0.0092
445.00,0.0091
444.00,0.0087
443.00,0.0086
442.00,0.0091
441.00,0.0094
440.00,0.0091
439.00,0.0089
438.00,0.0091
437.00,0.0093
436.00,0.0088
435.00,0.0085
434.00,0.0089
433.00,0.0091
432.00,0.0086
431.00,0.0082
430.00,0.0084
429.00,0.0084
428.00,0.0076
427.00,0.0070
426.00,0.0074
425.00,0.0078
424.00,0.0073
423.00,0.0069
422.00,0.0073
421.00,0.0078
420.00,0.0072
419.00,0.0066
418.00,0.0073
417.00,0.0081
416.00,0.0079
415.00,0.0078
414.00,0.0085
413.00,0.0087
412.00,0.0075
411.00,0.0066
410.00,0.0073
409.00,0.0085
408.00,0.0089
407.00,0.0090
406.00,0.0095
405.00,0.0095
404.00,0.0082
403.00,0.0073
402.00,0.0082
401.00,0.0087
400.00,0.0074
