Created as New Dataset,Sample 551 By YargerLab Date Thursday, June 05 2025
cm-1,A
4000.00,0.0013
3999.00,0.0014
3998.00,0.0014
3997.00,0.0014
3996.00,0.0014
3995.00,0.0014
3994.00,0.0014
3993.00,0.0014
3992.00,0.0013
3991.00,0.0013
3990.00,0.0013
3989.00,0.0013
3988.00,0.0013
3987.00,0.0013
3986.00,0.0013
3985.00,0.0013
3984.00,0.0013
3983.00,0.0014
3982.00,0.0014
3981.00,0.0014
3980.00,0.0013
3979.00,0.0013
3978.00,0.0013
3977.00,0.0013
3976.00,0.0013
3975.00,0.0013
3974.00,0.0013
3973.00,0.0013
3972.00,0.0013
3971.00,0.0013
3970.00,0.0013
3969.00,0.0013
3968.00,0.0013
3967.00,0.0014
3966.00,0.0014
3965.00,0.0013
3964.00,0.0013
3963.00,0.0013
3962.00,0.0013
3961.00,0.0013
3960.00,0.0013
3959.00,0.0013
3958.00,0.0013
3957.00,0.0013
3956.00,0.0013
3955.00,0.0013
3954.00,0.0013
3953.00,0.0013
3952.00,0.0013
3951.00,0.0012
3950.00,0.0012
3949.00,0.0011
3948.00,0.0011
3947.00,0.0011
3946.00,0.0011
3945.00,0.0011
3944.00,0.0011
3943.00,0.0012
3942.00,0.0013
3941.00,0.0013
3940.00,0.0013
3939.00,0.0013
3938.00,0.0013
3937.00,0.0013
3936.00,0.0012
3935.00,0.0012
3934.00,0.0011
3933.00,0.0010
3932.00,0.0011
3931.00,0.0011
3930.00,0.0011
3929.00,0.0011
3928.00,0.0012
3927.00,0.0012
3926.00,0.0012
3925.00,0.0012
3924.00,0.0012
3923.00,0.0012
3922.00,0.0011
3921.00,0.0011
3920.00,0.0010
3919.00,0.0010
3918.00,0.0009
3917.00,0.0009
3916.00,0.0010
3915.00,0.0010
3914.00,0.0011
3913.00,0.0011
3912.00,0.0012
3911.00,0.0012
3910.00,0.0012
3909.00,0.0012
3908.00,0.0012
3907.00,0.0012
3906.00,0.0012
3905.00,0.0011
3904.00,0.0009
3903.00,0.0008
3902.00,0.0007
3901.00,0.0007
3900.00,0.0008
3899.00,0.0008
3898.00,0.0009
3897.00,0.0009
3896.00,0.0010
3895.00,0.0010
3894.00,0.0011
3893.00,0.0011
3892.00,0.0011
3891.00,0.0011
3890.00,0.0010
3889.00,0.0010
3888.00,0.0009
3887.00,0.0008
3886.00,0.0008
3885.00,0.0009
3884.00,0.0009
3883.00,0.0009
3882.00,0.0009
3881.00,0.0009
3880.00,0.0010
3879.00,0.0010
3878.00,0.0010
3877.00,0.0009
3876.00,0.0009
3875.00,0.0010
3874.00,0.0010
3873.00,0.0010
3872.00,0.0009
3871.00,0.0008
3870.00,0.0007
3869.00,0.0007
3868.00,0.0008
3867.00,0.0007
3866.00,0.0007
3865.00,0.0008
3864.00,0.0008
3863.00,0.0009
3862.00,0.0009
3861.00,0.0008
3860.00,0.0009
3859.00,0.0009
3858.00,0.0010
3857.00,0.0010
3856.00,0.0010
3855.00,0.0010
3854.00,0.0009
3853.00,0.0008
3852.00,0.0007
3851.00,0.0007
3850.00,0.0006
3849.00,0.0007
3848.00,0.0007
3847.00,0.0008
3846.00,0.0009
3845.00,0.0009
3844.00,0.0010
3843.00,0.0010
3842.00,0.0010
3841.00,0.0010
3840.00,0.0010
3839.00,0.0009
3838.00,0.0009
3837.00,0.0009
3836.00,0.0009
3835.00,0.0010
3834.00,0.0009
3833.00,0.0009
3832.00,0.0009
3831.00,0.0009
3830.00,0.0009
3829.00,0.0009
3828.00,0.0009
3827.00,0.0009
3826.00,0.0010
3825.00,0.0010
3824.00,0.0009
3823.00,0.0009
3822.00,0.0009
3821.00,0.0009
3820.00,0.0009
3819.00,0.0009
3818.00,0.0008
3817.00,0.0008
3816.00,0.0009
3815.00,0.0010
3814.00,0.0010
3813.00,0.0010
3812.00,0.0010
3811.00,0.0010
3810.00,0.0011
3809.00,0.0011
3808.00,0.0010
3807.00,0.0010
3806.00,0.0010
3805.00,0.0010
3804.00,0.0010
3803.00,0.0009
3802.00,0.0009
3801.00,0.0010
3800.00,0.0010
3799.00,0.0010
3798.00,0.0009
3797.00,0.0009
3796.00,0.0010
3795.00,0.0010
3794.00,0.0011
3793.00,0.0011
3792.00,0.0011
3791.00,0.0012
3790.00,0.0012
3789.00,0.0012
3788.00,0.0012
3787.00,0.0012
3786.00,0.0012
3785.00,0.0012
3784.00,0.0012
3783.00,0.0012
3782.00,0.0012
3781.00,0.0012
3780.00,0.0012
3779.00,0.0012
3778.00,0.0012
3777.00,0.0011
3776.00,0.0011
3775.00,0.0011
3774.00,0.0012
3773.00,0.0012
3772.00,0.0011
3771.00,0.0011
3770.00,0.0011
3769.00,0.0011
3768.00,0.0010
3767.00,0.0010
3766.00,0.0011
3765.00,0.0011
3764.00,0.0011
3763.00,0.0012
3762.00,0.0011
3761.00,0.0011
3760.00,0.0011
3759.00,0.0011
3758.00,0.0011
3757.00,0.0011
3756.00,0.0011
3755.00,0.0010
3754.00,0.0009
3753.00,0.0009
3752.00,0.0008
3751.00,0.0006
3750.00,0.0005
3749.00,0.0005
3748.00,0.0005
3747.00,0.0006
3746.00,0.0005
3745.00,0.0005
3744.00,0.0005
3743.00,0.0006
3742.00,0.0006
3741.00,0.0006
3740.00,0.0006
3739.00,0.0005
3738.00,0.0005
3737.00,0.0004
3736.00,0.0005
3735.00,0.0005
3734.00,0.0005
3733.00,0.0005
3732.00,0.0005
3731.00,0.0006
3730.00,0.0007
3729.00,0.0007
3728.00,0.0007
3727.00,0.0007
3726.00,0.0007
3725.00,0.0008
3724.00,0.0008
3723.00,0.0008
3722.00,0.0008
3721.00,0.0009
3720.00,0.0009
3719.00,0.0010
3718.00,0.0010
3717.00,0.0010
3716.00,0.0011
3715.00,0.0011
3714.00,0.0011
3713.00,0.0010
3712.00,0.0010
3711.00,0.0010
3710.00,0.0010
3709.00,0.0010
3708.00,0.0010
3707.00,0.0011
3706.00,0.0011
3705.00,0.0012
3704.00,0.0012
3703.00,0.0013
3702.00,0.0013
3701.00,0.0013
3700.00,0.0013
3699.00,0.0013
3698.00,0.0013
3697.00,0.0014
3696.00,0.0014
3695.00,0.0015
3694.00,0.0015
3693.00,0.0016
3692.00,0.0016
3691.00,0.0017
3690.00,0.0017
3689.00,0.0016
3688.00,0.0015
3687.00,0.0015
3686.00,0.0016
3685.00,0.0016
3684.00,0.0017
3683.00,0.0017
3682.00,0.0018
3681.00,0.0018
3680.00,0.0019
3679.00,0.0020
3678.00,0.0020
3677.00,0.0019
3676.00,0.0019
3675.00,0.0020
3674.00,0.0020
3673.00,0.0021
3672.00,0.0021
3671.00,0.0021
3670.00,0.0023
3669.00,0.0024
3668.00,0.0025
3667.00,0.0025
3666.00,0.0026
3665.00,0.0027
3664.00,0.0028
3663.00,0.0029
3662.00,0.0030
3661.00,0.0031
3660.00,0.0032
3659.00,0.0032
3658.00,0.0033
3657.00,0.0034
3656.00,0.0034
3655.00,0.0035
3654.00,0.0035
3653.00,0.0035
3652.00,0.0035
3651.00,0.0035
3650.00,0.0037
3649.00,0.0038
3648.00,0.0039
3647.00,0.0040
3646.00,0.0041
3645.00,0.0043
3644.00,0.0044
3643.00,0.0045
3642.00,0.0047
3641.00,0.0049
3640.00,0.0050
3639.00,0.0052
3638.00,0.0053
3637.00,0.0054
3636.00,0.0054
3635.00,0.0055
3634.00,0.0056
3633.00,0.0056
3632.00,0.0056
3631.00,0.0056
3630.00,0.0057
3629.00,0.0060
3628.00,0.0062
3627.00,0.0064
3626.00,0.0065
3625.00,0.0066
3624.00,0.0067
3623.00,0.0068
3622.00,0.0069
3621.00,0.0071
3620.00,0.0073
3619.00,0.0075
3618.00,0.0076
3617.00,0.0078
3616.00,0.0078
3615.00,0.0079
3614.00,0.0080
3613.00,0.0081
3612.00,0.0082
3611.00,0.0083
3610.00,0.0084
3609.00,0.0085
3608.00,0.0088
3607.00,0.0091
3606.00,0.0092
3605.00,0.0094
3604.00,0.0094
3603.00,0.0095
3602.00,0.0097
3601.00,0.0098
3600.00,0.0100
3599.00,0.0101
3598.00,0.0102
3597.00,0.0103
3596.00,0.0104
3595.00,0.0106
3594.00,0.0108
3593.00,0.0109
3592.00,0.0110
3591.00,0.0110
3590.00,0.0110
3589.00,0.0111
3588.00,0.0114
3587.00,0.0117
3586.00,0.0120
3585.00,0.0122
3584.00,0.0123
3583.00,0.0125
3582.00,0.0126
3581.00,0.0127
3580.00,0.0129
3579.00,0.0131
3578.00,0.0133
3577.00,0.0134
3576.00,0.0136
3575.00,0.0137
3574.00,0.0139
3573.00,0.0140
3572.00,0.0140
3571.00,0.0140
3570.00,0.0140
3569.00,0.0140
3568.00,0.0142
3567.00,0.0146
3566.00,0.0149
3565.00,0.0152
3564.00,0.0153
3563.00,0.0155
3562.00,0.0156
3561.00,0.0158
3560.00,0.0160
3559.00,0.0162
3558.00,0.0163
3557.00,0.0165
3556.00,0.0166
3555.00,0.0167
3554.00,0.0168
3553.00,0.0170
3552.00,0.0172
3551.00,0.0173
3550.00,0.0174
3549.00,0.0174
3548.00,0.0175
3547.00,0.0177
3546.00,0.0179
3545.00,0.0182
3544.00,0.0184
3543.00,0.0186
3542.00,0.0188
3541.00,0.0189
3540.00,0.0190
3539.00,0.0191
3538.00,0.0193
3537.00,0.0195
3536.00,0.0197
3535.00,0.0199
3534.00,0.0200
3533.00,0.0201
3532.00,0.0202
3531.00,0.0202
3530.00,0.0203
3529.00,0.0205
3528.00,0.0206
3527.00,0.0207
3526.00,0.0209
3525.00,0.0210
3524.00,0.0212
3523.00,0.0214
3522.00,0.0216
3521.00,0.0218
3520.00,0.0219
3519.00,0.0220
3518.00,0.0222
3517.00,0.0223
3516.00,0.0225
3515.00,0.0226
3514.00,0.0227
3513.00,0.0229
3512.00,0.0230
3511.00,0.0231
3510.00,0.0233
3509.00,0.0234
3508.00,0.0236
3507.00,0.0236
3506.00,0.0237
3505.00,0.0238
3504.00,0.0239
3503.00,0.0242
3502.00,0.0244
3501.00,0.0246
3500.00,0.0247
3499.00,0.0248
3498.00,0.0250
3497.00,0.0251
3496.00,0.0252
3495.00,0.0254
3494.00,0.0256
3493.00,0.0257
3492.00,0.0259
3491.00,0.0260
3490.00,0.0262
3489.00,0.0263
3488.00,0.0265
3487.00,0.0266
3486.00,0.0268
3485.00,0.0269
3484.00,0.0270
3483.00,0.0271
3482.00,0.0273
3481.00,0.0275
3480.00,0.0277
3479.00,0.0278
3478.00,0.0280
3477.00,0.0281
3476.00,0.0283
3475.00,0.0285
3474.00,0.0286
3473.00,0.0288
3472.00,0.0289
3471.00,0.0291
3470.00,0.0292
3469.00,0.0293
3468.00,0.0295
3467.00,0.0296
3466.00,0.0298
3465.00,0.0299
3464.00,0.0300
3463.00,0.0302
3462.00,0.0304
3461.00,0.0305
3460.00,0.0307
3459.00,0.0309
3458.00,0.0310
3457.00,0.0312
3456.00,0.0313
3455.00,0.0315
3454.00,0.0316
3453.00,0.0317
3452.00,0.0318
3451.00,0.0319
3450.00,0.0320
3449.00,0.0322
3448.00,0.0323
3447.00,0.0325
3446.00,0.0327
3445.00,0.0329
3444.00,0.0330
3443.00,0.0332
3442.00,0.0333
3441.00,0.0335
3440.00,0.0337
3439.00,0.0338
3438.00,0.0339
3437.00,0.0341
3436.00,0.0343
3435.00,0.0344
3434.00,0.0346
3433.00,0.0347
3432.00,0.0349
3431.00,0.0351
3430.00,0.0352
3429.00,0.0354
3428.00,0.0356
3427.00,0.0357
3426.00,0.0359
3425.00,0.0360
3424.00,0.0361
3423.00,0.0363
3422.00,0.0364
3421.00,0.0366
3420.00,0.0368
3419.00,0.0370
3418.00,0.0371
3417.00,0.0373
3416.00,0.0374
3415.00,0.0376
3414.00,0.0377
3413.00,0.0379
3412.00,0.0381
3411.00,0.0382
3410.00,0.0384
3409.00,0.0385
3408.00,0.0387
3407.00,0.0389
3406.00,0.0390
3405.00,0.0392
3404.00,0.0393
3403.00,0.0394
3402.00,0.0396
3401.00,0.0397
3400.00,0.0399
3399.00,0.0400
3398.00,0.0402
3397.00,0.0404
3396.00,0.0405
3395.00,0.0406
3394.00,0.0407
3393.00,0.0409
3392.00,0.0411
3391.00,0.0412
3390.00,0.0414
3389.00,0.0416
3388.00,0.0418
3387.00,0.0419
3386.00,0.0421
3385.00,0.0423
3384.00,0.0425
3383.00,0.0427
3382.00,0.0429
3381.00,0.0430
3380.00,0.0432
3379.00,0.0434
3378.00,0.0435
3377.00,0.0437
3376.00,0.0439
3375.00,0.0441
3374.00,0.0443
3373.00,0.0444
3372.00,0.0446
3371.00,0.0448
3370.00,0.0449
3369.00,0.0451
3368.00,0.0453
3367.00,0.0455
3366.00,0.0458
3365.00,0.0461
3364.00,0.0463
3363.00,0.0465
3362.00,0.0468
3361.00,0.0470
3360.00,0.0472
3359.00,0.0475
3358.00,0.0477
3357.00,0.0480
3356.00,0.0483
3355.00,0.0485
3354.00,0.0487
3353.00,0.0489
3352.00,0.0491
3351.00,0.0494
3350.00,0.0497
3349.00,0.0500
3348.00,0.0503
3347.00,0.0506
3346.00,0.0508
3345.00,0.0511
3344.00,0.0513
3343.00,0.0516
3342.00,0.0518
3341.00,0.0521
3340.00,0.0524
3339.00,0.0527
3338.00,0.0530
3337.00,0.0534
3336.00,0.0538
3335.00,0.0542
3334.00,0.0546
3333.00,0.0549
3332.00,0.0553
3331.00,0.0556
3330.00,0.0560
3329.00,0.0563
3328.00,0.0566
3327.00,0.0569
3326.00,0.0573
3325.00,0.0577
3324.00,0.0582
3323.00,0.0587
3322.00,0.0592
3321.00,0.0596
3320.00,0.0600
3319.00,0.0605
3318.00,0.0609
3317.00,0.0614
3316.00,0.0618
3315.00,0.0622
3314.00,0.0626
3313.00,0.0631
3312.00,0.0635
3311.00,0.0639
3310.00,0.0643
3309.00,0.0648
3308.00,0.0652
3307.00,0.0657
3306.00,0.0662
3305.00,0.0668
3304.00,0.0674
3303.00,0.0680
3302.00,0.0686
3301.00,0.0692
3300.00,0.0697
3299.00,0.0702
3298.00,0.0706
3297.00,0.0711
3296.00,0.0715
3295.00,0.0720
3294.00,0.0725
3293.00,0.0730
3292.00,0.0735
3291.00,0.0740
3290.00,0.0746
3289.00,0.0751
3288.00,0.0756
3287.00,0.0760
3286.00,0.0765
3285.00,0.0769
3284.00,0.0772
3283.00,0.0776
3282.00,0.0779
3281.00,0.0782
3280.00,0.0784
3279.00,0.0786
3278.00,0.0787
3277.00,0.0788
3276.00,0.0788
3275.00,0.0788
3274.00,0.0788
3273.00,0.0788
3272.00,0.0787
3271.00,0.0787
3270.00,0.0786
3269.00,0.0785
3268.00,0.0784
3267.00,0.0782
3266.00,0.0780
3265.00,0.0777
3264.00,0.0773
3263.00,0.0769
3262.00,0.0765
3261.00,0.0761
3260.00,0.0756
3259.00,0.0751
3258.00,0.0746
3257.00,0.0740
3256.00,0.0736
3255.00,0.0731
3254.00,0.0727
3253.00,0.0723
3252.00,0.0718
3251.00,0.0713
3250.00,0.0707
3249.00,0.0701
3248.00,0.0695
3247.00,0.0690
3246.00,0.0686
3245.00,0.0682
3244.00,0.0679
3243.00,0.0675
3242.00,0.0671
3241.00,0.0666
3240.00,0.0662
3239.00,0.0657
3238.00,0.0652
3237.00,0.0647
3236.00,0.0641
3235.00,0.0636
3234.00,0.0632
3233.00,0.0629
3232.00,0.0626
3231.00,0.0624
3230.00,0.0621
3229.00,0.0618
3228.00,0.0615
3227.00,0.0612
3226.00,0.0609
3225.00,0.0605
3224.00,0.0602
3223.00,0.0598
3222.00,0.0595
3221.00,0.0591
3220.00,0.0588
3219.00,0.0585
3218.00,0.0582
3217.00,0.0579
3216.00,0.0576
3215.00,0.0573
3214.00,0.0570
3213.00,0.0567
3212.00,0.0564
3211.00,0.0561
3210.00,0.0559
3209.00,0.0556
3208.00,0.0553
3207.00,0.0550
3206.00,0.0548
3205.00,0.0545
3204.00,0.0542
3203.00,0.0539
3202.00,0.0536
3201.00,0.0533
3200.00,0.0530
3199.00,0.0527
3198.00,0.0525
3197.00,0.0522
3196.00,0.0520
3195.00,0.0517
3194.00,0.0514
3193.00,0.0511
3192.00,0.0508
3191.00,0.0506
3190.00,0.0503
3189.00,0.0500
3188.00,0.0497
3187.00,0.0494
3186.00,0.0492
3185.00,0.0489
3184.00,0.0487
3183.00,0.0484
3182.00,0.0481
3181.00,0.0479
3180.00,0.0476
3179.00,0.0474
3178.00,0.0471
3177.00,0.0469
3176.00,0.0467
3175.00,0.0464
3174.00,0.0461
3173.00,0.0458
3172.00,0.0456
3171.00,0.0454
3170.00,0.0451
3169.00,0.0449
3168.00,0.0447
3167.00,0.0444
3166.00,0.0442
3165.00,0.0440
3164.00,0.0438
3163.00,0.0435
3162.00,0.0433
3161.00,0.0431
3160.00,0.0429
3159.00,0.0427
3158.00,0.0424
3157.00,0.0422
3156.00,0.0419
3155.00,0.0417
3154.00,0.0414
3153.00,0.0412
3152.00,0.0411
3151.00,0.0410
3150.00,0.0409
3149.00,0.0407
3148.00,0.0406
3147.00,0.0404
3146.00,0.0402
3145.00,0.0400
3144.00,0.0398
3143.00,0.0396
3142.00,0.0394
3141.00,0.0392
3140.00,0.0391
3139.00,0.0389
3138.00,0.0388
3137.00,0.0387
3136.00,0.0386
3135.00,0.0385
3134.00,0.0384
3133.00,0.0383
3132.00,0.0381
3131.00,0.0380
3130.00,0.0379
3129.00,0.0379
3128.00,0.0378
3127.00,0.0377
3126.00,0.0377
3125.00,0.0375
3124.00,0.0374
3123.00,0.0372
3122.00,0.0371
3121.00,0.0369
3120.00,0.0368
3119.00,0.0368
3118.00,0.0368
3117.00,0.0368
3116.00,0.0368
3115.00,0.0369
3114.00,0.0370
3113.00,0.0371
3112.00,0.0371
3111.00,0.0371
3110.00,0.0371
3109.00,0.0372
3108.00,0.0372
3107.00,0.0373
3106.00,0.0374
3105.00,0.0375
3104.00,0.0375
3103.00,0.0375
3102.00,0.0375
3101.00,0.0376
3100.00,0.0376
3099.00,0.0378
3098.00,0.0379
3097.00,0.0381
3096.00,0.0382
3095.00,0.0383
3094.00,0.0383
3093.00,0.0383
3092.00,0.0382
3091.00,0.0383
3090.00,0.0383
3089.00,0.0384
3088.00,0.0385
3087.00,0.0385
3086.00,0.0385
3085.00,0.0384
3084.00,0.0384
3083.00,0.0384
3082.00,0.0384
3081.00,0.0383
3080.00,0.0383
3079.00,0.0384
3078.00,0.0384
3077.00,0.0385
3076.00,0.0386
3075.00,0.0387
3074.00,0.0387
3073.00,0.0386
3072.00,0.0385
3071.00,0.0384
3070.00,0.0382
3069.00,0.0380
3068.00,0.0379
3067.00,0.0378
3066.00,0.0377
3065.00,0.0377
3064.00,0.0376
3063.00,0.0375
3062.00,0.0374
3061.00,0.0373
3060.00,0.0371
3059.00,0.0369
3058.00,0.0366
3057.00,0.0364
3056.00,0.0362
3055.00,0.0360
3054.00,0.0357
3053.00,0.0355
3052.00,0.0353
3051.00,0.0351
3050.00,0.0349
3049.00,0.0348
3048.00,0.0346
3047.00,0.0343
3046.00,0.0340
3045.00,0.0337
3044.00,0.0334
3043.00,0.0332
3042.00,0.0331
3041.00,0.0330
3040.00,0.0329
3039.00,0.0328
3038.00,0.0327
3037.00,0.0324
3036.00,0.0322
3035.00,0.0319
3034.00,0.0318
3033.00,0.0317
3032.00,0.0316
3031.00,0.0315
3030.00,0.0315
3029.00,0.0314
3028.00,0.0312
3027.00,0.0310
3026.00,0.0308
3025.00,0.0305
3024.00,0.0303
3023.00,0.0302
3022.00,0.0300
3021.00,0.0298
3020.00,0.0295
3019.00,0.0293
3018.00,0.0291
3017.00,0.0289
3016.00,0.0287
3015.00,0.0285
3014.00,0.0284
3013.00,0.0282
3012.00,0.0281
3011.00,0.0281
3010.00,0.0281
3009.00,0.0281
3008.00,0.0281
3007.00,0.0280
3006.00,0.0279
3005.00,0.0278
3004.00,0.0277
3003.00,0.0276
3002.00,0.0275
3001.00,0.0274
3000.00,0.0273
2999.00,0.0273
2998.00,0.0273
2997.00,0.0274
2996.00,0.0275
2995.00,0.0276
2994.00,0.0278
2993.00,0.0279
2992.00,0.0282
2991.00,0.0284
2990.00,0.0287
2989.00,0.0290
2988.00,0.0294
2987.00,0.0297
2986.00,0.0300
2985.00,0.0302
2984.00,0.0304
2983.00,0.0305
2982.00,0.0308
2981.00,0.0312
2980.00,0.0318
2979.00,0.0324
2978.00,0.0330
2977.00,0.0336
2976.00,0.0342
2975.00,0.0348
2974.00,0.0353
2973.00,0.0358
2972.00,0.0364
2971.00,0.0369
2970.00,0.0375
2969.00,0.0380
2968.00,0.0385
2967.00,0.0389
2966.00,0.0393
2965.00,0.0396
2964.00,0.0399
2963.00,0.0401
2962.00,0.0403
2961.00,0.0404
2960.00,0.0404
2959.00,0.0403
2958.00,0.0401
2957.00,0.0399
2956.00,0.0396
2955.00,0.0393
2954.00,0.0389
2953.00,0.0386
2952.00,0.0383
2951.00,0.0380
2950.00,0.0379
2949.00,0.0377
2948.00,0.0377
2947.00,0.0377
2946.00,0.0378
2945.00,0.0380
2944.00,0.0383
2943.00,0.0386
2942.00,0.0391
2941.00,0.0396
2940.00,0.0400
2939.00,0.0405
2938.00,0.0409
2937.00,0.0413
2936.00,0.0416
2935.00,0.0419
2934.00,0.0422
2933.00,0.0424
2932.00,0.0426
2931.00,0.0427
2930.00,0.0428
2929.00,0.0429
2928.00,0.0429
2927.00,0.0429
2926.00,0.0428
2925.00,0.0427
2924.00,0.0424
2923.00,0.0422
2922.00,0.0418
2921.00,0.0414
2920.00,0.0409
2919.00,0.0403
2918.00,0.0397
2917.00,0.0391
2916.00,0.0384
2915.00,0.0378
2914.00,0.0371
2913.00,0.0365
2912.00,0.0360
2911.00,0.0354
2910.00,0.0349
2909.00,0.0344
2908.00,0.0340
2907.00,0.0335
2906.00,0.0331
2905.00,0.0328
2904.00,0.0324
2903.00,0.0321
2902.00,0.0318
2901.00,0.0316
2900.00,0.0313
2899.00,0.0310
2898.00,0.0307
2897.00,0.0304
2896.00,0.0302
2895.00,0.0300
2894.00,0.0298
2893.00,0.0296
2892.00,0.0295
2891.00,0.0293
2890.00,0.0292
2889.00,0.0291
2888.00,0.0291
2887.00,0.0291
2886.00,0.0291
2885.00,0.0292
2884.00,0.0293
2883.00,0.0294
2882.00,0.0296
2881.00,0.0298
2880.00,0.0300
2879.00,0.0302
2878.00,0.0304
2877.00,0.0305
2876.00,0.0306
2875.00,0.0306
2874.00,0.0305
2873.00,0.0304
2872.00,0.0303
2871.00,0.0300
2870.00,0.0298
2869.00,0.0294
2868.00,0.0291
2867.00,0.0288
2866.00,0.0284
2865.00,0.0282
2864.00,0.0279
2863.00,0.0278
2862.00,0.0276
2861.00,0.0275
2860.00,0.0275
2859.00,0.0275
2858.00,0.0275
2857.00,0.0276
2856.00,0.0276
2855.00,0.0275
2854.00,0.0274
2853.00,0.0272
2852.00,0.0269
2851.00,0.0266
2850.00,0.0261
2849.00,0.0256
2848.00,0.0250
2847.00,0.0245
2846.00,0.0239
2845.00,0.0235
2844.00,0.0230
2843.00,0.0226
2842.00,0.0222
2841.00,0.0218
2840.00,0.0215
2839.00,0.0213
2838.00,0.0211
2837.00,0.0209
2836.00,0.0208
2835.00,0.0206
2834.00,0.0205
2833.00,0.0204
2832.00,0.0203
2831.00,0.0202
2830.00,0.0201
2829.00,0.0200
2828.00,0.0200
2827.00,0.0198
2826.00,0.0197
2825.00,0.0196
2824.00,0.0195
2823.00,0.0195
2822.00,0.0194
2821.00,0.0194
2820.00,0.0194
2819.00,0.0193
2818.00,0.0192
2817.00,0.0191
2816.00,0.0191
2815.00,0.0190
2814.00,0.0189
2813.00,0.0188
2812.00,0.0188
2811.00,0.0187
2810.00,0.0186
2809.00,0.0186
2808.00,0.0185
2807.00,0.0185
2806.00,0.0184
2805.00,0.0183
2804.00,0.0183
2803.00,0.0182
2802.00,0.0182
2801.00,0.0181
2800.00,0.0180
2799.00,0.0179
2798.00,0.0179
2797.00,0.0178
2796.00,0.0177
2795.00,0.0177
2794.00,0.0176
2793.00,0.0175
2792.00,0.0175
2791.00,0.0174
2790.00,0.0173
2789.00,0.0173
2788.00,0.0172
2787.00,0.0172
2786.00,0.0172
2785.00,0.0171
2784.00,0.0170
2783.00,0.0170
2782.00,0.0169
2781.00,0.0168
2780.00,0.0168
2779.00,0.0167
2778.00,0.0166
2777.00,0.0165
2776.00,0.0164
2775.00,0.0164
2774.00,0.0163
2773.00,0.0163
2772.00,0.0162
2771.00,0.0162
2770.00,0.0161
2769.00,0.0160
2768.00,0.0160
2767.00,0.0159
2766.00,0.0159
2765.00,0.0158
2764.00,0.0158
2763.00,0.0157
2762.00,0.0156
2761.00,0.0156
2760.00,0.0155
2759.00,0.0154
2758.00,0.0154
2757.00,0.0153
2756.00,0.0153
2755.00,0.0152
2754.00,0.0151
2753.00,0.0151
2752.00,0.0150
2751.00,0.0149
2750.00,0.0149
2749.00,0.0148
2748.00,0.0147
2747.00,0.0147
2746.00,0.0147
2745.00,0.0146
2744.00,0.0146
2743.00,0.0145
2742.00,0.0145
2741.00,0.0144
2740.00,0.0144
2739.00,0.0143
2738.00,0.0143
2737.00,0.0142
2736.00,0.0142
2735.00,0.0141
2734.00,0.0140
2733.00,0.0140
2732.00,0.0139
2731.00,0.0139
2730.00,0.0138
2729.00,0.0137
2728.00,0.0136
2727.00,0.0136
2726.00,0.0135
2725.00,0.0134
2724.00,0.0134
2723.00,0.0133
2722.00,0.0133
2721.00,0.0132
2720.00,0.0132
2719.00,0.0131
2718.00,0.0131
2717.00,0.0130
2716.00,0.0129
2715.00,0.0129
2714.00,0.0128
2713.00,0.0128
2712.00,0.0128
2711.00,0.0127
2710.00,0.0127
2709.00,0.0126
2708.00,0.0126
2707.00,0.0125
2706.00,0.0125
2705.00,0.0125
2704.00,0.0125
2703.00,0.0124
2702.00,0.0124
2701.00,0.0124
2700.00,0.0124
2699.00,0.0123
2698.00,0.0123
2697.00,0.0123
2696.00,0.0123
2695.00,0.0122
2694.00,0.0122
2693.00,0.0122
2692.00,0.0122
2691.00,0.0121
2690.00,0.0121
2689.00,0.0121
2688.00,0.0121
2687.00,0.0121
2686.00,0.0120
2685.00,0.0120
2684.00,0.0119
2683.00,0.0119
2682.00,0.0118
2681.00,0.0118
2680.00,0.0118
2679.00,0.0118
2678.00,0.0118
2677.00,0.0118
2676.00,0.0118
2675.00,0.0117
2674.00,0.0117
2673.00,0.0117
2672.00,0.0117
2671.00,0.0117
2670.00,0.0116
2669.00,0.0116
2668.00,0.0116
2667.00,0.0116
2666.00,0.0117
2665.00,0.0117
2664.00,0.0117
2663.00,0.0118
2662.00,0.0118
2661.00,0.0118
2660.00,0.0118
2659.00,0.0118
2658.00,0.0118
2657.00,0.0118
2656.00,0.0118
2655.00,0.0118
2654.00,0.0118
2653.00,0.0118
2652.00,0.0117
2651.00,0.0117
2650.00,0.0117
2649.00,0.0117
2648.00,0.0117
2647.00,0.0116
2646.00,0.0116
2645.00,0.0116
2644.00,0.0116
2643.00,0.0116
2642.00,0.0116
2641.00,0.0115
2640.00,0.0115
2639.00,0.0115
2638.00,0.0114
2637.00,0.0114
2636.00,0.0113
2635.00,0.0113
2634.00,0.0113
2633.00,0.0113
2632.00,0.0112
2631.00,0.0112
2630.00,0.0112
2629.00,0.0112
2628.00,0.0111
2627.00,0.0111
2626.00,0.0111
2625.00,0.0110
2624.00,0.0110
2623.00,0.0110
2622.00,0.0110
2621.00,0.0109
2620.00,0.0109
2619.00,0.0109
2618.00,0.0108
2617.00,0.0108
2616.00,0.0108
2615.00,0.0107
2614.00,0.0107
2613.00,0.0106
2612.00,0.0106
2611.00,0.0106
2610.00,0.0106
2609.00,0.0105
2608.00,0.0105
2607.00,0.0104
2606.00,0.0104
2605.00,0.0103
2604.00,0.0103
2603.00,0.0103
2602.00,0.0103
2601.00,0.0102
2600.00,0.0102
2599.00,0.0102
2598.00,0.0101
2597.00,0.0101
2596.00,0.0101
2595.00,0.0101
2594.00,0.0101
2593.00,0.0100
2592.00,0.0100
2591.00,0.0099
2590.00,0.0099
2589.00,0.0098
2588.00,0.0098
2587.00,0.0097
2586.00,0.0097
2585.00,0.0096
2584.00,0.0096
2583.00,0.0096
2582.00,0.0095
2581.00,0.0095
2580.00,0.0095
2579.00,0.0094
2578.00,0.0094
2577.00,0.0094
2576.00,0.0094
2575.00,0.0093
2574.00,0.0093
2573.00,0.0093
2572.00,0.0093
2571.00,0.0092
2570.00,0.0092
2569.00,0.0092
2568.00,0.0091
2567.00,0.0091
2566.00,0.0091
2565.00,0.0091
2564.00,0.0091
2563.00,0.0091
2562.00,0.0090
2561.00,0.0090
2560.00,0.0090
2559.00,0.0090
2558.00,0.0089
2557.00,0.0089
2556.00,0.0089
2555.00,0.0088
2554.00,0.0088
2553.00,0.0088
2552.00,0.0087
2551.00,0.0087
2550.00,0.0087
2549.00,0.0086
2548.00,0.0086
2547.00,0.0086
2546.00,0.0085
2545.00,0.0085
2544.00,0.0085
2543.00,0.0084
2542.00,0.0084
2541.00,0.0084
2540.00,0.0084
2539.00,0.0083
2538.00,0.0083
2537.00,0.0083
2536.00,0.0083
2535.00,0.0083
2534.00,0.0083
2533.00,0.0082
2532.00,0.0082
2531.00,0.0082
2530.00,0.0082
2529.00,0.0081
2528.00,0.0081
2527.00,0.0081
2526.00,0.0081
2525.00,0.0081
2524.00,0.0081
2523.00,0.0080
2522.00,0.0080
2521.00,0.0080
2520.00,0.0080
2519.00,0.0079
2518.00,0.0079
2517.00,0.0079
2516.00,0.0079
2515.00,0.0078
2514.00,0.0078
2513.00,0.0077
2512.00,0.0077
2511.00,0.0077
2510.00,0.0077
2509.00,0.0077
2508.00,0.0077
2507.00,0.0077
2506.00,0.0077
2505.00,0.0077
2504.00,0.0077
2503.00,0.0077
2502.00,0.0076
2501.00,0.0076
2500.00,0.0076
2499.00,0.0075
2498.00,0.0075
2497.00,0.0075
2496.00,0.0075
2495.00,0.0075
2494.00,0.0075
2493.00,0.0075
2492.00,0.0074
2491.00,0.0074
2490.00,0.0074
2489.00,0.0073
2488.00,0.0073
2487.00,0.0073
2486.00,0.0073
2485.00,0.0072
2484.00,0.0072
2483.00,0.0072
2482.00,0.0072
2481.00,0.0072
2480.00,0.0072
2479.00,0.0072
2478.00,0.0072
2477.00,0.0071
2476.00,0.0071
2475.00,0.0070
2474.00,0.0070
2473.00,0.0070
2472.00,0.0070
2471.00,0.0069
2470.00,0.0069
2469.00,0.0069
2468.00,0.0069
2467.00,0.0069
2466.00,0.0069
2465.00,0.0068
2464.00,0.0068
2463.00,0.0068
2462.00,0.0068
2461.00,0.0069
2460.00,0.0069
2459.00,0.0069
2458.00,0.0069
2457.00,0.0068
2456.00,0.0068
2455.00,0.0068
2454.00,0.0068
2453.00,0.0067
2452.00,0.0067
2451.00,0.0067
2450.00,0.0067
2449.00,0.0066
2448.00,0.0066
2447.00,0.0066
2446.00,0.0066
2445.00,0.0065
2444.00,0.0065
2443.00,0.0064
2442.00,0.0064
2441.00,0.0063
2440.00,0.0063
2439.00,0.0062
2438.00,0.0062
2437.00,0.0061
2436.00,0.0061
2435.00,0.0061
2434.00,0.0061
2433.00,0.0061
2432.00,0.0060
2431.00,0.0060
2430.00,0.0059
2429.00,0.0059
2428.00,0.0060
2427.00,0.0059
2426.00,0.0059
2425.00,0.0059
2424.00,0.0058
2423.00,0.0058
2422.00,0.0058
2421.00,0.0058
2420.00,0.0058
2419.00,0.0058
2418.00,0.0057
2417.00,0.0057
2416.00,0.0057
2415.00,0.0057
2414.00,0.0056
2413.00,0.0055
2412.00,0.0055
2411.00,0.0055
2410.00,0.0054
2409.00,0.0054
2408.00,0.0053
2407.00,0.0053
2406.00,0.0052
2405.00,0.0052
2404.00,0.0052
2403.00,0.0053
2402.00,0.0053
2401.00,0.0053
2400.00,0.0052
2399.00,0.0052
2398.00,0.0051
2397.00,0.0051
2396.00,0.0051
2395.00,0.0051
2394.00,0.0050
2393.00,0.0050
2392.00,0.0050
2391.00,0.0050
2390.00,0.0050
2389.00,0.0049
2388.00,0.0049
2387.00,0.0049
2386.00,0.0048
2385.00,0.0048
2384.00,0.0047
2383.00,0.0046
2382.00,0.0045
2381.00,0.0044
2380.00,0.0043
2379.00,0.0043
2378.00,0.0043
2377.00,0.0044
2376.00,0.0044
2375.00,0.0045
2374.00,0.0045
2373.00,0.0045
2372.00,0.0045
2371.00,0.0045
2370.00,0.0044
2369.00,0.0043
2368.00,0.0043
2367.00,0.0043
2366.00,0.0043
2365.00,0.0044
2364.00,0.0044
2363.00,0.0043
2362.00,0.0043
2361.00,0.0044
2360.00,0.0044
2359.00,0.0044
2358.00,0.0044
2357.00,0.0044
2356.00,0.0044
2355.00,0.0044
2354.00,0.0044
2353.00,0.0043
2352.00,0.0043
2351.00,0.0042
2350.00,0.0043
2349.00,0.0044
2348.00,0.0046
2347.00,0.0047
2346.00,0.0047
2345.00,0.0047
2344.00,0.0047
2343.00,0.0047
2342.00,0.0047
2341.00,0.0047
2340.00,0.0047
2339.00,0.0048
2338.00,0.0047
2337.00,0.0048
2336.00,0.0048
2335.00,0.0048
2334.00,0.0048
2333.00,0.0047
2332.00,0.0047
2331.00,0.0046
2330.00,0.0046
2329.00,0.0048
2328.00,0.0052
2327.00,0.0057
2326.00,0.0061
2325.00,0.0062
2324.00,0.0061
2323.00,0.0058
2322.00,0.0056
2321.00,0.0054
2320.00,0.0053
2319.00,0.0052
2318.00,0.0051
2317.00,0.0050
2316.00,0.0050
2315.00,0.0049
2314.00,0.0048
2313.00,0.0047
2312.00,0.0047
2311.00,0.0046
2310.00,0.0046
2309.00,0.0046
2308.00,0.0046
2307.00,0.0046
2306.00,0.0046
2305.00,0.0047
2304.00,0.0047
2303.00,0.0047
2302.00,0.0047
2301.00,0.0047
2300.00,0.0048
2299.00,0.0049
2298.00,0.0049
2297.00,0.0050
2296.00,0.0051
2295.00,0.0052
2294.00,0.0053
2293.00,0.0053
2292.00,0.0054
2291.00,0.0055
2290.00,0.0056
2289.00,0.0057
2288.00,0.0057
2287.00,0.0057
2286.00,0.0057
2285.00,0.0057
2284.00,0.0056
2283.00,0.0055
2282.00,0.0053
2281.00,0.0052
2280.00,0.0051
2279.00,0.0050
2278.00,0.0050
2277.00,0.0049
2276.00,0.0049
2275.00,0.0048
2274.00,0.0047
2273.00,0.0048
2272.00,0.0048
2271.00,0.0048
2270.00,0.0048
2269.00,0.0047
2268.00,0.0047
2267.00,0.0046
2266.00,0.0045
2265.00,0.0045
2264.00,0.0045
2263.00,0.0045
2262.00,0.0045
2261.00,0.0046
2260.00,0.0046
2259.00,0.0046
2258.00,0.0045
2257.00,0.0044
2256.00,0.0043
2255.00,0.0042
2254.00,0.0042
2253.00,0.0042
2252.00,0.0042
2251.00,0.0042
2250.00,0.0042
2249.00,0.0042
2248.00,0.0043
2247.00,0.0043
2246.00,0.0043
2245.00,0.0043
2244.00,0.0044
2243.00,0.0044
2242.00,0.0044
2241.00,0.0044
2240.00,0.0044
2239.00,0.0044
2238.00,0.0043
2237.00,0.0043
2236.00,0.0042
2235.00,0.0042
2234.00,0.0042
2233.00,0.0043
2232.00,0.0044
2231.00,0.0044
2230.00,0.0043
2229.00,0.0042
2228.00,0.0041
2227.00,0.0040
2226.00,0.0040
2225.00,0.0040
2224.00,0.0040
2223.00,0.0040
2222.00,0.0040
2221.00,0.0040
2220.00,0.0041
2219.00,0.0041
2218.00,0.0041
2217.00,0.0041
2216.00,0.0041
2215.00,0.0041
2214.00,0.0040
2213.00,0.0039
2212.00,0.0039
2211.00,0.0039
2210.00,0.0039
2209.00,0.0040
2208.00,0.0041
2207.00,0.0040
2206.00,0.0040
2205.00,0.0040
2204.00,0.0040
2203.00,0.0039
2202.00,0.0039
2201.00,0.0038
2200.00,0.0038
2199.00,0.0039
2198.00,0.0041
2197.00,0.0042
2196.00,0.0044
2195.00,0.0044
2194.00,0.0043
2193.00,0.0043
2192.00,0.0042
2191.00,0.0041
2190.00,0.0041
2189.00,0.0041
2188.00,0.0042
2187.00,0.0041
2186.00,0.0041
2185.00,0.0040
2184.00,0.0039
2183.00,0.0037
2182.00,0.0036
2181.00,0.0035
2180.00,0.0035
2179.00,0.0035
2178.00,0.0034
2177.00,0.0034
2176.00,0.0035
2175.00,0.0036
2174.00,0.0036
2173.00,0.0037
2172.00,0.0038
2171.00,0.0039
2170.00,0.0041
2169.00,0.0045
2168.00,0.0047
2167.00,0.0048
2166.00,0.0048
2165.00,0.0049
2164.00,0.0051
2163.00,0.0050
2162.00,0.0043
2161.00,0.0030
2160.00,0.0014
2159.00,0.0000
2158.00,-0.0006
2157.00,-0.0004
2156.00,0.0002
2155.00,0.0006
2154.00,0.0009
2153.00,0.0011
2152.00,0.0014
2151.00,0.0016
2150.00,0.0016
2149.00,0.0016
2148.00,0.0016
2147.00,0.0016
2146.00,0.0016
2145.00,0.0017
2144.00,0.0018
2143.00,0.0019
2142.00,0.0019
2141.00,0.0020
2140.00,0.0021
2139.00,0.0020
2138.00,0.0018
2137.00,0.0016
2136.00,0.0014
2135.00,0.0012
2134.00,0.0011
2133.00,0.0013
2132.00,0.0015
2131.00,0.0018
2130.00,0.0020
2129.00,0.0023
2128.00,0.0025
2127.00,0.0026
2126.00,0.0027
2125.00,0.0028
2124.00,0.0030
2123.00,0.0031
2122.00,0.0032
2121.00,0.0034
2120.00,0.0036
2119.00,0.0037
2118.00,0.0038
2117.00,0.0040
2116.00,0.0041
2115.00,0.0041
2114.00,0.0041
2113.00,0.0041
2112.00,0.0042
2111.00,0.0042
2110.00,0.0042
2109.00,0.0042
2108.00,0.0042
2107.00,0.0042
2106.00,0.0041
2105.00,0.0041
2104.00,0.0040
2103.00,0.0040
2102.00,0.0040
2101.00,0.0040
2100.00,0.0040
2099.00,0.0039
2098.00,0.0038
2097.00,0.0037
2096.00,0.0036
2095.00,0.0034
2094.00,0.0033
2093.00,0.0034
2092.00,0.0036
2091.00,0.0038
2090.00,0.0039
2089.00,0.0039
2088.00,0.0040
2087.00,0.0040
2086.00,0.0040
2085.00,0.0040
2084.00,0.0041
2083.00,0.0042
2082.00,0.0042
2081.00,0.0042
2080.00,0.0042
2079.00,0.0042
2078.00,0.0041
2077.00,0.0041
2076.00,0.0040
2075.00,0.0039
2074.00,0.0038
2073.00,0.0038
2072.00,0.0039
2071.00,0.0039
2070.00,0.0039
2069.00,0.0039
2068.00,0.0039
2067.00,0.0039
2066.00,0.0038
2065.00,0.0036
2064.00,0.0035
2063.00,0.0034
2062.00,0.0034
2061.00,0.0036
2060.00,0.0038
2059.00,0.0039
2058.00,0.0038
2057.00,0.0038
2056.00,0.0037
2055.00,0.0037
2054.00,0.0040
2053.00,0.0046
2052.00,0.0051
2051.00,0.0052
2050.00,0.0049
2049.00,0.0044
2048.00,0.0040
2047.00,0.0038
2046.00,0.0036
2045.00,0.0036
2044.00,0.0036
2043.00,0.0036
2042.00,0.0035
2041.00,0.0034
2040.00,0.0034
2039.00,0.0033
2038.00,0.0031
2037.00,0.0029
2036.00,0.0029
2035.00,0.0027
2034.00,0.0026
2033.00,0.0026
2032.00,0.0026
2031.00,0.0026
2030.00,0.0024
2029.00,0.0025
2028.00,0.0026
2027.00,0.0026
2026.00,0.0026
2025.00,0.0026
2024.00,0.0027
2023.00,0.0027
2022.00,0.0026
2021.00,0.0026
2020.00,0.0026
2019.00,0.0024
2018.00,0.0023
2017.00,0.0022
2016.00,0.0022
2015.00,0.0022
2014.00,0.0021
2013.00,0.0023
2012.00,0.0026
2011.00,0.0028
2010.00,0.0027
2009.00,0.0026
2008.00,0.0023
2007.00,0.0019
2006.00,0.0017
2005.00,0.0017
2004.00,0.0019
2003.00,0.0020
2002.00,0.0021
2001.00,0.0023
2000.00,0.0026
1999.00,0.0028
1998.00,0.0029
1997.00,0.0031
1996.00,0.0032
1995.00,0.0032
1994.00,0.0031
1993.00,0.0031
1992.00,0.0032
1991.00,0.0032
1990.00,0.0031
1989.00,0.0032
1988.00,0.0034
1987.00,0.0035
1986.00,0.0035
1985.00,0.0037
1984.00,0.0041
1983.00,0.0044
1982.00,0.0047
1981.00,0.0049
1980.00,0.0046
1979.00,0.0037
1978.00,0.0026
1977.00,0.0019
1976.00,0.0018
1975.00,0.0018
1974.00,0.0018
1973.00,0.0019
1972.00,0.0020
1971.00,0.0019
1970.00,0.0017
1969.00,0.0018
1968.00,0.0019
1967.00,0.0020
1966.00,0.0019
1965.00,0.0020
1964.00,0.0022
1963.00,0.0023
1962.00,0.0021
1961.00,0.0018
1960.00,0.0016
1959.00,0.0015
1958.00,0.0015
1957.00,0.0017
1956.00,0.0019
1955.00,0.0020
1954.00,0.0021
1953.00,0.0022
1952.00,0.0023
1951.00,0.0024
1950.00,0.0023
1949.00,0.0023
1948.00,0.0025
1947.00,0.0026
1946.00,0.0026
1945.00,0.0026
1944.00,0.0028
1943.00,0.0027
1942.00,0.0026
1941.00,0.0025
1940.00,0.0025
1939.00,0.0026
1938.00,0.0026
1937.00,0.0027
1936.00,0.0028
1935.00,0.0027
1934.00,0.0026
1933.00,0.0026
1932.00,0.0026
1931.00,0.0027
1930.00,0.0026
1929.00,0.0027
1928.00,0.0028
1927.00,0.0028
1926.00,0.0028
1925.00,0.0030
1924.00,0.0031
1923.00,0.0031
1922.00,0.0031
1921.00,0.0031
1920.00,0.0033
1919.00,0.0034
1918.00,0.0033
1917.00,0.0031
1916.00,0.0029
1915.00,0.0029
1914.00,0.0029
1913.00,0.0031
1912.00,0.0032
1911.00,0.0033
1910.00,0.0033
1909.00,0.0033
1908.00,0.0033
1907.00,0.0033
1906.00,0.0032
1905.00,0.0033
1904.00,0.0034
1903.00,0.0034
1902.00,0.0034
1901.00,0.0034
1900.00,0.0035
1899.00,0.0035
1898.00,0.0034
1897.00,0.0035
1896.00,0.0036
1895.00,0.0036
1894.00,0.0035
1893.00,0.0036
1892.00,0.0037
1891.00,0.0039
1890.00,0.0038
1889.00,0.0036
1888.00,0.0035
1887.00,0.0034
1886.00,0.0034
1885.00,0.0035
1884.00,0.0035
1883.00,0.0035
1882.00,0.0034
1881.00,0.0034
1880.00,0.0035
1879.00,0.0036
1878.00,0.0036
1877.00,0.0036
1876.00,0.0036
1875.00,0.0036
1874.00,0.0035
1873.00,0.0036
1872.00,0.0038
1871.00,0.0040
1870.00,0.0040
1869.00,0.0039
1868.00,0.0036
1867.00,0.0033
1866.00,0.0032
1865.00,0.0033
1864.00,0.0035
1863.00,0.0036
1862.00,0.0036
1861.00,0.0037
1860.00,0.0037
1859.00,0.0037
1858.00,0.0037
1857.00,0.0037
1856.00,0.0037
1855.00,0.0037
1854.00,0.0037
1853.00,0.0037
1852.00,0.0037
1851.00,0.0038
1850.00,0.0038
1849.00,0.0039
1848.00,0.0040
1847.00,0.0042
1846.00,0.0043
1845.00,0.0041
1844.00,0.0037
1843.00,0.0032
1842.00,0.0030
1841.00,0.0033
1840.00,0.0037
1839.00,0.0040
1838.00,0.0040
1837.00,0.0041
1836.00,0.0041
1835.00,0.0040
1834.00,0.0041
1833.00,0.0043
1832.00,0.0046
1831.00,0.0049
1830.00,0.0047
1829.00,0.0044
1828.00,0.0042
1827.00,0.0044
1826.00,0.0045
1825.00,0.0045
1824.00,0.0044
1823.00,0.0042
1822.00,0.0042
1821.00,0.0043
1820.00,0.0044
1819.00,0.0043
1818.00,0.0042
1817.00,0.0041
1816.00,0.0042
1815.00,0.0043
1814.00,0.0045
1813.00,0.0047
1812.00,0.0049
1811.00,0.0050
1810.00,0.0049
1809.00,0.0048
1808.00,0.0048
1807.00,0.0049
1806.00,0.0049
1805.00,0.0051
1804.00,0.0053
1803.00,0.0055
1802.00,0.0055
1801.00,0.0055
1800.00,0.0054
1799.00,0.0052
1798.00,0.0051
1797.00,0.0052
1796.00,0.0055
1795.00,0.0058
1794.00,0.0060
1793.00,0.0059
1792.00,0.0056
1791.00,0.0052
1790.00,0.0050
1789.00,0.0052
1788.00,0.0056
1787.00,0.0059
1786.00,0.0060
1785.00,0.0060
1784.00,0.0059
1783.00,0.0060
1782.00,0.0062
1781.00,0.0064
1780.00,0.0064
1779.00,0.0063
1778.00,0.0063
1777.00,0.0065
1776.00,0.0068
1775.00,0.0072
1774.00,0.0073
1773.00,0.0073
1772.00,0.0070
1771.00,0.0066
1770.00,0.0065
1769.00,0.0066
1768.00,0.0068
1767.00,0.0069
1766.00,0.0070
1765.00,0.0075
1764.00,0.0081
1763.00,0.0086
1762.00,0.0085
1761.00,0.0083
1760.00,0.0084
1759.00,0.0087
1758.00,0.0091
1757.00,0.0094
1756.00,0.0096
1755.00,0.0097
1754.00,0.0101
1753.00,0.0105
1752.00,0.0109
1751.00,0.0111
1750.00,0.0114
1749.00,0.0119
1748.00,0.0125
1747.00,0.0130
1746.00,0.0134
1745.00,0.0140
1744.00,0.0146
1743.00,0.0153
1742.00,0.0158
1741.00,0.0163
1740.00,0.0168
1739.00,0.0170
1738.00,0.0172
1737.00,0.0177
1736.00,0.0184
1735.00,0.0186
1734.00,0.0184
1733.00,0.0182
1732.00,0.0188
1731.00,0.0199
1730.00,0.0210
1729.00,0.0217
1728.00,0.0222
1727.00,0.0226
1726.00,0.0230
1725.00,0.0235
1724.00,0.0241
1723.00,0.0245
1722.00,0.0249
1721.00,0.0255
1720.00,0.0261
1719.00,0.0265
1718.00,0.0265
1717.00,0.0264
1716.00,0.0267
1715.00,0.0274
1714.00,0.0281
1713.00,0.0289
1712.00,0.0299
1711.00,0.0308
1710.00,0.0317
1709.00,0.0327
1708.00,0.0341
1707.00,0.0357
1706.00,0.0375
1705.00,0.0394
1704.00,0.0411
1703.00,0.0428
1702.00,0.0448
1701.00,0.0484
1700.00,0.0529
1699.00,0.0565
1698.00,0.0590
1697.00,0.0618
1696.00,0.0650
1695.00,0.0676
1694.00,0.0692
1693.00,0.0707
1692.00,0.0722
1691.00,0.0737
1690.00,0.0752
1689.00,0.0768
1688.00,0.0781
1687.00,0.0789
1686.00,0.0799
1685.00,0.0825
1684.00,0.0867
1683.00,0.0900
1682.00,0.0921
1681.00,0.0939
1680.00,0.0959
1679.00,0.0976
1678.00,0.0991
1677.00,0.1008
1676.00,0.1034
1675.00,0.1065
1674.00,0.1091
1673.00,0.1109
1672.00,0.1127
1671.00,0.1150
1670.00,0.1182
1669.00,0.1218
1668.00,0.1247
1667.00,0.1266
1666.00,0.1279
1665.00,0.1293
1664.00,0.1317
1663.00,0.1350
1662.00,0.1385
1661.00,0.1414
1660.00,0.1435
1659.00,0.1453
1658.00,0.1467
1657.00,0.1475
1656.00,0.1474
1655.00,0.1474
1654.00,0.1504
1653.00,0.1574
1652.00,0.1624
1651.00,0.1635
1650.00,0.1631
1649.00,0.1626
1648.00,0.1634
1647.00,0.1661
1646.00,0.1690
1645.00,0.1707
1644.00,0.1713
1643.00,0.1715
1642.00,0.1718
1641.00,0.1724
1640.00,0.1731
1639.00,0.1735
1638.00,0.1739
1637.00,0.1758
1636.00,0.1807
1635.00,0.1866
1634.00,0.1905
1633.00,0.1925
1632.00,0.1938
1631.00,0.1952
1630.00,0.1974
1629.00,0.2008
1628.00,0.2051
1627.00,0.2089
1626.00,0.2116
1625.00,0.2139
1624.00,0.2171
1623.00,0.2210
1622.00,0.2237
1621.00,0.2239
1620.00,0.2219
1619.00,0.2189
1618.00,0.2162
1617.00,0.2144
1616.00,0.2126
1615.00,0.2095
1614.00,0.2046
1613.00,0.1985
1612.00,0.1919
1611.00,0.1852
1610.00,0.1787
1609.00,0.1720
1608.00,0.1654
1607.00,0.1590
1606.00,0.1529
1605.00,0.1470
1604.00,0.1414
1603.00,0.1363
1602.00,0.1316
1601.00,0.1272
1600.00,0.1230
1599.00,0.1192
1598.00,0.1159
1597.00,0.1128
1596.00,0.1099
1595.00,0.1072
1594.00,0.1049
1593.00,0.1027
1592.00,0.1005
1591.00,0.0985
1590.00,0.0970
1589.00,0.0956
1588.00,0.0943
1587.00,0.0933
1586.00,0.0926
1585.00,0.0921
1584.00,0.0916
1583.00,0.0914
1582.00,0.0914
1581.00,0.0916
1580.00,0.0916
1579.00,0.0915
1578.00,0.0917
1577.00,0.0926
1576.00,0.0943
1575.00,0.0960
1574.00,0.0975
1573.00,0.0987
1572.00,0.0996
1571.00,0.1010
1570.00,0.1035
1569.00,0.1062
1568.00,0.1082
1567.00,0.1097
1566.00,0.1115
1565.00,0.1136
1564.00,0.1153
1563.00,0.1163
1562.00,0.1164
1561.00,0.1164
1560.00,0.1188
1559.00,0.1256
1558.00,0.1321
1557.00,0.1346
1556.00,0.1358
1555.00,0.1374
1554.00,0.1397
1553.00,0.1419
1552.00,0.1439
1551.00,0.1461
1550.00,0.1488
1549.00,0.1514
1548.00,0.1530
1547.00,0.1540
1546.00,0.1551
1545.00,0.1569
1544.00,0.1589
1543.00,0.1604
1542.00,0.1618
1541.00,0.1648
1540.00,0.1698
1539.00,0.1743
1538.00,0.1761
1537.00,0.1761
1536.00,0.1755
1535.00,0.1755
1534.00,0.1775
1533.00,0.1807
1532.00,0.1828
1531.00,0.1831
1530.00,0.1827
1529.00,0.1825
1528.00,0.1827
1527.00,0.1834
1526.00,0.1841
1525.00,0.1842
1524.00,0.1835
1523.00,0.1828
1522.00,0.1835
1521.00,0.1855
1520.00,0.1866
1519.00,0.1864
1518.00,0.1859
1517.00,0.1859
1516.00,0.1858
1515.00,0.1844
1514.00,0.1817
1513.00,0.1783
1512.00,0.1747
1511.00,0.1710
1510.00,0.1669
1509.00,0.1624
1508.00,0.1586
1507.00,0.1562
1506.00,0.1539
1505.00,0.1503
1504.00,0.1465
1503.00,0.1427
1502.00,0.1388
1501.00,0.1349
1500.00,0.1313
1499.00,0.1280
1498.00,0.1247
1497.00,0.1213
1496.00,0.1180
1495.00,0.1148
1494.00,0.1117
1493.00,0.1086
1492.00,0.1055
1491.00,0.1025
1490.00,0.0998
1489.00,0.0972
1488.00,0.0948
1487.00,0.0923
1486.00,0.0899
1485.00,0.0876
1484.00,0.0857
1483.00,0.0841
1482.00,0.0827
1481.00,0.0816
1480.00,0.0807
1479.00,0.0800
1478.00,0.0795
1477.00,0.0794
1476.00,0.0796
1475.00,0.0799
1474.00,0.0805
1473.00,0.0819
1472.00,0.0838
1471.00,0.0853
1470.00,0.0861
1469.00,0.0867
1468.00,0.0870
1467.00,0.0873
1466.00,0.0875
1465.00,0.0879
1464.00,0.0884
1463.00,0.0887
1462.00,0.0888
1461.00,0.0890
1460.00,0.0892
1459.00,0.0898
1458.00,0.0909
1457.00,0.0929
1456.00,0.0946
1455.00,0.0955
1454.00,0.0960
1453.00,0.0963
1452.00,0.0964
1451.00,0.0963
1450.00,0.0962
1449.00,0.0961
1448.00,0.0961
1447.00,0.0961
1446.00,0.0957
1445.00,0.0952
1444.00,0.0947
1443.00,0.0942
1442.00,0.0936
1441.00,0.0929
1440.00,0.0921
1439.00,0.0912
1438.00,0.0902
1437.00,0.0892
1436.00,0.0884
1435.00,0.0875
1434.00,0.0864
1433.00,0.0853
1432.00,0.0842
1431.00,0.0833
1430.00,0.0825
1429.00,0.0817
1428.00,0.0810
1427.00,0.0806
1426.00,0.0803
1425.00,0.0803
1424.00,0.0806
1423.00,0.0809
1422.00,0.0810
1421.00,0.0810
1420.00,0.0816
1419.00,0.0829
1418.00,0.0843
1417.00,0.0854
1416.00,0.0863
1415.00,0.0871
1414.00,0.0879
1413.00,0.0885
1412.00,0.0893
1411.00,0.0901
1410.00,0.0908
1409.00,0.0913
1408.00,0.0917
1407.00,0.0922
1406.00,0.0927
1405.00,0.0932
1404.00,0.0937
1403.00,0.0939
1402.00,0.0939
1401.00,0.0939
1400.00,0.0941
1399.00,0.0944
1398.00,0.0946
1397.00,0.0947
1396.00,0.0948
1395.00,0.0951
1394.00,0.0955
1393.00,0.0955
1392.00,0.0955
1391.00,0.0954
1390.00,0.0952
1389.00,0.0949
1388.00,0.0947
1387.00,0.0944
1386.00,0.0940
1385.00,0.0932
1384.00,0.0923
1383.00,0.0913
1382.00,0.0902
1381.00,0.0892
1380.00,0.0882
1379.00,0.0873
1378.00,0.0864
1377.00,0.0856
1376.00,0.0849
1375.00,0.0845
1374.00,0.0841
1373.00,0.0838
1372.00,0.0833
1371.00,0.0829
1370.00,0.0824
1369.00,0.0819
1368.00,0.0812
1367.00,0.0802
1366.00,0.0792
1365.00,0.0782
1364.00,0.0774
1363.00,0.0766
1362.00,0.0760
1361.00,0.0754
1360.00,0.0748
1359.00,0.0743
1358.00,0.0739
1357.00,0.0736
1356.00,0.0734
1355.00,0.0732
1354.00,0.0731
1353.00,0.0730
1352.00,0.0729
1351.00,0.0729
1350.00,0.0729
1349.00,0.0728
1348.00,0.0728
1347.00,0.0728
1346.00,0.0728
1345.00,0.0728
1344.00,0.0728
1343.00,0.0727
1342.00,0.0726
1341.00,0.0725
1340.00,0.0725
1339.00,0.0725
1338.00,0.0724
1337.00,0.0722
1336.00,0.0720
1335.00,0.0717
1334.00,0.0715
1333.00,0.0712
1332.00,0.0710
1331.00,0.0708
1330.00,0.0707
1329.00,0.0706
1328.00,0.0706
1327.00,0.0706
1326.00,0.0706
1325.00,0.0707
1324.00,0.0707
1323.00,0.0708
1322.00,0.0709
1321.00,0.0710
1320.00,0.0712
1319.00,0.0714
1318.00,0.0716
1317.00,0.0717
1316.00,0.0718
1315.00,0.0718
1314.00,0.0719
1313.00,0.0719
1312.00,0.0719
1311.00,0.0719
1310.00,0.0718
1309.00,0.0717
1308.00,0.0717
1307.00,0.0716
1306.00,0.0716
1305.00,0.0715
1304.00,0.0715
1303.00,0.0714
1302.00,0.0714
1301.00,0.0714
1300.00,0.0715
1299.00,0.0716
1298.00,0.0717
1297.00,0.0719
1296.00,0.0721
1295.00,0.0724
1294.00,0.0727
1293.00,0.0730
1292.00,0.0733
1291.00,0.0736
1290.00,0.0740
1289.00,0.0743
1288.00,0.0746
1287.00,0.0750
1286.00,0.0753
1285.00,0.0756
1284.00,0.0759
1283.00,0.0762
1282.00,0.0764
1281.00,0.0766
1280.00,0.0768
1279.00,0.0770
1278.00,0.0771
1277.00,0.0772
1276.00,0.0773
1275.00,0.0774
1274.00,0.0775
1273.00,0.0776
1272.00,0.0778
1271.00,0.0780
1270.00,0.0783
1269.00,0.0786
1268.00,0.0790
1267.00,0.0794
1266.00,0.0799
1265.00,0.0805
1264.00,0.0811
1263.00,0.0818
1262.00,0.0825
1261.00,0.0832
1260.00,0.0840
1259.00,0.0848
1258.00,0.0856
1257.00,0.0865
1256.00,0.0873
1255.00,0.0881
1254.00,0.0889
1253.00,0.0897
1252.00,0.0905
1251.00,0.0914
1250.00,0.0922
1249.00,0.0931
1248.00,0.0940
1247.00,0.0948
1246.00,0.0957
1245.00,0.0965
1244.00,0.0973
1243.00,0.0981
1242.00,0.0988
1241.00,0.0995
1240.00,0.1002
1239.00,0.1009
1238.00,0.1015
1237.00,0.1020
1236.00,0.1025
1235.00,0.1029
1234.00,0.1033
1233.00,0.1036
1232.00,0.1038
1231.00,0.1039
1230.00,0.1039
1229.00,0.1038
1228.00,0.1037
1227.00,0.1035
1226.00,0.1032
1225.00,0.1029
1224.00,0.1025
1223.00,0.1021
1222.00,0.1015
1221.00,0.1009
1220.00,0.1003
1219.00,0.0995
1218.00,0.0987
1217.00,0.0977
1216.00,0.0967
1215.00,0.0957
1214.00,0.0946
1213.00,0.0935
1212.00,0.0923
1211.00,0.0912
1210.00,0.0901
1209.00,0.0890
1208.00,0.0879
1207.00,0.0869
1206.00,0.0859
1205.00,0.0849
1204.00,0.0840
1203.00,0.0831
1202.00,0.0823
1201.00,0.0815
1200.00,0.0807
1199.00,0.0800
1198.00,0.0794
1197.00,0.0788
1196.00,0.0782
1195.00,0.0777
1194.00,0.0772
1193.00,0.0768
1192.00,0.0763
1191.00,0.0759
1190.00,0.0756
1189.00,0.0752
1188.00,0.0749
1187.00,0.0746
1186.00,0.0744
1185.00,0.0742
1184.00,0.0741
1183.00,0.0740
1182.00,0.0739
1181.00,0.0739
1180.00,0.0741
1179.00,0.0743
1178.00,0.0747
1177.00,0.0751
1176.00,0.0756
1175.00,0.0762
1174.00,0.0767
1173.00,0.0772
1172.00,0.0776
1171.00,0.0779
1170.00,0.0780
1169.00,0.0781
1168.00,0.0782
1167.00,0.0783
1166.00,0.0785
1165.00,0.0787
1164.00,0.0789
1163.00,0.0791
1162.00,0.0794
1161.00,0.0796
1160.00,0.0798
1159.00,0.0800
1158.00,0.0801
1157.00,0.0801
1156.00,0.0800
1155.00,0.0798
1154.00,0.0795
1153.00,0.0791
1152.00,0.0786
1151.00,0.0779
1150.00,0.0772
1149.00,0.0765
1148.00,0.0757
1147.00,0.0749
1146.00,0.0741
1145.00,0.0733
1144.00,0.0725
1143.00,0.0719
1142.00,0.0712
1141.00,0.0707
1140.00,0.0702
1139.00,0.0698
1138.00,0.0695
1137.00,0.0691
1136.00,0.0689
1135.00,0.0689
1134.00,0.0689
1133.00,0.0690
1132.00,0.0692
1131.00,0.0694
1130.00,0.0697
1129.00,0.0700
1128.00,0.0704
1127.00,0.0707
1126.00,0.0710
1125.00,0.0713
1124.00,0.0716
1123.00,0.0718
1122.00,0.0721
1121.00,0.0724
1120.00,0.0726
1119.00,0.0729
1118.00,0.0731
1117.00,0.0734
1116.00,0.0736
1115.00,0.0738
1114.00,0.0740
1113.00,0.0741
1112.00,0.0743
1111.00,0.0745
1110.00,0.0747
1109.00,0.0749
1108.00,0.0751
1107.00,0.0753
1106.00,0.0756
1105.00,0.0758
1104.00,0.0761
1103.00,0.0763
1102.00,0.0766
1101.00,0.0769
1100.00,0.0772
1099.00,0.0776
1098.00,0.0780
1097.00,0.0785
1096.00,0.0790
1095.00,0.0797
1094.00,0.0804
1093.00,0.0812
1092.00,0.0821
1091.00,0.0831
1090.00,0.0841
1089.00,0.0852
1088.00,0.0863
1087.00,0.0876
1086.00,0.0888
1085.00,0.0900
1084.00,0.0912
1083.00,0.0924
1082.00,0.0934
1081.00,0.0943
1080.00,0.0951
1079.00,0.0957
1078.00,0.0961
1077.00,0.0964
1076.00,0.0965
1075.00,0.0966
1074.00,0.0965
1073.00,0.0964
1072.00,0.0963
1071.00,0.0962
1070.00,0.0962
1069.00,0.0963
1068.00,0.0964
1067.00,0.0966
1066.00,0.0968
1065.00,0.0971
1064.00,0.0975
1063.00,0.0979
1062.00,0.0983
1061.00,0.0986
1060.00,0.0989
1059.00,0.0992
1058.00,0.0995
1057.00,0.0996
1056.00,0.0997
1055.00,0.0997
1054.00,0.0997
1053.00,0.0996
1052.00,0.0995
1051.00,0.0994
1050.00,0.0992
1049.00,0.0990
1048.00,0.0988
1047.00,0.0985
1046.00,0.0982
1045.00,0.0979
1044.00,0.0976
1043.00,0.0972
1042.00,0.0968
1041.00,0.0964
1040.00,0.0961
1039.00,0.0956
1038.00,0.0952
1037.00,0.0948
1036.00,0.0945
1035.00,0.0942
1034.00,0.0940
1033.00,0.0938
1032.00,0.0937
1031.00,0.0936
1030.00,0.0934
1029.00,0.0931
1028.00,0.0927
1027.00,0.0922
1026.00,0.0917
1025.00,0.0911
1024.00,0.0905
1023.00,0.0898
1022.00,0.0890
1021.00,0.0881
1020.00,0.0872
1019.00,0.0862
1018.00,0.0853
1017.00,0.0843
1016.00,0.0834
1015.00,0.0825
1014.00,0.0815
1013.00,0.0805
1012.00,0.0795
1011.00,0.0786
1010.00,0.0775
1009.00,0.0765
1008.00,0.0755
1007.00,0.0746
1006.00,0.0737
1005.00,0.0729
1004.00,0.0721
1003.00,0.0713
1002.00,0.0704
1001.00,0.0696
1000.00,0.0688
999.00,0.0680
998.00,0.0672
997.00,0.0664
996.00,0.0655
995.00,0.0647
994.00,0.0637
993.00,0.0628
992.00,0.0619
991.00,0.0611
990.00,0.0602
989.00,0.0594
988.00,0.0586
987.00,0.0579
986.00,0.0573
985.00,0.0567
984.00,0.0562
983.00,0.0558
982.00,0.0554
981.00,0.0551
980.00,0.0549
979.00,0.0548
978.00,0.0548
977.00,0.0548
976.00,0.0548
975.00,0.0549
974.00,0.0549
973.00,0.0550
972.00,0.0550
971.00,0.0551
970.00,0.0551
969.00,0.0551
968.00,0.0552
967.00,0.0552
966.00,0.0551
965.00,0.0551
964.00,0.0550
963.00,0.0550
962.00,0.0550
961.00,0.0549
960.00,0.0547
959.00,0.0546
958.00,0.0544
957.00,0.0543
956.00,0.0541
955.00,0.0540
954.00,0.0539
953.00,0.0538
952.00,0.0538
951.00,0.0538
950.00,0.0538
949.00,0.0539
948.00,0.0540
947.00,0.0542
946.00,0.0543
945.00,0.0545
944.00,0.0547
943.00,0.0549
942.00,0.0552
941.00,0.0555
940.00,0.0558
939.00,0.0561
938.00,0.0564
937.00,0.0567
936.00,0.0570
935.00,0.0573
934.00,0.0575
933.00,0.0577
932.00,0.0578
931.00,0.0579
930.00,0.0579
929.00,0.0578
928.00,0.0577
927.00,0.0576
926.00,0.0575
925.00,0.0574
924.00,0.0572
923.00,0.0570
922.00,0.0567
921.00,0.0565
920.00,0.0563
919.00,0.0560
918.00,0.0558
917.00,0.0556
916.00,0.0553
915.00,0.0551
914.00,0.0549
913.00,0.0546
912.00,0.0544
911.00,0.0542
910.00,0.0541
909.00,0.0539
908.00,0.0537
907.00,0.0536
906.00,0.0535
905.00,0.0534
904.00,0.0533
903.00,0.0532
902.00,0.0531
901.00,0.0530
900.00,0.0529
899.00,0.0528
898.00,0.0527
897.00,0.0526
896.00,0.0526
895.00,0.0526
894.00,0.0525
893.00,0.0525
892.00,0.0525
891.00,0.0525
890.00,0.0525
889.00,0.0525
888.00,0.0525
887.00,0.0525
886.00,0.0525
885.00,0.0525
884.00,0.0525
883.00,0.0526
882.00,0.0526
881.00,0.0526
880.00,0.0525
879.00,0.0525
878.00,0.0524
877.00,0.0523
876.00,0.0523
875.00,0.0523
874.00,0.0523
873.00,0.0523
872.00,0.0523
871.00,0.0523
870.00,0.0522
869.00,0.0522
868.00,0.0523
867.00,0.0523
866.00,0.0524
865.00,0.0526
864.00,0.0527
863.00,0.0530
862.00,0.0532
861.00,0.0535
860.00,0.0539
859.00,0.0544
858.00,0.0548
857.00,0.0552
856.00,0.0556
855.00,0.0560
854.00,0.0564
853.00,0.0568
852.00,0.0572
851.00,0.0574
850.00,0.0576
849.00,0.0577
848.00,0.0577
847.00,0.0578
846.00,0.0579
845.00,0.0580
844.00,0.0582
843.00,0.0585
842.00,0.0588
841.00,0.0592
840.00,0.0596
839.00,0.0600
838.00,0.0605
837.00,0.0610
836.00,0.0615
835.00,0.0620
834.00,0.0624
833.00,0.0629
832.00,0.0634
831.00,0.0639
830.00,0.0643
829.00,0.0646
828.00,0.0648
827.00,0.0651
826.00,0.0652
825.00,0.0654
824.00,0.0655
823.00,0.0656
822.00,0.0656
821.00,0.0657
820.00,0.0659
819.00,0.0661
818.00,0.0663
817.00,0.0666
816.00,0.0668
815.00,0.0672
814.00,0.0675
813.00,0.0678
812.00,0.0682
811.00,0.0685
810.00,0.0689
809.00,0.0692
808.00,0.0696
807.00,0.0700
806.00,0.0703
805.00,0.0707
804.00,0.0710
803.00,0.0715
802.00,0.0720
801.00,0.0725
800.00,0.0730
799.00,0.0735
798.00,0.0741
797.00,0.0746
796.00,0.0753
795.00,0.0759
794.00,0.0766
793.00,0.0773
792.00,0.0780
791.00,0.0788
790.00,0.0796
789.00,0.0804
788.00,0.0812
787.00,0.0821
786.00,0.0829
785.00,0.0837
784.00,0.0844
783.00,0.0850
782.00,0.0855
781.00,0.0859
780.00,0.0863
779.00,0.0867
778.00,0.0870
777.00,0.0873
776.00,0.0876
775.00,0.0879
774.00,0.0882
773.00,0.0885
772.00,0.0888
771.00,0.0891
770.00,0.0895
769.00,0.0898
768.00,0.0901
767.00,0.0904
766.00,0.0907
765.00,0.0910
764.00,0.0913
763.00,0.0917
762.00,0.0919
761.00,0.0922
760.00,0.0926
759.00,0.0930
758.00,0.0934
757.00,0.0938
756.00,0.0944
755.00,0.0949
754.00,0.0955
753.00,0.0961
752.00,0.0967
751.00,0.0974
750.00,0.0980
749.00,0.0986
748.00,0.0992
747.00,0.0999
746.00,0.1004
745.00,0.1010
744.00,0.1015
743.00,0.1020
742.00,0.1023
741.00,0.1027
740.00,0.1031
739.00,0.1036
738.00,0.1040
737.00,0.1045
736.00,0.1051
735.00,0.1057
734.00,0.1064
733.00,0.1071
732.00,0.1080
731.00,0.1090
730.00,0.1101
729.00,0.1112
728.00,0.1124
727.00,0.1137
726.00,0.1150
725.00,0.1163
724.00,0.1177
723.00,0.1191
722.00,0.1204
721.00,0.1217
720.00,0.1231
719.00,0.1244
718.00,0.1256
717.00,0.1267
716.00,0.1278
715.00,0.1289
714.00,0.1299
713.00,0.1309
712.00,0.1321
711.00,0.1332
710.00,0.1343
709.00,0.1355
708.00,0.1367
707.00,0.1379
706.00,0.1392
705.00,0.1406
704.00,0.1420
703.00,0.1434
702.00,0.1446
701.00,0.1456
700.00,0.1465
699.00,0.1471
698.00,0.1475
697.00,0.1476
696.00,0.1476
695.00,0.1474
694.00,0.1472
693.00,0.1469
692.00,0.1468
691.00,0.1468
690.00,0.1467
689.00,0.1468
688.00,0.1469
687.00,0.1471
686.00,0.1473
685.00,0.1474
684.00,0.1476
683.00,0.1477
682.00,0.1478
681.00,0.1480
680.00,0.1482
679.00,0.1484
678.00,0.1486
677.00,0.1488
676.00,0.1492
675.00,0.1495
674.00,0.1497
673.00,0.1498
672.00,0.1498
671.00,0.1495
670.00,0.1493
669.00,0.1498
668.00,0.1516
667.00,0.1534
666.00,0.1538
665.00,0.1534
664.00,0.1531
663.00,0.1532
662.00,0.1534
661.00,0.1536
660.00,0.1540
659.00,0.1543
658.00,0.1545
657.00,0.1546
656.00,0.1549
655.00,0.1552
654.00,0.1555
653.00,0.1558
652.00,0.1560
651.00,0.1563
650.00,0.1565
649.00,0.1568
648.00,0.1572
647.00,0.1576
646.00,0.1579
645.00,0.1582
644.00,0.1585
643.00,0.1589
642.00,0.1592
641.00,0.1595
640.00,0.1598
639.00,0.1602
638.00,0.1605
637.00,0.1608
636.00,0.1613
635.00,0.1618
634.00,0.1624
633.00,0.1629
632.00,0.1635
631.00,0.1640
630.00,0.1644
629.00,0.1648
628.00,0.1653
627.00,0.1657
626.00,0.1661
625.00,0.1664
624.00,0.1666
623.00,0.1669
622.00,0.1670
621.00,0.1670
620.00,0.1671
619.00,0.1672
618.00,0.1673
617.00,0.1674
616.00,0.1676
615.00,0.1677
614.00,0.1678
613.00,0.1678
612.00,0.1678
611.00,0.1679
610.00,0.1680
609.00,0.1680
608.00,0.1681
607.00,0.1682
606.00,0.1682
605.00,0.1682
604.00,0.1683
603.00,0.1685
602.00,0.1686
601.00,0.1688
600.00,0.1690
599.00,0.1693
598.00,0.1694
597.00,0.1694
596.00,0.1695
595.00,0.1698
594.00,0.1702
593.00,0.1706
592.00,0.1710
591.00,0.1714
590.00,0.1716
589.00,0.1717
588.00,0.1720
587.00,0.1722
586.00,0.1725
585.00,0.1727
584.00,0.1731
583.00,0.1734
582.00,0.1738
581.00,0.1742
580.00,0.1747
579.00,0.1752
578.00,0.1754
577.00,0.1755
576.00,0.1759
575.00,0.1763
574.00,0.1767
573.00,0.1771
572.00,0.1775
571.00,0.1779
570.00,0.1781
569.00,0.1784
568.00,0.1787
567.00,0.1790
566.00,0.1793
565.00,0.1797
564.00,0.1800
563.00,0.1804
562.00,0.1805
561.00,0.1807
560.00,0.1809
559.00,0.1813
558.00,0.1816
557.00,0.1820
556.00,0.1825
555.00,0.1830
554.00,0.1834
553.00,0.1837
552.00,0.1842
551.00,0.1846
550.00,0.1848
549.00,0.1850
548.00,0.1853
547.00,0.1857
546.00,0.1860
545.00,0.1864
544.00,0.1868
543.00,0.1873
542.00,0.1876
541.00,0.1879
540.00,0.1882
539.00,0.1885
538.00,0.1884
537.00,0.1884
536.00,0.1885
535.00,0.1888
534.00,0.1891
533.00,0.1894
532.00,0.1898
531.00,0.1901
530.00,0.1901
529.00,0.1900
528.00,0.1900
527.00,0.1901
526.00,0.1903
525.00,0.1907
524.00,0.1913
523.00,0.1917
522.00,0.1918
521.00,0.1917
520.00,0.1918
519.00,0.1919
518.00,0.1922
517.00,0.1925
516.00,0.1930
515.00,0.1933
514.00,0.1932
513.00,0.1933
512.00,0.1936
511.00,0.1939
510.00,0.1940
509.00,0.1939
508.00,0.1939
507.00,0.1939
506.00,0.1937
505.00,0.1933
504.00,0.1930
503.00,0.1929
502.00,0.1930
501.00,0.1933
500.00,0.1935
499.00,0.1934
498.00,0.1930
497.00,0.1926
496.00,0.1924
495.00,0.1922
494.00,0.1920
493.00,0.1921
492.00,0.1925
491.00,0.1929
490.00,0.1929
489.00,0.1928
488.00,0.1926
487.00,0.1922
486.00,0.1918
485.00,0.1917
484.00,0.1919
483.00,0.1920
482.00,0.1916
481.00,0.1910
480.00,0.1906
479.00,0.1904
478.00,0.1901
477.00,0.1900
476.00,0.1902
475.00,0.1904
474.00,0.1906
473.00,0.1908
472.00,0.1911
471.00,0.1911
470.00,0.1908
469.00,0.1905
468.00,0.1907
467.00,0.1910
466.00,0.1909
465.00,0.1908
464.00,0.1908
463.00,0.1910
462.00,0.1910
461.00,0.1909
460.00,0.1908
459.00,0.1908
458.00,0.1907
457.00,0.1910
456.00,0.1915
455.00,0.1914
454.00,0.1906
453.00,0.1897
452.00,0.1892
451.00,0.1890
450.00,0.1887
449.00,0.1882
448.00,0.1880
447.00,0.1878
446.00,0.1875
445.00,0.1873
444.00,0.1876
443.00,0.1880
442.00,0.1880
441.00,0.1876
440.00,0.1872
439.00,0.1868
438.00,0.1861
437.00,0.1856
436.00,0.1856
435.00,0.1857
434.00,0.1853
433.00,0.1848
432.00,0.1845
431.00,0.1845
430.00,0.1846
429.00,0.1850
428.00,0.1854
427.00,0.1855
426.00,0.1851
425.00,0.1849
424.00,0.1851
423.00,0.1853
422.00,0.1847
421.00,0.1838
420.00,0.1834
419.00,0.1830
418.00,0.1824
417.00,0.1822
416.00,0.1828
415.00,0.1832
414.00,0.1828
413.00,0.1824
412.00,0.1828
411.00,0.1833
410.00,0.1832
409.00,0.1829
408.00,0.1825
407.00,0.1814
406.00,0.1791
405.00,0.1771
404.00,0.1765
403.00,0.1770
402.00,0.1773
401.00,0.1770
400.00,0.1758
