Created as New Dataset,Sample 081 By YargerLab Date Thursday, August 14 2025
cm-1,A
4000.00,0.0067
3999.00,0.0068
3998.00,0.0068
3997.00,0.0068
3996.00,0.0068
3995.00,0.0068
3994.00,0.0068
3993.00,0.0067
3992.00,0.0067
3991.00,0.0067
3990.00,0.0067
3989.00,0.0068
3988.00,0.0068
3987.00,0.0068
3986.00,0.0068
3985.00,0.0068
3984.00,0.0068
3983.00,0.0068
3982.00,0.0068
3981.00,0.0068
3980.00,0.0068
3979.00,0.0068
3978.00,0.0068
3977.00,0.0068
3976.00,0.0068
3975.00,0.0068
3974.00,0.0068
3973.00,0.0069
3972.00,0.0069
3971.00,0.0069
3970.00,0.0069
3969.00,0.0068
3968.00,0.0068
3967.00,0.0068
3966.00,0.0068
3965.00,0.0068
3964.00,0.0068
3963.00,0.0068
3962.00,0.0068
3961.00,0.0068
3960.00,0.0068
3959.00,0.0068
3958.00,0.0068
3957.00,0.0068
3956.00,0.0068
3955.00,0.0068
3954.00,0.0068
3953.00,0.0068
3952.00,0.0068
3951.00,0.0068
3950.00,0.0068
3949.00,0.0068
3948.00,0.0068
3947.00,0.0068
3946.00,0.0068
3945.00,0.0068
3944.00,0.0068
3943.00,0.0067
3942.00,0.0067
3941.00,0.0067
3940.00,0.0067
3939.00,0.0067
3938.00,0.0067
3937.00,0.0067
3936.00,0.0067
3935.00,0.0067
3934.00,0.0067
3933.00,0.0067
3932.00,0.0067
3931.00,0.0067
3930.00,0.0067
3929.00,0.0067
3928.00,0.0067
3927.00,0.0067
3926.00,0.0067
3925.00,0.0067
3924.00,0.0067
3923.00,0.0067
3922.00,0.0067
3921.00,0.0067
3920.00,0.0067
3919.00,0.0067
3918.00,0.0067
3917.00,0.0067
3916.00,0.0067
3915.00,0.0067
3914.00,0.0067
3913.00,0.0067
3912.00,0.0067
3911.00,0.0067
3910.00,0.0067
3909.00,0.0067
3908.00,0.0067
3907.00,0.0067
3906.00,0.0067
3905.00,0.0067
3904.00,0.0067
3903.00,0.0067
3902.00,0.0067
3901.00,0.0067
3900.00,0.0067
3899.00,0.0067
3898.00,0.0067
3897.00,0.0067
3896.00,0.0067
3895.00,0.0066
3894.00,0.0066
3893.00,0.0066
3892.00,0.0066
3891.00,0.0066
3890.00,0.0066
3889.00,0.0066
3888.00,0.0066
3887.00,0.0066
3886.00,0.0066
3885.00,0.0066
3884.00,0.0066
3883.00,0.0066
3882.00,0.0066
3881.00,0.0066
3880.00,0.0066
3879.00,0.0066
3878.00,0.0066
3877.00,0.0066
3876.00,0.0066
3875.00,0.0066
3874.00,0.0066
3873.00,0.0066
3872.00,0.0065
3871.00,0.0065
3870.00,0.0065
3869.00,0.0065
3868.00,0.0065
3867.00,0.0066
3866.00,0.0066
3865.00,0.0066
3864.00,0.0066
3863.00,0.0066
3862.00,0.0066
3861.00,0.0066
3860.00,0.0066
3859.00,0.0066
3858.00,0.0065
3857.00,0.0065
3856.00,0.0065
3855.00,0.0064
3854.00,0.0064
3853.00,0.0065
3852.00,0.0065
3851.00,0.0065
3850.00,0.0065
3849.00,0.0065
3848.00,0.0065
3847.00,0.0065
3846.00,0.0065
3845.00,0.0065
3844.00,0.0065
3843.00,0.0065
3842.00,0.0065
3841.00,0.0065
3840.00,0.0065
3839.00,0.0065
3838.00,0.0065
3837.00,0.0065
3836.00,0.0065
3835.00,0.0065
3834.00,0.0065
3833.00,0.0064
3832.00,0.0064
3831.00,0.0064
3830.00,0.0065
3829.00,0.0065
3828.00,0.0065
3827.00,0.0065
3826.00,0.0065
3825.00,0.0065
3824.00,0.0065
3823.00,0.0065
3822.00,0.0065
3821.00,0.0065
3820.00,0.0065
3819.00,0.0065
3818.00,0.0065
3817.00,0.0065
3816.00,0.0065
3815.00,0.0065
3814.00,0.0065
3813.00,0.0065
3812.00,0.0065
3811.00,0.0065
3810.00,0.0065
3809.00,0.0064
3808.00,0.0064
3807.00,0.0064
3806.00,0.0063
3805.00,0.0063
3804.00,0.0063
3803.00,0.0063
3802.00,0.0063
3801.00,0.0063
3800.00,0.0063
3799.00,0.0064
3798.00,0.0064
3797.00,0.0064
3796.00,0.0064
3795.00,0.0064
3794.00,0.0064
3793.00,0.0063
3792.00,0.0063
3791.00,0.0063
3790.00,0.0063
3789.00,0.0063
3788.00,0.0064
3787.00,0.0064
3786.00,0.0064
3785.00,0.0064
3784.00,0.0064
3783.00,0.0063
3782.00,0.0063
3781.00,0.0063
3780.00,0.0062
3779.00,0.0062
3778.00,0.0062
3777.00,0.0062
3776.00,0.0062
3775.00,0.0062
3774.00,0.0063
3773.00,0.0063
3772.00,0.0063
3771.00,0.0063
3770.00,0.0063
3769.00,0.0063
3768.00,0.0063
3767.00,0.0063
3766.00,0.0063
3765.00,0.0063
3764.00,0.0063
3763.00,0.0063
3762.00,0.0063
3761.00,0.0063
3760.00,0.0063
3759.00,0.0063
3758.00,0.0063
3757.00,0.0063
3756.00,0.0063
3755.00,0.0063
3754.00,0.0063
3753.00,0.0063
3752.00,0.0063
3751.00,0.0063
3750.00,0.0063
3749.00,0.0062
3748.00,0.0062
3747.00,0.0062
3746.00,0.0062
3745.00,0.0061
3744.00,0.0061
3743.00,0.0061
3742.00,0.0061
3741.00,0.0061
3740.00,0.0061
3739.00,0.0061
3738.00,0.0061
3737.00,0.0061
3736.00,0.0061
3735.00,0.0061
3734.00,0.0060
3733.00,0.0060
3732.00,0.0060
3731.00,0.0060
3730.00,0.0059
3729.00,0.0059
3728.00,0.0059
3727.00,0.0059
3726.00,0.0059
3725.00,0.0059
3724.00,0.0059
3723.00,0.0059
3722.00,0.0059
3721.00,0.0059
3720.00,0.0059
3719.00,0.0060
3718.00,0.0060
3717.00,0.0060
3716.00,0.0060
3715.00,0.0060
3714.00,0.0060
3713.00,0.0059
3712.00,0.0059
3711.00,0.0059
3710.00,0.0059
3709.00,0.0059
3708.00,0.0059
3707.00,0.0059
3706.00,0.0060
3705.00,0.0060
3704.00,0.0059
3703.00,0.0059
3702.00,0.0059
3701.00,0.0059
3700.00,0.0059
3699.00,0.0059
3698.00,0.0059
3697.00,0.0059
3696.00,0.0059
3695.00,0.0059
3694.00,0.0059
3693.00,0.0059
3692.00,0.0059
3691.00,0.0059
3690.00,0.0059
3689.00,0.0059
3688.00,0.0059
3687.00,0.0059
3686.00,0.0059
3685.00,0.0059
3684.00,0.0059
3683.00,0.0059
3682.00,0.0059
3681.00,0.0059
3680.00,0.0059
3679.00,0.0059
3678.00,0.0059
3677.00,0.0059
3676.00,0.0058
3675.00,0.0058
3674.00,0.0057
3673.00,0.0057
3672.00,0.0057
3671.00,0.0057
3670.00,0.0057
3669.00,0.0057
3668.00,0.0057
3667.00,0.0058
3666.00,0.0058
3665.00,0.0058
3664.00,0.0057
3663.00,0.0057
3662.00,0.0057
3661.00,0.0057
3660.00,0.0057
3659.00,0.0057
3658.00,0.0057
3657.00,0.0057
3656.00,0.0057
3655.00,0.0057
3654.00,0.0058
3653.00,0.0058
3652.00,0.0058
3651.00,0.0058
3650.00,0.0058
3649.00,0.0058
3648.00,0.0058
3647.00,0.0058
3646.00,0.0057
3645.00,0.0057
3644.00,0.0057
3643.00,0.0057
3642.00,0.0057
3641.00,0.0057
3640.00,0.0057
3639.00,0.0057
3638.00,0.0057
3637.00,0.0058
3636.00,0.0058
3635.00,0.0058
3634.00,0.0058
3633.00,0.0058
3632.00,0.0058
3631.00,0.0058
3630.00,0.0059
3629.00,0.0059
3628.00,0.0060
3627.00,0.0060
3626.00,0.0060
3625.00,0.0060
3624.00,0.0061
3623.00,0.0061
3622.00,0.0061
3621.00,0.0061
3620.00,0.0061
3619.00,0.0062
3618.00,0.0062
3617.00,0.0062
3616.00,0.0062
3615.00,0.0062
3614.00,0.0062
3613.00,0.0062
3612.00,0.0062
3611.00,0.0062
3610.00,0.0062
3609.00,0.0062
3608.00,0.0062
3607.00,0.0062
3606.00,0.0063
3605.00,0.0063
3604.00,0.0063
3603.00,0.0063
3602.00,0.0063
3601.00,0.0063
3600.00,0.0063
3599.00,0.0064
3598.00,0.0064
3597.00,0.0064
3596.00,0.0065
3595.00,0.0065
3594.00,0.0065
3593.00,0.0065
3592.00,0.0066
3591.00,0.0066
3590.00,0.0067
3589.00,0.0067
3588.00,0.0068
3587.00,0.0068
3586.00,0.0068
3585.00,0.0069
3584.00,0.0069
3583.00,0.0070
3582.00,0.0071
3581.00,0.0072
3580.00,0.0072
3579.00,0.0073
3578.00,0.0073
3577.00,0.0074
3576.00,0.0074
3575.00,0.0075
3574.00,0.0076
3573.00,0.0077
3572.00,0.0078
3571.00,0.0078
3570.00,0.0079
3569.00,0.0080
3568.00,0.0081
3567.00,0.0082
3566.00,0.0082
3565.00,0.0083
3564.00,0.0083
3563.00,0.0084
3562.00,0.0085
3561.00,0.0086
3560.00,0.0087
3559.00,0.0087
3558.00,0.0088
3557.00,0.0089
3556.00,0.0090
3555.00,0.0091
3554.00,0.0092
3553.00,0.0093
3552.00,0.0095
3551.00,0.0096
3550.00,0.0098
3549.00,0.0099
3548.00,0.0100
3547.00,0.0102
3546.00,0.0103
3545.00,0.0104
3544.00,0.0106
3543.00,0.0107
3542.00,0.0109
3541.00,0.0111
3540.00,0.0112
3539.00,0.0114
3538.00,0.0116
3537.00,0.0118
3536.00,0.0121
3535.00,0.0123
3534.00,0.0126
3533.00,0.0129
3532.00,0.0132
3531.00,0.0136
3530.00,0.0140
3529.00,0.0144
3528.00,0.0149
3527.00,0.0154
3526.00,0.0159
3525.00,0.0164
3524.00,0.0169
3523.00,0.0174
3522.00,0.0178
3521.00,0.0181
3520.00,0.0183
3519.00,0.0185
3518.00,0.0186
3517.00,0.0187
3516.00,0.0187
3515.00,0.0187
3514.00,0.0187
3513.00,0.0186
3512.00,0.0186
3511.00,0.0186
3510.00,0.0186
3509.00,0.0187
3508.00,0.0187
3507.00,0.0188
3506.00,0.0189
3505.00,0.0191
3504.00,0.0192
3503.00,0.0194
3502.00,0.0196
3501.00,0.0199
3500.00,0.0201
3499.00,0.0204
3498.00,0.0206
3497.00,0.0210
3496.00,0.0213
3495.00,0.0216
3494.00,0.0220
3493.00,0.0224
3492.00,0.0228
3491.00,0.0232
3490.00,0.0236
3489.00,0.0241
3488.00,0.0246
3487.00,0.0252
3486.00,0.0257
3485.00,0.0263
3484.00,0.0269
3483.00,0.0276
3482.00,0.0284
3481.00,0.0292
3480.00,0.0300
3479.00,0.0309
3478.00,0.0318
3477.00,0.0328
3476.00,0.0339
3475.00,0.0350
3474.00,0.0363
3473.00,0.0375
3472.00,0.0389
3471.00,0.0403
3470.00,0.0418
3469.00,0.0434
3468.00,0.0450
3467.00,0.0466
3466.00,0.0481
3465.00,0.0496
3464.00,0.0511
3463.00,0.0525
3462.00,0.0538
3461.00,0.0549
3460.00,0.0558
3459.00,0.0564
3458.00,0.0569
3457.00,0.0571
3456.00,0.0571
3455.00,0.0569
3454.00,0.0564
3453.00,0.0558
3452.00,0.0551
3451.00,0.0543
3450.00,0.0534
3449.00,0.0525
3448.00,0.0516
3447.00,0.0508
3446.00,0.0500
3445.00,0.0492
3444.00,0.0486
3443.00,0.0480
3442.00,0.0475
3441.00,0.0472
3440.00,0.0469
3439.00,0.0467
3438.00,0.0466
3437.00,0.0466
3436.00,0.0467
3435.00,0.0467
3434.00,0.0468
3433.00,0.0470
3432.00,0.0472
3431.00,0.0474
3430.00,0.0477
3429.00,0.0479
3428.00,0.0482
3427.00,0.0484
3426.00,0.0485
3425.00,0.0486
3424.00,0.0487
3423.00,0.0487
3422.00,0.0487
3421.00,0.0486
3420.00,0.0484
3419.00,0.0482
3418.00,0.0480
3417.00,0.0477
3416.00,0.0474
3415.00,0.0471
3414.00,0.0467
3413.00,0.0464
3412.00,0.0460
3411.00,0.0455
3410.00,0.0451
3409.00,0.0447
3408.00,0.0442
3407.00,0.0438
3406.00,0.0433
3405.00,0.0429
3404.00,0.0424
3403.00,0.0420
3402.00,0.0415
3401.00,0.0411
3400.00,0.0406
3399.00,0.0401
3398.00,0.0396
3397.00,0.0392
3396.00,0.0387
3395.00,0.0383
3394.00,0.0380
3393.00,0.0376
3392.00,0.0373
3391.00,0.0369
3390.00,0.0366
3389.00,0.0363
3388.00,0.0360
3387.00,0.0358
3386.00,0.0356
3385.00,0.0354
3384.00,0.0353
3383.00,0.0352
3382.00,0.0350
3381.00,0.0349
3380.00,0.0348
3379.00,0.0347
3378.00,0.0346
3377.00,0.0345
3376.00,0.0345
3375.00,0.0344
3374.00,0.0344
3373.00,0.0344
3372.00,0.0344
3371.00,0.0344
3370.00,0.0344
3369.00,0.0344
3368.00,0.0344
3367.00,0.0344
3366.00,0.0344
3365.00,0.0344
3364.00,0.0344
3363.00,0.0344
3362.00,0.0344
3361.00,0.0344
3360.00,0.0344
3359.00,0.0344
3358.00,0.0344
3357.00,0.0344
3356.00,0.0344
3355.00,0.0344
3354.00,0.0345
3353.00,0.0345
3352.00,0.0346
3351.00,0.0347
3350.00,0.0347
3349.00,0.0348
3348.00,0.0349
3347.00,0.0349
3346.00,0.0350
3345.00,0.0351
3344.00,0.0352
3343.00,0.0353
3342.00,0.0354
3341.00,0.0355
3340.00,0.0356
3339.00,0.0358
3338.00,0.0359
3337.00,0.0361
3336.00,0.0362
3335.00,0.0363
3334.00,0.0365
3333.00,0.0366
3332.00,0.0368
3331.00,0.0369
3330.00,0.0371
3329.00,0.0373
3328.00,0.0376
3327.00,0.0378
3326.00,0.0380
3325.00,0.0383
3324.00,0.0385
3323.00,0.0387
3322.00,0.0390
3321.00,0.0392
3320.00,0.0395
3319.00,0.0398
3318.00,0.0401
3317.00,0.0404
3316.00,0.0408
3315.00,0.0411
3314.00,0.0415
3313.00,0.0419
3312.00,0.0423
3311.00,0.0427
3310.00,0.0431
3309.00,0.0435
3308.00,0.0440
3307.00,0.0444
3306.00,0.0448
3305.00,0.0453
3304.00,0.0457
3303.00,0.0461
3302.00,0.0466
3301.00,0.0471
3300.00,0.0476
3299.00,0.0481
3298.00,0.0487
3297.00,0.0493
3296.00,0.0499
3295.00,0.0504
3294.00,0.0510
3293.00,0.0516
3292.00,0.0522
3291.00,0.0527
3290.00,0.0533
3289.00,0.0539
3288.00,0.0545
3287.00,0.0552
3286.00,0.0558
3285.00,0.0565
3284.00,0.0571
3283.00,0.0577
3282.00,0.0584
3281.00,0.0590
3280.00,0.0596
3279.00,0.0602
3278.00,0.0608
3277.00,0.0613
3276.00,0.0619
3275.00,0.0625
3274.00,0.0630
3273.00,0.0635
3272.00,0.0639
3271.00,0.0643
3270.00,0.0646
3269.00,0.0650
3268.00,0.0653
3267.00,0.0655
3266.00,0.0657
3265.00,0.0659
3264.00,0.0660
3263.00,0.0660
3262.00,0.0661
3261.00,0.0661
3260.00,0.0660
3259.00,0.0659
3258.00,0.0658
3257.00,0.0656
3256.00,0.0654
3255.00,0.0652
3254.00,0.0649
3253.00,0.0647
3252.00,0.0644
3251.00,0.0640
3250.00,0.0636
3249.00,0.0631
3248.00,0.0627
3247.00,0.0622
3246.00,0.0617
3245.00,0.0611
3244.00,0.0606
3243.00,0.0600
3242.00,0.0594
3241.00,0.0588
3240.00,0.0582
3239.00,0.0576
3238.00,0.0569
3237.00,0.0563
3236.00,0.0557
3235.00,0.0551
3234.00,0.0546
3233.00,0.0540
3232.00,0.0534
3231.00,0.0529
3230.00,0.0523
3229.00,0.0518
3228.00,0.0513
3227.00,0.0509
3226.00,0.0504
3225.00,0.0500
3224.00,0.0496
3223.00,0.0492
3222.00,0.0488
3221.00,0.0485
3220.00,0.0482
3219.00,0.0479
3218.00,0.0476
3217.00,0.0474
3216.00,0.0471
3215.00,0.0469
3214.00,0.0466
3213.00,0.0464
3212.00,0.0462
3211.00,0.0459
3210.00,0.0457
3209.00,0.0455
3208.00,0.0453
3207.00,0.0451
3206.00,0.0448
3205.00,0.0446
3204.00,0.0444
3203.00,0.0442
3202.00,0.0441
3201.00,0.0439
3200.00,0.0437
3199.00,0.0436
3198.00,0.0435
3197.00,0.0434
3196.00,0.0432
3195.00,0.0431
3194.00,0.0429
3193.00,0.0428
3192.00,0.0427
3191.00,0.0426
3190.00,0.0425
3189.00,0.0424
3188.00,0.0423
3187.00,0.0422
3186.00,0.0421
3185.00,0.0420
3184.00,0.0419
3183.00,0.0418
3182.00,0.0417
3181.00,0.0415
3180.00,0.0414
3179.00,0.0413
3178.00,0.0412
3177.00,0.0411
3176.00,0.0409
3175.00,0.0408
3174.00,0.0407
3173.00,0.0405
3172.00,0.0404
3171.00,0.0402
3170.00,0.0400
3169.00,0.0398
3168.00,0.0396
3167.00,0.0393
3166.00,0.0391
3165.00,0.0388
3164.00,0.0385
3163.00,0.0382
3162.00,0.0379
3161.00,0.0376
3160.00,0.0373
3159.00,0.0371
3158.00,0.0368
3157.00,0.0365
3156.00,0.0363
3155.00,0.0360
3154.00,0.0358
3153.00,0.0356
3152.00,0.0354
3151.00,0.0353
3150.00,0.0351
3149.00,0.0350
3148.00,0.0348
3147.00,0.0347
3146.00,0.0345
3145.00,0.0344
3144.00,0.0342
3143.00,0.0340
3142.00,0.0338
3141.00,0.0336
3140.00,0.0334
3139.00,0.0332
3138.00,0.0330
3137.00,0.0328
3136.00,0.0325
3135.00,0.0323
3134.00,0.0320
3133.00,0.0318
3132.00,0.0316
3131.00,0.0313
3130.00,0.0311
3129.00,0.0309
3128.00,0.0307
3127.00,0.0304
3126.00,0.0301
3125.00,0.0299
3124.00,0.0296
3123.00,0.0293
3122.00,0.0291
3121.00,0.0289
3120.00,0.0287
3119.00,0.0285
3118.00,0.0283
3117.00,0.0281
3116.00,0.0279
3115.00,0.0277
3114.00,0.0275
3113.00,0.0273
3112.00,0.0271
3111.00,0.0270
3110.00,0.0269
3109.00,0.0268
3108.00,0.0267
3107.00,0.0266
3106.00,0.0264
3105.00,0.0263
3104.00,0.0262
3103.00,0.0260
3102.00,0.0259
3101.00,0.0258
3100.00,0.0256
3099.00,0.0255
3098.00,0.0253
3097.00,0.0252
3096.00,0.0250
3095.00,0.0249
3094.00,0.0247
3093.00,0.0246
3092.00,0.0244
3091.00,0.0243
3090.00,0.0241
3089.00,0.0240
3088.00,0.0239
3087.00,0.0238
3086.00,0.0237
3085.00,0.0236
3084.00,0.0235
3083.00,0.0234
3082.00,0.0234
3081.00,0.0234
3080.00,0.0235
3079.00,0.0236
3078.00,0.0237
3077.00,0.0239
3076.00,0.0239
3075.00,0.0240
3074.00,0.0239
3073.00,0.0237
3072.00,0.0234
3071.00,0.0231
3070.00,0.0228
3069.00,0.0225
3068.00,0.0223
3067.00,0.0221
3066.00,0.0219
3065.00,0.0217
3064.00,0.0216
3063.00,0.0215
3062.00,0.0215
3061.00,0.0215
3060.00,0.0215
3059.00,0.0215
3058.00,0.0215
3057.00,0.0215
3056.00,0.0216
3055.00,0.0216
3054.00,0.0217
3053.00,0.0218
3052.00,0.0218
3051.00,0.0218
3050.00,0.0219
3049.00,0.0219
3048.00,0.0218
3047.00,0.0218
3046.00,0.0217
3045.00,0.0217
3044.00,0.0217
3043.00,0.0218
3042.00,0.0219
3041.00,0.0220
3040.00,0.0223
3039.00,0.0225
3038.00,0.0227
3037.00,0.0228
3036.00,0.0230
3035.00,0.0231
3034.00,0.0232
3033.00,0.0233
3032.00,0.0234
3031.00,0.0234
3030.00,0.0233
3029.00,0.0232
3028.00,0.0231
3027.00,0.0230
3026.00,0.0229
3025.00,0.0228
3024.00,0.0227
3023.00,0.0226
3022.00,0.0226
3021.00,0.0226
3020.00,0.0226
3019.00,0.0225
3018.00,0.0225
3017.00,0.0226
3016.00,0.0226
3015.00,0.0227
3014.00,0.0229
3013.00,0.0231
3012.00,0.0234
3011.00,0.0237
3010.00,0.0241
3009.00,0.0244
3008.00,0.0248
3007.00,0.0252
3006.00,0.0255
3005.00,0.0259
3004.00,0.0263
3003.00,0.0267
3002.00,0.0271
3001.00,0.0274
3000.00,0.0277
2999.00,0.0279
2998.00,0.0281
2997.00,0.0284
2996.00,0.0287
2995.00,0.0290
2994.00,0.0295
2993.00,0.0301
2992.00,0.0309
2991.00,0.0318
2990.00,0.0329
2989.00,0.0341
2988.00,0.0355
2987.00,0.0369
2986.00,0.0384
2985.00,0.0399
2984.00,0.0413
2983.00,0.0425
2982.00,0.0436
2981.00,0.0446
2980.00,0.0455
2979.00,0.0464
2978.00,0.0473
2977.00,0.0483
2976.00,0.0493
2975.00,0.0507
2974.00,0.0525
2973.00,0.0551
2972.00,0.0589
2971.00,0.0641
2970.00,0.0708
2969.00,0.0787
2968.00,0.0875
2967.00,0.0963
2966.00,0.1038
2965.00,0.1088
2964.00,0.1105
2963.00,0.1085
2962.00,0.1037
2961.00,0.0971
2960.00,0.0903
2959.00,0.0844
2958.00,0.0800
2957.00,0.0775
2956.00,0.0769
2955.00,0.0781
2954.00,0.0803
2953.00,0.0825
2952.00,0.0836
2951.00,0.0828
2950.00,0.0800
2949.00,0.0759
2948.00,0.0717
2947.00,0.0682
2946.00,0.0660
2945.00,0.0655
2944.00,0.0666
2943.00,0.0692
2942.00,0.0732
2941.00,0.0783
2940.00,0.0844
2939.00,0.0909
2938.00,0.0972
2937.00,0.1028
2936.00,0.1070
2935.00,0.1098
2934.00,0.1115
2933.00,0.1127
2932.00,0.1143
2931.00,0.1169
2930.00,0.1211
2929.00,0.1272
2928.00,0.1353
2927.00,0.1450
2926.00,0.1550
2925.00,0.1635
2924.00,0.1687
2923.00,0.1699
2922.00,0.1677
2921.00,0.1632
2920.00,0.1579
2919.00,0.1526
2918.00,0.1477
2917.00,0.1436
2916.00,0.1404
2915.00,0.1380
2914.00,0.1362
2913.00,0.1346
2912.00,0.1329
2911.00,0.1307
2910.00,0.1280
2909.00,0.1246
2908.00,0.1208
2907.00,0.1166
2906.00,0.1122
2905.00,0.1077
2904.00,0.1033
2903.00,0.0991
2902.00,0.0952
2901.00,0.0916
2900.00,0.0883
2899.00,0.0855
2898.00,0.0831
2897.00,0.0811
2896.00,0.0795
2895.00,0.0782
2894.00,0.0770
2893.00,0.0757
2892.00,0.0742
2891.00,0.0727
2890.00,0.0711
2889.00,0.0695
2888.00,0.0682
2887.00,0.0670
2886.00,0.0660
2885.00,0.0652
2884.00,0.0645
2883.00,0.0640
2882.00,0.0636
2881.00,0.0633
2880.00,0.0632
2879.00,0.0633
2878.00,0.0636
2877.00,0.0642
2876.00,0.0653
2875.00,0.0668
2874.00,0.0688
2873.00,0.0709
2872.00,0.0726
2871.00,0.0737
2870.00,0.0738
2869.00,0.0730
2868.00,0.0720
2867.00,0.0712
2866.00,0.0713
2865.00,0.0726
2864.00,0.0752
2863.00,0.0794
2862.00,0.0851
2861.00,0.0920
2860.00,0.0994
2859.00,0.1064
2858.00,0.1119
2857.00,0.1153
2856.00,0.1162
2855.00,0.1151
2854.00,0.1126
2853.00,0.1093
2852.00,0.1057
2851.00,0.1022
2850.00,0.0989
2849.00,0.0956
2848.00,0.0922
2847.00,0.0883
2846.00,0.0836
2845.00,0.0784
2844.00,0.0728
2843.00,0.0672
2842.00,0.0621
2841.00,0.0575
2840.00,0.0536
2839.00,0.0503
2838.00,0.0475
2837.00,0.0451
2836.00,0.0432
2835.00,0.0416
2834.00,0.0404
2833.00,0.0394
2832.00,0.0386
2831.00,0.0379
2830.00,0.0373
2829.00,0.0365
2828.00,0.0357
2827.00,0.0348
2826.00,0.0337
2825.00,0.0327
2824.00,0.0317
2823.00,0.0308
2822.00,0.0300
2821.00,0.0293
2820.00,0.0286
2819.00,0.0279
2818.00,0.0273
2817.00,0.0268
2816.00,0.0263
2815.00,0.0258
2814.00,0.0254
2813.00,0.0250
2812.00,0.0247
2811.00,0.0244
2810.00,0.0241
2809.00,0.0238
2808.00,0.0236
2807.00,0.0233
2806.00,0.0231
2805.00,0.0229
2804.00,0.0228
2803.00,0.0226
2802.00,0.0223
2801.00,0.0221
2800.00,0.0219
2799.00,0.0217
2798.00,0.0215
2797.00,0.0213
2796.00,0.0211
2795.00,0.0209
2794.00,0.0207
2793.00,0.0205
2792.00,0.0203
2791.00,0.0201
2790.00,0.0199
2789.00,0.0197
2788.00,0.0196
2787.00,0.0195
2786.00,0.0194
2785.00,0.0193
2784.00,0.0192
2783.00,0.0191
2782.00,0.0190
2781.00,0.0189
2780.00,0.0188
2779.00,0.0187
2778.00,0.0186
2777.00,0.0185
2776.00,0.0184
2775.00,0.0184
2774.00,0.0183
2773.00,0.0182
2772.00,0.0181
2771.00,0.0181
2770.00,0.0180
2769.00,0.0180
2768.00,0.0179
2767.00,0.0178
2766.00,0.0178
2765.00,0.0178
2764.00,0.0177
2763.00,0.0177
2762.00,0.0177
2761.00,0.0177
2760.00,0.0177
2759.00,0.0178
2758.00,0.0178
2757.00,0.0178
2756.00,0.0178
2755.00,0.0178
2754.00,0.0178
2753.00,0.0178
2752.00,0.0178
2751.00,0.0178
2750.00,0.0178
2749.00,0.0179
2748.00,0.0179
2747.00,0.0180
2746.00,0.0181
2745.00,0.0182
2744.00,0.0183
2743.00,0.0183
2742.00,0.0184
2741.00,0.0184
2740.00,0.0184
2739.00,0.0185
2738.00,0.0186
2737.00,0.0188
2736.00,0.0191
2735.00,0.0195
2734.00,0.0200
2733.00,0.0205
2732.00,0.0209
2731.00,0.0210
2730.00,0.0210
2729.00,0.0208
2728.00,0.0206
2727.00,0.0204
2726.00,0.0202
2725.00,0.0200
2724.00,0.0198
2723.00,0.0196
2722.00,0.0194
2721.00,0.0191
2720.00,0.0189
2719.00,0.0186
2718.00,0.0184
2717.00,0.0181
2716.00,0.0179
2715.00,0.0177
2714.00,0.0175
2713.00,0.0174
2712.00,0.0172
2711.00,0.0171
2710.00,0.0170
2709.00,0.0169
2708.00,0.0168
2707.00,0.0167
2706.00,0.0167
2705.00,0.0166
2704.00,0.0165
2703.00,0.0165
2702.00,0.0164
2701.00,0.0164
2700.00,0.0163
2699.00,0.0163
2698.00,0.0163
2697.00,0.0162
2696.00,0.0162
2695.00,0.0162
2694.00,0.0162
2693.00,0.0163
2692.00,0.0163
2691.00,0.0163
2690.00,0.0164
2689.00,0.0165
2688.00,0.0165
2687.00,0.0166
2686.00,0.0166
2685.00,0.0166
2684.00,0.0166
2683.00,0.0166
2682.00,0.0165
2681.00,0.0165
2680.00,0.0164
2679.00,0.0163
2678.00,0.0163
2677.00,0.0162
2676.00,0.0161
2675.00,0.0160
2674.00,0.0160
2673.00,0.0159
2672.00,0.0158
2671.00,0.0158
2670.00,0.0157
2669.00,0.0156
2668.00,0.0156
2667.00,0.0155
2666.00,0.0155
2665.00,0.0155
2664.00,0.0155
2663.00,0.0155
2662.00,0.0155
2661.00,0.0155
2660.00,0.0155
2659.00,0.0155
2658.00,0.0155
2657.00,0.0154
2656.00,0.0154
2655.00,0.0153
2654.00,0.0152
2653.00,0.0151
2652.00,0.0150
2651.00,0.0150
2650.00,0.0149
2649.00,0.0148
2648.00,0.0147
2647.00,0.0147
2646.00,0.0146
2645.00,0.0146
2644.00,0.0145
2643.00,0.0144
2642.00,0.0144
2641.00,0.0143
2640.00,0.0143
2639.00,0.0142
2638.00,0.0141
2637.00,0.0141
2636.00,0.0141
2635.00,0.0141
2634.00,0.0141
2633.00,0.0141
2632.00,0.0141
2631.00,0.0141
2630.00,0.0140
2629.00,0.0139
2628.00,0.0139
2627.00,0.0138
2626.00,0.0138
2625.00,0.0137
2624.00,0.0136
2623.00,0.0136
2622.00,0.0135
2621.00,0.0135
2620.00,0.0134
2619.00,0.0134
2618.00,0.0134
2617.00,0.0133
2616.00,0.0133
2615.00,0.0133
2614.00,0.0133
2613.00,0.0132
2612.00,0.0132
2611.00,0.0132
2610.00,0.0132
2609.00,0.0131
2608.00,0.0131
2607.00,0.0130
2606.00,0.0130
2605.00,0.0129
2604.00,0.0128
2603.00,0.0128
2602.00,0.0127
2601.00,0.0126
2600.00,0.0126
2599.00,0.0125
2598.00,0.0124
2597.00,0.0123
2596.00,0.0123
2595.00,0.0122
2594.00,0.0121
2593.00,0.0121
2592.00,0.0121
2591.00,0.0120
2590.00,0.0120
2589.00,0.0120
2588.00,0.0119
2587.00,0.0120
2586.00,0.0120
2585.00,0.0120
2584.00,0.0121
2583.00,0.0121
2582.00,0.0120
2581.00,0.0120
2580.00,0.0119
2579.00,0.0119
2578.00,0.0119
2577.00,0.0118
2576.00,0.0118
2575.00,0.0119
2574.00,0.0119
2573.00,0.0119
2572.00,0.0119
2571.00,0.0119
2570.00,0.0119
2569.00,0.0119
2568.00,0.0118
2567.00,0.0118
2566.00,0.0117
2565.00,0.0116
2564.00,0.0116
2563.00,0.0115
2562.00,0.0115
2561.00,0.0114
2560.00,0.0114
2559.00,0.0113
2558.00,0.0113
2557.00,0.0112
2556.00,0.0111
2555.00,0.0110
2554.00,0.0110
2553.00,0.0109
2552.00,0.0109
2551.00,0.0109
2550.00,0.0109
2549.00,0.0109
2548.00,0.0108
2547.00,0.0108
2546.00,0.0108
2545.00,0.0108
2544.00,0.0108
2543.00,0.0108
2542.00,0.0108
2541.00,0.0108
2540.00,0.0107
2539.00,0.0107
2538.00,0.0107
2537.00,0.0107
2536.00,0.0107
2535.00,0.0107
2534.00,0.0107
2533.00,0.0107
2532.00,0.0107
2531.00,0.0107
2530.00,0.0107
2529.00,0.0107
2528.00,0.0107
2527.00,0.0107
2526.00,0.0107
2525.00,0.0107
2524.00,0.0107
2523.00,0.0107
2522.00,0.0107
2521.00,0.0107
2520.00,0.0106
2519.00,0.0106
2518.00,0.0105
2517.00,0.0105
2516.00,0.0104
2515.00,0.0104
2514.00,0.0104
2513.00,0.0104
2512.00,0.0104
2511.00,0.0103
2510.00,0.0103
2509.00,0.0102
2508.00,0.0101
2507.00,0.0100
2506.00,0.0100
2505.00,0.0100
2504.00,0.0100
2503.00,0.0100
2502.00,0.0100
2501.00,0.0100
2500.00,0.0099
2499.00,0.0099
2498.00,0.0099
2497.00,0.0099
2496.00,0.0099
2495.00,0.0099
2494.00,0.0099
2493.00,0.0099
2492.00,0.0099
2491.00,0.0099
2490.00,0.0098
2489.00,0.0098
2488.00,0.0098
2487.00,0.0097
2486.00,0.0097
2485.00,0.0097
2484.00,0.0097
2483.00,0.0097
2482.00,0.0097
2481.00,0.0098
2480.00,0.0098
2479.00,0.0098
2478.00,0.0097
2477.00,0.0097
2476.00,0.0097
2475.00,0.0097
2474.00,0.0097
2473.00,0.0096
2472.00,0.0096
2471.00,0.0096
2470.00,0.0096
2469.00,0.0096
2468.00,0.0096
2467.00,0.0096
2466.00,0.0096
2465.00,0.0095
2464.00,0.0095
2463.00,0.0094
2462.00,0.0094
2461.00,0.0094
2460.00,0.0094
2459.00,0.0094
2458.00,0.0094
2457.00,0.0094
2456.00,0.0094
2455.00,0.0093
2454.00,0.0093
2453.00,0.0093
2452.00,0.0093
2451.00,0.0093
2450.00,0.0093
2449.00,0.0092
2448.00,0.0092
2447.00,0.0092
2446.00,0.0092
2445.00,0.0092
2444.00,0.0092
2443.00,0.0092
2442.00,0.0091
2441.00,0.0091
2440.00,0.0090
2439.00,0.0090
2438.00,0.0089
2437.00,0.0089
2436.00,0.0089
2435.00,0.0088
2434.00,0.0088
2433.00,0.0088
2432.00,0.0088
2431.00,0.0088
2430.00,0.0088
2429.00,0.0088
2428.00,0.0087
2427.00,0.0087
2426.00,0.0086
2425.00,0.0086
2424.00,0.0085
2423.00,0.0085
2422.00,0.0085
2421.00,0.0085
2420.00,0.0085
2419.00,0.0085
2418.00,0.0085
2417.00,0.0085
2416.00,0.0085
2415.00,0.0084
2414.00,0.0084
2413.00,0.0084
2412.00,0.0085
2411.00,0.0085
2410.00,0.0084
2409.00,0.0084
2408.00,0.0083
2407.00,0.0083
2406.00,0.0082
2405.00,0.0082
2404.00,0.0082
2403.00,0.0081
2402.00,0.0081
2401.00,0.0081
2400.00,0.0081
2399.00,0.0081
2398.00,0.0081
2397.00,0.0081
2396.00,0.0081
2395.00,0.0081
2394.00,0.0080
2393.00,0.0080
2392.00,0.0080
2391.00,0.0080
2390.00,0.0079
2389.00,0.0079
2388.00,0.0079
2387.00,0.0078
2386.00,0.0077
2385.00,0.0076
2384.00,0.0075
2383.00,0.0074
2382.00,0.0073
2381.00,0.0073
2380.00,0.0073
2379.00,0.0073
2378.00,0.0073
2377.00,0.0074
2376.00,0.0074
2375.00,0.0074
2374.00,0.0074
2373.00,0.0073
2372.00,0.0072
2371.00,0.0072
2370.00,0.0071
2369.00,0.0071
2368.00,0.0071
2367.00,0.0071
2366.00,0.0071
2365.00,0.0071
2364.00,0.0072
2363.00,0.0072
2362.00,0.0072
2361.00,0.0072
2360.00,0.0072
2359.00,0.0072
2358.00,0.0072
2357.00,0.0073
2356.00,0.0074
2355.00,0.0074
2354.00,0.0074
2353.00,0.0073
2352.00,0.0073
2351.00,0.0073
2350.00,0.0073
2349.00,0.0073
2348.00,0.0073
2347.00,0.0073
2346.00,0.0072
2345.00,0.0072
2344.00,0.0072
2343.00,0.0072
2342.00,0.0073
2341.00,0.0074
2340.00,0.0075
2339.00,0.0076
2338.00,0.0076
2337.00,0.0076
2336.00,0.0076
2335.00,0.0076
2334.00,0.0075
2333.00,0.0075
2332.00,0.0075
2331.00,0.0075
2330.00,0.0076
2329.00,0.0078
2328.00,0.0082
2327.00,0.0086
2326.00,0.0090
2325.00,0.0090
2324.00,0.0089
2323.00,0.0086
2322.00,0.0083
2321.00,0.0082
2320.00,0.0081
2319.00,0.0080
2318.00,0.0079
2317.00,0.0079
2316.00,0.0078
2315.00,0.0077
2314.00,0.0075
2313.00,0.0074
2312.00,0.0073
2311.00,0.0072
2310.00,0.0072
2309.00,0.0072
2308.00,0.0072
2307.00,0.0073
2306.00,0.0073
2305.00,0.0074
2304.00,0.0074
2303.00,0.0075
2302.00,0.0075
2301.00,0.0075
2300.00,0.0076
2299.00,0.0077
2298.00,0.0077
2297.00,0.0077
2296.00,0.0078
2295.00,0.0079
2294.00,0.0080
2293.00,0.0080
2292.00,0.0081
2291.00,0.0082
2290.00,0.0083
2289.00,0.0084
2288.00,0.0084
2287.00,0.0084
2286.00,0.0083
2285.00,0.0082
2284.00,0.0081
2283.00,0.0081
2282.00,0.0080
2281.00,0.0080
2280.00,0.0080
2279.00,0.0079
2278.00,0.0078
2277.00,0.0077
2276.00,0.0076
2275.00,0.0076
2274.00,0.0076
2273.00,0.0076
2272.00,0.0076
2271.00,0.0076
2270.00,0.0075
2269.00,0.0075
2268.00,0.0074
2267.00,0.0073
2266.00,0.0072
2265.00,0.0072
2264.00,0.0072
2263.00,0.0072
2262.00,0.0072
2261.00,0.0073
2260.00,0.0073
2259.00,0.0074
2258.00,0.0074
2257.00,0.0073
2256.00,0.0072
2255.00,0.0071
2254.00,0.0070
2253.00,0.0070
2252.00,0.0071
2251.00,0.0071
2250.00,0.0071
2249.00,0.0072
2248.00,0.0072
2247.00,0.0072
2246.00,0.0072
2245.00,0.0073
2244.00,0.0073
2243.00,0.0073
2242.00,0.0073
2241.00,0.0073
2240.00,0.0073
2239.00,0.0073
2238.00,0.0072
2237.00,0.0072
2236.00,0.0072
2235.00,0.0072
2234.00,0.0072
2233.00,0.0073
2232.00,0.0073
2231.00,0.0072
2230.00,0.0071
2229.00,0.0071
2228.00,0.0071
2227.00,0.0070
2226.00,0.0070
2225.00,0.0070
2224.00,0.0070
2223.00,0.0071
2222.00,0.0072
2221.00,0.0073
2220.00,0.0074
2219.00,0.0074
2218.00,0.0074
2217.00,0.0074
2216.00,0.0074
2215.00,0.0074
2214.00,0.0074
2213.00,0.0074
2212.00,0.0074
2211.00,0.0074
2210.00,0.0074
2209.00,0.0073
2208.00,0.0073
2207.00,0.0073
2206.00,0.0072
2205.00,0.0073
2204.00,0.0073
2203.00,0.0073
2202.00,0.0072
2201.00,0.0072
2200.00,0.0071
2199.00,0.0070
2198.00,0.0070
2197.00,0.0069
2196.00,0.0069
2195.00,0.0069
2194.00,0.0069
2193.00,0.0069
2192.00,0.0069
2191.00,0.0069
2190.00,0.0070
2189.00,0.0071
2188.00,0.0073
2187.00,0.0073
2186.00,0.0073
2185.00,0.0071
2184.00,0.0069
2183.00,0.0066
2182.00,0.0064
2181.00,0.0063
2180.00,0.0065
2179.00,0.0066
2178.00,0.0066
2177.00,0.0065
2176.00,0.0063
2175.00,0.0063
2174.00,0.0065
2173.00,0.0069
2172.00,0.0073
2171.00,0.0077
2170.00,0.0079
2169.00,0.0082
2168.00,0.0084
2167.00,0.0085
2166.00,0.0085
2165.00,0.0086
2164.00,0.0087
2163.00,0.0084
2162.00,0.0075
2161.00,0.0060
2160.00,0.0043
2159.00,0.0030
2158.00,0.0026
2157.00,0.0029
2156.00,0.0035
2155.00,0.0040
2154.00,0.0042
2153.00,0.0043
2152.00,0.0045
2151.00,0.0045
2150.00,0.0046
2149.00,0.0047
2148.00,0.0048
2147.00,0.0047
2146.00,0.0046
2145.00,0.0045
2144.00,0.0047
2143.00,0.0049
2142.00,0.0050
2141.00,0.0051
2140.00,0.0052
2139.00,0.0051
2138.00,0.0049
2137.00,0.0047
2136.00,0.0045
2135.00,0.0043
2134.00,0.0043
2133.00,0.0044
2132.00,0.0046
2131.00,0.0048
2130.00,0.0049
2129.00,0.0050
2128.00,0.0052
2127.00,0.0054
2126.00,0.0055
2125.00,0.0057
2124.00,0.0058
2123.00,0.0059
2122.00,0.0059
2121.00,0.0059
2120.00,0.0060
2119.00,0.0062
2118.00,0.0063
2117.00,0.0064
2116.00,0.0064
2115.00,0.0065
2114.00,0.0065
2113.00,0.0066
2112.00,0.0067
2111.00,0.0066
2110.00,0.0066
2109.00,0.0065
2108.00,0.0066
2107.00,0.0066
2106.00,0.0065
2105.00,0.0065
2104.00,0.0065
2103.00,0.0064
2102.00,0.0064
2101.00,0.0064
2100.00,0.0064
2099.00,0.0063
2098.00,0.0061
2097.00,0.0059
2096.00,0.0057
2095.00,0.0055
2094.00,0.0054
2093.00,0.0055
2092.00,0.0056
2091.00,0.0056
2090.00,0.0056
2089.00,0.0057
2088.00,0.0057
2087.00,0.0058
2086.00,0.0058
2085.00,0.0060
2084.00,0.0061
2083.00,0.0062
2082.00,0.0062
2081.00,0.0063
2080.00,0.0064
2079.00,0.0064
2078.00,0.0064
2077.00,0.0064
2076.00,0.0064
2075.00,0.0064
2074.00,0.0065
2073.00,0.0065
2072.00,0.0064
2071.00,0.0063
2070.00,0.0062
2069.00,0.0062
2068.00,0.0062
2067.00,0.0062
2066.00,0.0061
2065.00,0.0061
2064.00,0.0061
2063.00,0.0062
2062.00,0.0062
2061.00,0.0063
2060.00,0.0063
2059.00,0.0063
2058.00,0.0062
2057.00,0.0061
2056.00,0.0061
2055.00,0.0064
2054.00,0.0068
2053.00,0.0074
2052.00,0.0078
2051.00,0.0077
2050.00,0.0073
2049.00,0.0068
2048.00,0.0064
2047.00,0.0061
2046.00,0.0060
2045.00,0.0060
2044.00,0.0060
2043.00,0.0060
2042.00,0.0060
2041.00,0.0061
2040.00,0.0062
2039.00,0.0062
2038.00,0.0060
2037.00,0.0057
2036.00,0.0053
2035.00,0.0048
2034.00,0.0045
2033.00,0.0044
2032.00,0.0044
2031.00,0.0043
2030.00,0.0041
2029.00,0.0041
2028.00,0.0040
2027.00,0.0040
2026.00,0.0039
2025.00,0.0040
2024.00,0.0041
2023.00,0.0041
2022.00,0.0042
2021.00,0.0043
2020.00,0.0044
2019.00,0.0043
2018.00,0.0042
2017.00,0.0041
2016.00,0.0042
2015.00,0.0044
2014.00,0.0046
2013.00,0.0048
2012.00,0.0051
2011.00,0.0051
2010.00,0.0049
2009.00,0.0046
2008.00,0.0042
2007.00,0.0039
2006.00,0.0036
2005.00,0.0036
2004.00,0.0039
2003.00,0.0041
2002.00,0.0042
2001.00,0.0043
2000.00,0.0044
1999.00,0.0046
1998.00,0.0048
1997.00,0.0051
1996.00,0.0052
1995.00,0.0053
1994.00,0.0053
1993.00,0.0053
1992.00,0.0054
1991.00,0.0054
1990.00,0.0054
1989.00,0.0055
1988.00,0.0056
1987.00,0.0057
1986.00,0.0059
1985.00,0.0061
1984.00,0.0065
1983.00,0.0069
1982.00,0.0072
1981.00,0.0072
1980.00,0.0068
1979.00,0.0061
1978.00,0.0053
1977.00,0.0048
1976.00,0.0046
1975.00,0.0046
1974.00,0.0046
1973.00,0.0047
1972.00,0.0048
1971.00,0.0047
1970.00,0.0047
1969.00,0.0049
1968.00,0.0050
1967.00,0.0051
1966.00,0.0050
1965.00,0.0049
1964.00,0.0048
1963.00,0.0047
1962.00,0.0045
1961.00,0.0043
1960.00,0.0042
1959.00,0.0042
1958.00,0.0042
1957.00,0.0044
1956.00,0.0045
1955.00,0.0047
1954.00,0.0047
1953.00,0.0048
1952.00,0.0049
1951.00,0.0049
1950.00,0.0049
1949.00,0.0049
1948.00,0.0049
1947.00,0.0049
1946.00,0.0049
1945.00,0.0049
1944.00,0.0050
1943.00,0.0050
1942.00,0.0049
1941.00,0.0048
1940.00,0.0048
1939.00,0.0048
1938.00,0.0048
1937.00,0.0049
1936.00,0.0049
1935.00,0.0049
1934.00,0.0048
1933.00,0.0048
1932.00,0.0050
1931.00,0.0051
1930.00,0.0052
1929.00,0.0053
1928.00,0.0054
1927.00,0.0054
1926.00,0.0053
1925.00,0.0053
1924.00,0.0054
1923.00,0.0055
1922.00,0.0056
1921.00,0.0057
1920.00,0.0058
1919.00,0.0058
1918.00,0.0058
1917.00,0.0057
1916.00,0.0057
1915.00,0.0058
1914.00,0.0058
1913.00,0.0058
1912.00,0.0059
1911.00,0.0059
1910.00,0.0058
1909.00,0.0058
1908.00,0.0058
1907.00,0.0058
1906.00,0.0058
1905.00,0.0058
1904.00,0.0059
1903.00,0.0059
1902.00,0.0060
1901.00,0.0060
1900.00,0.0060
1899.00,0.0060
1898.00,0.0060
1897.00,0.0059
1896.00,0.0059
1895.00,0.0060
1894.00,0.0060
1893.00,0.0060
1892.00,0.0060
1891.00,0.0060
1890.00,0.0060
1889.00,0.0060
1888.00,0.0060
1887.00,0.0061
1886.00,0.0061
1885.00,0.0061
1884.00,0.0061
1883.00,0.0061
1882.00,0.0061
1881.00,0.0061
1880.00,0.0061
1879.00,0.0061
1878.00,0.0060
1877.00,0.0060
1876.00,0.0061
1875.00,0.0061
1874.00,0.0061
1873.00,0.0061
1872.00,0.0061
1871.00,0.0060
1870.00,0.0059
1869.00,0.0059
1868.00,0.0060
1867.00,0.0060
1866.00,0.0060
1865.00,0.0061
1864.00,0.0061
1863.00,0.0061
1862.00,0.0061
1861.00,0.0062
1860.00,0.0062
1859.00,0.0062
1858.00,0.0062
1857.00,0.0062
1856.00,0.0062
1855.00,0.0062
1854.00,0.0062
1853.00,0.0062
1852.00,0.0062
1851.00,0.0062
1850.00,0.0061
1849.00,0.0061
1848.00,0.0061
1847.00,0.0061
1846.00,0.0061
1845.00,0.0061
1844.00,0.0062
1843.00,0.0062
1842.00,0.0062
1841.00,0.0062
1840.00,0.0063
1839.00,0.0063
1838.00,0.0064
1837.00,0.0064
1836.00,0.0065
1835.00,0.0065
1834.00,0.0065
1833.00,0.0065
1832.00,0.0065
1831.00,0.0065
1830.00,0.0064
1829.00,0.0064
1828.00,0.0064
1827.00,0.0065
1826.00,0.0066
1825.00,0.0067
1824.00,0.0068
1823.00,0.0068
1822.00,0.0068
1821.00,0.0068
1820.00,0.0068
1819.00,0.0067
1818.00,0.0066
1817.00,0.0066
1816.00,0.0066
1815.00,0.0067
1814.00,0.0067
1813.00,0.0068
1812.00,0.0069
1811.00,0.0069
1810.00,0.0069
1809.00,0.0069
1808.00,0.0070
1807.00,0.0070
1806.00,0.0071
1805.00,0.0071
1804.00,0.0071
1803.00,0.0071
1802.00,0.0070
1801.00,0.0070
1800.00,0.0070
1799.00,0.0070
1798.00,0.0070
1797.00,0.0070
1796.00,0.0070
1795.00,0.0069
1794.00,0.0069
1793.00,0.0068
1792.00,0.0069
1791.00,0.0070
1790.00,0.0070
1789.00,0.0071
1788.00,0.0072
1787.00,0.0073
1786.00,0.0073
1785.00,0.0074
1784.00,0.0074
1783.00,0.0074
1782.00,0.0074
1781.00,0.0075
1780.00,0.0075
1779.00,0.0074
1778.00,0.0074
1777.00,0.0074
1776.00,0.0074
1775.00,0.0073
1774.00,0.0073
1773.00,0.0073
1772.00,0.0073
1771.00,0.0073
1770.00,0.0074
1769.00,0.0075
1768.00,0.0077
1767.00,0.0078
1766.00,0.0078
1765.00,0.0078
1764.00,0.0079
1763.00,0.0079
1762.00,0.0079
1761.00,0.0078
1760.00,0.0078
1759.00,0.0078
1758.00,0.0079
1757.00,0.0079
1756.00,0.0079
1755.00,0.0079
1754.00,0.0079
1753.00,0.0079
1752.00,0.0079
1751.00,0.0079
1750.00,0.0079
1749.00,0.0079
1748.00,0.0080
1747.00,0.0082
1746.00,0.0084
1745.00,0.0086
1744.00,0.0088
1743.00,0.0090
1742.00,0.0090
1741.00,0.0091
1740.00,0.0092
1739.00,0.0092
1738.00,0.0090
1737.00,0.0089
1736.00,0.0088
1735.00,0.0087
1734.00,0.0085
1733.00,0.0083
1732.00,0.0083
1731.00,0.0083
1730.00,0.0083
1729.00,0.0083
1728.00,0.0083
1727.00,0.0083
1726.00,0.0083
1725.00,0.0084
1724.00,0.0084
1723.00,0.0085
1722.00,0.0086
1721.00,0.0086
1720.00,0.0087
1719.00,0.0088
1718.00,0.0090
1717.00,0.0091
1716.00,0.0091
1715.00,0.0091
1714.00,0.0091
1713.00,0.0091
1712.00,0.0091
1711.00,0.0091
1710.00,0.0090
1709.00,0.0089
1708.00,0.0088
1707.00,0.0087
1706.00,0.0086
1705.00,0.0085
1704.00,0.0085
1703.00,0.0084
1702.00,0.0083
1701.00,0.0082
1700.00,0.0082
1699.00,0.0082
1698.00,0.0082
1697.00,0.0084
1696.00,0.0086
1695.00,0.0087
1694.00,0.0087
1693.00,0.0088
1692.00,0.0089
1691.00,0.0090
1690.00,0.0090
1689.00,0.0089
1688.00,0.0089
1687.00,0.0087
1686.00,0.0085
1685.00,0.0084
1684.00,0.0084
1683.00,0.0085
1682.00,0.0087
1681.00,0.0090
1680.00,0.0095
1679.00,0.0098
1678.00,0.0102
1677.00,0.0105
1676.00,0.0109
1675.00,0.0112
1674.00,0.0112
1673.00,0.0112
1672.00,0.0110
1671.00,0.0107
1670.00,0.0101
1669.00,0.0095
1668.00,0.0092
1667.00,0.0089
1666.00,0.0087
1665.00,0.0086
1664.00,0.0086
1663.00,0.0085
1662.00,0.0086
1661.00,0.0087
1660.00,0.0089
1659.00,0.0092
1658.00,0.0094
1657.00,0.0095
1656.00,0.0096
1655.00,0.0098
1654.00,0.0103
1653.00,0.0114
1652.00,0.0127
1651.00,0.0137
1650.00,0.0144
1649.00,0.0155
1648.00,0.0173
1647.00,0.0201
1646.00,0.0233
1645.00,0.0266
1644.00,0.0297
1643.00,0.0332
1642.00,0.0372
1641.00,0.0420
1640.00,0.0477
1639.00,0.0539
1638.00,0.0605
1637.00,0.0684
1636.00,0.0773
1635.00,0.0850
1634.00,0.0891
1633.00,0.0902
1632.00,0.0896
1631.00,0.0880
1630.00,0.0856
1629.00,0.0826
1628.00,0.0792
1627.00,0.0758
1626.00,0.0725
1625.00,0.0692
1624.00,0.0656
1623.00,0.0615
1622.00,0.0574
1621.00,0.0536
1620.00,0.0501
1619.00,0.0466
1618.00,0.0429
1617.00,0.0391
1616.00,0.0356
1615.00,0.0330
1614.00,0.0310
1613.00,0.0295
1612.00,0.0282
1611.00,0.0269
1610.00,0.0258
1609.00,0.0251
1608.00,0.0245
1607.00,0.0242
1606.00,0.0240
1605.00,0.0241
1604.00,0.0244
1603.00,0.0249
1602.00,0.0257
1601.00,0.0268
1600.00,0.0282
1599.00,0.0298
1598.00,0.0318
1597.00,0.0343
1596.00,0.0374
1595.00,0.0410
1594.00,0.0451
1593.00,0.0500
1592.00,0.0558
1591.00,0.0628
1590.00,0.0715
1589.00,0.0824
1588.00,0.0953
1587.00,0.1095
1586.00,0.1230
1585.00,0.1336
1584.00,0.1393
1583.00,0.1390
1582.00,0.1329
1581.00,0.1231
1580.00,0.1123
1579.00,0.1019
1578.00,0.0917
1577.00,0.0813
1576.00,0.0712
1575.00,0.0632
1574.00,0.0576
1573.00,0.0534
1572.00,0.0497
1571.00,0.0459
1570.00,0.0420
1569.00,0.0386
1568.00,0.0360
1567.00,0.0340
1566.00,0.0322
1565.00,0.0306
1564.00,0.0291
1563.00,0.0278
1562.00,0.0266
1561.00,0.0256
1560.00,0.0244
1559.00,0.0230
1558.00,0.0221
1557.00,0.0218
1556.00,0.0217
1555.00,0.0215
1554.00,0.0213
1553.00,0.0212
1552.00,0.0210
1551.00,0.0208
1550.00,0.0207
1549.00,0.0207
1548.00,0.0206
1547.00,0.0205
1546.00,0.0205
1545.00,0.0206
1544.00,0.0206
1543.00,0.0206
1542.00,0.0208
1541.00,0.0214
1540.00,0.0224
1539.00,0.0236
1538.00,0.0246
1537.00,0.0256
1536.00,0.0265
1535.00,0.0276
1534.00,0.0293
1533.00,0.0318
1532.00,0.0345
1531.00,0.0372
1530.00,0.0405
1529.00,0.0448
1528.00,0.0502
1527.00,0.0567
1526.00,0.0637
1525.00,0.0701
1524.00,0.0747
1523.00,0.0772
1522.00,0.0775
1521.00,0.0759
1520.00,0.0736
1519.00,0.0718
1518.00,0.0709
1517.00,0.0709
1516.00,0.0713
1515.00,0.0712
1514.00,0.0699
1513.00,0.0673
1512.00,0.0634
1511.00,0.0589
1510.00,0.0546
1509.00,0.0507
1508.00,0.0469
1507.00,0.0431
1506.00,0.0399
1505.00,0.0379
1504.00,0.0366
1503.00,0.0355
1502.00,0.0342
1501.00,0.0329
1500.00,0.0315
1499.00,0.0302
1498.00,0.0290
1497.00,0.0279
1496.00,0.0270
1495.00,0.0261
1494.00,0.0253
1493.00,0.0246
1492.00,0.0239
1491.00,0.0231
1490.00,0.0223
1489.00,0.0217
1488.00,0.0214
1487.00,0.0213
1486.00,0.0212
1485.00,0.0213
1484.00,0.0215
1483.00,0.0217
1482.00,0.0220
1481.00,0.0224
1480.00,0.0229
1479.00,0.0234
1478.00,0.0239
1477.00,0.0247
1476.00,0.0258
1475.00,0.0269
1474.00,0.0286
1473.00,0.0319
1472.00,0.0373
1471.00,0.0448
1470.00,0.0544
1469.00,0.0654
1468.00,0.0757
1467.00,0.0820
1466.00,0.0820
1465.00,0.0771
1464.00,0.0720
1463.00,0.0698
1462.00,0.0708
1461.00,0.0740
1460.00,0.0787
1459.00,0.0853
1458.00,0.0949
1457.00,0.1075
1456.00,0.1194
1455.00,0.1281
1454.00,0.1353
1453.00,0.1432
1452.00,0.1526
1451.00,0.1634
1450.00,0.1759
1449.00,0.1909
1448.00,0.2076
1447.00,0.2227
1446.00,0.2328
1445.00,0.2368
1444.00,0.2349
1443.00,0.2279
1442.00,0.2176
1441.00,0.2058
1440.00,0.1938
1439.00,0.1817
1438.00,0.1690
1437.00,0.1556
1436.00,0.1425
1435.00,0.1316
1434.00,0.1227
1433.00,0.1147
1432.00,0.1067
1431.00,0.0988
1430.00,0.0913
1429.00,0.0843
1428.00,0.0779
1427.00,0.0722
1426.00,0.0671
1425.00,0.0620
1424.00,0.0573
1423.00,0.0533
1422.00,0.0503
1421.00,0.0477
1420.00,0.0454
1419.00,0.0435
1418.00,0.0423
1417.00,0.0414
1416.00,0.0408
1415.00,0.0406
1414.00,0.0406
1413.00,0.0407
1412.00,0.0411
1411.00,0.0418
1410.00,0.0427
1409.00,0.0436
1408.00,0.0447
1407.00,0.0458
1406.00,0.0471
1405.00,0.0482
1404.00,0.0492
1403.00,0.0500
1402.00,0.0505
1401.00,0.0507
1400.00,0.0508
1399.00,0.0510
1398.00,0.0511
1397.00,0.0513
1396.00,0.0517
1395.00,0.0526
1394.00,0.0539
1393.00,0.0552
1392.00,0.0564
1391.00,0.0572
1390.00,0.0572
1389.00,0.0563
1388.00,0.0544
1387.00,0.0523
1386.00,0.0508
1385.00,0.0502
1384.00,0.0504
1383.00,0.0511
1382.00,0.0517
1381.00,0.0520
1380.00,0.0523
1379.00,0.0534
1378.00,0.0556
1377.00,0.0585
1376.00,0.0616
1375.00,0.0636
1374.00,0.0635
1373.00,0.0613
1372.00,0.0581
1371.00,0.0553
1370.00,0.0536
1369.00,0.0531
1368.00,0.0531
1367.00,0.0526
1366.00,0.0509
1365.00,0.0482
1364.00,0.0450
1363.00,0.0419
1362.00,0.0394
1361.00,0.0379
1360.00,0.0371
1359.00,0.0369
1358.00,0.0372
1357.00,0.0382
1356.00,0.0398
1355.00,0.0423
1354.00,0.0459
1353.00,0.0504
1352.00,0.0558
1351.00,0.0620
1350.00,0.0693
1349.00,0.0781
1348.00,0.0895
1347.00,0.1037
1346.00,0.1197
1345.00,0.1342
1344.00,0.1434
1343.00,0.1450
1342.00,0.1395
1341.00,0.1295
1340.00,0.1188
1339.00,0.1109
1338.00,0.1071
1337.00,0.1068
1336.00,0.1076
1335.00,0.1067
1334.00,0.1027
1333.00,0.0958
1332.00,0.0880
1331.00,0.0811
1330.00,0.0760
1329.00,0.0726
1328.00,0.0707
1327.00,0.0703
1326.00,0.0715
1325.00,0.0744
1324.00,0.0792
1323.00,0.0855
1322.00,0.0925
1321.00,0.0993
1320.00,0.1050
1319.00,0.1089
1318.00,0.1109
1317.00,0.1114
1316.00,0.1115
1315.00,0.1124
1314.00,0.1147
1313.00,0.1184
1312.00,0.1225
1311.00,0.1249
1310.00,0.1237
1309.00,0.1181
1308.00,0.1089
1307.00,0.0983
1306.00,0.0883
1305.00,0.0799
1304.00,0.0734
1303.00,0.0684
1302.00,0.0645
1301.00,0.0611
1300.00,0.0581
1299.00,0.0553
1298.00,0.0528
1297.00,0.0506
1296.00,0.0486
1295.00,0.0470
1294.00,0.0457
1293.00,0.0447
1292.00,0.0440
1291.00,0.0436
1290.00,0.0437
1289.00,0.0443
1288.00,0.0457
1287.00,0.0478
1286.00,0.0502
1285.00,0.0525
1284.00,0.0539
1283.00,0.0545
1282.00,0.0546
1281.00,0.0546
1280.00,0.0549
1279.00,0.0555
1278.00,0.0565
1277.00,0.0578
1276.00,0.0597
1275.00,0.0620
1274.00,0.0647
1273.00,0.0675
1272.00,0.0696
1271.00,0.0706
1270.00,0.0703
1269.00,0.0695
1268.00,0.0692
1267.00,0.0705
1266.00,0.0738
1265.00,0.0791
1264.00,0.0858
1263.00,0.0932
1262.00,0.1002
1261.00,0.1059
1260.00,0.1091
1259.00,0.1094
1258.00,0.1067
1257.00,0.1016
1256.00,0.0950
1255.00,0.0880
1254.00,0.0813
1253.00,0.0754
1252.00,0.0703
1251.00,0.0661
1250.00,0.0625
1249.00,0.0593
1248.00,0.0564
1247.00,0.0539
1246.00,0.0518
1245.00,0.0499
1244.00,0.0483
1243.00,0.0468
1242.00,0.0455
1241.00,0.0444
1240.00,0.0434
1239.00,0.0426
1238.00,0.0418
1237.00,0.0409
1236.00,0.0400
1235.00,0.0392
1234.00,0.0386
1233.00,0.0381
1232.00,0.0381
1231.00,0.0386
1230.00,0.0399
1229.00,0.0422
1228.00,0.0451
1227.00,0.0481
1226.00,0.0507
1225.00,0.0528
1224.00,0.0548
1223.00,0.0575
1222.00,0.0617
1221.00,0.0677
1220.00,0.0747
1219.00,0.0814
1218.00,0.0860
1217.00,0.0872
1216.00,0.0850
1215.00,0.0807
1214.00,0.0756
1213.00,0.0708
1212.00,0.0669
1211.00,0.0640
1210.00,0.0621
1209.00,0.0612
1208.00,0.0613
1207.00,0.0626
1206.00,0.0651
1205.00,0.0686
1204.00,0.0733
1203.00,0.0791
1202.00,0.0857
1201.00,0.0928
1200.00,0.0993
1199.00,0.1040
1198.00,0.1057
1197.00,0.1036
1196.00,0.0977
1195.00,0.0892
1194.00,0.0795
1193.00,0.0701
1192.00,0.0619
1191.00,0.0556
1190.00,0.0512
1189.00,0.0488
1188.00,0.0484
1187.00,0.0498
1186.00,0.0526
1185.00,0.0556
1184.00,0.0575
1183.00,0.0577
1182.00,0.0561
1181.00,0.0539
1180.00,0.0522
1179.00,0.0516
1178.00,0.0523
1177.00,0.0545
1176.00,0.0580
1175.00,0.0628
1174.00,0.0685
1173.00,0.0743
1172.00,0.0791
1171.00,0.0821
1170.00,0.0832
1169.00,0.0831
1168.00,0.0830
1167.00,0.0836
1166.00,0.0851
1165.00,0.0871
1164.00,0.0894
1163.00,0.0922
1162.00,0.0966
1161.00,0.1035
1160.00,0.1139
1159.00,0.1281
1158.00,0.1453
1157.00,0.1631
1156.00,0.1783
1155.00,0.1879
1154.00,0.1907
1153.00,0.1893
1152.00,0.1878
1151.00,0.1901
1150.00,0.1981
1149.00,0.2113
1148.00,0.2270
1147.00,0.2412
1146.00,0.2495
1145.00,0.2492
1144.00,0.2400
1143.00,0.2241
1142.00,0.2054
1141.00,0.1879
1140.00,0.1747
1139.00,0.1672
1138.00,0.1637
1137.00,0.1613
1136.00,0.1569
1135.00,0.1492
1134.00,0.1391
1133.00,0.1282
1132.00,0.1177
1131.00,0.1082
1130.00,0.0999
1129.00,0.0925
1128.00,0.0860
1127.00,0.0803
1126.00,0.0753
1125.00,0.0711
1124.00,0.0675
1123.00,0.0645
1122.00,0.0621
1121.00,0.0604
1120.00,0.0592
1119.00,0.0588
1118.00,0.0592
1117.00,0.0605
1116.00,0.0628
1115.00,0.0661
1114.00,0.0702
1113.00,0.0748
1112.00,0.0789
1111.00,0.0817
1110.00,0.0825
1109.00,0.0813
1108.00,0.0786
1107.00,0.0751
1106.00,0.0715
1105.00,0.0683
1104.00,0.0655
1103.00,0.0635
1102.00,0.0628
1101.00,0.0638
1100.00,0.0671
1099.00,0.0720
1098.00,0.0768
1097.00,0.0790
1096.00,0.0773
1095.00,0.0720
1094.00,0.0651
1093.00,0.0584
1092.00,0.0529
1091.00,0.0489
1090.00,0.0461
1089.00,0.0443
1088.00,0.0435
1087.00,0.0437
1086.00,0.0450
1085.00,0.0476
1084.00,0.0517
1083.00,0.0573
1082.00,0.0640
1081.00,0.0709
1080.00,0.0765
1079.00,0.0791
1078.00,0.0782
1077.00,0.0741
1076.00,0.0682
1075.00,0.0619
1074.00,0.0563
1073.00,0.0517
1072.00,0.0480
1071.00,0.0451
1070.00,0.0429
1069.00,0.0413
1068.00,0.0401
1067.00,0.0395
1066.00,0.0395
1065.00,0.0402
1064.00,0.0414
1063.00,0.0429
1062.00,0.0445
1061.00,0.0457
1060.00,0.0465
1059.00,0.0469
1058.00,0.0475
1057.00,0.0487
1056.00,0.0509
1055.00,0.0543
1054.00,0.0591
1053.00,0.0652
1052.00,0.0733
1051.00,0.0841
1050.00,0.0988
1049.00,0.1179
1048.00,0.1409
1047.00,0.1652
1046.00,0.1866
1045.00,0.2000
1044.00,0.2027
1043.00,0.1951
1042.00,0.1810
1041.00,0.1648
1040.00,0.1495
1039.00,0.1367
1038.00,0.1266
1037.00,0.1185
1036.00,0.1118
1035.00,0.1059
1034.00,0.1004
1033.00,0.0952
1032.00,0.0900
1031.00,0.0850
1030.00,0.0805
1029.00,0.0765
1028.00,0.0733
1027.00,0.0711
1026.00,0.0701
1025.00,0.0703
1024.00,0.0719
1023.00,0.0750
1022.00,0.0798
1021.00,0.0866
1020.00,0.0956
1019.00,0.1072
1018.00,0.1218
1017.00,0.1392
1016.00,0.1583
1015.00,0.1761
1014.00,0.1885
1013.00,0.1918
1012.00,0.1850
1011.00,0.1700
1010.00,0.1511
1009.00,0.1321
1008.00,0.1156
1007.00,0.1025
1006.00,0.0933
1005.00,0.0880
1004.00,0.0866
1003.00,0.0883
1002.00,0.0913
1001.00,0.0931
1000.00,0.0917
999.00,0.0870
998.00,0.0803
997.00,0.0733
996.00,0.0670
995.00,0.0619
994.00,0.0581
993.00,0.0555
992.00,0.0541
991.00,0.0537
990.00,0.0543
989.00,0.0556
988.00,0.0576
987.00,0.0601
986.00,0.0630
985.00,0.0660
984.00,0.0689
983.00,0.0713
982.00,0.0730
981.00,0.0737
980.00,0.0732
979.00,0.0714
978.00,0.0689
977.00,0.0660
976.00,0.0634
975.00,0.0615
974.00,0.0605
973.00,0.0607
972.00,0.0622
971.00,0.0652
970.00,0.0691
969.00,0.0729
968.00,0.0749
967.00,0.0741
966.00,0.0706
965.00,0.0654
964.00,0.0599
963.00,0.0550
962.00,0.0509
961.00,0.0475
960.00,0.0444
959.00,0.0416
958.00,0.0389
957.00,0.0365
956.00,0.0344
955.00,0.0327
954.00,0.0313
953.00,0.0302
952.00,0.0294
951.00,0.0287
950.00,0.0281
949.00,0.0275
948.00,0.0270
947.00,0.0265
946.00,0.0260
945.00,0.0255
944.00,0.0251
943.00,0.0247
942.00,0.0244
941.00,0.0241
940.00,0.0238
939.00,0.0236
938.00,0.0235
937.00,0.0235
936.00,0.0235
935.00,0.0235
934.00,0.0237
933.00,0.0240
932.00,0.0245
931.00,0.0250
930.00,0.0257
929.00,0.0265
928.00,0.0275
927.00,0.0289
926.00,0.0308
925.00,0.0335
924.00,0.0375
923.00,0.0433
922.00,0.0513
921.00,0.0610
920.00,0.0709
919.00,0.0782
918.00,0.0808
917.00,0.0780
916.00,0.0717
915.00,0.0644
914.00,0.0582
913.00,0.0540
912.00,0.0519
911.00,0.0513
910.00,0.0515
909.00,0.0521
908.00,0.0527
907.00,0.0538
906.00,0.0562
905.00,0.0601
904.00,0.0651
903.00,0.0700
902.00,0.0730
901.00,0.0732
900.00,0.0707
899.00,0.0670
898.00,0.0631
897.00,0.0597
896.00,0.0564
895.00,0.0532
894.00,0.0499
893.00,0.0468
892.00,0.0441
891.00,0.0421
890.00,0.0409
889.00,0.0407
888.00,0.0415
887.00,0.0435
886.00,0.0468
885.00,0.0509
884.00,0.0551
883.00,0.0583
882.00,0.0596
881.00,0.0586
880.00,0.0557
879.00,0.0516
878.00,0.0473
877.00,0.0435
876.00,0.0403
875.00,0.0381
874.00,0.0367
873.00,0.0362
872.00,0.0364
871.00,0.0370
870.00,0.0379
869.00,0.0390
868.00,0.0402
867.00,0.0423
866.00,0.0460
865.00,0.0526
864.00,0.0641
863.00,0.0823
862.00,0.1067
861.00,0.1322
860.00,0.1494
859.00,0.1503
858.00,0.1359
857.00,0.1147
856.00,0.0955
855.00,0.0826
854.00,0.0764
853.00,0.0756
852.00,0.0784
851.00,0.0823
850.00,0.0847
849.00,0.0846
848.00,0.0826
847.00,0.0805
846.00,0.0797
845.00,0.0813
844.00,0.0861
843.00,0.0945
842.00,0.1069
841.00,0.1220
840.00,0.1373
839.00,0.1487
838.00,0.1529
837.00,0.1493
836.00,0.1394
835.00,0.1261
834.00,0.1120
833.00,0.0988
832.00,0.0877
831.00,0.0789
830.00,0.0724
829.00,0.0677
828.00,0.0643
827.00,0.0617
826.00,0.0595
825.00,0.0574
824.00,0.0554
823.00,0.0535
822.00,0.0517
821.00,0.0500
820.00,0.0484
819.00,0.0470
818.00,0.0458
817.00,0.0449
816.00,0.0442
815.00,0.0437
814.00,0.0433
813.00,0.0431
812.00,0.0430
811.00,0.0432
810.00,0.0437
809.00,0.0449
808.00,0.0468
807.00,0.0497
806.00,0.0535
805.00,0.0579
804.00,0.0628
803.00,0.0676
802.00,0.0717
801.00,0.0741
800.00,0.0741
799.00,0.0716
798.00,0.0678
797.00,0.0639
796.00,0.0608
795.00,0.0588
794.00,0.0572
793.00,0.0558
792.00,0.0543
791.00,0.0530
790.00,0.0520
789.00,0.0516
788.00,0.0518
787.00,0.0526
786.00,0.0540
785.00,0.0560
784.00,0.0584
783.00,0.0610
782.00,0.0633
781.00,0.0648
780.00,0.0649
779.00,0.0637
778.00,0.0616
777.00,0.0594
776.00,0.0574
775.00,0.0559
774.00,0.0551
773.00,0.0551
772.00,0.0557
771.00,0.0572
770.00,0.0592
769.00,0.0614
768.00,0.0629
767.00,0.0630
766.00,0.0614
765.00,0.0588
764.00,0.0559
763.00,0.0533
762.00,0.0515
761.00,0.0502
760.00,0.0493
759.00,0.0488
758.00,0.0486
757.00,0.0487
756.00,0.0489
755.00,0.0495
754.00,0.0503
753.00,0.0514
752.00,0.0528
751.00,0.0543
750.00,0.0562
749.00,0.0581
748.00,0.0597
747.00,0.0606
746.00,0.0606
745.00,0.0598
744.00,0.0586
743.00,0.0574
742.00,0.0565
741.00,0.0561
740.00,0.0561
739.00,0.0567
738.00,0.0578
737.00,0.0595
736.00,0.0623
735.00,0.0667
734.00,0.0734
733.00,0.0822
732.00,0.0910
731.00,0.0967
730.00,0.0972
729.00,0.0935
728.00,0.0884
727.00,0.0838
726.00,0.0794
725.00,0.0740
724.00,0.0669
723.00,0.0592
722.00,0.0522
721.00,0.0467
720.00,0.0431
719.00,0.0409
718.00,0.0395
717.00,0.0386
716.00,0.0379
715.00,0.0374
714.00,0.0371
713.00,0.0369
712.00,0.0368
711.00,0.0367
710.00,0.0367
709.00,0.0365
708.00,0.0363
707.00,0.0362
706.00,0.0360
705.00,0.0359
704.00,0.0359
703.00,0.0358
702.00,0.0358
701.00,0.0358
700.00,0.0357
699.00,0.0358
698.00,0.0358
697.00,0.0358
696.00,0.0358
695.00,0.0358
694.00,0.0359
693.00,0.0360
692.00,0.0361
691.00,0.0362
690.00,0.0364
689.00,0.0367
688.00,0.0369
687.00,0.0372
686.00,0.0374
685.00,0.0377
684.00,0.0380
683.00,0.0383
682.00,0.0386
681.00,0.0389
680.00,0.0392
679.00,0.0396
678.00,0.0400
677.00,0.0404
676.00,0.0409
675.00,0.0413
674.00,0.0418
673.00,0.0422
672.00,0.0427
671.00,0.0432
670.00,0.0439
669.00,0.0446
668.00,0.0452
667.00,0.0453
666.00,0.0449
665.00,0.0445
664.00,0.0445
663.00,0.0449
662.00,0.0463
661.00,0.0492
660.00,0.0546
659.00,0.0632
658.00,0.0738
657.00,0.0839
656.00,0.0901
655.00,0.0908
654.00,0.0870
653.00,0.0817
652.00,0.0773
651.00,0.0747
650.00,0.0735
649.00,0.0731
648.00,0.0732
647.00,0.0733
646.00,0.0735
645.00,0.0737
644.00,0.0740
643.00,0.0743
642.00,0.0747
641.00,0.0750
640.00,0.0756
639.00,0.0762
638.00,0.0768
637.00,0.0774
636.00,0.0781
635.00,0.0787
634.00,0.0792
633.00,0.0797
632.00,0.0802
631.00,0.0807
630.00,0.0813
629.00,0.0817
628.00,0.0822
627.00,0.0825
626.00,0.0827
625.00,0.0827
624.00,0.0825
623.00,0.0821
622.00,0.0815
621.00,0.0804
620.00,0.0790
619.00,0.0772
618.00,0.0751
617.00,0.0730
616.00,0.0710
615.00,0.0694
614.00,0.0685
613.00,0.0685
612.00,0.0692
611.00,0.0704
610.00,0.0718
609.00,0.0730
608.00,0.0743
607.00,0.0758
606.00,0.0774
605.00,0.0792
604.00,0.0811
603.00,0.0832
602.00,0.0855
601.00,0.0881
600.00,0.0914
599.00,0.0953
598.00,0.0997
597.00,0.1046
596.00,0.1097
595.00,0.1144
594.00,0.1177
593.00,0.1192
592.00,0.1192
591.00,0.1181
590.00,0.1161
589.00,0.1129
588.00,0.1084
587.00,0.1028
586.00,0.0970
585.00,0.0921
584.00,0.0887
583.00,0.0870
582.00,0.0870
581.00,0.0888
580.00,0.0923
579.00,0.0971
578.00,0.1021
577.00,0.1061
576.00,0.1083
575.00,0.1085
574.00,0.1073
573.00,0.1056
572.00,0.1040
571.00,0.1025
570.00,0.1010
569.00,0.0992
568.00,0.0974
567.00,0.0955
566.00,0.0934
565.00,0.0913
564.00,0.0892
563.00,0.0871
562.00,0.0851
561.00,0.0830
560.00,0.0809
559.00,0.0788
558.00,0.0769
557.00,0.0752
556.00,0.0736
555.00,0.0722
554.00,0.0710
553.00,0.0701
552.00,0.0694
551.00,0.0689
550.00,0.0686
549.00,0.0684
548.00,0.0683
547.00,0.0687
546.00,0.0694
545.00,0.0706
544.00,0.0722
543.00,0.0744
542.00,0.0777
541.00,0.0825
540.00,0.0892
539.00,0.0976
538.00,0.1068
537.00,0.1153
536.00,0.1216
535.00,0.1242
534.00,0.1230
533.00,0.1189
532.00,0.1134
531.00,0.1072
530.00,0.1014
529.00,0.0967
528.00,0.0935
527.00,0.0921
526.00,0.0922
525.00,0.0934
524.00,0.0946
523.00,0.0952
522.00,0.0945
521.00,0.0921
520.00,0.0882
519.00,0.0832
518.00,0.0782
517.00,0.0737
516.00,0.0702
515.00,0.0674
514.00,0.0652
513.00,0.0635
512.00,0.0622
511.00,0.0614
510.00,0.0609
509.00,0.0608
508.00,0.0608
507.00,0.0610
506.00,0.0613
505.00,0.0618
504.00,0.0625
503.00,0.0635
502.00,0.0645
501.00,0.0655
500.00,0.0664
499.00,0.0673
498.00,0.0682
497.00,0.0692
496.00,0.0702
495.00,0.0713
494.00,0.0726
493.00,0.0743
492.00,0.0767
491.00,0.0799
490.00,0.0836
489.00,0.0870
488.00,0.0894
487.00,0.0901
486.00,0.0889
485.00,0.0863
484.00,0.0829
483.00,0.0796
482.00,0.0766
481.00,0.0740
480.00,0.0716
479.00,0.0694
478.00,0.0677
477.00,0.0664
476.00,0.0656
475.00,0.0651
474.00,0.0649
473.00,0.0648
472.00,0.0650
471.00,0.0656
470.00,0.0665
469.00,0.0674
468.00,0.0682
467.00,0.0688
466.00,0.0691
465.00,0.0694
464.00,0.0700
463.00,0.0707
462.00,0.0714
461.00,0.0720
460.00,0.0731
459.00,0.0751
458.00,0.0785
457.00,0.0832
456.00,0.0881
455.00,0.0925
454.00,0.0957
453.00,0.0971
452.00,0.0964
451.00,0.0941
450.00,0.0911
449.00,0.0882
448.00,0.0860
447.00,0.0847
446.00,0.0841
445.00,0.0842
444.00,0.0851
443.00,0.0872
442.00,0.0903
441.00,0.0941
440.00,0.0979
439.00,0.1014
438.00,0.1048
437.00,0.1082
436.00,0.1117
435.00,0.1146
434.00,0.1164
433.00,0.1169
432.00,0.1165
431.00,0.1154
430.00,0.1139
429.00,0.1123
428.00,0.1112
427.00,0.1103
426.00,0.1095
425.00,0.1088
424.00,0.1081
423.00,0.1072
422.00,0.1060
421.00,0.1048
420.00,0.1032
419.00,0.1011
418.00,0.0987
417.00,0.0972
416.00,0.0965
415.00,0.0962
414.00,0.0958
413.00,0.0952
412.00,0.0948
411.00,0.0948
410.00,0.0951
409.00,0.0960
408.00,0.0974
407.00,0.0991
406.00,0.1003
405.00,0.1011
404.00,0.1015
403.00,0.1019
402.00,0.1024
401.00,0.1030
400.00,0.1039
