Created as New Dataset,Sample 838 By YargerLab Date Wednesday, July 16 2025
cm-1,A
4000.00,0.0159
3999.00,0.0159
3998.00,0.0159
3997.00,0.0159
3996.00,0.0159
3995.00,0.0159
3994.00,0.0159
3993.00,0.0159
3992.00,0.0158
3991.00,0.0158
3990.00,0.0158
3989.00,0.0158
3988.00,0.0158
3987.00,0.0158
3986.00,0.0158
3985.00,0.0158
3984.00,0.0158
3983.00,0.0158
3982.00,0.0158
3981.00,0.0158
3980.00,0.0158
3979.00,0.0158
3978.00,0.0158
3977.00,0.0158
3976.00,0.0158
3975.00,0.0157
3974.00,0.0157
3973.00,0.0157
3972.00,0.0157
3971.00,0.0157
3970.00,0.0158
3969.00,0.0158
3968.00,0.0158
3967.00,0.0158
3966.00,0.0158
3965.00,0.0158
3964.00,0.0157
3963.00,0.0157
3962.00,0.0157
3961.00,0.0157
3960.00,0.0157
3959.00,0.0157
3958.00,0.0157
3957.00,0.0157
3956.00,0.0157
3955.00,0.0157
3954.00,0.0157
3953.00,0.0157
3952.00,0.0157
3951.00,0.0157
3950.00,0.0157
3949.00,0.0156
3948.00,0.0156
3947.00,0.0157
3946.00,0.0157
3945.00,0.0156
3944.00,0.0156
3943.00,0.0156
3942.00,0.0156
3941.00,0.0156
3940.00,0.0156
3939.00,0.0156
3938.00,0.0156
3937.00,0.0156
3936.00,0.0156
3935.00,0.0156
3934.00,0.0156
3933.00,0.0155
3932.00,0.0155
3931.00,0.0155
3930.00,0.0155
3929.00,0.0155
3928.00,0.0155
3927.00,0.0155
3926.00,0.0155
3925.00,0.0155
3924.00,0.0155
3923.00,0.0155
3922.00,0.0155
3921.00,0.0155
3920.00,0.0155
3919.00,0.0155
3918.00,0.0155
3917.00,0.0154
3916.00,0.0154
3915.00,0.0154
3914.00,0.0154
3913.00,0.0154
3912.00,0.0154
3911.00,0.0154
3910.00,0.0154
3909.00,0.0155
3908.00,0.0155
3907.00,0.0155
3906.00,0.0154
3905.00,0.0154
3904.00,0.0154
3903.00,0.0153
3902.00,0.0154
3901.00,0.0154
3900.00,0.0154
3899.00,0.0154
3898.00,0.0154
3897.00,0.0154
3896.00,0.0154
3895.00,0.0154
3894.00,0.0154
3893.00,0.0153
3892.00,0.0153
3891.00,0.0153
3890.00,0.0153
3889.00,0.0154
3888.00,0.0154
3887.00,0.0154
3886.00,0.0154
3885.00,0.0153
3884.00,0.0153
3883.00,0.0153
3882.00,0.0153
3881.00,0.0152
3880.00,0.0152
3879.00,0.0152
3878.00,0.0152
3877.00,0.0153
3876.00,0.0153
3875.00,0.0153
3874.00,0.0153
3873.00,0.0153
3872.00,0.0153
3871.00,0.0153
3870.00,0.0153
3869.00,0.0153
3868.00,0.0153
3867.00,0.0153
3866.00,0.0153
3865.00,0.0152
3864.00,0.0152
3863.00,0.0151
3862.00,0.0151
3861.00,0.0152
3860.00,0.0152
3859.00,0.0152
3858.00,0.0152
3857.00,0.0152
3856.00,0.0152
3855.00,0.0152
3854.00,0.0152
3853.00,0.0152
3852.00,0.0152
3851.00,0.0151
3850.00,0.0151
3849.00,0.0151
3848.00,0.0150
3847.00,0.0150
3846.00,0.0150
3845.00,0.0150
3844.00,0.0150
3843.00,0.0150
3842.00,0.0151
3841.00,0.0151
3840.00,0.0151
3839.00,0.0151
3838.00,0.0151
3837.00,0.0151
3836.00,0.0151
3835.00,0.0151
3834.00,0.0150
3833.00,0.0150
3832.00,0.0150
3831.00,0.0150
3830.00,0.0150
3829.00,0.0150
3828.00,0.0149
3827.00,0.0149
3826.00,0.0149
3825.00,0.0149
3824.00,0.0149
3823.00,0.0149
3822.00,0.0149
3821.00,0.0149
3820.00,0.0149
3819.00,0.0149
3818.00,0.0150
3817.00,0.0150
3816.00,0.0149
3815.00,0.0149
3814.00,0.0149
3813.00,0.0149
3812.00,0.0148
3811.00,0.0148
3810.00,0.0148
3809.00,0.0148
3808.00,0.0149
3807.00,0.0149
3806.00,0.0149
3805.00,0.0150
3804.00,0.0150
3803.00,0.0149
3802.00,0.0148
3801.00,0.0148
3800.00,0.0148
3799.00,0.0148
3798.00,0.0148
3797.00,0.0147
3796.00,0.0147
3795.00,0.0146
3794.00,0.0146
3793.00,0.0146
3792.00,0.0146
3791.00,0.0146
3790.00,0.0146
3789.00,0.0146
3788.00,0.0146
3787.00,0.0146
3786.00,0.0146
3785.00,0.0146
3784.00,0.0146
3783.00,0.0146
3782.00,0.0146
3781.00,0.0146
3780.00,0.0146
3779.00,0.0146
3778.00,0.0146
3777.00,0.0146
3776.00,0.0146
3775.00,0.0146
3774.00,0.0146
3773.00,0.0146
3772.00,0.0146
3771.00,0.0146
3770.00,0.0146
3769.00,0.0146
3768.00,0.0146
3767.00,0.0146
3766.00,0.0145
3765.00,0.0145
3764.00,0.0144
3763.00,0.0145
3762.00,0.0145
3761.00,0.0145
3760.00,0.0144
3759.00,0.0144
3758.00,0.0144
3757.00,0.0144
3756.00,0.0144
3755.00,0.0145
3754.00,0.0145
3753.00,0.0145
3752.00,0.0146
3751.00,0.0146
3750.00,0.0147
3749.00,0.0147
3748.00,0.0147
3747.00,0.0146
3746.00,0.0145
3745.00,0.0145
3744.00,0.0145
3743.00,0.0145
3742.00,0.0145
3741.00,0.0144
3740.00,0.0144
3739.00,0.0144
3738.00,0.0144
3737.00,0.0144
3736.00,0.0144
3735.00,0.0143
3734.00,0.0142
3733.00,0.0142
3732.00,0.0142
3731.00,0.0142
3730.00,0.0143
3729.00,0.0143
3728.00,0.0143
3727.00,0.0142
3726.00,0.0142
3725.00,0.0142
3724.00,0.0141
3723.00,0.0141
3722.00,0.0141
3721.00,0.0141
3720.00,0.0141
3719.00,0.0141
3718.00,0.0141
3717.00,0.0141
3716.00,0.0141
3715.00,0.0141
3714.00,0.0141
3713.00,0.0141
3712.00,0.0141
3711.00,0.0141
3710.00,0.0141
3709.00,0.0141
3708.00,0.0141
3707.00,0.0141
3706.00,0.0141
3705.00,0.0141
3704.00,0.0141
3703.00,0.0140
3702.00,0.0140
3701.00,0.0139
3700.00,0.0139
3699.00,0.0139
3698.00,0.0139
3697.00,0.0140
3696.00,0.0140
3695.00,0.0140
3694.00,0.0141
3693.00,0.0141
3692.00,0.0141
3691.00,0.0141
3690.00,0.0141
3689.00,0.0141
3688.00,0.0141
3687.00,0.0141
3686.00,0.0141
3685.00,0.0141
3684.00,0.0141
3683.00,0.0141
3682.00,0.0142
3681.00,0.0142
3680.00,0.0142
3679.00,0.0143
3678.00,0.0143
3677.00,0.0143
3676.00,0.0143
3675.00,0.0143
3674.00,0.0144
3673.00,0.0144
3672.00,0.0145
3671.00,0.0145
3670.00,0.0145
3669.00,0.0146
3668.00,0.0146
3667.00,0.0146
3666.00,0.0146
3665.00,0.0146
3664.00,0.0147
3663.00,0.0147
3662.00,0.0147
3661.00,0.0148
3660.00,0.0148
3659.00,0.0149
3658.00,0.0150
3657.00,0.0150
3656.00,0.0151
3655.00,0.0152
3654.00,0.0153
3653.00,0.0153
3652.00,0.0154
3651.00,0.0155
3650.00,0.0155
3649.00,0.0156
3648.00,0.0156
3647.00,0.0156
3646.00,0.0157
3645.00,0.0158
3644.00,0.0158
3643.00,0.0158
3642.00,0.0159
3641.00,0.0160
3640.00,0.0160
3639.00,0.0161
3638.00,0.0161
3637.00,0.0162
3636.00,0.0163
3635.00,0.0163
3634.00,0.0164
3633.00,0.0165
3632.00,0.0166
3631.00,0.0167
3630.00,0.0168
3629.00,0.0169
3628.00,0.0170
3627.00,0.0172
3626.00,0.0173
3625.00,0.0173
3624.00,0.0174
3623.00,0.0174
3622.00,0.0175
3621.00,0.0176
3620.00,0.0176
3619.00,0.0177
3618.00,0.0177
3617.00,0.0178
3616.00,0.0180
3615.00,0.0181
3614.00,0.0182
3613.00,0.0183
3612.00,0.0184
3611.00,0.0186
3610.00,0.0187
3609.00,0.0188
3608.00,0.0188
3607.00,0.0189
3606.00,0.0190
3605.00,0.0191
3604.00,0.0192
3603.00,0.0192
3602.00,0.0193
3601.00,0.0194
3600.00,0.0195
3599.00,0.0196
3598.00,0.0197
3597.00,0.0198
3596.00,0.0199
3595.00,0.0200
3594.00,0.0201
3593.00,0.0202
3592.00,0.0203
3591.00,0.0204
3590.00,0.0205
3589.00,0.0206
3588.00,0.0207
3587.00,0.0208
3586.00,0.0209
3585.00,0.0211
3584.00,0.0212
3583.00,0.0213
3582.00,0.0214
3581.00,0.0215
3580.00,0.0216
3579.00,0.0217
3578.00,0.0218
3577.00,0.0220
3576.00,0.0221
3575.00,0.0222
3574.00,0.0223
3573.00,0.0224
3572.00,0.0225
3571.00,0.0226
3570.00,0.0227
3569.00,0.0228
3568.00,0.0230
3567.00,0.0231
3566.00,0.0233
3565.00,0.0234
3564.00,0.0236
3563.00,0.0237
3562.00,0.0238
3561.00,0.0240
3560.00,0.0241
3559.00,0.0242
3558.00,0.0244
3557.00,0.0245
3556.00,0.0246
3555.00,0.0247
3554.00,0.0249
3553.00,0.0250
3552.00,0.0251
3551.00,0.0253
3550.00,0.0254
3549.00,0.0255
3548.00,0.0257
3547.00,0.0258
3546.00,0.0259
3545.00,0.0260
3544.00,0.0262
3543.00,0.0263
3542.00,0.0264
3541.00,0.0265
3540.00,0.0266
3539.00,0.0267
3538.00,0.0269
3537.00,0.0270
3536.00,0.0271
3535.00,0.0272
3534.00,0.0274
3533.00,0.0275
3532.00,0.0276
3531.00,0.0277
3530.00,0.0278
3529.00,0.0280
3528.00,0.0281
3527.00,0.0282
3526.00,0.0284
3525.00,0.0285
3524.00,0.0287
3523.00,0.0288
3522.00,0.0289
3521.00,0.0290
3520.00,0.0291
3519.00,0.0292
3518.00,0.0293
3517.00,0.0295
3516.00,0.0296
3515.00,0.0297
3514.00,0.0298
3513.00,0.0298
3512.00,0.0299
3511.00,0.0300
3510.00,0.0302
3509.00,0.0303
3508.00,0.0304
3507.00,0.0305
3506.00,0.0306
3505.00,0.0308
3504.00,0.0309
3503.00,0.0311
3502.00,0.0312
3501.00,0.0313
3500.00,0.0314
3499.00,0.0314
3498.00,0.0315
3497.00,0.0317
3496.00,0.0318
3495.00,0.0319
3494.00,0.0320
3493.00,0.0321
3492.00,0.0322
3491.00,0.0323
3490.00,0.0324
3489.00,0.0325
3488.00,0.0326
3487.00,0.0327
3486.00,0.0328
3485.00,0.0329
3484.00,0.0330
3483.00,0.0331
3482.00,0.0332
3481.00,0.0334
3480.00,0.0335
3479.00,0.0335
3478.00,0.0336
3477.00,0.0337
3476.00,0.0338
3475.00,0.0339
3474.00,0.0340
3473.00,0.0341
3472.00,0.0342
3471.00,0.0343
3470.00,0.0344
3469.00,0.0345
3468.00,0.0346
3467.00,0.0347
3466.00,0.0348
3465.00,0.0349
3464.00,0.0350
3463.00,0.0351
3462.00,0.0352
3461.00,0.0353
3460.00,0.0353
3459.00,0.0354
3458.00,0.0355
3457.00,0.0356
3456.00,0.0357
3455.00,0.0358
3454.00,0.0359
3453.00,0.0360
3452.00,0.0361
3451.00,0.0362
3450.00,0.0363
3449.00,0.0364
3448.00,0.0365
3447.00,0.0366
3446.00,0.0366
3445.00,0.0367
3444.00,0.0368
3443.00,0.0369
3442.00,0.0371
3441.00,0.0372
3440.00,0.0373
3439.00,0.0374
3438.00,0.0375
3437.00,0.0377
3436.00,0.0378
3435.00,0.0379
3434.00,0.0380
3433.00,0.0381
3432.00,0.0382
3431.00,0.0384
3430.00,0.0385
3429.00,0.0386
3428.00,0.0387
3427.00,0.0388
3426.00,0.0390
3425.00,0.0391
3424.00,0.0392
3423.00,0.0393
3422.00,0.0395
3421.00,0.0396
3420.00,0.0398
3419.00,0.0399
3418.00,0.0401
3417.00,0.0402
3416.00,0.0404
3415.00,0.0405
3414.00,0.0407
3413.00,0.0408
3412.00,0.0409
3411.00,0.0411
3410.00,0.0412
3409.00,0.0413
3408.00,0.0415
3407.00,0.0416
3406.00,0.0418
3405.00,0.0419
3404.00,0.0420
3403.00,0.0422
3402.00,0.0423
3401.00,0.0424
3400.00,0.0426
3399.00,0.0427
3398.00,0.0429
3397.00,0.0430
3396.00,0.0432
3395.00,0.0433
3394.00,0.0434
3393.00,0.0435
3392.00,0.0437
3391.00,0.0438
3390.00,0.0440
3389.00,0.0441
3388.00,0.0443
3387.00,0.0445
3386.00,0.0446
3385.00,0.0448
3384.00,0.0450
3383.00,0.0451
3382.00,0.0453
3381.00,0.0454
3380.00,0.0456
3379.00,0.0457
3378.00,0.0459
3377.00,0.0461
3376.00,0.0463
3375.00,0.0465
3374.00,0.0467
3373.00,0.0469
3372.00,0.0470
3371.00,0.0472
3370.00,0.0473
3369.00,0.0475
3368.00,0.0478
3367.00,0.0481
3366.00,0.0483
3365.00,0.0486
3364.00,0.0489
3363.00,0.0491
3362.00,0.0493
3361.00,0.0496
3360.00,0.0498
3359.00,0.0501
3358.00,0.0504
3357.00,0.0506
3356.00,0.0509
3355.00,0.0512
3354.00,0.0514
3353.00,0.0516
3352.00,0.0519
3351.00,0.0522
3350.00,0.0525
3349.00,0.0529
3348.00,0.0532
3347.00,0.0536
3346.00,0.0539
3345.00,0.0541
3344.00,0.0545
3343.00,0.0548
3342.00,0.0551
3341.00,0.0555
3340.00,0.0558
3339.00,0.0561
3338.00,0.0566
3337.00,0.0570
3336.00,0.0575
3335.00,0.0580
3334.00,0.0584
3333.00,0.0588
3332.00,0.0592
3331.00,0.0597
3330.00,0.0601
3329.00,0.0605
3328.00,0.0609
3327.00,0.0614
3326.00,0.0618
3325.00,0.0623
3324.00,0.0629
3323.00,0.0634
3322.00,0.0639
3321.00,0.0645
3320.00,0.0651
3319.00,0.0656
3318.00,0.0662
3317.00,0.0667
3316.00,0.0673
3315.00,0.0678
3314.00,0.0683
3313.00,0.0688
3312.00,0.0693
3311.00,0.0698
3310.00,0.0703
3309.00,0.0707
3308.00,0.0712
3307.00,0.0718
3306.00,0.0724
3305.00,0.0730
3304.00,0.0737
3303.00,0.0743
3302.00,0.0749
3301.00,0.0755
3300.00,0.0760
3299.00,0.0764
3298.00,0.0768
3297.00,0.0771
3296.00,0.0775
3295.00,0.0779
3294.00,0.0782
3293.00,0.0786
3292.00,0.0790
3291.00,0.0794
3290.00,0.0797
3289.00,0.0800
3288.00,0.0802
3287.00,0.0803
3286.00,0.0804
3285.00,0.0805
3284.00,0.0805
3283.00,0.0804
3282.00,0.0803
3281.00,0.0802
3280.00,0.0800
3279.00,0.0798
3278.00,0.0795
3277.00,0.0792
3276.00,0.0788
3275.00,0.0784
3274.00,0.0780
3273.00,0.0775
3272.00,0.0771
3271.00,0.0766
3270.00,0.0762
3269.00,0.0758
3268.00,0.0754
3267.00,0.0750
3266.00,0.0745
3265.00,0.0740
3264.00,0.0735
3263.00,0.0729
3262.00,0.0724
3261.00,0.0718
3260.00,0.0713
3259.00,0.0707
3258.00,0.0701
3257.00,0.0695
3256.00,0.0690
3255.00,0.0685
3254.00,0.0681
3253.00,0.0677
3252.00,0.0672
3251.00,0.0667
3250.00,0.0662
3249.00,0.0656
3248.00,0.0651
3247.00,0.0647
3246.00,0.0644
3245.00,0.0641
3244.00,0.0637
3243.00,0.0634
3242.00,0.0631
3241.00,0.0627
3240.00,0.0623
3239.00,0.0619
3238.00,0.0615
3237.00,0.0611
3236.00,0.0607
3235.00,0.0603
3234.00,0.0599
3233.00,0.0597
3232.00,0.0595
3231.00,0.0593
3230.00,0.0590
3229.00,0.0588
3228.00,0.0586
3227.00,0.0583
3226.00,0.0580
3225.00,0.0578
3224.00,0.0575
3223.00,0.0572
3222.00,0.0569
3221.00,0.0567
3220.00,0.0564
3219.00,0.0562
3218.00,0.0559
3217.00,0.0557
3216.00,0.0554
3215.00,0.0552
3214.00,0.0550
3213.00,0.0548
3212.00,0.0546
3211.00,0.0543
3210.00,0.0541
3209.00,0.0539
3208.00,0.0536
3207.00,0.0534
3206.00,0.0532
3205.00,0.0529
3204.00,0.0527
3203.00,0.0524
3202.00,0.0522
3201.00,0.0519
3200.00,0.0517
3199.00,0.0515
3198.00,0.0513
3197.00,0.0511
3196.00,0.0508
3195.00,0.0506
3194.00,0.0503
3193.00,0.0500
3192.00,0.0497
3191.00,0.0495
3190.00,0.0492
3189.00,0.0490
3188.00,0.0487
3187.00,0.0485
3186.00,0.0482
3185.00,0.0480
3184.00,0.0478
3183.00,0.0475
3182.00,0.0473
3181.00,0.0470
3180.00,0.0467
3179.00,0.0464
3178.00,0.0462
3177.00,0.0459
3176.00,0.0457
3175.00,0.0454
3174.00,0.0452
3173.00,0.0449
3172.00,0.0447
3171.00,0.0444
3170.00,0.0442
3169.00,0.0439
3168.00,0.0437
3167.00,0.0435
3166.00,0.0432
3165.00,0.0430
3164.00,0.0428
3163.00,0.0426
3162.00,0.0424
3161.00,0.0422
3160.00,0.0420
3159.00,0.0418
3158.00,0.0415
3157.00,0.0413
3156.00,0.0411
3155.00,0.0408
3154.00,0.0406
3153.00,0.0403
3152.00,0.0402
3151.00,0.0400
3150.00,0.0399
3149.00,0.0398
3148.00,0.0396
3147.00,0.0395
3146.00,0.0393
3145.00,0.0392
3144.00,0.0390
3143.00,0.0388
3142.00,0.0386
3141.00,0.0384
3140.00,0.0383
3139.00,0.0381
3138.00,0.0380
3137.00,0.0380
3136.00,0.0379
3135.00,0.0379
3134.00,0.0378
3133.00,0.0376
3132.00,0.0375
3131.00,0.0374
3130.00,0.0373
3129.00,0.0372
3128.00,0.0372
3127.00,0.0371
3126.00,0.0370
3125.00,0.0369
3124.00,0.0368
3123.00,0.0367
3122.00,0.0366
3121.00,0.0365
3120.00,0.0364
3119.00,0.0363
3118.00,0.0362
3117.00,0.0362
3116.00,0.0363
3115.00,0.0363
3114.00,0.0364
3113.00,0.0365
3112.00,0.0365
3111.00,0.0365
3110.00,0.0365
3109.00,0.0365
3108.00,0.0366
3107.00,0.0367
3106.00,0.0367
3105.00,0.0368
3104.00,0.0368
3103.00,0.0368
3102.00,0.0368
3101.00,0.0368
3100.00,0.0369
3099.00,0.0370
3098.00,0.0372
3097.00,0.0373
3096.00,0.0373
3095.00,0.0374
3094.00,0.0374
3093.00,0.0373
3092.00,0.0373
3091.00,0.0374
3090.00,0.0374
3089.00,0.0375
3088.00,0.0376
3087.00,0.0377
3086.00,0.0377
3085.00,0.0377
3084.00,0.0378
3083.00,0.0378
3082.00,0.0378
3081.00,0.0378
3080.00,0.0378
3079.00,0.0379
3078.00,0.0380
3077.00,0.0382
3076.00,0.0383
3075.00,0.0385
3074.00,0.0385
3073.00,0.0385
3072.00,0.0385
3071.00,0.0385
3070.00,0.0384
3069.00,0.0383
3068.00,0.0383
3067.00,0.0383
3066.00,0.0383
3065.00,0.0383
3064.00,0.0383
3063.00,0.0383
3062.00,0.0383
3061.00,0.0382
3060.00,0.0381
3059.00,0.0379
3058.00,0.0377
3057.00,0.0375
3056.00,0.0374
3055.00,0.0372
3054.00,0.0371
3053.00,0.0369
3052.00,0.0368
3051.00,0.0367
3050.00,0.0365
3049.00,0.0364
3048.00,0.0362
3047.00,0.0360
3046.00,0.0358
3045.00,0.0356
3044.00,0.0354
3043.00,0.0352
3042.00,0.0351
3041.00,0.0350
3040.00,0.0349
3039.00,0.0349
3038.00,0.0347
3037.00,0.0345
3036.00,0.0343
3035.00,0.0340
3034.00,0.0339
3033.00,0.0338
3032.00,0.0337
3031.00,0.0336
3030.00,0.0335
3029.00,0.0334
3028.00,0.0333
3027.00,0.0331
3026.00,0.0329
3025.00,0.0327
3024.00,0.0326
3023.00,0.0325
3022.00,0.0324
3021.00,0.0322
3020.00,0.0320
3019.00,0.0318
3018.00,0.0317
3017.00,0.0315
3016.00,0.0313
3015.00,0.0312
3014.00,0.0311
3013.00,0.0310
3012.00,0.0310
3011.00,0.0310
3010.00,0.0310
3009.00,0.0310
3008.00,0.0310
3007.00,0.0309
3006.00,0.0309
3005.00,0.0308
3004.00,0.0308
3003.00,0.0308
3002.00,0.0308
3001.00,0.0308
3000.00,0.0308
2999.00,0.0308
2998.00,0.0309
2997.00,0.0309
2996.00,0.0310
2995.00,0.0311
2994.00,0.0311
2993.00,0.0312
2992.00,0.0314
2991.00,0.0316
2990.00,0.0318
2989.00,0.0320
2988.00,0.0322
2987.00,0.0324
2986.00,0.0326
2985.00,0.0328
2984.00,0.0329
2983.00,0.0331
2982.00,0.0332
2981.00,0.0334
2980.00,0.0336
2979.00,0.0338
2978.00,0.0341
2977.00,0.0343
2976.00,0.0345
2975.00,0.0348
2974.00,0.0350
2973.00,0.0352
2972.00,0.0355
2971.00,0.0358
2970.00,0.0360
2969.00,0.0362
2968.00,0.0365
2967.00,0.0367
2966.00,0.0369
2965.00,0.0371
2964.00,0.0372
2963.00,0.0373
2962.00,0.0374
2961.00,0.0375
2960.00,0.0375
2959.00,0.0375
2958.00,0.0375
2957.00,0.0375
2956.00,0.0374
2955.00,0.0372
2954.00,0.0371
2953.00,0.0369
2952.00,0.0367
2951.00,0.0366
2950.00,0.0365
2949.00,0.0365
2948.00,0.0365
2947.00,0.0366
2946.00,0.0368
2945.00,0.0371
2944.00,0.0374
2943.00,0.0378
2942.00,0.0382
2941.00,0.0387
2940.00,0.0391
2939.00,0.0396
2938.00,0.0401
2937.00,0.0406
2936.00,0.0411
2935.00,0.0415
2934.00,0.0420
2933.00,0.0424
2932.00,0.0429
2931.00,0.0433
2930.00,0.0437
2929.00,0.0441
2928.00,0.0446
2927.00,0.0450
2926.00,0.0455
2925.00,0.0459
2924.00,0.0463
2923.00,0.0467
2922.00,0.0470
2921.00,0.0473
2920.00,0.0476
2919.00,0.0477
2918.00,0.0476
2917.00,0.0472
2916.00,0.0465
2915.00,0.0455
2914.00,0.0444
2913.00,0.0431
2912.00,0.0419
2911.00,0.0408
2910.00,0.0398
2909.00,0.0389
2908.00,0.0382
2907.00,0.0376
2906.00,0.0370
2905.00,0.0366
2904.00,0.0362
2903.00,0.0358
2902.00,0.0355
2901.00,0.0352
2900.00,0.0349
2899.00,0.0346
2898.00,0.0343
2897.00,0.0340
2896.00,0.0338
2895.00,0.0335
2894.00,0.0333
2893.00,0.0331
2892.00,0.0329
2891.00,0.0328
2890.00,0.0326
2889.00,0.0324
2888.00,0.0323
2887.00,0.0321
2886.00,0.0320
2885.00,0.0320
2884.00,0.0319
2883.00,0.0319
2882.00,0.0319
2881.00,0.0319
2880.00,0.0319
2879.00,0.0320
2878.00,0.0320
2877.00,0.0321
2876.00,0.0321
2875.00,0.0321
2874.00,0.0321
2873.00,0.0320
2872.00,0.0319
2871.00,0.0318
2870.00,0.0316
2869.00,0.0315
2868.00,0.0313
2867.00,0.0311
2866.00,0.0310
2865.00,0.0309
2864.00,0.0309
2863.00,0.0310
2862.00,0.0311
2861.00,0.0313
2860.00,0.0316
2859.00,0.0319
2858.00,0.0323
2857.00,0.0328
2856.00,0.0334
2855.00,0.0340
2854.00,0.0346
2853.00,0.0353
2852.00,0.0358
2851.00,0.0361
2850.00,0.0361
2849.00,0.0357
2848.00,0.0349
2847.00,0.0339
2846.00,0.0327
2845.00,0.0315
2844.00,0.0305
2843.00,0.0296
2842.00,0.0289
2841.00,0.0283
2840.00,0.0278
2839.00,0.0274
2838.00,0.0271
2837.00,0.0268
2836.00,0.0266
2835.00,0.0264
2834.00,0.0262
2833.00,0.0260
2832.00,0.0259
2831.00,0.0258
2830.00,0.0257
2829.00,0.0256
2828.00,0.0255
2827.00,0.0254
2826.00,0.0253
2825.00,0.0252
2824.00,0.0252
2823.00,0.0251
2822.00,0.0250
2821.00,0.0250
2820.00,0.0249
2819.00,0.0248
2818.00,0.0248
2817.00,0.0247
2816.00,0.0247
2815.00,0.0246
2814.00,0.0245
2813.00,0.0244
2812.00,0.0244
2811.00,0.0243
2810.00,0.0242
2809.00,0.0242
2808.00,0.0241
2807.00,0.0241
2806.00,0.0240
2805.00,0.0240
2804.00,0.0239
2803.00,0.0238
2802.00,0.0237
2801.00,0.0236
2800.00,0.0236
2799.00,0.0235
2798.00,0.0235
2797.00,0.0234
2796.00,0.0234
2795.00,0.0234
2794.00,0.0233
2793.00,0.0233
2792.00,0.0232
2791.00,0.0232
2790.00,0.0231
2789.00,0.0231
2788.00,0.0230
2787.00,0.0230
2786.00,0.0229
2785.00,0.0229
2784.00,0.0228
2783.00,0.0228
2782.00,0.0227
2781.00,0.0227
2780.00,0.0226
2779.00,0.0226
2778.00,0.0225
2777.00,0.0225
2776.00,0.0224
2775.00,0.0223
2774.00,0.0223
2773.00,0.0223
2772.00,0.0222
2771.00,0.0222
2770.00,0.0221
2769.00,0.0221
2768.00,0.0220
2767.00,0.0220
2766.00,0.0220
2765.00,0.0219
2764.00,0.0219
2763.00,0.0218
2762.00,0.0218
2761.00,0.0217
2760.00,0.0217
2759.00,0.0216
2758.00,0.0216
2757.00,0.0216
2756.00,0.0215
2755.00,0.0215
2754.00,0.0214
2753.00,0.0214
2752.00,0.0213
2751.00,0.0212
2750.00,0.0212
2749.00,0.0212
2748.00,0.0211
2747.00,0.0211
2746.00,0.0211
2745.00,0.0211
2744.00,0.0211
2743.00,0.0210
2742.00,0.0210
2741.00,0.0209
2740.00,0.0209
2739.00,0.0208
2738.00,0.0207
2737.00,0.0207
2736.00,0.0207
2735.00,0.0207
2734.00,0.0206
2733.00,0.0206
2732.00,0.0206
2731.00,0.0205
2730.00,0.0205
2729.00,0.0204
2728.00,0.0203
2727.00,0.0203
2726.00,0.0202
2725.00,0.0202
2724.00,0.0202
2723.00,0.0201
2722.00,0.0201
2721.00,0.0201
2720.00,0.0200
2719.00,0.0200
2718.00,0.0199
2717.00,0.0199
2716.00,0.0198
2715.00,0.0198
2714.00,0.0197
2713.00,0.0197
2712.00,0.0197
2711.00,0.0196
2710.00,0.0196
2709.00,0.0196
2708.00,0.0196
2707.00,0.0195
2706.00,0.0195
2705.00,0.0195
2704.00,0.0194
2703.00,0.0194
2702.00,0.0194
2701.00,0.0194
2700.00,0.0193
2699.00,0.0193
2698.00,0.0193
2697.00,0.0193
2696.00,0.0192
2695.00,0.0192
2694.00,0.0192
2693.00,0.0192
2692.00,0.0192
2691.00,0.0192
2690.00,0.0191
2689.00,0.0191
2688.00,0.0191
2687.00,0.0191
2686.00,0.0190
2685.00,0.0190
2684.00,0.0190
2683.00,0.0190
2682.00,0.0190
2681.00,0.0190
2680.00,0.0189
2679.00,0.0189
2678.00,0.0188
2677.00,0.0188
2676.00,0.0188
2675.00,0.0188
2674.00,0.0188
2673.00,0.0188
2672.00,0.0187
2671.00,0.0187
2670.00,0.0187
2669.00,0.0187
2668.00,0.0187
2667.00,0.0187
2666.00,0.0187
2665.00,0.0187
2664.00,0.0188
2663.00,0.0188
2662.00,0.0188
2661.00,0.0188
2660.00,0.0188
2659.00,0.0188
2658.00,0.0188
2657.00,0.0188
2656.00,0.0188
2655.00,0.0188
2654.00,0.0187
2653.00,0.0187
2652.00,0.0187
2651.00,0.0187
2650.00,0.0187
2649.00,0.0187
2648.00,0.0187
2647.00,0.0186
2646.00,0.0186
2645.00,0.0186
2644.00,0.0185
2643.00,0.0185
2642.00,0.0185
2641.00,0.0185
2640.00,0.0184
2639.00,0.0184
2638.00,0.0184
2637.00,0.0184
2636.00,0.0183
2635.00,0.0183
2634.00,0.0183
2633.00,0.0183
2632.00,0.0183
2631.00,0.0182
2630.00,0.0182
2629.00,0.0181
2628.00,0.0181
2627.00,0.0181
2626.00,0.0181
2625.00,0.0180
2624.00,0.0180
2623.00,0.0180
2622.00,0.0180
2621.00,0.0180
2620.00,0.0180
2619.00,0.0180
2618.00,0.0179
2617.00,0.0179
2616.00,0.0179
2615.00,0.0178
2614.00,0.0178
2613.00,0.0178
2612.00,0.0178
2611.00,0.0178
2610.00,0.0178
2609.00,0.0177
2608.00,0.0177
2607.00,0.0176
2606.00,0.0176
2605.00,0.0175
2604.00,0.0175
2603.00,0.0175
2602.00,0.0174
2601.00,0.0174
2600.00,0.0173
2599.00,0.0173
2598.00,0.0173
2597.00,0.0173
2596.00,0.0173
2595.00,0.0173
2594.00,0.0172
2593.00,0.0172
2592.00,0.0172
2591.00,0.0171
2590.00,0.0171
2589.00,0.0171
2588.00,0.0170
2587.00,0.0170
2586.00,0.0169
2585.00,0.0169
2584.00,0.0169
2583.00,0.0169
2582.00,0.0168
2581.00,0.0168
2580.00,0.0168
2579.00,0.0168
2578.00,0.0168
2577.00,0.0168
2576.00,0.0168
2575.00,0.0168
2574.00,0.0167
2573.00,0.0167
2572.00,0.0166
2571.00,0.0166
2570.00,0.0166
2569.00,0.0165
2568.00,0.0165
2567.00,0.0165
2566.00,0.0164
2565.00,0.0164
2564.00,0.0164
2563.00,0.0163
2562.00,0.0163
2561.00,0.0163
2560.00,0.0163
2559.00,0.0163
2558.00,0.0163
2557.00,0.0162
2556.00,0.0162
2555.00,0.0162
2554.00,0.0162
2553.00,0.0162
2552.00,0.0161
2551.00,0.0161
2550.00,0.0161
2549.00,0.0161
2548.00,0.0160
2547.00,0.0160
2546.00,0.0160
2545.00,0.0160
2544.00,0.0160
2543.00,0.0160
2542.00,0.0160
2541.00,0.0159
2540.00,0.0159
2539.00,0.0159
2538.00,0.0159
2537.00,0.0159
2536.00,0.0159
2535.00,0.0158
2534.00,0.0158
2533.00,0.0158
2532.00,0.0157
2531.00,0.0157
2530.00,0.0157
2529.00,0.0158
2528.00,0.0158
2527.00,0.0158
2526.00,0.0158
2525.00,0.0157
2524.00,0.0157
2523.00,0.0157
2522.00,0.0156
2521.00,0.0156
2520.00,0.0156
2519.00,0.0156
2518.00,0.0156
2517.00,0.0156
2516.00,0.0156
2515.00,0.0156
2514.00,0.0156
2513.00,0.0156
2512.00,0.0156
2511.00,0.0155
2510.00,0.0155
2509.00,0.0155
2508.00,0.0154
2507.00,0.0154
2506.00,0.0153
2505.00,0.0153
2504.00,0.0153
2503.00,0.0153
2502.00,0.0153
2501.00,0.0153
2500.00,0.0153
2499.00,0.0153
2498.00,0.0152
2497.00,0.0152
2496.00,0.0153
2495.00,0.0153
2494.00,0.0152
2493.00,0.0152
2492.00,0.0152
2491.00,0.0152
2490.00,0.0151
2489.00,0.0151
2488.00,0.0151
2487.00,0.0151
2486.00,0.0151
2485.00,0.0151
2484.00,0.0151
2483.00,0.0151
2482.00,0.0151
2481.00,0.0150
2480.00,0.0150
2479.00,0.0150
2478.00,0.0150
2477.00,0.0150
2476.00,0.0150
2475.00,0.0150
2474.00,0.0150
2473.00,0.0149
2472.00,0.0149
2471.00,0.0149
2470.00,0.0148
2469.00,0.0148
2468.00,0.0148
2467.00,0.0148
2466.00,0.0148
2465.00,0.0148
2464.00,0.0148
2463.00,0.0148
2462.00,0.0147
2461.00,0.0147
2460.00,0.0147
2459.00,0.0147
2458.00,0.0148
2457.00,0.0148
2456.00,0.0148
2455.00,0.0148
2454.00,0.0147
2453.00,0.0147
2452.00,0.0147
2451.00,0.0146
2450.00,0.0146
2449.00,0.0145
2448.00,0.0145
2447.00,0.0145
2446.00,0.0145
2445.00,0.0145
2444.00,0.0144
2443.00,0.0144
2442.00,0.0144
2441.00,0.0144
2440.00,0.0144
2439.00,0.0143
2438.00,0.0143
2437.00,0.0143
2436.00,0.0143
2435.00,0.0143
2434.00,0.0142
2433.00,0.0142
2432.00,0.0142
2431.00,0.0142
2430.00,0.0141
2429.00,0.0140
2428.00,0.0140
2427.00,0.0140
2426.00,0.0139
2425.00,0.0140
2424.00,0.0140
2423.00,0.0140
2422.00,0.0139
2421.00,0.0139
2420.00,0.0139
2419.00,0.0140
2418.00,0.0140
2417.00,0.0140
2416.00,0.0139
2415.00,0.0139
2414.00,0.0139
2413.00,0.0139
2412.00,0.0139
2411.00,0.0139
2410.00,0.0138
2409.00,0.0138
2408.00,0.0137
2407.00,0.0136
2406.00,0.0135
2405.00,0.0135
2404.00,0.0135
2403.00,0.0136
2402.00,0.0136
2401.00,0.0135
2400.00,0.0135
2399.00,0.0135
2398.00,0.0135
2397.00,0.0135
2396.00,0.0135
2395.00,0.0135
2394.00,0.0134
2393.00,0.0134
2392.00,0.0133
2391.00,0.0133
2390.00,0.0132
2389.00,0.0132
2388.00,0.0132
2387.00,0.0132
2386.00,0.0131
2385.00,0.0131
2384.00,0.0130
2383.00,0.0129
2382.00,0.0129
2381.00,0.0128
2380.00,0.0128
2379.00,0.0128
2378.00,0.0128
2377.00,0.0128
2376.00,0.0129
2375.00,0.0128
2374.00,0.0128
2373.00,0.0128
2372.00,0.0127
2371.00,0.0126
2370.00,0.0126
2369.00,0.0125
2368.00,0.0125
2367.00,0.0125
2366.00,0.0125
2365.00,0.0125
2364.00,0.0126
2363.00,0.0126
2362.00,0.0126
2361.00,0.0127
2360.00,0.0127
2359.00,0.0127
2358.00,0.0127
2357.00,0.0127
2356.00,0.0127
2355.00,0.0126
2354.00,0.0126
2353.00,0.0126
2352.00,0.0126
2351.00,0.0126
2350.00,0.0126
2349.00,0.0126
2348.00,0.0128
2347.00,0.0130
2346.00,0.0131
2345.00,0.0131
2344.00,0.0130
2343.00,0.0128
2342.00,0.0128
2341.00,0.0128
2340.00,0.0128
2339.00,0.0129
2338.00,0.0129
2337.00,0.0129
2336.00,0.0128
2335.00,0.0128
2334.00,0.0128
2333.00,0.0128
2332.00,0.0128
2331.00,0.0128
2330.00,0.0128
2329.00,0.0129
2328.00,0.0132
2327.00,0.0135
2326.00,0.0138
2325.00,0.0139
2324.00,0.0138
2323.00,0.0136
2322.00,0.0134
2321.00,0.0132
2320.00,0.0131
2319.00,0.0129
2318.00,0.0129
2317.00,0.0129
2316.00,0.0129
2315.00,0.0129
2314.00,0.0129
2313.00,0.0128
2312.00,0.0127
2311.00,0.0127
2310.00,0.0126
2309.00,0.0126
2308.00,0.0126
2307.00,0.0127
2306.00,0.0127
2305.00,0.0128
2304.00,0.0128
2303.00,0.0128
2302.00,0.0128
2301.00,0.0128
2300.00,0.0129
2299.00,0.0130
2298.00,0.0130
2297.00,0.0130
2296.00,0.0130
2295.00,0.0131
2294.00,0.0131
2293.00,0.0132
2292.00,0.0133
2291.00,0.0134
2290.00,0.0134
2289.00,0.0135
2288.00,0.0135
2287.00,0.0135
2286.00,0.0134
2285.00,0.0134
2284.00,0.0134
2283.00,0.0133
2282.00,0.0133
2281.00,0.0133
2280.00,0.0133
2279.00,0.0133
2278.00,0.0132
2277.00,0.0130
2276.00,0.0129
2275.00,0.0129
2274.00,0.0129
2273.00,0.0129
2272.00,0.0129
2271.00,0.0129
2270.00,0.0128
2269.00,0.0127
2268.00,0.0127
2267.00,0.0126
2266.00,0.0126
2265.00,0.0126
2264.00,0.0126
2263.00,0.0127
2262.00,0.0128
2261.00,0.0128
2260.00,0.0129
2259.00,0.0128
2258.00,0.0127
2257.00,0.0126
2256.00,0.0124
2255.00,0.0124
2254.00,0.0123
2253.00,0.0123
2252.00,0.0122
2251.00,0.0122
2250.00,0.0122
2249.00,0.0122
2248.00,0.0123
2247.00,0.0123
2246.00,0.0124
2245.00,0.0125
2244.00,0.0125
2243.00,0.0125
2242.00,0.0124
2241.00,0.0124
2240.00,0.0123
2239.00,0.0123
2238.00,0.0123
2237.00,0.0123
2236.00,0.0123
2235.00,0.0123
2234.00,0.0123
2233.00,0.0122
2232.00,0.0122
2231.00,0.0121
2230.00,0.0121
2229.00,0.0120
2228.00,0.0120
2227.00,0.0120
2226.00,0.0120
2225.00,0.0121
2224.00,0.0122
2223.00,0.0122
2222.00,0.0122
2221.00,0.0123
2220.00,0.0123
2219.00,0.0122
2218.00,0.0121
2217.00,0.0120
2216.00,0.0120
2215.00,0.0119
2214.00,0.0119
2213.00,0.0119
2212.00,0.0119
2211.00,0.0119
2210.00,0.0120
2209.00,0.0121
2208.00,0.0122
2207.00,0.0122
2206.00,0.0122
2205.00,0.0122
2204.00,0.0122
2203.00,0.0122
2202.00,0.0122
2201.00,0.0122
2200.00,0.0121
2199.00,0.0121
2198.00,0.0121
2197.00,0.0121
2196.00,0.0122
2195.00,0.0122
2194.00,0.0121
2193.00,0.0121
2192.00,0.0121
2191.00,0.0121
2190.00,0.0122
2189.00,0.0123
2188.00,0.0124
2187.00,0.0124
2186.00,0.0123
2185.00,0.0121
2184.00,0.0118
2183.00,0.0115
2182.00,0.0113
2181.00,0.0113
2180.00,0.0115
2179.00,0.0115
2178.00,0.0115
2177.00,0.0114
2176.00,0.0114
2175.00,0.0114
2174.00,0.0115
2173.00,0.0116
2172.00,0.0117
2171.00,0.0118
2170.00,0.0120
2169.00,0.0122
2168.00,0.0124
2167.00,0.0125
2166.00,0.0125
2165.00,0.0126
2164.00,0.0128
2163.00,0.0127
2162.00,0.0122
2161.00,0.0112
2160.00,0.0100
2159.00,0.0090
2158.00,0.0087
2157.00,0.0088
2156.00,0.0092
2155.00,0.0095
2154.00,0.0096
2153.00,0.0097
2152.00,0.0098
2151.00,0.0098
2150.00,0.0098
2149.00,0.0099
2148.00,0.0100
2147.00,0.0100
2146.00,0.0100
2145.00,0.0099
2144.00,0.0100
2143.00,0.0100
2142.00,0.0101
2141.00,0.0101
2140.00,0.0101
2139.00,0.0101
2138.00,0.0099
2137.00,0.0098
2136.00,0.0096
2135.00,0.0094
2134.00,0.0094
2133.00,0.0096
2132.00,0.0098
2131.00,0.0100
2130.00,0.0101
2129.00,0.0102
2128.00,0.0104
2127.00,0.0105
2126.00,0.0106
2125.00,0.0107
2124.00,0.0108
2123.00,0.0108
2122.00,0.0109
2121.00,0.0110
2120.00,0.0111
2119.00,0.0112
2118.00,0.0112
2117.00,0.0113
2116.00,0.0114
2115.00,0.0114
2114.00,0.0114
2113.00,0.0115
2112.00,0.0116
2111.00,0.0116
2110.00,0.0116
2109.00,0.0115
2108.00,0.0114
2107.00,0.0114
2106.00,0.0113
2105.00,0.0113
2104.00,0.0112
2103.00,0.0112
2102.00,0.0112
2101.00,0.0112
2100.00,0.0112
2099.00,0.0111
2098.00,0.0110
2097.00,0.0109
2096.00,0.0108
2095.00,0.0107
2094.00,0.0108
2093.00,0.0109
2092.00,0.0110
2091.00,0.0111
2090.00,0.0111
2089.00,0.0112
2088.00,0.0112
2087.00,0.0112
2086.00,0.0111
2085.00,0.0111
2084.00,0.0111
2083.00,0.0112
2082.00,0.0112
2081.00,0.0112
2080.00,0.0112
2079.00,0.0111
2078.00,0.0110
2077.00,0.0110
2076.00,0.0110
2075.00,0.0110
2074.00,0.0109
2073.00,0.0109
2072.00,0.0109
2071.00,0.0109
2070.00,0.0108
2069.00,0.0107
2068.00,0.0107
2067.00,0.0107
2066.00,0.0107
2065.00,0.0107
2064.00,0.0106
2063.00,0.0106
2062.00,0.0105
2061.00,0.0106
2060.00,0.0107
2059.00,0.0108
2058.00,0.0108
2057.00,0.0107
2056.00,0.0107
2055.00,0.0106
2054.00,0.0107
2053.00,0.0109
2052.00,0.0112
2051.00,0.0113
2050.00,0.0112
2049.00,0.0109
2048.00,0.0107
2047.00,0.0104
2046.00,0.0102
2045.00,0.0101
2044.00,0.0102
2043.00,0.0102
2042.00,0.0102
2041.00,0.0103
2040.00,0.0104
2039.00,0.0104
2038.00,0.0103
2037.00,0.0102
2036.00,0.0101
2035.00,0.0100
2034.00,0.0098
2033.00,0.0098
2032.00,0.0098
2031.00,0.0097
2030.00,0.0097
2029.00,0.0097
2028.00,0.0097
2027.00,0.0096
2026.00,0.0096
2025.00,0.0096
2024.00,0.0097
2023.00,0.0098
2022.00,0.0098
2021.00,0.0097
2020.00,0.0096
2019.00,0.0094
2018.00,0.0092
2017.00,0.0091
2016.00,0.0092
2015.00,0.0092
2014.00,0.0091
2013.00,0.0092
2012.00,0.0094
2011.00,0.0094
2010.00,0.0093
2009.00,0.0091
2008.00,0.0088
2007.00,0.0085
2006.00,0.0084
2005.00,0.0084
2004.00,0.0086
2003.00,0.0089
2002.00,0.0091
2001.00,0.0093
2000.00,0.0094
1999.00,0.0093
1998.00,0.0092
1997.00,0.0092
1996.00,0.0094
1995.00,0.0095
1994.00,0.0095
1993.00,0.0095
1992.00,0.0095
1991.00,0.0095
1990.00,0.0095
1989.00,0.0097
1988.00,0.0099
1987.00,0.0100
1986.00,0.0100
1985.00,0.0100
1984.00,0.0101
1983.00,0.0103
1982.00,0.0105
1981.00,0.0106
1980.00,0.0103
1979.00,0.0096
1978.00,0.0089
1977.00,0.0085
1976.00,0.0085
1975.00,0.0084
1974.00,0.0084
1973.00,0.0083
1972.00,0.0084
1971.00,0.0084
1970.00,0.0083
1969.00,0.0082
1968.00,0.0082
1967.00,0.0081
1966.00,0.0081
1965.00,0.0081
1964.00,0.0082
1963.00,0.0082
1962.00,0.0081
1961.00,0.0081
1960.00,0.0080
1959.00,0.0079
1958.00,0.0079
1957.00,0.0080
1956.00,0.0081
1955.00,0.0082
1954.00,0.0083
1953.00,0.0084
1952.00,0.0085
1951.00,0.0085
1950.00,0.0084
1949.00,0.0084
1948.00,0.0084
1947.00,0.0085
1946.00,0.0085
1945.00,0.0085
1944.00,0.0085
1943.00,0.0085
1942.00,0.0084
1941.00,0.0084
1940.00,0.0084
1939.00,0.0084
1938.00,0.0084
1937.00,0.0084
1936.00,0.0085
1935.00,0.0085
1934.00,0.0085
1933.00,0.0085
1932.00,0.0086
1931.00,0.0085
1930.00,0.0084
1929.00,0.0083
1928.00,0.0083
1927.00,0.0083
1926.00,0.0084
1925.00,0.0085
1924.00,0.0086
1923.00,0.0087
1922.00,0.0087
1921.00,0.0087
1920.00,0.0087
1919.00,0.0087
1918.00,0.0087
1917.00,0.0086
1916.00,0.0086
1915.00,0.0086
1914.00,0.0085
1913.00,0.0085
1912.00,0.0085
1911.00,0.0086
1910.00,0.0086
1909.00,0.0086
1908.00,0.0086
1907.00,0.0085
1906.00,0.0084
1905.00,0.0084
1904.00,0.0084
1903.00,0.0084
1902.00,0.0084
1901.00,0.0084
1900.00,0.0085
1899.00,0.0085
1898.00,0.0085
1897.00,0.0085
1896.00,0.0086
1895.00,0.0086
1894.00,0.0085
1893.00,0.0085
1892.00,0.0085
1891.00,0.0085
1890.00,0.0085
1889.00,0.0085
1888.00,0.0085
1887.00,0.0084
1886.00,0.0084
1885.00,0.0085
1884.00,0.0085
1883.00,0.0085
1882.00,0.0085
1881.00,0.0085
1880.00,0.0085
1879.00,0.0084
1878.00,0.0084
1877.00,0.0083
1876.00,0.0084
1875.00,0.0083
1874.00,0.0083
1873.00,0.0083
1872.00,0.0084
1871.00,0.0084
1870.00,0.0084
1869.00,0.0084
1868.00,0.0083
1867.00,0.0083
1866.00,0.0082
1865.00,0.0083
1864.00,0.0083
1863.00,0.0083
1862.00,0.0082
1861.00,0.0082
1860.00,0.0083
1859.00,0.0083
1858.00,0.0083
1857.00,0.0083
1856.00,0.0083
1855.00,0.0082
1854.00,0.0082
1853.00,0.0082
1852.00,0.0082
1851.00,0.0082
1850.00,0.0082
1849.00,0.0083
1848.00,0.0083
1847.00,0.0083
1846.00,0.0082
1845.00,0.0081
1844.00,0.0080
1843.00,0.0080
1842.00,0.0080
1841.00,0.0080
1840.00,0.0081
1839.00,0.0081
1838.00,0.0081
1837.00,0.0081
1836.00,0.0082
1835.00,0.0082
1834.00,0.0082
1833.00,0.0081
1832.00,0.0082
1831.00,0.0082
1830.00,0.0082
1829.00,0.0082
1828.00,0.0081
1827.00,0.0081
1826.00,0.0082
1825.00,0.0082
1824.00,0.0082
1823.00,0.0082
1822.00,0.0081
1821.00,0.0081
1820.00,0.0081
1819.00,0.0080
1818.00,0.0079
1817.00,0.0079
1816.00,0.0079
1815.00,0.0080
1814.00,0.0080
1813.00,0.0081
1812.00,0.0082
1811.00,0.0082
1810.00,0.0082
1809.00,0.0082
1808.00,0.0082
1807.00,0.0082
1806.00,0.0082
1805.00,0.0082
1804.00,0.0083
1803.00,0.0083
1802.00,0.0083
1801.00,0.0084
1800.00,0.0084
1799.00,0.0084
1798.00,0.0084
1797.00,0.0084
1796.00,0.0085
1795.00,0.0084
1794.00,0.0084
1793.00,0.0084
1792.00,0.0084
1791.00,0.0084
1790.00,0.0083
1789.00,0.0083
1788.00,0.0084
1787.00,0.0084
1786.00,0.0085
1785.00,0.0085
1784.00,0.0086
1783.00,0.0086
1782.00,0.0086
1781.00,0.0086
1780.00,0.0086
1779.00,0.0086
1778.00,0.0085
1777.00,0.0085
1776.00,0.0086
1775.00,0.0085
1774.00,0.0084
1773.00,0.0084
1772.00,0.0084
1771.00,0.0084
1770.00,0.0085
1769.00,0.0086
1768.00,0.0087
1767.00,0.0088
1766.00,0.0088
1765.00,0.0088
1764.00,0.0089
1763.00,0.0090
1762.00,0.0090
1761.00,0.0089
1760.00,0.0090
1759.00,0.0090
1758.00,0.0091
1757.00,0.0092
1756.00,0.0093
1755.00,0.0094
1754.00,0.0094
1753.00,0.0095
1752.00,0.0096
1751.00,0.0098
1750.00,0.0099
1749.00,0.0101
1748.00,0.0102
1747.00,0.0104
1746.00,0.0105
1745.00,0.0106
1744.00,0.0109
1743.00,0.0110
1742.00,0.0111
1741.00,0.0112
1740.00,0.0114
1739.00,0.0116
1738.00,0.0116
1737.00,0.0116
1736.00,0.0117
1735.00,0.0118
1734.00,0.0119
1733.00,0.0119
1732.00,0.0121
1731.00,0.0124
1730.00,0.0126
1729.00,0.0128
1728.00,0.0130
1727.00,0.0132
1726.00,0.0134
1725.00,0.0136
1724.00,0.0140
1723.00,0.0143
1722.00,0.0144
1721.00,0.0146
1720.00,0.0149
1719.00,0.0153
1718.00,0.0157
1717.00,0.0162
1716.00,0.0169
1715.00,0.0176
1714.00,0.0183
1713.00,0.0191
1712.00,0.0200
1711.00,0.0210
1710.00,0.0220
1709.00,0.0233
1708.00,0.0249
1707.00,0.0269
1706.00,0.0294
1705.00,0.0322
1704.00,0.0348
1703.00,0.0369
1702.00,0.0391
1701.00,0.0424
1700.00,0.0463
1699.00,0.0491
1698.00,0.0504
1697.00,0.0517
1696.00,0.0534
1695.00,0.0552
1694.00,0.0566
1693.00,0.0577
1692.00,0.0590
1691.00,0.0606
1690.00,0.0624
1689.00,0.0643
1688.00,0.0659
1687.00,0.0671
1686.00,0.0686
1685.00,0.0714
1684.00,0.0754
1683.00,0.0789
1682.00,0.0811
1681.00,0.0831
1680.00,0.0852
1679.00,0.0873
1678.00,0.0892
1677.00,0.0914
1676.00,0.0944
1675.00,0.0979
1674.00,0.1010
1673.00,0.1033
1672.00,0.1055
1671.00,0.1083
1670.00,0.1120
1669.00,0.1161
1668.00,0.1198
1667.00,0.1226
1666.00,0.1248
1665.00,0.1272
1664.00,0.1305
1663.00,0.1347
1662.00,0.1391
1661.00,0.1428
1660.00,0.1460
1659.00,0.1488
1658.00,0.1513
1657.00,0.1531
1656.00,0.1543
1655.00,0.1558
1654.00,0.1595
1653.00,0.1655
1652.00,0.1698
1651.00,0.1708
1650.00,0.1705
1649.00,0.1703
1648.00,0.1713
1647.00,0.1735
1646.00,0.1755
1645.00,0.1765
1644.00,0.1768
1643.00,0.1769
1642.00,0.1770
1641.00,0.1772
1640.00,0.1774
1639.00,0.1774
1638.00,0.1774
1637.00,0.1780
1636.00,0.1799
1635.00,0.1822
1634.00,0.1832
1633.00,0.1831
1632.00,0.1827
1631.00,0.1824
1630.00,0.1823
1629.00,0.1823
1628.00,0.1823
1627.00,0.1820
1626.00,0.1810
1625.00,0.1795
1624.00,0.1778
1623.00,0.1758
1622.00,0.1731
1621.00,0.1696
1620.00,0.1656
1619.00,0.1613
1618.00,0.1567
1617.00,0.1517
1616.00,0.1465
1615.00,0.1417
1614.00,0.1371
1613.00,0.1324
1612.00,0.1277
1611.00,0.1228
1610.00,0.1180
1609.00,0.1133
1608.00,0.1086
1607.00,0.1042
1606.00,0.1002
1605.00,0.0965
1604.00,0.0931
1603.00,0.0900
1602.00,0.0872
1601.00,0.0848
1600.00,0.0825
1599.00,0.0805
1598.00,0.0789
1597.00,0.0773
1596.00,0.0758
1595.00,0.0744
1594.00,0.0731
1593.00,0.0719
1592.00,0.0707
1591.00,0.0696
1590.00,0.0687
1589.00,0.0680
1588.00,0.0674
1587.00,0.0669
1586.00,0.0666
1585.00,0.0666
1584.00,0.0666
1583.00,0.0667
1582.00,0.0671
1581.00,0.0676
1580.00,0.0679
1579.00,0.0681
1578.00,0.0686
1577.00,0.0697
1576.00,0.0711
1575.00,0.0726
1574.00,0.0737
1573.00,0.0746
1572.00,0.0754
1571.00,0.0767
1570.00,0.0787
1569.00,0.0811
1568.00,0.0829
1567.00,0.0845
1566.00,0.0862
1565.00,0.0883
1564.00,0.0902
1563.00,0.0916
1562.00,0.0926
1561.00,0.0937
1560.00,0.0966
1559.00,0.1021
1558.00,0.1074
1557.00,0.1103
1556.00,0.1121
1555.00,0.1144
1554.00,0.1172
1553.00,0.1199
1552.00,0.1223
1551.00,0.1248
1550.00,0.1277
1549.00,0.1304
1548.00,0.1324
1547.00,0.1340
1546.00,0.1357
1545.00,0.1377
1544.00,0.1396
1543.00,0.1410
1542.00,0.1423
1541.00,0.1445
1540.00,0.1474
1539.00,0.1499
1538.00,0.1511
1537.00,0.1513
1536.00,0.1511
1535.00,0.1515
1534.00,0.1528
1533.00,0.1545
1532.00,0.1557
1531.00,0.1560
1530.00,0.1563
1529.00,0.1566
1528.00,0.1573
1527.00,0.1582
1526.00,0.1591
1525.00,0.1597
1524.00,0.1600
1523.00,0.1605
1522.00,0.1622
1521.00,0.1647
1520.00,0.1665
1519.00,0.1675
1518.00,0.1685
1517.00,0.1699
1516.00,0.1709
1515.00,0.1706
1514.00,0.1694
1513.00,0.1675
1512.00,0.1652
1511.00,0.1626
1510.00,0.1597
1509.00,0.1567
1508.00,0.1535
1507.00,0.1501
1506.00,0.1465
1505.00,0.1429
1504.00,0.1394
1503.00,0.1360
1502.00,0.1325
1501.00,0.1289
1500.00,0.1252
1499.00,0.1215
1498.00,0.1177
1497.00,0.1138
1496.00,0.1099
1495.00,0.1063
1494.00,0.1030
1493.00,0.0999
1492.00,0.0968
1491.00,0.0938
1490.00,0.0908
1489.00,0.0878
1488.00,0.0850
1487.00,0.0825
1486.00,0.0802
1485.00,0.0780
1484.00,0.0761
1483.00,0.0745
1482.00,0.0730
1481.00,0.0717
1480.00,0.0706
1479.00,0.0696
1478.00,0.0689
1477.00,0.0684
1476.00,0.0682
1475.00,0.0681
1474.00,0.0683
1473.00,0.0689
1472.00,0.0697
1471.00,0.0702
1470.00,0.0703
1469.00,0.0702
1468.00,0.0702
1467.00,0.0702
1466.00,0.0704
1465.00,0.0709
1464.00,0.0714
1463.00,0.0718
1462.00,0.0720
1461.00,0.0721
1460.00,0.0724
1459.00,0.0730
1458.00,0.0744
1457.00,0.0765
1456.00,0.0785
1455.00,0.0797
1454.00,0.0805
1453.00,0.0812
1452.00,0.0819
1451.00,0.0825
1450.00,0.0830
1449.00,0.0832
1448.00,0.0834
1447.00,0.0833
1446.00,0.0829
1445.00,0.0822
1444.00,0.0815
1443.00,0.0807
1442.00,0.0799
1441.00,0.0789
1440.00,0.0778
1439.00,0.0767
1438.00,0.0754
1437.00,0.0741
1436.00,0.0729
1435.00,0.0716
1434.00,0.0703
1433.00,0.0691
1432.00,0.0680
1431.00,0.0671
1430.00,0.0663
1429.00,0.0657
1428.00,0.0653
1427.00,0.0650
1426.00,0.0648
1425.00,0.0649
1424.00,0.0653
1423.00,0.0656
1422.00,0.0657
1421.00,0.0659
1420.00,0.0665
1419.00,0.0674
1418.00,0.0684
1417.00,0.0689
1416.00,0.0693
1415.00,0.0696
1414.00,0.0699
1413.00,0.0702
1412.00,0.0705
1411.00,0.0708
1410.00,0.0709
1409.00,0.0710
1408.00,0.0709
1407.00,0.0709
1406.00,0.0709
1405.00,0.0708
1404.00,0.0706
1403.00,0.0704
1402.00,0.0700
1401.00,0.0697
1400.00,0.0696
1399.00,0.0695
1398.00,0.0694
1397.00,0.0693
1396.00,0.0692
1395.00,0.0692
1394.00,0.0692
1393.00,0.0691
1392.00,0.0690
1391.00,0.0689
1390.00,0.0687
1389.00,0.0687
1388.00,0.0686
1387.00,0.0686
1386.00,0.0685
1385.00,0.0682
1384.00,0.0678
1383.00,0.0675
1382.00,0.0672
1381.00,0.0669
1380.00,0.0666
1379.00,0.0663
1378.00,0.0659
1377.00,0.0656
1376.00,0.0652
1375.00,0.0649
1374.00,0.0646
1373.00,0.0643
1372.00,0.0639
1371.00,0.0636
1370.00,0.0632
1369.00,0.0627
1368.00,0.0621
1367.00,0.0613
1366.00,0.0605
1365.00,0.0596
1364.00,0.0587
1363.00,0.0579
1362.00,0.0572
1361.00,0.0564
1360.00,0.0558
1359.00,0.0552
1358.00,0.0548
1357.00,0.0544
1356.00,0.0541
1355.00,0.0540
1354.00,0.0539
1353.00,0.0538
1352.00,0.0538
1351.00,0.0538
1350.00,0.0540
1349.00,0.0541
1348.00,0.0543
1347.00,0.0546
1346.00,0.0549
1345.00,0.0552
1344.00,0.0555
1343.00,0.0558
1342.00,0.0561
1341.00,0.0564
1340.00,0.0567
1339.00,0.0570
1338.00,0.0571
1337.00,0.0571
1336.00,0.0571
1335.00,0.0570
1334.00,0.0568
1333.00,0.0566
1332.00,0.0564
1331.00,0.0561
1330.00,0.0559
1329.00,0.0556
1328.00,0.0554
1327.00,0.0551
1326.00,0.0549
1325.00,0.0546
1324.00,0.0544
1323.00,0.0543
1322.00,0.0543
1321.00,0.0543
1320.00,0.0543
1319.00,0.0544
1318.00,0.0545
1317.00,0.0546
1316.00,0.0547
1315.00,0.0549
1314.00,0.0550
1313.00,0.0552
1312.00,0.0553
1311.00,0.0554
1310.00,0.0555
1309.00,0.0555
1308.00,0.0556
1307.00,0.0558
1306.00,0.0559
1305.00,0.0559
1304.00,0.0560
1303.00,0.0561
1302.00,0.0561
1301.00,0.0562
1300.00,0.0562
1299.00,0.0563
1298.00,0.0564
1297.00,0.0565
1296.00,0.0566
1295.00,0.0567
1294.00,0.0568
1293.00,0.0570
1292.00,0.0572
1291.00,0.0573
1290.00,0.0576
1289.00,0.0578
1288.00,0.0580
1287.00,0.0583
1286.00,0.0585
1285.00,0.0588
1284.00,0.0590
1283.00,0.0594
1282.00,0.0597
1281.00,0.0601
1280.00,0.0605
1279.00,0.0610
1278.00,0.0615
1277.00,0.0620
1276.00,0.0627
1275.00,0.0633
1274.00,0.0641
1273.00,0.0649
1272.00,0.0657
1271.00,0.0666
1270.00,0.0675
1269.00,0.0684
1268.00,0.0692
1267.00,0.0700
1266.00,0.0708
1265.00,0.0715
1264.00,0.0721
1263.00,0.0727
1262.00,0.0731
1261.00,0.0736
1260.00,0.0739
1259.00,0.0742
1258.00,0.0745
1257.00,0.0748
1256.00,0.0751
1255.00,0.0754
1254.00,0.0758
1253.00,0.0762
1252.00,0.0767
1251.00,0.0772
1250.00,0.0777
1249.00,0.0782
1248.00,0.0788
1247.00,0.0794
1246.00,0.0800
1245.00,0.0806
1244.00,0.0813
1243.00,0.0819
1242.00,0.0825
1241.00,0.0831
1240.00,0.0837
1239.00,0.0843
1238.00,0.0848
1237.00,0.0853
1236.00,0.0857
1235.00,0.0860
1234.00,0.0863
1233.00,0.0864
1232.00,0.0864
1231.00,0.0863
1230.00,0.0860
1229.00,0.0855
1228.00,0.0849
1227.00,0.0841
1226.00,0.0832
1225.00,0.0821
1224.00,0.0809
1223.00,0.0797
1222.00,0.0784
1221.00,0.0771
1220.00,0.0757
1219.00,0.0743
1218.00,0.0729
1217.00,0.0715
1216.00,0.0700
1215.00,0.0686
1214.00,0.0671
1213.00,0.0656
1212.00,0.0642
1211.00,0.0628
1210.00,0.0614
1209.00,0.0600
1208.00,0.0587
1207.00,0.0574
1206.00,0.0561
1205.00,0.0549
1204.00,0.0538
1203.00,0.0527
1202.00,0.0517
1201.00,0.0507
1200.00,0.0498
1199.00,0.0490
1198.00,0.0482
1197.00,0.0475
1196.00,0.0469
1195.00,0.0463
1194.00,0.0458
1193.00,0.0453
1192.00,0.0450
1191.00,0.0447
1190.00,0.0444
1189.00,0.0442
1188.00,0.0440
1187.00,0.0440
1186.00,0.0439
1185.00,0.0439
1184.00,0.0440
1183.00,0.0442
1182.00,0.0445
1181.00,0.0449
1180.00,0.0454
1179.00,0.0460
1178.00,0.0467
1177.00,0.0474
1176.00,0.0482
1175.00,0.0490
1174.00,0.0498
1173.00,0.0505
1172.00,0.0510
1171.00,0.0515
1170.00,0.0517
1169.00,0.0519
1168.00,0.0520
1167.00,0.0521
1166.00,0.0521
1165.00,0.0520
1164.00,0.0519
1163.00,0.0517
1162.00,0.0514
1161.00,0.0511
1160.00,0.0507
1159.00,0.0502
1158.00,0.0497
1157.00,0.0492
1156.00,0.0486
1155.00,0.0480
1154.00,0.0474
1153.00,0.0467
1152.00,0.0461
1151.00,0.0455
1150.00,0.0449
1149.00,0.0443
1148.00,0.0437
1147.00,0.0432
1146.00,0.0428
1145.00,0.0423
1144.00,0.0419
1143.00,0.0416
1142.00,0.0414
1141.00,0.0412
1140.00,0.0410
1139.00,0.0409
1138.00,0.0409
1137.00,0.0408
1136.00,0.0408
1135.00,0.0409
1134.00,0.0410
1133.00,0.0411
1132.00,0.0412
1131.00,0.0414
1130.00,0.0415
1129.00,0.0416
1128.00,0.0418
1127.00,0.0419
1126.00,0.0420
1125.00,0.0421
1124.00,0.0421
1123.00,0.0422
1122.00,0.0423
1121.00,0.0424
1120.00,0.0425
1119.00,0.0426
1118.00,0.0428
1117.00,0.0429
1116.00,0.0430
1115.00,0.0431
1114.00,0.0432
1113.00,0.0434
1112.00,0.0435
1111.00,0.0436
1110.00,0.0438
1109.00,0.0440
1108.00,0.0442
1107.00,0.0445
1106.00,0.0447
1105.00,0.0449
1104.00,0.0451
1103.00,0.0452
1102.00,0.0452
1101.00,0.0452
1100.00,0.0451
1099.00,0.0451
1098.00,0.0450
1097.00,0.0450
1096.00,0.0451
1095.00,0.0452
1094.00,0.0453
1093.00,0.0455
1092.00,0.0456
1091.00,0.0459
1090.00,0.0462
1089.00,0.0465
1088.00,0.0468
1087.00,0.0472
1086.00,0.0477
1085.00,0.0481
1084.00,0.0485
1083.00,0.0490
1082.00,0.0494
1081.00,0.0497
1080.00,0.0501
1079.00,0.0504
1078.00,0.0507
1077.00,0.0509
1076.00,0.0512
1075.00,0.0514
1074.00,0.0516
1073.00,0.0518
1072.00,0.0520
1071.00,0.0521
1070.00,0.0522
1069.00,0.0523
1068.00,0.0523
1067.00,0.0524
1066.00,0.0524
1065.00,0.0525
1064.00,0.0525
1063.00,0.0525
1062.00,0.0525
1061.00,0.0525
1060.00,0.0525
1059.00,0.0525
1058.00,0.0525
1057.00,0.0524
1056.00,0.0522
1055.00,0.0520
1054.00,0.0518
1053.00,0.0515
1052.00,0.0512
1051.00,0.0508
1050.00,0.0504
1049.00,0.0499
1048.00,0.0494
1047.00,0.0490
1046.00,0.0484
1045.00,0.0479
1044.00,0.0473
1043.00,0.0468
1042.00,0.0463
1041.00,0.0459
1040.00,0.0455
1039.00,0.0451
1038.00,0.0448
1037.00,0.0446
1036.00,0.0444
1035.00,0.0443
1034.00,0.0442
1033.00,0.0440
1032.00,0.0439
1031.00,0.0438
1030.00,0.0437
1029.00,0.0436
1028.00,0.0434
1027.00,0.0433
1026.00,0.0432
1025.00,0.0431
1024.00,0.0432
1023.00,0.0433
1022.00,0.0435
1021.00,0.0437
1020.00,0.0440
1019.00,0.0443
1018.00,0.0446
1017.00,0.0448
1016.00,0.0449
1015.00,0.0449
1014.00,0.0447
1013.00,0.0445
1012.00,0.0442
1011.00,0.0438
1010.00,0.0434
1009.00,0.0430
1008.00,0.0426
1007.00,0.0423
1006.00,0.0421
1005.00,0.0418
1004.00,0.0416
1003.00,0.0415
1002.00,0.0413
1001.00,0.0412
1000.00,0.0409
999.00,0.0407
998.00,0.0403
997.00,0.0399
996.00,0.0393
995.00,0.0387
994.00,0.0381
993.00,0.0374
992.00,0.0368
991.00,0.0362
990.00,0.0357
989.00,0.0353
988.00,0.0349
987.00,0.0347
986.00,0.0346
985.00,0.0345
984.00,0.0346
983.00,0.0347
982.00,0.0348
981.00,0.0350
980.00,0.0352
979.00,0.0354
978.00,0.0355
977.00,0.0356
976.00,0.0357
975.00,0.0357
974.00,0.0356
973.00,0.0354
972.00,0.0351
971.00,0.0349
970.00,0.0346
969.00,0.0342
968.00,0.0339
967.00,0.0335
966.00,0.0332
965.00,0.0330
964.00,0.0328
963.00,0.0327
962.00,0.0325
961.00,0.0324
960.00,0.0323
959.00,0.0321
958.00,0.0319
957.00,0.0318
956.00,0.0316
955.00,0.0315
954.00,0.0313
953.00,0.0311
952.00,0.0310
951.00,0.0309
950.00,0.0307
949.00,0.0306
948.00,0.0305
947.00,0.0304
946.00,0.0303
945.00,0.0302
944.00,0.0302
943.00,0.0301
942.00,0.0301
941.00,0.0302
940.00,0.0303
939.00,0.0303
938.00,0.0304
937.00,0.0304
936.00,0.0305
935.00,0.0305
934.00,0.0306
933.00,0.0306
932.00,0.0306
931.00,0.0305
930.00,0.0304
929.00,0.0303
928.00,0.0302
927.00,0.0301
926.00,0.0299
925.00,0.0297
924.00,0.0295
923.00,0.0293
922.00,0.0291
921.00,0.0289
920.00,0.0286
919.00,0.0284
918.00,0.0281
917.00,0.0279
916.00,0.0277
915.00,0.0275
914.00,0.0273
913.00,0.0272
912.00,0.0271
911.00,0.0270
910.00,0.0269
909.00,0.0268
908.00,0.0267
907.00,0.0267
906.00,0.0266
905.00,0.0266
904.00,0.0266
903.00,0.0267
902.00,0.0268
901.00,0.0268
900.00,0.0269
899.00,0.0269
898.00,0.0270
897.00,0.0270
896.00,0.0270
895.00,0.0270
894.00,0.0270
893.00,0.0269
892.00,0.0269
891.00,0.0269
890.00,0.0269
889.00,0.0269
888.00,0.0269
887.00,0.0268
886.00,0.0268
885.00,0.0268
884.00,0.0268
883.00,0.0269
882.00,0.0270
881.00,0.0271
880.00,0.0272
879.00,0.0272
878.00,0.0273
877.00,0.0274
876.00,0.0275
875.00,0.0275
874.00,0.0276
873.00,0.0276
872.00,0.0276
871.00,0.0276
870.00,0.0276
869.00,0.0276
868.00,0.0276
867.00,0.0277
866.00,0.0279
865.00,0.0280
864.00,0.0283
863.00,0.0285
862.00,0.0287
861.00,0.0290
860.00,0.0294
859.00,0.0297
858.00,0.0300
857.00,0.0303
856.00,0.0306
855.00,0.0310
854.00,0.0313
853.00,0.0316
852.00,0.0319
851.00,0.0320
850.00,0.0321
849.00,0.0321
848.00,0.0321
847.00,0.0322
846.00,0.0322
845.00,0.0322
844.00,0.0324
843.00,0.0326
842.00,0.0328
841.00,0.0330
840.00,0.0333
839.00,0.0336
838.00,0.0339
837.00,0.0343
836.00,0.0347
835.00,0.0351
834.00,0.0354
833.00,0.0357
832.00,0.0360
831.00,0.0362
830.00,0.0364
829.00,0.0366
828.00,0.0367
827.00,0.0369
826.00,0.0370
825.00,0.0370
824.00,0.0369
823.00,0.0368
822.00,0.0367
821.00,0.0366
820.00,0.0366
819.00,0.0367
818.00,0.0368
817.00,0.0369
816.00,0.0370
815.00,0.0372
814.00,0.0374
813.00,0.0376
812.00,0.0378
811.00,0.0380
810.00,0.0382
809.00,0.0384
808.00,0.0386
807.00,0.0389
806.00,0.0391
805.00,0.0393
804.00,0.0395
803.00,0.0397
802.00,0.0399
801.00,0.0401
800.00,0.0404
799.00,0.0406
798.00,0.0408
797.00,0.0409
796.00,0.0411
795.00,0.0413
794.00,0.0416
793.00,0.0419
792.00,0.0422
791.00,0.0425
790.00,0.0428
789.00,0.0432
788.00,0.0436
787.00,0.0440
786.00,0.0443
785.00,0.0446
784.00,0.0450
783.00,0.0453
782.00,0.0456
781.00,0.0460
780.00,0.0463
779.00,0.0467
778.00,0.0470
777.00,0.0473
776.00,0.0476
775.00,0.0479
774.00,0.0482
773.00,0.0486
772.00,0.0490
771.00,0.0494
770.00,0.0498
769.00,0.0502
768.00,0.0507
767.00,0.0511
766.00,0.0514
765.00,0.0517
764.00,0.0520
763.00,0.0523
762.00,0.0526
761.00,0.0529
760.00,0.0533
759.00,0.0536
758.00,0.0540
757.00,0.0544
756.00,0.0549
755.00,0.0554
754.00,0.0558
753.00,0.0563
752.00,0.0567
751.00,0.0571
750.00,0.0576
749.00,0.0581
748.00,0.0587
747.00,0.0593
746.00,0.0599
745.00,0.0605
744.00,0.0612
743.00,0.0618
742.00,0.0624
741.00,0.0630
740.00,0.0636
739.00,0.0643
738.00,0.0650
737.00,0.0658
736.00,0.0666
735.00,0.0674
734.00,0.0682
733.00,0.0691
732.00,0.0699
731.00,0.0709
730.00,0.0718
729.00,0.0727
728.00,0.0736
727.00,0.0744
726.00,0.0753
725.00,0.0761
724.00,0.0770
723.00,0.0778
722.00,0.0786
721.00,0.0794
720.00,0.0801
719.00,0.0808
718.00,0.0812
717.00,0.0816
716.00,0.0819
715.00,0.0823
714.00,0.0828
713.00,0.0833
712.00,0.0839
711.00,0.0845
710.00,0.0850
709.00,0.0856
708.00,0.0862
707.00,0.0869
706.00,0.0876
705.00,0.0883
704.00,0.0890
703.00,0.0896
702.00,0.0902
701.00,0.0908
700.00,0.0913
699.00,0.0917
698.00,0.0920
697.00,0.0923
696.00,0.0926
695.00,0.0929
694.00,0.0932
693.00,0.0935
692.00,0.0938
691.00,0.0941
690.00,0.0945
689.00,0.0947
688.00,0.0950
687.00,0.0953
686.00,0.0956
685.00,0.0959
684.00,0.0962
683.00,0.0965
682.00,0.0969
681.00,0.0972
680.00,0.0975
679.00,0.0979
678.00,0.0981
677.00,0.0984
676.00,0.0987
675.00,0.0990
674.00,0.0993
673.00,0.0996
672.00,0.0998
671.00,0.0998
670.00,0.0998
669.00,0.0999
668.00,0.1004
667.00,0.1010
666.00,0.1014
665.00,0.1017
664.00,0.1020
663.00,0.1023
662.00,0.1026
661.00,0.1029
660.00,0.1033
659.00,0.1035
658.00,0.1038
657.00,0.1040
656.00,0.1044
655.00,0.1047
654.00,0.1050
653.00,0.1052
652.00,0.1055
651.00,0.1058
650.00,0.1060
649.00,0.1062
648.00,0.1065
647.00,0.1068
646.00,0.1070
645.00,0.1073
644.00,0.1076
643.00,0.1079
642.00,0.1081
641.00,0.1083
640.00,0.1085
639.00,0.1086
638.00,0.1087
637.00,0.1088
636.00,0.1090
635.00,0.1092
634.00,0.1093
633.00,0.1094
632.00,0.1095
631.00,0.1096
630.00,0.1096
629.00,0.1097
628.00,0.1099
627.00,0.1100
626.00,0.1100
625.00,0.1102
624.00,0.1104
623.00,0.1106
622.00,0.1108
621.00,0.1110
620.00,0.1113
619.00,0.1117
618.00,0.1120
617.00,0.1123
616.00,0.1126
615.00,0.1129
614.00,0.1132
613.00,0.1134
612.00,0.1136
611.00,0.1136
610.00,0.1136
609.00,0.1134
608.00,0.1132
607.00,0.1128
606.00,0.1123
605.00,0.1118
604.00,0.1115
603.00,0.1112
602.00,0.1110
601.00,0.1108
600.00,0.1106
599.00,0.1104
598.00,0.1102
597.00,0.1100
596.00,0.1099
595.00,0.1098
594.00,0.1097
593.00,0.1097
592.00,0.1098
591.00,0.1100
590.00,0.1100
589.00,0.1101
588.00,0.1102
587.00,0.1103
586.00,0.1104
585.00,0.1106
584.00,0.1109
583.00,0.1113
582.00,0.1116
581.00,0.1119
580.00,0.1122
579.00,0.1125
578.00,0.1127
577.00,0.1130
576.00,0.1133
575.00,0.1136
574.00,0.1139
573.00,0.1142
572.00,0.1148
571.00,0.1153
570.00,0.1158
569.00,0.1162
568.00,0.1168
567.00,0.1176
566.00,0.1183
565.00,0.1192
564.00,0.1201
563.00,0.1211
562.00,0.1220
561.00,0.1228
560.00,0.1237
559.00,0.1245
558.00,0.1251
557.00,0.1258
556.00,0.1265
555.00,0.1273
554.00,0.1279
553.00,0.1283
552.00,0.1285
551.00,0.1287
550.00,0.1287
549.00,0.1285
548.00,0.1284
547.00,0.1282
546.00,0.1279
545.00,0.1276
544.00,0.1274
543.00,0.1271
542.00,0.1268
541.00,0.1265
540.00,0.1263
539.00,0.1260
538.00,0.1255
537.00,0.1249
536.00,0.1245
535.00,0.1242
534.00,0.1239
533.00,0.1236
532.00,0.1233
531.00,0.1230
530.00,0.1225
529.00,0.1222
528.00,0.1218
527.00,0.1215
526.00,0.1211
525.00,0.1208
524.00,0.1207
523.00,0.1206
522.00,0.1203
521.00,0.1199
520.00,0.1197
519.00,0.1196
518.00,0.1193
517.00,0.1190
516.00,0.1187
515.00,0.1184
514.00,0.1181
513.00,0.1179
512.00,0.1178
511.00,0.1175
510.00,0.1170
509.00,0.1164
508.00,0.1159
507.00,0.1155
506.00,0.1151
505.00,0.1147
504.00,0.1144
503.00,0.1141
502.00,0.1136
501.00,0.1132
500.00,0.1130
499.00,0.1128
498.00,0.1125
497.00,0.1122
496.00,0.1122
495.00,0.1122
494.00,0.1121
493.00,0.1119
492.00,0.1118
491.00,0.1116
490.00,0.1113
489.00,0.1111
488.00,0.1109
487.00,0.1106
486.00,0.1101
485.00,0.1096
484.00,0.1093
483.00,0.1093
482.00,0.1092
481.00,0.1091
480.00,0.1089
479.00,0.1086
478.00,0.1082
477.00,0.1079
476.00,0.1078
475.00,0.1076
474.00,0.1072
473.00,0.1068
472.00,0.1066
471.00,0.1062
470.00,0.1057
469.00,0.1052
468.00,0.1051
467.00,0.1051
466.00,0.1049
465.00,0.1046
464.00,0.1043
463.00,0.1042
462.00,0.1041
461.00,0.1039
460.00,0.1039
459.00,0.1038
458.00,0.1037
457.00,0.1036
456.00,0.1036
455.00,0.1034
454.00,0.1029
453.00,0.1022
452.00,0.1015
451.00,0.1010
450.00,0.1006
449.00,0.1005
448.00,0.1006
447.00,0.1008
446.00,0.1007
445.00,0.1005
444.00,0.1004
443.00,0.1003
442.00,0.1000
441.00,0.0995
440.00,0.0992
439.00,0.0992
438.00,0.0993
437.00,0.0995
436.00,0.0999
435.00,0.1002
434.00,0.1001
433.00,0.1001
432.00,0.1005
431.00,0.1011
430.00,0.1016
429.00,0.1020
428.00,0.1023
427.00,0.1026
426.00,0.1026
425.00,0.1026
424.00,0.1029
423.00,0.1032
422.00,0.1030
421.00,0.1024
420.00,0.1016
419.00,0.1009
418.00,0.1003
417.00,0.1000
416.00,0.1000
415.00,0.0997
414.00,0.0991
413.00,0.0982
412.00,0.0973
411.00,0.0964
410.00,0.0957
409.00,0.0955
408.00,0.0957
407.00,0.0954
406.00,0.0943
405.00,0.0934
404.00,0.0935
403.00,0.0940
402.00,0.0940
401.00,0.0936
400.00,0.0933
