Created as New Dataset,Sample 083 By YargerLab Date Thursday, August 14 2025
cm-1,A
4000.00,0.0059
3999.00,0.0059
3998.00,0.0059
3997.00,0.0059
3996.00,0.0059
3995.00,0.0059
3994.00,0.0059
3993.00,0.0059
3992.00,0.0059
3991.00,0.0059
3990.00,0.0059
3989.00,0.0059
3988.00,0.0059
3987.00,0.0059
3986.00,0.0059
3985.00,0.0059
3984.00,0.0059
3983.00,0.0059
3982.00,0.0059
3981.00,0.0059
3980.00,0.0059
3979.00,0.0059
3978.00,0.0059
3977.00,0.0059
3976.00,0.0059
3975.00,0.0059
3974.00,0.0059
3973.00,0.0059
3972.00,0.0059
3971.00,0.0059
3970.00,0.0059
3969.00,0.0059
3968.00,0.0059
3967.00,0.0059
3966.00,0.0059
3965.00,0.0059
3964.00,0.0059
3963.00,0.0059
3962.00,0.0059
3961.00,0.0059
3960.00,0.0059
3959.00,0.0059
3958.00,0.0059
3957.00,0.0059
3956.00,0.0059
3955.00,0.0059
3954.00,0.0059
3953.00,0.0059
3952.00,0.0059
3951.00,0.0059
3950.00,0.0059
3949.00,0.0059
3948.00,0.0059
3947.00,0.0059
3946.00,0.0059
3945.00,0.0058
3944.00,0.0059
3943.00,0.0059
3942.00,0.0059
3941.00,0.0059
3940.00,0.0059
3939.00,0.0059
3938.00,0.0059
3937.00,0.0059
3936.00,0.0059
3935.00,0.0059
3934.00,0.0058
3933.00,0.0058
3932.00,0.0058
3931.00,0.0058
3930.00,0.0058
3929.00,0.0058
3928.00,0.0058
3927.00,0.0058
3926.00,0.0058
3925.00,0.0058
3924.00,0.0058
3923.00,0.0058
3922.00,0.0058
3921.00,0.0058
3920.00,0.0058
3919.00,0.0058
3918.00,0.0058
3917.00,0.0058
3916.00,0.0058
3915.00,0.0058
3914.00,0.0058
3913.00,0.0058
3912.00,0.0058
3911.00,0.0058
3910.00,0.0058
3909.00,0.0058
3908.00,0.0058
3907.00,0.0058
3906.00,0.0057
3905.00,0.0057
3904.00,0.0057
3903.00,0.0057
3902.00,0.0057
3901.00,0.0057
3900.00,0.0057
3899.00,0.0058
3898.00,0.0058
3897.00,0.0058
3896.00,0.0058
3895.00,0.0058
3894.00,0.0058
3893.00,0.0058
3892.00,0.0058
3891.00,0.0058
3890.00,0.0058
3889.00,0.0058
3888.00,0.0058
3887.00,0.0057
3886.00,0.0058
3885.00,0.0058
3884.00,0.0058
3883.00,0.0057
3882.00,0.0057
3881.00,0.0057
3880.00,0.0058
3879.00,0.0058
3878.00,0.0058
3877.00,0.0057
3876.00,0.0057
3875.00,0.0057
3874.00,0.0057
3873.00,0.0057
3872.00,0.0057
3871.00,0.0057
3870.00,0.0057
3869.00,0.0057
3868.00,0.0057
3867.00,0.0057
3866.00,0.0057
3865.00,0.0057
3864.00,0.0057
3863.00,0.0057
3862.00,0.0057
3861.00,0.0057
3860.00,0.0057
3859.00,0.0057
3858.00,0.0058
3857.00,0.0057
3856.00,0.0057
3855.00,0.0056
3854.00,0.0056
3853.00,0.0056
3852.00,0.0056
3851.00,0.0056
3850.00,0.0057
3849.00,0.0057
3848.00,0.0058
3847.00,0.0058
3846.00,0.0058
3845.00,0.0058
3844.00,0.0058
3843.00,0.0058
3842.00,0.0058
3841.00,0.0058
3840.00,0.0057
3839.00,0.0057
3838.00,0.0057
3837.00,0.0057
3836.00,0.0057
3835.00,0.0057
3834.00,0.0057
3833.00,0.0058
3832.00,0.0058
3831.00,0.0058
3830.00,0.0058
3829.00,0.0058
3828.00,0.0058
3827.00,0.0059
3826.00,0.0059
3825.00,0.0059
3824.00,0.0058
3823.00,0.0058
3822.00,0.0058
3821.00,0.0058
3820.00,0.0058
3819.00,0.0057
3818.00,0.0057
3817.00,0.0057
3816.00,0.0058
3815.00,0.0059
3814.00,0.0059
3813.00,0.0058
3812.00,0.0058
3811.00,0.0058
3810.00,0.0058
3809.00,0.0058
3808.00,0.0058
3807.00,0.0058
3806.00,0.0058
3805.00,0.0058
3804.00,0.0057
3803.00,0.0057
3802.00,0.0057
3801.00,0.0058
3800.00,0.0057
3799.00,0.0057
3798.00,0.0057
3797.00,0.0057
3796.00,0.0058
3795.00,0.0058
3794.00,0.0058
3793.00,0.0058
3792.00,0.0058
3791.00,0.0058
3790.00,0.0058
3789.00,0.0059
3788.00,0.0058
3787.00,0.0058
3786.00,0.0058
3785.00,0.0058
3784.00,0.0058
3783.00,0.0058
3782.00,0.0058
3781.00,0.0058
3780.00,0.0058
3779.00,0.0058
3778.00,0.0058
3777.00,0.0058
3776.00,0.0058
3775.00,0.0058
3774.00,0.0058
3773.00,0.0058
3772.00,0.0058
3771.00,0.0058
3770.00,0.0058
3769.00,0.0058
3768.00,0.0058
3767.00,0.0058
3766.00,0.0058
3765.00,0.0058
3764.00,0.0058
3763.00,0.0058
3762.00,0.0058
3761.00,0.0058
3760.00,0.0058
3759.00,0.0058
3758.00,0.0058
3757.00,0.0058
3756.00,0.0058
3755.00,0.0058
3754.00,0.0058
3753.00,0.0058
3752.00,0.0058
3751.00,0.0058
3750.00,0.0058
3749.00,0.0058
3748.00,0.0057
3747.00,0.0056
3746.00,0.0056
3745.00,0.0056
3744.00,0.0057
3743.00,0.0057
3742.00,0.0057
3741.00,0.0057
3740.00,0.0057
3739.00,0.0057
3738.00,0.0057
3737.00,0.0057
3736.00,0.0057
3735.00,0.0057
3734.00,0.0057
3733.00,0.0057
3732.00,0.0057
3731.00,0.0058
3730.00,0.0058
3729.00,0.0058
3728.00,0.0058
3727.00,0.0058
3726.00,0.0057
3725.00,0.0057
3724.00,0.0057
3723.00,0.0057
3722.00,0.0057
3721.00,0.0057
3720.00,0.0057
3719.00,0.0057
3718.00,0.0058
3717.00,0.0058
3716.00,0.0058
3715.00,0.0058
3714.00,0.0058
3713.00,0.0058
3712.00,0.0057
3711.00,0.0057
3710.00,0.0057
3709.00,0.0056
3708.00,0.0056
3707.00,0.0057
3706.00,0.0057
3705.00,0.0057
3704.00,0.0057
3703.00,0.0057
3702.00,0.0057
3701.00,0.0058
3700.00,0.0058
3699.00,0.0058
3698.00,0.0058
3697.00,0.0058
3696.00,0.0058
3695.00,0.0058
3694.00,0.0058
3693.00,0.0058
3692.00,0.0058
3691.00,0.0059
3690.00,0.0059
3689.00,0.0059
3688.00,0.0060
3687.00,0.0060
3686.00,0.0060
3685.00,0.0061
3684.00,0.0061
3683.00,0.0062
3682.00,0.0062
3681.00,0.0062
3680.00,0.0063
3679.00,0.0063
3678.00,0.0062
3677.00,0.0062
3676.00,0.0063
3675.00,0.0063
3674.00,0.0064
3673.00,0.0064
3672.00,0.0064
3671.00,0.0064
3670.00,0.0065
3669.00,0.0066
3668.00,0.0066
3667.00,0.0067
3666.00,0.0067
3665.00,0.0067
3664.00,0.0068
3663.00,0.0068
3662.00,0.0069
3661.00,0.0070
3660.00,0.0070
3659.00,0.0070
3658.00,0.0071
3657.00,0.0071
3656.00,0.0072
3655.00,0.0072
3654.00,0.0072
3653.00,0.0072
3652.00,0.0073
3651.00,0.0074
3650.00,0.0074
3649.00,0.0075
3648.00,0.0075
3647.00,0.0076
3646.00,0.0078
3645.00,0.0079
3644.00,0.0080
3643.00,0.0081
3642.00,0.0082
3641.00,0.0083
3640.00,0.0084
3639.00,0.0084
3638.00,0.0085
3637.00,0.0086
3636.00,0.0086
3635.00,0.0087
3634.00,0.0088
3633.00,0.0089
3632.00,0.0090
3631.00,0.0090
3630.00,0.0091
3629.00,0.0092
3628.00,0.0093
3627.00,0.0094
3626.00,0.0094
3625.00,0.0096
3624.00,0.0097
3623.00,0.0099
3622.00,0.0100
3621.00,0.0101
3620.00,0.0102
3619.00,0.0103
3618.00,0.0104
3617.00,0.0105
3616.00,0.0106
3615.00,0.0107
3614.00,0.0109
3613.00,0.0110
3612.00,0.0111
3611.00,0.0113
3610.00,0.0114
3609.00,0.0115
3608.00,0.0117
3607.00,0.0118
3606.00,0.0119
3605.00,0.0121
3604.00,0.0123
3603.00,0.0124
3602.00,0.0126
3601.00,0.0128
3600.00,0.0129
3599.00,0.0131
3598.00,0.0132
3597.00,0.0134
3596.00,0.0136
3595.00,0.0137
3594.00,0.0139
3593.00,0.0140
3592.00,0.0142
3591.00,0.0143
3590.00,0.0145
3589.00,0.0146
3588.00,0.0148
3587.00,0.0149
3586.00,0.0151
3585.00,0.0153
3584.00,0.0155
3583.00,0.0157
3582.00,0.0159
3581.00,0.0161
3580.00,0.0163
3579.00,0.0165
3578.00,0.0167
3577.00,0.0169
3576.00,0.0171
3575.00,0.0173
3574.00,0.0175
3573.00,0.0177
3572.00,0.0179
3571.00,0.0181
3570.00,0.0183
3569.00,0.0185
3568.00,0.0187
3567.00,0.0189
3566.00,0.0190
3565.00,0.0192
3564.00,0.0194
3563.00,0.0196
3562.00,0.0198
3561.00,0.0201
3560.00,0.0203
3559.00,0.0205
3558.00,0.0207
3557.00,0.0209
3556.00,0.0211
3555.00,0.0213
3554.00,0.0215
3553.00,0.0217
3552.00,0.0218
3551.00,0.0220
3550.00,0.0221
3549.00,0.0223
3548.00,0.0226
3547.00,0.0228
3546.00,0.0230
3545.00,0.0232
3544.00,0.0233
3543.00,0.0235
3542.00,0.0236
3541.00,0.0238
3540.00,0.0240
3539.00,0.0242
3538.00,0.0244
3537.00,0.0245
3536.00,0.0247
3535.00,0.0248
3534.00,0.0250
3533.00,0.0251
3532.00,0.0253
3531.00,0.0255
3530.00,0.0256
3529.00,0.0257
3528.00,0.0258
3527.00,0.0259
3526.00,0.0260
3525.00,0.0262
3524.00,0.0263
3523.00,0.0265
3522.00,0.0266
3521.00,0.0268
3520.00,0.0269
3519.00,0.0270
3518.00,0.0271
3517.00,0.0272
3516.00,0.0273
3515.00,0.0274
3514.00,0.0275
3513.00,0.0276
3512.00,0.0277
3511.00,0.0278
3510.00,0.0279
3509.00,0.0280
3508.00,0.0281
3507.00,0.0282
3506.00,0.0283
3505.00,0.0284
3504.00,0.0285
3503.00,0.0286
3502.00,0.0287
3501.00,0.0288
3500.00,0.0289
3499.00,0.0289
3498.00,0.0290
3497.00,0.0291
3496.00,0.0292
3495.00,0.0292
3494.00,0.0293
3493.00,0.0294
3492.00,0.0295
3491.00,0.0296
3490.00,0.0297
3489.00,0.0298
3488.00,0.0298
3487.00,0.0299
3486.00,0.0299
3485.00,0.0300
3484.00,0.0301
3483.00,0.0301
3482.00,0.0302
3481.00,0.0303
3480.00,0.0303
3479.00,0.0304
3478.00,0.0304
3477.00,0.0305
3476.00,0.0305
3475.00,0.0306
3474.00,0.0307
3473.00,0.0307
3472.00,0.0308
3471.00,0.0309
3470.00,0.0310
3469.00,0.0310
3468.00,0.0311
3467.00,0.0311
3466.00,0.0312
3465.00,0.0312
3464.00,0.0313
3463.00,0.0314
3462.00,0.0314
3461.00,0.0315
3460.00,0.0315
3459.00,0.0315
3458.00,0.0316
3457.00,0.0316
3456.00,0.0317
3455.00,0.0317
3454.00,0.0317
3453.00,0.0318
3452.00,0.0318
3451.00,0.0319
3450.00,0.0320
3449.00,0.0320
3448.00,0.0321
3447.00,0.0321
3446.00,0.0321
3445.00,0.0322
3444.00,0.0322
3443.00,0.0322
3442.00,0.0323
3441.00,0.0323
3440.00,0.0324
3439.00,0.0324
3438.00,0.0324
3437.00,0.0325
3436.00,0.0325
3435.00,0.0325
3434.00,0.0326
3433.00,0.0326
3432.00,0.0326
3431.00,0.0326
3430.00,0.0326
3429.00,0.0326
3428.00,0.0326
3427.00,0.0326
3426.00,0.0326
3425.00,0.0326
3424.00,0.0326
3423.00,0.0327
3422.00,0.0327
3421.00,0.0327
3420.00,0.0327
3419.00,0.0327
3418.00,0.0327
3417.00,0.0327
3416.00,0.0327
3415.00,0.0327
3414.00,0.0327
3413.00,0.0327
3412.00,0.0327
3411.00,0.0327
3410.00,0.0327
3409.00,0.0327
3408.00,0.0326
3407.00,0.0326
3406.00,0.0326
3405.00,0.0325
3404.00,0.0325
3403.00,0.0325
3402.00,0.0324
3401.00,0.0324
3400.00,0.0324
3399.00,0.0323
3398.00,0.0323
3397.00,0.0322
3396.00,0.0322
3395.00,0.0321
3394.00,0.0321
3393.00,0.0321
3392.00,0.0320
3391.00,0.0320
3390.00,0.0319
3389.00,0.0319
3388.00,0.0318
3387.00,0.0318
3386.00,0.0317
3385.00,0.0316
3384.00,0.0315
3383.00,0.0315
3382.00,0.0314
3381.00,0.0313
3380.00,0.0312
3379.00,0.0312
3378.00,0.0311
3377.00,0.0310
3376.00,0.0309
3375.00,0.0308
3374.00,0.0308
3373.00,0.0307
3372.00,0.0306
3371.00,0.0305
3370.00,0.0303
3369.00,0.0303
3368.00,0.0302
3367.00,0.0301
3366.00,0.0301
3365.00,0.0300
3364.00,0.0299
3363.00,0.0298
3362.00,0.0297
3361.00,0.0296
3360.00,0.0296
3359.00,0.0295
3358.00,0.0294
3357.00,0.0293
3356.00,0.0293
3355.00,0.0292
3354.00,0.0291
3353.00,0.0290
3352.00,0.0288
3351.00,0.0288
3350.00,0.0287
3349.00,0.0286
3348.00,0.0286
3347.00,0.0285
3346.00,0.0285
3345.00,0.0284
3344.00,0.0283
3343.00,0.0282
3342.00,0.0281
3341.00,0.0280
3340.00,0.0279
3339.00,0.0278
3338.00,0.0278
3337.00,0.0277
3336.00,0.0278
3335.00,0.0278
3334.00,0.0278
3333.00,0.0277
3332.00,0.0277
3331.00,0.0276
3330.00,0.0276
3329.00,0.0275
3328.00,0.0274
3327.00,0.0273
3326.00,0.0272
3325.00,0.0271
3324.00,0.0271
3323.00,0.0271
3322.00,0.0272
3321.00,0.0272
3320.00,0.0272
3319.00,0.0272
3318.00,0.0271
3317.00,0.0271
3316.00,0.0270
3315.00,0.0269
3314.00,0.0269
3313.00,0.0268
3312.00,0.0267
3311.00,0.0266
3310.00,0.0265
3309.00,0.0263
3308.00,0.0262
3307.00,0.0262
3306.00,0.0261
3305.00,0.0262
3304.00,0.0262
3303.00,0.0264
3302.00,0.0264
3301.00,0.0265
3300.00,0.0265
3299.00,0.0264
3298.00,0.0262
3297.00,0.0261
3296.00,0.0260
3295.00,0.0259
3294.00,0.0259
3293.00,0.0259
3292.00,0.0259
3291.00,0.0260
3290.00,0.0261
3289.00,0.0261
3288.00,0.0261
3287.00,0.0261
3286.00,0.0261
3285.00,0.0261
3284.00,0.0260
3283.00,0.0260
3282.00,0.0259
3281.00,0.0258
3280.00,0.0257
3279.00,0.0257
3278.00,0.0256
3277.00,0.0255
3276.00,0.0254
3275.00,0.0252
3274.00,0.0251
3273.00,0.0250
3272.00,0.0249
3271.00,0.0249
3270.00,0.0249
3269.00,0.0249
3268.00,0.0250
3267.00,0.0250
3266.00,0.0249
3265.00,0.0249
3264.00,0.0248
3263.00,0.0247
3262.00,0.0246
3261.00,0.0246
3260.00,0.0245
3259.00,0.0244
3258.00,0.0242
3257.00,0.0241
3256.00,0.0241
3255.00,0.0240
3254.00,0.0240
3253.00,0.0239
3252.00,0.0239
3251.00,0.0237
3250.00,0.0236
3249.00,0.0234
3248.00,0.0233
3247.00,0.0232
3246.00,0.0231
3245.00,0.0230
3244.00,0.0230
3243.00,0.0229
3242.00,0.0229
3241.00,0.0228
3240.00,0.0227
3239.00,0.0226
3238.00,0.0224
3237.00,0.0223
3236.00,0.0221
3235.00,0.0220
3234.00,0.0219
3233.00,0.0218
3232.00,0.0218
3231.00,0.0217
3230.00,0.0216
3229.00,0.0215
3228.00,0.0215
3227.00,0.0214
3226.00,0.0213
3225.00,0.0212
3224.00,0.0211
3223.00,0.0210
3222.00,0.0209
3221.00,0.0208
3220.00,0.0207
3219.00,0.0205
3218.00,0.0204
3217.00,0.0203
3216.00,0.0202
3215.00,0.0202
3214.00,0.0201
3213.00,0.0200
3212.00,0.0199
3211.00,0.0198
3210.00,0.0197
3209.00,0.0195
3208.00,0.0194
3207.00,0.0193
3206.00,0.0192
3205.00,0.0191
3204.00,0.0190
3203.00,0.0189
3202.00,0.0188
3201.00,0.0188
3200.00,0.0187
3199.00,0.0186
3198.00,0.0185
3197.00,0.0184
3196.00,0.0183
3195.00,0.0182
3194.00,0.0181
3193.00,0.0180
3192.00,0.0179
3191.00,0.0178
3190.00,0.0177
3189.00,0.0176
3188.00,0.0175
3187.00,0.0174
3186.00,0.0173
3185.00,0.0172
3184.00,0.0171
3183.00,0.0171
3182.00,0.0170
3181.00,0.0169
3180.00,0.0168
3179.00,0.0168
3178.00,0.0167
3177.00,0.0166
3176.00,0.0165
3175.00,0.0164
3174.00,0.0164
3173.00,0.0163
3172.00,0.0162
3171.00,0.0161
3170.00,0.0160
3169.00,0.0159
3168.00,0.0159
3167.00,0.0158
3166.00,0.0157
3165.00,0.0156
3164.00,0.0156
3163.00,0.0155
3162.00,0.0154
3161.00,0.0153
3160.00,0.0153
3159.00,0.0153
3158.00,0.0152
3157.00,0.0151
3156.00,0.0150
3155.00,0.0149
3154.00,0.0148
3153.00,0.0148
3152.00,0.0147
3151.00,0.0147
3150.00,0.0146
3149.00,0.0146
3148.00,0.0145
3147.00,0.0145
3146.00,0.0144
3145.00,0.0143
3144.00,0.0143
3143.00,0.0142
3142.00,0.0141
3141.00,0.0141
3140.00,0.0140
3139.00,0.0140
3138.00,0.0140
3137.00,0.0139
3136.00,0.0139
3135.00,0.0138
3134.00,0.0137
3133.00,0.0137
3132.00,0.0136
3131.00,0.0136
3130.00,0.0136
3129.00,0.0136
3128.00,0.0135
3127.00,0.0135
3126.00,0.0134
3125.00,0.0134
3124.00,0.0134
3123.00,0.0133
3122.00,0.0133
3121.00,0.0132
3120.00,0.0132
3119.00,0.0131
3118.00,0.0131
3117.00,0.0130
3116.00,0.0130
3115.00,0.0129
3114.00,0.0129
3113.00,0.0128
3112.00,0.0127
3111.00,0.0127
3110.00,0.0127
3109.00,0.0127
3108.00,0.0127
3107.00,0.0126
3106.00,0.0126
3105.00,0.0125
3104.00,0.0125
3103.00,0.0125
3102.00,0.0124
3101.00,0.0124
3100.00,0.0124
3099.00,0.0124
3098.00,0.0123
3097.00,0.0123
3096.00,0.0122
3095.00,0.0122
3094.00,0.0121
3093.00,0.0121
3092.00,0.0120
3091.00,0.0120
3090.00,0.0119
3089.00,0.0119
3088.00,0.0119
3087.00,0.0118
3086.00,0.0118
3085.00,0.0117
3084.00,0.0117
3083.00,0.0117
3082.00,0.0116
3081.00,0.0116
3080.00,0.0116
3079.00,0.0115
3078.00,0.0115
3077.00,0.0115
3076.00,0.0115
3075.00,0.0114
3074.00,0.0114
3073.00,0.0114
3072.00,0.0113
3071.00,0.0113
3070.00,0.0112
3069.00,0.0112
3068.00,0.0112
3067.00,0.0112
3066.00,0.0112
3065.00,0.0111
3064.00,0.0111
3063.00,0.0111
3062.00,0.0111
3061.00,0.0111
3060.00,0.0110
3059.00,0.0110
3058.00,0.0110
3057.00,0.0109
3056.00,0.0109
3055.00,0.0109
3054.00,0.0109
3053.00,0.0109
3052.00,0.0108
3051.00,0.0108
3050.00,0.0108
3049.00,0.0108
3048.00,0.0108
3047.00,0.0107
3046.00,0.0107
3045.00,0.0107
3044.00,0.0107
3043.00,0.0106
3042.00,0.0106
3041.00,0.0106
3040.00,0.0106
3039.00,0.0106
3038.00,0.0106
3037.00,0.0106
3036.00,0.0106
3035.00,0.0106
3034.00,0.0106
3033.00,0.0106
3032.00,0.0106
3031.00,0.0106
3030.00,0.0106
3029.00,0.0106
3028.00,0.0106
3027.00,0.0106
3026.00,0.0106
3025.00,0.0106
3024.00,0.0106
3023.00,0.0107
3022.00,0.0107
3021.00,0.0108
3020.00,0.0108
3019.00,0.0109
3018.00,0.0109
3017.00,0.0110
3016.00,0.0111
3015.00,0.0111
3014.00,0.0112
3013.00,0.0113
3012.00,0.0114
3011.00,0.0115
3010.00,0.0117
3009.00,0.0119
3008.00,0.0120
3007.00,0.0122
3006.00,0.0125
3005.00,0.0127
3004.00,0.0129
3003.00,0.0132
3002.00,0.0134
3001.00,0.0137
3000.00,0.0140
2999.00,0.0143
2998.00,0.0146
2997.00,0.0150
2996.00,0.0153
2995.00,0.0157
2994.00,0.0160
2993.00,0.0164
2992.00,0.0168
2991.00,0.0171
2990.00,0.0175
2989.00,0.0178
2988.00,0.0181
2987.00,0.0184
2986.00,0.0187
2985.00,0.0190
2984.00,0.0192
2983.00,0.0195
2982.00,0.0197
2981.00,0.0199
2980.00,0.0201
2979.00,0.0203
2978.00,0.0205
2977.00,0.0207
2976.00,0.0209
2975.00,0.0211
2974.00,0.0213
2973.00,0.0215
2972.00,0.0218
2971.00,0.0220
2970.00,0.0222
2969.00,0.0225
2968.00,0.0227
2967.00,0.0230
2966.00,0.0232
2965.00,0.0235
2964.00,0.0237
2963.00,0.0240
2962.00,0.0243
2961.00,0.0245
2960.00,0.0248
2959.00,0.0250
2958.00,0.0252
2957.00,0.0254
2956.00,0.0256
2955.00,0.0258
2954.00,0.0259
2953.00,0.0260
2952.00,0.0261
2951.00,0.0261
2950.00,0.0261
2949.00,0.0260
2948.00,0.0259
2947.00,0.0258
2946.00,0.0257
2945.00,0.0255
2944.00,0.0253
2943.00,0.0250
2942.00,0.0248
2941.00,0.0246
2940.00,0.0244
2939.00,0.0242
2938.00,0.0240
2937.00,0.0238
2936.00,0.0237
2935.00,0.0236
2934.00,0.0235
2933.00,0.0234
2932.00,0.0234
2931.00,0.0233
2930.00,0.0233
2929.00,0.0234
2928.00,0.0234
2927.00,0.0235
2926.00,0.0235
2925.00,0.0236
2924.00,0.0236
2923.00,0.0237
2922.00,0.0237
2921.00,0.0237
2920.00,0.0237
2919.00,0.0236
2918.00,0.0235
2917.00,0.0234
2916.00,0.0232
2915.00,0.0231
2914.00,0.0229
2913.00,0.0228
2912.00,0.0227
2911.00,0.0225
2910.00,0.0224
2909.00,0.0222
2908.00,0.0221
2907.00,0.0220
2906.00,0.0218
2905.00,0.0218
2904.00,0.0217
2903.00,0.0217
2902.00,0.0218
2901.00,0.0218
2900.00,0.0219
2899.00,0.0219
2898.00,0.0220
2897.00,0.0221
2896.00,0.0222
2895.00,0.0223
2894.00,0.0223
2893.00,0.0224
2892.00,0.0225
2891.00,0.0225
2890.00,0.0225
2889.00,0.0226
2888.00,0.0226
2887.00,0.0226
2886.00,0.0226
2885.00,0.0226
2884.00,0.0226
2883.00,0.0225
2882.00,0.0225
2881.00,0.0224
2880.00,0.0224
2879.00,0.0223
2878.00,0.0222
2877.00,0.0221
2876.00,0.0220
2875.00,0.0219
2874.00,0.0217
2873.00,0.0216
2872.00,0.0215
2871.00,0.0214
2870.00,0.0213
2869.00,0.0212
2868.00,0.0211
2867.00,0.0210
2866.00,0.0208
2865.00,0.0207
2864.00,0.0206
2863.00,0.0204
2862.00,0.0202
2861.00,0.0200
2860.00,0.0197
2859.00,0.0195
2858.00,0.0192
2857.00,0.0189
2856.00,0.0186
2855.00,0.0184
2854.00,0.0181
2853.00,0.0178
2852.00,0.0175
2851.00,0.0172
2850.00,0.0169
2849.00,0.0166
2848.00,0.0164
2847.00,0.0162
2846.00,0.0160
2845.00,0.0158
2844.00,0.0156
2843.00,0.0154
2842.00,0.0152
2841.00,0.0150
2840.00,0.0149
2839.00,0.0147
2838.00,0.0145
2837.00,0.0144
2836.00,0.0143
2835.00,0.0141
2834.00,0.0140
2833.00,0.0139
2832.00,0.0138
2831.00,0.0136
2830.00,0.0135
2829.00,0.0133
2828.00,0.0132
2827.00,0.0130
2826.00,0.0129
2825.00,0.0128
2824.00,0.0126
2823.00,0.0125
2822.00,0.0124
2821.00,0.0123
2820.00,0.0122
2819.00,0.0121
2818.00,0.0120
2817.00,0.0119
2816.00,0.0118
2815.00,0.0117
2814.00,0.0117
2813.00,0.0116
2812.00,0.0115
2811.00,0.0115
2810.00,0.0114
2809.00,0.0113
2808.00,0.0113
2807.00,0.0113
2806.00,0.0112
2805.00,0.0112
2804.00,0.0112
2803.00,0.0111
2802.00,0.0110
2801.00,0.0110
2800.00,0.0110
2799.00,0.0109
2798.00,0.0109
2797.00,0.0108
2796.00,0.0108
2795.00,0.0108
2794.00,0.0108
2793.00,0.0108
2792.00,0.0107
2791.00,0.0107
2790.00,0.0106
2789.00,0.0106
2788.00,0.0106
2787.00,0.0106
2786.00,0.0106
2785.00,0.0106
2784.00,0.0105
2783.00,0.0105
2782.00,0.0105
2781.00,0.0105
2780.00,0.0104
2779.00,0.0104
2778.00,0.0104
2777.00,0.0103
2776.00,0.0103
2775.00,0.0103
2774.00,0.0103
2773.00,0.0103
2772.00,0.0103
2771.00,0.0103
2770.00,0.0102
2769.00,0.0102
2768.00,0.0102
2767.00,0.0102
2766.00,0.0102
2765.00,0.0102
2764.00,0.0102
2763.00,0.0101
2762.00,0.0101
2761.00,0.0101
2760.00,0.0101
2759.00,0.0101
2758.00,0.0101
2757.00,0.0101
2756.00,0.0101
2755.00,0.0101
2754.00,0.0100
2753.00,0.0100
2752.00,0.0100
2751.00,0.0100
2750.00,0.0100
2749.00,0.0100
2748.00,0.0100
2747.00,0.0100
2746.00,0.0100
2745.00,0.0100
2744.00,0.0100
2743.00,0.0100
2742.00,0.0100
2741.00,0.0100
2740.00,0.0100
2739.00,0.0099
2738.00,0.0099
2737.00,0.0099
2736.00,0.0099
2735.00,0.0099
2734.00,0.0099
2733.00,0.0099
2732.00,0.0099
2731.00,0.0099
2730.00,0.0099
2729.00,0.0099
2728.00,0.0098
2727.00,0.0098
2726.00,0.0098
2725.00,0.0098
2724.00,0.0098
2723.00,0.0098
2722.00,0.0098
2721.00,0.0098
2720.00,0.0098
2719.00,0.0098
2718.00,0.0098
2717.00,0.0098
2716.00,0.0098
2715.00,0.0098
2714.00,0.0097
2713.00,0.0097
2712.00,0.0097
2711.00,0.0097
2710.00,0.0097
2709.00,0.0097
2708.00,0.0097
2707.00,0.0097
2706.00,0.0097
2705.00,0.0097
2704.00,0.0096
2703.00,0.0096
2702.00,0.0096
2701.00,0.0096
2700.00,0.0096
2699.00,0.0096
2698.00,0.0096
2697.00,0.0096
2696.00,0.0096
2695.00,0.0096
2694.00,0.0096
2693.00,0.0095
2692.00,0.0095
2691.00,0.0095
2690.00,0.0095
2689.00,0.0095
2688.00,0.0095
2687.00,0.0095
2686.00,0.0095
2685.00,0.0094
2684.00,0.0094
2683.00,0.0094
2682.00,0.0094
2681.00,0.0094
2680.00,0.0094
2679.00,0.0094
2678.00,0.0094
2677.00,0.0094
2676.00,0.0094
2675.00,0.0095
2674.00,0.0095
2673.00,0.0094
2672.00,0.0094
2671.00,0.0094
2670.00,0.0094
2669.00,0.0095
2668.00,0.0095
2667.00,0.0095
2666.00,0.0096
2665.00,0.0096
2664.00,0.0097
2663.00,0.0097
2662.00,0.0098
2661.00,0.0098
2660.00,0.0098
2659.00,0.0098
2658.00,0.0098
2657.00,0.0098
2656.00,0.0098
2655.00,0.0098
2654.00,0.0098
2653.00,0.0098
2652.00,0.0098
2651.00,0.0098
2650.00,0.0098
2649.00,0.0098
2648.00,0.0098
2647.00,0.0098
2646.00,0.0098
2645.00,0.0098
2644.00,0.0098
2643.00,0.0098
2642.00,0.0098
2641.00,0.0098
2640.00,0.0097
2639.00,0.0097
2638.00,0.0097
2637.00,0.0097
2636.00,0.0097
2635.00,0.0097
2634.00,0.0097
2633.00,0.0097
2632.00,0.0097
2631.00,0.0097
2630.00,0.0096
2629.00,0.0096
2628.00,0.0096
2627.00,0.0096
2626.00,0.0096
2625.00,0.0096
2624.00,0.0096
2623.00,0.0096
2622.00,0.0096
2621.00,0.0096
2620.00,0.0096
2619.00,0.0095
2618.00,0.0095
2617.00,0.0095
2616.00,0.0095
2615.00,0.0095
2614.00,0.0095
2613.00,0.0095
2612.00,0.0095
2611.00,0.0095
2610.00,0.0094
2609.00,0.0094
2608.00,0.0094
2607.00,0.0094
2606.00,0.0094
2605.00,0.0094
2604.00,0.0094
2603.00,0.0094
2602.00,0.0094
2601.00,0.0094
2600.00,0.0094
2599.00,0.0094
2598.00,0.0094
2597.00,0.0094
2596.00,0.0094
2595.00,0.0094
2594.00,0.0095
2593.00,0.0095
2592.00,0.0095
2591.00,0.0094
2590.00,0.0094
2589.00,0.0094
2588.00,0.0093
2587.00,0.0094
2586.00,0.0094
2585.00,0.0094
2584.00,0.0094
2583.00,0.0094
2582.00,0.0094
2581.00,0.0094
2580.00,0.0094
2579.00,0.0094
2578.00,0.0094
2577.00,0.0094
2576.00,0.0094
2575.00,0.0094
2574.00,0.0094
2573.00,0.0094
2572.00,0.0094
2571.00,0.0094
2570.00,0.0094
2569.00,0.0093
2568.00,0.0093
2567.00,0.0093
2566.00,0.0093
2565.00,0.0093
2564.00,0.0093
2563.00,0.0093
2562.00,0.0093
2561.00,0.0093
2560.00,0.0093
2559.00,0.0093
2558.00,0.0093
2557.00,0.0093
2556.00,0.0093
2555.00,0.0093
2554.00,0.0092
2553.00,0.0092
2552.00,0.0092
2551.00,0.0091
2550.00,0.0091
2549.00,0.0091
2548.00,0.0091
2547.00,0.0091
2546.00,0.0091
2545.00,0.0091
2544.00,0.0091
2543.00,0.0092
2542.00,0.0091
2541.00,0.0091
2540.00,0.0091
2539.00,0.0092
2538.00,0.0092
2537.00,0.0091
2536.00,0.0091
2535.00,0.0091
2534.00,0.0091
2533.00,0.0090
2532.00,0.0090
2531.00,0.0090
2530.00,0.0090
2529.00,0.0090
2528.00,0.0090
2527.00,0.0090
2526.00,0.0090
2525.00,0.0089
2524.00,0.0089
2523.00,0.0089
2522.00,0.0089
2521.00,0.0089
2520.00,0.0089
2519.00,0.0089
2518.00,0.0089
2517.00,0.0089
2516.00,0.0089
2515.00,0.0090
2514.00,0.0090
2513.00,0.0090
2512.00,0.0090
2511.00,0.0090
2510.00,0.0090
2509.00,0.0089
2508.00,0.0089
2507.00,0.0089
2506.00,0.0089
2505.00,0.0089
2504.00,0.0089
2503.00,0.0089
2502.00,0.0089
2501.00,0.0089
2500.00,0.0089
2499.00,0.0089
2498.00,0.0089
2497.00,0.0089
2496.00,0.0089
2495.00,0.0089
2494.00,0.0089
2493.00,0.0089
2492.00,0.0089
2491.00,0.0089
2490.00,0.0089
2489.00,0.0089
2488.00,0.0089
2487.00,0.0090
2486.00,0.0090
2485.00,0.0090
2484.00,0.0089
2483.00,0.0089
2482.00,0.0089
2481.00,0.0089
2480.00,0.0088
2479.00,0.0088
2478.00,0.0088
2477.00,0.0088
2476.00,0.0088
2475.00,0.0088
2474.00,0.0088
2473.00,0.0088
2472.00,0.0088
2471.00,0.0088
2470.00,0.0088
2469.00,0.0088
2468.00,0.0088
2467.00,0.0088
2466.00,0.0088
2465.00,0.0088
2464.00,0.0088
2463.00,0.0088
2462.00,0.0088
2461.00,0.0089
2460.00,0.0089
2459.00,0.0089
2458.00,0.0090
2457.00,0.0090
2456.00,0.0090
2455.00,0.0090
2454.00,0.0089
2453.00,0.0089
2452.00,0.0089
2451.00,0.0089
2450.00,0.0089
2449.00,0.0089
2448.00,0.0089
2447.00,0.0089
2446.00,0.0089
2445.00,0.0089
2444.00,0.0089
2443.00,0.0089
2442.00,0.0089
2441.00,0.0089
2440.00,0.0089
2439.00,0.0090
2438.00,0.0090
2437.00,0.0089
2436.00,0.0089
2435.00,0.0089
2434.00,0.0089
2433.00,0.0089
2432.00,0.0089
2431.00,0.0089
2430.00,0.0089
2429.00,0.0088
2428.00,0.0088
2427.00,0.0089
2426.00,0.0089
2425.00,0.0089
2424.00,0.0089
2423.00,0.0088
2422.00,0.0088
2421.00,0.0088
2420.00,0.0089
2419.00,0.0089
2418.00,0.0088
2417.00,0.0088
2416.00,0.0089
2415.00,0.0089
2414.00,0.0089
2413.00,0.0089
2412.00,0.0089
2411.00,0.0089
2410.00,0.0089
2409.00,0.0089
2408.00,0.0089
2407.00,0.0089
2406.00,0.0088
2405.00,0.0088
2404.00,0.0088
2403.00,0.0089
2402.00,0.0089
2401.00,0.0089
2400.00,0.0089
2399.00,0.0089
2398.00,0.0088
2397.00,0.0088
2396.00,0.0088
2395.00,0.0088
2394.00,0.0088
2393.00,0.0088
2392.00,0.0089
2391.00,0.0089
2390.00,0.0089
2389.00,0.0088
2388.00,0.0088
2387.00,0.0088
2386.00,0.0087
2385.00,0.0087
2384.00,0.0087
2383.00,0.0087
2382.00,0.0087
2381.00,0.0087
2380.00,0.0087
2379.00,0.0087
2378.00,0.0087
2377.00,0.0087
2376.00,0.0087
2375.00,0.0087
2374.00,0.0087
2373.00,0.0087
2372.00,0.0087
2371.00,0.0087
2370.00,0.0087
2369.00,0.0087
2368.00,0.0087
2367.00,0.0087
2366.00,0.0087
2365.00,0.0087
2364.00,0.0088
2363.00,0.0088
2362.00,0.0088
2361.00,0.0089
2360.00,0.0089
2359.00,0.0089
2358.00,0.0089
2357.00,0.0089
2356.00,0.0088
2355.00,0.0088
2354.00,0.0088
2353.00,0.0088
2352.00,0.0088
2351.00,0.0089
2350.00,0.0090
2349.00,0.0090
2348.00,0.0091
2347.00,0.0091
2346.00,0.0091
2345.00,0.0091
2344.00,0.0092
2343.00,0.0092
2342.00,0.0092
2341.00,0.0092
2340.00,0.0093
2339.00,0.0093
2338.00,0.0093
2337.00,0.0093
2336.00,0.0093
2335.00,0.0093
2334.00,0.0092
2333.00,0.0092
2332.00,0.0092
2331.00,0.0093
2330.00,0.0093
2329.00,0.0095
2328.00,0.0098
2327.00,0.0102
2326.00,0.0104
2325.00,0.0105
2324.00,0.0104
2323.00,0.0103
2322.00,0.0101
2321.00,0.0100
2320.00,0.0099
2319.00,0.0099
2318.00,0.0098
2317.00,0.0098
2316.00,0.0098
2315.00,0.0098
2314.00,0.0097
2313.00,0.0097
2312.00,0.0097
2311.00,0.0096
2310.00,0.0096
2309.00,0.0096
2308.00,0.0096
2307.00,0.0096
2306.00,0.0096
2305.00,0.0096
2304.00,0.0096
2303.00,0.0096
2302.00,0.0096
2301.00,0.0097
2300.00,0.0097
2299.00,0.0098
2298.00,0.0098
2297.00,0.0098
2296.00,0.0099
2295.00,0.0099
2294.00,0.0100
2293.00,0.0100
2292.00,0.0101
2291.00,0.0102
2290.00,0.0103
2289.00,0.0103
2288.00,0.0104
2287.00,0.0103
2286.00,0.0102
2285.00,0.0101
2284.00,0.0101
2283.00,0.0100
2282.00,0.0100
2281.00,0.0099
2280.00,0.0099
2279.00,0.0099
2278.00,0.0099
2277.00,0.0098
2276.00,0.0098
2275.00,0.0098
2274.00,0.0098
2273.00,0.0098
2272.00,0.0098
2271.00,0.0098
2270.00,0.0097
2269.00,0.0096
2268.00,0.0095
2267.00,0.0094
2266.00,0.0094
2265.00,0.0094
2264.00,0.0095
2263.00,0.0095
2262.00,0.0096
2261.00,0.0096
2260.00,0.0096
2259.00,0.0095
2258.00,0.0095
2257.00,0.0094
2256.00,0.0093
2255.00,0.0092
2254.00,0.0092
2253.00,0.0093
2252.00,0.0094
2251.00,0.0094
2250.00,0.0095
2249.00,0.0095
2248.00,0.0095
2247.00,0.0095
2246.00,0.0095
2245.00,0.0095
2244.00,0.0095
2243.00,0.0095
2242.00,0.0095
2241.00,0.0094
2240.00,0.0094
2239.00,0.0094
2238.00,0.0094
2237.00,0.0094
2236.00,0.0095
2235.00,0.0096
2234.00,0.0096
2233.00,0.0096
2232.00,0.0096
2231.00,0.0096
2230.00,0.0096
2229.00,0.0096
2228.00,0.0096
2227.00,0.0096
2226.00,0.0096
2225.00,0.0095
2224.00,0.0095
2223.00,0.0095
2222.00,0.0095
2221.00,0.0094
2220.00,0.0093
2219.00,0.0093
2218.00,0.0093
2217.00,0.0093
2216.00,0.0094
2215.00,0.0094
2214.00,0.0094
2213.00,0.0093
2212.00,0.0094
2211.00,0.0095
2210.00,0.0095
2209.00,0.0096
2208.00,0.0096
2207.00,0.0096
2206.00,0.0096
2205.00,0.0096
2204.00,0.0095
2203.00,0.0095
2202.00,0.0094
2201.00,0.0094
2200.00,0.0095
2199.00,0.0096
2198.00,0.0096
2197.00,0.0096
2196.00,0.0097
2195.00,0.0099
2194.00,0.0100
2193.00,0.0100
2192.00,0.0100
2191.00,0.0100
2190.00,0.0100
2189.00,0.0101
2188.00,0.0102
2187.00,0.0102
2186.00,0.0101
2185.00,0.0099
2184.00,0.0097
2183.00,0.0095
2182.00,0.0093
2181.00,0.0093
2180.00,0.0095
2179.00,0.0096
2178.00,0.0095
2177.00,0.0094
2176.00,0.0093
2175.00,0.0093
2174.00,0.0094
2173.00,0.0095
2172.00,0.0097
2171.00,0.0099
2170.00,0.0100
2169.00,0.0101
2168.00,0.0103
2167.00,0.0105
2166.00,0.0107
2165.00,0.0110
2164.00,0.0113
2163.00,0.0113
2162.00,0.0108
2161.00,0.0098
2160.00,0.0086
2159.00,0.0076
2158.00,0.0071
2157.00,0.0069
2156.00,0.0071
2155.00,0.0074
2154.00,0.0076
2153.00,0.0079
2152.00,0.0081
2151.00,0.0083
2150.00,0.0083
2149.00,0.0083
2148.00,0.0082
2147.00,0.0081
2146.00,0.0081
2145.00,0.0081
2144.00,0.0082
2143.00,0.0082
2142.00,0.0083
2141.00,0.0083
2140.00,0.0084
2139.00,0.0083
2138.00,0.0082
2137.00,0.0081
2136.00,0.0080
2135.00,0.0079
2134.00,0.0079
2133.00,0.0080
2132.00,0.0081
2131.00,0.0083
2130.00,0.0085
2129.00,0.0086
2128.00,0.0087
2127.00,0.0088
2126.00,0.0088
2125.00,0.0089
2124.00,0.0090
2123.00,0.0092
2122.00,0.0093
2121.00,0.0094
2120.00,0.0095
2119.00,0.0095
2118.00,0.0096
2117.00,0.0096
2116.00,0.0097
2115.00,0.0098
2114.00,0.0098
2113.00,0.0097
2112.00,0.0097
2111.00,0.0097
2110.00,0.0097
2109.00,0.0097
2108.00,0.0097
2107.00,0.0097
2106.00,0.0097
2105.00,0.0096
2104.00,0.0096
2103.00,0.0096
2102.00,0.0096
2101.00,0.0097
2100.00,0.0097
2099.00,0.0097
2098.00,0.0096
2097.00,0.0094
2096.00,0.0092
2095.00,0.0090
2094.00,0.0089
2093.00,0.0089
2092.00,0.0090
2091.00,0.0092
2090.00,0.0093
2089.00,0.0094
2088.00,0.0095
2087.00,0.0095
2086.00,0.0095
2085.00,0.0096
2084.00,0.0096
2083.00,0.0096
2082.00,0.0096
2081.00,0.0096
2080.00,0.0095
2079.00,0.0095
2078.00,0.0095
2077.00,0.0095
2076.00,0.0095
2075.00,0.0094
2074.00,0.0094
2073.00,0.0093
2072.00,0.0093
2071.00,0.0092
2070.00,0.0091
2069.00,0.0090
2068.00,0.0090
2067.00,0.0090
2066.00,0.0090
2065.00,0.0090
2064.00,0.0090
2063.00,0.0090
2062.00,0.0089
2061.00,0.0089
2060.00,0.0090
2059.00,0.0090
2058.00,0.0090
2057.00,0.0091
2056.00,0.0092
2055.00,0.0093
2054.00,0.0095
2053.00,0.0098
2052.00,0.0100
2051.00,0.0099
2050.00,0.0096
2049.00,0.0093
2048.00,0.0091
2047.00,0.0090
2046.00,0.0089
2045.00,0.0088
2044.00,0.0088
2043.00,0.0088
2042.00,0.0088
2041.00,0.0089
2040.00,0.0090
2039.00,0.0091
2038.00,0.0091
2037.00,0.0090
2036.00,0.0090
2035.00,0.0088
2034.00,0.0085
2033.00,0.0082
2032.00,0.0082
2031.00,0.0082
2030.00,0.0081
2029.00,0.0080
2028.00,0.0079
2027.00,0.0079
2026.00,0.0080
2025.00,0.0081
2024.00,0.0082
2023.00,0.0082
2022.00,0.0081
2021.00,0.0080
2020.00,0.0080
2019.00,0.0081
2018.00,0.0081
2017.00,0.0080
2016.00,0.0080
2015.00,0.0080
2014.00,0.0079
2013.00,0.0078
2012.00,0.0078
2011.00,0.0078
2010.00,0.0078
2009.00,0.0076
2008.00,0.0075
2007.00,0.0074
2006.00,0.0073
2005.00,0.0075
2004.00,0.0077
2003.00,0.0078
2002.00,0.0078
2001.00,0.0078
2000.00,0.0078
1999.00,0.0079
1998.00,0.0079
1997.00,0.0079
1996.00,0.0081
1995.00,0.0082
1994.00,0.0082
1993.00,0.0082
1992.00,0.0083
1991.00,0.0083
1990.00,0.0083
1989.00,0.0083
1988.00,0.0083
1987.00,0.0083
1986.00,0.0083
1985.00,0.0084
1984.00,0.0086
1983.00,0.0089
1982.00,0.0091
1981.00,0.0090
1980.00,0.0086
1979.00,0.0081
1978.00,0.0075
1977.00,0.0073
1976.00,0.0073
1975.00,0.0074
1974.00,0.0073
1973.00,0.0073
1972.00,0.0075
1971.00,0.0077
1970.00,0.0078
1969.00,0.0078
1968.00,0.0077
1967.00,0.0075
1966.00,0.0073
1965.00,0.0072
1964.00,0.0073
1963.00,0.0074
1962.00,0.0073
1961.00,0.0072
1960.00,0.0071
1959.00,0.0070
1958.00,0.0070
1957.00,0.0070
1956.00,0.0072
1955.00,0.0073
1954.00,0.0074
1953.00,0.0074
1952.00,0.0074
1951.00,0.0074
1950.00,0.0073
1949.00,0.0072
1948.00,0.0071
1947.00,0.0072
1946.00,0.0072
1945.00,0.0073
1944.00,0.0074
1943.00,0.0074
1942.00,0.0073
1941.00,0.0072
1940.00,0.0072
1939.00,0.0073
1938.00,0.0073
1937.00,0.0074
1936.00,0.0074
1935.00,0.0074
1934.00,0.0074
1933.00,0.0073
1932.00,0.0073
1931.00,0.0074
1930.00,0.0074
1929.00,0.0074
1928.00,0.0074
1927.00,0.0074
1926.00,0.0074
1925.00,0.0074
1924.00,0.0074
1923.00,0.0075
1922.00,0.0075
1921.00,0.0074
1920.00,0.0074
1919.00,0.0073
1918.00,0.0073
1917.00,0.0073
1916.00,0.0074
1915.00,0.0074
1914.00,0.0074
1913.00,0.0074
1912.00,0.0075
1911.00,0.0076
1910.00,0.0076
1909.00,0.0076
1908.00,0.0076
1907.00,0.0076
1906.00,0.0075
1905.00,0.0075
1904.00,0.0074
1903.00,0.0073
1902.00,0.0073
1901.00,0.0073
1900.00,0.0074
1899.00,0.0075
1898.00,0.0075
1897.00,0.0075
1896.00,0.0075
1895.00,0.0074
1894.00,0.0074
1893.00,0.0074
1892.00,0.0074
1891.00,0.0075
1890.00,0.0075
1889.00,0.0074
1888.00,0.0074
1887.00,0.0074
1886.00,0.0074
1885.00,0.0074
1884.00,0.0074
1883.00,0.0075
1882.00,0.0074
1881.00,0.0074
1880.00,0.0074
1879.00,0.0075
1878.00,0.0075
1877.00,0.0075
1876.00,0.0075
1875.00,0.0075
1874.00,0.0074
1873.00,0.0074
1872.00,0.0074
1871.00,0.0074
1870.00,0.0075
1869.00,0.0075
1868.00,0.0075
1867.00,0.0075
1866.00,0.0074
1865.00,0.0073
1864.00,0.0074
1863.00,0.0074
1862.00,0.0074
1861.00,0.0074
1860.00,0.0074
1859.00,0.0074
1858.00,0.0074
1857.00,0.0074
1856.00,0.0074
1855.00,0.0073
1854.00,0.0073
1853.00,0.0072
1852.00,0.0073
1851.00,0.0073
1850.00,0.0073
1849.00,0.0074
1848.00,0.0074
1847.00,0.0073
1846.00,0.0072
1845.00,0.0072
1844.00,0.0073
1843.00,0.0073
1842.00,0.0073
1841.00,0.0073
1840.00,0.0073
1839.00,0.0073
1838.00,0.0073
1837.00,0.0073
1836.00,0.0073
1835.00,0.0073
1834.00,0.0073
1833.00,0.0072
1832.00,0.0072
1831.00,0.0073
1830.00,0.0073
1829.00,0.0073
1828.00,0.0073
1827.00,0.0072
1826.00,0.0071
1825.00,0.0071
1824.00,0.0072
1823.00,0.0072
1822.00,0.0072
1821.00,0.0071
1820.00,0.0070
1819.00,0.0069
1818.00,0.0068
1817.00,0.0068
1816.00,0.0068
1815.00,0.0068
1814.00,0.0069
1813.00,0.0070
1812.00,0.0070
1811.00,0.0071
1810.00,0.0070
1809.00,0.0070
1808.00,0.0070
1807.00,0.0070
1806.00,0.0069
1805.00,0.0069
1804.00,0.0070
1803.00,0.0070
1802.00,0.0070
1801.00,0.0070
1800.00,0.0070
1799.00,0.0071
1798.00,0.0071
1797.00,0.0071
1796.00,0.0071
1795.00,0.0070
1794.00,0.0070
1793.00,0.0069
1792.00,0.0070
1791.00,0.0070
1790.00,0.0070
1789.00,0.0069
1788.00,0.0069
1787.00,0.0069
1786.00,0.0069
1785.00,0.0069
1784.00,0.0070
1783.00,0.0070
1782.00,0.0071
1781.00,0.0071
1780.00,0.0071
1779.00,0.0070
1778.00,0.0070
1777.00,0.0070
1776.00,0.0070
1775.00,0.0070
1774.00,0.0071
1773.00,0.0071
1772.00,0.0072
1771.00,0.0072
1770.00,0.0071
1769.00,0.0071
1768.00,0.0071
1767.00,0.0071
1766.00,0.0071
1765.00,0.0070
1764.00,0.0070
1763.00,0.0070
1762.00,0.0070
1761.00,0.0070
1760.00,0.0071
1759.00,0.0071
1758.00,0.0071
1757.00,0.0071
1756.00,0.0071
1755.00,0.0071
1754.00,0.0071
1753.00,0.0071
1752.00,0.0073
1751.00,0.0075
1750.00,0.0076
1749.00,0.0077
1748.00,0.0077
1747.00,0.0077
1746.00,0.0077
1745.00,0.0077
1744.00,0.0078
1743.00,0.0077
1742.00,0.0076
1741.00,0.0076
1740.00,0.0077
1739.00,0.0078
1738.00,0.0078
1737.00,0.0078
1736.00,0.0078
1735.00,0.0080
1734.00,0.0082
1733.00,0.0083
1732.00,0.0085
1731.00,0.0086
1730.00,0.0085
1729.00,0.0085
1728.00,0.0086
1727.00,0.0088
1726.00,0.0089
1725.00,0.0090
1724.00,0.0092
1723.00,0.0094
1722.00,0.0095
1721.00,0.0097
1720.00,0.0099
1719.00,0.0104
1718.00,0.0108
1717.00,0.0111
1716.00,0.0114
1715.00,0.0117
1714.00,0.0119
1713.00,0.0122
1712.00,0.0127
1711.00,0.0132
1710.00,0.0137
1709.00,0.0143
1708.00,0.0150
1707.00,0.0159
1706.00,0.0168
1705.00,0.0178
1704.00,0.0187
1703.00,0.0196
1702.00,0.0204
1701.00,0.0219
1700.00,0.0243
1699.00,0.0267
1698.00,0.0286
1697.00,0.0305
1696.00,0.0330
1695.00,0.0359
1694.00,0.0385
1693.00,0.0410
1692.00,0.0437
1691.00,0.0469
1690.00,0.0503
1689.00,0.0537
1688.00,0.0571
1687.00,0.0602
1686.00,0.0635
1685.00,0.0676
1684.00,0.0724
1683.00,0.0766
1682.00,0.0801
1681.00,0.0835
1680.00,0.0871
1679.00,0.0906
1678.00,0.0940
1677.00,0.0973
1676.00,0.1011
1675.00,0.1051
1674.00,0.1086
1673.00,0.1120
1672.00,0.1154
1671.00,0.1190
1670.00,0.1224
1669.00,0.1255
1668.00,0.1287
1667.00,0.1318
1666.00,0.1349
1665.00,0.1380
1664.00,0.1414
1663.00,0.1446
1662.00,0.1473
1661.00,0.1499
1660.00,0.1526
1659.00,0.1555
1658.00,0.1583
1657.00,0.1610
1656.00,0.1640
1655.00,0.1670
1654.00,0.1686
1653.00,0.1678
1652.00,0.1670
1651.00,0.1679
1650.00,0.1696
1649.00,0.1714
1648.00,0.1721
1647.00,0.1709
1646.00,0.1683
1645.00,0.1662
1644.00,0.1649
1643.00,0.1640
1642.00,0.1626
1641.00,0.1606
1640.00,0.1585
1639.00,0.1564
1638.00,0.1540
1637.00,0.1504
1636.00,0.1447
1635.00,0.1382
1634.00,0.1331
1633.00,0.1295
1632.00,0.1265
1631.00,0.1234
1630.00,0.1198
1629.00,0.1157
1628.00,0.1114
1627.00,0.1073
1626.00,0.1036
1625.00,0.1002
1624.00,0.0966
1623.00,0.0927
1622.00,0.0892
1621.00,0.0864
1620.00,0.0841
1619.00,0.0820
1618.00,0.0795
1617.00,0.0764
1616.00,0.0733
1615.00,0.0707
1614.00,0.0686
1613.00,0.0668
1612.00,0.0650
1611.00,0.0632
1610.00,0.0613
1609.00,0.0595
1608.00,0.0577
1607.00,0.0560
1606.00,0.0544
1605.00,0.0529
1604.00,0.0515
1603.00,0.0501
1602.00,0.0487
1601.00,0.0475
1600.00,0.0462
1599.00,0.0451
1598.00,0.0440
1597.00,0.0430
1596.00,0.0419
1595.00,0.0409
1594.00,0.0400
1593.00,0.0390
1592.00,0.0382
1591.00,0.0373
1590.00,0.0365
1589.00,0.0357
1588.00,0.0349
1587.00,0.0342
1586.00,0.0335
1585.00,0.0329
1584.00,0.0323
1583.00,0.0317
1582.00,0.0312
1581.00,0.0307
1580.00,0.0303
1579.00,0.0299
1578.00,0.0295
1577.00,0.0291
1576.00,0.0286
1575.00,0.0281
1574.00,0.0277
1573.00,0.0274
1572.00,0.0269
1571.00,0.0266
1570.00,0.0263
1569.00,0.0260
1568.00,0.0258
1567.00,0.0256
1566.00,0.0253
1565.00,0.0251
1564.00,0.0248
1563.00,0.0245
1562.00,0.0241
1561.00,0.0237
1560.00,0.0235
1559.00,0.0234
1558.00,0.0232
1557.00,0.0232
1556.00,0.0231
1555.00,0.0229
1554.00,0.0227
1553.00,0.0226
1552.00,0.0225
1551.00,0.0223
1550.00,0.0222
1549.00,0.0220
1548.00,0.0218
1547.00,0.0216
1546.00,0.0215
1545.00,0.0214
1544.00,0.0213
1543.00,0.0211
1542.00,0.0210
1541.00,0.0209
1540.00,0.0206
1539.00,0.0204
1538.00,0.0203
1537.00,0.0202
1536.00,0.0200
1535.00,0.0198
1534.00,0.0198
1533.00,0.0197
1532.00,0.0196
1531.00,0.0196
1530.00,0.0195
1529.00,0.0194
1528.00,0.0193
1527.00,0.0193
1526.00,0.0192
1525.00,0.0192
1524.00,0.0191
1523.00,0.0191
1522.00,0.0191
1521.00,0.0190
1520.00,0.0190
1519.00,0.0190
1518.00,0.0190
1517.00,0.0190
1516.00,0.0189
1515.00,0.0189
1514.00,0.0189
1513.00,0.0191
1512.00,0.0194
1511.00,0.0198
1510.00,0.0202
1509.00,0.0208
1508.00,0.0215
1507.00,0.0223
1506.00,0.0233
1505.00,0.0245
1504.00,0.0256
1503.00,0.0268
1502.00,0.0282
1501.00,0.0297
1500.00,0.0314
1499.00,0.0333
1498.00,0.0352
1497.00,0.0369
1496.00,0.0383
1495.00,0.0393
1494.00,0.0398
1493.00,0.0400
1492.00,0.0398
1491.00,0.0392
1490.00,0.0380
1489.00,0.0364
1488.00,0.0345
1487.00,0.0326
1486.00,0.0309
1485.00,0.0294
1484.00,0.0281
1483.00,0.0270
1482.00,0.0260
1481.00,0.0253
1480.00,0.0248
1479.00,0.0245
1478.00,0.0245
1477.00,0.0248
1476.00,0.0254
1475.00,0.0263
1474.00,0.0275
1473.00,0.0295
1472.00,0.0321
1471.00,0.0350
1470.00,0.0380
1469.00,0.0413
1468.00,0.0449
1467.00,0.0489
1466.00,0.0534
1465.00,0.0581
1464.00,0.0624
1463.00,0.0656
1462.00,0.0676
1461.00,0.0688
1460.00,0.0691
1459.00,0.0682
1458.00,0.0656
1457.00,0.0614
1456.00,0.0571
1455.00,0.0541
1454.00,0.0521
1453.00,0.0507
1452.00,0.0497
1451.00,0.0493
1450.00,0.0496
1449.00,0.0508
1448.00,0.0527
1447.00,0.0552
1446.00,0.0581
1445.00,0.0612
1444.00,0.0646
1443.00,0.0680
1442.00,0.0713
1441.00,0.0744
1440.00,0.0771
1439.00,0.0793
1438.00,0.0810
1437.00,0.0822
1436.00,0.0829
1435.00,0.0830
1434.00,0.0830
1433.00,0.0829
1432.00,0.0829
1431.00,0.0831
1430.00,0.0838
1429.00,0.0852
1428.00,0.0874
1427.00,0.0901
1426.00,0.0933
1425.00,0.0967
1424.00,0.0997
1423.00,0.1017
1422.00,0.1027
1421.00,0.1025
1420.00,0.1005
1419.00,0.0963
1418.00,0.0909
1417.00,0.0854
1416.00,0.0802
1415.00,0.0750
1414.00,0.0698
1413.00,0.0650
1412.00,0.0603
1411.00,0.0560
1410.00,0.0522
1409.00,0.0490
1408.00,0.0462
1407.00,0.0438
1406.00,0.0417
1405.00,0.0398
1404.00,0.0380
1403.00,0.0366
1402.00,0.0355
1401.00,0.0345
1400.00,0.0337
1399.00,0.0329
1398.00,0.0324
1397.00,0.0319
1396.00,0.0314
1395.00,0.0310
1394.00,0.0307
1393.00,0.0306
1392.00,0.0306
1391.00,0.0306
1390.00,0.0308
1389.00,0.0311
1388.00,0.0316
1387.00,0.0321
1386.00,0.0328
1385.00,0.0334
1384.00,0.0341
1383.00,0.0348
1382.00,0.0356
1381.00,0.0365
1380.00,0.0374
1379.00,0.0383
1378.00,0.0391
1377.00,0.0399
1376.00,0.0405
1375.00,0.0411
1374.00,0.0414
1373.00,0.0416
1372.00,0.0415
1371.00,0.0413
1370.00,0.0410
1369.00,0.0404
1368.00,0.0397
1367.00,0.0388
1366.00,0.0379
1365.00,0.0369
1364.00,0.0359
1363.00,0.0348
1362.00,0.0336
1361.00,0.0325
1360.00,0.0316
1359.00,0.0308
1358.00,0.0301
1357.00,0.0296
1356.00,0.0290
1355.00,0.0285
1354.00,0.0281
1353.00,0.0277
1352.00,0.0273
1351.00,0.0270
1350.00,0.0267
1349.00,0.0265
1348.00,0.0262
1347.00,0.0259
1346.00,0.0258
1345.00,0.0256
1344.00,0.0255
1343.00,0.0255
1342.00,0.0256
1341.00,0.0257
1340.00,0.0258
1339.00,0.0259
1338.00,0.0260
1337.00,0.0261
1336.00,0.0263
1335.00,0.0266
1334.00,0.0270
1333.00,0.0275
1332.00,0.0281
1331.00,0.0289
1330.00,0.0298
1329.00,0.0308
1328.00,0.0319
1327.00,0.0332
1326.00,0.0346
1325.00,0.0360
1324.00,0.0376
1323.00,0.0391
1322.00,0.0406
1321.00,0.0420
1320.00,0.0432
1319.00,0.0441
1318.00,0.0448
1317.00,0.0451
1316.00,0.0451
1315.00,0.0448
1314.00,0.0442
1313.00,0.0433
1312.00,0.0424
1311.00,0.0414
1310.00,0.0405
1309.00,0.0399
1308.00,0.0393
1307.00,0.0391
1306.00,0.0391
1305.00,0.0395
1304.00,0.0403
1303.00,0.0416
1302.00,0.0434
1301.00,0.0460
1300.00,0.0492
1299.00,0.0531
1298.00,0.0579
1297.00,0.0634
1296.00,0.0694
1295.00,0.0759
1294.00,0.0826
1293.00,0.0892
1292.00,0.0955
1291.00,0.1012
1290.00,0.1062
1289.00,0.1101
1288.00,0.1130
1287.00,0.1147
1286.00,0.1152
1285.00,0.1148
1284.00,0.1135
1283.00,0.1116
1282.00,0.1096
1281.00,0.1077
1280.00,0.1062
1279.00,0.1053
1278.00,0.1050
1277.00,0.1053
1276.00,0.1059
1275.00,0.1067
1274.00,0.1075
1273.00,0.1080
1272.00,0.1080
1271.00,0.1074
1270.00,0.1062
1269.00,0.1044
1268.00,0.1020
1267.00,0.0991
1266.00,0.0959
1265.00,0.0925
1264.00,0.0890
1263.00,0.0854
1262.00,0.0820
1261.00,0.0788
1260.00,0.0757
1259.00,0.0728
1258.00,0.0702
1257.00,0.0678
1256.00,0.0656
1255.00,0.0635
1254.00,0.0617
1253.00,0.0601
1252.00,0.0586
1251.00,0.0572
1250.00,0.0561
1249.00,0.0550
1248.00,0.0541
1247.00,0.0534
1246.00,0.0528
1245.00,0.0524
1244.00,0.0521
1243.00,0.0518
1242.00,0.0518
1241.00,0.0518
1240.00,0.0520
1239.00,0.0524
1238.00,0.0528
1237.00,0.0533
1236.00,0.0539
1235.00,0.0545
1234.00,0.0551
1233.00,0.0557
1232.00,0.0561
1231.00,0.0565
1230.00,0.0568
1229.00,0.0569
1228.00,0.0569
1227.00,0.0569
1226.00,0.0567
1225.00,0.0566
1224.00,0.0564
1223.00,0.0562
1222.00,0.0560
1221.00,0.0559
1220.00,0.0557
1219.00,0.0555
1218.00,0.0553
1217.00,0.0550
1216.00,0.0546
1215.00,0.0541
1214.00,0.0535
1213.00,0.0528
1212.00,0.0521
1211.00,0.0513
1210.00,0.0506
1209.00,0.0498
1208.00,0.0491
1207.00,0.0483
1206.00,0.0476
1205.00,0.0469
1204.00,0.0462
1203.00,0.0456
1202.00,0.0450
1201.00,0.0444
1200.00,0.0438
1199.00,0.0433
1198.00,0.0428
1197.00,0.0423
1196.00,0.0418
1195.00,0.0414
1194.00,0.0411
1193.00,0.0407
1192.00,0.0404
1191.00,0.0401
1190.00,0.0399
1189.00,0.0397
1188.00,0.0395
1187.00,0.0394
1186.00,0.0393
1185.00,0.0393
1184.00,0.0393
1183.00,0.0394
1182.00,0.0395
1181.00,0.0397
1180.00,0.0399
1179.00,0.0402
1178.00,0.0405
1177.00,0.0410
1176.00,0.0414
1175.00,0.0419
1174.00,0.0424
1173.00,0.0429
1172.00,0.0433
1171.00,0.0437
1170.00,0.0439
1169.00,0.0440
1168.00,0.0439
1167.00,0.0436
1166.00,0.0433
1165.00,0.0428
1164.00,0.0422
1163.00,0.0416
1162.00,0.0409
1161.00,0.0402
1160.00,0.0395
1159.00,0.0388
1158.00,0.0382
1157.00,0.0376
1156.00,0.0370
1155.00,0.0364
1154.00,0.0359
1153.00,0.0355
1152.00,0.0350
1151.00,0.0346
1150.00,0.0343
1149.00,0.0340
1148.00,0.0336
1147.00,0.0332
1146.00,0.0329
1145.00,0.0327
1144.00,0.0323
1143.00,0.0320
1142.00,0.0316
1141.00,0.0313
1140.00,0.0309
1139.00,0.0305
1138.00,0.0303
1137.00,0.0300
1136.00,0.0298
1135.00,0.0296
1134.00,0.0295
1133.00,0.0294
1132.00,0.0294
1131.00,0.0294
1130.00,0.0295
1129.00,0.0296
1128.00,0.0297
1127.00,0.0297
1126.00,0.0299
1125.00,0.0300
1124.00,0.0301
1123.00,0.0302
1122.00,0.0304
1121.00,0.0305
1120.00,0.0306
1119.00,0.0306
1118.00,0.0307
1117.00,0.0308
1116.00,0.0308
1115.00,0.0309
1114.00,0.0309
1113.00,0.0310
1112.00,0.0310
1111.00,0.0310
1110.00,0.0311
1109.00,0.0311
1108.00,0.0311
1107.00,0.0312
1106.00,0.0312
1105.00,0.0312
1104.00,0.0312
1103.00,0.0312
1102.00,0.0312
1101.00,0.0313
1100.00,0.0313
1099.00,0.0313
1098.00,0.0314
1097.00,0.0315
1096.00,0.0316
1095.00,0.0316
1094.00,0.0318
1093.00,0.0318
1092.00,0.0318
1091.00,0.0318
1090.00,0.0318
1089.00,0.0319
1088.00,0.0319
1087.00,0.0319
1086.00,0.0320
1085.00,0.0321
1084.00,0.0323
1083.00,0.0324
1082.00,0.0326
1081.00,0.0328
1080.00,0.0331
1079.00,0.0333
1078.00,0.0337
1077.00,0.0340
1076.00,0.0342
1075.00,0.0345
1074.00,0.0346
1073.00,0.0347
1072.00,0.0346
1071.00,0.0345
1070.00,0.0344
1069.00,0.0342
1068.00,0.0341
1067.00,0.0339
1066.00,0.0338
1065.00,0.0337
1064.00,0.0334
1063.00,0.0333
1062.00,0.0331
1061.00,0.0330
1060.00,0.0327
1059.00,0.0325
1058.00,0.0323
1057.00,0.0321
1056.00,0.0319
1055.00,0.0317
1054.00,0.0316
1053.00,0.0315
1052.00,0.0314
1051.00,0.0312
1050.00,0.0310
1049.00,0.0309
1048.00,0.0308
1047.00,0.0307
1046.00,0.0306
1045.00,0.0306
1044.00,0.0304
1043.00,0.0304
1042.00,0.0303
1041.00,0.0303
1040.00,0.0303
1039.00,0.0303
1038.00,0.0303
1037.00,0.0303
1036.00,0.0303
1035.00,0.0303
1034.00,0.0303
1033.00,0.0304
1032.00,0.0304
1031.00,0.0305
1030.00,0.0306
1029.00,0.0308
1028.00,0.0310
1027.00,0.0313
1026.00,0.0318
1025.00,0.0322
1024.00,0.0327
1023.00,0.0333
1022.00,0.0340
1021.00,0.0346
1020.00,0.0351
1019.00,0.0354
1018.00,0.0356
1017.00,0.0355
1016.00,0.0352
1015.00,0.0348
1014.00,0.0342
1013.00,0.0335
1012.00,0.0328
1011.00,0.0322
1010.00,0.0317
1009.00,0.0315
1008.00,0.0314
1007.00,0.0315
1006.00,0.0319
1005.00,0.0324
1004.00,0.0329
1003.00,0.0333
1002.00,0.0336
1001.00,0.0337
1000.00,0.0336
999.00,0.0333
998.00,0.0330
997.00,0.0325
996.00,0.0321
995.00,0.0316
994.00,0.0313
993.00,0.0309
992.00,0.0305
991.00,0.0301
990.00,0.0298
989.00,0.0295
988.00,0.0292
987.00,0.0289
986.00,0.0288
985.00,0.0286
984.00,0.0284
983.00,0.0282
982.00,0.0280
981.00,0.0278
980.00,0.0276
979.00,0.0273
978.00,0.0272
977.00,0.0270
976.00,0.0268
975.00,0.0266
974.00,0.0265
973.00,0.0263
972.00,0.0261
971.00,0.0259
970.00,0.0258
969.00,0.0257
968.00,0.0256
967.00,0.0254
966.00,0.0253
965.00,0.0252
964.00,0.0250
963.00,0.0249
962.00,0.0248
961.00,0.0247
960.00,0.0246
959.00,0.0245
958.00,0.0244
957.00,0.0244
956.00,0.0243
955.00,0.0242
954.00,0.0242
953.00,0.0241
952.00,0.0240
951.00,0.0239
950.00,0.0239
949.00,0.0239
948.00,0.0239
947.00,0.0239
946.00,0.0240
945.00,0.0242
944.00,0.0243
943.00,0.0245
942.00,0.0248
941.00,0.0251
940.00,0.0256
939.00,0.0261
938.00,0.0267
937.00,0.0273
936.00,0.0279
935.00,0.0284
934.00,0.0288
933.00,0.0288
932.00,0.0286
931.00,0.0282
930.00,0.0278
929.00,0.0274
928.00,0.0270
927.00,0.0268
926.00,0.0267
925.00,0.0265
924.00,0.0263
923.00,0.0261
922.00,0.0259
921.00,0.0257
920.00,0.0255
919.00,0.0254
918.00,0.0253
917.00,0.0252
916.00,0.0250
915.00,0.0248
914.00,0.0248
913.00,0.0247
912.00,0.0247
911.00,0.0247
910.00,0.0248
909.00,0.0248
908.00,0.0248
907.00,0.0249
906.00,0.0250
905.00,0.0252
904.00,0.0254
903.00,0.0257
902.00,0.0260
901.00,0.0264
900.00,0.0267
899.00,0.0270
898.00,0.0273
897.00,0.0276
896.00,0.0277
895.00,0.0277
894.00,0.0277
893.00,0.0277
892.00,0.0275
891.00,0.0273
890.00,0.0271
889.00,0.0269
888.00,0.0266
887.00,0.0264
886.00,0.0262
885.00,0.0260
884.00,0.0257
883.00,0.0256
882.00,0.0255
881.00,0.0254
880.00,0.0253
879.00,0.0252
878.00,0.0251
877.00,0.0251
876.00,0.0251
875.00,0.0251
874.00,0.0252
873.00,0.0253
872.00,0.0253
871.00,0.0254
870.00,0.0255
869.00,0.0257
868.00,0.0258
867.00,0.0260
866.00,0.0262
865.00,0.0265
864.00,0.0268
863.00,0.0272
862.00,0.0276
861.00,0.0281
860.00,0.0286
859.00,0.0292
858.00,0.0299
857.00,0.0305
856.00,0.0312
855.00,0.0319
854.00,0.0328
853.00,0.0337
852.00,0.0346
851.00,0.0354
850.00,0.0361
849.00,0.0368
848.00,0.0373
847.00,0.0378
846.00,0.0382
845.00,0.0385
844.00,0.0386
843.00,0.0386
842.00,0.0385
841.00,0.0383
840.00,0.0380
839.00,0.0376
838.00,0.0372
837.00,0.0368
836.00,0.0363
835.00,0.0359
834.00,0.0355
833.00,0.0351
832.00,0.0346
831.00,0.0340
830.00,0.0336
829.00,0.0331
828.00,0.0326
827.00,0.0322
826.00,0.0319
825.00,0.0316
824.00,0.0313
823.00,0.0309
822.00,0.0307
821.00,0.0305
820.00,0.0302
819.00,0.0301
818.00,0.0299
817.00,0.0298
816.00,0.0296
815.00,0.0295
814.00,0.0295
813.00,0.0295
812.00,0.0294
811.00,0.0294
810.00,0.0294
809.00,0.0294
808.00,0.0294
807.00,0.0293
806.00,0.0293
805.00,0.0293
804.00,0.0293
803.00,0.0294
802.00,0.0295
801.00,0.0297
800.00,0.0297
799.00,0.0297
798.00,0.0298
797.00,0.0300
796.00,0.0300
795.00,0.0301
794.00,0.0303
793.00,0.0304
792.00,0.0305
791.00,0.0305
790.00,0.0307
789.00,0.0309
788.00,0.0310
787.00,0.0312
786.00,0.0314
785.00,0.0316
784.00,0.0317
783.00,0.0319
782.00,0.0320
781.00,0.0322
780.00,0.0323
779.00,0.0323
778.00,0.0325
777.00,0.0327
776.00,0.0329
775.00,0.0330
774.00,0.0333
773.00,0.0335
772.00,0.0337
771.00,0.0340
770.00,0.0344
769.00,0.0348
768.00,0.0352
767.00,0.0355
766.00,0.0360
765.00,0.0364
764.00,0.0368
763.00,0.0372
762.00,0.0378
761.00,0.0384
760.00,0.0389
759.00,0.0394
758.00,0.0400
757.00,0.0406
756.00,0.0412
755.00,0.0417
754.00,0.0423
753.00,0.0430
752.00,0.0436
751.00,0.0442
750.00,0.0450
749.00,0.0456
748.00,0.0462
747.00,0.0468
746.00,0.0475
745.00,0.0482
744.00,0.0487
743.00,0.0493
742.00,0.0500
741.00,0.0507
740.00,0.0513
739.00,0.0519
738.00,0.0525
737.00,0.0531
736.00,0.0535
735.00,0.0538
734.00,0.0541
733.00,0.0542
732.00,0.0542
731.00,0.0539
730.00,0.0536
729.00,0.0531
728.00,0.0525
727.00,0.0519
726.00,0.0514
725.00,0.0509
724.00,0.0505
723.00,0.0501
722.00,0.0498
721.00,0.0495
720.00,0.0492
719.00,0.0490
718.00,0.0489
717.00,0.0488
716.00,0.0486
715.00,0.0486
714.00,0.0486
713.00,0.0487
712.00,0.0487
711.00,0.0487
710.00,0.0487
709.00,0.0488
708.00,0.0489
707.00,0.0490
706.00,0.0492
705.00,0.0494
704.00,0.0495
703.00,0.0496
702.00,0.0499
701.00,0.0503
700.00,0.0506
699.00,0.0508
698.00,0.0511
697.00,0.0514
696.00,0.0517
695.00,0.0521
694.00,0.0525
693.00,0.0529
692.00,0.0532
691.00,0.0536
690.00,0.0540
689.00,0.0545
688.00,0.0549
687.00,0.0553
686.00,0.0558
685.00,0.0564
684.00,0.0568
683.00,0.0573
682.00,0.0578
681.00,0.0583
680.00,0.0587
679.00,0.0591
678.00,0.0596
677.00,0.0601
676.00,0.0606
675.00,0.0611
674.00,0.0617
673.00,0.0622
672.00,0.0627
671.00,0.0633
670.00,0.0640
669.00,0.0649
668.00,0.0656
667.00,0.0664
666.00,0.0671
665.00,0.0679
664.00,0.0686
663.00,0.0695
662.00,0.0706
661.00,0.0718
660.00,0.0729
659.00,0.0741
658.00,0.0753
657.00,0.0765
656.00,0.0777
655.00,0.0789
654.00,0.0801
653.00,0.0813
652.00,0.0823
651.00,0.0833
650.00,0.0841
649.00,0.0848
648.00,0.0852
647.00,0.0854
646.00,0.0855
645.00,0.0854
644.00,0.0852
643.00,0.0849
642.00,0.0846
641.00,0.0842
640.00,0.0836
639.00,0.0828
638.00,0.0823
637.00,0.0818
636.00,0.0813
635.00,0.0808
634.00,0.0804
633.00,0.0800
632.00,0.0795
631.00,0.0791
630.00,0.0787
629.00,0.0784
628.00,0.0780
627.00,0.0777
626.00,0.0775
625.00,0.0774
624.00,0.0772
623.00,0.0770
622.00,0.0769
621.00,0.0768
620.00,0.0766
619.00,0.0765
618.00,0.0765
617.00,0.0766
616.00,0.0767
615.00,0.0767
614.00,0.0769
613.00,0.0770
612.00,0.0769
611.00,0.0769
610.00,0.0769
609.00,0.0770
608.00,0.0771
607.00,0.0772
606.00,0.0775
605.00,0.0778
604.00,0.0780
603.00,0.0781
602.00,0.0783
601.00,0.0784
600.00,0.0784
599.00,0.0786
598.00,0.0790
597.00,0.0793
596.00,0.0796
595.00,0.0799
594.00,0.0804
593.00,0.0810
592.00,0.0815
591.00,0.0821
590.00,0.0828
589.00,0.0835
588.00,0.0842
587.00,0.0849
586.00,0.0860
585.00,0.0870
584.00,0.0880
583.00,0.0889
582.00,0.0900
581.00,0.0910
580.00,0.0920
579.00,0.0930
578.00,0.0941
577.00,0.0951
576.00,0.0957
575.00,0.0963
574.00,0.0970
573.00,0.0974
572.00,0.0976
571.00,0.0977
570.00,0.0978
569.00,0.0977
568.00,0.0973
567.00,0.0968
566.00,0.0964
565.00,0.0960
564.00,0.0954
563.00,0.0948
562.00,0.0945
561.00,0.0942
560.00,0.0938
559.00,0.0934
558.00,0.0931
557.00,0.0927
556.00,0.0921
555.00,0.0916
554.00,0.0915
553.00,0.0914
552.00,0.0911
551.00,0.0908
550.00,0.0907
549.00,0.0906
548.00,0.0903
547.00,0.0900
546.00,0.0897
545.00,0.0894
544.00,0.0888
543.00,0.0884
542.00,0.0883
541.00,0.0882
540.00,0.0880
539.00,0.0877
538.00,0.0878
537.00,0.0879
536.00,0.0877
535.00,0.0877
534.00,0.0878
533.00,0.0879
532.00,0.0878
531.00,0.0877
530.00,0.0877
529.00,0.0877
528.00,0.0875
527.00,0.0874
526.00,0.0876
525.00,0.0878
524.00,0.0877
523.00,0.0877
522.00,0.0879
521.00,0.0880
520.00,0.0878
519.00,0.0878
518.00,0.0881
517.00,0.0883
516.00,0.0881
515.00,0.0880
514.00,0.0881
513.00,0.0882
512.00,0.0880
511.00,0.0879
510.00,0.0881
509.00,0.0882
508.00,0.0881
507.00,0.0880
506.00,0.0881
505.00,0.0881
504.00,0.0877
503.00,0.0874
502.00,0.0875
501.00,0.0876
500.00,0.0875
499.00,0.0876
498.00,0.0879
497.00,0.0881
496.00,0.0881
495.00,0.0881
494.00,0.0886
493.00,0.0891
492.00,0.0892
491.00,0.0893
490.00,0.0895
489.00,0.0896
488.00,0.0894
487.00,0.0892
486.00,0.0895
485.00,0.0898
484.00,0.0897
483.00,0.0897
482.00,0.0902
481.00,0.0907
480.00,0.0907
479.00,0.0906
478.00,0.0907
477.00,0.0908
476.00,0.0907
475.00,0.0908
474.00,0.0914
473.00,0.0919
472.00,0.0918
471.00,0.0915
470.00,0.0916
469.00,0.0916
468.00,0.0911
467.00,0.0906
466.00,0.0906
465.00,0.0905
464.00,0.0900
463.00,0.0896
462.00,0.0898
461.00,0.0899
460.00,0.0896
459.00,0.0893
458.00,0.0896
457.00,0.0897
456.00,0.0892
455.00,0.0889
454.00,0.0889
453.00,0.0886
452.00,0.0878
451.00,0.0871
450.00,0.0872
449.00,0.0872
448.00,0.0865
447.00,0.0857
446.00,0.0854
445.00,0.0854
444.00,0.0849
443.00,0.0846
442.00,0.0847
441.00,0.0847
440.00,0.0841
439.00,0.0836
438.00,0.0837
437.00,0.0835
436.00,0.0825
435.00,0.0816
434.00,0.0816
433.00,0.0818
432.00,0.0814
431.00,0.0809
430.00,0.0807
429.00,0.0806
428.00,0.0800
427.00,0.0798
426.00,0.0803
425.00,0.0807
424.00,0.0800
423.00,0.0792
422.00,0.0792
421.00,0.0791
420.00,0.0779
419.00,0.0766
418.00,0.0766
417.00,0.0767
416.00,0.0759
415.00,0.0754
414.00,0.0759
413.00,0.0764
412.00,0.0760
411.00,0.0759
410.00,0.0768
409.00,0.0773
408.00,0.0767
407.00,0.0763
406.00,0.0773
405.00,0.0780
404.00,0.0774
403.00,0.0770
402.00,0.0783
401.00,0.0789
400.00,0.0772
