Created as New Dataset,Sample 047 By YargerLab Date Tuesday, August 12 2025
cm-1,A
4000.00,0.0048
3999.00,0.0048
3998.00,0.0048
3997.00,0.0048
3996.00,0.0048
3995.00,0.0048
3994.00,0.0048
3993.00,0.0049
3992.00,0.0049
3991.00,0.0049
3990.00,0.0049
3989.00,0.0049
3988.00,0.0049
3987.00,0.0049
3986.00,0.0049
3985.00,0.0049
3984.00,0.0049
3983.00,0.0049
3982.00,0.0049
3981.00,0.0049
3980.00,0.0049
3979.00,0.0049
3978.00,0.0049
3977.00,0.0049
3976.00,0.0049
3975.00,0.0049
3974.00,0.0049
3973.00,0.0049
3972.00,0.0049
3971.00,0.0049
3970.00,0.0049
3969.00,0.0049
3968.00,0.0049
3967.00,0.0048
3966.00,0.0049
3965.00,0.0049
3964.00,0.0049
3963.00,0.0049
3962.00,0.0049
3961.00,0.0049
3960.00,0.0049
3959.00,0.0049
3958.00,0.0049
3957.00,0.0049
3956.00,0.0049
3955.00,0.0049
3954.00,0.0049
3953.00,0.0049
3952.00,0.0049
3951.00,0.0049
3950.00,0.0049
3949.00,0.0048
3948.00,0.0048
3947.00,0.0048
3946.00,0.0048
3945.00,0.0048
3944.00,0.0049
3943.00,0.0049
3942.00,0.0049
3941.00,0.0049
3940.00,0.0049
3939.00,0.0048
3938.00,0.0048
3937.00,0.0048
3936.00,0.0048
3935.00,0.0048
3934.00,0.0048
3933.00,0.0048
3932.00,0.0048
3931.00,0.0048
3930.00,0.0048
3929.00,0.0048
3928.00,0.0049
3927.00,0.0049
3926.00,0.0049
3925.00,0.0049
3924.00,0.0048
3923.00,0.0048
3922.00,0.0048
3921.00,0.0048
3920.00,0.0048
3919.00,0.0048
3918.00,0.0048
3917.00,0.0048
3916.00,0.0048
3915.00,0.0048
3914.00,0.0048
3913.00,0.0049
3912.00,0.0049
3911.00,0.0049
3910.00,0.0049
3909.00,0.0049
3908.00,0.0049
3907.00,0.0049
3906.00,0.0049
3905.00,0.0049
3904.00,0.0049
3903.00,0.0049
3902.00,0.0049
3901.00,0.0049
3900.00,0.0048
3899.00,0.0048
3898.00,0.0048
3897.00,0.0048
3896.00,0.0048
3895.00,0.0048
3894.00,0.0048
3893.00,0.0049
3892.00,0.0049
3891.00,0.0049
3890.00,0.0049
3889.00,0.0050
3888.00,0.0050
3887.00,0.0050
3886.00,0.0049
3885.00,0.0049
3884.00,0.0049
3883.00,0.0049
3882.00,0.0049
3881.00,0.0048
3880.00,0.0048
3879.00,0.0048
3878.00,0.0048
3877.00,0.0049
3876.00,0.0049
3875.00,0.0048
3874.00,0.0048
3873.00,0.0049
3872.00,0.0049
3871.00,0.0049
3870.00,0.0049
3869.00,0.0049
3868.00,0.0049
3867.00,0.0049
3866.00,0.0049
3865.00,0.0048
3864.00,0.0048
3863.00,0.0048
3862.00,0.0048
3861.00,0.0048
3860.00,0.0048
3859.00,0.0049
3858.00,0.0049
3857.00,0.0050
3856.00,0.0050
3855.00,0.0051
3854.00,0.0050
3853.00,0.0050
3852.00,0.0050
3851.00,0.0050
3850.00,0.0049
3849.00,0.0048
3848.00,0.0048
3847.00,0.0048
3846.00,0.0048
3845.00,0.0048
3844.00,0.0048
3843.00,0.0048
3842.00,0.0048
3841.00,0.0049
3840.00,0.0049
3839.00,0.0048
3838.00,0.0048
3837.00,0.0048
3836.00,0.0049
3835.00,0.0049
3834.00,0.0049
3833.00,0.0049
3832.00,0.0048
3831.00,0.0048
3830.00,0.0048
3829.00,0.0048
3828.00,0.0048
3827.00,0.0048
3826.00,0.0048
3825.00,0.0049
3824.00,0.0049
3823.00,0.0049
3822.00,0.0049
3821.00,0.0048
3820.00,0.0048
3819.00,0.0048
3818.00,0.0048
3817.00,0.0048
3816.00,0.0048
3815.00,0.0048
3814.00,0.0049
3813.00,0.0049
3812.00,0.0049
3811.00,0.0049
3810.00,0.0049
3809.00,0.0049
3808.00,0.0049
3807.00,0.0049
3806.00,0.0049
3805.00,0.0049
3804.00,0.0049
3803.00,0.0049
3802.00,0.0048
3801.00,0.0048
3800.00,0.0048
3799.00,0.0048
3798.00,0.0048
3797.00,0.0048
3796.00,0.0048
3795.00,0.0048
3794.00,0.0048
3793.00,0.0048
3792.00,0.0048
3791.00,0.0048
3790.00,0.0048
3789.00,0.0048
3788.00,0.0048
3787.00,0.0049
3786.00,0.0049
3785.00,0.0049
3784.00,0.0049
3783.00,0.0049
3782.00,0.0049
3781.00,0.0049
3780.00,0.0049
3779.00,0.0049
3778.00,0.0049
3777.00,0.0049
3776.00,0.0049
3775.00,0.0049
3774.00,0.0048
3773.00,0.0048
3772.00,0.0048
3771.00,0.0048
3770.00,0.0049
3769.00,0.0049
3768.00,0.0050
3767.00,0.0050
3766.00,0.0049
3765.00,0.0049
3764.00,0.0048
3763.00,0.0048
3762.00,0.0048
3761.00,0.0049
3760.00,0.0049
3759.00,0.0049
3758.00,0.0049
3757.00,0.0049
3756.00,0.0049
3755.00,0.0049
3754.00,0.0049
3753.00,0.0049
3752.00,0.0049
3751.00,0.0049
3750.00,0.0049
3749.00,0.0049
3748.00,0.0049
3747.00,0.0050
3746.00,0.0050
3745.00,0.0049
3744.00,0.0049
3743.00,0.0049
3742.00,0.0049
3741.00,0.0049
3740.00,0.0049
3739.00,0.0049
3738.00,0.0049
3737.00,0.0048
3736.00,0.0048
3735.00,0.0048
3734.00,0.0048
3733.00,0.0047
3732.00,0.0047
3731.00,0.0046
3730.00,0.0046
3729.00,0.0047
3728.00,0.0047
3727.00,0.0047
3726.00,0.0047
3725.00,0.0047
3724.00,0.0047
3723.00,0.0047
3722.00,0.0047
3721.00,0.0047
3720.00,0.0047
3719.00,0.0047
3718.00,0.0047
3717.00,0.0047
3716.00,0.0047
3715.00,0.0048
3714.00,0.0048
3713.00,0.0048
3712.00,0.0048
3711.00,0.0048
3710.00,0.0047
3709.00,0.0047
3708.00,0.0046
3707.00,0.0046
3706.00,0.0046
3705.00,0.0047
3704.00,0.0047
3703.00,0.0047
3702.00,0.0047
3701.00,0.0047
3700.00,0.0047
3699.00,0.0047
3698.00,0.0047
3697.00,0.0047
3696.00,0.0047
3695.00,0.0047
3694.00,0.0048
3693.00,0.0048
3692.00,0.0048
3691.00,0.0048
3690.00,0.0048
3689.00,0.0048
3688.00,0.0047
3687.00,0.0048
3686.00,0.0048
3685.00,0.0048
3684.00,0.0048
3683.00,0.0048
3682.00,0.0048
3681.00,0.0048
3680.00,0.0049
3679.00,0.0050
3678.00,0.0050
3677.00,0.0051
3676.00,0.0050
3675.00,0.0050
3674.00,0.0050
3673.00,0.0051
3672.00,0.0051
3671.00,0.0051
3670.00,0.0050
3669.00,0.0050
3668.00,0.0050
3667.00,0.0051
3666.00,0.0051
3665.00,0.0051
3664.00,0.0051
3663.00,0.0051
3662.00,0.0051
3661.00,0.0051
3660.00,0.0051
3659.00,0.0051
3658.00,0.0051
3657.00,0.0052
3656.00,0.0052
3655.00,0.0052
3654.00,0.0053
3653.00,0.0053
3652.00,0.0053
3651.00,0.0053
3650.00,0.0053
3649.00,0.0053
3648.00,0.0053
3647.00,0.0054
3646.00,0.0054
3645.00,0.0054
3644.00,0.0054
3643.00,0.0054
3642.00,0.0054
3641.00,0.0055
3640.00,0.0055
3639.00,0.0055
3638.00,0.0056
3637.00,0.0056
3636.00,0.0056
3635.00,0.0057
3634.00,0.0057
3633.00,0.0057
3632.00,0.0058
3631.00,0.0058
3630.00,0.0059
3629.00,0.0059
3628.00,0.0059
3627.00,0.0059
3626.00,0.0060
3625.00,0.0060
3624.00,0.0060
3623.00,0.0060
3622.00,0.0061
3621.00,0.0062
3620.00,0.0062
3619.00,0.0063
3618.00,0.0063
3617.00,0.0064
3616.00,0.0065
3615.00,0.0065
3614.00,0.0065
3613.00,0.0065
3612.00,0.0066
3611.00,0.0066
3610.00,0.0067
3609.00,0.0067
3608.00,0.0068
3607.00,0.0068
3606.00,0.0069
3605.00,0.0069
3604.00,0.0069
3603.00,0.0070
3602.00,0.0070
3601.00,0.0071
3600.00,0.0071
3599.00,0.0072
3598.00,0.0072
3597.00,0.0072
3596.00,0.0073
3595.00,0.0073
3594.00,0.0074
3593.00,0.0075
3592.00,0.0075
3591.00,0.0076
3590.00,0.0076
3589.00,0.0077
3588.00,0.0077
3587.00,0.0078
3586.00,0.0078
3585.00,0.0079
3584.00,0.0079
3583.00,0.0080
3582.00,0.0081
3581.00,0.0081
3580.00,0.0082
3579.00,0.0083
3578.00,0.0084
3577.00,0.0085
3576.00,0.0085
3575.00,0.0086
3574.00,0.0087
3573.00,0.0087
3572.00,0.0088
3571.00,0.0088
3570.00,0.0089
3569.00,0.0090
3568.00,0.0091
3567.00,0.0092
3566.00,0.0093
3565.00,0.0093
3564.00,0.0094
3563.00,0.0094
3562.00,0.0094
3561.00,0.0095
3560.00,0.0095
3559.00,0.0096
3558.00,0.0097
3557.00,0.0098
3556.00,0.0099
3555.00,0.0100
3554.00,0.0100
3553.00,0.0101
3552.00,0.0102
3551.00,0.0102
3550.00,0.0103
3549.00,0.0103
3548.00,0.0104
3547.00,0.0104
3546.00,0.0105
3545.00,0.0106
3544.00,0.0107
3543.00,0.0108
3542.00,0.0109
3541.00,0.0109
3540.00,0.0110
3539.00,0.0110
3538.00,0.0111
3537.00,0.0112
3536.00,0.0112
3535.00,0.0113
3534.00,0.0113
3533.00,0.0114
3532.00,0.0115
3531.00,0.0115
3530.00,0.0116
3529.00,0.0116
3528.00,0.0117
3527.00,0.0117
3526.00,0.0118
3525.00,0.0119
3524.00,0.0119
3523.00,0.0120
3522.00,0.0120
3521.00,0.0121
3520.00,0.0121
3519.00,0.0122
3518.00,0.0122
3517.00,0.0123
3516.00,0.0123
3515.00,0.0124
3514.00,0.0124
3513.00,0.0125
3512.00,0.0125
3511.00,0.0126
3510.00,0.0127
3509.00,0.0128
3508.00,0.0128
3507.00,0.0128
3506.00,0.0129
3505.00,0.0129
3504.00,0.0130
3503.00,0.0131
3502.00,0.0131
3501.00,0.0132
3500.00,0.0132
3499.00,0.0133
3498.00,0.0133
3497.00,0.0134
3496.00,0.0134
3495.00,0.0135
3494.00,0.0135
3493.00,0.0136
3492.00,0.0136
3491.00,0.0137
3490.00,0.0137
3489.00,0.0138
3488.00,0.0138
3487.00,0.0139
3486.00,0.0140
3485.00,0.0140
3484.00,0.0141
3483.00,0.0142
3482.00,0.0142
3481.00,0.0143
3480.00,0.0143
3479.00,0.0144
3478.00,0.0144
3477.00,0.0144
3476.00,0.0145
3475.00,0.0146
3474.00,0.0147
3473.00,0.0147
3472.00,0.0148
3471.00,0.0149
3470.00,0.0150
3469.00,0.0150
3468.00,0.0151
3467.00,0.0151
3466.00,0.0152
3465.00,0.0153
3464.00,0.0154
3463.00,0.0155
3462.00,0.0155
3461.00,0.0156
3460.00,0.0157
3459.00,0.0158
3458.00,0.0159
3457.00,0.0159
3456.00,0.0160
3455.00,0.0160
3454.00,0.0161
3453.00,0.0162
3452.00,0.0162
3451.00,0.0163
3450.00,0.0164
3449.00,0.0165
3448.00,0.0166
3447.00,0.0167
3446.00,0.0168
3445.00,0.0169
3444.00,0.0170
3443.00,0.0170
3442.00,0.0171
3441.00,0.0172
3440.00,0.0173
3439.00,0.0174
3438.00,0.0175
3437.00,0.0176
3436.00,0.0177
3435.00,0.0178
3434.00,0.0178
3433.00,0.0179
3432.00,0.0180
3431.00,0.0181
3430.00,0.0182
3429.00,0.0183
3428.00,0.0184
3427.00,0.0185
3426.00,0.0186
3425.00,0.0187
3424.00,0.0188
3423.00,0.0189
3422.00,0.0190
3421.00,0.0192
3420.00,0.0193
3419.00,0.0194
3418.00,0.0195
3417.00,0.0196
3416.00,0.0197
3415.00,0.0198
3414.00,0.0199
3413.00,0.0201
3412.00,0.0202
3411.00,0.0203
3410.00,0.0204
3409.00,0.0205
3408.00,0.0206
3407.00,0.0207
3406.00,0.0207
3405.00,0.0208
3404.00,0.0208
3403.00,0.0209
3402.00,0.0210
3401.00,0.0210
3400.00,0.0211
3399.00,0.0210
3398.00,0.0210
3397.00,0.0210
3396.00,0.0210
3395.00,0.0210
3394.00,0.0210
3393.00,0.0210
3392.00,0.0210
3391.00,0.0209
3390.00,0.0208
3389.00,0.0208
3388.00,0.0207
3387.00,0.0206
3386.00,0.0206
3385.00,0.0205
3384.00,0.0204
3383.00,0.0203
3382.00,0.0203
3381.00,0.0202
3380.00,0.0201
3379.00,0.0200
3378.00,0.0199
3377.00,0.0198
3376.00,0.0197
3375.00,0.0196
3374.00,0.0195
3373.00,0.0194
3372.00,0.0193
3371.00,0.0192
3370.00,0.0191
3369.00,0.0190
3368.00,0.0190
3367.00,0.0189
3366.00,0.0188
3365.00,0.0187
3364.00,0.0186
3363.00,0.0186
3362.00,0.0185
3361.00,0.0184
3360.00,0.0183
3359.00,0.0183
3358.00,0.0182
3357.00,0.0181
3356.00,0.0181
3355.00,0.0180
3354.00,0.0180
3353.00,0.0179
3352.00,0.0179
3351.00,0.0178
3350.00,0.0178
3349.00,0.0177
3348.00,0.0176
3347.00,0.0176
3346.00,0.0175
3345.00,0.0174
3344.00,0.0174
3343.00,0.0174
3342.00,0.0173
3341.00,0.0173
3340.00,0.0173
3339.00,0.0172
3338.00,0.0172
3337.00,0.0172
3336.00,0.0172
3335.00,0.0171
3334.00,0.0171
3333.00,0.0171
3332.00,0.0171
3331.00,0.0171
3330.00,0.0171
3329.00,0.0171
3328.00,0.0170
3327.00,0.0170
3326.00,0.0170
3325.00,0.0170
3324.00,0.0170
3323.00,0.0170
3322.00,0.0170
3321.00,0.0170
3320.00,0.0170
3319.00,0.0171
3318.00,0.0171
3317.00,0.0171
3316.00,0.0171
3315.00,0.0171
3314.00,0.0170
3313.00,0.0170
3312.00,0.0170
3311.00,0.0170
3310.00,0.0170
3309.00,0.0169
3308.00,0.0169
3307.00,0.0170
3306.00,0.0170
3305.00,0.0171
3304.00,0.0171
3303.00,0.0172
3302.00,0.0172
3301.00,0.0173
3300.00,0.0173
3299.00,0.0173
3298.00,0.0173
3297.00,0.0173
3296.00,0.0173
3295.00,0.0173
3294.00,0.0173
3293.00,0.0174
3292.00,0.0175
3291.00,0.0175
3290.00,0.0176
3289.00,0.0177
3288.00,0.0177
3287.00,0.0178
3286.00,0.0178
3285.00,0.0178
3284.00,0.0178
3283.00,0.0179
3282.00,0.0179
3281.00,0.0179
3280.00,0.0180
3279.00,0.0180
3278.00,0.0180
3277.00,0.0180
3276.00,0.0180
3275.00,0.0180
3274.00,0.0180
3273.00,0.0180
3272.00,0.0181
3271.00,0.0181
3270.00,0.0182
3269.00,0.0182
3268.00,0.0183
3267.00,0.0183
3266.00,0.0184
3265.00,0.0184
3264.00,0.0185
3263.00,0.0185
3262.00,0.0185
3261.00,0.0185
3260.00,0.0185
3259.00,0.0185
3258.00,0.0185
3257.00,0.0185
3256.00,0.0185
3255.00,0.0185
3254.00,0.0186
3253.00,0.0186
3252.00,0.0187
3251.00,0.0187
3250.00,0.0187
3249.00,0.0187
3248.00,0.0186
3247.00,0.0187
3246.00,0.0187
3245.00,0.0187
3244.00,0.0188
3243.00,0.0188
3242.00,0.0188
3241.00,0.0188
3240.00,0.0188
3239.00,0.0188
3238.00,0.0188
3237.00,0.0187
3236.00,0.0187
3235.00,0.0186
3234.00,0.0186
3233.00,0.0186
3232.00,0.0186
3231.00,0.0186
3230.00,0.0186
3229.00,0.0186
3228.00,0.0186
3227.00,0.0185
3226.00,0.0185
3225.00,0.0185
3224.00,0.0184
3223.00,0.0184
3222.00,0.0183
3221.00,0.0183
3220.00,0.0182
3219.00,0.0182
3218.00,0.0182
3217.00,0.0181
3216.00,0.0181
3215.00,0.0181
3214.00,0.0180
3213.00,0.0179
3212.00,0.0178
3211.00,0.0178
3210.00,0.0177
3209.00,0.0176
3208.00,0.0176
3207.00,0.0175
3206.00,0.0174
3205.00,0.0173
3204.00,0.0172
3203.00,0.0171
3202.00,0.0171
3201.00,0.0170
3200.00,0.0169
3199.00,0.0169
3198.00,0.0168
3197.00,0.0167
3196.00,0.0166
3195.00,0.0165
3194.00,0.0164
3193.00,0.0163
3192.00,0.0162
3191.00,0.0161
3190.00,0.0160
3189.00,0.0159
3188.00,0.0158
3187.00,0.0157
3186.00,0.0156
3185.00,0.0155
3184.00,0.0155
3183.00,0.0154
3182.00,0.0153
3181.00,0.0152
3180.00,0.0151
3179.00,0.0150
3178.00,0.0150
3177.00,0.0149
3176.00,0.0148
3175.00,0.0147
3174.00,0.0146
3173.00,0.0145
3172.00,0.0144
3171.00,0.0143
3170.00,0.0142
3169.00,0.0141
3168.00,0.0140
3167.00,0.0139
3166.00,0.0138
3165.00,0.0138
3164.00,0.0137
3163.00,0.0136
3162.00,0.0135
3161.00,0.0134
3160.00,0.0133
3159.00,0.0132
3158.00,0.0131
3157.00,0.0130
3156.00,0.0129
3155.00,0.0129
3154.00,0.0128
3153.00,0.0127
3152.00,0.0126
3151.00,0.0125
3150.00,0.0124
3149.00,0.0124
3148.00,0.0123
3147.00,0.0122
3146.00,0.0121
3145.00,0.0120
3144.00,0.0120
3143.00,0.0119
3142.00,0.0118
3141.00,0.0118
3140.00,0.0117
3139.00,0.0116
3138.00,0.0115
3137.00,0.0114
3136.00,0.0114
3135.00,0.0113
3134.00,0.0113
3133.00,0.0113
3132.00,0.0113
3131.00,0.0112
3130.00,0.0111
3129.00,0.0111
3128.00,0.0110
3127.00,0.0110
3126.00,0.0109
3125.00,0.0109
3124.00,0.0108
3123.00,0.0107
3122.00,0.0107
3121.00,0.0107
3120.00,0.0106
3119.00,0.0106
3118.00,0.0105
3117.00,0.0105
3116.00,0.0104
3115.00,0.0103
3114.00,0.0103
3113.00,0.0102
3112.00,0.0102
3111.00,0.0102
3110.00,0.0101
3109.00,0.0101
3108.00,0.0100
3107.00,0.0099
3106.00,0.0099
3105.00,0.0098
3104.00,0.0098
3103.00,0.0097
3102.00,0.0097
3101.00,0.0096
3100.00,0.0096
3099.00,0.0096
3098.00,0.0096
3097.00,0.0095
3096.00,0.0095
3095.00,0.0095
3094.00,0.0095
3093.00,0.0094
3092.00,0.0094
3091.00,0.0094
3090.00,0.0094
3089.00,0.0094
3088.00,0.0094
3087.00,0.0094
3086.00,0.0094
3085.00,0.0093
3084.00,0.0093
3083.00,0.0093
3082.00,0.0093
3081.00,0.0092
3080.00,0.0092
3079.00,0.0092
3078.00,0.0092
3077.00,0.0092
3076.00,0.0092
3075.00,0.0091
3074.00,0.0091
3073.00,0.0091
3072.00,0.0091
3071.00,0.0090
3070.00,0.0090
3069.00,0.0090
3068.00,0.0090
3067.00,0.0090
3066.00,0.0089
3065.00,0.0089
3064.00,0.0089
3063.00,0.0089
3062.00,0.0089
3061.00,0.0089
3060.00,0.0089
3059.00,0.0089
3058.00,0.0089
3057.00,0.0089
3056.00,0.0089
3055.00,0.0089
3054.00,0.0089
3053.00,0.0089
3052.00,0.0088
3051.00,0.0088
3050.00,0.0088
3049.00,0.0088
3048.00,0.0087
3047.00,0.0087
3046.00,0.0087
3045.00,0.0087
3044.00,0.0087
3043.00,0.0087
3042.00,0.0087
3041.00,0.0087
3040.00,0.0088
3039.00,0.0088
3038.00,0.0088
3037.00,0.0088
3036.00,0.0088
3035.00,0.0089
3034.00,0.0089
3033.00,0.0089
3032.00,0.0089
3031.00,0.0089
3030.00,0.0089
3029.00,0.0089
3028.00,0.0088
3027.00,0.0088
3026.00,0.0087
3025.00,0.0087
3024.00,0.0086
3023.00,0.0086
3022.00,0.0085
3021.00,0.0085
3020.00,0.0085
3019.00,0.0085
3018.00,0.0085
3017.00,0.0085
3016.00,0.0085
3015.00,0.0085
3014.00,0.0085
3013.00,0.0085
3012.00,0.0086
3011.00,0.0086
3010.00,0.0087
3009.00,0.0088
3008.00,0.0089
3007.00,0.0090
3006.00,0.0092
3005.00,0.0093
3004.00,0.0095
3003.00,0.0096
3002.00,0.0098
3001.00,0.0101
3000.00,0.0103
2999.00,0.0106
2998.00,0.0109
2997.00,0.0112
2996.00,0.0115
2995.00,0.0118
2994.00,0.0121
2993.00,0.0123
2992.00,0.0125
2991.00,0.0127
2990.00,0.0129
2989.00,0.0131
2988.00,0.0133
2987.00,0.0135
2986.00,0.0138
2985.00,0.0141
2984.00,0.0144
2983.00,0.0149
2982.00,0.0153
2981.00,0.0158
2980.00,0.0162
2979.00,0.0166
2978.00,0.0168
2977.00,0.0170
2976.00,0.0172
2975.00,0.0175
2974.00,0.0180
2973.00,0.0186
2972.00,0.0193
2971.00,0.0198
2970.00,0.0203
2969.00,0.0207
2968.00,0.0210
2967.00,0.0212
2966.00,0.0215
2965.00,0.0219
2964.00,0.0223
2963.00,0.0227
2962.00,0.0231
2961.00,0.0234
2960.00,0.0235
2959.00,0.0234
2958.00,0.0231
2957.00,0.0228
2956.00,0.0223
2955.00,0.0219
2954.00,0.0214
2953.00,0.0211
2952.00,0.0207
2951.00,0.0205
2950.00,0.0203
2949.00,0.0202
2948.00,0.0202
2947.00,0.0203
2946.00,0.0204
2945.00,0.0206
2944.00,0.0208
2943.00,0.0211
2942.00,0.0214
2941.00,0.0218
2940.00,0.0223
2939.00,0.0228
2938.00,0.0235
2937.00,0.0243
2936.00,0.0252
2935.00,0.0262
2934.00,0.0272
2933.00,0.0283
2932.00,0.0293
2931.00,0.0303
2930.00,0.0312
2929.00,0.0320
2928.00,0.0325
2927.00,0.0328
2926.00,0.0328
2925.00,0.0326
2924.00,0.0322
2923.00,0.0317
2922.00,0.0310
2921.00,0.0303
2920.00,0.0296
2919.00,0.0288
2918.00,0.0281
2917.00,0.0273
2916.00,0.0266
2915.00,0.0258
2914.00,0.0252
2913.00,0.0246
2912.00,0.0240
2911.00,0.0234
2910.00,0.0229
2909.00,0.0224
2908.00,0.0220
2907.00,0.0216
2906.00,0.0212
2905.00,0.0209
2904.00,0.0205
2903.00,0.0203
2902.00,0.0200
2901.00,0.0197
2900.00,0.0194
2899.00,0.0192
2898.00,0.0190
2897.00,0.0188
2896.00,0.0186
2895.00,0.0184
2894.00,0.0183
2893.00,0.0182
2892.00,0.0181
2891.00,0.0179
2890.00,0.0178
2889.00,0.0176
2888.00,0.0175
2887.00,0.0174
2886.00,0.0173
2885.00,0.0172
2884.00,0.0171
2883.00,0.0171
2882.00,0.0171
2881.00,0.0172
2880.00,0.0173
2879.00,0.0175
2878.00,0.0178
2877.00,0.0181
2876.00,0.0184
2875.00,0.0187
2874.00,0.0189
2873.00,0.0191
2872.00,0.0191
2871.00,0.0191
2870.00,0.0190
2869.00,0.0189
2868.00,0.0188
2867.00,0.0188
2866.00,0.0189
2865.00,0.0191
2864.00,0.0195
2863.00,0.0200
2862.00,0.0207
2861.00,0.0214
2860.00,0.0222
2859.00,0.0229
2858.00,0.0235
2857.00,0.0238
2856.00,0.0240
2855.00,0.0240
2854.00,0.0238
2853.00,0.0235
2852.00,0.0231
2851.00,0.0226
2850.00,0.0218
2849.00,0.0209
2848.00,0.0199
2847.00,0.0189
2846.00,0.0180
2845.00,0.0172
2844.00,0.0164
2843.00,0.0157
2842.00,0.0151
2841.00,0.0145
2840.00,0.0140
2839.00,0.0136
2838.00,0.0133
2837.00,0.0130
2836.00,0.0127
2835.00,0.0124
2834.00,0.0122
2833.00,0.0119
2832.00,0.0117
2831.00,0.0115
2830.00,0.0113
2829.00,0.0112
2828.00,0.0110
2827.00,0.0109
2826.00,0.0107
2825.00,0.0106
2824.00,0.0104
2823.00,0.0103
2822.00,0.0102
2821.00,0.0100
2820.00,0.0099
2819.00,0.0098
2818.00,0.0097
2817.00,0.0097
2816.00,0.0096
2815.00,0.0095
2814.00,0.0094
2813.00,0.0094
2812.00,0.0093
2811.00,0.0092
2810.00,0.0092
2809.00,0.0091
2808.00,0.0091
2807.00,0.0090
2806.00,0.0090
2805.00,0.0090
2804.00,0.0089
2803.00,0.0089
2802.00,0.0088
2801.00,0.0088
2800.00,0.0088
2799.00,0.0087
2798.00,0.0087
2797.00,0.0086
2796.00,0.0086
2795.00,0.0085
2794.00,0.0085
2793.00,0.0084
2792.00,0.0084
2791.00,0.0084
2790.00,0.0084
2789.00,0.0083
2788.00,0.0083
2787.00,0.0083
2786.00,0.0083
2785.00,0.0082
2784.00,0.0082
2783.00,0.0082
2782.00,0.0081
2781.00,0.0081
2780.00,0.0081
2779.00,0.0080
2778.00,0.0080
2777.00,0.0080
2776.00,0.0080
2775.00,0.0080
2774.00,0.0079
2773.00,0.0079
2772.00,0.0079
2771.00,0.0079
2770.00,0.0079
2769.00,0.0079
2768.00,0.0078
2767.00,0.0078
2766.00,0.0078
2765.00,0.0078
2764.00,0.0078
2763.00,0.0078
2762.00,0.0078
2761.00,0.0078
2760.00,0.0078
2759.00,0.0078
2758.00,0.0078
2757.00,0.0078
2756.00,0.0078
2755.00,0.0078
2754.00,0.0078
2753.00,0.0078
2752.00,0.0078
2751.00,0.0078
2750.00,0.0078
2749.00,0.0078
2748.00,0.0078
2747.00,0.0078
2746.00,0.0078
2745.00,0.0078
2744.00,0.0078
2743.00,0.0078
2742.00,0.0078
2741.00,0.0078
2740.00,0.0078
2739.00,0.0079
2738.00,0.0079
2737.00,0.0079
2736.00,0.0079
2735.00,0.0080
2734.00,0.0080
2733.00,0.0080
2732.00,0.0081
2731.00,0.0081
2730.00,0.0081
2729.00,0.0081
2728.00,0.0081
2727.00,0.0080
2726.00,0.0080
2725.00,0.0080
2724.00,0.0079
2723.00,0.0079
2722.00,0.0079
2721.00,0.0079
2720.00,0.0079
2719.00,0.0079
2718.00,0.0079
2717.00,0.0079
2716.00,0.0079
2715.00,0.0078
2714.00,0.0078
2713.00,0.0078
2712.00,0.0078
2711.00,0.0078
2710.00,0.0078
2709.00,0.0078
2708.00,0.0077
2707.00,0.0077
2706.00,0.0077
2705.00,0.0077
2704.00,0.0077
2703.00,0.0077
2702.00,0.0076
2701.00,0.0076
2700.00,0.0076
2699.00,0.0076
2698.00,0.0076
2697.00,0.0076
2696.00,0.0076
2695.00,0.0076
2694.00,0.0076
2693.00,0.0075
2692.00,0.0075
2691.00,0.0075
2690.00,0.0075
2689.00,0.0074
2688.00,0.0074
2687.00,0.0074
2686.00,0.0074
2685.00,0.0074
2684.00,0.0074
2683.00,0.0074
2682.00,0.0074
2681.00,0.0074
2680.00,0.0074
2679.00,0.0074
2678.00,0.0074
2677.00,0.0074
2676.00,0.0074
2675.00,0.0073
2674.00,0.0073
2673.00,0.0074
2672.00,0.0074
2671.00,0.0074
2670.00,0.0074
2669.00,0.0074
2668.00,0.0074
2667.00,0.0075
2666.00,0.0075
2665.00,0.0076
2664.00,0.0077
2663.00,0.0077
2662.00,0.0078
2661.00,0.0078
2660.00,0.0078
2659.00,0.0078
2658.00,0.0078
2657.00,0.0078
2656.00,0.0078
2655.00,0.0078
2654.00,0.0078
2653.00,0.0078
2652.00,0.0078
2651.00,0.0078
2650.00,0.0079
2649.00,0.0079
2648.00,0.0079
2647.00,0.0079
2646.00,0.0078
2645.00,0.0078
2644.00,0.0078
2643.00,0.0078
2642.00,0.0078
2641.00,0.0078
2640.00,0.0078
2639.00,0.0078
2638.00,0.0077
2637.00,0.0077
2636.00,0.0077
2635.00,0.0076
2634.00,0.0076
2633.00,0.0076
2632.00,0.0076
2631.00,0.0076
2630.00,0.0076
2629.00,0.0076
2628.00,0.0076
2627.00,0.0075
2626.00,0.0075
2625.00,0.0075
2624.00,0.0074
2623.00,0.0074
2622.00,0.0074
2621.00,0.0074
2620.00,0.0074
2619.00,0.0074
2618.00,0.0073
2617.00,0.0073
2616.00,0.0073
2615.00,0.0073
2614.00,0.0073
2613.00,0.0073
2612.00,0.0073
2611.00,0.0073
2610.00,0.0073
2609.00,0.0073
2608.00,0.0073
2607.00,0.0073
2606.00,0.0073
2605.00,0.0072
2604.00,0.0072
2603.00,0.0072
2602.00,0.0072
2601.00,0.0073
2600.00,0.0073
2599.00,0.0073
2598.00,0.0072
2597.00,0.0072
2596.00,0.0072
2595.00,0.0072
2594.00,0.0072
2593.00,0.0073
2592.00,0.0073
2591.00,0.0073
2590.00,0.0073
2589.00,0.0073
2588.00,0.0073
2587.00,0.0073
2586.00,0.0073
2585.00,0.0072
2584.00,0.0072
2583.00,0.0072
2582.00,0.0072
2581.00,0.0072
2580.00,0.0072
2579.00,0.0072
2578.00,0.0072
2577.00,0.0072
2576.00,0.0072
2575.00,0.0072
2574.00,0.0072
2573.00,0.0071
2572.00,0.0071
2571.00,0.0071
2570.00,0.0071
2569.00,0.0071
2568.00,0.0071
2567.00,0.0071
2566.00,0.0071
2565.00,0.0071
2564.00,0.0071
2563.00,0.0071
2562.00,0.0071
2561.00,0.0070
2560.00,0.0070
2559.00,0.0070
2558.00,0.0070
2557.00,0.0069
2556.00,0.0069
2555.00,0.0069
2554.00,0.0069
2553.00,0.0069
2552.00,0.0069
2551.00,0.0068
2550.00,0.0068
2549.00,0.0068
2548.00,0.0068
2547.00,0.0068
2546.00,0.0068
2545.00,0.0069
2544.00,0.0069
2543.00,0.0069
2542.00,0.0068
2541.00,0.0068
2540.00,0.0068
2539.00,0.0068
2538.00,0.0068
2537.00,0.0068
2536.00,0.0068
2535.00,0.0068
2534.00,0.0068
2533.00,0.0068
2532.00,0.0068
2531.00,0.0068
2530.00,0.0068
2529.00,0.0068
2528.00,0.0068
2527.00,0.0068
2526.00,0.0068
2525.00,0.0068
2524.00,0.0067
2523.00,0.0067
2522.00,0.0067
2521.00,0.0066
2520.00,0.0066
2519.00,0.0066
2518.00,0.0066
2517.00,0.0066
2516.00,0.0066
2515.00,0.0065
2514.00,0.0065
2513.00,0.0065
2512.00,0.0065
2511.00,0.0065
2510.00,0.0065
2509.00,0.0065
2508.00,0.0065
2507.00,0.0065
2506.00,0.0065
2505.00,0.0065
2504.00,0.0065
2503.00,0.0065
2502.00,0.0064
2501.00,0.0064
2500.00,0.0064
2499.00,0.0064
2498.00,0.0064
2497.00,0.0065
2496.00,0.0065
2495.00,0.0064
2494.00,0.0064
2493.00,0.0064
2492.00,0.0063
2491.00,0.0063
2490.00,0.0063
2489.00,0.0063
2488.00,0.0063
2487.00,0.0063
2486.00,0.0063
2485.00,0.0064
2484.00,0.0064
2483.00,0.0064
2482.00,0.0064
2481.00,0.0064
2480.00,0.0063
2479.00,0.0063
2478.00,0.0063
2477.00,0.0063
2476.00,0.0063
2475.00,0.0063
2474.00,0.0063
2473.00,0.0063
2472.00,0.0063
2471.00,0.0063
2470.00,0.0063
2469.00,0.0063
2468.00,0.0063
2467.00,0.0063
2466.00,0.0063
2465.00,0.0063
2464.00,0.0063
2463.00,0.0063
2462.00,0.0063
2461.00,0.0063
2460.00,0.0064
2459.00,0.0064
2458.00,0.0064
2457.00,0.0064
2456.00,0.0064
2455.00,0.0064
2454.00,0.0064
2453.00,0.0064
2452.00,0.0064
2451.00,0.0064
2450.00,0.0063
2449.00,0.0063
2448.00,0.0063
2447.00,0.0063
2446.00,0.0063
2445.00,0.0063
2444.00,0.0063
2443.00,0.0063
2442.00,0.0063
2441.00,0.0063
2440.00,0.0063
2439.00,0.0062
2438.00,0.0062
2437.00,0.0062
2436.00,0.0062
2435.00,0.0062
2434.00,0.0062
2433.00,0.0062
2432.00,0.0062
2431.00,0.0062
2430.00,0.0062
2429.00,0.0062
2428.00,0.0062
2427.00,0.0061
2426.00,0.0061
2425.00,0.0061
2424.00,0.0061
2423.00,0.0061
2422.00,0.0061
2421.00,0.0061
2420.00,0.0061
2419.00,0.0061
2418.00,0.0061
2417.00,0.0061
2416.00,0.0061
2415.00,0.0061
2414.00,0.0061
2413.00,0.0061
2412.00,0.0062
2411.00,0.0062
2410.00,0.0061
2409.00,0.0061
2408.00,0.0061
2407.00,0.0060
2406.00,0.0060
2405.00,0.0060
2404.00,0.0060
2403.00,0.0059
2402.00,0.0059
2401.00,0.0060
2400.00,0.0060
2399.00,0.0060
2398.00,0.0060
2397.00,0.0060
2396.00,0.0060
2395.00,0.0060
2394.00,0.0059
2393.00,0.0060
2392.00,0.0060
2391.00,0.0060
2390.00,0.0059
2389.00,0.0059
2388.00,0.0059
2387.00,0.0059
2386.00,0.0058
2385.00,0.0058
2384.00,0.0058
2383.00,0.0057
2382.00,0.0056
2381.00,0.0054
2380.00,0.0053
2379.00,0.0052
2378.00,0.0052
2377.00,0.0052
2376.00,0.0052
2375.00,0.0053
2374.00,0.0053
2373.00,0.0054
2372.00,0.0054
2371.00,0.0053
2370.00,0.0053
2369.00,0.0052
2368.00,0.0052
2367.00,0.0052
2366.00,0.0052
2365.00,0.0053
2364.00,0.0053
2363.00,0.0053
2362.00,0.0053
2361.00,0.0053
2360.00,0.0053
2359.00,0.0053
2358.00,0.0053
2357.00,0.0053
2356.00,0.0053
2355.00,0.0054
2354.00,0.0055
2353.00,0.0055
2352.00,0.0055
2351.00,0.0055
2350.00,0.0054
2349.00,0.0055
2348.00,0.0055
2347.00,0.0056
2346.00,0.0056
2345.00,0.0056
2344.00,0.0056
2343.00,0.0056
2342.00,0.0056
2341.00,0.0057
2340.00,0.0058
2339.00,0.0058
2338.00,0.0058
2337.00,0.0058
2336.00,0.0059
2335.00,0.0059
2334.00,0.0059
2333.00,0.0059
2332.00,0.0059
2331.00,0.0059
2330.00,0.0059
2329.00,0.0061
2328.00,0.0064
2327.00,0.0068
2326.00,0.0071
2325.00,0.0072
2324.00,0.0071
2323.00,0.0069
2322.00,0.0067
2321.00,0.0066
2320.00,0.0065
2319.00,0.0064
2318.00,0.0063
2317.00,0.0063
2316.00,0.0063
2315.00,0.0062
2314.00,0.0061
2313.00,0.0061
2312.00,0.0060
2311.00,0.0060
2310.00,0.0059
2309.00,0.0059
2308.00,0.0059
2307.00,0.0059
2306.00,0.0059
2305.00,0.0060
2304.00,0.0061
2303.00,0.0062
2302.00,0.0062
2301.00,0.0062
2300.00,0.0063
2299.00,0.0063
2298.00,0.0063
2297.00,0.0064
2296.00,0.0065
2295.00,0.0066
2294.00,0.0067
2293.00,0.0068
2292.00,0.0068
2291.00,0.0069
2290.00,0.0069
2289.00,0.0070
2288.00,0.0071
2287.00,0.0072
2286.00,0.0072
2285.00,0.0071
2284.00,0.0070
2283.00,0.0070
2282.00,0.0070
2281.00,0.0070
2280.00,0.0070
2279.00,0.0070
2278.00,0.0069
2277.00,0.0068
2276.00,0.0068
2275.00,0.0067
2274.00,0.0066
2273.00,0.0066
2272.00,0.0066
2271.00,0.0065
2270.00,0.0065
2269.00,0.0065
2268.00,0.0064
2267.00,0.0064
2266.00,0.0064
2265.00,0.0063
2264.00,0.0062
2263.00,0.0062
2262.00,0.0062
2261.00,0.0062
2260.00,0.0063
2259.00,0.0063
2258.00,0.0062
2257.00,0.0062
2256.00,0.0061
2255.00,0.0061
2254.00,0.0061
2253.00,0.0062
2252.00,0.0062
2251.00,0.0061
2250.00,0.0061
2249.00,0.0061
2248.00,0.0061
2247.00,0.0062
2246.00,0.0062
2245.00,0.0063
2244.00,0.0064
2243.00,0.0064
2242.00,0.0064
2241.00,0.0063
2240.00,0.0063
2239.00,0.0063
2238.00,0.0063
2237.00,0.0063
2236.00,0.0063
2235.00,0.0064
2234.00,0.0064
2233.00,0.0063
2232.00,0.0064
2231.00,0.0064
2230.00,0.0063
2229.00,0.0063
2228.00,0.0063
2227.00,0.0062
2226.00,0.0062
2225.00,0.0062
2224.00,0.0062
2223.00,0.0062
2222.00,0.0062
2221.00,0.0062
2220.00,0.0062
2219.00,0.0062
2218.00,0.0062
2217.00,0.0061
2216.00,0.0061
2215.00,0.0061
2214.00,0.0060
2213.00,0.0060
2212.00,0.0061
2211.00,0.0062
2210.00,0.0062
2209.00,0.0063
2208.00,0.0063
2207.00,0.0064
2206.00,0.0063
2205.00,0.0063
2204.00,0.0063
2203.00,0.0062
2202.00,0.0061
2201.00,0.0061
2200.00,0.0062
2199.00,0.0062
2198.00,0.0063
2197.00,0.0064
2196.00,0.0064
2195.00,0.0064
2194.00,0.0065
2193.00,0.0065
2192.00,0.0065
2191.00,0.0066
2190.00,0.0068
2189.00,0.0069
2188.00,0.0070
2187.00,0.0070
2186.00,0.0068
2185.00,0.0066
2184.00,0.0064
2183.00,0.0063
2182.00,0.0062
2181.00,0.0062
2180.00,0.0063
2179.00,0.0063
2178.00,0.0062
2177.00,0.0060
2176.00,0.0059
2175.00,0.0059
2174.00,0.0060
2173.00,0.0061
2172.00,0.0064
2171.00,0.0067
2170.00,0.0069
2169.00,0.0070
2168.00,0.0071
2167.00,0.0070
2166.00,0.0071
2165.00,0.0073
2164.00,0.0076
2163.00,0.0076
2162.00,0.0071
2161.00,0.0060
2160.00,0.0047
2159.00,0.0035
2158.00,0.0029
2157.00,0.0029
2156.00,0.0031
2155.00,0.0035
2154.00,0.0039
2153.00,0.0042
2152.00,0.0045
2151.00,0.0047
2150.00,0.0047
2149.00,0.0046
2148.00,0.0046
2147.00,0.0045
2146.00,0.0045
2145.00,0.0044
2144.00,0.0044
2143.00,0.0045
2142.00,0.0045
2141.00,0.0046
2140.00,0.0047
2139.00,0.0046
2138.00,0.0045
2137.00,0.0043
2136.00,0.0042
2135.00,0.0041
2134.00,0.0041
2133.00,0.0042
2132.00,0.0044
2131.00,0.0046
2130.00,0.0047
2129.00,0.0049
2128.00,0.0051
2127.00,0.0052
2126.00,0.0053
2125.00,0.0054
2124.00,0.0055
2123.00,0.0056
2122.00,0.0056
2121.00,0.0057
2120.00,0.0058
2119.00,0.0058
2118.00,0.0059
2117.00,0.0059
2116.00,0.0060
2115.00,0.0060
2114.00,0.0060
2113.00,0.0060
2112.00,0.0060
2111.00,0.0060
2110.00,0.0060
2109.00,0.0059
2108.00,0.0060
2107.00,0.0060
2106.00,0.0060
2105.00,0.0060
2104.00,0.0060
2103.00,0.0060
2102.00,0.0059
2101.00,0.0059
2100.00,0.0059
2099.00,0.0058
2098.00,0.0056
2097.00,0.0055
2096.00,0.0055
2095.00,0.0054
2094.00,0.0054
2093.00,0.0055
2092.00,0.0056
2091.00,0.0056
2090.00,0.0057
2089.00,0.0058
2088.00,0.0059
2087.00,0.0060
2086.00,0.0060
2085.00,0.0059
2084.00,0.0059
2083.00,0.0059
2082.00,0.0059
2081.00,0.0059
2080.00,0.0059
2079.00,0.0059
2078.00,0.0060
2077.00,0.0060
2076.00,0.0061
2075.00,0.0062
2074.00,0.0062
2073.00,0.0062
2072.00,0.0062
2071.00,0.0061
2070.00,0.0061
2069.00,0.0060
2068.00,0.0060
2067.00,0.0060
2066.00,0.0059
2065.00,0.0058
2064.00,0.0058
2063.00,0.0058
2062.00,0.0058
2061.00,0.0058
2060.00,0.0059
2059.00,0.0059
2058.00,0.0058
2057.00,0.0057
2056.00,0.0056
2055.00,0.0056
2054.00,0.0059
2053.00,0.0064
2052.00,0.0068
2051.00,0.0069
2050.00,0.0066
2049.00,0.0062
2048.00,0.0059
2047.00,0.0057
2046.00,0.0056
2045.00,0.0056
2044.00,0.0056
2043.00,0.0056
2042.00,0.0056
2041.00,0.0057
2040.00,0.0058
2039.00,0.0060
2038.00,0.0061
2037.00,0.0061
2036.00,0.0060
2035.00,0.0058
2034.00,0.0056
2033.00,0.0055
2032.00,0.0054
2031.00,0.0053
2030.00,0.0051
2029.00,0.0051
2028.00,0.0051
2027.00,0.0052
2026.00,0.0053
2025.00,0.0052
2024.00,0.0052
2023.00,0.0052
2022.00,0.0052
2021.00,0.0051
2020.00,0.0051
2019.00,0.0052
2018.00,0.0051
2017.00,0.0051
2016.00,0.0050
2015.00,0.0050
2014.00,0.0050
2013.00,0.0050
2012.00,0.0052
2011.00,0.0053
2010.00,0.0053
2009.00,0.0052
2008.00,0.0050
2007.00,0.0047
2006.00,0.0044
2005.00,0.0043
2004.00,0.0044
2003.00,0.0045
2002.00,0.0047
2001.00,0.0048
2000.00,0.0049
1999.00,0.0050
1998.00,0.0050
1997.00,0.0050
1996.00,0.0050
1995.00,0.0051
1994.00,0.0053
1993.00,0.0055
1992.00,0.0057
1991.00,0.0058
1990.00,0.0057
1989.00,0.0057
1988.00,0.0056
1987.00,0.0056
1986.00,0.0056
1985.00,0.0058
1984.00,0.0060
1983.00,0.0063
1982.00,0.0066
1981.00,0.0066
1980.00,0.0064
1979.00,0.0059
1978.00,0.0053
1977.00,0.0048
1976.00,0.0045
1975.00,0.0043
1974.00,0.0043
1973.00,0.0043
1972.00,0.0045
1971.00,0.0046
1970.00,0.0047
1969.00,0.0048
1968.00,0.0049
1967.00,0.0050
1966.00,0.0050
1965.00,0.0050
1964.00,0.0049
1963.00,0.0048
1962.00,0.0046
1961.00,0.0044
1960.00,0.0043
1959.00,0.0043
1958.00,0.0043
1957.00,0.0043
1956.00,0.0043
1955.00,0.0043
1954.00,0.0043
1953.00,0.0044
1952.00,0.0045
1951.00,0.0046
1950.00,0.0046
1949.00,0.0047
1948.00,0.0048
1947.00,0.0048
1946.00,0.0047
1945.00,0.0047
1944.00,0.0047
1943.00,0.0047
1942.00,0.0046
1941.00,0.0046
1940.00,0.0047
1939.00,0.0047
1938.00,0.0047
1937.00,0.0047
1936.00,0.0047
1935.00,0.0048
1934.00,0.0048
1933.00,0.0048
1932.00,0.0048
1931.00,0.0049
1930.00,0.0049
1929.00,0.0049
1928.00,0.0050
1927.00,0.0050
1926.00,0.0049
1925.00,0.0049
1924.00,0.0049
1923.00,0.0049
1922.00,0.0050
1921.00,0.0050
1920.00,0.0051
1919.00,0.0051
1918.00,0.0050
1917.00,0.0051
1916.00,0.0051
1915.00,0.0052
1914.00,0.0052
1913.00,0.0053
1912.00,0.0054
1911.00,0.0055
1910.00,0.0056
1909.00,0.0057
1908.00,0.0058
1907.00,0.0057
1906.00,0.0056
1905.00,0.0055
1904.00,0.0054
1903.00,0.0054
1902.00,0.0054
1901.00,0.0054
1900.00,0.0055
1899.00,0.0054
1898.00,0.0054
1897.00,0.0054
1896.00,0.0054
1895.00,0.0055
1894.00,0.0056
1893.00,0.0056
1892.00,0.0056
1891.00,0.0055
1890.00,0.0054
1889.00,0.0053
1888.00,0.0053
1887.00,0.0053
1886.00,0.0052
1885.00,0.0053
1884.00,0.0053
1883.00,0.0053
1882.00,0.0053
1881.00,0.0052
1880.00,0.0052
1879.00,0.0052
1878.00,0.0052
1877.00,0.0053
1876.00,0.0053
1875.00,0.0053
1874.00,0.0053
1873.00,0.0052
1872.00,0.0052
1871.00,0.0052
1870.00,0.0052
1869.00,0.0052
1868.00,0.0052
1867.00,0.0053
1866.00,0.0052
1865.00,0.0052
1864.00,0.0053
1863.00,0.0053
1862.00,0.0053
1861.00,0.0053
1860.00,0.0054
1859.00,0.0054
1858.00,0.0054
1857.00,0.0053
1856.00,0.0054
1855.00,0.0054
1854.00,0.0054
1853.00,0.0054
1852.00,0.0054
1851.00,0.0054
1850.00,0.0055
1849.00,0.0055
1848.00,0.0056
1847.00,0.0056
1846.00,0.0056
1845.00,0.0055
1844.00,0.0055
1843.00,0.0054
1842.00,0.0054
1841.00,0.0053
1840.00,0.0054
1839.00,0.0054
1838.00,0.0054
1837.00,0.0054
1836.00,0.0054
1835.00,0.0054
1834.00,0.0054
1833.00,0.0053
1832.00,0.0053
1831.00,0.0052
1830.00,0.0051
1829.00,0.0051
1828.00,0.0052
1827.00,0.0052
1826.00,0.0052
1825.00,0.0052
1824.00,0.0053
1823.00,0.0053
1822.00,0.0053
1821.00,0.0053
1820.00,0.0052
1819.00,0.0052
1818.00,0.0051
1817.00,0.0051
1816.00,0.0052
1815.00,0.0053
1814.00,0.0053
1813.00,0.0053
1812.00,0.0054
1811.00,0.0054
1810.00,0.0054
1809.00,0.0053
1808.00,0.0054
1807.00,0.0054
1806.00,0.0054
1805.00,0.0054
1804.00,0.0055
1803.00,0.0055
1802.00,0.0055
1801.00,0.0055
1800.00,0.0055
1799.00,0.0055
1798.00,0.0055
1797.00,0.0056
1796.00,0.0056
1795.00,0.0056
1794.00,0.0056
1793.00,0.0055
1792.00,0.0055
1791.00,0.0054
1790.00,0.0054
1789.00,0.0055
1788.00,0.0055
1787.00,0.0056
1786.00,0.0056
1785.00,0.0056
1784.00,0.0057
1783.00,0.0057
1782.00,0.0056
1781.00,0.0056
1780.00,0.0056
1779.00,0.0057
1778.00,0.0057
1777.00,0.0057
1776.00,0.0058
1775.00,0.0058
1774.00,0.0058
1773.00,0.0057
1772.00,0.0057
1771.00,0.0057
1770.00,0.0056
1769.00,0.0056
1768.00,0.0057
1767.00,0.0058
1766.00,0.0058
1765.00,0.0058
1764.00,0.0059
1763.00,0.0059
1762.00,0.0059
1761.00,0.0059
1760.00,0.0060
1759.00,0.0060
1758.00,0.0060
1757.00,0.0060
1756.00,0.0060
1755.00,0.0060
1754.00,0.0060
1753.00,0.0060
1752.00,0.0060
1751.00,0.0060
1750.00,0.0060
1749.00,0.0060
1748.00,0.0060
1747.00,0.0061
1746.00,0.0061
1745.00,0.0062
1744.00,0.0063
1743.00,0.0064
1742.00,0.0064
1741.00,0.0063
1740.00,0.0063
1739.00,0.0064
1738.00,0.0064
1737.00,0.0064
1736.00,0.0064
1735.00,0.0063
1734.00,0.0063
1733.00,0.0064
1732.00,0.0065
1731.00,0.0066
1730.00,0.0068
1729.00,0.0071
1728.00,0.0073
1727.00,0.0074
1726.00,0.0075
1725.00,0.0076
1724.00,0.0077
1723.00,0.0078
1722.00,0.0079
1721.00,0.0080
1720.00,0.0080
1719.00,0.0081
1718.00,0.0081
1717.00,0.0082
1716.00,0.0083
1715.00,0.0085
1714.00,0.0088
1713.00,0.0091
1712.00,0.0094
1711.00,0.0098
1710.00,0.0101
1709.00,0.0104
1708.00,0.0107
1707.00,0.0111
1706.00,0.0114
1705.00,0.0119
1704.00,0.0123
1703.00,0.0127
1702.00,0.0130
1701.00,0.0136
1700.00,0.0146
1699.00,0.0155
1698.00,0.0161
1697.00,0.0170
1696.00,0.0184
1695.00,0.0201
1694.00,0.0214
1693.00,0.0225
1692.00,0.0237
1691.00,0.0251
1690.00,0.0266
1689.00,0.0281
1688.00,0.0294
1687.00,0.0304
1686.00,0.0314
1685.00,0.0329
1684.00,0.0353
1683.00,0.0374
1682.00,0.0389
1681.00,0.0401
1680.00,0.0415
1679.00,0.0428
1678.00,0.0439
1677.00,0.0449
1676.00,0.0463
1675.00,0.0479
1674.00,0.0494
1673.00,0.0505
1672.00,0.0514
1671.00,0.0524
1670.00,0.0539
1669.00,0.0556
1668.00,0.0571
1667.00,0.0582
1666.00,0.0590
1665.00,0.0598
1664.00,0.0609
1663.00,0.0623
1662.00,0.0637
1661.00,0.0650
1660.00,0.0661
1659.00,0.0670
1658.00,0.0676
1657.00,0.0681
1656.00,0.0683
1655.00,0.0684
1654.00,0.0691
1653.00,0.0708
1652.00,0.0722
1651.00,0.0726
1650.00,0.0723
1649.00,0.0720
1648.00,0.0719
1647.00,0.0721
1646.00,0.0721
1645.00,0.0719
1644.00,0.0715
1643.00,0.0708
1642.00,0.0700
1641.00,0.0691
1640.00,0.0681
1639.00,0.0669
1638.00,0.0655
1637.00,0.0640
1636.00,0.0626
1635.00,0.0614
1634.00,0.0605
1633.00,0.0598
1632.00,0.0593
1631.00,0.0591
1630.00,0.0592
1629.00,0.0600
1628.00,0.0612
1627.00,0.0625
1626.00,0.0635
1625.00,0.0642
1624.00,0.0649
1623.00,0.0654
1622.00,0.0655
1621.00,0.0648
1620.00,0.0636
1619.00,0.0617
1618.00,0.0592
1617.00,0.0562
1616.00,0.0536
1615.00,0.0518
1614.00,0.0507
1613.00,0.0500
1612.00,0.0496
1611.00,0.0491
1610.00,0.0483
1609.00,0.0471
1608.00,0.0454
1607.00,0.0435
1606.00,0.0413
1605.00,0.0392
1604.00,0.0370
1603.00,0.0351
1602.00,0.0333
1601.00,0.0317
1600.00,0.0303
1599.00,0.0292
1598.00,0.0283
1597.00,0.0275
1596.00,0.0270
1595.00,0.0268
1594.00,0.0269
1593.00,0.0274
1592.00,0.0281
1591.00,0.0292
1590.00,0.0306
1589.00,0.0321
1588.00,0.0336
1587.00,0.0350
1586.00,0.0360
1585.00,0.0366
1584.00,0.0369
1583.00,0.0368
1582.00,0.0363
1581.00,0.0355
1580.00,0.0346
1579.00,0.0335
1578.00,0.0322
1577.00,0.0307
1576.00,0.0292
1575.00,0.0280
1574.00,0.0270
1573.00,0.0262
1572.00,0.0255
1571.00,0.0249
1570.00,0.0244
1569.00,0.0239
1568.00,0.0234
1567.00,0.0228
1566.00,0.0221
1565.00,0.0212
1564.00,0.0204
1563.00,0.0195
1562.00,0.0186
1561.00,0.0177
1560.00,0.0167
1559.00,0.0158
1558.00,0.0153
1557.00,0.0149
1556.00,0.0146
1555.00,0.0146
1554.00,0.0146
1553.00,0.0145
1552.00,0.0144
1551.00,0.0143
1550.00,0.0143
1549.00,0.0142
1548.00,0.0140
1547.00,0.0138
1546.00,0.0136
1545.00,0.0134
1544.00,0.0132
1543.00,0.0129
1542.00,0.0126
1541.00,0.0123
1540.00,0.0121
1539.00,0.0120
1538.00,0.0120
1537.00,0.0121
1536.00,0.0121
1535.00,0.0121
1534.00,0.0121
1533.00,0.0122
1532.00,0.0121
1531.00,0.0121
1530.00,0.0121
1529.00,0.0121
1528.00,0.0121
1527.00,0.0121
1526.00,0.0121
1525.00,0.0121
1524.00,0.0120
1523.00,0.0119
1522.00,0.0119
1521.00,0.0122
1520.00,0.0124
1519.00,0.0126
1518.00,0.0129
1517.00,0.0133
1516.00,0.0137
1515.00,0.0141
1514.00,0.0144
1513.00,0.0146
1512.00,0.0149
1511.00,0.0151
1510.00,0.0152
1509.00,0.0153
1508.00,0.0154
1507.00,0.0159
1506.00,0.0166
1505.00,0.0173
1504.00,0.0179
1503.00,0.0187
1502.00,0.0198
1501.00,0.0212
1500.00,0.0229
1499.00,0.0250
1498.00,0.0273
1497.00,0.0296
1496.00,0.0311
1495.00,0.0315
1494.00,0.0311
1493.00,0.0302
1492.00,0.0288
1491.00,0.0272
1490.00,0.0255
1489.00,0.0239
1488.00,0.0225
1487.00,0.0212
1486.00,0.0200
1485.00,0.0191
1484.00,0.0183
1483.00,0.0176
1482.00,0.0170
1481.00,0.0166
1480.00,0.0164
1479.00,0.0163
1478.00,0.0163
1477.00,0.0164
1476.00,0.0168
1475.00,0.0172
1474.00,0.0180
1473.00,0.0194
1472.00,0.0215
1471.00,0.0239
1470.00,0.0264
1469.00,0.0292
1468.00,0.0320
1467.00,0.0348
1466.00,0.0374
1465.00,0.0397
1464.00,0.0414
1463.00,0.0423
1462.00,0.0427
1461.00,0.0428
1460.00,0.0426
1459.00,0.0420
1458.00,0.0409
1457.00,0.0394
1456.00,0.0377
1455.00,0.0363
1454.00,0.0353
1453.00,0.0346
1452.00,0.0343
1451.00,0.0343
1450.00,0.0346
1449.00,0.0353
1448.00,0.0364
1447.00,0.0379
1446.00,0.0396
1445.00,0.0414
1444.00,0.0433
1443.00,0.0453
1442.00,0.0472
1441.00,0.0490
1440.00,0.0503
1439.00,0.0512
1438.00,0.0521
1437.00,0.0532
1436.00,0.0544
1435.00,0.0553
1434.00,0.0559
1433.00,0.0565
1432.00,0.0571
1431.00,0.0577
1430.00,0.0585
1429.00,0.0594
1428.00,0.0602
1427.00,0.0609
1426.00,0.0616
1425.00,0.0623
1424.00,0.0630
1423.00,0.0633
1422.00,0.0630
1421.00,0.0622
1420.00,0.0607
1419.00,0.0584
1418.00,0.0559
1417.00,0.0532
1416.00,0.0505
1415.00,0.0479
1414.00,0.0454
1413.00,0.0433
1412.00,0.0414
1411.00,0.0400
1410.00,0.0391
1409.00,0.0386
1408.00,0.0385
1407.00,0.0387
1406.00,0.0394
1405.00,0.0404
1404.00,0.0415
1403.00,0.0424
1402.00,0.0429
1401.00,0.0431
1400.00,0.0429
1399.00,0.0422
1398.00,0.0412
1397.00,0.0399
1396.00,0.0382
1395.00,0.0364
1394.00,0.0346
1393.00,0.0331
1392.00,0.0319
1391.00,0.0310
1390.00,0.0307
1389.00,0.0309
1388.00,0.0317
1387.00,0.0326
1386.00,0.0330
1385.00,0.0328
1384.00,0.0323
1383.00,0.0320
1382.00,0.0320
1381.00,0.0324
1380.00,0.0329
1379.00,0.0334
1378.00,0.0336
1377.00,0.0337
1376.00,0.0334
1375.00,0.0327
1374.00,0.0318
1373.00,0.0310
1372.00,0.0304
1371.00,0.0301
1370.00,0.0302
1369.00,0.0309
1368.00,0.0318
1367.00,0.0329
1366.00,0.0338
1365.00,0.0342
1364.00,0.0342
1363.00,0.0345
1362.00,0.0352
1361.00,0.0363
1360.00,0.0369
1359.00,0.0365
1358.00,0.0353
1357.00,0.0335
1356.00,0.0319
1355.00,0.0305
1354.00,0.0296
1353.00,0.0290
1352.00,0.0286
1351.00,0.0283
1350.00,0.0283
1349.00,0.0284
1348.00,0.0284
1347.00,0.0284
1346.00,0.0282
1345.00,0.0278
1344.00,0.0273
1343.00,0.0267
1342.00,0.0260
1341.00,0.0253
1340.00,0.0247
1339.00,0.0241
1338.00,0.0238
1337.00,0.0236
1336.00,0.0236
1335.00,0.0238
1334.00,0.0243
1333.00,0.0248
1332.00,0.0254
1331.00,0.0260
1330.00,0.0265
1329.00,0.0270
1328.00,0.0274
1327.00,0.0277
1326.00,0.0280
1325.00,0.0284
1324.00,0.0288
1323.00,0.0292
1322.00,0.0297
1321.00,0.0302
1320.00,0.0305
1319.00,0.0308
1318.00,0.0308
1317.00,0.0306
1316.00,0.0302
1315.00,0.0297
1314.00,0.0292
1313.00,0.0288
1312.00,0.0285
1311.00,0.0283
1310.00,0.0284
1309.00,0.0287
1308.00,0.0292
1307.00,0.0300
1306.00,0.0313
1305.00,0.0329
1304.00,0.0349
1303.00,0.0371
1302.00,0.0393
1301.00,0.0413
1300.00,0.0429
1299.00,0.0443
1298.00,0.0457
1297.00,0.0475
1296.00,0.0497
1295.00,0.0521
1294.00,0.0546
1293.00,0.0570
1292.00,0.0592
1291.00,0.0610
1290.00,0.0627
1289.00,0.0643
1288.00,0.0658
1287.00,0.0672
1286.00,0.0683
1285.00,0.0690
1284.00,0.0693
1283.00,0.0689
1282.00,0.0680
1281.00,0.0666
1280.00,0.0650
1279.00,0.0633
1278.00,0.0619
1277.00,0.0608
1276.00,0.0601
1275.00,0.0595
1274.00,0.0592
1273.00,0.0587
1272.00,0.0582
1271.00,0.0574
1270.00,0.0564
1269.00,0.0552
1268.00,0.0538
1267.00,0.0523
1266.00,0.0507
1265.00,0.0490
1264.00,0.0473
1263.00,0.0455
1262.00,0.0437
1261.00,0.0421
1260.00,0.0405
1259.00,0.0391
1258.00,0.0378
1257.00,0.0367
1256.00,0.0357
1255.00,0.0348
1254.00,0.0341
1253.00,0.0335
1252.00,0.0332
1251.00,0.0330
1250.00,0.0331
1249.00,0.0334
1248.00,0.0340
1247.00,0.0347
1246.00,0.0355
1245.00,0.0364
1244.00,0.0371
1243.00,0.0377
1242.00,0.0382
1241.00,0.0387
1240.00,0.0394
1239.00,0.0403
1238.00,0.0415
1237.00,0.0429
1236.00,0.0443
1235.00,0.0455
1234.00,0.0463
1233.00,0.0466
1232.00,0.0463
1231.00,0.0455
1230.00,0.0445
1229.00,0.0433
1228.00,0.0422
1227.00,0.0412
1226.00,0.0403
1225.00,0.0395
1224.00,0.0389
1223.00,0.0385
1222.00,0.0382
1221.00,0.0382
1220.00,0.0384
1219.00,0.0386
1218.00,0.0391
1217.00,0.0395
1216.00,0.0400
1215.00,0.0402
1214.00,0.0401
1213.00,0.0396
1212.00,0.0387
1211.00,0.0375
1210.00,0.0361
1209.00,0.0348
1208.00,0.0336
1207.00,0.0327
1206.00,0.0321
1205.00,0.0319
1204.00,0.0320
1203.00,0.0325
1202.00,0.0334
1201.00,0.0345
1200.00,0.0358
1199.00,0.0373
1198.00,0.0390
1197.00,0.0407
1196.00,0.0421
1195.00,0.0431
1194.00,0.0433
1193.00,0.0428
1192.00,0.0417
1191.00,0.0402
1190.00,0.0385
1189.00,0.0366
1188.00,0.0347
1187.00,0.0330
1186.00,0.0314
1185.00,0.0301
1184.00,0.0290
1183.00,0.0282
1182.00,0.0275
1181.00,0.0270
1180.00,0.0267
1179.00,0.0265
1178.00,0.0263
1177.00,0.0263
1176.00,0.0263
1175.00,0.0264
1174.00,0.0264
1173.00,0.0265
1172.00,0.0266
1171.00,0.0267
1170.00,0.0267
1169.00,0.0267
1168.00,0.0267
1167.00,0.0266
1166.00,0.0266
1165.00,0.0266
1164.00,0.0267
1163.00,0.0270
1162.00,0.0276
1161.00,0.0284
1160.00,0.0298
1159.00,0.0317
1158.00,0.0342
1157.00,0.0370
1156.00,0.0395
1155.00,0.0411
1154.00,0.0412
1153.00,0.0398
1152.00,0.0372
1151.00,0.0340
1150.00,0.0309
1149.00,0.0282
1148.00,0.0262
1147.00,0.0247
1146.00,0.0237
1145.00,0.0230
1144.00,0.0224
1143.00,0.0221
1142.00,0.0218
1141.00,0.0217
1140.00,0.0218
1139.00,0.0220
1138.00,0.0224
1137.00,0.0231
1136.00,0.0242
1135.00,0.0259
1134.00,0.0283
1133.00,0.0314
1132.00,0.0350
1131.00,0.0387
1130.00,0.0419
1129.00,0.0440
1128.00,0.0449
1127.00,0.0446
1126.00,0.0433
1125.00,0.0414
1124.00,0.0391
1123.00,0.0365
1122.00,0.0340
1121.00,0.0318
1120.00,0.0299
1119.00,0.0286
1118.00,0.0278
1117.00,0.0273
1116.00,0.0271
1115.00,0.0269
1114.00,0.0267
1113.00,0.0265
1112.00,0.0261
1111.00,0.0256
1110.00,0.0252
1109.00,0.0248
1108.00,0.0246
1107.00,0.0246
1106.00,0.0250
1105.00,0.0258
1104.00,0.0271
1103.00,0.0289
1102.00,0.0310
1101.00,0.0329
1100.00,0.0342
1099.00,0.0346
1098.00,0.0339
1097.00,0.0324
1096.00,0.0304
1095.00,0.0284
1094.00,0.0265
1093.00,0.0250
1092.00,0.0238
1091.00,0.0230
1090.00,0.0223
1089.00,0.0219
1088.00,0.0216
1087.00,0.0213
1086.00,0.0211
1085.00,0.0210
1084.00,0.0210
1083.00,0.0210
1082.00,0.0210
1081.00,0.0211
1080.00,0.0212
1079.00,0.0213
1078.00,0.0215
1077.00,0.0217
1076.00,0.0220
1075.00,0.0222
1074.00,0.0224
1073.00,0.0226
1072.00,0.0229
1071.00,0.0231
1070.00,0.0234
1069.00,0.0238
1068.00,0.0242
1067.00,0.0248
1066.00,0.0254
1065.00,0.0261
1064.00,0.0270
1063.00,0.0281
1062.00,0.0297
1061.00,0.0317
1060.00,0.0343
1059.00,0.0375
1058.00,0.0413
1057.00,0.0453
1056.00,0.0492
1055.00,0.0525
1054.00,0.0548
1053.00,0.0563
1052.00,0.0571
1051.00,0.0575
1050.00,0.0575
1049.00,0.0569
1048.00,0.0555
1047.00,0.0534
1046.00,0.0507
1045.00,0.0476
1044.00,0.0445
1043.00,0.0415
1042.00,0.0388
1041.00,0.0366
1040.00,0.0349
1039.00,0.0337
1038.00,0.0331
1037.00,0.0330
1036.00,0.0332
1035.00,0.0336
1034.00,0.0341
1033.00,0.0349
1032.00,0.0362
1031.00,0.0385
1030.00,0.0416
1029.00,0.0453
1028.00,0.0489
1027.00,0.0514
1026.00,0.0521
1025.00,0.0510
1024.00,0.0484
1023.00,0.0452
1022.00,0.0420
1021.00,0.0391
1020.00,0.0367
1019.00,0.0346
1018.00,0.0329
1017.00,0.0315
1016.00,0.0302
1015.00,0.0290
1014.00,0.0281
1013.00,0.0272
1012.00,0.0266
1011.00,0.0264
1010.00,0.0265
1009.00,0.0272
1008.00,0.0282
1007.00,0.0295
1006.00,0.0308
1005.00,0.0321
1004.00,0.0331
1003.00,0.0335
1002.00,0.0334
1001.00,0.0329
1000.00,0.0321
999.00,0.0313
998.00,0.0306
997.00,0.0300
996.00,0.0294
995.00,0.0289
994.00,0.0285
993.00,0.0278
992.00,0.0271
991.00,0.0262
990.00,0.0252
989.00,0.0243
988.00,0.0235
987.00,0.0228
986.00,0.0223
985.00,0.0218
984.00,0.0214
983.00,0.0210
982.00,0.0207
981.00,0.0205
980.00,0.0203
979.00,0.0202
978.00,0.0201
977.00,0.0201
976.00,0.0200
975.00,0.0199
974.00,0.0198
973.00,0.0197
972.00,0.0195
971.00,0.0194
970.00,0.0192
969.00,0.0192
968.00,0.0191
967.00,0.0191
966.00,0.0191
965.00,0.0193
964.00,0.0195
963.00,0.0197
962.00,0.0198
961.00,0.0197
960.00,0.0194
959.00,0.0189
958.00,0.0184
957.00,0.0179
956.00,0.0175
955.00,0.0172
954.00,0.0168
953.00,0.0165
952.00,0.0164
951.00,0.0163
950.00,0.0164
949.00,0.0166
948.00,0.0167
947.00,0.0166
946.00,0.0166
945.00,0.0165
944.00,0.0167
943.00,0.0170
942.00,0.0175
941.00,0.0180
940.00,0.0186
939.00,0.0192
938.00,0.0197
937.00,0.0201
936.00,0.0206
935.00,0.0211
934.00,0.0215
933.00,0.0218
932.00,0.0218
931.00,0.0215
930.00,0.0211
929.00,0.0207
928.00,0.0204
927.00,0.0203
926.00,0.0205
925.00,0.0208
924.00,0.0213
923.00,0.0218
922.00,0.0221
921.00,0.0220
920.00,0.0216
919.00,0.0208
918.00,0.0199
917.00,0.0191
916.00,0.0184
915.00,0.0178
914.00,0.0174
913.00,0.0171
912.00,0.0170
911.00,0.0168
910.00,0.0168
909.00,0.0168
908.00,0.0168
907.00,0.0170
906.00,0.0173
905.00,0.0178
904.00,0.0185
903.00,0.0194
902.00,0.0206
901.00,0.0218
900.00,0.0228
899.00,0.0232
898.00,0.0231
897.00,0.0226
896.00,0.0218
895.00,0.0212
894.00,0.0209
893.00,0.0211
892.00,0.0218
891.00,0.0227
890.00,0.0233
889.00,0.0230
888.00,0.0221
887.00,0.0207
886.00,0.0196
885.00,0.0188
884.00,0.0184
883.00,0.0183
882.00,0.0183
881.00,0.0185
880.00,0.0188
879.00,0.0194
878.00,0.0205
877.00,0.0219
876.00,0.0238
875.00,0.0262
874.00,0.0289
873.00,0.0318
872.00,0.0346
871.00,0.0369
870.00,0.0383
869.00,0.0385
868.00,0.0375
867.00,0.0359
866.00,0.0341
865.00,0.0324
864.00,0.0308
863.00,0.0293
862.00,0.0279
861.00,0.0267
860.00,0.0259
859.00,0.0255
858.00,0.0257
857.00,0.0266
856.00,0.0281
855.00,0.0297
854.00,0.0314
853.00,0.0330
852.00,0.0346
851.00,0.0363
850.00,0.0379
849.00,0.0388
848.00,0.0389
847.00,0.0380
846.00,0.0367
845.00,0.0352
844.00,0.0339
843.00,0.0329
842.00,0.0322
841.00,0.0318
840.00,0.0318
839.00,0.0323
838.00,0.0334
837.00,0.0349
836.00,0.0366
835.00,0.0380
834.00,0.0388
833.00,0.0390
832.00,0.0384
831.00,0.0371
830.00,0.0352
829.00,0.0330
828.00,0.0307
827.00,0.0287
826.00,0.0273
825.00,0.0268
824.00,0.0276
823.00,0.0300
822.00,0.0340
821.00,0.0383
820.00,0.0414
819.00,0.0432
818.00,0.0444
817.00,0.0459
816.00,0.0471
815.00,0.0463
814.00,0.0429
813.00,0.0379
812.00,0.0331
811.00,0.0295
810.00,0.0270
809.00,0.0254
808.00,0.0243
807.00,0.0235
806.00,0.0229
805.00,0.0225
804.00,0.0222
803.00,0.0219
802.00,0.0217
801.00,0.0215
800.00,0.0214
799.00,0.0213
798.00,0.0213
797.00,0.0212
796.00,0.0212
795.00,0.0212
794.00,0.0212
793.00,0.0212
792.00,0.0213
791.00,0.0213
790.00,0.0213
789.00,0.0213
788.00,0.0213
787.00,0.0214
786.00,0.0214
785.00,0.0214
784.00,0.0214
783.00,0.0215
782.00,0.0216
781.00,0.0218
780.00,0.0220
779.00,0.0223
778.00,0.0228
777.00,0.0235
776.00,0.0244
775.00,0.0252
774.00,0.0256
773.00,0.0255
772.00,0.0251
771.00,0.0246
770.00,0.0242
769.00,0.0240
768.00,0.0240
767.00,0.0240
766.00,0.0242
765.00,0.0244
764.00,0.0249
763.00,0.0255
762.00,0.0261
761.00,0.0267
760.00,0.0273
759.00,0.0277
758.00,0.0278
757.00,0.0279
756.00,0.0278
755.00,0.0279
754.00,0.0280
753.00,0.0283
752.00,0.0285
751.00,0.0288
750.00,0.0290
749.00,0.0293
748.00,0.0296
747.00,0.0299
746.00,0.0303
745.00,0.0307
744.00,0.0311
743.00,0.0317
742.00,0.0323
741.00,0.0332
740.00,0.0343
739.00,0.0358
738.00,0.0377
737.00,0.0400
736.00,0.0421
735.00,0.0436
734.00,0.0441
733.00,0.0437
732.00,0.0430
731.00,0.0426
730.00,0.0427
729.00,0.0428
728.00,0.0426
727.00,0.0416
726.00,0.0401
725.00,0.0384
724.00,0.0368
723.00,0.0356
722.00,0.0347
721.00,0.0342
720.00,0.0340
719.00,0.0343
718.00,0.0349
717.00,0.0357
716.00,0.0364
715.00,0.0369
714.00,0.0370
713.00,0.0368
712.00,0.0364
711.00,0.0359
710.00,0.0354
709.00,0.0350
708.00,0.0348
707.00,0.0347
706.00,0.0347
705.00,0.0350
704.00,0.0354
703.00,0.0359
702.00,0.0364
701.00,0.0370
700.00,0.0375
699.00,0.0380
698.00,0.0383
697.00,0.0383
696.00,0.0381
695.00,0.0378
694.00,0.0376
693.00,0.0376
692.00,0.0379
691.00,0.0386
690.00,0.0396
689.00,0.0407
688.00,0.0415
687.00,0.0418
686.00,0.0417
685.00,0.0413
684.00,0.0410
683.00,0.0408
682.00,0.0408
681.00,0.0409
680.00,0.0413
679.00,0.0418
678.00,0.0423
677.00,0.0430
676.00,0.0438
675.00,0.0448
674.00,0.0458
673.00,0.0468
672.00,0.0477
671.00,0.0482
670.00,0.0486
669.00,0.0488
668.00,0.0491
667.00,0.0495
666.00,0.0497
665.00,0.0498
664.00,0.0502
663.00,0.0509
662.00,0.0517
661.00,0.0523
660.00,0.0525
659.00,0.0525
658.00,0.0523
657.00,0.0521
656.00,0.0520
655.00,0.0520
654.00,0.0522
653.00,0.0525
652.00,0.0528
651.00,0.0531
650.00,0.0533
649.00,0.0534
648.00,0.0535
647.00,0.0535
646.00,0.0534
645.00,0.0533
644.00,0.0531
643.00,0.0529
642.00,0.0525
641.00,0.0522
640.00,0.0518
639.00,0.0516
638.00,0.0513
637.00,0.0511
636.00,0.0509
635.00,0.0506
634.00,0.0503
633.00,0.0499
632.00,0.0497
631.00,0.0495
630.00,0.0495
629.00,0.0495
628.00,0.0496
627.00,0.0497
626.00,0.0499
625.00,0.0503
624.00,0.0507
623.00,0.0513
622.00,0.0519
621.00,0.0524
620.00,0.0527
619.00,0.0527
618.00,0.0525
617.00,0.0520
616.00,0.0512
615.00,0.0503
614.00,0.0495
613.00,0.0489
612.00,0.0487
611.00,0.0488
610.00,0.0492
609.00,0.0499
608.00,0.0510
607.00,0.0524
606.00,0.0540
605.00,0.0555
604.00,0.0569
603.00,0.0579
602.00,0.0587
601.00,0.0592
600.00,0.0595
599.00,0.0597
598.00,0.0598
597.00,0.0598
596.00,0.0599
595.00,0.0599
594.00,0.0600
593.00,0.0600
592.00,0.0600
591.00,0.0600
590.00,0.0600
589.00,0.0600
588.00,0.0600
587.00,0.0600
586.00,0.0601
585.00,0.0604
584.00,0.0608
583.00,0.0613
582.00,0.0620
581.00,0.0629
580.00,0.0640
579.00,0.0654
578.00,0.0670
577.00,0.0683
576.00,0.0691
575.00,0.0692
574.00,0.0685
573.00,0.0674
572.00,0.0662
571.00,0.0651
570.00,0.0642
569.00,0.0634
568.00,0.0629
567.00,0.0627
566.00,0.0627
565.00,0.0631
564.00,0.0638
563.00,0.0648
562.00,0.0661
561.00,0.0673
560.00,0.0680
559.00,0.0680
558.00,0.0674
557.00,0.0665
556.00,0.0654
555.00,0.0645
554.00,0.0637
553.00,0.0632
552.00,0.0631
551.00,0.0634
550.00,0.0641
549.00,0.0651
548.00,0.0662
547.00,0.0671
546.00,0.0676
545.00,0.0677
544.00,0.0672
543.00,0.0664
542.00,0.0653
541.00,0.0643
540.00,0.0634
539.00,0.0626
538.00,0.0621
537.00,0.0620
536.00,0.0622
535.00,0.0628
534.00,0.0636
533.00,0.0646
532.00,0.0653
531.00,0.0658
530.00,0.0657
529.00,0.0652
528.00,0.0643
527.00,0.0631
526.00,0.0618
525.00,0.0607
524.00,0.0600
523.00,0.0594
522.00,0.0589
521.00,0.0585
520.00,0.0583
519.00,0.0581
518.00,0.0579
517.00,0.0578
516.00,0.0576
515.00,0.0574
514.00,0.0572
513.00,0.0569
512.00,0.0568
511.00,0.0569
510.00,0.0570
509.00,0.0573
508.00,0.0577
507.00,0.0581
506.00,0.0584
505.00,0.0583
504.00,0.0581
503.00,0.0577
502.00,0.0573
501.00,0.0570
500.00,0.0567
499.00,0.0566
498.00,0.0565
497.00,0.0565
496.00,0.0567
495.00,0.0570
494.00,0.0574
493.00,0.0577
492.00,0.0580
491.00,0.0581
490.00,0.0579
489.00,0.0575
488.00,0.0570
487.00,0.0567
486.00,0.0566
485.00,0.0568
484.00,0.0569
483.00,0.0568
482.00,0.0567
481.00,0.0567
480.00,0.0568
479.00,0.0569
478.00,0.0570
477.00,0.0569
476.00,0.0568
475.00,0.0566
474.00,0.0565
473.00,0.0565
472.00,0.0566
471.00,0.0566
470.00,0.0565
469.00,0.0564
468.00,0.0563
467.00,0.0563
466.00,0.0562
465.00,0.0560
464.00,0.0559
463.00,0.0558
462.00,0.0558
461.00,0.0557
460.00,0.0556
459.00,0.0554
458.00,0.0551
457.00,0.0548
456.00,0.0545
455.00,0.0541
454.00,0.0538
453.00,0.0535
452.00,0.0534
451.00,0.0533
450.00,0.0531
449.00,0.0528
448.00,0.0526
447.00,0.0525
446.00,0.0524
445.00,0.0523
444.00,0.0522
443.00,0.0521
442.00,0.0520
441.00,0.0518
440.00,0.0517
439.00,0.0518
438.00,0.0518
437.00,0.0517
436.00,0.0513
435.00,0.0509
434.00,0.0505
433.00,0.0504
432.00,0.0504
431.00,0.0503
430.00,0.0498
429.00,0.0492
428.00,0.0484
427.00,0.0478
426.00,0.0476
425.00,0.0478
424.00,0.0481
423.00,0.0480
422.00,0.0476
421.00,0.0468
420.00,0.0461
419.00,0.0457
418.00,0.0458
417.00,0.0463
416.00,0.0468
415.00,0.0473
414.00,0.0477
413.00,0.0483
412.00,0.0489
411.00,0.0495
410.00,0.0498
409.00,0.0496
408.00,0.0492
407.00,0.0490
406.00,0.0487
405.00,0.0481
404.00,0.0467
403.00,0.0450
402.00,0.0436
401.00,0.0430
400.00,0.0431
