Created as New Dataset,Sample 052 By YargerLab Date Tuesday, August 12 2025
cm-1,A
4000.00,0.0090
3999.00,0.0090
3998.00,0.0090
3997.00,0.0090
3996.00,0.0090
3995.00,0.0090
3994.00,0.0090
3993.00,0.0090
3992.00,0.0090
3991.00,0.0090
3990.00,0.0090
3989.00,0.0090
3988.00,0.0090
3987.00,0.0090
3986.00,0.0090
3985.00,0.0090
3984.00,0.0091
3983.00,0.0091
3982.00,0.0091
3981.00,0.0091
3980.00,0.0091
3979.00,0.0091
3978.00,0.0091
3977.00,0.0091
3976.00,0.0090
3975.00,0.0090
3974.00,0.0090
3973.00,0.0090
3972.00,0.0090
3971.00,0.0090
3970.00,0.0090
3969.00,0.0090
3968.00,0.0090
3967.00,0.0090
3966.00,0.0090
3965.00,0.0090
3964.00,0.0091
3963.00,0.0090
3962.00,0.0090
3961.00,0.0090
3960.00,0.0090
3959.00,0.0089
3958.00,0.0089
3957.00,0.0089
3956.00,0.0089
3955.00,0.0089
3954.00,0.0089
3953.00,0.0089
3952.00,0.0089
3951.00,0.0089
3950.00,0.0089
3949.00,0.0089
3948.00,0.0089
3947.00,0.0089
3946.00,0.0089
3945.00,0.0089
3944.00,0.0089
3943.00,0.0089
3942.00,0.0089
3941.00,0.0089
3940.00,0.0089
3939.00,0.0089
3938.00,0.0089
3937.00,0.0089
3936.00,0.0089
3935.00,0.0089
3934.00,0.0089
3933.00,0.0090
3932.00,0.0090
3931.00,0.0090
3930.00,0.0090
3929.00,0.0090
3928.00,0.0090
3927.00,0.0090
3926.00,0.0090
3925.00,0.0090
3924.00,0.0090
3923.00,0.0089
3922.00,0.0089
3921.00,0.0089
3920.00,0.0089
3919.00,0.0089
3918.00,0.0089
3917.00,0.0089
3916.00,0.0089
3915.00,0.0089
3914.00,0.0089
3913.00,0.0089
3912.00,0.0089
3911.00,0.0089
3910.00,0.0089
3909.00,0.0089
3908.00,0.0089
3907.00,0.0089
3906.00,0.0089
3905.00,0.0089
3904.00,0.0089
3903.00,0.0089
3902.00,0.0088
3901.00,0.0088
3900.00,0.0088
3899.00,0.0088
3898.00,0.0088
3897.00,0.0088
3896.00,0.0089
3895.00,0.0089
3894.00,0.0089
3893.00,0.0089
3892.00,0.0089
3891.00,0.0089
3890.00,0.0088
3889.00,0.0088
3888.00,0.0088
3887.00,0.0088
3886.00,0.0089
3885.00,0.0089
3884.00,0.0089
3883.00,0.0088
3882.00,0.0088
3881.00,0.0088
3880.00,0.0088
3879.00,0.0088
3878.00,0.0088
3877.00,0.0088
3876.00,0.0088
3875.00,0.0088
3874.00,0.0088
3873.00,0.0088
3872.00,0.0088
3871.00,0.0088
3870.00,0.0088
3869.00,0.0088
3868.00,0.0088
3867.00,0.0088
3866.00,0.0088
3865.00,0.0088
3864.00,0.0088
3863.00,0.0088
3862.00,0.0088
3861.00,0.0088
3860.00,0.0088
3859.00,0.0088
3858.00,0.0088
3857.00,0.0088
3856.00,0.0088
3855.00,0.0087
3854.00,0.0087
3853.00,0.0087
3852.00,0.0087
3851.00,0.0087
3850.00,0.0088
3849.00,0.0088
3848.00,0.0088
3847.00,0.0088
3846.00,0.0088
3845.00,0.0088
3844.00,0.0088
3843.00,0.0088
3842.00,0.0088
3841.00,0.0088
3840.00,0.0088
3839.00,0.0088
3838.00,0.0088
3837.00,0.0088
3836.00,0.0088
3835.00,0.0088
3834.00,0.0088
3833.00,0.0088
3832.00,0.0088
3831.00,0.0088
3830.00,0.0088
3829.00,0.0088
3828.00,0.0088
3827.00,0.0088
3826.00,0.0088
3825.00,0.0088
3824.00,0.0088
3823.00,0.0088
3822.00,0.0088
3821.00,0.0089
3820.00,0.0089
3819.00,0.0088
3818.00,0.0088
3817.00,0.0088
3816.00,0.0088
3815.00,0.0087
3814.00,0.0088
3813.00,0.0088
3812.00,0.0088
3811.00,0.0087
3810.00,0.0087
3809.00,0.0087
3808.00,0.0087
3807.00,0.0087
3806.00,0.0087
3805.00,0.0087
3804.00,0.0087
3803.00,0.0087
3802.00,0.0087
3801.00,0.0088
3800.00,0.0087
3799.00,0.0087
3798.00,0.0087
3797.00,0.0087
3796.00,0.0087
3795.00,0.0088
3794.00,0.0088
3793.00,0.0088
3792.00,0.0088
3791.00,0.0088
3790.00,0.0088
3789.00,0.0087
3788.00,0.0087
3787.00,0.0087
3786.00,0.0087
3785.00,0.0087
3784.00,0.0087
3783.00,0.0087
3782.00,0.0088
3781.00,0.0088
3780.00,0.0088
3779.00,0.0088
3778.00,0.0087
3777.00,0.0087
3776.00,0.0087
3775.00,0.0087
3774.00,0.0087
3773.00,0.0087
3772.00,0.0087
3771.00,0.0088
3770.00,0.0088
3769.00,0.0088
3768.00,0.0088
3767.00,0.0088
3766.00,0.0088
3765.00,0.0087
3764.00,0.0087
3763.00,0.0087
3762.00,0.0087
3761.00,0.0088
3760.00,0.0088
3759.00,0.0088
3758.00,0.0088
3757.00,0.0088
3756.00,0.0088
3755.00,0.0087
3754.00,0.0087
3753.00,0.0086
3752.00,0.0086
3751.00,0.0086
3750.00,0.0086
3749.00,0.0086
3748.00,0.0086
3747.00,0.0086
3746.00,0.0086
3745.00,0.0087
3744.00,0.0087
3743.00,0.0087
3742.00,0.0087
3741.00,0.0087
3740.00,0.0087
3739.00,0.0087
3738.00,0.0087
3737.00,0.0086
3736.00,0.0086
3735.00,0.0086
3734.00,0.0086
3733.00,0.0086
3732.00,0.0086
3731.00,0.0086
3730.00,0.0086
3729.00,0.0086
3728.00,0.0086
3727.00,0.0086
3726.00,0.0086
3725.00,0.0085
3724.00,0.0085
3723.00,0.0085
3722.00,0.0085
3721.00,0.0085
3720.00,0.0086
3719.00,0.0086
3718.00,0.0086
3717.00,0.0086
3716.00,0.0086
3715.00,0.0086
3714.00,0.0086
3713.00,0.0086
3712.00,0.0086
3711.00,0.0086
3710.00,0.0086
3709.00,0.0086
3708.00,0.0086
3707.00,0.0086
3706.00,0.0086
3705.00,0.0086
3704.00,0.0085
3703.00,0.0086
3702.00,0.0086
3701.00,0.0086
3700.00,0.0086
3699.00,0.0086
3698.00,0.0086
3697.00,0.0086
3696.00,0.0086
3695.00,0.0086
3694.00,0.0086
3693.00,0.0087
3692.00,0.0087
3691.00,0.0087
3690.00,0.0087
3689.00,0.0087
3688.00,0.0087
3687.00,0.0088
3686.00,0.0088
3685.00,0.0088
3684.00,0.0089
3683.00,0.0089
3682.00,0.0089
3681.00,0.0090
3680.00,0.0090
3679.00,0.0090
3678.00,0.0090
3677.00,0.0090
3676.00,0.0091
3675.00,0.0090
3674.00,0.0090
3673.00,0.0090
3672.00,0.0090
3671.00,0.0091
3670.00,0.0091
3669.00,0.0092
3668.00,0.0092
3667.00,0.0092
3666.00,0.0093
3665.00,0.0093
3664.00,0.0093
3663.00,0.0093
3662.00,0.0094
3661.00,0.0094
3660.00,0.0094
3659.00,0.0094
3658.00,0.0094
3657.00,0.0095
3656.00,0.0095
3655.00,0.0095
3654.00,0.0095
3653.00,0.0096
3652.00,0.0097
3651.00,0.0097
3650.00,0.0098
3649.00,0.0099
3648.00,0.0100
3647.00,0.0100
3646.00,0.0100
3645.00,0.0101
3644.00,0.0101
3643.00,0.0102
3642.00,0.0102
3641.00,0.0103
3640.00,0.0103
3639.00,0.0104
3638.00,0.0104
3637.00,0.0104
3636.00,0.0105
3635.00,0.0106
3634.00,0.0107
3633.00,0.0107
3632.00,0.0108
3631.00,0.0108
3630.00,0.0109
3629.00,0.0110
3628.00,0.0110
3627.00,0.0111
3626.00,0.0112
3625.00,0.0113
3624.00,0.0113
3623.00,0.0114
3622.00,0.0115
3621.00,0.0116
3620.00,0.0117
3619.00,0.0118
3618.00,0.0119
3617.00,0.0120
3616.00,0.0121
3615.00,0.0121
3614.00,0.0122
3613.00,0.0123
3612.00,0.0124
3611.00,0.0124
3610.00,0.0125
3609.00,0.0126
3608.00,0.0127
3607.00,0.0128
3606.00,0.0129
3605.00,0.0130
3604.00,0.0131
3603.00,0.0132
3602.00,0.0133
3601.00,0.0134
3600.00,0.0135
3599.00,0.0135
3598.00,0.0136
3597.00,0.0137
3596.00,0.0138
3595.00,0.0139
3594.00,0.0140
3593.00,0.0141
3592.00,0.0142
3591.00,0.0142
3590.00,0.0143
3589.00,0.0145
3588.00,0.0146
3587.00,0.0148
3586.00,0.0149
3585.00,0.0151
3584.00,0.0152
3583.00,0.0153
3582.00,0.0155
3581.00,0.0156
3580.00,0.0157
3579.00,0.0159
3578.00,0.0160
3577.00,0.0161
3576.00,0.0163
3575.00,0.0164
3574.00,0.0165
3573.00,0.0167
3572.00,0.0168
3571.00,0.0169
3570.00,0.0170
3569.00,0.0171
3568.00,0.0173
3567.00,0.0174
3566.00,0.0176
3565.00,0.0177
3564.00,0.0179
3563.00,0.0180
3562.00,0.0182
3561.00,0.0183
3560.00,0.0185
3559.00,0.0186
3558.00,0.0188
3557.00,0.0189
3556.00,0.0191
3555.00,0.0192
3554.00,0.0193
3553.00,0.0195
3552.00,0.0196
3551.00,0.0198
3550.00,0.0199
3549.00,0.0200
3548.00,0.0201
3547.00,0.0203
3546.00,0.0204
3545.00,0.0206
3544.00,0.0207
3543.00,0.0208
3542.00,0.0210
3541.00,0.0211
3540.00,0.0212
3539.00,0.0214
3538.00,0.0215
3537.00,0.0216
3536.00,0.0218
3535.00,0.0219
3534.00,0.0220
3533.00,0.0221
3532.00,0.0222
3531.00,0.0223
3530.00,0.0225
3529.00,0.0226
3528.00,0.0227
3527.00,0.0229
3526.00,0.0230
3525.00,0.0232
3524.00,0.0233
3523.00,0.0234
3522.00,0.0235
3521.00,0.0236
3520.00,0.0237
3519.00,0.0238
3518.00,0.0240
3517.00,0.0241
3516.00,0.0242
3515.00,0.0243
3514.00,0.0244
3513.00,0.0245
3512.00,0.0246
3511.00,0.0247
3510.00,0.0248
3509.00,0.0249
3508.00,0.0250
3507.00,0.0251
3506.00,0.0252
3505.00,0.0253
3504.00,0.0255
3503.00,0.0256
3502.00,0.0257
3501.00,0.0259
3500.00,0.0260
3499.00,0.0261
3498.00,0.0262
3497.00,0.0264
3496.00,0.0265
3495.00,0.0266
3494.00,0.0267
3493.00,0.0268
3492.00,0.0269
3491.00,0.0270
3490.00,0.0271
3489.00,0.0272
3488.00,0.0274
3487.00,0.0275
3486.00,0.0276
3485.00,0.0278
3484.00,0.0279
3483.00,0.0281
3482.00,0.0282
3481.00,0.0284
3480.00,0.0285
3479.00,0.0287
3478.00,0.0288
3477.00,0.0290
3476.00,0.0291
3475.00,0.0293
3474.00,0.0295
3473.00,0.0296
3472.00,0.0298
3471.00,0.0300
3470.00,0.0302
3469.00,0.0304
3468.00,0.0305
3467.00,0.0307
3466.00,0.0309
3465.00,0.0311
3464.00,0.0312
3463.00,0.0314
3462.00,0.0316
3461.00,0.0318
3460.00,0.0320
3459.00,0.0321
3458.00,0.0323
3457.00,0.0325
3456.00,0.0326
3455.00,0.0328
3454.00,0.0330
3453.00,0.0332
3452.00,0.0334
3451.00,0.0336
3450.00,0.0338
3449.00,0.0340
3448.00,0.0342
3447.00,0.0344
3446.00,0.0346
3445.00,0.0348
3444.00,0.0350
3443.00,0.0352
3442.00,0.0354
3441.00,0.0356
3440.00,0.0359
3439.00,0.0361
3438.00,0.0364
3437.00,0.0367
3436.00,0.0370
3435.00,0.0372
3434.00,0.0375
3433.00,0.0378
3432.00,0.0380
3431.00,0.0383
3430.00,0.0385
3429.00,0.0388
3428.00,0.0391
3427.00,0.0393
3426.00,0.0396
3425.00,0.0399
3424.00,0.0403
3423.00,0.0405
3422.00,0.0408
3421.00,0.0411
3420.00,0.0414
3419.00,0.0417
3418.00,0.0419
3417.00,0.0422
3416.00,0.0425
3415.00,0.0427
3414.00,0.0430
3413.00,0.0433
3412.00,0.0435
3411.00,0.0438
3410.00,0.0440
3409.00,0.0441
3408.00,0.0442
3407.00,0.0444
3406.00,0.0445
3405.00,0.0446
3404.00,0.0447
3403.00,0.0448
3402.00,0.0448
3401.00,0.0449
3400.00,0.0449
3399.00,0.0449
3398.00,0.0449
3397.00,0.0448
3396.00,0.0447
3395.00,0.0446
3394.00,0.0445
3393.00,0.0444
3392.00,0.0443
3391.00,0.0441
3390.00,0.0440
3389.00,0.0438
3388.00,0.0436
3387.00,0.0434
3386.00,0.0432
3385.00,0.0430
3384.00,0.0428
3383.00,0.0426
3382.00,0.0424
3381.00,0.0422
3380.00,0.0420
3379.00,0.0417
3378.00,0.0415
3377.00,0.0413
3376.00,0.0411
3375.00,0.0408
3374.00,0.0406
3373.00,0.0404
3372.00,0.0401
3371.00,0.0399
3370.00,0.0397
3369.00,0.0395
3368.00,0.0393
3367.00,0.0391
3366.00,0.0389
3365.00,0.0387
3364.00,0.0385
3363.00,0.0384
3362.00,0.0382
3361.00,0.0381
3360.00,0.0379
3359.00,0.0378
3358.00,0.0377
3357.00,0.0375
3356.00,0.0374
3355.00,0.0372
3354.00,0.0371
3353.00,0.0369
3352.00,0.0367
3351.00,0.0366
3350.00,0.0365
3349.00,0.0364
3348.00,0.0364
3347.00,0.0363
3346.00,0.0362
3345.00,0.0360
3344.00,0.0360
3343.00,0.0359
3342.00,0.0358
3341.00,0.0357
3340.00,0.0356
3339.00,0.0355
3338.00,0.0355
3337.00,0.0354
3336.00,0.0354
3335.00,0.0354
3334.00,0.0354
3333.00,0.0354
3332.00,0.0354
3331.00,0.0354
3330.00,0.0353
3329.00,0.0353
3328.00,0.0352
3327.00,0.0352
3326.00,0.0352
3325.00,0.0352
3324.00,0.0352
3323.00,0.0353
3322.00,0.0353
3321.00,0.0354
3320.00,0.0354
3319.00,0.0354
3318.00,0.0355
3317.00,0.0355
3316.00,0.0356
3315.00,0.0356
3314.00,0.0356
3313.00,0.0356
3312.00,0.0356
3311.00,0.0356
3310.00,0.0355
3309.00,0.0355
3308.00,0.0355
3307.00,0.0356
3306.00,0.0357
3305.00,0.0358
3304.00,0.0359
3303.00,0.0361
3302.00,0.0362
3301.00,0.0364
3300.00,0.0365
3299.00,0.0365
3298.00,0.0365
3297.00,0.0365
3296.00,0.0366
3295.00,0.0366
3294.00,0.0367
3293.00,0.0368
3292.00,0.0370
3291.00,0.0371
3290.00,0.0373
3289.00,0.0374
3288.00,0.0375
3287.00,0.0376
3286.00,0.0376
3285.00,0.0377
3284.00,0.0378
3283.00,0.0379
3282.00,0.0380
3281.00,0.0380
3280.00,0.0381
3279.00,0.0382
3278.00,0.0382
3277.00,0.0382
3276.00,0.0383
3275.00,0.0383
3274.00,0.0384
3273.00,0.0384
3272.00,0.0385
3271.00,0.0386
3270.00,0.0387
3269.00,0.0388
3268.00,0.0389
3267.00,0.0390
3266.00,0.0391
3265.00,0.0392
3264.00,0.0392
3263.00,0.0393
3262.00,0.0393
3261.00,0.0394
3260.00,0.0394
3259.00,0.0395
3258.00,0.0395
3257.00,0.0395
3256.00,0.0395
3255.00,0.0396
3254.00,0.0397
3253.00,0.0398
3252.00,0.0398
3251.00,0.0398
3250.00,0.0398
3249.00,0.0398
3248.00,0.0398
3247.00,0.0398
3246.00,0.0399
3245.00,0.0400
3244.00,0.0400
3243.00,0.0401
3242.00,0.0401
3241.00,0.0401
3240.00,0.0401
3239.00,0.0400
3238.00,0.0400
3237.00,0.0399
3236.00,0.0398
3235.00,0.0397
3234.00,0.0396
3233.00,0.0396
3232.00,0.0395
3231.00,0.0395
3230.00,0.0395
3229.00,0.0394
3228.00,0.0393
3227.00,0.0392
3226.00,0.0391
3225.00,0.0390
3224.00,0.0388
3223.00,0.0387
3222.00,0.0386
3221.00,0.0385
3220.00,0.0384
3219.00,0.0383
3218.00,0.0382
3217.00,0.0380
3216.00,0.0379
3215.00,0.0377
3214.00,0.0375
3213.00,0.0373
3212.00,0.0371
3211.00,0.0369
3210.00,0.0367
3209.00,0.0365
3208.00,0.0363
3207.00,0.0361
3206.00,0.0359
3205.00,0.0357
3204.00,0.0355
3203.00,0.0353
3202.00,0.0351
3201.00,0.0348
3200.00,0.0346
3199.00,0.0344
3198.00,0.0341
3197.00,0.0339
3196.00,0.0337
3195.00,0.0335
3194.00,0.0332
3193.00,0.0330
3192.00,0.0328
3191.00,0.0326
3190.00,0.0324
3189.00,0.0322
3188.00,0.0320
3187.00,0.0317
3186.00,0.0315
3185.00,0.0313
3184.00,0.0311
3183.00,0.0308
3182.00,0.0306
3181.00,0.0304
3180.00,0.0302
3179.00,0.0299
3178.00,0.0297
3177.00,0.0295
3176.00,0.0293
3175.00,0.0291
3174.00,0.0289
3173.00,0.0286
3172.00,0.0284
3171.00,0.0282
3170.00,0.0280
3169.00,0.0277
3168.00,0.0275
3167.00,0.0273
3166.00,0.0271
3165.00,0.0269
3164.00,0.0266
3163.00,0.0264
3162.00,0.0262
3161.00,0.0260
3160.00,0.0258
3159.00,0.0256
3158.00,0.0254
3157.00,0.0252
3156.00,0.0250
3155.00,0.0247
3154.00,0.0245
3153.00,0.0243
3152.00,0.0241
3151.00,0.0239
3150.00,0.0238
3149.00,0.0236
3148.00,0.0235
3147.00,0.0233
3146.00,0.0231
3145.00,0.0229
3144.00,0.0227
3143.00,0.0225
3142.00,0.0223
3141.00,0.0222
3140.00,0.0220
3139.00,0.0219
3138.00,0.0217
3137.00,0.0216
3136.00,0.0215
3135.00,0.0214
3134.00,0.0212
3133.00,0.0211
3132.00,0.0209
3131.00,0.0208
3130.00,0.0207
3129.00,0.0206
3128.00,0.0205
3127.00,0.0204
3126.00,0.0203
3125.00,0.0202
3124.00,0.0201
3123.00,0.0199
3122.00,0.0198
3121.00,0.0197
3120.00,0.0197
3119.00,0.0196
3118.00,0.0195
3117.00,0.0194
3116.00,0.0193
3115.00,0.0191
3114.00,0.0190
3113.00,0.0189
3112.00,0.0187
3111.00,0.0186
3110.00,0.0185
3109.00,0.0184
3108.00,0.0183
3107.00,0.0182
3106.00,0.0180
3105.00,0.0179
3104.00,0.0178
3103.00,0.0177
3102.00,0.0176
3101.00,0.0176
3100.00,0.0175
3099.00,0.0174
3098.00,0.0174
3097.00,0.0173
3096.00,0.0173
3095.00,0.0173
3094.00,0.0172
3093.00,0.0172
3092.00,0.0172
3091.00,0.0172
3090.00,0.0173
3089.00,0.0173
3088.00,0.0173
3087.00,0.0173
3086.00,0.0173
3085.00,0.0172
3084.00,0.0172
3083.00,0.0171
3082.00,0.0171
3081.00,0.0171
3080.00,0.0171
3079.00,0.0170
3078.00,0.0169
3077.00,0.0169
3076.00,0.0168
3075.00,0.0167
3074.00,0.0166
3073.00,0.0166
3072.00,0.0166
3071.00,0.0165
3070.00,0.0165
3069.00,0.0165
3068.00,0.0165
3067.00,0.0165
3066.00,0.0164
3065.00,0.0164
3064.00,0.0164
3063.00,0.0164
3062.00,0.0164
3061.00,0.0164
3060.00,0.0164
3059.00,0.0164
3058.00,0.0164
3057.00,0.0164
3056.00,0.0165
3055.00,0.0165
3054.00,0.0164
3053.00,0.0164
3052.00,0.0164
3051.00,0.0164
3050.00,0.0163
3049.00,0.0163
3048.00,0.0162
3047.00,0.0162
3046.00,0.0161
3045.00,0.0161
3044.00,0.0161
3043.00,0.0162
3042.00,0.0162
3041.00,0.0163
3040.00,0.0163
3039.00,0.0164
3038.00,0.0166
3037.00,0.0167
3036.00,0.0168
3035.00,0.0169
3034.00,0.0170
3033.00,0.0170
3032.00,0.0170
3031.00,0.0170
3030.00,0.0169
3029.00,0.0168
3028.00,0.0167
3027.00,0.0166
3026.00,0.0164
3025.00,0.0163
3024.00,0.0162
3023.00,0.0161
3022.00,0.0160
3021.00,0.0159
3020.00,0.0158
3019.00,0.0158
3018.00,0.0158
3017.00,0.0158
3016.00,0.0159
3015.00,0.0159
3014.00,0.0159
3013.00,0.0160
3012.00,0.0161
3011.00,0.0162
3010.00,0.0164
3009.00,0.0166
3008.00,0.0168
3007.00,0.0170
3006.00,0.0173
3005.00,0.0176
3004.00,0.0180
3003.00,0.0185
3002.00,0.0189
3001.00,0.0195
3000.00,0.0200
2999.00,0.0206
2998.00,0.0213
2997.00,0.0220
2996.00,0.0227
2995.00,0.0235
2994.00,0.0242
2993.00,0.0248
2992.00,0.0254
2991.00,0.0260
2990.00,0.0265
2989.00,0.0270
2988.00,0.0275
2987.00,0.0281
2986.00,0.0288
2985.00,0.0295
2984.00,0.0304
2983.00,0.0314
2982.00,0.0326
2981.00,0.0338
2980.00,0.0349
2979.00,0.0357
2978.00,0.0363
2977.00,0.0367
2976.00,0.0371
2975.00,0.0377
2974.00,0.0387
2973.00,0.0400
2972.00,0.0414
2971.00,0.0429
2970.00,0.0441
2969.00,0.0450
2968.00,0.0457
2967.00,0.0463
2966.00,0.0470
2965.00,0.0477
2964.00,0.0486
2963.00,0.0496
2962.00,0.0504
2961.00,0.0511
2960.00,0.0515
2959.00,0.0515
2958.00,0.0511
2957.00,0.0503
2956.00,0.0493
2955.00,0.0481
2954.00,0.0469
2953.00,0.0457
2952.00,0.0447
2951.00,0.0439
2950.00,0.0433
2949.00,0.0429
2948.00,0.0427
2947.00,0.0427
2946.00,0.0430
2945.00,0.0435
2944.00,0.0441
2943.00,0.0448
2942.00,0.0457
2941.00,0.0467
2940.00,0.0479
2939.00,0.0494
2938.00,0.0510
2937.00,0.0530
2936.00,0.0552
2935.00,0.0576
2934.00,0.0603
2933.00,0.0630
2932.00,0.0657
2931.00,0.0683
2930.00,0.0706
2929.00,0.0724
2928.00,0.0738
2927.00,0.0744
2926.00,0.0745
2925.00,0.0739
2924.00,0.0729
2923.00,0.0715
2922.00,0.0698
2921.00,0.0680
2920.00,0.0660
2919.00,0.0640
2918.00,0.0620
2917.00,0.0599
2916.00,0.0579
2915.00,0.0560
2914.00,0.0542
2913.00,0.0525
2912.00,0.0510
2911.00,0.0495
2910.00,0.0482
2909.00,0.0470
2908.00,0.0459
2907.00,0.0449
2906.00,0.0439
2905.00,0.0430
2904.00,0.0422
2903.00,0.0414
2902.00,0.0407
2901.00,0.0400
2900.00,0.0394
2899.00,0.0388
2898.00,0.0382
2897.00,0.0377
2896.00,0.0372
2895.00,0.0368
2894.00,0.0364
2893.00,0.0360
2892.00,0.0357
2891.00,0.0353
2890.00,0.0350
2889.00,0.0347
2888.00,0.0344
2887.00,0.0341
2886.00,0.0338
2885.00,0.0336
2884.00,0.0335
2883.00,0.0335
2882.00,0.0336
2881.00,0.0338
2880.00,0.0341
2879.00,0.0346
2878.00,0.0352
2877.00,0.0360
2876.00,0.0368
2875.00,0.0376
2874.00,0.0383
2873.00,0.0387
2872.00,0.0390
2871.00,0.0390
2870.00,0.0388
2869.00,0.0386
2868.00,0.0384
2867.00,0.0383
2866.00,0.0385
2865.00,0.0391
2864.00,0.0400
2863.00,0.0412
2862.00,0.0428
2861.00,0.0447
2860.00,0.0467
2859.00,0.0486
2858.00,0.0501
2857.00,0.0512
2856.00,0.0517
2855.00,0.0518
2854.00,0.0514
2853.00,0.0506
2852.00,0.0495
2851.00,0.0479
2850.00,0.0459
2849.00,0.0436
2848.00,0.0411
2847.00,0.0387
2846.00,0.0363
2845.00,0.0341
2844.00,0.0322
2843.00,0.0305
2842.00,0.0289
2841.00,0.0275
2840.00,0.0264
2839.00,0.0253
2838.00,0.0245
2837.00,0.0238
2836.00,0.0232
2835.00,0.0226
2834.00,0.0221
2833.00,0.0216
2832.00,0.0211
2831.00,0.0207
2830.00,0.0203
2829.00,0.0200
2828.00,0.0196
2827.00,0.0192
2826.00,0.0189
2825.00,0.0186
2824.00,0.0183
2823.00,0.0180
2822.00,0.0178
2821.00,0.0176
2820.00,0.0173
2819.00,0.0171
2818.00,0.0170
2817.00,0.0168
2816.00,0.0166
2815.00,0.0165
2814.00,0.0163
2813.00,0.0162
2812.00,0.0160
2811.00,0.0159
2810.00,0.0158
2809.00,0.0157
2808.00,0.0156
2807.00,0.0155
2806.00,0.0154
2805.00,0.0153
2804.00,0.0153
2803.00,0.0152
2802.00,0.0151
2801.00,0.0150
2800.00,0.0149
2799.00,0.0148
2798.00,0.0148
2797.00,0.0147
2796.00,0.0146
2795.00,0.0146
2794.00,0.0145
2793.00,0.0144
2792.00,0.0143
2791.00,0.0142
2790.00,0.0141
2789.00,0.0140
2788.00,0.0140
2787.00,0.0139
2786.00,0.0139
2785.00,0.0139
2784.00,0.0138
2783.00,0.0137
2782.00,0.0137
2781.00,0.0136
2780.00,0.0136
2779.00,0.0135
2778.00,0.0135
2777.00,0.0134
2776.00,0.0134
2775.00,0.0133
2774.00,0.0133
2773.00,0.0133
2772.00,0.0132
2771.00,0.0132
2770.00,0.0132
2769.00,0.0132
2768.00,0.0132
2767.00,0.0132
2766.00,0.0132
2765.00,0.0131
2764.00,0.0131
2763.00,0.0131
2762.00,0.0131
2761.00,0.0131
2760.00,0.0131
2759.00,0.0131
2758.00,0.0131
2757.00,0.0131
2756.00,0.0131
2755.00,0.0131
2754.00,0.0131
2753.00,0.0131
2752.00,0.0131
2751.00,0.0131
2750.00,0.0131
2749.00,0.0131
2748.00,0.0131
2747.00,0.0132
2746.00,0.0132
2745.00,0.0132
2744.00,0.0132
2743.00,0.0133
2742.00,0.0133
2741.00,0.0133
2740.00,0.0134
2739.00,0.0134
2738.00,0.0134
2737.00,0.0135
2736.00,0.0136
2735.00,0.0136
2734.00,0.0137
2733.00,0.0138
2732.00,0.0138
2731.00,0.0139
2730.00,0.0139
2729.00,0.0139
2728.00,0.0138
2727.00,0.0138
2726.00,0.0137
2725.00,0.0136
2724.00,0.0136
2723.00,0.0135
2722.00,0.0135
2721.00,0.0134
2720.00,0.0134
2719.00,0.0134
2718.00,0.0133
2717.00,0.0133
2716.00,0.0132
2715.00,0.0132
2714.00,0.0132
2713.00,0.0131
2712.00,0.0131
2711.00,0.0131
2710.00,0.0131
2709.00,0.0130
2708.00,0.0130
2707.00,0.0130
2706.00,0.0130
2705.00,0.0130
2704.00,0.0130
2703.00,0.0130
2702.00,0.0130
2701.00,0.0130
2700.00,0.0129
2699.00,0.0129
2698.00,0.0129
2697.00,0.0128
2696.00,0.0128
2695.00,0.0128
2694.00,0.0127
2693.00,0.0127
2692.00,0.0127
2691.00,0.0126
2690.00,0.0126
2689.00,0.0126
2688.00,0.0126
2687.00,0.0125
2686.00,0.0125
2685.00,0.0125
2684.00,0.0125
2683.00,0.0124
2682.00,0.0124
2681.00,0.0124
2680.00,0.0124
2679.00,0.0124
2678.00,0.0124
2677.00,0.0124
2676.00,0.0124
2675.00,0.0124
2674.00,0.0124
2673.00,0.0124
2672.00,0.0125
2671.00,0.0125
2670.00,0.0125
2669.00,0.0125
2668.00,0.0126
2667.00,0.0126
2666.00,0.0127
2665.00,0.0127
2664.00,0.0128
2663.00,0.0128
2662.00,0.0129
2661.00,0.0129
2660.00,0.0129
2659.00,0.0130
2658.00,0.0130
2657.00,0.0130
2656.00,0.0130
2655.00,0.0130
2654.00,0.0130
2653.00,0.0130
2652.00,0.0130
2651.00,0.0130
2650.00,0.0130
2649.00,0.0130
2648.00,0.0130
2647.00,0.0129
2646.00,0.0129
2645.00,0.0129
2644.00,0.0129
2643.00,0.0128
2642.00,0.0128
2641.00,0.0128
2640.00,0.0128
2639.00,0.0128
2638.00,0.0127
2637.00,0.0127
2636.00,0.0126
2635.00,0.0126
2634.00,0.0125
2633.00,0.0125
2632.00,0.0125
2631.00,0.0124
2630.00,0.0124
2629.00,0.0123
2628.00,0.0123
2627.00,0.0122
2626.00,0.0122
2625.00,0.0122
2624.00,0.0121
2623.00,0.0121
2622.00,0.0120
2621.00,0.0120
2620.00,0.0120
2619.00,0.0120
2618.00,0.0120
2617.00,0.0120
2616.00,0.0120
2615.00,0.0120
2614.00,0.0119
2613.00,0.0119
2612.00,0.0120
2611.00,0.0120
2610.00,0.0120
2609.00,0.0120
2608.00,0.0120
2607.00,0.0120
2606.00,0.0120
2605.00,0.0120
2604.00,0.0120
2603.00,0.0120
2602.00,0.0120
2601.00,0.0120
2600.00,0.0121
2599.00,0.0121
2598.00,0.0121
2597.00,0.0122
2596.00,0.0122
2595.00,0.0122
2594.00,0.0122
2593.00,0.0122
2592.00,0.0122
2591.00,0.0122
2590.00,0.0122
2589.00,0.0122
2588.00,0.0122
2587.00,0.0122
2586.00,0.0122
2585.00,0.0122
2584.00,0.0122
2583.00,0.0121
2582.00,0.0121
2581.00,0.0121
2580.00,0.0121
2579.00,0.0121
2578.00,0.0121
2577.00,0.0121
2576.00,0.0121
2575.00,0.0120
2574.00,0.0120
2573.00,0.0120
2572.00,0.0120
2571.00,0.0119
2570.00,0.0119
2569.00,0.0119
2568.00,0.0119
2567.00,0.0120
2566.00,0.0120
2565.00,0.0120
2564.00,0.0119
2563.00,0.0119
2562.00,0.0119
2561.00,0.0118
2560.00,0.0118
2559.00,0.0117
2558.00,0.0116
2557.00,0.0116
2556.00,0.0115
2555.00,0.0115
2554.00,0.0115
2553.00,0.0114
2552.00,0.0114
2551.00,0.0114
2550.00,0.0114
2549.00,0.0114
2548.00,0.0114
2547.00,0.0114
2546.00,0.0114
2545.00,0.0114
2544.00,0.0115
2543.00,0.0115
2542.00,0.0114
2541.00,0.0114
2540.00,0.0114
2539.00,0.0114
2538.00,0.0114
2537.00,0.0114
2536.00,0.0114
2535.00,0.0115
2534.00,0.0115
2533.00,0.0115
2532.00,0.0115
2531.00,0.0114
2530.00,0.0114
2529.00,0.0113
2528.00,0.0113
2527.00,0.0113
2526.00,0.0112
2525.00,0.0112
2524.00,0.0112
2523.00,0.0112
2522.00,0.0112
2521.00,0.0111
2520.00,0.0111
2519.00,0.0111
2518.00,0.0110
2517.00,0.0110
2516.00,0.0110
2515.00,0.0109
2514.00,0.0109
2513.00,0.0109
2512.00,0.0109
2511.00,0.0109
2510.00,0.0109
2509.00,0.0109
2508.00,0.0108
2507.00,0.0108
2506.00,0.0108
2505.00,0.0107
2504.00,0.0107
2503.00,0.0107
2502.00,0.0107
2501.00,0.0107
2500.00,0.0107
2499.00,0.0107
2498.00,0.0107
2497.00,0.0107
2496.00,0.0107
2495.00,0.0107
2494.00,0.0106
2493.00,0.0106
2492.00,0.0106
2491.00,0.0106
2490.00,0.0105
2489.00,0.0105
2488.00,0.0105
2487.00,0.0105
2486.00,0.0105
2485.00,0.0105
2484.00,0.0105
2483.00,0.0105
2482.00,0.0105
2481.00,0.0105
2480.00,0.0105
2479.00,0.0105
2478.00,0.0105
2477.00,0.0105
2476.00,0.0105
2475.00,0.0105
2474.00,0.0104
2473.00,0.0104
2472.00,0.0104
2471.00,0.0103
2470.00,0.0103
2469.00,0.0103
2468.00,0.0103
2467.00,0.0103
2466.00,0.0103
2465.00,0.0103
2464.00,0.0103
2463.00,0.0103
2462.00,0.0103
2461.00,0.0104
2460.00,0.0104
2459.00,0.0104
2458.00,0.0104
2457.00,0.0104
2456.00,0.0104
2455.00,0.0104
2454.00,0.0104
2453.00,0.0105
2452.00,0.0105
2451.00,0.0105
2450.00,0.0104
2449.00,0.0104
2448.00,0.0104
2447.00,0.0104
2446.00,0.0104
2445.00,0.0104
2444.00,0.0103
2443.00,0.0103
2442.00,0.0102
2441.00,0.0102
2440.00,0.0102
2439.00,0.0102
2438.00,0.0102
2437.00,0.0102
2436.00,0.0102
2435.00,0.0102
2434.00,0.0102
2433.00,0.0102
2432.00,0.0102
2431.00,0.0102
2430.00,0.0102
2429.00,0.0101
2428.00,0.0101
2427.00,0.0101
2426.00,0.0101
2425.00,0.0101
2424.00,0.0101
2423.00,0.0101
2422.00,0.0100
2421.00,0.0100
2420.00,0.0100
2419.00,0.0101
2418.00,0.0101
2417.00,0.0101
2416.00,0.0101
2415.00,0.0102
2414.00,0.0102
2413.00,0.0102
2412.00,0.0102
2411.00,0.0102
2410.00,0.0102
2409.00,0.0102
2408.00,0.0101
2407.00,0.0101
2406.00,0.0100
2405.00,0.0101
2404.00,0.0101
2403.00,0.0101
2402.00,0.0101
2401.00,0.0101
2400.00,0.0101
2399.00,0.0101
2398.00,0.0100
2397.00,0.0100
2396.00,0.0100
2395.00,0.0100
2394.00,0.0100
2393.00,0.0100
2392.00,0.0101
2391.00,0.0101
2390.00,0.0100
2389.00,0.0100
2388.00,0.0100
2387.00,0.0099
2386.00,0.0099
2385.00,0.0098
2384.00,0.0098
2383.00,0.0097
2382.00,0.0097
2381.00,0.0096
2380.00,0.0095
2379.00,0.0095
2378.00,0.0095
2377.00,0.0095
2376.00,0.0095
2375.00,0.0095
2374.00,0.0094
2373.00,0.0094
2372.00,0.0093
2371.00,0.0093
2370.00,0.0093
2369.00,0.0093
2368.00,0.0093
2367.00,0.0093
2366.00,0.0093
2365.00,0.0094
2364.00,0.0094
2363.00,0.0095
2362.00,0.0095
2361.00,0.0095
2360.00,0.0095
2359.00,0.0094
2358.00,0.0094
2357.00,0.0094
2356.00,0.0095
2355.00,0.0096
2354.00,0.0097
2353.00,0.0096
2352.00,0.0096
2351.00,0.0096
2350.00,0.0095
2349.00,0.0095
2348.00,0.0096
2347.00,0.0097
2346.00,0.0097
2345.00,0.0097
2344.00,0.0097
2343.00,0.0097
2342.00,0.0097
2341.00,0.0097
2340.00,0.0098
2339.00,0.0099
2338.00,0.0099
2337.00,0.0099
2336.00,0.0099
2335.00,0.0099
2334.00,0.0099
2333.00,0.0098
2332.00,0.0098
2331.00,0.0098
2330.00,0.0099
2329.00,0.0100
2328.00,0.0104
2327.00,0.0108
2326.00,0.0111
2325.00,0.0112
2324.00,0.0111
2323.00,0.0109
2322.00,0.0107
2321.00,0.0106
2320.00,0.0105
2319.00,0.0104
2318.00,0.0104
2317.00,0.0104
2316.00,0.0103
2315.00,0.0103
2314.00,0.0102
2313.00,0.0102
2312.00,0.0102
2311.00,0.0102
2310.00,0.0101
2309.00,0.0101
2308.00,0.0102
2307.00,0.0102
2306.00,0.0102
2305.00,0.0102
2304.00,0.0103
2303.00,0.0103
2302.00,0.0103
2301.00,0.0103
2300.00,0.0103
2299.00,0.0104
2298.00,0.0104
2297.00,0.0104
2296.00,0.0105
2295.00,0.0106
2294.00,0.0107
2293.00,0.0108
2292.00,0.0109
2291.00,0.0109
2290.00,0.0110
2289.00,0.0110
2288.00,0.0111
2287.00,0.0111
2286.00,0.0110
2285.00,0.0110
2284.00,0.0110
2283.00,0.0110
2282.00,0.0109
2281.00,0.0109
2280.00,0.0108
2279.00,0.0107
2278.00,0.0105
2277.00,0.0105
2276.00,0.0105
2275.00,0.0105
2274.00,0.0104
2273.00,0.0104
2272.00,0.0104
2271.00,0.0104
2270.00,0.0104
2269.00,0.0103
2268.00,0.0102
2267.00,0.0102
2266.00,0.0101
2265.00,0.0100
2264.00,0.0100
2263.00,0.0100
2262.00,0.0099
2261.00,0.0099
2260.00,0.0100
2259.00,0.0100
2258.00,0.0100
2257.00,0.0099
2256.00,0.0098
2255.00,0.0097
2254.00,0.0096
2253.00,0.0097
2252.00,0.0098
2251.00,0.0098
2250.00,0.0099
2249.00,0.0099
2248.00,0.0100
2247.00,0.0100
2246.00,0.0100
2245.00,0.0100
2244.00,0.0100
2243.00,0.0101
2242.00,0.0101
2241.00,0.0102
2240.00,0.0102
2239.00,0.0101
2238.00,0.0100
2237.00,0.0099
2236.00,0.0098
2235.00,0.0098
2234.00,0.0098
2233.00,0.0099
2232.00,0.0099
2231.00,0.0099
2230.00,0.0099
2229.00,0.0099
2228.00,0.0100
2227.00,0.0100
2226.00,0.0100
2225.00,0.0100
2224.00,0.0100
2223.00,0.0100
2222.00,0.0100
2221.00,0.0100
2220.00,0.0101
2219.00,0.0101
2218.00,0.0101
2217.00,0.0101
2216.00,0.0101
2215.00,0.0100
2214.00,0.0100
2213.00,0.0099
2212.00,0.0100
2211.00,0.0101
2210.00,0.0101
2209.00,0.0101
2208.00,0.0102
2207.00,0.0101
2206.00,0.0100
2205.00,0.0099
2204.00,0.0099
2203.00,0.0099
2202.00,0.0098
2201.00,0.0098
2200.00,0.0098
2199.00,0.0099
2198.00,0.0099
2197.00,0.0100
2196.00,0.0101
2195.00,0.0101
2194.00,0.0101
2193.00,0.0101
2192.00,0.0101
2191.00,0.0101
2190.00,0.0101
2189.00,0.0102
2188.00,0.0103
2187.00,0.0103
2186.00,0.0101
2185.00,0.0100
2184.00,0.0099
2183.00,0.0097
2182.00,0.0096
2181.00,0.0096
2180.00,0.0096
2179.00,0.0096
2178.00,0.0096
2177.00,0.0095
2176.00,0.0095
2175.00,0.0094
2174.00,0.0094
2173.00,0.0095
2172.00,0.0098
2171.00,0.0100
2170.00,0.0103
2169.00,0.0105
2168.00,0.0107
2167.00,0.0109
2166.00,0.0111
2165.00,0.0113
2164.00,0.0115
2163.00,0.0115
2162.00,0.0109
2161.00,0.0097
2160.00,0.0084
2159.00,0.0073
2158.00,0.0068
2157.00,0.0068
2156.00,0.0071
2155.00,0.0074
2154.00,0.0077
2153.00,0.0079
2152.00,0.0082
2151.00,0.0083
2150.00,0.0083
2149.00,0.0083
2148.00,0.0084
2147.00,0.0084
2146.00,0.0084
2145.00,0.0084
2144.00,0.0084
2143.00,0.0084
2142.00,0.0084
2141.00,0.0084
2140.00,0.0084
2139.00,0.0084
2138.00,0.0082
2137.00,0.0079
2136.00,0.0078
2135.00,0.0077
2134.00,0.0078
2133.00,0.0080
2132.00,0.0083
2131.00,0.0085
2130.00,0.0086
2129.00,0.0086
2128.00,0.0087
2127.00,0.0088
2126.00,0.0089
2125.00,0.0089
2124.00,0.0091
2123.00,0.0091
2122.00,0.0092
2121.00,0.0092
2120.00,0.0093
2119.00,0.0094
2118.00,0.0096
2117.00,0.0097
2116.00,0.0098
2115.00,0.0098
2114.00,0.0097
2113.00,0.0096
2112.00,0.0096
2111.00,0.0095
2110.00,0.0094
2109.00,0.0094
2108.00,0.0094
2107.00,0.0094
2106.00,0.0094
2105.00,0.0094
2104.00,0.0094
2103.00,0.0094
2102.00,0.0094
2101.00,0.0094
2100.00,0.0094
2099.00,0.0094
2098.00,0.0093
2097.00,0.0091
2096.00,0.0090
2095.00,0.0089
2094.00,0.0088
2093.00,0.0088
2092.00,0.0090
2091.00,0.0091
2090.00,0.0092
2089.00,0.0093
2088.00,0.0094
2087.00,0.0094
2086.00,0.0094
2085.00,0.0095
2084.00,0.0095
2083.00,0.0095
2082.00,0.0095
2081.00,0.0094
2080.00,0.0094
2079.00,0.0094
2078.00,0.0094
2077.00,0.0094
2076.00,0.0094
2075.00,0.0094
2074.00,0.0093
2073.00,0.0093
2072.00,0.0093
2071.00,0.0093
2070.00,0.0093
2069.00,0.0092
2068.00,0.0092
2067.00,0.0091
2066.00,0.0090
2065.00,0.0090
2064.00,0.0090
2063.00,0.0091
2062.00,0.0091
2061.00,0.0091
2060.00,0.0092
2059.00,0.0092
2058.00,0.0092
2057.00,0.0091
2056.00,0.0090
2055.00,0.0090
2054.00,0.0092
2053.00,0.0095
2052.00,0.0098
2051.00,0.0099
2050.00,0.0097
2049.00,0.0093
2048.00,0.0091
2047.00,0.0090
2046.00,0.0089
2045.00,0.0089
2044.00,0.0089
2043.00,0.0088
2042.00,0.0088
2041.00,0.0089
2040.00,0.0091
2039.00,0.0093
2038.00,0.0094
2037.00,0.0094
2036.00,0.0093
2035.00,0.0090
2034.00,0.0086
2033.00,0.0084
2032.00,0.0084
2031.00,0.0085
2030.00,0.0084
2029.00,0.0084
2028.00,0.0084
2027.00,0.0085
2026.00,0.0085
2025.00,0.0085
2024.00,0.0085
2023.00,0.0085
2022.00,0.0083
2021.00,0.0082
2020.00,0.0082
2019.00,0.0083
2018.00,0.0083
2017.00,0.0083
2016.00,0.0085
2015.00,0.0086
2014.00,0.0086
2013.00,0.0085
2012.00,0.0084
2011.00,0.0082
2010.00,0.0079
2009.00,0.0076
2008.00,0.0074
2007.00,0.0073
2006.00,0.0073
2005.00,0.0074
2004.00,0.0076
2003.00,0.0078
2002.00,0.0079
2001.00,0.0080
2000.00,0.0081
1999.00,0.0082
1998.00,0.0081
1997.00,0.0081
1996.00,0.0082
1995.00,0.0084
1994.00,0.0085
1993.00,0.0086
1992.00,0.0088
1991.00,0.0088
1990.00,0.0087
1989.00,0.0086
1988.00,0.0087
1987.00,0.0088
1986.00,0.0089
1985.00,0.0091
1984.00,0.0094
1983.00,0.0097
1982.00,0.0098
1981.00,0.0098
1980.00,0.0096
1979.00,0.0090
1978.00,0.0082
1977.00,0.0077
1976.00,0.0076
1975.00,0.0076
1974.00,0.0076
1973.00,0.0076
1972.00,0.0078
1971.00,0.0078
1970.00,0.0077
1969.00,0.0076
1968.00,0.0075
1967.00,0.0074
1966.00,0.0074
1965.00,0.0074
1964.00,0.0075
1963.00,0.0075
1962.00,0.0074
1961.00,0.0072
1960.00,0.0072
1959.00,0.0072
1958.00,0.0073
1957.00,0.0075
1956.00,0.0077
1955.00,0.0077
1954.00,0.0077
1953.00,0.0076
1952.00,0.0077
1951.00,0.0078
1950.00,0.0079
1949.00,0.0080
1948.00,0.0081
1947.00,0.0081
1946.00,0.0080
1945.00,0.0079
1944.00,0.0079
1943.00,0.0079
1942.00,0.0079
1941.00,0.0079
1940.00,0.0080
1939.00,0.0080
1938.00,0.0080
1937.00,0.0081
1936.00,0.0082
1935.00,0.0083
1934.00,0.0082
1933.00,0.0082
1932.00,0.0082
1931.00,0.0082
1930.00,0.0082
1929.00,0.0082
1928.00,0.0083
1927.00,0.0084
1926.00,0.0083
1925.00,0.0083
1924.00,0.0084
1923.00,0.0084
1922.00,0.0084
1921.00,0.0084
1920.00,0.0084
1919.00,0.0084
1918.00,0.0084
1917.00,0.0084
1916.00,0.0084
1915.00,0.0085
1914.00,0.0086
1913.00,0.0088
1912.00,0.0090
1911.00,0.0093
1910.00,0.0095
1909.00,0.0097
1908.00,0.0098
1907.00,0.0097
1906.00,0.0095
1905.00,0.0093
1904.00,0.0092
1903.00,0.0090
1902.00,0.0089
1901.00,0.0088
1900.00,0.0088
1899.00,0.0088
1898.00,0.0088
1897.00,0.0089
1896.00,0.0090
1895.00,0.0092
1894.00,0.0092
1893.00,0.0093
1892.00,0.0092
1891.00,0.0091
1890.00,0.0089
1889.00,0.0087
1888.00,0.0086
1887.00,0.0086
1886.00,0.0086
1885.00,0.0086
1884.00,0.0087
1883.00,0.0087
1882.00,0.0086
1881.00,0.0086
1880.00,0.0087
1879.00,0.0087
1878.00,0.0088
1877.00,0.0088
1876.00,0.0088
1875.00,0.0087
1874.00,0.0086
1873.00,0.0085
1872.00,0.0085
1871.00,0.0085
1870.00,0.0085
1869.00,0.0084
1868.00,0.0084
1867.00,0.0084
1866.00,0.0084
1865.00,0.0085
1864.00,0.0086
1863.00,0.0087
1862.00,0.0088
1861.00,0.0088
1860.00,0.0088
1859.00,0.0088
1858.00,0.0088
1857.00,0.0088
1856.00,0.0088
1855.00,0.0088
1854.00,0.0088
1853.00,0.0088
1852.00,0.0089
1851.00,0.0090
1850.00,0.0090
1849.00,0.0091
1848.00,0.0091
1847.00,0.0091
1846.00,0.0091
1845.00,0.0091
1844.00,0.0091
1843.00,0.0090
1842.00,0.0089
1841.00,0.0089
1840.00,0.0090
1839.00,0.0090
1838.00,0.0090
1837.00,0.0090
1836.00,0.0090
1835.00,0.0090
1834.00,0.0089
1833.00,0.0088
1832.00,0.0088
1831.00,0.0087
1830.00,0.0086
1829.00,0.0085
1828.00,0.0085
1827.00,0.0086
1826.00,0.0086
1825.00,0.0087
1824.00,0.0088
1823.00,0.0088
1822.00,0.0087
1821.00,0.0087
1820.00,0.0087
1819.00,0.0087
1818.00,0.0086
1817.00,0.0086
1816.00,0.0087
1815.00,0.0087
1814.00,0.0087
1813.00,0.0088
1812.00,0.0088
1811.00,0.0089
1810.00,0.0088
1809.00,0.0088
1808.00,0.0089
1807.00,0.0089
1806.00,0.0090
1805.00,0.0090
1804.00,0.0091
1803.00,0.0091
1802.00,0.0090
1801.00,0.0090
1800.00,0.0090
1799.00,0.0091
1798.00,0.0091
1797.00,0.0092
1796.00,0.0093
1795.00,0.0093
1794.00,0.0093
1793.00,0.0092
1792.00,0.0092
1791.00,0.0092
1790.00,0.0092
1789.00,0.0092
1788.00,0.0093
1787.00,0.0094
1786.00,0.0095
1785.00,0.0094
1784.00,0.0094
1783.00,0.0094
1782.00,0.0094
1781.00,0.0095
1780.00,0.0096
1779.00,0.0096
1778.00,0.0097
1777.00,0.0098
1776.00,0.0098
1775.00,0.0098
1774.00,0.0098
1773.00,0.0098
1772.00,0.0098
1771.00,0.0097
1770.00,0.0097
1769.00,0.0098
1768.00,0.0100
1767.00,0.0100
1766.00,0.0100
1765.00,0.0100
1764.00,0.0101
1763.00,0.0102
1762.00,0.0102
1761.00,0.0103
1760.00,0.0103
1759.00,0.0104
1758.00,0.0104
1757.00,0.0105
1756.00,0.0105
1755.00,0.0104
1754.00,0.0103
1753.00,0.0103
1752.00,0.0104
1751.00,0.0104
1750.00,0.0104
1749.00,0.0103
1748.00,0.0105
1747.00,0.0106
1746.00,0.0107
1745.00,0.0109
1744.00,0.0110
1743.00,0.0111
1742.00,0.0111
1741.00,0.0111
1740.00,0.0112
1739.00,0.0113
1738.00,0.0113
1737.00,0.0113
1736.00,0.0114
1735.00,0.0116
1734.00,0.0117
1733.00,0.0118
1732.00,0.0120
1731.00,0.0123
1730.00,0.0126
1729.00,0.0129
1728.00,0.0132
1727.00,0.0135
1726.00,0.0137
1725.00,0.0140
1724.00,0.0143
1723.00,0.0145
1722.00,0.0146
1721.00,0.0146
1720.00,0.0148
1719.00,0.0150
1718.00,0.0152
1717.00,0.0155
1716.00,0.0159
1715.00,0.0164
1714.00,0.0169
1713.00,0.0174
1712.00,0.0181
1711.00,0.0187
1710.00,0.0193
1709.00,0.0198
1708.00,0.0204
1707.00,0.0210
1706.00,0.0217
1705.00,0.0225
1704.00,0.0233
1703.00,0.0240
1702.00,0.0248
1701.00,0.0262
1700.00,0.0281
1699.00,0.0297
1698.00,0.0311
1697.00,0.0330
1696.00,0.0358
1695.00,0.0386
1694.00,0.0408
1693.00,0.0429
1692.00,0.0452
1691.00,0.0478
1690.00,0.0506
1689.00,0.0534
1688.00,0.0560
1687.00,0.0583
1686.00,0.0607
1685.00,0.0641
1684.00,0.0684
1683.00,0.0722
1682.00,0.0750
1681.00,0.0778
1680.00,0.0808
1679.00,0.0837
1678.00,0.0862
1677.00,0.0887
1676.00,0.0918
1675.00,0.0952
1674.00,0.0981
1673.00,0.1006
1672.00,0.1030
1671.00,0.1057
1670.00,0.1087
1669.00,0.1118
1668.00,0.1147
1667.00,0.1173
1666.00,0.1195
1665.00,0.1217
1664.00,0.1241
1663.00,0.1267
1662.00,0.1290
1661.00,0.1311
1660.00,0.1331
1659.00,0.1349
1658.00,0.1364
1657.00,0.1376
1656.00,0.1386
1655.00,0.1397
1654.00,0.1406
1653.00,0.1412
1652.00,0.1416
1651.00,0.1419
1650.00,0.1421
1649.00,0.1422
1648.00,0.1420
1647.00,0.1413
1646.00,0.1399
1645.00,0.1385
1644.00,0.1374
1643.00,0.1363
1642.00,0.1349
1641.00,0.1331
1640.00,0.1311
1639.00,0.1288
1638.00,0.1263
1637.00,0.1234
1636.00,0.1200
1635.00,0.1167
1634.00,0.1142
1633.00,0.1129
1632.00,0.1124
1631.00,0.1125
1630.00,0.1133
1629.00,0.1152
1628.00,0.1182
1627.00,0.1217
1626.00,0.1248
1625.00,0.1274
1624.00,0.1297
1623.00,0.1312
1622.00,0.1314
1621.00,0.1301
1620.00,0.1277
1619.00,0.1242
1618.00,0.1189
1617.00,0.1121
1616.00,0.1055
1615.00,0.1010
1614.00,0.0986
1613.00,0.0974
1612.00,0.0967
1611.00,0.0957
1610.00,0.0940
1609.00,0.0912
1608.00,0.0875
1607.00,0.0831
1606.00,0.0785
1605.00,0.0739
1604.00,0.0695
1603.00,0.0653
1602.00,0.0616
1601.00,0.0583
1600.00,0.0555
1599.00,0.0533
1598.00,0.0515
1597.00,0.0501
1596.00,0.0492
1595.00,0.0488
1594.00,0.0492
1593.00,0.0502
1592.00,0.0520
1591.00,0.0545
1590.00,0.0577
1589.00,0.0613
1588.00,0.0649
1587.00,0.0682
1586.00,0.0708
1585.00,0.0725
1584.00,0.0732
1583.00,0.0730
1582.00,0.0719
1581.00,0.0702
1580.00,0.0681
1579.00,0.0658
1578.00,0.0632
1577.00,0.0600
1576.00,0.0565
1575.00,0.0533
1574.00,0.0510
1573.00,0.0493
1572.00,0.0480
1571.00,0.0467
1570.00,0.0453
1569.00,0.0440
1568.00,0.0428
1567.00,0.0416
1566.00,0.0401
1565.00,0.0383
1564.00,0.0363
1563.00,0.0345
1562.00,0.0329
1561.00,0.0314
1560.00,0.0295
1559.00,0.0274
1558.00,0.0258
1557.00,0.0251
1556.00,0.0249
1555.00,0.0249
1554.00,0.0248
1553.00,0.0245
1552.00,0.0242
1551.00,0.0240
1550.00,0.0238
1549.00,0.0235
1548.00,0.0232
1547.00,0.0229
1546.00,0.0227
1545.00,0.0223
1544.00,0.0218
1543.00,0.0213
1542.00,0.0209
1541.00,0.0206
1540.00,0.0203
1539.00,0.0202
1538.00,0.0203
1537.00,0.0204
1536.00,0.0204
1535.00,0.0204
1534.00,0.0203
1533.00,0.0201
1532.00,0.0200
1531.00,0.0200
1530.00,0.0200
1529.00,0.0200
1528.00,0.0200
1527.00,0.0200
1526.00,0.0200
1525.00,0.0200
1524.00,0.0200
1523.00,0.0201
1522.00,0.0204
1521.00,0.0208
1520.00,0.0212
1519.00,0.0216
1518.00,0.0221
1517.00,0.0230
1516.00,0.0238
1515.00,0.0246
1514.00,0.0254
1513.00,0.0261
1512.00,0.0267
1511.00,0.0273
1510.00,0.0276
1509.00,0.0280
1508.00,0.0285
1507.00,0.0294
1506.00,0.0305
1505.00,0.0318
1504.00,0.0333
1503.00,0.0350
1502.00,0.0370
1501.00,0.0397
1500.00,0.0431
1499.00,0.0473
1498.00,0.0522
1497.00,0.0570
1496.00,0.0601
1495.00,0.0609
1494.00,0.0600
1493.00,0.0579
1492.00,0.0550
1491.00,0.0515
1490.00,0.0476
1489.00,0.0440
1488.00,0.0408
1487.00,0.0382
1486.00,0.0360
1485.00,0.0343
1484.00,0.0329
1483.00,0.0316
1482.00,0.0306
1481.00,0.0299
1480.00,0.0295
1479.00,0.0293
1478.00,0.0294
1477.00,0.0299
1476.00,0.0306
1475.00,0.0316
1474.00,0.0332
1473.00,0.0362
1472.00,0.0404
1471.00,0.0452
1470.00,0.0505
1469.00,0.0562
1468.00,0.0621
1467.00,0.0678
1466.00,0.0730
1465.00,0.0774
1464.00,0.0805
1463.00,0.0823
1462.00,0.0832
1461.00,0.0836
1460.00,0.0834
1459.00,0.0824
1458.00,0.0800
1457.00,0.0763
1456.00,0.0724
1455.00,0.0695
1454.00,0.0675
1453.00,0.0663
1452.00,0.0657
1451.00,0.0658
1450.00,0.0665
1449.00,0.0681
1448.00,0.0705
1447.00,0.0734
1446.00,0.0768
1445.00,0.0805
1444.00,0.0846
1443.00,0.0887
1442.00,0.0927
1441.00,0.0962
1440.00,0.0991
1439.00,0.1013
1438.00,0.1032
1437.00,0.1051
1436.00,0.1069
1435.00,0.1084
1434.00,0.1098
1433.00,0.1111
1432.00,0.1125
1431.00,0.1138
1430.00,0.1152
1429.00,0.1168
1428.00,0.1184
1427.00,0.1199
1426.00,0.1214
1425.00,0.1228
1424.00,0.1238
1423.00,0.1240
1422.00,0.1233
1421.00,0.1217
1420.00,0.1184
1419.00,0.1133
1418.00,0.1073
1417.00,0.1016
1416.00,0.0962
1415.00,0.0911
1414.00,0.0864
1413.00,0.0822
1412.00,0.0787
1411.00,0.0760
1410.00,0.0744
1409.00,0.0737
1408.00,0.0738
1407.00,0.0747
1406.00,0.0765
1405.00,0.0788
1404.00,0.0813
1403.00,0.0834
1402.00,0.0848
1401.00,0.0855
1400.00,0.0852
1399.00,0.0837
1398.00,0.0813
1397.00,0.0783
1396.00,0.0746
1395.00,0.0703
1394.00,0.0662
1393.00,0.0627
1392.00,0.0601
1391.00,0.0583
1390.00,0.0575
1389.00,0.0580
1388.00,0.0595
1387.00,0.0612
1386.00,0.0621
1385.00,0.0618
1384.00,0.0608
1383.00,0.0602
1382.00,0.0603
1381.00,0.0612
1380.00,0.0622
1379.00,0.0629
1378.00,0.0633
1377.00,0.0630
1376.00,0.0621
1375.00,0.0604
1374.00,0.0583
1373.00,0.0565
1372.00,0.0552
1371.00,0.0548
1370.00,0.0554
1369.00,0.0568
1368.00,0.0590
1367.00,0.0614
1366.00,0.0635
1365.00,0.0646
1364.00,0.0651
1363.00,0.0658
1362.00,0.0675
1361.00,0.0697
1360.00,0.0709
1359.00,0.0700
1358.00,0.0672
1357.00,0.0635
1356.00,0.0599
1355.00,0.0571
1354.00,0.0552
1353.00,0.0539
1352.00,0.0530
1351.00,0.0526
1350.00,0.0526
1349.00,0.0527
1348.00,0.0528
1347.00,0.0527
1346.00,0.0524
1345.00,0.0517
1344.00,0.0507
1343.00,0.0495
1342.00,0.0482
1341.00,0.0467
1340.00,0.0453
1339.00,0.0440
1338.00,0.0432
1337.00,0.0428
1336.00,0.0428
1335.00,0.0433
1334.00,0.0443
1333.00,0.0454
1332.00,0.0467
1331.00,0.0479
1330.00,0.0490
1329.00,0.0500
1328.00,0.0508
1327.00,0.0515
1326.00,0.0522
1325.00,0.0528
1324.00,0.0535
1323.00,0.0543
1322.00,0.0552
1321.00,0.0560
1320.00,0.0566
1319.00,0.0570
1318.00,0.0570
1317.00,0.0566
1316.00,0.0559
1315.00,0.0550
1314.00,0.0540
1313.00,0.0532
1312.00,0.0525
1311.00,0.0522
1310.00,0.0524
1309.00,0.0531
1308.00,0.0543
1307.00,0.0561
1306.00,0.0586
1305.00,0.0620
1304.00,0.0661
1303.00,0.0707
1302.00,0.0753
1301.00,0.0793
1300.00,0.0826
1299.00,0.0853
1298.00,0.0881
1297.00,0.0915
1296.00,0.0957
1295.00,0.1005
1294.00,0.1056
1293.00,0.1104
1292.00,0.1148
1291.00,0.1185
1290.00,0.1219
1289.00,0.1249
1288.00,0.1278
1287.00,0.1303
1286.00,0.1323
1285.00,0.1335
1284.00,0.1338
1283.00,0.1328
1282.00,0.1307
1281.00,0.1278
1280.00,0.1243
1279.00,0.1208
1278.00,0.1178
1277.00,0.1155
1276.00,0.1138
1275.00,0.1127
1274.00,0.1118
1273.00,0.1108
1272.00,0.1096
1271.00,0.1079
1270.00,0.1058
1269.00,0.1033
1268.00,0.1005
1267.00,0.0974
1266.00,0.0941
1265.00,0.0907
1264.00,0.0872
1263.00,0.0836
1262.00,0.0801
1261.00,0.0768
1260.00,0.0736
1259.00,0.0708
1258.00,0.0682
1257.00,0.0660
1256.00,0.0641
1255.00,0.0624
1254.00,0.0611
1253.00,0.0601
1252.00,0.0594
1251.00,0.0591
1250.00,0.0593
1249.00,0.0600
1248.00,0.0612
1247.00,0.0627
1246.00,0.0645
1245.00,0.0664
1244.00,0.0680
1243.00,0.0694
1242.00,0.0706
1241.00,0.0718
1240.00,0.0731
1239.00,0.0749
1238.00,0.0773
1237.00,0.0801
1236.00,0.0831
1235.00,0.0857
1234.00,0.0875
1233.00,0.0882
1232.00,0.0877
1231.00,0.0861
1230.00,0.0839
1229.00,0.0813
1228.00,0.0788
1227.00,0.0764
1226.00,0.0744
1225.00,0.0727
1224.00,0.0712
1223.00,0.0702
1222.00,0.0696
1221.00,0.0694
1220.00,0.0696
1219.00,0.0702
1218.00,0.0711
1217.00,0.0721
1216.00,0.0730
1215.00,0.0735
1214.00,0.0733
1213.00,0.0723
1212.00,0.0704
1211.00,0.0679
1210.00,0.0651
1209.00,0.0624
1208.00,0.0601
1207.00,0.0583
1206.00,0.0572
1205.00,0.0567
1204.00,0.0571
1203.00,0.0581
1202.00,0.0599
1201.00,0.0623
1200.00,0.0651
1199.00,0.0683
1198.00,0.0718
1197.00,0.0754
1196.00,0.0785
1195.00,0.0806
1194.00,0.0811
1193.00,0.0801
1192.00,0.0777
1191.00,0.0745
1190.00,0.0707
1189.00,0.0668
1188.00,0.0628
1187.00,0.0591
1186.00,0.0558
1185.00,0.0530
1184.00,0.0507
1183.00,0.0490
1182.00,0.0476
1181.00,0.0467
1180.00,0.0459
1179.00,0.0455
1178.00,0.0453
1177.00,0.0452
1176.00,0.0452
1175.00,0.0453
1174.00,0.0455
1173.00,0.0458
1172.00,0.0460
1171.00,0.0461
1170.00,0.0462
1169.00,0.0463
1168.00,0.0462
1167.00,0.0462
1166.00,0.0462
1165.00,0.0463
1164.00,0.0466
1163.00,0.0473
1162.00,0.0485
1161.00,0.0505
1160.00,0.0535
1159.00,0.0577
1158.00,0.0630
1157.00,0.0687
1156.00,0.0737
1155.00,0.0766
1154.00,0.0766
1153.00,0.0733
1152.00,0.0676
1151.00,0.0608
1150.00,0.0542
1149.00,0.0488
1148.00,0.0448
1147.00,0.0419
1146.00,0.0399
1145.00,0.0386
1144.00,0.0376
1143.00,0.0370
1142.00,0.0367
1141.00,0.0366
1140.00,0.0367
1139.00,0.0372
1138.00,0.0381
1137.00,0.0397
1136.00,0.0420
1135.00,0.0454
1134.00,0.0502
1133.00,0.0564
1132.00,0.0637
1131.00,0.0712
1130.00,0.0777
1129.00,0.0820
1128.00,0.0835
1127.00,0.0826
1126.00,0.0797
1125.00,0.0755
1124.00,0.0705
1123.00,0.0651
1122.00,0.0599
1121.00,0.0552
1120.00,0.0513
1119.00,0.0485
1118.00,0.0467
1117.00,0.0457
1116.00,0.0452
1115.00,0.0449
1114.00,0.0447
1113.00,0.0443
1112.00,0.0436
1111.00,0.0428
1110.00,0.0420
1109.00,0.0414
1108.00,0.0410
1107.00,0.0411
1106.00,0.0419
1105.00,0.0435
1104.00,0.0461
1103.00,0.0496
1102.00,0.0538
1101.00,0.0576
1100.00,0.0602
1099.00,0.0609
1098.00,0.0595
1097.00,0.0565
1096.00,0.0525
1095.00,0.0484
1094.00,0.0447
1093.00,0.0418
1092.00,0.0396
1091.00,0.0379
1090.00,0.0368
1089.00,0.0361
1088.00,0.0354
1087.00,0.0350
1086.00,0.0347
1085.00,0.0345
1084.00,0.0344
1083.00,0.0345
1082.00,0.0347
1081.00,0.0350
1080.00,0.0353
1079.00,0.0356
1078.00,0.0360
1077.00,0.0365
1076.00,0.0369
1075.00,0.0373
1074.00,0.0377
1073.00,0.0382
1072.00,0.0387
1071.00,0.0393
1070.00,0.0401
1069.00,0.0410
1068.00,0.0419
1067.00,0.0429
1066.00,0.0442
1065.00,0.0457
1064.00,0.0476
1063.00,0.0501
1062.00,0.0535
1061.00,0.0578
1060.00,0.0633
1059.00,0.0701
1058.00,0.0780
1057.00,0.0864
1056.00,0.0942
1055.00,0.1006
1054.00,0.1051
1053.00,0.1077
1052.00,0.1089
1051.00,0.1094
1050.00,0.1091
1049.00,0.1078
1048.00,0.1049
1047.00,0.1006
1046.00,0.0950
1045.00,0.0888
1044.00,0.0821
1043.00,0.0757
1042.00,0.0700
1041.00,0.0652
1040.00,0.0614
1039.00,0.0590
1038.00,0.0577
1037.00,0.0574
1036.00,0.0577
1035.00,0.0585
1034.00,0.0597
1033.00,0.0617
1032.00,0.0648
1031.00,0.0696
1030.00,0.0761
1029.00,0.0835
1028.00,0.0903
1027.00,0.0948
1026.00,0.0959
1025.00,0.0931
1024.00,0.0875
1023.00,0.0806
1022.00,0.0739
1021.00,0.0679
1020.00,0.0629
1019.00,0.0588
1018.00,0.0554
1017.00,0.0524
1016.00,0.0498
1015.00,0.0475
1014.00,0.0456
1013.00,0.0440
1012.00,0.0428
1011.00,0.0422
1010.00,0.0425
1009.00,0.0436
1008.00,0.0454
1007.00,0.0479
1006.00,0.0508
1005.00,0.0536
1004.00,0.0557
1003.00,0.0567
1002.00,0.0567
1001.00,0.0557
1000.00,0.0542
999.00,0.0526
998.00,0.0511
997.00,0.0496
996.00,0.0483
995.00,0.0471
994.00,0.0460
993.00,0.0448
992.00,0.0432
991.00,0.0416
990.00,0.0399
989.00,0.0383
988.00,0.0368
987.00,0.0355
986.00,0.0345
985.00,0.0336
984.00,0.0328
983.00,0.0322
982.00,0.0318
981.00,0.0315
980.00,0.0312
979.00,0.0310
978.00,0.0309
977.00,0.0308
976.00,0.0307
975.00,0.0305
974.00,0.0303
973.00,0.0302
972.00,0.0299
971.00,0.0297
970.00,0.0296
969.00,0.0295
968.00,0.0293
967.00,0.0293
966.00,0.0294
965.00,0.0296
964.00,0.0299
963.00,0.0302
962.00,0.0303
961.00,0.0300
960.00,0.0293
959.00,0.0283
958.00,0.0273
957.00,0.0264
956.00,0.0257
955.00,0.0252
954.00,0.0248
953.00,0.0245
952.00,0.0244
951.00,0.0244
950.00,0.0248
949.00,0.0252
948.00,0.0255
947.00,0.0256
946.00,0.0256
945.00,0.0257
944.00,0.0259
943.00,0.0264
942.00,0.0272
941.00,0.0283
940.00,0.0294
939.00,0.0305
938.00,0.0315
937.00,0.0325
936.00,0.0333
935.00,0.0340
934.00,0.0348
933.00,0.0352
932.00,0.0351
931.00,0.0346
930.00,0.0338
929.00,0.0330
928.00,0.0324
927.00,0.0321
926.00,0.0323
925.00,0.0329
924.00,0.0337
923.00,0.0347
922.00,0.0353
921.00,0.0353
920.00,0.0344
919.00,0.0329
918.00,0.0313
917.00,0.0297
916.00,0.0284
915.00,0.0273
914.00,0.0265
913.00,0.0260
912.00,0.0256
911.00,0.0254
910.00,0.0254
909.00,0.0254
908.00,0.0256
907.00,0.0259
906.00,0.0266
905.00,0.0275
904.00,0.0288
903.00,0.0306
902.00,0.0329
901.00,0.0352
900.00,0.0371
899.00,0.0382
898.00,0.0383
897.00,0.0374
896.00,0.0361
895.00,0.0349
894.00,0.0344
893.00,0.0348
892.00,0.0360
891.00,0.0375
890.00,0.0383
889.00,0.0377
888.00,0.0356
887.00,0.0331
886.00,0.0310
885.00,0.0297
884.00,0.0290
883.00,0.0288
882.00,0.0291
881.00,0.0296
880.00,0.0303
879.00,0.0317
878.00,0.0337
877.00,0.0366
876.00,0.0402
875.00,0.0446
874.00,0.0497
873.00,0.0551
872.00,0.0603
871.00,0.0644
870.00,0.0668
869.00,0.0670
868.00,0.0650
867.00,0.0618
866.00,0.0584
865.00,0.0553
864.00,0.0523
863.00,0.0495
862.00,0.0469
861.00,0.0448
860.00,0.0432
859.00,0.0426
858.00,0.0430
857.00,0.0446
856.00,0.0471
855.00,0.0502
854.00,0.0533
853.00,0.0564
852.00,0.0594
851.00,0.0625
850.00,0.0655
849.00,0.0673
848.00,0.0674
847.00,0.0659
846.00,0.0635
845.00,0.0608
844.00,0.0583
843.00,0.0562
842.00,0.0548
841.00,0.0540
840.00,0.0539
839.00,0.0547
838.00,0.0568
837.00,0.0597
836.00,0.0627
835.00,0.0654
834.00,0.0671
833.00,0.0675
832.00,0.0664
831.00,0.0640
830.00,0.0606
829.00,0.0564
828.00,0.0519
827.00,0.0481
826.00,0.0456
825.00,0.0450
824.00,0.0467
823.00,0.0516
822.00,0.0591
821.00,0.0668
820.00,0.0720
819.00,0.0743
818.00,0.0762
817.00,0.0790
816.00,0.0814
815.00,0.0802
814.00,0.0739
813.00,0.0645
812.00,0.0553
811.00,0.0483
810.00,0.0437
809.00,0.0406
808.00,0.0384
807.00,0.0368
806.00,0.0357
805.00,0.0348
804.00,0.0341
803.00,0.0337
802.00,0.0335
801.00,0.0333
800.00,0.0331
799.00,0.0331
798.00,0.0330
797.00,0.0330
796.00,0.0329
795.00,0.0329
794.00,0.0330
793.00,0.0331
792.00,0.0331
791.00,0.0333
790.00,0.0335
789.00,0.0336
788.00,0.0337
787.00,0.0338
786.00,0.0340
785.00,0.0341
784.00,0.0341
783.00,0.0343
782.00,0.0345
781.00,0.0348
780.00,0.0351
779.00,0.0357
778.00,0.0367
777.00,0.0381
776.00,0.0397
775.00,0.0412
774.00,0.0420
773.00,0.0418
772.00,0.0410
771.00,0.0400
770.00,0.0394
769.00,0.0392
768.00,0.0392
767.00,0.0395
766.00,0.0399
765.00,0.0404
764.00,0.0410
763.00,0.0419
762.00,0.0431
761.00,0.0442
760.00,0.0453
759.00,0.0461
758.00,0.0466
757.00,0.0469
756.00,0.0470
755.00,0.0472
754.00,0.0475
753.00,0.0479
752.00,0.0483
751.00,0.0488
750.00,0.0494
749.00,0.0501
748.00,0.0508
747.00,0.0516
746.00,0.0524
745.00,0.0533
744.00,0.0541
743.00,0.0551
742.00,0.0564
741.00,0.0580
740.00,0.0600
739.00,0.0626
738.00,0.0662
737.00,0.0704
736.00,0.0744
735.00,0.0771
734.00,0.0779
733.00,0.0770
732.00,0.0753
731.00,0.0740
730.00,0.0736
729.00,0.0735
728.00,0.0729
727.00,0.0712
726.00,0.0687
725.00,0.0658
724.00,0.0630
723.00,0.0608
722.00,0.0594
721.00,0.0586
720.00,0.0583
719.00,0.0587
718.00,0.0597
717.00,0.0611
716.00,0.0623
715.00,0.0632
714.00,0.0634
713.00,0.0631
712.00,0.0623
711.00,0.0615
710.00,0.0608
709.00,0.0602
708.00,0.0598
707.00,0.0597
706.00,0.0599
705.00,0.0604
704.00,0.0610
703.00,0.0618
702.00,0.0628
701.00,0.0638
700.00,0.0648
699.00,0.0657
698.00,0.0665
697.00,0.0669
696.00,0.0668
695.00,0.0665
694.00,0.0662
693.00,0.0662
692.00,0.0667
691.00,0.0679
690.00,0.0697
689.00,0.0714
688.00,0.0726
687.00,0.0730
686.00,0.0727
685.00,0.0721
684.00,0.0715
683.00,0.0712
682.00,0.0714
681.00,0.0719
680.00,0.0725
679.00,0.0734
678.00,0.0745
677.00,0.0758
676.00,0.0773
675.00,0.0791
674.00,0.0812
673.00,0.0831
672.00,0.0847
671.00,0.0857
670.00,0.0864
669.00,0.0867
668.00,0.0868
667.00,0.0871
666.00,0.0876
665.00,0.0883
664.00,0.0894
663.00,0.0908
662.00,0.0922
661.00,0.0933
660.00,0.0938
659.00,0.0938
658.00,0.0936
657.00,0.0934
656.00,0.0934
655.00,0.0936
654.00,0.0940
653.00,0.0946
652.00,0.0952
651.00,0.0959
650.00,0.0965
649.00,0.0970
648.00,0.0972
647.00,0.0971
646.00,0.0970
645.00,0.0967
644.00,0.0962
643.00,0.0957
642.00,0.0952
641.00,0.0945
640.00,0.0937
639.00,0.0930
638.00,0.0925
637.00,0.0920
636.00,0.0913
635.00,0.0907
634.00,0.0903
633.00,0.0899
632.00,0.0896
631.00,0.0893
630.00,0.0892
629.00,0.0892
628.00,0.0891
627.00,0.0892
626.00,0.0895
625.00,0.0900
624.00,0.0906
623.00,0.0914
622.00,0.0924
621.00,0.0933
620.00,0.0938
619.00,0.0937
618.00,0.0932
617.00,0.0922
616.00,0.0909
615.00,0.0895
614.00,0.0884
613.00,0.0876
612.00,0.0872
611.00,0.0875
610.00,0.0883
609.00,0.0896
608.00,0.0914
607.00,0.0938
606.00,0.0966
605.00,0.0993
604.00,0.1015
603.00,0.1030
602.00,0.1041
601.00,0.1047
600.00,0.1049
599.00,0.1050
598.00,0.1051
597.00,0.1053
596.00,0.1053
595.00,0.1054
594.00,0.1057
593.00,0.1059
592.00,0.1059
591.00,0.1059
590.00,0.1061
589.00,0.1063
588.00,0.1064
587.00,0.1066
586.00,0.1073
585.00,0.1082
584.00,0.1092
583.00,0.1104
582.00,0.1119
581.00,0.1136
580.00,0.1155
579.00,0.1178
578.00,0.1206
577.00,0.1231
576.00,0.1244
575.00,0.1244
574.00,0.1233
573.00,0.1215
572.00,0.1196
571.00,0.1178
570.00,0.1163
569.00,0.1151
568.00,0.1141
567.00,0.1137
566.00,0.1139
565.00,0.1145
564.00,0.1151
563.00,0.1161
562.00,0.1174
561.00,0.1186
560.00,0.1191
559.00,0.1189
558.00,0.1181
557.00,0.1166
556.00,0.1148
555.00,0.1132
554.00,0.1120
553.00,0.1113
552.00,0.1110
551.00,0.1115
550.00,0.1129
549.00,0.1146
548.00,0.1163
547.00,0.1177
546.00,0.1186
545.00,0.1185
544.00,0.1172
543.00,0.1155
542.00,0.1138
541.00,0.1122
540.00,0.1106
539.00,0.1094
538.00,0.1088
537.00,0.1086
536.00,0.1087
535.00,0.1093
534.00,0.1108
533.00,0.1126
532.00,0.1141
531.00,0.1150
530.00,0.1151
529.00,0.1142
528.00,0.1124
527.00,0.1105
526.00,0.1089
525.00,0.1075
524.00,0.1060
523.00,0.1048
522.00,0.1039
521.00,0.1031
520.00,0.1023
519.00,0.1016
518.00,0.1013
517.00,0.1009
516.00,0.1004
515.00,0.1000
514.00,0.1001
513.00,0.1003
512.00,0.1003
511.00,0.1005
510.00,0.1009
509.00,0.1013
508.00,0.1015
507.00,0.1017
506.00,0.1019
505.00,0.1019
504.00,0.1013
503.00,0.1007
502.00,0.1004
501.00,0.1001
500.00,0.0996
499.00,0.0994
498.00,0.0997
497.00,0.1002
496.00,0.1004
495.00,0.1007
494.00,0.1014
493.00,0.1021
492.00,0.1024
491.00,0.1026
490.00,0.1027
489.00,0.1025
488.00,0.1019
487.00,0.1014
486.00,0.1012
485.00,0.1010
484.00,0.1006
483.00,0.1003
482.00,0.1005
481.00,0.1006
480.00,0.1002
479.00,0.0999
478.00,0.1001
477.00,0.1004
476.00,0.1002
475.00,0.1001
474.00,0.1004
473.00,0.1007
472.00,0.1005
471.00,0.1004
470.00,0.1005
469.00,0.1005
468.00,0.1000
467.00,0.0997
466.00,0.0998
465.00,0.0998
464.00,0.0991
463.00,0.0984
462.00,0.0980
461.00,0.0977
460.00,0.0971
459.00,0.0966
458.00,0.0967
457.00,0.0968
456.00,0.0964
455.00,0.0962
454.00,0.0964
453.00,0.0963
452.00,0.0955
451.00,0.0947
450.00,0.0944
449.00,0.0939
448.00,0.0928
447.00,0.0917
446.00,0.0912
445.00,0.0908
444.00,0.0901
443.00,0.0899
442.00,0.0906
441.00,0.0911
440.00,0.0907
439.00,0.0901
438.00,0.0898
437.00,0.0894
436.00,0.0884
435.00,0.0874
434.00,0.0871
433.00,0.0866
432.00,0.0856
431.00,0.0849
430.00,0.0852
429.00,0.0857
428.00,0.0854
427.00,0.0851
426.00,0.0851
425.00,0.0846
424.00,0.0831
423.00,0.0816
422.00,0.0811
421.00,0.0806
420.00,0.0793
419.00,0.0788
418.00,0.0804
417.00,0.0819
416.00,0.0821
415.00,0.0823
414.00,0.0832
413.00,0.0838
412.00,0.0836
411.00,0.0839
410.00,0.0855
409.00,0.0864
408.00,0.0852
407.00,0.0837
406.00,0.0838
405.00,0.0839
404.00,0.0825
403.00,0.0812
402.00,0.0817
401.00,0.0821
400.00,0.0802
