Created as New Dataset,Sample 1052 By YargerLab Date Monday, August 04 2025
cm-1,A
4000.00,0.0043
3999.00,0.0043
3998.00,0.0043
3997.00,0.0043
3996.00,0.0043
3995.00,0.0042
3994.00,0.0042
3993.00,0.0042
3992.00,0.0042
3991.00,0.0042
3990.00,0.0042
3989.00,0.0042
3988.00,0.0042
3987.00,0.0042
3986.00,0.0042
3985.00,0.0043
3984.00,0.0043
3983.00,0.0043
3982.00,0.0043
3981.00,0.0043
3980.00,0.0043
3979.00,0.0043
3978.00,0.0042
3977.00,0.0043
3976.00,0.0043
3975.00,0.0043
3974.00,0.0042
3973.00,0.0042
3972.00,0.0042
3971.00,0.0043
3970.00,0.0043
3969.00,0.0043
3968.00,0.0043
3967.00,0.0043
3966.00,0.0043
3965.00,0.0042
3964.00,0.0042
3963.00,0.0042
3962.00,0.0042
3961.00,0.0042
3960.00,0.0042
3959.00,0.0042
3958.00,0.0042
3957.00,0.0042
3956.00,0.0042
3955.00,0.0042
3954.00,0.0042
3953.00,0.0042
3952.00,0.0042
3951.00,0.0042
3950.00,0.0042
3949.00,0.0042
3948.00,0.0042
3947.00,0.0042
3946.00,0.0042
3945.00,0.0042
3944.00,0.0042
3943.00,0.0042
3942.00,0.0042
3941.00,0.0042
3940.00,0.0042
3939.00,0.0042
3938.00,0.0042
3937.00,0.0042
3936.00,0.0042
3935.00,0.0042
3934.00,0.0042
3933.00,0.0042
3932.00,0.0043
3931.00,0.0042
3930.00,0.0042
3929.00,0.0042
3928.00,0.0042
3927.00,0.0042
3926.00,0.0042
3925.00,0.0042
3924.00,0.0042
3923.00,0.0042
3922.00,0.0042
3921.00,0.0042
3920.00,0.0042
3919.00,0.0042
3918.00,0.0042
3917.00,0.0042
3916.00,0.0042
3915.00,0.0042
3914.00,0.0042
3913.00,0.0042
3912.00,0.0042
3911.00,0.0042
3910.00,0.0042
3909.00,0.0042
3908.00,0.0042
3907.00,0.0042
3906.00,0.0041
3905.00,0.0041
3904.00,0.0041
3903.00,0.0041
3902.00,0.0042
3901.00,0.0042
3900.00,0.0042
3899.00,0.0042
3898.00,0.0042
3897.00,0.0042
3896.00,0.0042
3895.00,0.0042
3894.00,0.0042
3893.00,0.0041
3892.00,0.0041
3891.00,0.0041
3890.00,0.0041
3889.00,0.0041
3888.00,0.0041
3887.00,0.0041
3886.00,0.0041
3885.00,0.0041
3884.00,0.0041
3883.00,0.0041
3882.00,0.0041
3881.00,0.0041
3880.00,0.0041
3879.00,0.0041
3878.00,0.0041
3877.00,0.0042
3876.00,0.0042
3875.00,0.0041
3874.00,0.0041
3873.00,0.0041
3872.00,0.0041
3871.00,0.0041
3870.00,0.0041
3869.00,0.0041
3868.00,0.0041
3867.00,0.0041
3866.00,0.0041
3865.00,0.0041
3864.00,0.0041
3863.00,0.0041
3862.00,0.0041
3861.00,0.0041
3860.00,0.0041
3859.00,0.0041
3858.00,0.0041
3857.00,0.0041
3856.00,0.0041
3855.00,0.0041
3854.00,0.0041
3853.00,0.0041
3852.00,0.0040
3851.00,0.0040
3850.00,0.0040
3849.00,0.0041
3848.00,0.0041
3847.00,0.0041
3846.00,0.0042
3845.00,0.0041
3844.00,0.0041
3843.00,0.0041
3842.00,0.0041
3841.00,0.0041
3840.00,0.0040
3839.00,0.0040
3838.00,0.0040
3837.00,0.0041
3836.00,0.0041
3835.00,0.0041
3834.00,0.0041
3833.00,0.0042
3832.00,0.0042
3831.00,0.0042
3830.00,0.0042
3829.00,0.0041
3828.00,0.0041
3827.00,0.0041
3826.00,0.0041
3825.00,0.0041
3824.00,0.0041
3823.00,0.0041
3822.00,0.0042
3821.00,0.0042
3820.00,0.0042
3819.00,0.0041
3818.00,0.0041
3817.00,0.0040
3816.00,0.0040
3815.00,0.0040
3814.00,0.0041
3813.00,0.0041
3812.00,0.0041
3811.00,0.0041
3810.00,0.0041
3809.00,0.0041
3808.00,0.0041
3807.00,0.0041
3806.00,0.0040
3805.00,0.0040
3804.00,0.0040
3803.00,0.0040
3802.00,0.0040
3801.00,0.0040
3800.00,0.0040
3799.00,0.0040
3798.00,0.0041
3797.00,0.0041
3796.00,0.0041
3795.00,0.0041
3794.00,0.0041
3793.00,0.0041
3792.00,0.0041
3791.00,0.0042
3790.00,0.0042
3789.00,0.0042
3788.00,0.0042
3787.00,0.0042
3786.00,0.0042
3785.00,0.0042
3784.00,0.0042
3783.00,0.0042
3782.00,0.0042
3781.00,0.0042
3780.00,0.0041
3779.00,0.0041
3778.00,0.0041
3777.00,0.0041
3776.00,0.0041
3775.00,0.0042
3774.00,0.0042
3773.00,0.0042
3772.00,0.0042
3771.00,0.0042
3770.00,0.0041
3769.00,0.0041
3768.00,0.0041
3767.00,0.0041
3766.00,0.0041
3765.00,0.0042
3764.00,0.0042
3763.00,0.0042
3762.00,0.0042
3761.00,0.0042
3760.00,0.0042
3759.00,0.0042
3758.00,0.0042
3757.00,0.0042
3756.00,0.0041
3755.00,0.0041
3754.00,0.0041
3753.00,0.0040
3752.00,0.0040
3751.00,0.0040
3750.00,0.0040
3749.00,0.0040
3748.00,0.0039
3747.00,0.0039
3746.00,0.0039
3745.00,0.0040
3744.00,0.0041
3743.00,0.0041
3742.00,0.0041
3741.00,0.0041
3740.00,0.0040
3739.00,0.0040
3738.00,0.0040
3737.00,0.0040
3736.00,0.0040
3735.00,0.0040
3734.00,0.0040
3733.00,0.0039
3732.00,0.0039
3731.00,0.0039
3730.00,0.0039
3729.00,0.0040
3728.00,0.0040
3727.00,0.0040
3726.00,0.0041
3725.00,0.0041
3724.00,0.0041
3723.00,0.0041
3722.00,0.0041
3721.00,0.0041
3720.00,0.0041
3719.00,0.0041
3718.00,0.0041
3717.00,0.0041
3716.00,0.0040
3715.00,0.0040
3714.00,0.0040
3713.00,0.0040
3712.00,0.0040
3711.00,0.0040
3710.00,0.0040
3709.00,0.0040
3708.00,0.0039
3707.00,0.0039
3706.00,0.0039
3705.00,0.0040
3704.00,0.0040
3703.00,0.0040
3702.00,0.0040
3701.00,0.0040
3700.00,0.0040
3699.00,0.0040
3698.00,0.0040
3697.00,0.0040
3696.00,0.0040
3695.00,0.0040
3694.00,0.0040
3693.00,0.0040
3692.00,0.0040
3691.00,0.0040
3690.00,0.0039
3689.00,0.0039
3688.00,0.0039
3687.00,0.0039
3686.00,0.0039
3685.00,0.0039
3684.00,0.0039
3683.00,0.0040
3682.00,0.0040
3681.00,0.0041
3680.00,0.0041
3679.00,0.0041
3678.00,0.0041
3677.00,0.0040
3676.00,0.0040
3675.00,0.0040
3674.00,0.0040
3673.00,0.0040
3672.00,0.0041
3671.00,0.0041
3670.00,0.0041
3669.00,0.0041
3668.00,0.0041
3667.00,0.0041
3666.00,0.0041
3665.00,0.0041
3664.00,0.0042
3663.00,0.0042
3662.00,0.0042
3661.00,0.0042
3660.00,0.0042
3659.00,0.0042
3658.00,0.0042
3657.00,0.0042
3656.00,0.0042
3655.00,0.0042
3654.00,0.0042
3653.00,0.0042
3652.00,0.0042
3651.00,0.0042
3650.00,0.0042
3649.00,0.0042
3648.00,0.0042
3647.00,0.0043
3646.00,0.0043
3645.00,0.0043
3644.00,0.0044
3643.00,0.0044
3642.00,0.0044
3641.00,0.0044
3640.00,0.0044
3639.00,0.0044
3638.00,0.0044
3637.00,0.0044
3636.00,0.0045
3635.00,0.0045
3634.00,0.0045
3633.00,0.0045
3632.00,0.0045
3631.00,0.0045
3630.00,0.0045
3629.00,0.0045
3628.00,0.0046
3627.00,0.0046
3626.00,0.0046
3625.00,0.0046
3624.00,0.0047
3623.00,0.0047
3622.00,0.0047
3621.00,0.0047
3620.00,0.0048
3619.00,0.0048
3618.00,0.0048
3617.00,0.0048
3616.00,0.0048
3615.00,0.0049
3614.00,0.0049
3613.00,0.0049
3612.00,0.0049
3611.00,0.0050
3610.00,0.0050
3609.00,0.0051
3608.00,0.0051
3607.00,0.0052
3606.00,0.0052
3605.00,0.0052
3604.00,0.0052
3603.00,0.0053
3602.00,0.0053
3601.00,0.0053
3600.00,0.0054
3599.00,0.0054
3598.00,0.0054
3597.00,0.0054
3596.00,0.0054
3595.00,0.0055
3594.00,0.0055
3593.00,0.0055
3592.00,0.0056
3591.00,0.0056
3590.00,0.0056
3589.00,0.0057
3588.00,0.0057
3587.00,0.0058
3586.00,0.0058
3585.00,0.0058
3584.00,0.0059
3583.00,0.0059
3582.00,0.0059
3581.00,0.0059
3580.00,0.0060
3579.00,0.0060
3578.00,0.0061
3577.00,0.0061
3576.00,0.0061
3575.00,0.0062
3574.00,0.0062
3573.00,0.0063
3572.00,0.0063
3571.00,0.0063
3570.00,0.0063
3569.00,0.0064
3568.00,0.0064
3567.00,0.0065
3566.00,0.0065
3565.00,0.0066
3564.00,0.0066
3563.00,0.0067
3562.00,0.0068
3561.00,0.0068
3560.00,0.0069
3559.00,0.0070
3558.00,0.0070
3557.00,0.0070
3556.00,0.0071
3555.00,0.0071
3554.00,0.0071
3553.00,0.0072
3552.00,0.0072
3551.00,0.0073
3550.00,0.0073
3549.00,0.0074
3548.00,0.0074
3547.00,0.0075
3546.00,0.0075
3545.00,0.0076
3544.00,0.0077
3543.00,0.0077
3542.00,0.0078
3541.00,0.0078
3540.00,0.0078
3539.00,0.0079
3538.00,0.0079
3537.00,0.0080
3536.00,0.0080
3535.00,0.0081
3534.00,0.0081
3533.00,0.0082
3532.00,0.0083
3531.00,0.0083
3530.00,0.0083
3529.00,0.0084
3528.00,0.0084
3527.00,0.0085
3526.00,0.0085
3525.00,0.0086
3524.00,0.0086
3523.00,0.0087
3522.00,0.0087
3521.00,0.0088
3520.00,0.0089
3519.00,0.0089
3518.00,0.0090
3517.00,0.0090
3516.00,0.0091
3515.00,0.0091
3514.00,0.0091
3513.00,0.0092
3512.00,0.0092
3511.00,0.0092
3510.00,0.0093
3509.00,0.0093
3508.00,0.0094
3507.00,0.0094
3506.00,0.0095
3505.00,0.0095
3504.00,0.0096
3503.00,0.0097
3502.00,0.0097
3501.00,0.0098
3500.00,0.0099
3499.00,0.0099
3498.00,0.0100
3497.00,0.0100
3496.00,0.0101
3495.00,0.0102
3494.00,0.0103
3493.00,0.0104
3492.00,0.0104
3491.00,0.0105
3490.00,0.0106
3489.00,0.0107
3488.00,0.0108
3487.00,0.0108
3486.00,0.0109
3485.00,0.0110
3484.00,0.0111
3483.00,0.0111
3482.00,0.0112
3481.00,0.0113
3480.00,0.0114
3479.00,0.0115
3478.00,0.0116
3477.00,0.0117
3476.00,0.0118
3475.00,0.0119
3474.00,0.0120
3473.00,0.0121
3472.00,0.0123
3471.00,0.0124
3470.00,0.0125
3469.00,0.0126
3468.00,0.0127
3467.00,0.0128
3466.00,0.0129
3465.00,0.0130
3464.00,0.0132
3463.00,0.0133
3462.00,0.0134
3461.00,0.0135
3460.00,0.0137
3459.00,0.0138
3458.00,0.0139
3457.00,0.0140
3456.00,0.0141
3455.00,0.0143
3454.00,0.0144
3453.00,0.0145
3452.00,0.0147
3451.00,0.0148
3450.00,0.0149
3449.00,0.0150
3448.00,0.0152
3447.00,0.0153
3446.00,0.0155
3445.00,0.0156
3444.00,0.0157
3443.00,0.0159
3442.00,0.0160
3441.00,0.0162
3440.00,0.0164
3439.00,0.0165
3438.00,0.0167
3437.00,0.0170
3436.00,0.0171
3435.00,0.0173
3434.00,0.0175
3433.00,0.0176
3432.00,0.0178
3431.00,0.0180
3430.00,0.0182
3429.00,0.0184
3428.00,0.0186
3427.00,0.0188
3426.00,0.0191
3425.00,0.0193
3424.00,0.0195
3423.00,0.0197
3422.00,0.0199
3421.00,0.0202
3420.00,0.0204
3419.00,0.0207
3418.00,0.0209
3417.00,0.0211
3416.00,0.0213
3415.00,0.0215
3414.00,0.0217
3413.00,0.0218
3412.00,0.0220
3411.00,0.0222
3410.00,0.0224
3409.00,0.0225
3408.00,0.0226
3407.00,0.0227
3406.00,0.0229
3405.00,0.0230
3404.00,0.0230
3403.00,0.0231
3402.00,0.0231
3401.00,0.0231
3400.00,0.0232
3399.00,0.0232
3398.00,0.0231
3397.00,0.0231
3396.00,0.0231
3395.00,0.0231
3394.00,0.0230
3393.00,0.0230
3392.00,0.0229
3391.00,0.0228
3390.00,0.0227
3389.00,0.0225
3388.00,0.0224
3387.00,0.0223
3386.00,0.0222
3385.00,0.0220
3384.00,0.0219
3383.00,0.0218
3382.00,0.0216
3381.00,0.0215
3380.00,0.0213
3379.00,0.0212
3378.00,0.0210
3377.00,0.0209
3376.00,0.0207
3375.00,0.0206
3374.00,0.0204
3373.00,0.0202
3372.00,0.0201
3371.00,0.0199
3370.00,0.0198
3369.00,0.0197
3368.00,0.0196
3367.00,0.0194
3366.00,0.0193
3365.00,0.0192
3364.00,0.0191
3363.00,0.0190
3362.00,0.0189
3361.00,0.0188
3360.00,0.0187
3359.00,0.0186
3358.00,0.0185
3357.00,0.0184
3356.00,0.0184
3355.00,0.0183
3354.00,0.0182
3353.00,0.0181
3352.00,0.0180
3351.00,0.0179
3350.00,0.0179
3349.00,0.0178
3348.00,0.0178
3347.00,0.0177
3346.00,0.0177
3345.00,0.0176
3344.00,0.0175
3343.00,0.0175
3342.00,0.0174
3341.00,0.0174
3340.00,0.0174
3339.00,0.0174
3338.00,0.0173
3337.00,0.0173
3336.00,0.0173
3335.00,0.0173
3334.00,0.0173
3333.00,0.0173
3332.00,0.0173
3331.00,0.0173
3330.00,0.0173
3329.00,0.0173
3328.00,0.0173
3327.00,0.0172
3326.00,0.0172
3325.00,0.0173
3324.00,0.0173
3323.00,0.0174
3322.00,0.0174
3321.00,0.0174
3320.00,0.0174
3319.00,0.0174
3318.00,0.0175
3317.00,0.0175
3316.00,0.0175
3315.00,0.0176
3314.00,0.0176
3313.00,0.0177
3312.00,0.0177
3311.00,0.0177
3310.00,0.0177
3309.00,0.0177
3308.00,0.0177
3307.00,0.0178
3306.00,0.0178
3305.00,0.0179
3304.00,0.0180
3303.00,0.0181
3302.00,0.0182
3301.00,0.0183
3300.00,0.0184
3299.00,0.0184
3298.00,0.0185
3297.00,0.0185
3296.00,0.0186
3295.00,0.0186
3294.00,0.0187
3293.00,0.0188
3292.00,0.0189
3291.00,0.0190
3290.00,0.0191
3289.00,0.0192
3288.00,0.0193
3287.00,0.0194
3286.00,0.0195
3285.00,0.0195
3284.00,0.0196
3283.00,0.0197
3282.00,0.0197
3281.00,0.0198
3280.00,0.0199
3279.00,0.0200
3278.00,0.0201
3277.00,0.0201
3276.00,0.0202
3275.00,0.0203
3274.00,0.0203
3273.00,0.0203
3272.00,0.0204
3271.00,0.0205
3270.00,0.0206
3269.00,0.0207
3268.00,0.0208
3267.00,0.0209
3266.00,0.0209
3265.00,0.0210
3264.00,0.0211
3263.00,0.0212
3262.00,0.0212
3261.00,0.0213
3260.00,0.0214
3259.00,0.0215
3258.00,0.0215
3257.00,0.0216
3256.00,0.0217
3255.00,0.0218
3254.00,0.0219
3253.00,0.0220
3252.00,0.0220
3251.00,0.0221
3250.00,0.0221
3249.00,0.0221
3248.00,0.0222
3247.00,0.0222
3246.00,0.0223
3245.00,0.0224
3244.00,0.0225
3243.00,0.0225
3242.00,0.0225
3241.00,0.0225
3240.00,0.0226
3239.00,0.0226
3238.00,0.0226
3237.00,0.0226
3236.00,0.0225
3235.00,0.0225
3234.00,0.0225
3233.00,0.0225
3232.00,0.0225
3231.00,0.0226
3230.00,0.0226
3229.00,0.0226
3228.00,0.0226
3227.00,0.0225
3226.00,0.0225
3225.00,0.0224
3224.00,0.0224
3223.00,0.0223
3222.00,0.0223
3221.00,0.0222
3220.00,0.0221
3219.00,0.0221
3218.00,0.0220
3217.00,0.0220
3216.00,0.0219
3215.00,0.0219
3214.00,0.0218
3213.00,0.0217
3212.00,0.0216
3211.00,0.0215
3210.00,0.0214
3209.00,0.0213
3208.00,0.0212
3207.00,0.0211
3206.00,0.0209
3205.00,0.0208
3204.00,0.0207
3203.00,0.0205
3202.00,0.0204
3201.00,0.0203
3200.00,0.0201
3199.00,0.0200
3198.00,0.0199
3197.00,0.0197
3196.00,0.0196
3195.00,0.0194
3194.00,0.0193
3193.00,0.0192
3192.00,0.0191
3191.00,0.0190
3190.00,0.0188
3189.00,0.0187
3188.00,0.0186
3187.00,0.0184
3186.00,0.0183
3185.00,0.0182
3184.00,0.0180
3183.00,0.0179
3182.00,0.0177
3181.00,0.0176
3180.00,0.0175
3179.00,0.0173
3178.00,0.0172
3177.00,0.0170
3176.00,0.0169
3175.00,0.0168
3174.00,0.0167
3173.00,0.0166
3172.00,0.0164
3171.00,0.0163
3170.00,0.0161
3169.00,0.0160
3168.00,0.0158
3167.00,0.0157
3166.00,0.0155
3165.00,0.0154
3164.00,0.0152
3163.00,0.0151
3162.00,0.0150
3161.00,0.0148
3160.00,0.0147
3159.00,0.0146
3158.00,0.0144
3157.00,0.0143
3156.00,0.0141
3155.00,0.0139
3154.00,0.0138
3153.00,0.0136
3152.00,0.0135
3151.00,0.0134
3150.00,0.0133
3149.00,0.0132
3148.00,0.0131
3147.00,0.0130
3146.00,0.0129
3145.00,0.0128
3144.00,0.0127
3143.00,0.0125
3142.00,0.0124
3141.00,0.0122
3140.00,0.0121
3139.00,0.0120
3138.00,0.0119
3137.00,0.0118
3136.00,0.0118
3135.00,0.0117
3134.00,0.0116
3133.00,0.0115
3132.00,0.0114
3131.00,0.0113
3130.00,0.0112
3129.00,0.0112
3128.00,0.0111
3127.00,0.0110
3126.00,0.0110
3125.00,0.0109
3124.00,0.0108
3123.00,0.0107
3122.00,0.0107
3121.00,0.0106
3120.00,0.0105
3119.00,0.0105
3118.00,0.0104
3117.00,0.0103
3116.00,0.0103
3115.00,0.0102
3114.00,0.0101
3113.00,0.0100
3112.00,0.0099
3111.00,0.0098
3110.00,0.0098
3109.00,0.0097
3108.00,0.0096
3107.00,0.0095
3106.00,0.0094
3105.00,0.0094
3104.00,0.0093
3103.00,0.0092
3102.00,0.0091
3101.00,0.0091
3100.00,0.0090
3099.00,0.0090
3098.00,0.0090
3097.00,0.0090
3096.00,0.0089
3095.00,0.0089
3094.00,0.0089
3093.00,0.0089
3092.00,0.0089
3091.00,0.0090
3090.00,0.0090
3089.00,0.0090
3088.00,0.0091
3087.00,0.0091
3086.00,0.0091
3085.00,0.0091
3084.00,0.0091
3083.00,0.0090
3082.00,0.0090
3081.00,0.0090
3080.00,0.0090
3079.00,0.0089
3078.00,0.0089
3077.00,0.0089
3076.00,0.0089
3075.00,0.0088
3074.00,0.0088
3073.00,0.0087
3072.00,0.0087
3071.00,0.0086
3070.00,0.0086
3069.00,0.0086
3068.00,0.0086
3067.00,0.0086
3066.00,0.0086
3065.00,0.0086
3064.00,0.0086
3063.00,0.0086
3062.00,0.0086
3061.00,0.0086
3060.00,0.0086
3059.00,0.0086
3058.00,0.0086
3057.00,0.0087
3056.00,0.0087
3055.00,0.0087
3054.00,0.0087
3053.00,0.0087
3052.00,0.0087
3051.00,0.0087
3050.00,0.0087
3049.00,0.0087
3048.00,0.0086
3047.00,0.0086
3046.00,0.0086
3045.00,0.0086
3044.00,0.0085
3043.00,0.0085
3042.00,0.0086
3041.00,0.0086
3040.00,0.0087
3039.00,0.0088
3038.00,0.0089
3037.00,0.0090
3036.00,0.0091
3035.00,0.0092
3034.00,0.0092
3033.00,0.0092
3032.00,0.0092
3031.00,0.0092
3030.00,0.0092
3029.00,0.0091
3028.00,0.0090
3027.00,0.0089
3026.00,0.0088
3025.00,0.0087
3024.00,0.0086
3023.00,0.0085
3022.00,0.0084
3021.00,0.0083
3020.00,0.0082
3019.00,0.0082
3018.00,0.0081
3017.00,0.0081
3016.00,0.0081
3015.00,0.0081
3014.00,0.0081
3013.00,0.0081
3012.00,0.0082
3011.00,0.0082
3010.00,0.0083
3009.00,0.0084
3008.00,0.0085
3007.00,0.0086
3006.00,0.0088
3005.00,0.0090
3004.00,0.0092
3003.00,0.0095
3002.00,0.0097
3001.00,0.0100
3000.00,0.0103
2999.00,0.0107
2998.00,0.0111
2997.00,0.0116
2996.00,0.0120
2995.00,0.0125
2994.00,0.0129
2993.00,0.0132
2992.00,0.0135
2991.00,0.0138
2990.00,0.0141
2989.00,0.0143
2988.00,0.0146
2987.00,0.0149
2986.00,0.0153
2985.00,0.0158
2984.00,0.0163
2983.00,0.0170
2982.00,0.0178
2981.00,0.0187
2980.00,0.0194
2979.00,0.0200
2978.00,0.0203
2977.00,0.0206
2976.00,0.0208
2975.00,0.0213
2974.00,0.0220
2973.00,0.0229
2972.00,0.0240
2971.00,0.0250
2970.00,0.0258
2969.00,0.0263
2968.00,0.0267
2967.00,0.0271
2966.00,0.0274
2965.00,0.0279
2964.00,0.0285
2963.00,0.0291
2962.00,0.0297
2961.00,0.0301
2960.00,0.0303
2959.00,0.0301
2958.00,0.0297
2957.00,0.0291
2956.00,0.0283
2955.00,0.0274
2954.00,0.0264
2953.00,0.0256
2952.00,0.0248
2951.00,0.0242
2950.00,0.0238
2949.00,0.0235
2948.00,0.0234
2947.00,0.0236
2946.00,0.0238
2945.00,0.0243
2944.00,0.0248
2943.00,0.0254
2942.00,0.0262
2941.00,0.0270
2940.00,0.0279
2939.00,0.0290
2938.00,0.0303
2937.00,0.0318
2936.00,0.0334
2935.00,0.0352
2934.00,0.0371
2933.00,0.0391
2932.00,0.0411
2931.00,0.0430
2930.00,0.0446
2929.00,0.0460
2928.00,0.0470
2927.00,0.0476
2926.00,0.0477
2925.00,0.0473
2924.00,0.0467
2923.00,0.0457
2922.00,0.0446
2921.00,0.0434
2920.00,0.0420
2919.00,0.0406
2918.00,0.0392
2917.00,0.0378
2916.00,0.0364
2915.00,0.0350
2914.00,0.0338
2913.00,0.0327
2912.00,0.0316
2911.00,0.0307
2910.00,0.0298
2909.00,0.0290
2908.00,0.0282
2907.00,0.0275
2906.00,0.0268
2905.00,0.0261
2904.00,0.0255
2903.00,0.0249
2902.00,0.0244
2901.00,0.0239
2900.00,0.0234
2899.00,0.0229
2898.00,0.0224
2897.00,0.0220
2896.00,0.0216
2895.00,0.0212
2894.00,0.0209
2893.00,0.0206
2892.00,0.0203
2891.00,0.0200
2890.00,0.0197
2889.00,0.0194
2888.00,0.0192
2887.00,0.0190
2886.00,0.0188
2885.00,0.0187
2884.00,0.0186
2883.00,0.0185
2882.00,0.0186
2881.00,0.0187
2880.00,0.0190
2879.00,0.0195
2878.00,0.0200
2877.00,0.0206
2876.00,0.0213
2875.00,0.0219
2874.00,0.0225
2873.00,0.0228
2872.00,0.0230
2871.00,0.0231
2870.00,0.0230
2869.00,0.0228
2868.00,0.0227
2867.00,0.0228
2866.00,0.0230
2865.00,0.0235
2864.00,0.0243
2863.00,0.0253
2862.00,0.0266
2861.00,0.0281
2860.00,0.0297
2859.00,0.0312
2858.00,0.0325
2857.00,0.0334
2856.00,0.0339
2855.00,0.0341
2854.00,0.0340
2853.00,0.0337
2852.00,0.0330
2851.00,0.0320
2850.00,0.0306
2849.00,0.0290
2848.00,0.0272
2847.00,0.0254
2846.00,0.0237
2845.00,0.0221
2844.00,0.0207
2843.00,0.0194
2842.00,0.0183
2841.00,0.0173
2840.00,0.0164
2839.00,0.0156
2838.00,0.0150
2837.00,0.0145
2836.00,0.0140
2835.00,0.0135
2834.00,0.0132
2833.00,0.0128
2832.00,0.0125
2831.00,0.0122
2830.00,0.0119
2829.00,0.0117
2828.00,0.0114
2827.00,0.0111
2826.00,0.0109
2825.00,0.0107
2824.00,0.0105
2823.00,0.0103
2822.00,0.0102
2821.00,0.0101
2820.00,0.0099
2819.00,0.0098
2818.00,0.0097
2817.00,0.0095
2816.00,0.0094
2815.00,0.0093
2814.00,0.0093
2813.00,0.0092
2812.00,0.0091
2811.00,0.0090
2810.00,0.0089
2809.00,0.0089
2808.00,0.0088
2807.00,0.0088
2806.00,0.0087
2805.00,0.0087
2804.00,0.0086
2803.00,0.0086
2802.00,0.0085
2801.00,0.0084
2800.00,0.0084
2799.00,0.0083
2798.00,0.0082
2797.00,0.0082
2796.00,0.0081
2795.00,0.0080
2794.00,0.0080
2793.00,0.0079
2792.00,0.0078
2791.00,0.0078
2790.00,0.0077
2789.00,0.0077
2788.00,0.0076
2787.00,0.0076
2786.00,0.0076
2785.00,0.0075
2784.00,0.0075
2783.00,0.0075
2782.00,0.0074
2781.00,0.0074
2780.00,0.0074
2779.00,0.0073
2778.00,0.0073
2777.00,0.0073
2776.00,0.0072
2775.00,0.0072
2774.00,0.0071
2773.00,0.0071
2772.00,0.0071
2771.00,0.0071
2770.00,0.0071
2769.00,0.0071
2768.00,0.0071
2767.00,0.0071
2766.00,0.0070
2765.00,0.0070
2764.00,0.0070
2763.00,0.0070
2762.00,0.0070
2761.00,0.0070
2760.00,0.0070
2759.00,0.0070
2758.00,0.0070
2757.00,0.0070
2756.00,0.0070
2755.00,0.0070
2754.00,0.0070
2753.00,0.0070
2752.00,0.0070
2751.00,0.0070
2750.00,0.0070
2749.00,0.0070
2748.00,0.0070
2747.00,0.0070
2746.00,0.0071
2745.00,0.0071
2744.00,0.0071
2743.00,0.0072
2742.00,0.0072
2741.00,0.0072
2740.00,0.0072
2739.00,0.0073
2738.00,0.0073
2737.00,0.0074
2736.00,0.0074
2735.00,0.0075
2734.00,0.0076
2733.00,0.0076
2732.00,0.0077
2731.00,0.0077
2730.00,0.0077
2729.00,0.0077
2728.00,0.0077
2727.00,0.0076
2726.00,0.0076
2725.00,0.0075
2724.00,0.0075
2723.00,0.0075
2722.00,0.0074
2721.00,0.0074
2720.00,0.0074
2719.00,0.0074
2718.00,0.0073
2717.00,0.0073
2716.00,0.0072
2715.00,0.0072
2714.00,0.0072
2713.00,0.0072
2712.00,0.0072
2711.00,0.0072
2710.00,0.0071
2709.00,0.0071
2708.00,0.0071
2707.00,0.0071
2706.00,0.0071
2705.00,0.0071
2704.00,0.0071
2703.00,0.0071
2702.00,0.0071
2701.00,0.0071
2700.00,0.0070
2699.00,0.0070
2698.00,0.0070
2697.00,0.0070
2696.00,0.0069
2695.00,0.0069
2694.00,0.0069
2693.00,0.0069
2692.00,0.0068
2691.00,0.0068
2690.00,0.0068
2689.00,0.0068
2688.00,0.0068
2687.00,0.0067
2686.00,0.0067
2685.00,0.0067
2684.00,0.0067
2683.00,0.0067
2682.00,0.0067
2681.00,0.0066
2680.00,0.0066
2679.00,0.0066
2678.00,0.0066
2677.00,0.0066
2676.00,0.0066
2675.00,0.0066
2674.00,0.0066
2673.00,0.0066
2672.00,0.0067
2671.00,0.0067
2670.00,0.0067
2669.00,0.0067
2668.00,0.0068
2667.00,0.0068
2666.00,0.0068
2665.00,0.0069
2664.00,0.0069
2663.00,0.0070
2662.00,0.0070
2661.00,0.0071
2660.00,0.0071
2659.00,0.0071
2658.00,0.0071
2657.00,0.0072
2656.00,0.0072
2655.00,0.0072
2654.00,0.0072
2653.00,0.0072
2652.00,0.0072
2651.00,0.0072
2650.00,0.0072
2649.00,0.0072
2648.00,0.0072
2647.00,0.0072
2646.00,0.0072
2645.00,0.0072
2644.00,0.0072
2643.00,0.0072
2642.00,0.0072
2641.00,0.0072
2640.00,0.0071
2639.00,0.0071
2638.00,0.0071
2637.00,0.0071
2636.00,0.0070
2635.00,0.0070
2634.00,0.0069
2633.00,0.0069
2632.00,0.0069
2631.00,0.0069
2630.00,0.0069
2629.00,0.0068
2628.00,0.0068
2627.00,0.0067
2626.00,0.0066
2625.00,0.0066
2624.00,0.0066
2623.00,0.0066
2622.00,0.0065
2621.00,0.0065
2620.00,0.0065
2619.00,0.0065
2618.00,0.0065
2617.00,0.0064
2616.00,0.0064
2615.00,0.0064
2614.00,0.0064
2613.00,0.0064
2612.00,0.0064
2611.00,0.0065
2610.00,0.0065
2609.00,0.0065
2608.00,0.0065
2607.00,0.0065
2606.00,0.0065
2605.00,0.0065
2604.00,0.0065
2603.00,0.0065
2602.00,0.0066
2601.00,0.0066
2600.00,0.0066
2599.00,0.0067
2598.00,0.0067
2597.00,0.0067
2596.00,0.0067
2595.00,0.0067
2594.00,0.0066
2593.00,0.0067
2592.00,0.0067
2591.00,0.0067
2590.00,0.0067
2589.00,0.0067
2588.00,0.0067
2587.00,0.0067
2586.00,0.0067
2585.00,0.0067
2584.00,0.0066
2583.00,0.0066
2582.00,0.0066
2581.00,0.0066
2580.00,0.0066
2579.00,0.0066
2578.00,0.0066
2577.00,0.0065
2576.00,0.0065
2575.00,0.0065
2574.00,0.0065
2573.00,0.0065
2572.00,0.0065
2571.00,0.0065
2570.00,0.0065
2569.00,0.0065
2568.00,0.0065
2567.00,0.0065
2566.00,0.0065
2565.00,0.0065
2564.00,0.0065
2563.00,0.0064
2562.00,0.0064
2561.00,0.0064
2560.00,0.0063
2559.00,0.0063
2558.00,0.0062
2557.00,0.0062
2556.00,0.0062
2555.00,0.0061
2554.00,0.0061
2553.00,0.0061
2552.00,0.0060
2551.00,0.0060
2550.00,0.0060
2549.00,0.0060
2548.00,0.0060
2547.00,0.0060
2546.00,0.0060
2545.00,0.0060
2544.00,0.0060
2543.00,0.0060
2542.00,0.0061
2541.00,0.0061
2540.00,0.0061
2539.00,0.0061
2538.00,0.0061
2537.00,0.0061
2536.00,0.0061
2535.00,0.0061
2534.00,0.0061
2533.00,0.0061
2532.00,0.0061
2531.00,0.0061
2530.00,0.0061
2529.00,0.0060
2528.00,0.0060
2527.00,0.0060
2526.00,0.0059
2525.00,0.0059
2524.00,0.0059
2523.00,0.0059
2522.00,0.0058
2521.00,0.0058
2520.00,0.0058
2519.00,0.0058
2518.00,0.0057
2517.00,0.0057
2516.00,0.0057
2515.00,0.0057
2514.00,0.0057
2513.00,0.0057
2512.00,0.0058
2511.00,0.0058
2510.00,0.0057
2509.00,0.0056
2508.00,0.0056
2507.00,0.0056
2506.00,0.0056
2505.00,0.0056
2504.00,0.0056
2503.00,0.0056
2502.00,0.0055
2501.00,0.0055
2500.00,0.0055
2499.00,0.0054
2498.00,0.0054
2497.00,0.0055
2496.00,0.0055
2495.00,0.0055
2494.00,0.0055
2493.00,0.0054
2492.00,0.0054
2491.00,0.0054
2490.00,0.0054
2489.00,0.0055
2488.00,0.0055
2487.00,0.0054
2486.00,0.0054
2485.00,0.0054
2484.00,0.0054
2483.00,0.0054
2482.00,0.0054
2481.00,0.0054
2480.00,0.0053
2479.00,0.0053
2478.00,0.0053
2477.00,0.0053
2476.00,0.0053
2475.00,0.0053
2474.00,0.0053
2473.00,0.0053
2472.00,0.0053
2471.00,0.0053
2470.00,0.0053
2469.00,0.0053
2468.00,0.0053
2467.00,0.0053
2466.00,0.0053
2465.00,0.0053
2464.00,0.0053
2463.00,0.0053
2462.00,0.0053
2461.00,0.0053
2460.00,0.0053
2459.00,0.0053
2458.00,0.0054
2457.00,0.0054
2456.00,0.0054
2455.00,0.0054
2454.00,0.0054
2453.00,0.0053
2452.00,0.0053
2451.00,0.0053
2450.00,0.0053
2449.00,0.0053
2448.00,0.0052
2447.00,0.0052
2446.00,0.0052
2445.00,0.0052
2444.00,0.0052
2443.00,0.0052
2442.00,0.0052
2441.00,0.0052
2440.00,0.0052
2439.00,0.0052
2438.00,0.0051
2437.00,0.0051
2436.00,0.0051
2435.00,0.0051
2434.00,0.0051
2433.00,0.0051
2432.00,0.0051
2431.00,0.0051
2430.00,0.0051
2429.00,0.0051
2428.00,0.0051
2427.00,0.0050
2426.00,0.0050
2425.00,0.0049
2424.00,0.0049
2423.00,0.0049
2422.00,0.0049
2421.00,0.0050
2420.00,0.0050
2419.00,0.0050
2418.00,0.0050
2417.00,0.0050
2416.00,0.0050
2415.00,0.0050
2414.00,0.0050
2413.00,0.0050
2412.00,0.0050
2411.00,0.0050
2410.00,0.0051
2409.00,0.0051
2408.00,0.0050
2407.00,0.0050
2406.00,0.0050
2405.00,0.0049
2404.00,0.0050
2403.00,0.0049
2402.00,0.0049
2401.00,0.0049
2400.00,0.0049
2399.00,0.0049
2398.00,0.0049
2397.00,0.0049
2396.00,0.0049
2395.00,0.0048
2394.00,0.0048
2393.00,0.0048
2392.00,0.0048
2391.00,0.0048
2390.00,0.0048
2389.00,0.0048
2388.00,0.0048
2387.00,0.0048
2386.00,0.0048
2385.00,0.0047
2384.00,0.0047
2383.00,0.0047
2382.00,0.0046
2381.00,0.0046
2380.00,0.0046
2379.00,0.0046
2378.00,0.0046
2377.00,0.0046
2376.00,0.0046
2375.00,0.0046
2374.00,0.0045
2373.00,0.0045
2372.00,0.0045
2371.00,0.0045
2370.00,0.0044
2369.00,0.0044
2368.00,0.0043
2367.00,0.0043
2366.00,0.0043
2365.00,0.0043
2364.00,0.0044
2363.00,0.0045
2362.00,0.0045
2361.00,0.0045
2360.00,0.0046
2359.00,0.0045
2358.00,0.0050
2357.00,0.0054
2356.00,0.0053
2355.00,0.0054
2354.00,0.0054
2353.00,0.0054
2352.00,0.0054
2351.00,0.0054
2350.00,0.0054
2349.00,0.0053
2348.00,0.0053
2347.00,0.0053
2346.00,0.0054
2345.00,0.0053
2344.00,0.0055
2343.00,0.0050
2342.00,0.0047
2341.00,0.0048
2340.00,0.0048
2339.00,0.0048
2338.00,0.0048
2337.00,0.0048
2336.00,0.0048
2335.00,0.0048
2334.00,0.0047
2333.00,0.0047
2332.00,0.0047
2331.00,0.0048
2330.00,0.0048
2329.00,0.0050
2328.00,0.0053
2327.00,0.0056
2326.00,0.0059
2325.00,0.0060
2324.00,0.0060
2323.00,0.0058
2322.00,0.0056
2321.00,0.0055
2320.00,0.0054
2319.00,0.0053
2318.00,0.0053
2317.00,0.0052
2316.00,0.0052
2315.00,0.0052
2314.00,0.0052
2313.00,0.0052
2312.00,0.0052
2311.00,0.0052
2310.00,0.0052
2309.00,0.0052
2308.00,0.0052
2307.00,0.0051
2306.00,0.0051
2305.00,0.0051
2304.00,0.0051
2303.00,0.0052
2302.00,0.0052
2301.00,0.0052
2300.00,0.0052
2299.00,0.0053
2298.00,0.0053
2297.00,0.0054
2296.00,0.0055
2295.00,0.0056
2294.00,0.0056
2293.00,0.0057
2292.00,0.0057
2291.00,0.0058
2290.00,0.0058
2289.00,0.0058
2288.00,0.0058
2287.00,0.0059
2286.00,0.0059
2285.00,0.0059
2284.00,0.0058
2283.00,0.0057
2282.00,0.0056
2281.00,0.0056
2280.00,0.0055
2279.00,0.0055
2278.00,0.0054
2277.00,0.0054
2276.00,0.0054
2275.00,0.0054
2274.00,0.0053
2273.00,0.0052
2272.00,0.0052
2271.00,0.0051
2270.00,0.0051
2269.00,0.0050
2268.00,0.0050
2267.00,0.0049
2266.00,0.0048
2265.00,0.0048
2264.00,0.0047
2263.00,0.0046
2262.00,0.0046
2261.00,0.0046
2260.00,0.0046
2259.00,0.0047
2258.00,0.0047
2257.00,0.0046
2256.00,0.0046
2255.00,0.0045
2254.00,0.0045
2253.00,0.0046
2252.00,0.0046
2251.00,0.0047
2250.00,0.0047
2249.00,0.0047
2248.00,0.0047
2247.00,0.0048
2246.00,0.0048
2245.00,0.0048
2244.00,0.0048
2243.00,0.0049
2242.00,0.0049
2241.00,0.0049
2240.00,0.0050
2239.00,0.0050
2238.00,0.0049
2237.00,0.0048
2236.00,0.0047
2235.00,0.0046
2234.00,0.0046
2233.00,0.0046
2232.00,0.0047
2231.00,0.0048
2230.00,0.0048
2229.00,0.0049
2228.00,0.0049
2227.00,0.0048
2226.00,0.0047
2225.00,0.0046
2224.00,0.0046
2223.00,0.0046
2222.00,0.0046
2221.00,0.0046
2220.00,0.0047
2219.00,0.0048
2218.00,0.0047
2217.00,0.0047
2216.00,0.0047
2215.00,0.0048
2214.00,0.0048
2213.00,0.0048
2212.00,0.0048
2211.00,0.0047
2210.00,0.0046
2209.00,0.0046
2208.00,0.0046
2207.00,0.0046
2206.00,0.0047
2205.00,0.0047
2204.00,0.0047
2203.00,0.0046
2202.00,0.0045
2201.00,0.0044
2200.00,0.0044
2199.00,0.0045
2198.00,0.0045
2197.00,0.0046
2196.00,0.0046
2195.00,0.0047
2194.00,0.0048
2193.00,0.0049
2192.00,0.0049
2191.00,0.0049
2190.00,0.0050
2189.00,0.0050
2188.00,0.0051
2187.00,0.0051
2186.00,0.0050
2185.00,0.0049
2184.00,0.0047
2183.00,0.0045
2182.00,0.0044
2181.00,0.0043
2180.00,0.0043
2179.00,0.0044
2178.00,0.0043
2177.00,0.0041
2176.00,0.0041
2175.00,0.0041
2174.00,0.0042
2173.00,0.0044
2172.00,0.0047
2171.00,0.0050
2170.00,0.0053
2169.00,0.0055
2168.00,0.0056
2167.00,0.0056
2166.00,0.0054
2165.00,0.0052
2164.00,0.0052
2163.00,0.0051
2162.00,0.0048
2161.00,0.0041
2160.00,0.0032
2159.00,0.0025
2158.00,0.0021
2157.00,0.0021
2156.00,0.0022
2155.00,0.0023
2154.00,0.0023
2153.00,0.0024
2152.00,0.0026
2151.00,0.0028
2150.00,0.0029
2149.00,0.0031
2148.00,0.0032
2147.00,0.0032
2146.00,0.0031
2145.00,0.0030
2144.00,0.0030
2143.00,0.0030
2142.00,0.0031
2141.00,0.0032
2140.00,0.0033
2139.00,0.0033
2138.00,0.0033
2137.00,0.0031
2136.00,0.0029
2135.00,0.0027
2134.00,0.0026
2133.00,0.0027
2132.00,0.0029
2131.00,0.0030
2130.00,0.0032
2129.00,0.0033
2128.00,0.0034
2127.00,0.0035
2126.00,0.0036
2125.00,0.0037
2124.00,0.0038
2123.00,0.0038
2122.00,0.0039
2121.00,0.0040
2120.00,0.0040
2119.00,0.0041
2118.00,0.0041
2117.00,0.0042
2116.00,0.0043
2115.00,0.0044
2114.00,0.0044
2113.00,0.0043
2112.00,0.0043
2111.00,0.0043
2110.00,0.0043
2109.00,0.0043
2108.00,0.0043
2107.00,0.0043
2106.00,0.0042
2105.00,0.0041
2104.00,0.0040
2103.00,0.0040
2102.00,0.0040
2101.00,0.0040
2100.00,0.0040
2099.00,0.0039
2098.00,0.0037
2097.00,0.0035
2096.00,0.0034
2095.00,0.0034
2094.00,0.0035
2093.00,0.0036
2092.00,0.0037
2091.00,0.0038
2090.00,0.0039
2089.00,0.0040
2088.00,0.0040
2087.00,0.0041
2086.00,0.0041
2085.00,0.0042
2084.00,0.0042
2083.00,0.0042
2082.00,0.0042
2081.00,0.0043
2080.00,0.0043
2079.00,0.0043
2078.00,0.0043
2077.00,0.0043
2076.00,0.0044
2075.00,0.0044
2074.00,0.0045
2073.00,0.0044
2072.00,0.0044
2071.00,0.0042
2070.00,0.0041
2069.00,0.0040
2068.00,0.0040
2067.00,0.0040
2066.00,0.0039
2065.00,0.0038
2064.00,0.0037
2063.00,0.0036
2062.00,0.0037
2061.00,0.0037
2060.00,0.0038
2059.00,0.0038
2058.00,0.0038
2057.00,0.0038
2056.00,0.0037
2055.00,0.0037
2054.00,0.0038
2053.00,0.0041
2052.00,0.0044
2051.00,0.0044
2050.00,0.0042
2049.00,0.0039
2048.00,0.0036
2047.00,0.0036
2046.00,0.0036
2045.00,0.0037
2044.00,0.0038
2043.00,0.0039
2042.00,0.0039
2041.00,0.0040
2040.00,0.0041
2039.00,0.0041
2038.00,0.0042
2037.00,0.0041
2036.00,0.0040
2035.00,0.0039
2034.00,0.0037
2033.00,0.0035
2032.00,0.0034
2031.00,0.0033
2030.00,0.0033
2029.00,0.0033
2028.00,0.0035
2027.00,0.0037
2026.00,0.0038
2025.00,0.0038
2024.00,0.0038
2023.00,0.0037
2022.00,0.0035
2021.00,0.0034
2020.00,0.0034
2019.00,0.0034
2018.00,0.0033
2017.00,0.0032
2016.00,0.0031
2015.00,0.0031
2014.00,0.0031
2013.00,0.0031
2012.00,0.0032
2011.00,0.0032
2010.00,0.0031
2009.00,0.0030
2008.00,0.0028
2007.00,0.0026
2006.00,0.0025
2005.00,0.0025
2004.00,0.0026
2003.00,0.0027
2002.00,0.0029
2001.00,0.0030
2000.00,0.0031
1999.00,0.0032
1998.00,0.0032
1997.00,0.0032
1996.00,0.0033
1995.00,0.0034
1994.00,0.0036
1993.00,0.0037
1992.00,0.0038
1991.00,0.0038
1990.00,0.0039
1989.00,0.0039
1988.00,0.0039
1987.00,0.0040
1986.00,0.0040
1985.00,0.0041
1984.00,0.0042
1983.00,0.0044
1982.00,0.0046
1981.00,0.0047
1980.00,0.0046
1979.00,0.0043
1978.00,0.0037
1977.00,0.0032
1976.00,0.0030
1975.00,0.0029
1974.00,0.0029
1973.00,0.0029
1972.00,0.0030
1971.00,0.0031
1970.00,0.0032
1969.00,0.0033
1968.00,0.0034
1967.00,0.0033
1966.00,0.0032
1965.00,0.0031
1964.00,0.0031
1963.00,0.0031
1962.00,0.0031
1961.00,0.0030
1960.00,0.0029
1959.00,0.0029
1958.00,0.0029
1957.00,0.0031
1956.00,0.0033
1955.00,0.0034
1954.00,0.0034
1953.00,0.0035
1952.00,0.0034
1951.00,0.0034
1950.00,0.0033
1949.00,0.0033
1948.00,0.0033
1947.00,0.0034
1946.00,0.0034
1945.00,0.0034
1944.00,0.0034
1943.00,0.0034
1942.00,0.0034
1941.00,0.0034
1940.00,0.0035
1939.00,0.0035
1938.00,0.0034
1937.00,0.0033
1936.00,0.0033
1935.00,0.0033
1934.00,0.0034
1933.00,0.0034
1932.00,0.0035
1931.00,0.0036
1930.00,0.0036
1929.00,0.0037
1928.00,0.0037
1927.00,0.0037
1926.00,0.0036
1925.00,0.0037
1924.00,0.0037
1923.00,0.0038
1922.00,0.0038
1921.00,0.0039
1920.00,0.0039
1919.00,0.0039
1918.00,0.0038
1917.00,0.0038
1916.00,0.0038
1915.00,0.0039
1914.00,0.0041
1913.00,0.0043
1912.00,0.0045
1911.00,0.0048
1910.00,0.0050
1909.00,0.0051
1908.00,0.0052
1907.00,0.0051
1906.00,0.0049
1905.00,0.0046
1904.00,0.0044
1903.00,0.0043
1902.00,0.0042
1901.00,0.0042
1900.00,0.0042
1899.00,0.0042
1898.00,0.0042
1897.00,0.0043
1896.00,0.0045
1895.00,0.0046
1894.00,0.0047
1893.00,0.0047
1892.00,0.0047
1891.00,0.0045
1890.00,0.0044
1889.00,0.0042
1888.00,0.0041
1887.00,0.0041
1886.00,0.0041
1885.00,0.0041
1884.00,0.0041
1883.00,0.0040
1882.00,0.0040
1881.00,0.0040
1880.00,0.0040
1879.00,0.0040
1878.00,0.0040
1877.00,0.0039
1876.00,0.0040
1875.00,0.0040
1874.00,0.0040
1873.00,0.0041
1872.00,0.0041
1871.00,0.0042
1870.00,0.0043
1869.00,0.0043
1868.00,0.0043
1867.00,0.0043
1866.00,0.0042
1865.00,0.0041
1864.00,0.0042
1863.00,0.0042
1862.00,0.0042
1861.00,0.0043
1860.00,0.0043
1859.00,0.0043
1858.00,0.0043
1857.00,0.0042
1856.00,0.0042
1855.00,0.0042
1854.00,0.0042
1853.00,0.0042
1852.00,0.0043
1851.00,0.0044
1850.00,0.0045
1849.00,0.0046
1848.00,0.0047
1847.00,0.0048
1846.00,0.0047
1845.00,0.0047
1844.00,0.0045
1843.00,0.0044
1842.00,0.0044
1841.00,0.0044
1840.00,0.0043
1839.00,0.0043
1838.00,0.0043
1837.00,0.0042
1836.00,0.0042
1835.00,0.0042
1834.00,0.0042
1833.00,0.0042
1832.00,0.0043
1831.00,0.0043
1830.00,0.0043
1829.00,0.0043
1828.00,0.0043
1827.00,0.0043
1826.00,0.0043
1825.00,0.0043
1824.00,0.0043
1823.00,0.0043
1822.00,0.0042
1821.00,0.0042
1820.00,0.0042
1819.00,0.0041
1818.00,0.0040
1817.00,0.0039
1816.00,0.0039
1815.00,0.0040
1814.00,0.0041
1813.00,0.0041
1812.00,0.0042
1811.00,0.0043
1810.00,0.0043
1809.00,0.0043
1808.00,0.0043
1807.00,0.0042
1806.00,0.0042
1805.00,0.0043
1804.00,0.0044
1803.00,0.0045
1802.00,0.0045
1801.00,0.0045
1800.00,0.0045
1799.00,0.0045
1798.00,0.0046
1797.00,0.0047
1796.00,0.0048
1795.00,0.0048
1794.00,0.0048
1793.00,0.0048
1792.00,0.0048
1791.00,0.0047
1790.00,0.0046
1789.00,0.0046
1788.00,0.0046
1787.00,0.0046
1786.00,0.0046
1785.00,0.0046
1784.00,0.0046
1783.00,0.0047
1782.00,0.0047
1781.00,0.0048
1780.00,0.0048
1779.00,0.0048
1778.00,0.0049
1777.00,0.0050
1776.00,0.0051
1775.00,0.0052
1774.00,0.0053
1773.00,0.0052
1772.00,0.0052
1771.00,0.0052
1770.00,0.0051
1769.00,0.0051
1768.00,0.0050
1767.00,0.0049
1766.00,0.0049
1765.00,0.0049
1764.00,0.0050
1763.00,0.0051
1762.00,0.0052
1761.00,0.0052
1760.00,0.0053
1759.00,0.0053
1758.00,0.0053
1757.00,0.0052
1756.00,0.0051
1755.00,0.0051
1754.00,0.0051
1753.00,0.0051
1752.00,0.0052
1751.00,0.0053
1750.00,0.0054
1749.00,0.0054
1748.00,0.0055
1747.00,0.0055
1746.00,0.0055
1745.00,0.0056
1744.00,0.0056
1743.00,0.0056
1742.00,0.0055
1741.00,0.0054
1740.00,0.0053
1739.00,0.0053
1738.00,0.0054
1737.00,0.0054
1736.00,0.0054
1735.00,0.0054
1734.00,0.0054
1733.00,0.0055
1732.00,0.0057
1731.00,0.0060
1730.00,0.0061
1729.00,0.0061
1728.00,0.0061
1727.00,0.0062
1726.00,0.0063
1725.00,0.0064
1724.00,0.0065
1723.00,0.0066
1722.00,0.0067
1721.00,0.0067
1720.00,0.0068
1719.00,0.0069
1718.00,0.0070
1717.00,0.0071
1716.00,0.0072
1715.00,0.0074
1714.00,0.0075
1713.00,0.0076
1712.00,0.0078
1711.00,0.0080
1710.00,0.0081
1709.00,0.0083
1708.00,0.0085
1707.00,0.0088
1706.00,0.0091
1705.00,0.0093
1704.00,0.0095
1703.00,0.0096
1702.00,0.0097
1701.00,0.0101
1700.00,0.0107
1699.00,0.0114
1698.00,0.0120
1697.00,0.0126
1696.00,0.0133
1695.00,0.0142
1694.00,0.0151
1693.00,0.0159
1692.00,0.0167
1691.00,0.0176
1690.00,0.0185
1689.00,0.0194
1688.00,0.0200
1687.00,0.0204
1686.00,0.0210
1685.00,0.0220
1684.00,0.0235
1683.00,0.0247
1682.00,0.0256
1681.00,0.0262
1680.00,0.0268
1679.00,0.0273
1678.00,0.0277
1677.00,0.0281
1676.00,0.0289
1675.00,0.0299
1674.00,0.0308
1673.00,0.0314
1672.00,0.0319
1671.00,0.0325
1670.00,0.0333
1669.00,0.0342
1668.00,0.0350
1667.00,0.0355
1666.00,0.0357
1665.00,0.0360
1664.00,0.0365
1663.00,0.0373
1662.00,0.0380
1661.00,0.0386
1660.00,0.0390
1659.00,0.0393
1658.00,0.0395
1657.00,0.0394
1656.00,0.0392
1655.00,0.0389
1654.00,0.0393
1653.00,0.0405
1652.00,0.0416
1651.00,0.0419
1650.00,0.0417
1649.00,0.0414
1648.00,0.0412
1647.00,0.0413
1646.00,0.0414
1645.00,0.0414
1644.00,0.0412
1643.00,0.0409
1642.00,0.0405
1641.00,0.0402
1640.00,0.0397
1639.00,0.0392
1638.00,0.0385
1637.00,0.0380
1636.00,0.0379
1635.00,0.0380
1634.00,0.0384
1633.00,0.0389
1632.00,0.0397
1631.00,0.0410
1630.00,0.0431
1629.00,0.0461
1628.00,0.0499
1627.00,0.0539
1626.00,0.0573
1625.00,0.0604
1624.00,0.0633
1623.00,0.0659
1622.00,0.0674
1621.00,0.0675
1620.00,0.0665
1619.00,0.0645
1618.00,0.0617
1617.00,0.0582
1616.00,0.0552
1615.00,0.0532
1614.00,0.0523
1613.00,0.0520
1612.00,0.0522
1611.00,0.0523
1610.00,0.0519
1609.00,0.0507
1608.00,0.0487
1607.00,0.0462
1606.00,0.0434
1605.00,0.0405
1604.00,0.0377
1603.00,0.0351
1602.00,0.0327
1601.00,0.0307
1600.00,0.0289
1599.00,0.0275
1598.00,0.0265
1597.00,0.0258
1596.00,0.0254
1595.00,0.0255
1594.00,0.0261
1593.00,0.0271
1592.00,0.0288
1591.00,0.0310
1590.00,0.0336
1589.00,0.0366
1588.00,0.0395
1587.00,0.0422
1586.00,0.0445
1585.00,0.0461
1584.00,0.0470
1583.00,0.0473
1582.00,0.0470
1581.00,0.0461
1580.00,0.0448
1579.00,0.0433
1578.00,0.0415
1577.00,0.0393
1576.00,0.0370
1575.00,0.0350
1574.00,0.0335
1573.00,0.0323
1572.00,0.0312
1571.00,0.0304
1570.00,0.0296
1569.00,0.0288
1568.00,0.0280
1567.00,0.0270
1566.00,0.0258
1565.00,0.0243
1564.00,0.0228
1563.00,0.0213
1562.00,0.0199
1561.00,0.0187
1560.00,0.0175
1559.00,0.0163
1558.00,0.0152
1557.00,0.0147
1556.00,0.0144
1555.00,0.0141
1554.00,0.0138
1553.00,0.0136
1552.00,0.0134
1551.00,0.0133
1550.00,0.0132
1549.00,0.0129
1548.00,0.0127
1547.00,0.0125
1546.00,0.0125
1545.00,0.0124
1544.00,0.0123
1543.00,0.0121
1542.00,0.0118
1541.00,0.0116
1540.00,0.0112
1539.00,0.0109
1538.00,0.0109
1537.00,0.0110
1536.00,0.0110
1535.00,0.0110
1534.00,0.0110
1533.00,0.0108
1532.00,0.0107
1531.00,0.0107
1530.00,0.0107
1529.00,0.0108
1528.00,0.0108
1527.00,0.0109
1526.00,0.0110
1525.00,0.0111
1524.00,0.0112
1523.00,0.0113
1522.00,0.0116
1521.00,0.0119
1520.00,0.0122
1519.00,0.0127
1518.00,0.0132
1517.00,0.0138
1516.00,0.0142
1515.00,0.0147
1514.00,0.0151
1513.00,0.0155
1512.00,0.0161
1511.00,0.0165
1510.00,0.0169
1509.00,0.0172
1508.00,0.0174
1507.00,0.0174
1506.00,0.0175
1505.00,0.0178
1504.00,0.0185
1503.00,0.0193
1502.00,0.0203
1501.00,0.0218
1500.00,0.0240
1499.00,0.0269
1498.00,0.0302
1497.00,0.0333
1496.00,0.0351
1495.00,0.0354
1494.00,0.0343
1493.00,0.0325
1492.00,0.0303
1491.00,0.0279
1490.00,0.0256
1489.00,0.0235
1488.00,0.0216
1487.00,0.0200
1486.00,0.0186
1485.00,0.0176
1484.00,0.0168
1483.00,0.0161
1482.00,0.0156
1481.00,0.0153
1480.00,0.0151
1479.00,0.0150
1478.00,0.0152
1477.00,0.0155
1476.00,0.0159
1475.00,0.0164
1474.00,0.0173
1473.00,0.0188
1472.00,0.0209
1471.00,0.0234
1470.00,0.0264
1469.00,0.0296
1468.00,0.0328
1467.00,0.0356
1466.00,0.0380
1465.00,0.0394
1464.00,0.0400
1463.00,0.0401
1462.00,0.0400
1461.00,0.0400
1460.00,0.0398
1459.00,0.0396
1458.00,0.0391
1457.00,0.0381
1456.00,0.0369
1455.00,0.0358
1454.00,0.0349
1453.00,0.0342
1452.00,0.0339
1451.00,0.0339
1450.00,0.0343
1449.00,0.0350
1448.00,0.0360
1447.00,0.0372
1446.00,0.0385
1445.00,0.0401
1444.00,0.0418
1443.00,0.0436
1442.00,0.0453
1441.00,0.0468
1440.00,0.0479
1439.00,0.0488
1438.00,0.0498
1437.00,0.0511
1436.00,0.0526
1435.00,0.0539
1434.00,0.0550
1433.00,0.0561
1432.00,0.0571
1431.00,0.0581
1430.00,0.0590
1429.00,0.0596
1428.00,0.0599
1427.00,0.0598
1426.00,0.0595
1425.00,0.0593
1424.00,0.0589
1423.00,0.0582
1422.00,0.0573
1421.00,0.0562
1420.00,0.0548
1419.00,0.0532
1418.00,0.0513
1417.00,0.0493
1416.00,0.0472
1415.00,0.0452
1414.00,0.0435
1413.00,0.0422
1412.00,0.0413
1411.00,0.0409
1410.00,0.0411
1409.00,0.0417
1408.00,0.0429
1407.00,0.0446
1406.00,0.0468
1405.00,0.0493
1404.00,0.0518
1403.00,0.0540
1402.00,0.0555
1401.00,0.0565
1400.00,0.0570
1399.00,0.0565
1398.00,0.0553
1397.00,0.0532
1396.00,0.0506
1395.00,0.0475
1394.00,0.0444
1393.00,0.0416
1392.00,0.0394
1391.00,0.0378
1390.00,0.0371
1389.00,0.0374
1388.00,0.0384
1387.00,0.0395
1386.00,0.0398
1385.00,0.0391
1384.00,0.0379
1383.00,0.0369
1382.00,0.0366
1381.00,0.0368
1380.00,0.0372
1379.00,0.0375
1378.00,0.0375
1377.00,0.0371
1376.00,0.0361
1375.00,0.0346
1374.00,0.0329
1373.00,0.0313
1372.00,0.0303
1371.00,0.0301
1370.00,0.0307
1369.00,0.0321
1368.00,0.0343
1367.00,0.0366
1366.00,0.0386
1365.00,0.0399
1364.00,0.0408
1363.00,0.0419
1362.00,0.0438
1361.00,0.0460
1360.00,0.0473
1359.00,0.0470
1358.00,0.0451
1357.00,0.0424
1356.00,0.0398
1355.00,0.0377
1354.00,0.0363
1353.00,0.0354
1352.00,0.0349
1351.00,0.0347
1350.00,0.0347
1349.00,0.0349
1348.00,0.0351
1347.00,0.0351
1346.00,0.0349
1345.00,0.0343
1344.00,0.0334
1343.00,0.0324
1342.00,0.0313
1341.00,0.0302
1340.00,0.0290
1339.00,0.0278
1338.00,0.0269
1337.00,0.0263
1336.00,0.0262
1335.00,0.0264
1334.00,0.0269
1333.00,0.0277
1332.00,0.0284
1331.00,0.0291
1330.00,0.0296
1329.00,0.0299
1328.00,0.0300
1327.00,0.0300
1326.00,0.0298
1325.00,0.0296
1324.00,0.0295
1323.00,0.0294
1322.00,0.0294
1321.00,0.0294
1320.00,0.0294
1319.00,0.0293
1318.00,0.0290
1317.00,0.0285
1316.00,0.0278
1315.00,0.0272
1314.00,0.0267
1313.00,0.0264
1312.00,0.0263
1311.00,0.0264
1310.00,0.0269
1309.00,0.0278
1308.00,0.0290
1307.00,0.0306
1306.00,0.0327
1305.00,0.0353
1304.00,0.0383
1303.00,0.0414
1302.00,0.0443
1301.00,0.0463
1300.00,0.0473
1299.00,0.0475
1298.00,0.0474
1297.00,0.0474
1296.00,0.0479
1295.00,0.0488
1294.00,0.0497
1293.00,0.0505
1292.00,0.0511
1291.00,0.0516
1290.00,0.0522
1289.00,0.0530
1288.00,0.0542
1287.00,0.0558
1286.00,0.0574
1285.00,0.0589
1284.00,0.0599
1283.00,0.0601
1282.00,0.0595
1281.00,0.0580
1280.00,0.0559
1279.00,0.0536
1278.00,0.0513
1277.00,0.0492
1276.00,0.0475
1275.00,0.0462
1274.00,0.0452
1273.00,0.0444
1272.00,0.0435
1271.00,0.0427
1270.00,0.0417
1269.00,0.0408
1268.00,0.0398
1267.00,0.0388
1266.00,0.0378
1265.00,0.0367
1264.00,0.0355
1263.00,0.0343
1262.00,0.0331
1261.00,0.0320
1260.00,0.0309
1259.00,0.0299
1258.00,0.0290
1257.00,0.0283
1256.00,0.0276
1255.00,0.0271
1254.00,0.0268
1253.00,0.0267
1252.00,0.0268
1251.00,0.0271
1250.00,0.0278
1249.00,0.0288
1248.00,0.0301
1247.00,0.0317
1246.00,0.0334
1245.00,0.0350
1244.00,0.0364
1243.00,0.0375
1242.00,0.0384
1241.00,0.0392
1240.00,0.0402
1239.00,0.0415
1238.00,0.0433
1237.00,0.0454
1236.00,0.0476
1235.00,0.0494
1234.00,0.0507
1233.00,0.0510
1232.00,0.0504
1231.00,0.0489
1230.00,0.0470
1229.00,0.0449
1228.00,0.0428
1227.00,0.0410
1226.00,0.0394
1225.00,0.0381
1224.00,0.0371
1223.00,0.0363
1222.00,0.0359
1221.00,0.0357
1220.00,0.0360
1219.00,0.0365
1218.00,0.0374
1217.00,0.0383
1216.00,0.0392
1215.00,0.0399
1214.00,0.0400
1213.00,0.0395
1212.00,0.0383
1211.00,0.0367
1210.00,0.0348
1209.00,0.0330
1208.00,0.0314
1207.00,0.0302
1206.00,0.0296
1205.00,0.0295
1204.00,0.0300
1203.00,0.0312
1202.00,0.0329
1201.00,0.0351
1200.00,0.0375
1199.00,0.0402
1198.00,0.0432
1197.00,0.0462
1196.00,0.0489
1195.00,0.0507
1194.00,0.0515
1193.00,0.0509
1192.00,0.0494
1191.00,0.0470
1190.00,0.0442
1189.00,0.0411
1188.00,0.0380
1187.00,0.0350
1186.00,0.0323
1185.00,0.0300
1184.00,0.0281
1183.00,0.0265
1182.00,0.0253
1181.00,0.0243
1180.00,0.0236
1179.00,0.0230
1178.00,0.0227
1177.00,0.0224
1176.00,0.0221
1175.00,0.0219
1174.00,0.0218
1173.00,0.0218
1172.00,0.0217
1171.00,0.0217
1170.00,0.0217
1169.00,0.0216
1168.00,0.0216
1167.00,0.0217
1166.00,0.0218
1165.00,0.0221
1164.00,0.0226
1163.00,0.0234
1162.00,0.0246
1161.00,0.0263
1160.00,0.0289
1159.00,0.0325
1158.00,0.0369
1157.00,0.0416
1156.00,0.0458
1155.00,0.0485
1154.00,0.0489
1153.00,0.0468
1152.00,0.0427
1151.00,0.0376
1150.00,0.0327
1149.00,0.0285
1148.00,0.0254
1147.00,0.0232
1146.00,0.0217
1145.00,0.0208
1144.00,0.0202
1143.00,0.0199
1142.00,0.0197
1141.00,0.0198
1140.00,0.0200
1139.00,0.0204
1138.00,0.0213
1137.00,0.0226
1136.00,0.0244
1135.00,0.0271
1134.00,0.0308
1133.00,0.0356
1132.00,0.0411
1131.00,0.0469
1130.00,0.0519
1129.00,0.0553
1128.00,0.0567
1127.00,0.0563
1126.00,0.0545
1125.00,0.0516
1124.00,0.0479
1123.00,0.0438
1122.00,0.0396
1121.00,0.0358
1120.00,0.0327
1119.00,0.0303
1118.00,0.0287
1117.00,0.0278
1116.00,0.0273
1115.00,0.0270
1114.00,0.0268
1113.00,0.0263
1112.00,0.0257
1111.00,0.0249
1110.00,0.0241
1109.00,0.0235
1108.00,0.0232
1107.00,0.0232
1106.00,0.0239
1105.00,0.0251
1104.00,0.0271
1103.00,0.0299
1102.00,0.0332
1101.00,0.0363
1100.00,0.0384
1099.00,0.0390
1098.00,0.0379
1097.00,0.0355
1096.00,0.0322
1095.00,0.0288
1094.00,0.0258
1093.00,0.0234
1092.00,0.0215
1091.00,0.0201
1090.00,0.0191
1089.00,0.0183
1088.00,0.0178
1087.00,0.0173
1086.00,0.0171
1085.00,0.0169
1084.00,0.0167
1083.00,0.0166
1082.00,0.0166
1081.00,0.0166
1080.00,0.0166
1079.00,0.0168
1078.00,0.0170
1077.00,0.0172
1076.00,0.0174
1075.00,0.0175
1074.00,0.0178
1073.00,0.0182
1072.00,0.0186
1071.00,0.0191
1070.00,0.0197
1069.00,0.0203
1068.00,0.0210
1067.00,0.0217
1066.00,0.0227
1065.00,0.0238
1064.00,0.0252
1063.00,0.0271
1062.00,0.0297
1061.00,0.0330
1060.00,0.0371
1059.00,0.0423
1058.00,0.0483
1057.00,0.0547
1056.00,0.0608
1055.00,0.0659
1054.00,0.0696
1053.00,0.0720
1052.00,0.0734
1051.00,0.0743
1050.00,0.0747
1049.00,0.0743
1048.00,0.0729
1047.00,0.0703
1046.00,0.0667
1045.00,0.0623
1044.00,0.0575
1043.00,0.0526
1042.00,0.0480
1041.00,0.0441
1040.00,0.0411
1039.00,0.0391
1038.00,0.0380
1037.00,0.0378
1036.00,0.0380
1035.00,0.0385
1034.00,0.0394
1033.00,0.0408
1032.00,0.0431
1031.00,0.0468
1030.00,0.0519
1029.00,0.0576
1028.00,0.0629
1027.00,0.0666
1026.00,0.0675
1025.00,0.0656
1024.00,0.0614
1023.00,0.0559
1022.00,0.0503
1021.00,0.0452
1020.00,0.0408
1019.00,0.0371
1018.00,0.0342
1017.00,0.0317
1016.00,0.0297
1015.00,0.0280
1014.00,0.0266
1013.00,0.0256
1012.00,0.0249
1011.00,0.0247
1010.00,0.0251
1009.00,0.0261
1008.00,0.0277
1007.00,0.0298
1006.00,0.0320
1005.00,0.0341
1004.00,0.0355
1003.00,0.0362
1002.00,0.0360
1001.00,0.0352
1000.00,0.0340
999.00,0.0327
998.00,0.0315
997.00,0.0304
996.00,0.0294
995.00,0.0286
994.00,0.0280
993.00,0.0272
992.00,0.0261
991.00,0.0248
990.00,0.0235
989.00,0.0222
988.00,0.0210
987.00,0.0200
986.00,0.0192
985.00,0.0185
984.00,0.0180
983.00,0.0176
982.00,0.0173
981.00,0.0171
980.00,0.0170
979.00,0.0170
978.00,0.0170
977.00,0.0170
976.00,0.0170
975.00,0.0169
974.00,0.0169
973.00,0.0168
972.00,0.0167
971.00,0.0166
970.00,0.0165
969.00,0.0165
968.00,0.0164
967.00,0.0164
966.00,0.0166
965.00,0.0168
964.00,0.0171
963.00,0.0175
962.00,0.0176
961.00,0.0174
960.00,0.0168
959.00,0.0160
958.00,0.0152
957.00,0.0144
956.00,0.0138
955.00,0.0133
954.00,0.0130
953.00,0.0127
952.00,0.0126
951.00,0.0127
950.00,0.0131
949.00,0.0135
948.00,0.0138
947.00,0.0139
946.00,0.0138
945.00,0.0137
944.00,0.0138
943.00,0.0141
942.00,0.0147
941.00,0.0154
940.00,0.0162
939.00,0.0168
938.00,0.0174
937.00,0.0178
936.00,0.0183
935.00,0.0188
934.00,0.0193
933.00,0.0197
932.00,0.0197
931.00,0.0194
930.00,0.0189
929.00,0.0184
928.00,0.0180
927.00,0.0179
926.00,0.0182
925.00,0.0189
924.00,0.0197
923.00,0.0206
922.00,0.0213
921.00,0.0213
920.00,0.0207
919.00,0.0195
918.00,0.0181
917.00,0.0167
916.00,0.0155
915.00,0.0146
914.00,0.0140
913.00,0.0136
912.00,0.0132
911.00,0.0130
910.00,0.0130
909.00,0.0131
908.00,0.0132
907.00,0.0135
906.00,0.0140
905.00,0.0147
904.00,0.0157
903.00,0.0172
902.00,0.0190
901.00,0.0209
900.00,0.0225
899.00,0.0233
898.00,0.0232
897.00,0.0223
896.00,0.0210
895.00,0.0198
894.00,0.0194
893.00,0.0198
892.00,0.0211
891.00,0.0226
890.00,0.0235
889.00,0.0231
888.00,0.0213
887.00,0.0191
886.00,0.0173
885.00,0.0162
884.00,0.0158
883.00,0.0157
882.00,0.0159
881.00,0.0164
880.00,0.0171
879.00,0.0183
878.00,0.0201
877.00,0.0226
876.00,0.0257
875.00,0.0295
874.00,0.0339
873.00,0.0385
872.00,0.0429
871.00,0.0465
870.00,0.0486
869.00,0.0488
868.00,0.0471
867.00,0.0443
866.00,0.0413
865.00,0.0384
864.00,0.0356
863.00,0.0329
862.00,0.0304
861.00,0.0282
860.00,0.0266
859.00,0.0257
858.00,0.0259
857.00,0.0270
856.00,0.0289
855.00,0.0312
854.00,0.0336
853.00,0.0359
852.00,0.0383
851.00,0.0408
850.00,0.0431
849.00,0.0445
848.00,0.0443
847.00,0.0427
846.00,0.0403
845.00,0.0378
844.00,0.0354
843.00,0.0336
842.00,0.0324
841.00,0.0319
840.00,0.0320
839.00,0.0329
838.00,0.0348
837.00,0.0376
836.00,0.0405
835.00,0.0430
834.00,0.0448
833.00,0.0455
832.00,0.0449
831.00,0.0430
830.00,0.0402
829.00,0.0366
828.00,0.0328
827.00,0.0295
826.00,0.0274
825.00,0.0268
824.00,0.0285
823.00,0.0329
822.00,0.0397
821.00,0.0467
820.00,0.0516
819.00,0.0540
818.00,0.0559
817.00,0.0585
816.00,0.0608
815.00,0.0599
814.00,0.0545
813.00,0.0461
812.00,0.0377
811.00,0.0312
810.00,0.0268
809.00,0.0239
808.00,0.0219
807.00,0.0205
806.00,0.0194
805.00,0.0186
804.00,0.0180
803.00,0.0176
802.00,0.0173
801.00,0.0170
800.00,0.0167
799.00,0.0166
798.00,0.0164
797.00,0.0163
796.00,0.0162
795.00,0.0161
794.00,0.0161
793.00,0.0160
792.00,0.0159
791.00,0.0159
790.00,0.0159
789.00,0.0159
788.00,0.0160
787.00,0.0160
786.00,0.0161
785.00,0.0161
784.00,0.0161
783.00,0.0162
782.00,0.0163
781.00,0.0165
780.00,0.0167
779.00,0.0172
778.00,0.0181
777.00,0.0194
776.00,0.0209
775.00,0.0222
774.00,0.0228
773.00,0.0226
772.00,0.0216
771.00,0.0204
770.00,0.0196
769.00,0.0192
768.00,0.0190
767.00,0.0189
766.00,0.0190
765.00,0.0193
764.00,0.0197
763.00,0.0203
762.00,0.0211
761.00,0.0219
760.00,0.0224
759.00,0.0228
758.00,0.0229
757.00,0.0228
756.00,0.0225
755.00,0.0222
754.00,0.0221
753.00,0.0221
752.00,0.0222
751.00,0.0224
750.00,0.0226
749.00,0.0229
748.00,0.0231
747.00,0.0234
746.00,0.0238
745.00,0.0243
744.00,0.0248
743.00,0.0254
742.00,0.0263
741.00,0.0275
740.00,0.0290
739.00,0.0311
738.00,0.0341
737.00,0.0376
736.00,0.0409
735.00,0.0431
734.00,0.0438
733.00,0.0430
732.00,0.0417
731.00,0.0409
730.00,0.0410
729.00,0.0413
728.00,0.0411
727.00,0.0399
726.00,0.0378
725.00,0.0353
724.00,0.0329
723.00,0.0310
722.00,0.0299
721.00,0.0294
720.00,0.0294
719.00,0.0300
718.00,0.0311
717.00,0.0325
716.00,0.0338
715.00,0.0346
714.00,0.0349
713.00,0.0345
712.00,0.0337
711.00,0.0327
710.00,0.0319
709.00,0.0312
708.00,0.0308
707.00,0.0306
706.00,0.0307
705.00,0.0310
704.00,0.0315
703.00,0.0321
702.00,0.0329
701.00,0.0338
700.00,0.0346
699.00,0.0353
698.00,0.0358
697.00,0.0359
696.00,0.0355
695.00,0.0347
694.00,0.0341
693.00,0.0338
692.00,0.0341
691.00,0.0350
690.00,0.0365
689.00,0.0380
688.00,0.0390
687.00,0.0391
686.00,0.0385
685.00,0.0375
684.00,0.0366
683.00,0.0359
682.00,0.0358
681.00,0.0360
680.00,0.0364
679.00,0.0370
678.00,0.0379
677.00,0.0389
676.00,0.0400
675.00,0.0414
674.00,0.0429
673.00,0.0444
672.00,0.0455
671.00,0.0460
670.00,0.0462
669.00,0.0460
668.00,0.0456
667.00,0.0452
666.00,0.0452
665.00,0.0454
664.00,0.0459
663.00,0.0467
662.00,0.0475
661.00,0.0479
660.00,0.0476
659.00,0.0469
658.00,0.0460
657.00,0.0452
656.00,0.0444
655.00,0.0439
654.00,0.0437
653.00,0.0437
652.00,0.0437
651.00,0.0437
650.00,0.0438
649.00,0.0439
648.00,0.0438
647.00,0.0438
646.00,0.0438
645.00,0.0437
644.00,0.0435
643.00,0.0434
642.00,0.0433
641.00,0.0431
640.00,0.0429
639.00,0.0426
638.00,0.0425
637.00,0.0424
636.00,0.0422
635.00,0.0419
634.00,0.0417
633.00,0.0415
632.00,0.0413
631.00,0.0412
630.00,0.0413
629.00,0.0414
628.00,0.0417
627.00,0.0421
626.00,0.0427
625.00,0.0434
624.00,0.0441
623.00,0.0450
622.00,0.0461
621.00,0.0471
620.00,0.0476
619.00,0.0476
618.00,0.0472
617.00,0.0462
616.00,0.0448
615.00,0.0435
614.00,0.0424
613.00,0.0416
612.00,0.0411
611.00,0.0411
610.00,0.0417
609.00,0.0429
608.00,0.0447
607.00,0.0470
606.00,0.0497
605.00,0.0523
604.00,0.0544
603.00,0.0559
602.00,0.0569
601.00,0.0573
600.00,0.0573
599.00,0.0572
598.00,0.0572
597.00,0.0571
596.00,0.0569
595.00,0.0567
594.00,0.0566
593.00,0.0565
592.00,0.0561
591.00,0.0557
590.00,0.0553
589.00,0.0548
588.00,0.0543
587.00,0.0540
586.00,0.0540
585.00,0.0542
584.00,0.0544
583.00,0.0549
582.00,0.0556
581.00,0.0565
580.00,0.0577
579.00,0.0595
578.00,0.0618
577.00,0.0638
576.00,0.0646
575.00,0.0641
574.00,0.0627
573.00,0.0608
572.00,0.0587
571.00,0.0570
570.00,0.0558
569.00,0.0549
568.00,0.0542
567.00,0.0541
566.00,0.0546
565.00,0.0554
564.00,0.0564
563.00,0.0576
562.00,0.0593
561.00,0.0608
560.00,0.0618
559.00,0.0619
558.00,0.0613
557.00,0.0601
556.00,0.0586
555.00,0.0572
554.00,0.0563
553.00,0.0558
552.00,0.0558
551.00,0.0564
550.00,0.0578
549.00,0.0596
548.00,0.0613
547.00,0.0627
546.00,0.0638
545.00,0.0639
544.00,0.0630
543.00,0.0615
542.00,0.0601
541.00,0.0586
540.00,0.0571
539.00,0.0560
538.00,0.0555
537.00,0.0553
536.00,0.0555
535.00,0.0562
534.00,0.0574
533.00,0.0588
532.00,0.0598
531.00,0.0603
530.00,0.0602
529.00,0.0594
528.00,0.0579
527.00,0.0562
526.00,0.0548
525.00,0.0534
524.00,0.0520
523.00,0.0509
522.00,0.0502
521.00,0.0496
520.00,0.0490
519.00,0.0485
518.00,0.0482
517.00,0.0478
516.00,0.0471
515.00,0.0466
514.00,0.0466
513.00,0.0467
512.00,0.0469
511.00,0.0471
510.00,0.0477
509.00,0.0481
508.00,0.0482
507.00,0.0483
506.00,0.0485
505.00,0.0485
504.00,0.0481
503.00,0.0476
502.00,0.0472
501.00,0.0467
500.00,0.0460
499.00,0.0455
498.00,0.0455
497.00,0.0456
496.00,0.0456
495.00,0.0460
494.00,0.0469
493.00,0.0475
492.00,0.0475
491.00,0.0473
490.00,0.0472
489.00,0.0469
488.00,0.0463
487.00,0.0457
486.00,0.0455
485.00,0.0454
484.00,0.0450
483.00,0.0447
482.00,0.0447
481.00,0.0448
480.00,0.0445
479.00,0.0443
478.00,0.0442
477.00,0.0441
476.00,0.0436
475.00,0.0432
474.00,0.0433
473.00,0.0433
472.00,0.0431
471.00,0.0431
470.00,0.0436
469.00,0.0441
468.00,0.0440
467.00,0.0438
466.00,0.0439
465.00,0.0438
464.00,0.0431
463.00,0.0426
462.00,0.0426
461.00,0.0429
460.00,0.0428
459.00,0.0429
458.00,0.0433
457.00,0.0434
456.00,0.0429
455.00,0.0425
454.00,0.0426
453.00,0.0427
452.00,0.0423
451.00,0.0420
450.00,0.0421
449.00,0.0421
448.00,0.0417
447.00,0.0415
446.00,0.0419
445.00,0.0424
444.00,0.0424
443.00,0.0425
442.00,0.0431
441.00,0.0435
440.00,0.0433
439.00,0.0430
438.00,0.0432
437.00,0.0434
436.00,0.0430
435.00,0.0424
434.00,0.0421
433.00,0.0418
432.00,0.0412
431.00,0.0409
430.00,0.0413
429.00,0.0416
428.00,0.0413
427.00,0.0410
426.00,0.0414
425.00,0.0416
424.00,0.0411
423.00,0.0406
422.00,0.0406
421.00,0.0407
420.00,0.0405
419.00,0.0408
418.00,0.0422
417.00,0.0428
416.00,0.0421
415.00,0.0417
414.00,0.0423
413.00,0.0429
412.00,0.0428
411.00,0.0432
410.00,0.0446
409.00,0.0454
408.00,0.0441
407.00,0.0423
406.00,0.0415
405.00,0.0412
404.00,0.0403
403.00,0.0403
402.00,0.0419
401.00,0.0429
400.00,0.0415
