Created as New Dataset,Sample 008 By YargerLab Date Wednesday, August 06 2025
cm-1,A
4000.00,0.0016
3999.00,0.0016
3998.00,0.0016
3997.00,0.0016
3996.00,0.0016
3995.00,0.0016
3994.00,0.0017
3993.00,0.0017
3992.00,0.0017
3991.00,0.0017
3990.00,0.0017
3989.00,0.0017
3988.00,0.0017
3987.00,0.0017
3986.00,0.0017
3985.00,0.0017
3984.00,0.0017
3983.00,0.0017
3982.00,0.0017
3981.00,0.0017
3980.00,0.0017
3979.00,0.0017
3978.00,0.0017
3977.00,0.0017
3976.00,0.0017
3975.00,0.0017
3974.00,0.0017
3973.00,0.0017
3972.00,0.0017
3971.00,0.0017
3970.00,0.0017
3969.00,0.0017
3968.00,0.0017
3967.00,0.0017
3966.00,0.0017
3965.00,0.0017
3964.00,0.0017
3963.00,0.0017
3962.00,0.0017
3961.00,0.0017
3960.00,0.0017
3959.00,0.0017
3958.00,0.0017
3957.00,0.0017
3956.00,0.0016
3955.00,0.0017
3954.00,0.0017
3953.00,0.0017
3952.00,0.0017
3951.00,0.0017
3950.00,0.0017
3949.00,0.0017
3948.00,0.0017
3947.00,0.0017
3946.00,0.0017
3945.00,0.0017
3944.00,0.0017
3943.00,0.0017
3942.00,0.0017
3941.00,0.0017
3940.00,0.0017
3939.00,0.0017
3938.00,0.0017
3937.00,0.0017
3936.00,0.0017
3935.00,0.0017
3934.00,0.0017
3933.00,0.0017
3932.00,0.0017
3931.00,0.0017
3930.00,0.0017
3929.00,0.0017
3928.00,0.0017
3927.00,0.0017
3926.00,0.0018
3925.00,0.0018
3924.00,0.0018
3923.00,0.0018
3922.00,0.0017
3921.00,0.0017
3920.00,0.0017
3919.00,0.0017
3918.00,0.0017
3917.00,0.0016
3916.00,0.0016
3915.00,0.0016
3914.00,0.0016
3913.00,0.0017
3912.00,0.0017
3911.00,0.0017
3910.00,0.0017
3909.00,0.0017
3908.00,0.0018
3907.00,0.0018
3906.00,0.0018
3905.00,0.0018
3904.00,0.0018
3903.00,0.0017
3902.00,0.0017
3901.00,0.0017
3900.00,0.0017
3899.00,0.0017
3898.00,0.0017
3897.00,0.0017
3896.00,0.0017
3895.00,0.0017
3894.00,0.0017
3893.00,0.0017
3892.00,0.0017
3891.00,0.0017
3890.00,0.0017
3889.00,0.0017
3888.00,0.0017
3887.00,0.0017
3886.00,0.0017
3885.00,0.0017
3884.00,0.0017
3883.00,0.0016
3882.00,0.0016
3881.00,0.0016
3880.00,0.0016
3879.00,0.0017
3878.00,0.0017
3877.00,0.0017
3876.00,0.0017
3875.00,0.0017
3874.00,0.0017
3873.00,0.0017
3872.00,0.0017
3871.00,0.0016
3870.00,0.0017
3869.00,0.0017
3868.00,0.0017
3867.00,0.0016
3866.00,0.0016
3865.00,0.0016
3864.00,0.0016
3863.00,0.0016
3862.00,0.0017
3861.00,0.0017
3860.00,0.0017
3859.00,0.0017
3858.00,0.0017
3857.00,0.0017
3856.00,0.0017
3855.00,0.0017
3854.00,0.0017
3853.00,0.0016
3852.00,0.0016
3851.00,0.0016
3850.00,0.0016
3849.00,0.0016
3848.00,0.0016
3847.00,0.0016
3846.00,0.0016
3845.00,0.0016
3844.00,0.0017
3843.00,0.0017
3842.00,0.0017
3841.00,0.0017
3840.00,0.0017
3839.00,0.0017
3838.00,0.0017
3837.00,0.0017
3836.00,0.0017
3835.00,0.0017
3834.00,0.0016
3833.00,0.0016
3832.00,0.0016
3831.00,0.0016
3830.00,0.0016
3829.00,0.0016
3828.00,0.0017
3827.00,0.0017
3826.00,0.0017
3825.00,0.0018
3824.00,0.0018
3823.00,0.0017
3822.00,0.0017
3821.00,0.0017
3820.00,0.0017
3819.00,0.0016
3818.00,0.0016
3817.00,0.0016
3816.00,0.0016
3815.00,0.0017
3814.00,0.0017
3813.00,0.0017
3812.00,0.0017
3811.00,0.0017
3810.00,0.0017
3809.00,0.0017
3808.00,0.0017
3807.00,0.0017
3806.00,0.0017
3805.00,0.0016
3804.00,0.0016
3803.00,0.0015
3802.00,0.0016
3801.00,0.0016
3800.00,0.0017
3799.00,0.0017
3798.00,0.0016
3797.00,0.0017
3796.00,0.0017
3795.00,0.0017
3794.00,0.0017
3793.00,0.0017
3792.00,0.0017
3791.00,0.0017
3790.00,0.0017
3789.00,0.0017
3788.00,0.0017
3787.00,0.0018
3786.00,0.0018
3785.00,0.0018
3784.00,0.0018
3783.00,0.0018
3782.00,0.0018
3781.00,0.0018
3780.00,0.0018
3779.00,0.0017
3778.00,0.0017
3777.00,0.0017
3776.00,0.0017
3775.00,0.0017
3774.00,0.0017
3773.00,0.0017
3772.00,0.0017
3771.00,0.0017
3770.00,0.0017
3769.00,0.0017
3768.00,0.0017
3767.00,0.0017
3766.00,0.0017
3765.00,0.0017
3764.00,0.0017
3763.00,0.0017
3762.00,0.0017
3761.00,0.0017
3760.00,0.0017
3759.00,0.0017
3758.00,0.0017
3757.00,0.0017
3756.00,0.0017
3755.00,0.0017
3754.00,0.0017
3753.00,0.0017
3752.00,0.0017
3751.00,0.0017
3750.00,0.0017
3749.00,0.0017
3748.00,0.0016
3747.00,0.0016
3746.00,0.0015
3745.00,0.0016
3744.00,0.0016
3743.00,0.0016
3742.00,0.0016
3741.00,0.0016
3740.00,0.0017
3739.00,0.0017
3738.00,0.0017
3737.00,0.0017
3736.00,0.0016
3735.00,0.0016
3734.00,0.0015
3733.00,0.0014
3732.00,0.0015
3731.00,0.0015
3730.00,0.0015
3729.00,0.0015
3728.00,0.0016
3727.00,0.0016
3726.00,0.0016
3725.00,0.0016
3724.00,0.0016
3723.00,0.0016
3722.00,0.0016
3721.00,0.0017
3720.00,0.0017
3719.00,0.0017
3718.00,0.0018
3717.00,0.0018
3716.00,0.0018
3715.00,0.0017
3714.00,0.0017
3713.00,0.0016
3712.00,0.0015
3711.00,0.0015
3710.00,0.0014
3709.00,0.0015
3708.00,0.0015
3707.00,0.0015
3706.00,0.0016
3705.00,0.0016
3704.00,0.0016
3703.00,0.0016
3702.00,0.0016
3701.00,0.0016
3700.00,0.0016
3699.00,0.0016
3698.00,0.0016
3697.00,0.0016
3696.00,0.0016
3695.00,0.0016
3694.00,0.0016
3693.00,0.0016
3692.00,0.0016
3691.00,0.0016
3690.00,0.0015
3689.00,0.0015
3688.00,0.0015
3687.00,0.0015
3686.00,0.0015
3685.00,0.0015
3684.00,0.0015
3683.00,0.0016
3682.00,0.0016
3681.00,0.0016
3680.00,0.0017
3679.00,0.0017
3678.00,0.0016
3677.00,0.0016
3676.00,0.0016
3675.00,0.0016
3674.00,0.0015
3673.00,0.0015
3672.00,0.0014
3671.00,0.0014
3670.00,0.0014
3669.00,0.0015
3668.00,0.0015
3667.00,0.0015
3666.00,0.0015
3665.00,0.0015
3664.00,0.0015
3663.00,0.0015
3662.00,0.0016
3661.00,0.0016
3660.00,0.0016
3659.00,0.0016
3658.00,0.0015
3657.00,0.0016
3656.00,0.0016
3655.00,0.0016
3654.00,0.0017
3653.00,0.0017
3652.00,0.0017
3651.00,0.0016
3650.00,0.0016
3649.00,0.0015
3648.00,0.0015
3647.00,0.0015
3646.00,0.0015
3645.00,0.0015
3644.00,0.0015
3643.00,0.0015
3642.00,0.0015
3641.00,0.0016
3640.00,0.0016
3639.00,0.0016
3638.00,0.0016
3637.00,0.0016
3636.00,0.0016
3635.00,0.0016
3634.00,0.0016
3633.00,0.0016
3632.00,0.0015
3631.00,0.0015
3630.00,0.0014
3629.00,0.0014
3628.00,0.0015
3627.00,0.0015
3626.00,0.0015
3625.00,0.0016
3624.00,0.0016
3623.00,0.0016
3622.00,0.0016
3621.00,0.0016
3620.00,0.0016
3619.00,0.0017
3618.00,0.0017
3617.00,0.0018
3616.00,0.0018
3615.00,0.0018
3614.00,0.0017
3613.00,0.0017
3612.00,0.0017
3611.00,0.0017
3610.00,0.0017
3609.00,0.0017
3608.00,0.0017
3607.00,0.0017
3606.00,0.0017
3605.00,0.0017
3604.00,0.0017
3603.00,0.0017
3602.00,0.0017
3601.00,0.0017
3600.00,0.0017
3599.00,0.0017
3598.00,0.0017
3597.00,0.0017
3596.00,0.0017
3595.00,0.0018
3594.00,0.0018
3593.00,0.0018
3592.00,0.0018
3591.00,0.0018
3590.00,0.0018
3589.00,0.0018
3588.00,0.0018
3587.00,0.0018
3586.00,0.0018
3585.00,0.0018
3584.00,0.0019
3583.00,0.0019
3582.00,0.0019
3581.00,0.0020
3580.00,0.0020
3579.00,0.0019
3578.00,0.0019
3577.00,0.0020
3576.00,0.0020
3575.00,0.0020
3574.00,0.0020
3573.00,0.0020
3572.00,0.0020
3571.00,0.0021
3570.00,0.0021
3569.00,0.0021
3568.00,0.0021
3567.00,0.0021
3566.00,0.0021
3565.00,0.0021
3564.00,0.0021
3563.00,0.0021
3562.00,0.0021
3561.00,0.0021
3560.00,0.0021
3559.00,0.0022
3558.00,0.0022
3557.00,0.0022
3556.00,0.0022
3555.00,0.0022
3554.00,0.0022
3553.00,0.0022
3552.00,0.0023
3551.00,0.0023
3550.00,0.0023
3549.00,0.0023
3548.00,0.0023
3547.00,0.0023
3546.00,0.0023
3545.00,0.0023
3544.00,0.0023
3543.00,0.0023
3542.00,0.0023
3541.00,0.0023
3540.00,0.0024
3539.00,0.0024
3538.00,0.0025
3537.00,0.0025
3536.00,0.0025
3535.00,0.0025
3534.00,0.0025
3533.00,0.0025
3532.00,0.0025
3531.00,0.0026
3530.00,0.0026
3529.00,0.0026
3528.00,0.0026
3527.00,0.0026
3526.00,0.0026
3525.00,0.0026
3524.00,0.0026
3523.00,0.0026
3522.00,0.0027
3521.00,0.0027
3520.00,0.0027
3519.00,0.0027
3518.00,0.0027
3517.00,0.0027
3516.00,0.0027
3515.00,0.0027
3514.00,0.0028
3513.00,0.0028
3512.00,0.0028
3511.00,0.0028
3510.00,0.0028
3509.00,0.0028
3508.00,0.0028
3507.00,0.0028
3506.00,0.0028
3505.00,0.0029
3504.00,0.0029
3503.00,0.0029
3502.00,0.0029
3501.00,0.0029
3500.00,0.0030
3499.00,0.0030
3498.00,0.0030
3497.00,0.0030
3496.00,0.0030
3495.00,0.0030
3494.00,0.0030
3493.00,0.0030
3492.00,0.0030
3491.00,0.0030
3490.00,0.0030
3489.00,0.0031
3488.00,0.0031
3487.00,0.0031
3486.00,0.0031
3485.00,0.0032
3484.00,0.0032
3483.00,0.0032
3482.00,0.0032
3481.00,0.0032
3480.00,0.0032
3479.00,0.0033
3478.00,0.0033
3477.00,0.0033
3476.00,0.0033
3475.00,0.0034
3474.00,0.0034
3473.00,0.0034
3472.00,0.0034
3471.00,0.0034
3470.00,0.0035
3469.00,0.0035
3468.00,0.0035
3467.00,0.0035
3466.00,0.0036
3465.00,0.0036
3464.00,0.0036
3463.00,0.0036
3462.00,0.0036
3461.00,0.0036
3460.00,0.0037
3459.00,0.0037
3458.00,0.0037
3457.00,0.0037
3456.00,0.0038
3455.00,0.0038
3454.00,0.0038
3453.00,0.0038
3452.00,0.0038
3451.00,0.0038
3450.00,0.0039
3449.00,0.0039
3448.00,0.0039
3447.00,0.0039
3446.00,0.0039
3445.00,0.0040
3444.00,0.0040
3443.00,0.0041
3442.00,0.0041
3441.00,0.0042
3440.00,0.0042
3439.00,0.0042
3438.00,0.0042
3437.00,0.0042
3436.00,0.0043
3435.00,0.0043
3434.00,0.0043
3433.00,0.0043
3432.00,0.0043
3431.00,0.0044
3430.00,0.0044
3429.00,0.0044
3428.00,0.0044
3427.00,0.0045
3426.00,0.0045
3425.00,0.0045
3424.00,0.0045
3423.00,0.0046
3422.00,0.0046
3421.00,0.0047
3420.00,0.0047
3419.00,0.0048
3418.00,0.0048
3417.00,0.0049
3416.00,0.0049
3415.00,0.0050
3414.00,0.0050
3413.00,0.0051
3412.00,0.0051
3411.00,0.0051
3410.00,0.0052
3409.00,0.0053
3408.00,0.0053
3407.00,0.0054
3406.00,0.0054
3405.00,0.0055
3404.00,0.0055
3403.00,0.0055
3402.00,0.0055
3401.00,0.0056
3400.00,0.0057
3399.00,0.0058
3398.00,0.0058
3397.00,0.0059
3396.00,0.0059
3395.00,0.0059
3394.00,0.0059
3393.00,0.0059
3392.00,0.0060
3391.00,0.0060
3390.00,0.0060
3389.00,0.0060
3388.00,0.0060
3387.00,0.0060
3386.00,0.0059
3385.00,0.0059
3384.00,0.0059
3383.00,0.0059
3382.00,0.0059
3381.00,0.0059
3380.00,0.0059
3379.00,0.0058
3378.00,0.0058
3377.00,0.0058
3376.00,0.0058
3375.00,0.0057
3374.00,0.0057
3373.00,0.0057
3372.00,0.0057
3371.00,0.0057
3370.00,0.0056
3369.00,0.0056
3368.00,0.0056
3367.00,0.0055
3366.00,0.0055
3365.00,0.0055
3364.00,0.0055
3363.00,0.0054
3362.00,0.0054
3361.00,0.0054
3360.00,0.0054
3359.00,0.0054
3358.00,0.0053
3357.00,0.0053
3356.00,0.0053
3355.00,0.0053
3354.00,0.0053
3353.00,0.0052
3352.00,0.0052
3351.00,0.0052
3350.00,0.0052
3349.00,0.0052
3348.00,0.0051
3347.00,0.0051
3346.00,0.0051
3345.00,0.0051
3344.00,0.0051
3343.00,0.0051
3342.00,0.0051
3341.00,0.0051
3340.00,0.0051
3339.00,0.0050
3338.00,0.0050
3337.00,0.0050
3336.00,0.0050
3335.00,0.0050
3334.00,0.0050
3333.00,0.0050
3332.00,0.0050
3331.00,0.0050
3330.00,0.0050
3329.00,0.0050
3328.00,0.0050
3327.00,0.0049
3326.00,0.0050
3325.00,0.0050
3324.00,0.0050
3323.00,0.0050
3322.00,0.0050
3321.00,0.0050
3320.00,0.0050
3319.00,0.0050
3318.00,0.0050
3317.00,0.0050
3316.00,0.0050
3315.00,0.0050
3314.00,0.0050
3313.00,0.0050
3312.00,0.0050
3311.00,0.0049
3310.00,0.0049
3309.00,0.0049
3308.00,0.0049
3307.00,0.0049
3306.00,0.0050
3305.00,0.0050
3304.00,0.0050
3303.00,0.0050
3302.00,0.0050
3301.00,0.0050
3300.00,0.0050
3299.00,0.0050
3298.00,0.0050
3297.00,0.0050
3296.00,0.0050
3295.00,0.0051
3294.00,0.0051
3293.00,0.0051
3292.00,0.0051
3291.00,0.0051
3290.00,0.0051
3289.00,0.0052
3288.00,0.0052
3287.00,0.0052
3286.00,0.0052
3285.00,0.0053
3284.00,0.0053
3283.00,0.0053
3282.00,0.0053
3281.00,0.0053
3280.00,0.0053
3279.00,0.0053
3278.00,0.0053
3277.00,0.0053
3276.00,0.0053
3275.00,0.0053
3274.00,0.0054
3273.00,0.0054
3272.00,0.0054
3271.00,0.0054
3270.00,0.0054
3269.00,0.0054
3268.00,0.0055
3267.00,0.0055
3266.00,0.0055
3265.00,0.0055
3264.00,0.0055
3263.00,0.0055
3262.00,0.0056
3261.00,0.0056
3260.00,0.0056
3259.00,0.0057
3258.00,0.0057
3257.00,0.0057
3256.00,0.0057
3255.00,0.0057
3254.00,0.0057
3253.00,0.0057
3252.00,0.0057
3251.00,0.0058
3250.00,0.0058
3249.00,0.0059
3248.00,0.0059
3247.00,0.0059
3246.00,0.0059
3245.00,0.0059
3244.00,0.0059
3243.00,0.0060
3242.00,0.0060
3241.00,0.0060
3240.00,0.0060
3239.00,0.0060
3238.00,0.0060
3237.00,0.0060
3236.00,0.0060
3235.00,0.0060
3234.00,0.0060
3233.00,0.0060
3232.00,0.0061
3231.00,0.0061
3230.00,0.0061
3229.00,0.0061
3228.00,0.0062
3227.00,0.0062
3226.00,0.0062
3225.00,0.0062
3224.00,0.0062
3223.00,0.0062
3222.00,0.0062
3221.00,0.0063
3220.00,0.0063
3219.00,0.0063
3218.00,0.0063
3217.00,0.0063
3216.00,0.0063
3215.00,0.0064
3214.00,0.0064
3213.00,0.0064
3212.00,0.0064
3211.00,0.0064
3210.00,0.0063
3209.00,0.0063
3208.00,0.0063
3207.00,0.0063
3206.00,0.0063
3205.00,0.0063
3204.00,0.0063
3203.00,0.0063
3202.00,0.0063
3201.00,0.0062
3200.00,0.0062
3199.00,0.0062
3198.00,0.0062
3197.00,0.0061
3196.00,0.0061
3195.00,0.0061
3194.00,0.0061
3193.00,0.0061
3192.00,0.0061
3191.00,0.0061
3190.00,0.0061
3189.00,0.0061
3188.00,0.0060
3187.00,0.0060
3186.00,0.0060
3185.00,0.0059
3184.00,0.0059
3183.00,0.0059
3182.00,0.0059
3181.00,0.0059
3180.00,0.0059
3179.00,0.0059
3178.00,0.0059
3177.00,0.0058
3176.00,0.0058
3175.00,0.0058
3174.00,0.0058
3173.00,0.0057
3172.00,0.0057
3171.00,0.0057
3170.00,0.0057
3169.00,0.0056
3168.00,0.0056
3167.00,0.0056
3166.00,0.0056
3165.00,0.0055
3164.00,0.0055
3163.00,0.0055
3162.00,0.0055
3161.00,0.0054
3160.00,0.0054
3159.00,0.0053
3158.00,0.0053
3157.00,0.0052
3156.00,0.0052
3155.00,0.0052
3154.00,0.0052
3153.00,0.0052
3152.00,0.0052
3151.00,0.0052
3150.00,0.0051
3149.00,0.0051
3148.00,0.0050
3147.00,0.0050
3146.00,0.0050
3145.00,0.0049
3144.00,0.0049
3143.00,0.0049
3142.00,0.0049
3141.00,0.0048
3140.00,0.0048
3139.00,0.0048
3138.00,0.0048
3137.00,0.0048
3136.00,0.0047
3135.00,0.0047
3134.00,0.0047
3133.00,0.0047
3132.00,0.0047
3131.00,0.0046
3130.00,0.0046
3129.00,0.0046
3128.00,0.0046
3127.00,0.0045
3126.00,0.0045
3125.00,0.0045
3124.00,0.0045
3123.00,0.0045
3122.00,0.0045
3121.00,0.0045
3120.00,0.0045
3119.00,0.0045
3118.00,0.0045
3117.00,0.0044
3116.00,0.0044
3115.00,0.0043
3114.00,0.0043
3113.00,0.0042
3112.00,0.0042
3111.00,0.0042
3110.00,0.0042
3109.00,0.0042
3108.00,0.0042
3107.00,0.0042
3106.00,0.0041
3105.00,0.0041
3104.00,0.0041
3103.00,0.0041
3102.00,0.0040
3101.00,0.0040
3100.00,0.0040
3099.00,0.0040
3098.00,0.0040
3097.00,0.0040
3096.00,0.0040
3095.00,0.0040
3094.00,0.0040
3093.00,0.0040
3092.00,0.0040
3091.00,0.0041
3090.00,0.0041
3089.00,0.0041
3088.00,0.0041
3087.00,0.0040
3086.00,0.0040
3085.00,0.0040
3084.00,0.0040
3083.00,0.0039
3082.00,0.0039
3081.00,0.0039
3080.00,0.0039
3079.00,0.0039
3078.00,0.0039
3077.00,0.0039
3076.00,0.0038
3075.00,0.0038
3074.00,0.0038
3073.00,0.0038
3072.00,0.0038
3071.00,0.0038
3070.00,0.0038
3069.00,0.0038
3068.00,0.0038
3067.00,0.0038
3066.00,0.0038
3065.00,0.0038
3064.00,0.0038
3063.00,0.0038
3062.00,0.0037
3061.00,0.0037
3060.00,0.0037
3059.00,0.0037
3058.00,0.0037
3057.00,0.0037
3056.00,0.0037
3055.00,0.0036
3054.00,0.0036
3053.00,0.0036
3052.00,0.0036
3051.00,0.0036
3050.00,0.0036
3049.00,0.0036
3048.00,0.0036
3047.00,0.0035
3046.00,0.0035
3045.00,0.0035
3044.00,0.0035
3043.00,0.0035
3042.00,0.0035
3041.00,0.0035
3040.00,0.0035
3039.00,0.0035
3038.00,0.0036
3037.00,0.0036
3036.00,0.0036
3035.00,0.0036
3034.00,0.0036
3033.00,0.0036
3032.00,0.0035
3031.00,0.0035
3030.00,0.0035
3029.00,0.0035
3028.00,0.0034
3027.00,0.0034
3026.00,0.0034
3025.00,0.0034
3024.00,0.0034
3023.00,0.0034
3022.00,0.0033
3021.00,0.0033
3020.00,0.0034
3019.00,0.0034
3018.00,0.0033
3017.00,0.0033
3016.00,0.0033
3015.00,0.0033
3014.00,0.0033
3013.00,0.0033
3012.00,0.0033
3011.00,0.0033
3010.00,0.0034
3009.00,0.0034
3008.00,0.0034
3007.00,0.0035
3006.00,0.0036
3005.00,0.0036
3004.00,0.0037
3003.00,0.0037
3002.00,0.0038
3001.00,0.0039
3000.00,0.0040
2999.00,0.0040
2998.00,0.0042
2997.00,0.0043
2996.00,0.0044
2995.00,0.0044
2994.00,0.0045
2993.00,0.0045
2992.00,0.0045
2991.00,0.0046
2990.00,0.0046
2989.00,0.0047
2988.00,0.0048
2987.00,0.0049
2986.00,0.0050
2985.00,0.0051
2984.00,0.0053
2983.00,0.0054
2982.00,0.0055
2981.00,0.0057
2980.00,0.0059
2979.00,0.0060
2978.00,0.0062
2977.00,0.0063
2976.00,0.0065
2975.00,0.0067
2974.00,0.0070
2973.00,0.0072
2972.00,0.0074
2971.00,0.0076
2970.00,0.0077
2969.00,0.0078
2968.00,0.0079
2967.00,0.0080
2966.00,0.0082
2965.00,0.0083
2964.00,0.0084
2963.00,0.0085
2962.00,0.0085
2961.00,0.0084
2960.00,0.0083
2959.00,0.0081
2958.00,0.0079
2957.00,0.0077
2956.00,0.0075
2955.00,0.0074
2954.00,0.0073
2953.00,0.0072
2952.00,0.0071
2951.00,0.0071
2950.00,0.0071
2949.00,0.0072
2948.00,0.0072
2947.00,0.0073
2946.00,0.0074
2945.00,0.0075
2944.00,0.0077
2943.00,0.0078
2942.00,0.0080
2941.00,0.0082
2940.00,0.0084
2939.00,0.0086
2938.00,0.0089
2937.00,0.0093
2936.00,0.0096
2935.00,0.0100
2934.00,0.0103
2933.00,0.0106
2932.00,0.0110
2931.00,0.0112
2930.00,0.0115
2929.00,0.0117
2928.00,0.0118
2927.00,0.0118
2926.00,0.0118
2925.00,0.0116
2924.00,0.0114
2923.00,0.0112
2922.00,0.0109
2921.00,0.0106
2920.00,0.0104
2919.00,0.0101
2918.00,0.0099
2917.00,0.0096
2916.00,0.0094
2915.00,0.0092
2914.00,0.0090
2913.00,0.0088
2912.00,0.0087
2911.00,0.0086
2910.00,0.0084
2909.00,0.0083
2908.00,0.0081
2907.00,0.0080
2906.00,0.0078
2905.00,0.0077
2904.00,0.0076
2903.00,0.0075
2902.00,0.0074
2901.00,0.0073
2900.00,0.0072
2899.00,0.0071
2898.00,0.0070
2897.00,0.0070
2896.00,0.0069
2895.00,0.0069
2894.00,0.0069
2893.00,0.0068
2892.00,0.0068
2891.00,0.0067
2890.00,0.0067
2889.00,0.0066
2888.00,0.0066
2887.00,0.0065
2886.00,0.0064
2885.00,0.0064
2884.00,0.0064
2883.00,0.0064
2882.00,0.0065
2881.00,0.0065
2880.00,0.0066
2879.00,0.0067
2878.00,0.0068
2877.00,0.0069
2876.00,0.0070
2875.00,0.0071
2874.00,0.0071
2873.00,0.0071
2872.00,0.0071
2871.00,0.0071
2870.00,0.0071
2869.00,0.0071
2868.00,0.0071
2867.00,0.0071
2866.00,0.0072
2865.00,0.0074
2864.00,0.0075
2863.00,0.0077
2862.00,0.0080
2861.00,0.0083
2860.00,0.0085
2859.00,0.0087
2858.00,0.0088
2857.00,0.0088
2856.00,0.0088
2855.00,0.0087
2854.00,0.0087
2853.00,0.0086
2852.00,0.0085
2851.00,0.0083
2850.00,0.0081
2849.00,0.0078
2848.00,0.0075
2847.00,0.0072
2846.00,0.0069
2845.00,0.0067
2844.00,0.0064
2843.00,0.0062
2842.00,0.0060
2841.00,0.0058
2840.00,0.0056
2839.00,0.0055
2838.00,0.0053
2837.00,0.0052
2836.00,0.0051
2835.00,0.0050
2834.00,0.0050
2833.00,0.0049
2832.00,0.0048
2831.00,0.0047
2830.00,0.0047
2829.00,0.0046
2828.00,0.0045
2827.00,0.0045
2826.00,0.0044
2825.00,0.0043
2824.00,0.0043
2823.00,0.0043
2822.00,0.0042
2821.00,0.0042
2820.00,0.0041
2819.00,0.0041
2818.00,0.0041
2817.00,0.0040
2816.00,0.0040
2815.00,0.0039
2814.00,0.0039
2813.00,0.0039
2812.00,0.0038
2811.00,0.0038
2810.00,0.0038
2809.00,0.0038
2808.00,0.0038
2807.00,0.0038
2806.00,0.0038
2805.00,0.0037
2804.00,0.0037
2803.00,0.0037
2802.00,0.0036
2801.00,0.0036
2800.00,0.0036
2799.00,0.0036
2798.00,0.0035
2797.00,0.0035
2796.00,0.0035
2795.00,0.0035
2794.00,0.0035
2793.00,0.0035
2792.00,0.0035
2791.00,0.0035
2790.00,0.0034
2789.00,0.0034
2788.00,0.0034
2787.00,0.0034
2786.00,0.0034
2785.00,0.0034
2784.00,0.0034
2783.00,0.0034
2782.00,0.0034
2781.00,0.0034
2780.00,0.0034
2779.00,0.0034
2778.00,0.0034
2777.00,0.0033
2776.00,0.0033
2775.00,0.0033
2774.00,0.0033
2773.00,0.0032
2772.00,0.0032
2771.00,0.0032
2770.00,0.0032
2769.00,0.0032
2768.00,0.0032
2767.00,0.0032
2766.00,0.0032
2765.00,0.0032
2764.00,0.0032
2763.00,0.0032
2762.00,0.0032
2761.00,0.0032
2760.00,0.0032
2759.00,0.0032
2758.00,0.0032
2757.00,0.0032
2756.00,0.0032
2755.00,0.0032
2754.00,0.0032
2753.00,0.0032
2752.00,0.0032
2751.00,0.0032
2750.00,0.0032
2749.00,0.0032
2748.00,0.0032
2747.00,0.0032
2746.00,0.0032
2745.00,0.0032
2744.00,0.0032
2743.00,0.0032
2742.00,0.0032
2741.00,0.0032
2740.00,0.0032
2739.00,0.0032
2738.00,0.0032
2737.00,0.0033
2736.00,0.0033
2735.00,0.0033
2734.00,0.0033
2733.00,0.0033
2732.00,0.0033
2731.00,0.0033
2730.00,0.0033
2729.00,0.0033
2728.00,0.0033
2727.00,0.0033
2726.00,0.0033
2725.00,0.0033
2724.00,0.0033
2723.00,0.0033
2722.00,0.0033
2721.00,0.0033
2720.00,0.0033
2719.00,0.0033
2718.00,0.0033
2717.00,0.0033
2716.00,0.0032
2715.00,0.0032
2714.00,0.0032
2713.00,0.0032
2712.00,0.0032
2711.00,0.0032
2710.00,0.0032
2709.00,0.0032
2708.00,0.0032
2707.00,0.0032
2706.00,0.0032
2705.00,0.0031
2704.00,0.0031
2703.00,0.0031
2702.00,0.0031
2701.00,0.0031
2700.00,0.0031
2699.00,0.0031
2698.00,0.0031
2697.00,0.0031
2696.00,0.0031
2695.00,0.0031
2694.00,0.0031
2693.00,0.0031
2692.00,0.0030
2691.00,0.0030
2690.00,0.0030
2689.00,0.0030
2688.00,0.0030
2687.00,0.0030
2686.00,0.0030
2685.00,0.0030
2684.00,0.0030
2683.00,0.0030
2682.00,0.0030
2681.00,0.0030
2680.00,0.0030
2679.00,0.0030
2678.00,0.0029
2677.00,0.0030
2676.00,0.0030
2675.00,0.0030
2674.00,0.0030
2673.00,0.0030
2672.00,0.0030
2671.00,0.0030
2670.00,0.0030
2669.00,0.0030
2668.00,0.0030
2667.00,0.0030
2666.00,0.0031
2665.00,0.0032
2664.00,0.0032
2663.00,0.0033
2662.00,0.0033
2661.00,0.0033
2660.00,0.0034
2659.00,0.0034
2658.00,0.0034
2657.00,0.0034
2656.00,0.0035
2655.00,0.0035
2654.00,0.0035
2653.00,0.0035
2652.00,0.0035
2651.00,0.0035
2650.00,0.0035
2649.00,0.0035
2648.00,0.0035
2647.00,0.0035
2646.00,0.0035
2645.00,0.0035
2644.00,0.0035
2643.00,0.0035
2642.00,0.0035
2641.00,0.0035
2640.00,0.0035
2639.00,0.0035
2638.00,0.0034
2637.00,0.0034
2636.00,0.0034
2635.00,0.0034
2634.00,0.0033
2633.00,0.0033
2632.00,0.0033
2631.00,0.0033
2630.00,0.0033
2629.00,0.0033
2628.00,0.0033
2627.00,0.0033
2626.00,0.0033
2625.00,0.0033
2624.00,0.0032
2623.00,0.0032
2622.00,0.0032
2621.00,0.0032
2620.00,0.0032
2619.00,0.0032
2618.00,0.0032
2617.00,0.0032
2616.00,0.0032
2615.00,0.0032
2614.00,0.0032
2613.00,0.0032
2612.00,0.0032
2611.00,0.0032
2610.00,0.0032
2609.00,0.0031
2608.00,0.0031
2607.00,0.0032
2606.00,0.0032
2605.00,0.0032
2604.00,0.0032
2603.00,0.0031
2602.00,0.0031
2601.00,0.0031
2600.00,0.0031
2599.00,0.0031
2598.00,0.0031
2597.00,0.0031
2596.00,0.0031
2595.00,0.0031
2594.00,0.0031
2593.00,0.0030
2592.00,0.0030
2591.00,0.0030
2590.00,0.0030
2589.00,0.0030
2588.00,0.0030
2587.00,0.0030
2586.00,0.0030
2585.00,0.0030
2584.00,0.0030
2583.00,0.0030
2582.00,0.0030
2581.00,0.0030
2580.00,0.0030
2579.00,0.0029
2578.00,0.0029
2577.00,0.0029
2576.00,0.0030
2575.00,0.0030
2574.00,0.0030
2573.00,0.0029
2572.00,0.0029
2571.00,0.0029
2570.00,0.0029
2569.00,0.0029
2568.00,0.0029
2567.00,0.0029
2566.00,0.0029
2565.00,0.0029
2564.00,0.0029
2563.00,0.0029
2562.00,0.0029
2561.00,0.0029
2560.00,0.0028
2559.00,0.0028
2558.00,0.0028
2557.00,0.0028
2556.00,0.0027
2555.00,0.0027
2554.00,0.0027
2553.00,0.0027
2552.00,0.0027
2551.00,0.0027
2550.00,0.0027
2549.00,0.0027
2548.00,0.0027
2547.00,0.0027
2546.00,0.0027
2545.00,0.0027
2544.00,0.0026
2543.00,0.0026
2542.00,0.0026
2541.00,0.0026
2540.00,0.0027
2539.00,0.0027
2538.00,0.0027
2537.00,0.0027
2536.00,0.0027
2535.00,0.0027
2534.00,0.0026
2533.00,0.0026
2532.00,0.0026
2531.00,0.0026
2530.00,0.0026
2529.00,0.0026
2528.00,0.0026
2527.00,0.0026
2526.00,0.0026
2525.00,0.0026
2524.00,0.0026
2523.00,0.0026
2522.00,0.0026
2521.00,0.0026
2520.00,0.0026
2519.00,0.0026
2518.00,0.0026
2517.00,0.0025
2516.00,0.0025
2515.00,0.0025
2514.00,0.0024
2513.00,0.0024
2512.00,0.0025
2511.00,0.0025
2510.00,0.0025
2509.00,0.0025
2508.00,0.0024
2507.00,0.0024
2506.00,0.0024
2505.00,0.0024
2504.00,0.0024
2503.00,0.0024
2502.00,0.0023
2501.00,0.0023
2500.00,0.0023
2499.00,0.0023
2498.00,0.0023
2497.00,0.0024
2496.00,0.0024
2495.00,0.0024
2494.00,0.0023
2493.00,0.0023
2492.00,0.0023
2491.00,0.0024
2490.00,0.0024
2489.00,0.0024
2488.00,0.0024
2487.00,0.0024
2486.00,0.0024
2485.00,0.0024
2484.00,0.0024
2483.00,0.0024
2482.00,0.0024
2481.00,0.0024
2480.00,0.0024
2479.00,0.0024
2478.00,0.0024
2477.00,0.0024
2476.00,0.0024
2475.00,0.0024
2474.00,0.0024
2473.00,0.0024
2472.00,0.0024
2471.00,0.0024
2470.00,0.0024
2469.00,0.0024
2468.00,0.0024
2467.00,0.0024
2466.00,0.0024
2465.00,0.0024
2464.00,0.0024
2463.00,0.0024
2462.00,0.0024
2461.00,0.0024
2460.00,0.0024
2459.00,0.0024
2458.00,0.0025
2457.00,0.0025
2456.00,0.0025
2455.00,0.0025
2454.00,0.0025
2453.00,0.0025
2452.00,0.0025
2451.00,0.0024
2450.00,0.0024
2449.00,0.0024
2448.00,0.0024
2447.00,0.0024
2446.00,0.0024
2445.00,0.0023
2444.00,0.0024
2443.00,0.0024
2442.00,0.0024
2441.00,0.0024
2440.00,0.0024
2439.00,0.0023
2438.00,0.0023
2437.00,0.0023
2436.00,0.0023
2435.00,0.0023
2434.00,0.0023
2433.00,0.0023
2432.00,0.0023
2431.00,0.0022
2430.00,0.0022
2429.00,0.0022
2428.00,0.0022
2427.00,0.0022
2426.00,0.0022
2425.00,0.0022
2424.00,0.0022
2423.00,0.0022
2422.00,0.0022
2421.00,0.0022
2420.00,0.0021
2419.00,0.0021
2418.00,0.0021
2417.00,0.0022
2416.00,0.0022
2415.00,0.0022
2414.00,0.0022
2413.00,0.0022
2412.00,0.0022
2411.00,0.0021
2410.00,0.0021
2409.00,0.0020
2408.00,0.0020
2407.00,0.0019
2406.00,0.0019
2405.00,0.0019
2404.00,0.0020
2403.00,0.0020
2402.00,0.0020
2401.00,0.0020
2400.00,0.0019
2399.00,0.0019
2398.00,0.0019
2397.00,0.0019
2396.00,0.0019
2395.00,0.0019
2394.00,0.0019
2393.00,0.0019
2392.00,0.0019
2391.00,0.0019
2390.00,0.0019
2389.00,0.0018
2388.00,0.0018
2387.00,0.0018
2386.00,0.0017
2385.00,0.0017
2384.00,0.0016
2383.00,0.0015
2382.00,0.0015
2381.00,0.0015
2380.00,0.0015
2379.00,0.0015
2378.00,0.0015
2377.00,0.0015
2376.00,0.0015
2375.00,0.0015
2374.00,0.0015
2373.00,0.0015
2372.00,0.0015
2371.00,0.0015
2370.00,0.0014
2369.00,0.0014
2368.00,0.0014
2367.00,0.0014
2366.00,0.0014
2365.00,0.0014
2364.00,0.0015
2363.00,0.0015
2362.00,0.0015
2361.00,0.0015
2360.00,0.0015
2359.00,0.0016
2358.00,0.0016
2357.00,0.0017
2356.00,0.0018
2355.00,0.0017
2354.00,0.0017
2353.00,0.0016
2352.00,0.0016
2351.00,0.0016
2350.00,0.0017
2349.00,0.0017
2348.00,0.0018
2347.00,0.0018
2346.00,0.0018
2345.00,0.0018
2344.00,0.0018
2343.00,0.0019
2342.00,0.0020
2341.00,0.0021
2340.00,0.0021
2339.00,0.0021
2338.00,0.0020
2337.00,0.0020
2336.00,0.0020
2335.00,0.0021
2334.00,0.0021
2333.00,0.0021
2332.00,0.0021
2331.00,0.0021
2330.00,0.0021
2329.00,0.0022
2328.00,0.0025
2327.00,0.0029
2326.00,0.0033
2325.00,0.0034
2324.00,0.0033
2323.00,0.0031
2322.00,0.0028
2321.00,0.0027
2320.00,0.0026
2319.00,0.0026
2318.00,0.0025
2317.00,0.0025
2316.00,0.0024
2315.00,0.0023
2314.00,0.0023
2313.00,0.0022
2312.00,0.0021
2311.00,0.0021
2310.00,0.0021
2309.00,0.0021
2308.00,0.0021
2307.00,0.0022
2306.00,0.0022
2305.00,0.0022
2304.00,0.0023
2303.00,0.0023
2302.00,0.0023
2301.00,0.0023
2300.00,0.0024
2299.00,0.0024
2298.00,0.0025
2297.00,0.0026
2296.00,0.0027
2295.00,0.0028
2294.00,0.0029
2293.00,0.0030
2292.00,0.0031
2291.00,0.0032
2290.00,0.0033
2289.00,0.0033
2288.00,0.0033
2287.00,0.0033
2286.00,0.0033
2285.00,0.0033
2284.00,0.0032
2283.00,0.0031
2282.00,0.0030
2281.00,0.0030
2280.00,0.0029
2279.00,0.0029
2278.00,0.0029
2277.00,0.0029
2276.00,0.0028
2275.00,0.0028
2274.00,0.0028
2273.00,0.0028
2272.00,0.0028
2271.00,0.0028
2270.00,0.0027
2269.00,0.0026
2268.00,0.0026
2267.00,0.0025
2266.00,0.0024
2265.00,0.0024
2264.00,0.0024
2263.00,0.0024
2262.00,0.0025
2261.00,0.0025
2260.00,0.0026
2259.00,0.0026
2258.00,0.0025
2257.00,0.0024
2256.00,0.0024
2255.00,0.0023
2254.00,0.0023
2253.00,0.0023
2252.00,0.0024
2251.00,0.0025
2250.00,0.0026
2249.00,0.0026
2248.00,0.0026
2247.00,0.0025
2246.00,0.0025
2245.00,0.0025
2244.00,0.0025
2243.00,0.0026
2242.00,0.0026
2241.00,0.0026
2240.00,0.0025
2239.00,0.0025
2238.00,0.0025
2237.00,0.0025
2236.00,0.0025
2235.00,0.0025
2234.00,0.0024
2233.00,0.0024
2232.00,0.0024
2231.00,0.0024
2230.00,0.0025
2229.00,0.0026
2228.00,0.0026
2227.00,0.0026
2226.00,0.0025
2225.00,0.0025
2224.00,0.0024
2223.00,0.0024
2222.00,0.0024
2221.00,0.0024
2220.00,0.0024
2219.00,0.0024
2218.00,0.0023
2217.00,0.0023
2216.00,0.0023
2215.00,0.0023
2214.00,0.0023
2213.00,0.0022
2212.00,0.0022
2211.00,0.0022
2210.00,0.0023
2209.00,0.0024
2208.00,0.0024
2207.00,0.0024
2206.00,0.0023
2205.00,0.0023
2204.00,0.0024
2203.00,0.0024
2202.00,0.0023
2201.00,0.0022
2200.00,0.0022
2199.00,0.0022
2198.00,0.0022
2197.00,0.0023
2196.00,0.0024
2195.00,0.0026
2194.00,0.0027
2193.00,0.0028
2192.00,0.0028
2191.00,0.0028
2190.00,0.0027
2189.00,0.0028
2188.00,0.0029
2187.00,0.0030
2186.00,0.0030
2185.00,0.0028
2184.00,0.0025
2183.00,0.0022
2182.00,0.0020
2181.00,0.0021
2180.00,0.0022
2179.00,0.0023
2178.00,0.0022
2177.00,0.0021
2176.00,0.0020
2175.00,0.0021
2174.00,0.0023
2173.00,0.0025
2172.00,0.0026
2171.00,0.0027
2170.00,0.0029
2169.00,0.0031
2168.00,0.0032
2167.00,0.0033
2166.00,0.0034
2165.00,0.0035
2164.00,0.0038
2163.00,0.0039
2162.00,0.0035
2161.00,0.0024
2160.00,0.0009
2159.00,-0.0003
2158.00,-0.0010
2157.00,-0.0009
2156.00,-0.0006
2155.00,-0.0003
2154.00,-0.0000
2153.00,0.0002
2152.00,0.0004
2151.00,0.0005
2150.00,0.0006
2149.00,0.0006
2148.00,0.0006
2147.00,0.0006
2146.00,0.0007
2145.00,0.0007
2144.00,0.0008
2143.00,0.0009
2142.00,0.0009
2141.00,0.0009
2140.00,0.0009
2139.00,0.0008
2138.00,0.0006
2137.00,0.0004
2136.00,0.0001
2135.00,-0.0001
2134.00,-0.0002
2133.00,-0.0001
2132.00,0.0001
2131.00,0.0004
2130.00,0.0006
2129.00,0.0008
2128.00,0.0010
2127.00,0.0011
2126.00,0.0012
2125.00,0.0013
2124.00,0.0013
2123.00,0.0013
2122.00,0.0013
2121.00,0.0014
2120.00,0.0015
2119.00,0.0015
2118.00,0.0017
2117.00,0.0018
2116.00,0.0020
2115.00,0.0021
2114.00,0.0021
2113.00,0.0021
2112.00,0.0021
2111.00,0.0021
2110.00,0.0021
2109.00,0.0020
2108.00,0.0020
2107.00,0.0020
2106.00,0.0019
2105.00,0.0019
2104.00,0.0019
2103.00,0.0020
2102.00,0.0021
2101.00,0.0021
2100.00,0.0021
2099.00,0.0020
2098.00,0.0019
2097.00,0.0017
2096.00,0.0016
2095.00,0.0015
2094.00,0.0015
2093.00,0.0015
2092.00,0.0016
2091.00,0.0018
2090.00,0.0019
2089.00,0.0021
2088.00,0.0022
2087.00,0.0022
2086.00,0.0022
2085.00,0.0022
2084.00,0.0023
2083.00,0.0024
2082.00,0.0024
2081.00,0.0024
2080.00,0.0024
2079.00,0.0025
2078.00,0.0025
2077.00,0.0025
2076.00,0.0025
2075.00,0.0025
2074.00,0.0024
2073.00,0.0024
2072.00,0.0023
2071.00,0.0023
2070.00,0.0022
2069.00,0.0022
2068.00,0.0021
2067.00,0.0021
2066.00,0.0022
2065.00,0.0022
2064.00,0.0021
2063.00,0.0021
2062.00,0.0020
2061.00,0.0019
2060.00,0.0018
2059.00,0.0018
2058.00,0.0018
2057.00,0.0019
2056.00,0.0020
2055.00,0.0022
2054.00,0.0026
2053.00,0.0030
2052.00,0.0033
2051.00,0.0033
2050.00,0.0030
2049.00,0.0026
2048.00,0.0023
2047.00,0.0023
2046.00,0.0023
2045.00,0.0024
2044.00,0.0024
2043.00,0.0024
2042.00,0.0025
2041.00,0.0026
2040.00,0.0027
2039.00,0.0028
2038.00,0.0028
2037.00,0.0026
2036.00,0.0023
2035.00,0.0020
2034.00,0.0018
2033.00,0.0016
2032.00,0.0015
2031.00,0.0015
2030.00,0.0015
2029.00,0.0015
2028.00,0.0014
2027.00,0.0013
2026.00,0.0013
2025.00,0.0013
2024.00,0.0014
2023.00,0.0015
2022.00,0.0016
2021.00,0.0017
2020.00,0.0018
2019.00,0.0019
2018.00,0.0018
2017.00,0.0016
2016.00,0.0015
2015.00,0.0013
2014.00,0.0013
2013.00,0.0013
2012.00,0.0014
2011.00,0.0015
2010.00,0.0015
2009.00,0.0015
2008.00,0.0013
2007.00,0.0011
2006.00,0.0009
2005.00,0.0009
2004.00,0.0010
2003.00,0.0011
2002.00,0.0012
2001.00,0.0013
2000.00,0.0012
1999.00,0.0013
1998.00,0.0013
1997.00,0.0014
1996.00,0.0016
1995.00,0.0017
1994.00,0.0020
1993.00,0.0022
1992.00,0.0023
1991.00,0.0023
1990.00,0.0021
1989.00,0.0020
1988.00,0.0020
1987.00,0.0021
1986.00,0.0023
1985.00,0.0025
1984.00,0.0028
1983.00,0.0032
1982.00,0.0036
1981.00,0.0038
1980.00,0.0036
1979.00,0.0030
1978.00,0.0023
1977.00,0.0017
1976.00,0.0015
1975.00,0.0015
1974.00,0.0015
1973.00,0.0015
1972.00,0.0014
1971.00,0.0014
1970.00,0.0013
1969.00,0.0013
1968.00,0.0013
1967.00,0.0012
1966.00,0.0011
1965.00,0.0011
1964.00,0.0010
1963.00,0.0010
1962.00,0.0009
1961.00,0.0007
1960.00,0.0007
1959.00,0.0007
1958.00,0.0008
1957.00,0.0010
1956.00,0.0011
1955.00,0.0012
1954.00,0.0012
1953.00,0.0012
1952.00,0.0013
1951.00,0.0014
1950.00,0.0014
1949.00,0.0014
1948.00,0.0014
1947.00,0.0013
1946.00,0.0013
1945.00,0.0012
1944.00,0.0013
1943.00,0.0014
1942.00,0.0014
1941.00,0.0015
1940.00,0.0015
1939.00,0.0014
1938.00,0.0013
1937.00,0.0013
1936.00,0.0013
1935.00,0.0014
1934.00,0.0014
1933.00,0.0013
1932.00,0.0012
1931.00,0.0012
1930.00,0.0012
1929.00,0.0012
1928.00,0.0013
1927.00,0.0013
1926.00,0.0013
1925.00,0.0014
1924.00,0.0014
1923.00,0.0015
1922.00,0.0016
1921.00,0.0017
1920.00,0.0017
1919.00,0.0017
1918.00,0.0017
1917.00,0.0016
1916.00,0.0015
1915.00,0.0015
1914.00,0.0015
1913.00,0.0015
1912.00,0.0016
1911.00,0.0016
1910.00,0.0017
1909.00,0.0018
1908.00,0.0018
1907.00,0.0019
1906.00,0.0019
1905.00,0.0019
1904.00,0.0019
1903.00,0.0018
1902.00,0.0018
1901.00,0.0018
1900.00,0.0018
1899.00,0.0017
1898.00,0.0018
1897.00,0.0018
1896.00,0.0018
1895.00,0.0018
1894.00,0.0018
1893.00,0.0018
1892.00,0.0018
1891.00,0.0018
1890.00,0.0019
1889.00,0.0019
1888.00,0.0019
1887.00,0.0019
1886.00,0.0018
1885.00,0.0018
1884.00,0.0018
1883.00,0.0019
1882.00,0.0019
1881.00,0.0019
1880.00,0.0019
1879.00,0.0019
1878.00,0.0019
1877.00,0.0018
1876.00,0.0018
1875.00,0.0018
1874.00,0.0018
1873.00,0.0018
1872.00,0.0018
1871.00,0.0018
1870.00,0.0018
1869.00,0.0018
1868.00,0.0019
1867.00,0.0019
1866.00,0.0019
1865.00,0.0019
1864.00,0.0019
1863.00,0.0018
1862.00,0.0018
1861.00,0.0018
1860.00,0.0018
1859.00,0.0018
1858.00,0.0018
1857.00,0.0018
1856.00,0.0019
1855.00,0.0019
1854.00,0.0019
1853.00,0.0019
1852.00,0.0019
1851.00,0.0019
1850.00,0.0019
1849.00,0.0019
1848.00,0.0020
1847.00,0.0020
1846.00,0.0020
1845.00,0.0020
1844.00,0.0019
1843.00,0.0019
1842.00,0.0019
1841.00,0.0019
1840.00,0.0020
1839.00,0.0020
1838.00,0.0020
1837.00,0.0020
1836.00,0.0020
1835.00,0.0020
1834.00,0.0020
1833.00,0.0019
1832.00,0.0019
1831.00,0.0019
1830.00,0.0019
1829.00,0.0019
1828.00,0.0019
1827.00,0.0018
1826.00,0.0018
1825.00,0.0018
1824.00,0.0018
1823.00,0.0019
1822.00,0.0019
1821.00,0.0019
1820.00,0.0019
1819.00,0.0018
1818.00,0.0018
1817.00,0.0017
1816.00,0.0017
1815.00,0.0018
1814.00,0.0018
1813.00,0.0018
1812.00,0.0019
1811.00,0.0019
1810.00,0.0019
1809.00,0.0019
1808.00,0.0019
1807.00,0.0019
1806.00,0.0019
1805.00,0.0019
1804.00,0.0020
1803.00,0.0020
1802.00,0.0020
1801.00,0.0020
1800.00,0.0020
1799.00,0.0021
1798.00,0.0021
1797.00,0.0021
1796.00,0.0021
1795.00,0.0021
1794.00,0.0021
1793.00,0.0021
1792.00,0.0021
1791.00,0.0021
1790.00,0.0020
1789.00,0.0021
1788.00,0.0021
1787.00,0.0021
1786.00,0.0021
1785.00,0.0021
1784.00,0.0021
1783.00,0.0022
1782.00,0.0022
1781.00,0.0022
1780.00,0.0022
1779.00,0.0021
1778.00,0.0021
1777.00,0.0021
1776.00,0.0022
1775.00,0.0022
1774.00,0.0022
1773.00,0.0022
1772.00,0.0022
1771.00,0.0022
1770.00,0.0022
1769.00,0.0022
1768.00,0.0022
1767.00,0.0021
1766.00,0.0021
1765.00,0.0022
1764.00,0.0022
1763.00,0.0022
1762.00,0.0022
1761.00,0.0022
1760.00,0.0022
1759.00,0.0022
1758.00,0.0023
1757.00,0.0023
1756.00,0.0022
1755.00,0.0022
1754.00,0.0022
1753.00,0.0022
1752.00,0.0023
1751.00,0.0023
1750.00,0.0022
1749.00,0.0022
1748.00,0.0022
1747.00,0.0023
1746.00,0.0023
1745.00,0.0023
1744.00,0.0023
1743.00,0.0023
1742.00,0.0023
1741.00,0.0023
1740.00,0.0024
1739.00,0.0024
1738.00,0.0024
1737.00,0.0025
1736.00,0.0025
1735.00,0.0025
1734.00,0.0024
1733.00,0.0024
1732.00,0.0024
1731.00,0.0025
1730.00,0.0025
1729.00,0.0025
1728.00,0.0026
1727.00,0.0026
1726.00,0.0027
1725.00,0.0027
1724.00,0.0027
1723.00,0.0027
1722.00,0.0028
1721.00,0.0028
1720.00,0.0029
1719.00,0.0029
1718.00,0.0030
1717.00,0.0030
1716.00,0.0030
1715.00,0.0031
1714.00,0.0031
1713.00,0.0031
1712.00,0.0032
1711.00,0.0033
1710.00,0.0034
1709.00,0.0034
1708.00,0.0035
1707.00,0.0037
1706.00,0.0038
1705.00,0.0040
1704.00,0.0041
1703.00,0.0043
1702.00,0.0044
1701.00,0.0047
1700.00,0.0051
1699.00,0.0055
1698.00,0.0058
1697.00,0.0062
1696.00,0.0068
1695.00,0.0074
1694.00,0.0079
1693.00,0.0084
1692.00,0.0089
1691.00,0.0094
1690.00,0.0100
1689.00,0.0106
1688.00,0.0112
1687.00,0.0116
1686.00,0.0120
1685.00,0.0128
1684.00,0.0138
1683.00,0.0146
1682.00,0.0150
1681.00,0.0152
1680.00,0.0155
1679.00,0.0157
1678.00,0.0159
1677.00,0.0161
1676.00,0.0164
1675.00,0.0168
1674.00,0.0171
1673.00,0.0172
1672.00,0.0173
1671.00,0.0175
1670.00,0.0179
1669.00,0.0184
1668.00,0.0188
1667.00,0.0191
1666.00,0.0192
1665.00,0.0194
1664.00,0.0197
1663.00,0.0202
1662.00,0.0207
1661.00,0.0211
1660.00,0.0213
1659.00,0.0215
1658.00,0.0216
1657.00,0.0216
1656.00,0.0215
1655.00,0.0214
1654.00,0.0216
1653.00,0.0223
1652.00,0.0226
1651.00,0.0223
1650.00,0.0218
1649.00,0.0213
1648.00,0.0209
1647.00,0.0206
1646.00,0.0202
1645.00,0.0198
1644.00,0.0193
1643.00,0.0187
1642.00,0.0181
1641.00,0.0175
1640.00,0.0170
1639.00,0.0164
1638.00,0.0159
1637.00,0.0154
1636.00,0.0148
1635.00,0.0144
1634.00,0.0141
1633.00,0.0140
1632.00,0.0141
1631.00,0.0143
1630.00,0.0147
1629.00,0.0154
1628.00,0.0161
1627.00,0.0169
1626.00,0.0175
1625.00,0.0181
1624.00,0.0186
1623.00,0.0191
1622.00,0.0194
1621.00,0.0194
1620.00,0.0193
1619.00,0.0189
1618.00,0.0184
1617.00,0.0176
1616.00,0.0169
1615.00,0.0165
1614.00,0.0162
1613.00,0.0161
1612.00,0.0161
1611.00,0.0160
1610.00,0.0158
1609.00,0.0154
1608.00,0.0148
1607.00,0.0141
1606.00,0.0133
1605.00,0.0125
1604.00,0.0117
1603.00,0.0110
1602.00,0.0103
1601.00,0.0098
1600.00,0.0093
1599.00,0.0089
1598.00,0.0087
1597.00,0.0085
1596.00,0.0085
1595.00,0.0086
1594.00,0.0088
1593.00,0.0093
1592.00,0.0098
1591.00,0.0105
1590.00,0.0113
1589.00,0.0121
1588.00,0.0127
1587.00,0.0132
1586.00,0.0135
1585.00,0.0136
1584.00,0.0136
1583.00,0.0134
1582.00,0.0132
1581.00,0.0128
1580.00,0.0125
1579.00,0.0121
1578.00,0.0117
1577.00,0.0112
1576.00,0.0107
1575.00,0.0103
1574.00,0.0100
1573.00,0.0097
1572.00,0.0095
1571.00,0.0093
1570.00,0.0091
1569.00,0.0089
1568.00,0.0086
1567.00,0.0084
1566.00,0.0081
1565.00,0.0078
1564.00,0.0075
1563.00,0.0072
1562.00,0.0070
1561.00,0.0068
1560.00,0.0064
1559.00,0.0061
1558.00,0.0058
1557.00,0.0056
1556.00,0.0056
1555.00,0.0055
1554.00,0.0054
1553.00,0.0054
1552.00,0.0053
1551.00,0.0052
1550.00,0.0052
1549.00,0.0051
1548.00,0.0051
1547.00,0.0050
1546.00,0.0050
1545.00,0.0049
1544.00,0.0048
1543.00,0.0048
1542.00,0.0048
1541.00,0.0048
1540.00,0.0047
1539.00,0.0046
1538.00,0.0046
1537.00,0.0045
1536.00,0.0045
1535.00,0.0045
1534.00,0.0044
1533.00,0.0044
1532.00,0.0044
1531.00,0.0044
1530.00,0.0044
1529.00,0.0044
1528.00,0.0045
1527.00,0.0045
1526.00,0.0045
1525.00,0.0045
1524.00,0.0046
1523.00,0.0046
1522.00,0.0047
1521.00,0.0048
1520.00,0.0049
1519.00,0.0050
1518.00,0.0051
1517.00,0.0053
1516.00,0.0054
1515.00,0.0055
1514.00,0.0056
1513.00,0.0057
1512.00,0.0057
1511.00,0.0057
1510.00,0.0058
1509.00,0.0058
1508.00,0.0058
1507.00,0.0059
1506.00,0.0061
1505.00,0.0063
1504.00,0.0065
1503.00,0.0068
1502.00,0.0072
1501.00,0.0077
1500.00,0.0084
1499.00,0.0092
1498.00,0.0101
1497.00,0.0108
1496.00,0.0111
1495.00,0.0111
1494.00,0.0108
1493.00,0.0104
1492.00,0.0100
1491.00,0.0094
1490.00,0.0089
1489.00,0.0083
1488.00,0.0078
1487.00,0.0074
1486.00,0.0070
1485.00,0.0067
1484.00,0.0064
1483.00,0.0061
1482.00,0.0059
1481.00,0.0058
1480.00,0.0057
1479.00,0.0057
1478.00,0.0057
1477.00,0.0058
1476.00,0.0059
1475.00,0.0061
1474.00,0.0064
1473.00,0.0070
1472.00,0.0077
1471.00,0.0085
1470.00,0.0094
1469.00,0.0102
1468.00,0.0112
1467.00,0.0121
1466.00,0.0129
1465.00,0.0136
1464.00,0.0141
1463.00,0.0143
1462.00,0.0143
1461.00,0.0144
1460.00,0.0144
1459.00,0.0143
1458.00,0.0141
1457.00,0.0138
1456.00,0.0134
1455.00,0.0130
1454.00,0.0126
1453.00,0.0124
1452.00,0.0123
1451.00,0.0122
1450.00,0.0124
1449.00,0.0126
1448.00,0.0129
1447.00,0.0133
1446.00,0.0137
1445.00,0.0142
1444.00,0.0147
1443.00,0.0153
1442.00,0.0159
1441.00,0.0165
1440.00,0.0169
1439.00,0.0172
1438.00,0.0176
1437.00,0.0180
1436.00,0.0186
1435.00,0.0190
1434.00,0.0193
1433.00,0.0195
1432.00,0.0197
1431.00,0.0199
1430.00,0.0200
1429.00,0.0202
1428.00,0.0203
1427.00,0.0204
1426.00,0.0205
1425.00,0.0205
1424.00,0.0206
1423.00,0.0205
1422.00,0.0203
1421.00,0.0200
1420.00,0.0194
1419.00,0.0187
1418.00,0.0180
1417.00,0.0172
1416.00,0.0164
1415.00,0.0157
1414.00,0.0151
1413.00,0.0145
1412.00,0.0142
1411.00,0.0140
1410.00,0.0139
1409.00,0.0140
1408.00,0.0143
1407.00,0.0146
1406.00,0.0151
1405.00,0.0157
1404.00,0.0162
1403.00,0.0166
1402.00,0.0169
1401.00,0.0170
1400.00,0.0169
1399.00,0.0166
1398.00,0.0161
1397.00,0.0156
1396.00,0.0149
1395.00,0.0141
1394.00,0.0134
1393.00,0.0128
1392.00,0.0123
1391.00,0.0120
1390.00,0.0118
1389.00,0.0119
1388.00,0.0121
1387.00,0.0124
1386.00,0.0125
1385.00,0.0124
1384.00,0.0122
1383.00,0.0121
1382.00,0.0122
1381.00,0.0123
1380.00,0.0125
1379.00,0.0126
1378.00,0.0128
1377.00,0.0129
1376.00,0.0129
1375.00,0.0127
1374.00,0.0123
1373.00,0.0119
1372.00,0.0116
1371.00,0.0114
1370.00,0.0114
1369.00,0.0116
1368.00,0.0120
1367.00,0.0124
1366.00,0.0128
1365.00,0.0131
1364.00,0.0133
1363.00,0.0135
1362.00,0.0140
1361.00,0.0145
1360.00,0.0148
1359.00,0.0147
1358.00,0.0142
1357.00,0.0135
1356.00,0.0128
1355.00,0.0121
1354.00,0.0117
1353.00,0.0114
1352.00,0.0112
1351.00,0.0111
1350.00,0.0111
1349.00,0.0112
1348.00,0.0112
1347.00,0.0111
1346.00,0.0110
1345.00,0.0108
1344.00,0.0106
1343.00,0.0104
1342.00,0.0101
1341.00,0.0099
1340.00,0.0097
1339.00,0.0095
1338.00,0.0093
1337.00,0.0093
1336.00,0.0093
1335.00,0.0094
1334.00,0.0096
1333.00,0.0097
1332.00,0.0098
1331.00,0.0099
1330.00,0.0099
1329.00,0.0100
1328.00,0.0100
1327.00,0.0100
1326.00,0.0100
1325.00,0.0101
1324.00,0.0102
1323.00,0.0103
1322.00,0.0104
1321.00,0.0106
1320.00,0.0107
1319.00,0.0107
1318.00,0.0107
1317.00,0.0107
1316.00,0.0105
1315.00,0.0104
1314.00,0.0103
1313.00,0.0102
1312.00,0.0102
1311.00,0.0103
1310.00,0.0105
1309.00,0.0107
1308.00,0.0110
1307.00,0.0114
1306.00,0.0120
1305.00,0.0126
1304.00,0.0133
1303.00,0.0141
1302.00,0.0147
1301.00,0.0152
1300.00,0.0156
1299.00,0.0159
1298.00,0.0163
1297.00,0.0168
1296.00,0.0175
1295.00,0.0182
1294.00,0.0189
1293.00,0.0195
1292.00,0.0201
1291.00,0.0206
1290.00,0.0211
1289.00,0.0216
1288.00,0.0221
1287.00,0.0226
1286.00,0.0230
1285.00,0.0232
1284.00,0.0232
1283.00,0.0230
1282.00,0.0225
1281.00,0.0219
1280.00,0.0212
1279.00,0.0205
1278.00,0.0200
1277.00,0.0195
1276.00,0.0192
1275.00,0.0189
1274.00,0.0187
1273.00,0.0184
1272.00,0.0181
1271.00,0.0177
1270.00,0.0173
1269.00,0.0168
1268.00,0.0163
1267.00,0.0158
1266.00,0.0153
1265.00,0.0147
1264.00,0.0141
1263.00,0.0135
1262.00,0.0130
1261.00,0.0125
1260.00,0.0120
1259.00,0.0116
1258.00,0.0112
1257.00,0.0109
1256.00,0.0106
1255.00,0.0103
1254.00,0.0101
1253.00,0.0100
1252.00,0.0100
1251.00,0.0101
1250.00,0.0103
1249.00,0.0106
1248.00,0.0110
1247.00,0.0114
1246.00,0.0118
1245.00,0.0123
1244.00,0.0126
1243.00,0.0129
1242.00,0.0132
1241.00,0.0134
1240.00,0.0137
1239.00,0.0141
1238.00,0.0146
1237.00,0.0151
1236.00,0.0155
1235.00,0.0157
1234.00,0.0158
1233.00,0.0158
1232.00,0.0155
1231.00,0.0151
1230.00,0.0148
1229.00,0.0144
1228.00,0.0141
1227.00,0.0138
1226.00,0.0136
1225.00,0.0134
1224.00,0.0132
1223.00,0.0131
1222.00,0.0131
1221.00,0.0131
1220.00,0.0132
1219.00,0.0133
1218.00,0.0135
1217.00,0.0136
1216.00,0.0138
1215.00,0.0138
1214.00,0.0137
1213.00,0.0135
1212.00,0.0131
1211.00,0.0126
1210.00,0.0121
1209.00,0.0116
1208.00,0.0112
1207.00,0.0109
1206.00,0.0108
1205.00,0.0108
1204.00,0.0110
1203.00,0.0113
1202.00,0.0117
1201.00,0.0122
1200.00,0.0127
1199.00,0.0133
1198.00,0.0141
1197.00,0.0148
1196.00,0.0153
1195.00,0.0156
1194.00,0.0156
1193.00,0.0153
1192.00,0.0148
1191.00,0.0141
1190.00,0.0135
1189.00,0.0128
1188.00,0.0121
1187.00,0.0114
1186.00,0.0109
1185.00,0.0104
1184.00,0.0100
1183.00,0.0097
1182.00,0.0095
1181.00,0.0093
1180.00,0.0091
1179.00,0.0090
1178.00,0.0089
1177.00,0.0089
1176.00,0.0088
1175.00,0.0088
1174.00,0.0088
1173.00,0.0089
1172.00,0.0089
1171.00,0.0089
1170.00,0.0090
1169.00,0.0090
1168.00,0.0091
1167.00,0.0092
1166.00,0.0093
1165.00,0.0094
1164.00,0.0096
1163.00,0.0099
1162.00,0.0102
1161.00,0.0107
1160.00,0.0112
1159.00,0.0119
1158.00,0.0128
1157.00,0.0137
1156.00,0.0145
1155.00,0.0151
1154.00,0.0152
1153.00,0.0148
1152.00,0.0139
1151.00,0.0128
1150.00,0.0117
1149.00,0.0107
1148.00,0.0099
1147.00,0.0093
1146.00,0.0089
1145.00,0.0086
1144.00,0.0084
1143.00,0.0082
1142.00,0.0081
1141.00,0.0081
1140.00,0.0082
1139.00,0.0083
1138.00,0.0086
1137.00,0.0090
1136.00,0.0096
1135.00,0.0104
1134.00,0.0115
1133.00,0.0128
1132.00,0.0143
1131.00,0.0156
1130.00,0.0167
1129.00,0.0173
1128.00,0.0174
1127.00,0.0170
1126.00,0.0165
1125.00,0.0156
1124.00,0.0146
1123.00,0.0136
1122.00,0.0127
1121.00,0.0119
1120.00,0.0113
1119.00,0.0109
1118.00,0.0106
1117.00,0.0105
1116.00,0.0105
1115.00,0.0105
1114.00,0.0104
1113.00,0.0103
1112.00,0.0102
1111.00,0.0099
1110.00,0.0098
1109.00,0.0096
1108.00,0.0096
1107.00,0.0096
1106.00,0.0099
1105.00,0.0103
1104.00,0.0108
1103.00,0.0115
1102.00,0.0123
1101.00,0.0129
1100.00,0.0133
1099.00,0.0133
1098.00,0.0130
1097.00,0.0124
1096.00,0.0116
1095.00,0.0107
1094.00,0.0100
1093.00,0.0094
1092.00,0.0089
1091.00,0.0085
1090.00,0.0082
1089.00,0.0080
1088.00,0.0077
1087.00,0.0075
1086.00,0.0074
1085.00,0.0073
1084.00,0.0072
1083.00,0.0071
1082.00,0.0071
1081.00,0.0071
1080.00,0.0071
1079.00,0.0071
1078.00,0.0071
1077.00,0.0072
1076.00,0.0072
1075.00,0.0073
1074.00,0.0074
1073.00,0.0075
1072.00,0.0077
1071.00,0.0078
1070.00,0.0081
1069.00,0.0084
1068.00,0.0086
1067.00,0.0090
1066.00,0.0094
1065.00,0.0098
1064.00,0.0103
1063.00,0.0109
1062.00,0.0116
1061.00,0.0125
1060.00,0.0135
1059.00,0.0147
1058.00,0.0161
1057.00,0.0175
1056.00,0.0188
1055.00,0.0198
1054.00,0.0206
1053.00,0.0211
1052.00,0.0213
1051.00,0.0213
1050.00,0.0212
1049.00,0.0208
1048.00,0.0201
1047.00,0.0192
1046.00,0.0181
1045.00,0.0170
1044.00,0.0159
1043.00,0.0149
1042.00,0.0142
1041.00,0.0135
1040.00,0.0131
1039.00,0.0128
1038.00,0.0128
1037.00,0.0129
1036.00,0.0129
1035.00,0.0129
1034.00,0.0130
1033.00,0.0131
1032.00,0.0135
1031.00,0.0142
1030.00,0.0154
1029.00,0.0168
1028.00,0.0180
1027.00,0.0189
1026.00,0.0193
1025.00,0.0189
1024.00,0.0180
1023.00,0.0169
1022.00,0.0158
1021.00,0.0148
1020.00,0.0140
1019.00,0.0132
1018.00,0.0126
1017.00,0.0121
1016.00,0.0115
1015.00,0.0111
1014.00,0.0107
1013.00,0.0104
1012.00,0.0102
1011.00,0.0102
1010.00,0.0104
1009.00,0.0107
1008.00,0.0111
1007.00,0.0115
1006.00,0.0120
1005.00,0.0125
1004.00,0.0127
1003.00,0.0127
1002.00,0.0125
1001.00,0.0122
1000.00,0.0119
999.00,0.0116
998.00,0.0114
997.00,0.0112
996.00,0.0110
995.00,0.0109
994.00,0.0109
993.00,0.0108
992.00,0.0105
991.00,0.0101
990.00,0.0098
989.00,0.0094
988.00,0.0091
987.00,0.0088
986.00,0.0086
985.00,0.0084
984.00,0.0082
983.00,0.0081
982.00,0.0080
981.00,0.0080
980.00,0.0079
979.00,0.0078
978.00,0.0078
977.00,0.0078
976.00,0.0077
975.00,0.0076
974.00,0.0076
973.00,0.0075
972.00,0.0074
971.00,0.0074
970.00,0.0074
969.00,0.0075
968.00,0.0075
967.00,0.0075
966.00,0.0076
965.00,0.0078
964.00,0.0080
963.00,0.0082
962.00,0.0085
961.00,0.0087
960.00,0.0089
959.00,0.0090
958.00,0.0091
957.00,0.0091
956.00,0.0090
955.00,0.0088
954.00,0.0086
953.00,0.0084
952.00,0.0080
951.00,0.0078
950.00,0.0076
949.00,0.0073
948.00,0.0071
947.00,0.0069
946.00,0.0068
945.00,0.0067
944.00,0.0067
943.00,0.0068
942.00,0.0070
941.00,0.0072
940.00,0.0073
939.00,0.0075
938.00,0.0076
937.00,0.0078
936.00,0.0079
935.00,0.0081
934.00,0.0083
933.00,0.0084
932.00,0.0085
931.00,0.0084
930.00,0.0083
929.00,0.0082
928.00,0.0081
927.00,0.0081
926.00,0.0082
925.00,0.0084
924.00,0.0085
923.00,0.0087
922.00,0.0087
921.00,0.0087
920.00,0.0084
919.00,0.0082
918.00,0.0079
917.00,0.0077
916.00,0.0074
915.00,0.0072
914.00,0.0070
913.00,0.0068
912.00,0.0067
911.00,0.0066
910.00,0.0066
909.00,0.0067
908.00,0.0067
907.00,0.0068
906.00,0.0070
905.00,0.0073
904.00,0.0076
903.00,0.0080
902.00,0.0085
901.00,0.0090
900.00,0.0092
899.00,0.0092
898.00,0.0090
897.00,0.0087
896.00,0.0084
895.00,0.0080
894.00,0.0079
893.00,0.0080
892.00,0.0082
891.00,0.0087
890.00,0.0091
889.00,0.0092
888.00,0.0089
887.00,0.0083
886.00,0.0078
885.00,0.0075
884.00,0.0072
883.00,0.0071
882.00,0.0071
881.00,0.0072
880.00,0.0073
879.00,0.0076
878.00,0.0080
877.00,0.0086
876.00,0.0095
875.00,0.0105
874.00,0.0118
873.00,0.0132
872.00,0.0144
871.00,0.0153
870.00,0.0157
869.00,0.0157
868.00,0.0152
867.00,0.0147
866.00,0.0141
865.00,0.0135
864.00,0.0128
863.00,0.0122
862.00,0.0115
861.00,0.0110
860.00,0.0106
859.00,0.0104
858.00,0.0105
857.00,0.0109
856.00,0.0115
855.00,0.0120
854.00,0.0126
853.00,0.0131
852.00,0.0138
851.00,0.0146
850.00,0.0153
849.00,0.0157
848.00,0.0156
847.00,0.0151
846.00,0.0145
845.00,0.0139
844.00,0.0133
843.00,0.0130
842.00,0.0128
841.00,0.0127
840.00,0.0128
839.00,0.0131
838.00,0.0138
837.00,0.0147
836.00,0.0155
835.00,0.0160
834.00,0.0163
833.00,0.0162
832.00,0.0157
831.00,0.0150
830.00,0.0142
829.00,0.0134
828.00,0.0125
827.00,0.0117
826.00,0.0112
825.00,0.0111
824.00,0.0113
823.00,0.0123
822.00,0.0141
821.00,0.0162
820.00,0.0181
819.00,0.0195
818.00,0.0206
817.00,0.0214
816.00,0.0215
815.00,0.0207
814.00,0.0189
813.00,0.0166
812.00,0.0145
811.00,0.0129
810.00,0.0118
809.00,0.0110
808.00,0.0105
807.00,0.0102
806.00,0.0100
805.00,0.0097
804.00,0.0095
803.00,0.0093
802.00,0.0092
801.00,0.0091
800.00,0.0090
799.00,0.0088
798.00,0.0088
797.00,0.0087
796.00,0.0086
795.00,0.0086
794.00,0.0086
793.00,0.0086
792.00,0.0085
791.00,0.0084
790.00,0.0083
789.00,0.0083
788.00,0.0082
787.00,0.0081
786.00,0.0082
785.00,0.0082
784.00,0.0082
783.00,0.0082
782.00,0.0083
781.00,0.0083
780.00,0.0084
779.00,0.0085
778.00,0.0087
777.00,0.0090
776.00,0.0093
775.00,0.0096
774.00,0.0099
773.00,0.0098
772.00,0.0096
771.00,0.0093
770.00,0.0092
769.00,0.0091
768.00,0.0091
767.00,0.0090
766.00,0.0089
765.00,0.0089
764.00,0.0090
763.00,0.0093
762.00,0.0096
761.00,0.0099
760.00,0.0101
759.00,0.0102
758.00,0.0102
757.00,0.0102
756.00,0.0100
755.00,0.0100
754.00,0.0100
753.00,0.0100
752.00,0.0100
751.00,0.0099
750.00,0.0100
749.00,0.0101
748.00,0.0102
747.00,0.0104
746.00,0.0106
745.00,0.0107
744.00,0.0107
743.00,0.0109
742.00,0.0112
741.00,0.0116
740.00,0.0120
739.00,0.0127
738.00,0.0135
737.00,0.0144
736.00,0.0152
735.00,0.0157
734.00,0.0159
733.00,0.0157
732.00,0.0156
731.00,0.0157
730.00,0.0161
729.00,0.0165
728.00,0.0163
727.00,0.0157
726.00,0.0149
725.00,0.0140
724.00,0.0132
723.00,0.0126
722.00,0.0122
721.00,0.0120
720.00,0.0118
719.00,0.0119
718.00,0.0122
717.00,0.0127
716.00,0.0130
715.00,0.0132
714.00,0.0133
713.00,0.0132
712.00,0.0130
711.00,0.0128
710.00,0.0126
709.00,0.0124
708.00,0.0123
707.00,0.0122
706.00,0.0123
705.00,0.0124
704.00,0.0125
703.00,0.0126
702.00,0.0129
701.00,0.0132
700.00,0.0133
699.00,0.0134
698.00,0.0135
697.00,0.0134
696.00,0.0131
695.00,0.0129
694.00,0.0128
693.00,0.0128
692.00,0.0130
691.00,0.0134
690.00,0.0139
689.00,0.0144
688.00,0.0146
687.00,0.0147
686.00,0.0146
685.00,0.0144
684.00,0.0141
683.00,0.0139
682.00,0.0139
681.00,0.0140
680.00,0.0140
679.00,0.0142
678.00,0.0146
677.00,0.0149
676.00,0.0153
675.00,0.0156
674.00,0.0161
673.00,0.0164
672.00,0.0166
671.00,0.0169
670.00,0.0173
669.00,0.0177
668.00,0.0178
667.00,0.0177
666.00,0.0175
665.00,0.0174
664.00,0.0176
663.00,0.0179
662.00,0.0182
661.00,0.0184
660.00,0.0183
659.00,0.0182
658.00,0.0181
657.00,0.0180
656.00,0.0178
655.00,0.0176
654.00,0.0175
653.00,0.0175
652.00,0.0175
651.00,0.0176
650.00,0.0177
649.00,0.0177
648.00,0.0175
647.00,0.0174
646.00,0.0173
645.00,0.0172
644.00,0.0170
643.00,0.0169
642.00,0.0168
641.00,0.0166
640.00,0.0164
639.00,0.0162
638.00,0.0161
637.00,0.0160
636.00,0.0158
635.00,0.0157
634.00,0.0157
633.00,0.0157
632.00,0.0156
631.00,0.0156
630.00,0.0158
629.00,0.0159
628.00,0.0159
627.00,0.0159
626.00,0.0161
625.00,0.0163
624.00,0.0165
623.00,0.0168
622.00,0.0171
621.00,0.0172
620.00,0.0171
619.00,0.0170
618.00,0.0169
617.00,0.0168
616.00,0.0164
615.00,0.0160
614.00,0.0158
613.00,0.0156
612.00,0.0154
611.00,0.0154
610.00,0.0157
609.00,0.0161
608.00,0.0165
607.00,0.0172
606.00,0.0180
605.00,0.0187
604.00,0.0193
603.00,0.0199
602.00,0.0205
601.00,0.0210
600.00,0.0211
599.00,0.0212
598.00,0.0214
597.00,0.0214
596.00,0.0214
595.00,0.0213
594.00,0.0214
593.00,0.0213
592.00,0.0211
591.00,0.0209
590.00,0.0208
589.00,0.0207
588.00,0.0205
587.00,0.0204
586.00,0.0206
585.00,0.0209
584.00,0.0209
583.00,0.0210
582.00,0.0212
581.00,0.0215
580.00,0.0218
579.00,0.0223
578.00,0.0231
577.00,0.0238
576.00,0.0240
575.00,0.0237
574.00,0.0234
573.00,0.0228
572.00,0.0221
571.00,0.0215
570.00,0.0212
569.00,0.0210
568.00,0.0207
567.00,0.0206
566.00,0.0207
565.00,0.0210
564.00,0.0211
563.00,0.0215
562.00,0.0221
561.00,0.0228
560.00,0.0231
559.00,0.0230
558.00,0.0227
557.00,0.0222
556.00,0.0214
555.00,0.0206
554.00,0.0202
553.00,0.0200
552.00,0.0200
551.00,0.0203
550.00,0.0210
549.00,0.0218
548.00,0.0222
547.00,0.0226
546.00,0.0231
545.00,0.0233
544.00,0.0230
543.00,0.0225
542.00,0.0221
541.00,0.0218
540.00,0.0212
539.00,0.0208
538.00,0.0208
537.00,0.0208
536.00,0.0207
535.00,0.0209
534.00,0.0215
533.00,0.0221
532.00,0.0223
531.00,0.0224
530.00,0.0224
529.00,0.0223
528.00,0.0217
527.00,0.0212
526.00,0.0210
525.00,0.0206
524.00,0.0199
523.00,0.0192
522.00,0.0187
521.00,0.0185
520.00,0.0181
519.00,0.0180
518.00,0.0181
517.00,0.0181
516.00,0.0177
515.00,0.0174
514.00,0.0175
513.00,0.0177
512.00,0.0177
511.00,0.0176
510.00,0.0178
509.00,0.0179
508.00,0.0178
507.00,0.0178
506.00,0.0181
505.00,0.0183
504.00,0.0183
503.00,0.0182
502.00,0.0183
501.00,0.0182
500.00,0.0177
499.00,0.0172
498.00,0.0172
497.00,0.0174
496.00,0.0174
495.00,0.0175
494.00,0.0179
493.00,0.0183
492.00,0.0183
491.00,0.0182
490.00,0.0184
489.00,0.0184
488.00,0.0180
487.00,0.0177
486.00,0.0178
485.00,0.0179
484.00,0.0175
483.00,0.0170
482.00,0.0169
481.00,0.0169
480.00,0.0167
479.00,0.0166
478.00,0.0167
477.00,0.0168
476.00,0.0164
475.00,0.0162
474.00,0.0165
473.00,0.0167
472.00,0.0165
471.00,0.0162
470.00,0.0164
469.00,0.0164
468.00,0.0161
467.00,0.0160
466.00,0.0164
465.00,0.0167
464.00,0.0161
463.00,0.0156
462.00,0.0155
461.00,0.0156
460.00,0.0154
459.00,0.0151
458.00,0.0154
457.00,0.0154
456.00,0.0149
455.00,0.0145
454.00,0.0148
453.00,0.0152
452.00,0.0153
451.00,0.0154
450.00,0.0159
449.00,0.0162
448.00,0.0158
447.00,0.0156
446.00,0.0157
445.00,0.0156
444.00,0.0150
443.00,0.0146
442.00,0.0150
441.00,0.0153
440.00,0.0149
439.00,0.0146
438.00,0.0149
437.00,0.0152
436.00,0.0149
435.00,0.0148
434.00,0.0152
433.00,0.0156
432.00,0.0153
431.00,0.0150
430.00,0.0153
429.00,0.0155
428.00,0.0149
427.00,0.0142
426.00,0.0140
425.00,0.0137
424.00,0.0128
423.00,0.0123
422.00,0.0130
421.00,0.0139
420.00,0.0137
419.00,0.0132
418.00,0.0136
417.00,0.0140
416.00,0.0138
415.00,0.0144
414.00,0.0161
413.00,0.0175
412.00,0.0175
411.00,0.0175
410.00,0.0182
409.00,0.0186
408.00,0.0175
407.00,0.0165
406.00,0.0167
405.00,0.0168
404.00,0.0155
403.00,0.0144
402.00,0.0146
401.00,0.0143
400.00,0.0124
