Created as New Dataset,Sample 005 By YargerLab Date Wednesday, August 06 2025
cm-1,A
4000.00,0.0007
3999.00,0.0007
3998.00,0.0007
3997.00,0.0007
3996.00,0.0007
3995.00,0.0007
3994.00,0.0007
3993.00,0.0007
3992.00,0.0006
3991.00,0.0006
3990.00,0.0006
3989.00,0.0006
3988.00,0.0007
3987.00,0.0007
3986.00,0.0007
3985.00,0.0007
3984.00,0.0007
3983.00,0.0007
3982.00,0.0007
3981.00,0.0007
3980.00,0.0007
3979.00,0.0007
3978.00,0.0007
3977.00,0.0007
3976.00,0.0007
3975.00,0.0007
3974.00,0.0007
3973.00,0.0007
3972.00,0.0006
3971.00,0.0006
3970.00,0.0007
3969.00,0.0007
3968.00,0.0007
3967.00,0.0007
3966.00,0.0007
3965.00,0.0007
3964.00,0.0006
3963.00,0.0006
3962.00,0.0006
3961.00,0.0006
3960.00,0.0007
3959.00,0.0007
3958.00,0.0007
3957.00,0.0007
3956.00,0.0007
3955.00,0.0007
3954.00,0.0007
3953.00,0.0007
3952.00,0.0007
3951.00,0.0007
3950.00,0.0007
3949.00,0.0006
3948.00,0.0006
3947.00,0.0006
3946.00,0.0006
3945.00,0.0006
3944.00,0.0006
3943.00,0.0006
3942.00,0.0006
3941.00,0.0006
3940.00,0.0006
3939.00,0.0006
3938.00,0.0007
3937.00,0.0006
3936.00,0.0006
3935.00,0.0006
3934.00,0.0006
3933.00,0.0006
3932.00,0.0006
3931.00,0.0006
3930.00,0.0006
3929.00,0.0006
3928.00,0.0006
3927.00,0.0006
3926.00,0.0006
3925.00,0.0006
3924.00,0.0006
3923.00,0.0006
3922.00,0.0006
3921.00,0.0006
3920.00,0.0006
3919.00,0.0005
3918.00,0.0006
3917.00,0.0006
3916.00,0.0006
3915.00,0.0006
3914.00,0.0006
3913.00,0.0007
3912.00,0.0007
3911.00,0.0007
3910.00,0.0007
3909.00,0.0006
3908.00,0.0006
3907.00,0.0005
3906.00,0.0005
3905.00,0.0004
3904.00,0.0004
3903.00,0.0003
3902.00,0.0003
3901.00,0.0003
3900.00,0.0004
3899.00,0.0005
3898.00,0.0005
3897.00,0.0005
3896.00,0.0005
3895.00,0.0005
3894.00,0.0005
3893.00,0.0005
3892.00,0.0005
3891.00,0.0005
3890.00,0.0005
3889.00,0.0005
3888.00,0.0004
3887.00,0.0004
3886.00,0.0005
3885.00,0.0005
3884.00,0.0004
3883.00,0.0004
3882.00,0.0004
3881.00,0.0004
3880.00,0.0005
3879.00,0.0005
3878.00,0.0004
3877.00,0.0004
3876.00,0.0004
3875.00,0.0005
3874.00,0.0005
3873.00,0.0005
3872.00,0.0004
3871.00,0.0004
3870.00,0.0004
3869.00,0.0004
3868.00,0.0004
3867.00,0.0004
3866.00,0.0004
3865.00,0.0004
3864.00,0.0005
3863.00,0.0005
3862.00,0.0005
3861.00,0.0005
3860.00,0.0005
3859.00,0.0005
3858.00,0.0005
3857.00,0.0004
3856.00,0.0004
3855.00,0.0004
3854.00,0.0004
3853.00,0.0004
3852.00,0.0003
3851.00,0.0003
3850.00,0.0004
3849.00,0.0004
3848.00,0.0005
3847.00,0.0005
3846.00,0.0005
3845.00,0.0005
3844.00,0.0005
3843.00,0.0005
3842.00,0.0005
3841.00,0.0004
3840.00,0.0004
3839.00,0.0004
3838.00,0.0004
3837.00,0.0004
3836.00,0.0004
3835.00,0.0004
3834.00,0.0005
3833.00,0.0005
3832.00,0.0006
3831.00,0.0006
3830.00,0.0006
3829.00,0.0006
3828.00,0.0006
3827.00,0.0006
3826.00,0.0006
3825.00,0.0006
3824.00,0.0005
3823.00,0.0005
3822.00,0.0004
3821.00,0.0004
3820.00,0.0004
3819.00,0.0004
3818.00,0.0004
3817.00,0.0005
3816.00,0.0005
3815.00,0.0006
3814.00,0.0006
3813.00,0.0006
3812.00,0.0007
3811.00,0.0007
3810.00,0.0007
3809.00,0.0006
3808.00,0.0006
3807.00,0.0006
3806.00,0.0006
3805.00,0.0005
3804.00,0.0004
3803.00,0.0004
3802.00,0.0005
3801.00,0.0005
3800.00,0.0005
3799.00,0.0004
3798.00,0.0005
3797.00,0.0005
3796.00,0.0006
3795.00,0.0006
3794.00,0.0006
3793.00,0.0007
3792.00,0.0007
3791.00,0.0007
3790.00,0.0007
3789.00,0.0007
3788.00,0.0007
3787.00,0.0007
3786.00,0.0007
3785.00,0.0007
3784.00,0.0007
3783.00,0.0007
3782.00,0.0006
3781.00,0.0007
3780.00,0.0007
3779.00,0.0007
3778.00,0.0007
3777.00,0.0007
3776.00,0.0007
3775.00,0.0007
3774.00,0.0007
3773.00,0.0007
3772.00,0.0007
3771.00,0.0007
3770.00,0.0007
3769.00,0.0006
3768.00,0.0006
3767.00,0.0006
3766.00,0.0006
3765.00,0.0006
3764.00,0.0006
3763.00,0.0006
3762.00,0.0006
3761.00,0.0006
3760.00,0.0006
3759.00,0.0006
3758.00,0.0006
3757.00,0.0006
3756.00,0.0006
3755.00,0.0006
3754.00,0.0005
3753.00,0.0005
3752.00,0.0004
3751.00,0.0003
3750.00,0.0003
3749.00,0.0002
3748.00,0.0002
3747.00,0.0001
3746.00,0.0001
3745.00,0.0002
3744.00,0.0003
3743.00,0.0003
3742.00,0.0004
3741.00,0.0004
3740.00,0.0004
3739.00,0.0004
3738.00,0.0003
3737.00,0.0003
3736.00,0.0003
3735.00,0.0003
3734.00,0.0003
3733.00,0.0003
3732.00,0.0004
3731.00,0.0004
3730.00,0.0005
3729.00,0.0005
3728.00,0.0005
3727.00,0.0005
3726.00,0.0005
3725.00,0.0005
3724.00,0.0005
3723.00,0.0005
3722.00,0.0005
3721.00,0.0005
3720.00,0.0005
3719.00,0.0006
3718.00,0.0006
3717.00,0.0006
3716.00,0.0006
3715.00,0.0006
3714.00,0.0005
3713.00,0.0005
3712.00,0.0005
3711.00,0.0005
3710.00,0.0005
3709.00,0.0005
3708.00,0.0006
3707.00,0.0006
3706.00,0.0006
3705.00,0.0006
3704.00,0.0006
3703.00,0.0006
3702.00,0.0007
3701.00,0.0007
3700.00,0.0007
3699.00,0.0007
3698.00,0.0007
3697.00,0.0007
3696.00,0.0006
3695.00,0.0006
3694.00,0.0006
3693.00,0.0006
3692.00,0.0006
3691.00,0.0006
3690.00,0.0006
3689.00,0.0006
3688.00,0.0006
3687.00,0.0006
3686.00,0.0006
3685.00,0.0007
3684.00,0.0007
3683.00,0.0008
3682.00,0.0008
3681.00,0.0008
3680.00,0.0008
3679.00,0.0008
3678.00,0.0007
3677.00,0.0007
3676.00,0.0007
3675.00,0.0006
3674.00,0.0006
3673.00,0.0005
3672.00,0.0006
3671.00,0.0006
3670.00,0.0007
3669.00,0.0008
3668.00,0.0008
3667.00,0.0009
3666.00,0.0009
3665.00,0.0010
3664.00,0.0011
3663.00,0.0012
3662.00,0.0012
3661.00,0.0012
3660.00,0.0012
3659.00,0.0012
3658.00,0.0012
3657.00,0.0012
3656.00,0.0012
3655.00,0.0012
3654.00,0.0011
3653.00,0.0011
3652.00,0.0011
3651.00,0.0011
3650.00,0.0011
3649.00,0.0011
3648.00,0.0010
3647.00,0.0010
3646.00,0.0011
3645.00,0.0012
3644.00,0.0014
3643.00,0.0015
3642.00,0.0016
3641.00,0.0016
3640.00,0.0017
3639.00,0.0017
3638.00,0.0017
3637.00,0.0017
3636.00,0.0017
3635.00,0.0017
3634.00,0.0018
3633.00,0.0017
3632.00,0.0017
3631.00,0.0017
3630.00,0.0018
3629.00,0.0018
3628.00,0.0018
3627.00,0.0018
3626.00,0.0018
3625.00,0.0019
3624.00,0.0021
3623.00,0.0021
3622.00,0.0022
3621.00,0.0022
3620.00,0.0022
3619.00,0.0022
3618.00,0.0022
3617.00,0.0022
3616.00,0.0022
3615.00,0.0023
3614.00,0.0024
3613.00,0.0024
3612.00,0.0025
3611.00,0.0025
3610.00,0.0025
3609.00,0.0026
3608.00,0.0026
3607.00,0.0027
3606.00,0.0028
3605.00,0.0029
3604.00,0.0030
3603.00,0.0030
3602.00,0.0031
3601.00,0.0032
3600.00,0.0032
3599.00,0.0033
3598.00,0.0033
3597.00,0.0033
3596.00,0.0034
3595.00,0.0034
3594.00,0.0034
3593.00,0.0035
3592.00,0.0036
3591.00,0.0036
3590.00,0.0037
3589.00,0.0037
3588.00,0.0037
3587.00,0.0037
3586.00,0.0037
3585.00,0.0038
3584.00,0.0039
3583.00,0.0041
3582.00,0.0042
3581.00,0.0043
3580.00,0.0044
3579.00,0.0045
3578.00,0.0046
3577.00,0.0047
3576.00,0.0047
3575.00,0.0048
3574.00,0.0048
3573.00,0.0048
3572.00,0.0049
3571.00,0.0050
3570.00,0.0050
3569.00,0.0051
3568.00,0.0051
3567.00,0.0051
3566.00,0.0051
3565.00,0.0051
3564.00,0.0052
3563.00,0.0053
3562.00,0.0055
3561.00,0.0056
3560.00,0.0057
3559.00,0.0058
3558.00,0.0059
3557.00,0.0060
3556.00,0.0061
3555.00,0.0062
3554.00,0.0063
3553.00,0.0063
3552.00,0.0063
3551.00,0.0063
3550.00,0.0064
3549.00,0.0064
3548.00,0.0065
3547.00,0.0066
3546.00,0.0067
3545.00,0.0067
3544.00,0.0068
3543.00,0.0069
3542.00,0.0070
3541.00,0.0071
3540.00,0.0072
3539.00,0.0073
3538.00,0.0073
3537.00,0.0074
3536.00,0.0074
3535.00,0.0075
3534.00,0.0076
3533.00,0.0076
3532.00,0.0077
3531.00,0.0078
3530.00,0.0079
3529.00,0.0079
3528.00,0.0080
3527.00,0.0080
3526.00,0.0080
3525.00,0.0081
3524.00,0.0081
3523.00,0.0082
3522.00,0.0083
3521.00,0.0083
3520.00,0.0084
3519.00,0.0084
3518.00,0.0085
3517.00,0.0085
3516.00,0.0086
3515.00,0.0087
3514.00,0.0087
3513.00,0.0088
3512.00,0.0088
3511.00,0.0088
3510.00,0.0089
3509.00,0.0089
3508.00,0.0089
3507.00,0.0090
3506.00,0.0091
3505.00,0.0091
3504.00,0.0092
3503.00,0.0092
3502.00,0.0091
3501.00,0.0092
3500.00,0.0092
3499.00,0.0093
3498.00,0.0093
3497.00,0.0094
3496.00,0.0094
3495.00,0.0095
3494.00,0.0095
3493.00,0.0096
3492.00,0.0096
3491.00,0.0097
3490.00,0.0097
3489.00,0.0097
3488.00,0.0097
3487.00,0.0098
3486.00,0.0098
3485.00,0.0098
3484.00,0.0099
3483.00,0.0099
3482.00,0.0099
3481.00,0.0099
3480.00,0.0099
3479.00,0.0100
3478.00,0.0100
3477.00,0.0101
3476.00,0.0101
3475.00,0.0101
3474.00,0.0102
3473.00,0.0102
3472.00,0.0103
3471.00,0.0103
3470.00,0.0104
3469.00,0.0104
3468.00,0.0105
3467.00,0.0105
3466.00,0.0105
3465.00,0.0105
3464.00,0.0105
3463.00,0.0105
3462.00,0.0105
3461.00,0.0106
3460.00,0.0106
3459.00,0.0107
3458.00,0.0107
3457.00,0.0108
3456.00,0.0108
3455.00,0.0108
3454.00,0.0109
3453.00,0.0109
3452.00,0.0109
3451.00,0.0109
3450.00,0.0110
3449.00,0.0110
3448.00,0.0111
3447.00,0.0111
3446.00,0.0111
3445.00,0.0111
3444.00,0.0112
3443.00,0.0112
3442.00,0.0112
3441.00,0.0112
3440.00,0.0112
3439.00,0.0113
3438.00,0.0113
3437.00,0.0114
3436.00,0.0114
3435.00,0.0114
3434.00,0.0114
3433.00,0.0114
3432.00,0.0114
3431.00,0.0115
3430.00,0.0115
3429.00,0.0115
3428.00,0.0115
3427.00,0.0116
3426.00,0.0116
3425.00,0.0116
3424.00,0.0116
3423.00,0.0116
3422.00,0.0116
3421.00,0.0116
3420.00,0.0116
3419.00,0.0116
3418.00,0.0117
3417.00,0.0117
3416.00,0.0118
3415.00,0.0118
3414.00,0.0119
3413.00,0.0119
3412.00,0.0120
3411.00,0.0120
3410.00,0.0120
3409.00,0.0121
3408.00,0.0121
3407.00,0.0121
3406.00,0.0121
3405.00,0.0121
3404.00,0.0122
3403.00,0.0122
3402.00,0.0122
3401.00,0.0123
3400.00,0.0123
3399.00,0.0123
3398.00,0.0124
3397.00,0.0124
3396.00,0.0124
3395.00,0.0124
3394.00,0.0124
3393.00,0.0124
3392.00,0.0124
3391.00,0.0123
3390.00,0.0123
3389.00,0.0123
3388.00,0.0123
3387.00,0.0123
3386.00,0.0123
3385.00,0.0123
3384.00,0.0123
3383.00,0.0123
3382.00,0.0122
3381.00,0.0122
3380.00,0.0121
3379.00,0.0121
3378.00,0.0121
3377.00,0.0120
3376.00,0.0120
3375.00,0.0120
3374.00,0.0119
3373.00,0.0119
3372.00,0.0118
3371.00,0.0118
3370.00,0.0117
3369.00,0.0117
3368.00,0.0116
3367.00,0.0116
3366.00,0.0115
3365.00,0.0115
3364.00,0.0114
3363.00,0.0113
3362.00,0.0112
3361.00,0.0112
3360.00,0.0112
3359.00,0.0111
3358.00,0.0111
3357.00,0.0110
3356.00,0.0110
3355.00,0.0109
3354.00,0.0109
3353.00,0.0108
3352.00,0.0108
3351.00,0.0108
3350.00,0.0107
3349.00,0.0107
3348.00,0.0107
3347.00,0.0106
3346.00,0.0105
3345.00,0.0105
3344.00,0.0104
3343.00,0.0104
3342.00,0.0103
3341.00,0.0103
3340.00,0.0102
3339.00,0.0102
3338.00,0.0102
3337.00,0.0101
3336.00,0.0101
3335.00,0.0101
3334.00,0.0101
3333.00,0.0100
3332.00,0.0100
3331.00,0.0100
3330.00,0.0099
3329.00,0.0099
3328.00,0.0098
3327.00,0.0098
3326.00,0.0098
3325.00,0.0097
3324.00,0.0097
3323.00,0.0097
3322.00,0.0097
3321.00,0.0097
3320.00,0.0097
3319.00,0.0096
3318.00,0.0096
3317.00,0.0096
3316.00,0.0096
3315.00,0.0095
3314.00,0.0095
3313.00,0.0095
3312.00,0.0095
3311.00,0.0095
3310.00,0.0095
3309.00,0.0094
3308.00,0.0094
3307.00,0.0094
3306.00,0.0093
3305.00,0.0093
3304.00,0.0093
3303.00,0.0093
3302.00,0.0093
3301.00,0.0093
3300.00,0.0093
3299.00,0.0093
3298.00,0.0093
3297.00,0.0092
3296.00,0.0092
3295.00,0.0092
3294.00,0.0092
3293.00,0.0092
3292.00,0.0092
3291.00,0.0092
3290.00,0.0093
3289.00,0.0093
3288.00,0.0093
3287.00,0.0093
3286.00,0.0093
3285.00,0.0092
3284.00,0.0092
3283.00,0.0092
3282.00,0.0093
3281.00,0.0093
3280.00,0.0093
3279.00,0.0093
3278.00,0.0092
3277.00,0.0092
3276.00,0.0092
3275.00,0.0091
3274.00,0.0091
3273.00,0.0090
3272.00,0.0090
3271.00,0.0090
3270.00,0.0089
3269.00,0.0089
3268.00,0.0089
3267.00,0.0090
3266.00,0.0090
3265.00,0.0090
3264.00,0.0089
3263.00,0.0089
3262.00,0.0089
3261.00,0.0089
3260.00,0.0089
3259.00,0.0088
3258.00,0.0088
3257.00,0.0088
3256.00,0.0088
3255.00,0.0088
3254.00,0.0087
3253.00,0.0087
3252.00,0.0087
3251.00,0.0086
3250.00,0.0086
3249.00,0.0086
3248.00,0.0086
3247.00,0.0085
3246.00,0.0085
3245.00,0.0085
3244.00,0.0085
3243.00,0.0085
3242.00,0.0085
3241.00,0.0084
3240.00,0.0084
3239.00,0.0084
3238.00,0.0083
3237.00,0.0083
3236.00,0.0083
3235.00,0.0083
3234.00,0.0082
3233.00,0.0082
3232.00,0.0082
3231.00,0.0081
3230.00,0.0081
3229.00,0.0081
3228.00,0.0081
3227.00,0.0081
3226.00,0.0081
3225.00,0.0080
3224.00,0.0080
3223.00,0.0080
3222.00,0.0080
3221.00,0.0079
3220.00,0.0079
3219.00,0.0079
3218.00,0.0079
3217.00,0.0078
3216.00,0.0078
3215.00,0.0078
3214.00,0.0077
3213.00,0.0077
3212.00,0.0076
3211.00,0.0075
3210.00,0.0075
3209.00,0.0075
3208.00,0.0075
3207.00,0.0074
3206.00,0.0074
3205.00,0.0074
3204.00,0.0073
3203.00,0.0073
3202.00,0.0073
3201.00,0.0072
3200.00,0.0072
3199.00,0.0072
3198.00,0.0071
3197.00,0.0071
3196.00,0.0071
3195.00,0.0071
3194.00,0.0070
3193.00,0.0069
3192.00,0.0069
3191.00,0.0068
3190.00,0.0067
3189.00,0.0067
3188.00,0.0066
3187.00,0.0066
3186.00,0.0066
3185.00,0.0065
3184.00,0.0065
3183.00,0.0065
3182.00,0.0064
3181.00,0.0064
3180.00,0.0064
3179.00,0.0063
3178.00,0.0063
3177.00,0.0062
3176.00,0.0062
3175.00,0.0061
3174.00,0.0061
3173.00,0.0061
3172.00,0.0060
3171.00,0.0060
3170.00,0.0059
3169.00,0.0058
3168.00,0.0058
3167.00,0.0058
3166.00,0.0057
3165.00,0.0057
3164.00,0.0057
3163.00,0.0056
3162.00,0.0056
3161.00,0.0055
3160.00,0.0055
3159.00,0.0054
3158.00,0.0054
3157.00,0.0054
3156.00,0.0053
3155.00,0.0053
3154.00,0.0053
3153.00,0.0052
3152.00,0.0052
3151.00,0.0051
3150.00,0.0051
3149.00,0.0050
3148.00,0.0050
3147.00,0.0049
3146.00,0.0049
3145.00,0.0049
3144.00,0.0048
3143.00,0.0048
3142.00,0.0048
3141.00,0.0047
3140.00,0.0047
3139.00,0.0047
3138.00,0.0046
3137.00,0.0046
3136.00,0.0046
3135.00,0.0045
3134.00,0.0045
3133.00,0.0044
3132.00,0.0044
3131.00,0.0043
3130.00,0.0043
3129.00,0.0043
3128.00,0.0043
3127.00,0.0043
3126.00,0.0043
3125.00,0.0042
3124.00,0.0042
3123.00,0.0042
3122.00,0.0041
3121.00,0.0041
3120.00,0.0041
3119.00,0.0041
3118.00,0.0040
3117.00,0.0040
3116.00,0.0039
3115.00,0.0039
3114.00,0.0039
3113.00,0.0039
3112.00,0.0039
3111.00,0.0038
3110.00,0.0038
3109.00,0.0038
3108.00,0.0038
3107.00,0.0037
3106.00,0.0037
3105.00,0.0037
3104.00,0.0037
3103.00,0.0037
3102.00,0.0036
3101.00,0.0036
3100.00,0.0036
3099.00,0.0036
3098.00,0.0035
3097.00,0.0035
3096.00,0.0035
3095.00,0.0034
3094.00,0.0034
3093.00,0.0034
3092.00,0.0033
3091.00,0.0033
3090.00,0.0033
3089.00,0.0033
3088.00,0.0033
3087.00,0.0033
3086.00,0.0033
3085.00,0.0033
3084.00,0.0033
3083.00,0.0033
3082.00,0.0032
3081.00,0.0032
3080.00,0.0032
3079.00,0.0032
3078.00,0.0031
3077.00,0.0031
3076.00,0.0031
3075.00,0.0030
3074.00,0.0030
3073.00,0.0030
3072.00,0.0030
3071.00,0.0030
3070.00,0.0029
3069.00,0.0029
3068.00,0.0029
3067.00,0.0029
3066.00,0.0029
3065.00,0.0029
3064.00,0.0029
3063.00,0.0029
3062.00,0.0029
3061.00,0.0028
3060.00,0.0028
3059.00,0.0028
3058.00,0.0028
3057.00,0.0028
3056.00,0.0028
3055.00,0.0028
3054.00,0.0027
3053.00,0.0027
3052.00,0.0027
3051.00,0.0027
3050.00,0.0027
3049.00,0.0027
3048.00,0.0026
3047.00,0.0026
3046.00,0.0026
3045.00,0.0026
3044.00,0.0026
3043.00,0.0026
3042.00,0.0025
3041.00,0.0025
3040.00,0.0025
3039.00,0.0025
3038.00,0.0025
3037.00,0.0026
3036.00,0.0026
3035.00,0.0026
3034.00,0.0026
3033.00,0.0026
3032.00,0.0026
3031.00,0.0025
3030.00,0.0025
3029.00,0.0025
3028.00,0.0025
3027.00,0.0024
3026.00,0.0024
3025.00,0.0024
3024.00,0.0024
3023.00,0.0025
3022.00,0.0025
3021.00,0.0026
3020.00,0.0026
3019.00,0.0026
3018.00,0.0026
3017.00,0.0026
3016.00,0.0026
3015.00,0.0026
3014.00,0.0027
3013.00,0.0027
3012.00,0.0028
3011.00,0.0028
3010.00,0.0029
3009.00,0.0029
3008.00,0.0030
3007.00,0.0031
3006.00,0.0032
3005.00,0.0033
3004.00,0.0034
3003.00,0.0035
3002.00,0.0037
3001.00,0.0039
3000.00,0.0040
2999.00,0.0042
2998.00,0.0043
2997.00,0.0045
2996.00,0.0046
2995.00,0.0047
2994.00,0.0048
2993.00,0.0049
2992.00,0.0049
2991.00,0.0050
2990.00,0.0051
2989.00,0.0052
2988.00,0.0053
2987.00,0.0054
2986.00,0.0055
2985.00,0.0057
2984.00,0.0059
2983.00,0.0060
2982.00,0.0062
2981.00,0.0063
2980.00,0.0064
2979.00,0.0064
2978.00,0.0065
2977.00,0.0067
2976.00,0.0069
2975.00,0.0071
2974.00,0.0074
2973.00,0.0076
2972.00,0.0077
2971.00,0.0078
2970.00,0.0079
2969.00,0.0079
2968.00,0.0080
2967.00,0.0081
2966.00,0.0083
2965.00,0.0084
2964.00,0.0085
2963.00,0.0086
2962.00,0.0086
2961.00,0.0085
2960.00,0.0084
2959.00,0.0083
2958.00,0.0081
2957.00,0.0080
2956.00,0.0080
2955.00,0.0080
2954.00,0.0080
2953.00,0.0080
2952.00,0.0081
2951.00,0.0081
2950.00,0.0082
2949.00,0.0082
2948.00,0.0083
2947.00,0.0083
2946.00,0.0083
2945.00,0.0084
2944.00,0.0084
2943.00,0.0084
2942.00,0.0085
2941.00,0.0085
2940.00,0.0086
2939.00,0.0087
2938.00,0.0088
2937.00,0.0089
2936.00,0.0090
2935.00,0.0091
2934.00,0.0092
2933.00,0.0094
2932.00,0.0095
2931.00,0.0096
2930.00,0.0097
2929.00,0.0097
2928.00,0.0097
2927.00,0.0096
2926.00,0.0096
2925.00,0.0095
2924.00,0.0094
2923.00,0.0092
2922.00,0.0091
2921.00,0.0089
2920.00,0.0088
2919.00,0.0086
2918.00,0.0085
2917.00,0.0084
2916.00,0.0082
2915.00,0.0081
2914.00,0.0080
2913.00,0.0080
2912.00,0.0079
2911.00,0.0078
2910.00,0.0077
2909.00,0.0076
2908.00,0.0075
2907.00,0.0075
2906.00,0.0074
2905.00,0.0073
2904.00,0.0073
2903.00,0.0073
2902.00,0.0072
2901.00,0.0072
2900.00,0.0072
2899.00,0.0071
2898.00,0.0071
2897.00,0.0071
2896.00,0.0071
2895.00,0.0071
2894.00,0.0071
2893.00,0.0071
2892.00,0.0071
2891.00,0.0071
2890.00,0.0071
2889.00,0.0071
2888.00,0.0070
2887.00,0.0070
2886.00,0.0070
2885.00,0.0069
2884.00,0.0069
2883.00,0.0069
2882.00,0.0069
2881.00,0.0069
2880.00,0.0069
2879.00,0.0070
2878.00,0.0070
2877.00,0.0069
2876.00,0.0069
2875.00,0.0069
2874.00,0.0069
2873.00,0.0069
2872.00,0.0068
2871.00,0.0068
2870.00,0.0067
2869.00,0.0067
2868.00,0.0067
2867.00,0.0067
2866.00,0.0068
2865.00,0.0068
2864.00,0.0069
2863.00,0.0070
2862.00,0.0071
2861.00,0.0072
2860.00,0.0072
2859.00,0.0071
2858.00,0.0070
2857.00,0.0069
2856.00,0.0067
2855.00,0.0066
2854.00,0.0065
2853.00,0.0063
2852.00,0.0062
2851.00,0.0060
2850.00,0.0058
2849.00,0.0056
2848.00,0.0054
2847.00,0.0052
2846.00,0.0050
2845.00,0.0049
2844.00,0.0047
2843.00,0.0046
2842.00,0.0044
2841.00,0.0043
2840.00,0.0041
2839.00,0.0040
2838.00,0.0040
2837.00,0.0039
2836.00,0.0038
2835.00,0.0037
2834.00,0.0036
2833.00,0.0036
2832.00,0.0035
2831.00,0.0034
2830.00,0.0034
2829.00,0.0033
2828.00,0.0032
2827.00,0.0032
2826.00,0.0031
2825.00,0.0031
2824.00,0.0030
2823.00,0.0029
2822.00,0.0029
2821.00,0.0028
2820.00,0.0028
2819.00,0.0028
2818.00,0.0027
2817.00,0.0027
2816.00,0.0027
2815.00,0.0026
2814.00,0.0026
2813.00,0.0025
2812.00,0.0025
2811.00,0.0025
2810.00,0.0024
2809.00,0.0024
2808.00,0.0024
2807.00,0.0024
2806.00,0.0024
2805.00,0.0024
2804.00,0.0023
2803.00,0.0023
2802.00,0.0023
2801.00,0.0022
2800.00,0.0022
2799.00,0.0022
2798.00,0.0022
2797.00,0.0022
2796.00,0.0021
2795.00,0.0021
2794.00,0.0021
2793.00,0.0021
2792.00,0.0021
2791.00,0.0021
2790.00,0.0021
2789.00,0.0021
2788.00,0.0021
2787.00,0.0021
2786.00,0.0020
2785.00,0.0020
2784.00,0.0020
2783.00,0.0020
2782.00,0.0020
2781.00,0.0020
2780.00,0.0020
2779.00,0.0020
2778.00,0.0020
2777.00,0.0019
2776.00,0.0019
2775.00,0.0019
2774.00,0.0019
2773.00,0.0019
2772.00,0.0019
2771.00,0.0019
2770.00,0.0019
2769.00,0.0019
2768.00,0.0019
2767.00,0.0019
2766.00,0.0019
2765.00,0.0019
2764.00,0.0018
2763.00,0.0018
2762.00,0.0018
2761.00,0.0018
2760.00,0.0018
2759.00,0.0018
2758.00,0.0018
2757.00,0.0018
2756.00,0.0018
2755.00,0.0018
2754.00,0.0018
2753.00,0.0018
2752.00,0.0018
2751.00,0.0018
2750.00,0.0018
2749.00,0.0018
2748.00,0.0018
2747.00,0.0018
2746.00,0.0018
2745.00,0.0018
2744.00,0.0018
2743.00,0.0018
2742.00,0.0018
2741.00,0.0019
2740.00,0.0019
2739.00,0.0019
2738.00,0.0019
2737.00,0.0019
2736.00,0.0019
2735.00,0.0019
2734.00,0.0019
2733.00,0.0019
2732.00,0.0019
2731.00,0.0019
2730.00,0.0019
2729.00,0.0019
2728.00,0.0019
2727.00,0.0019
2726.00,0.0019
2725.00,0.0018
2724.00,0.0018
2723.00,0.0018
2722.00,0.0018
2721.00,0.0018
2720.00,0.0018
2719.00,0.0018
2718.00,0.0018
2717.00,0.0018
2716.00,0.0018
2715.00,0.0018
2714.00,0.0017
2713.00,0.0017
2712.00,0.0017
2711.00,0.0017
2710.00,0.0017
2709.00,0.0017
2708.00,0.0017
2707.00,0.0017
2706.00,0.0017
2705.00,0.0017
2704.00,0.0017
2703.00,0.0017
2702.00,0.0017
2701.00,0.0017
2700.00,0.0017
2699.00,0.0017
2698.00,0.0017
2697.00,0.0016
2696.00,0.0016
2695.00,0.0016
2694.00,0.0017
2693.00,0.0017
2692.00,0.0017
2691.00,0.0016
2690.00,0.0016
2689.00,0.0016
2688.00,0.0016
2687.00,0.0016
2686.00,0.0016
2685.00,0.0016
2684.00,0.0016
2683.00,0.0016
2682.00,0.0016
2681.00,0.0016
2680.00,0.0016
2679.00,0.0016
2678.00,0.0016
2677.00,0.0016
2676.00,0.0016
2675.00,0.0016
2674.00,0.0016
2673.00,0.0016
2672.00,0.0016
2671.00,0.0016
2670.00,0.0016
2669.00,0.0016
2668.00,0.0016
2667.00,0.0017
2666.00,0.0017
2665.00,0.0018
2664.00,0.0018
2663.00,0.0019
2662.00,0.0019
2661.00,0.0020
2660.00,0.0020
2659.00,0.0020
2658.00,0.0020
2657.00,0.0020
2656.00,0.0021
2655.00,0.0021
2654.00,0.0021
2653.00,0.0021
2652.00,0.0021
2651.00,0.0021
2650.00,0.0021
2649.00,0.0021
2648.00,0.0021
2647.00,0.0021
2646.00,0.0021
2645.00,0.0021
2644.00,0.0021
2643.00,0.0021
2642.00,0.0021
2641.00,0.0020
2640.00,0.0020
2639.00,0.0020
2638.00,0.0020
2637.00,0.0020
2636.00,0.0020
2635.00,0.0020
2634.00,0.0020
2633.00,0.0020
2632.00,0.0020
2631.00,0.0019
2630.00,0.0019
2629.00,0.0019
2628.00,0.0019
2627.00,0.0019
2626.00,0.0019
2625.00,0.0019
2624.00,0.0019
2623.00,0.0019
2622.00,0.0019
2621.00,0.0019
2620.00,0.0019
2619.00,0.0019
2618.00,0.0019
2617.00,0.0019
2616.00,0.0018
2615.00,0.0018
2614.00,0.0018
2613.00,0.0018
2612.00,0.0018
2611.00,0.0018
2610.00,0.0018
2609.00,0.0018
2608.00,0.0018
2607.00,0.0018
2606.00,0.0018
2605.00,0.0017
2604.00,0.0017
2603.00,0.0018
2602.00,0.0018
2601.00,0.0018
2600.00,0.0018
2599.00,0.0018
2598.00,0.0018
2597.00,0.0018
2596.00,0.0017
2595.00,0.0017
2594.00,0.0017
2593.00,0.0017
2592.00,0.0017
2591.00,0.0017
2590.00,0.0017
2589.00,0.0017
2588.00,0.0017
2587.00,0.0017
2586.00,0.0017
2585.00,0.0017
2584.00,0.0017
2583.00,0.0017
2582.00,0.0017
2581.00,0.0017
2580.00,0.0017
2579.00,0.0017
2578.00,0.0017
2577.00,0.0017
2576.00,0.0017
2575.00,0.0017
2574.00,0.0016
2573.00,0.0016
2572.00,0.0016
2571.00,0.0016
2570.00,0.0016
2569.00,0.0016
2568.00,0.0016
2567.00,0.0016
2566.00,0.0016
2565.00,0.0016
2564.00,0.0016
2563.00,0.0016
2562.00,0.0016
2561.00,0.0015
2560.00,0.0015
2559.00,0.0015
2558.00,0.0014
2557.00,0.0015
2556.00,0.0015
2555.00,0.0015
2554.00,0.0015
2553.00,0.0015
2552.00,0.0014
2551.00,0.0015
2550.00,0.0015
2549.00,0.0015
2548.00,0.0015
2547.00,0.0015
2546.00,0.0014
2545.00,0.0014
2544.00,0.0014
2543.00,0.0013
2542.00,0.0013
2541.00,0.0013
2540.00,0.0013
2539.00,0.0013
2538.00,0.0014
2537.00,0.0014
2536.00,0.0014
2535.00,0.0014
2534.00,0.0013
2533.00,0.0013
2532.00,0.0012
2531.00,0.0012
2530.00,0.0012
2529.00,0.0012
2528.00,0.0012
2527.00,0.0013
2526.00,0.0013
2525.00,0.0013
2524.00,0.0013
2523.00,0.0013
2522.00,0.0013
2521.00,0.0012
2520.00,0.0012
2519.00,0.0012
2518.00,0.0012
2517.00,0.0012
2516.00,0.0012
2515.00,0.0012
2514.00,0.0012
2513.00,0.0012
2512.00,0.0012
2511.00,0.0012
2510.00,0.0011
2509.00,0.0011
2508.00,0.0011
2507.00,0.0011
2506.00,0.0011
2505.00,0.0011
2504.00,0.0011
2503.00,0.0011
2502.00,0.0011
2501.00,0.0011
2500.00,0.0011
2499.00,0.0012
2498.00,0.0012
2497.00,0.0012
2496.00,0.0012
2495.00,0.0012
2494.00,0.0012
2493.00,0.0012
2492.00,0.0012
2491.00,0.0012
2490.00,0.0012
2489.00,0.0012
2488.00,0.0012
2487.00,0.0012
2486.00,0.0012
2485.00,0.0011
2484.00,0.0011
2483.00,0.0011
2482.00,0.0011
2481.00,0.0011
2480.00,0.0011
2479.00,0.0011
2478.00,0.0011
2477.00,0.0011
2476.00,0.0011
2475.00,0.0011
2474.00,0.0011
2473.00,0.0011
2472.00,0.0011
2471.00,0.0011
2470.00,0.0011
2469.00,0.0011
2468.00,0.0011
2467.00,0.0011
2466.00,0.0012
2465.00,0.0012
2464.00,0.0012
2463.00,0.0012
2462.00,0.0012
2461.00,0.0012
2460.00,0.0012
2459.00,0.0013
2458.00,0.0013
2457.00,0.0013
2456.00,0.0012
2455.00,0.0012
2454.00,0.0012
2453.00,0.0012
2452.00,0.0012
2451.00,0.0012
2450.00,0.0012
2449.00,0.0012
2448.00,0.0011
2447.00,0.0011
2446.00,0.0011
2445.00,0.0011
2444.00,0.0011
2443.00,0.0011
2442.00,0.0011
2441.00,0.0011
2440.00,0.0011
2439.00,0.0011
2438.00,0.0011
2437.00,0.0011
2436.00,0.0011
2435.00,0.0011
2434.00,0.0011
2433.00,0.0011
2432.00,0.0011
2431.00,0.0011
2430.00,0.0011
2429.00,0.0011
2428.00,0.0011
2427.00,0.0010
2426.00,0.0010
2425.00,0.0010
2424.00,0.0010
2423.00,0.0010
2422.00,0.0010
2421.00,0.0010
2420.00,0.0011
2419.00,0.0011
2418.00,0.0011
2417.00,0.0010
2416.00,0.0010
2415.00,0.0010
2414.00,0.0010
2413.00,0.0010
2412.00,0.0010
2411.00,0.0011
2410.00,0.0011
2409.00,0.0011
2408.00,0.0010
2407.00,0.0010
2406.00,0.0009
2405.00,0.0009
2404.00,0.0009
2403.00,0.0009
2402.00,0.0009
2401.00,0.0009
2400.00,0.0009
2399.00,0.0009
2398.00,0.0009
2397.00,0.0009
2396.00,0.0009
2395.00,0.0009
2394.00,0.0009
2393.00,0.0009
2392.00,0.0009
2391.00,0.0009
2390.00,0.0009
2389.00,0.0008
2388.00,0.0008
2387.00,0.0008
2386.00,0.0007
2385.00,0.0007
2384.00,0.0007
2383.00,0.0006
2382.00,0.0006
2381.00,0.0006
2380.00,0.0006
2379.00,0.0006
2378.00,0.0006
2377.00,0.0006
2376.00,0.0006
2375.00,0.0006
2374.00,0.0006
2373.00,0.0006
2372.00,0.0005
2371.00,0.0005
2370.00,0.0005
2369.00,0.0005
2368.00,0.0005
2367.00,0.0005
2366.00,0.0005
2365.00,0.0006
2364.00,0.0006
2363.00,0.0007
2362.00,0.0007
2361.00,0.0007
2360.00,0.0007
2359.00,0.0008
2358.00,0.0008
2357.00,0.0008
2356.00,0.0008
2355.00,0.0008
2354.00,0.0007
2353.00,0.0006
2352.00,0.0006
2351.00,0.0006
2350.00,0.0007
2349.00,0.0008
2348.00,0.0008
2347.00,0.0009
2346.00,0.0009
2345.00,0.0009
2344.00,0.0010
2343.00,0.0010
2342.00,0.0010
2341.00,0.0010
2340.00,0.0011
2339.00,0.0011
2338.00,0.0012
2337.00,0.0012
2336.00,0.0011
2335.00,0.0011
2334.00,0.0011
2333.00,0.0011
2332.00,0.0011
2331.00,0.0011
2330.00,0.0012
2329.00,0.0014
2328.00,0.0017
2327.00,0.0021
2326.00,0.0024
2325.00,0.0025
2324.00,0.0024
2323.00,0.0022
2322.00,0.0020
2321.00,0.0019
2320.00,0.0018
2319.00,0.0018
2318.00,0.0018
2317.00,0.0017
2316.00,0.0016
2315.00,0.0016
2314.00,0.0015
2313.00,0.0015
2312.00,0.0014
2311.00,0.0015
2310.00,0.0015
2309.00,0.0015
2308.00,0.0015
2307.00,0.0015
2306.00,0.0015
2305.00,0.0015
2304.00,0.0015
2303.00,0.0016
2302.00,0.0016
2301.00,0.0016
2300.00,0.0017
2299.00,0.0017
2298.00,0.0018
2297.00,0.0019
2296.00,0.0019
2295.00,0.0020
2294.00,0.0021
2293.00,0.0022
2292.00,0.0022
2291.00,0.0023
2290.00,0.0023
2289.00,0.0023
2288.00,0.0024
2287.00,0.0024
2286.00,0.0024
2285.00,0.0023
2284.00,0.0023
2283.00,0.0022
2282.00,0.0021
2281.00,0.0020
2280.00,0.0020
2279.00,0.0019
2278.00,0.0019
2277.00,0.0019
2276.00,0.0019
2275.00,0.0019
2274.00,0.0019
2273.00,0.0019
2272.00,0.0019
2271.00,0.0019
2270.00,0.0018
2269.00,0.0017
2268.00,0.0016
2267.00,0.0015
2266.00,0.0015
2265.00,0.0015
2264.00,0.0015
2263.00,0.0016
2262.00,0.0016
2261.00,0.0017
2260.00,0.0017
2259.00,0.0017
2258.00,0.0016
2257.00,0.0015
2256.00,0.0015
2255.00,0.0014
2254.00,0.0014
2253.00,0.0014
2252.00,0.0014
2251.00,0.0015
2250.00,0.0016
2249.00,0.0016
2248.00,0.0017
2247.00,0.0017
2246.00,0.0017
2245.00,0.0016
2244.00,0.0016
2243.00,0.0016
2242.00,0.0016
2241.00,0.0016
2240.00,0.0016
2239.00,0.0016
2238.00,0.0016
2237.00,0.0015
2236.00,0.0015
2235.00,0.0015
2234.00,0.0015
2233.00,0.0015
2232.00,0.0015
2231.00,0.0016
2230.00,0.0016
2229.00,0.0016
2228.00,0.0016
2227.00,0.0016
2226.00,0.0016
2225.00,0.0015
2224.00,0.0014
2223.00,0.0014
2222.00,0.0015
2221.00,0.0016
2220.00,0.0016
2219.00,0.0017
2218.00,0.0017
2217.00,0.0016
2216.00,0.0016
2215.00,0.0016
2214.00,0.0016
2213.00,0.0016
2212.00,0.0016
2211.00,0.0016
2210.00,0.0015
2209.00,0.0015
2208.00,0.0015
2207.00,0.0015
2206.00,0.0016
2205.00,0.0016
2204.00,0.0016
2203.00,0.0017
2202.00,0.0017
2201.00,0.0017
2200.00,0.0017
2199.00,0.0017
2198.00,0.0017
2197.00,0.0017
2196.00,0.0018
2195.00,0.0019
2194.00,0.0020
2193.00,0.0020
2192.00,0.0021
2191.00,0.0021
2190.00,0.0021
2189.00,0.0021
2188.00,0.0021
2187.00,0.0021
2186.00,0.0020
2185.00,0.0018
2184.00,0.0017
2183.00,0.0015
2182.00,0.0015
2181.00,0.0014
2180.00,0.0014
2179.00,0.0014
2178.00,0.0012
2177.00,0.0011
2176.00,0.0011
2175.00,0.0012
2174.00,0.0013
2173.00,0.0016
2172.00,0.0018
2171.00,0.0021
2170.00,0.0023
2169.00,0.0023
2168.00,0.0024
2167.00,0.0025
2166.00,0.0027
2165.00,0.0029
2164.00,0.0030
2163.00,0.0029
2162.00,0.0023
2161.00,0.0012
2160.00,-0.0002
2159.00,-0.0014
2158.00,-0.0019
2157.00,-0.0018
2156.00,-0.0014
2155.00,-0.0010
2154.00,-0.0006
2153.00,-0.0003
2152.00,-0.0002
2151.00,-0.0001
2150.00,-0.0001
2149.00,-0.0000
2148.00,-0.0000
2147.00,-0.0000
2146.00,-0.0001
2145.00,-0.0002
2144.00,-0.0002
2143.00,-0.0002
2142.00,-0.0002
2141.00,-0.0001
2140.00,-0.0000
2139.00,0.0000
2138.00,-0.0000
2137.00,-0.0002
2136.00,-0.0003
2135.00,-0.0005
2134.00,-0.0005
2133.00,-0.0004
2132.00,-0.0003
2131.00,-0.0001
2130.00,0.0000
2129.00,0.0001
2128.00,0.0002
2127.00,0.0003
2126.00,0.0004
2125.00,0.0005
2124.00,0.0006
2123.00,0.0007
2122.00,0.0008
2121.00,0.0009
2120.00,0.0010
2119.00,0.0012
2118.00,0.0014
2117.00,0.0015
2116.00,0.0017
2115.00,0.0017
2114.00,0.0017
2113.00,0.0016
2112.00,0.0015
2111.00,0.0014
2110.00,0.0014
2109.00,0.0013
2108.00,0.0013
2107.00,0.0012
2106.00,0.0012
2105.00,0.0013
2104.00,0.0014
2103.00,0.0014
2102.00,0.0014
2101.00,0.0014
2100.00,0.0014
2099.00,0.0013
2098.00,0.0012
2097.00,0.0010
2096.00,0.0007
2095.00,0.0006
2094.00,0.0006
2093.00,0.0008
2092.00,0.0010
2091.00,0.0012
2090.00,0.0012
2089.00,0.0013
2088.00,0.0013
2087.00,0.0014
2086.00,0.0015
2085.00,0.0016
2084.00,0.0017
2083.00,0.0018
2082.00,0.0018
2081.00,0.0018
2080.00,0.0017
2079.00,0.0017
2078.00,0.0016
2077.00,0.0016
2076.00,0.0015
2075.00,0.0014
2074.00,0.0014
2073.00,0.0014
2072.00,0.0014
2071.00,0.0014
2070.00,0.0013
2069.00,0.0012
2068.00,0.0011
2067.00,0.0011
2066.00,0.0011
2065.00,0.0012
2064.00,0.0012
2063.00,0.0012
2062.00,0.0012
2061.00,0.0011
2060.00,0.0010
2059.00,0.0011
2058.00,0.0011
2057.00,0.0011
2056.00,0.0011
2055.00,0.0011
2054.00,0.0015
2053.00,0.0020
2052.00,0.0025
2051.00,0.0026
2050.00,0.0022
2049.00,0.0017
2048.00,0.0013
2047.00,0.0012
2046.00,0.0012
2045.00,0.0013
2044.00,0.0014
2043.00,0.0014
2042.00,0.0014
2041.00,0.0014
2040.00,0.0014
2039.00,0.0014
2038.00,0.0015
2037.00,0.0015
2036.00,0.0014
2035.00,0.0012
2034.00,0.0010
2033.00,0.0007
2032.00,0.0006
2031.00,0.0005
2030.00,0.0005
2029.00,0.0004
2028.00,0.0004
2027.00,0.0004
2026.00,0.0004
2025.00,0.0006
2024.00,0.0007
2023.00,0.0007
2022.00,0.0006
2021.00,0.0004
2020.00,0.0003
2019.00,0.0004
2018.00,0.0005
2017.00,0.0006
2016.00,0.0006
2015.00,0.0006
2014.00,0.0007
2013.00,0.0008
2012.00,0.0009
2011.00,0.0009
2010.00,0.0009
2009.00,0.0006
2008.00,0.0002
2007.00,-0.0001
2006.00,-0.0002
2005.00,-0.0002
2004.00,-0.0001
2003.00,-0.0000
2002.00,0.0001
2001.00,0.0003
2000.00,0.0005
1999.00,0.0007
1998.00,0.0008
1997.00,0.0009
1996.00,0.0009
1995.00,0.0009
1994.00,0.0008
1993.00,0.0008
1992.00,0.0008
1991.00,0.0009
1990.00,0.0010
1989.00,0.0010
1988.00,0.0012
1987.00,0.0013
1986.00,0.0014
1985.00,0.0015
1984.00,0.0017
1983.00,0.0019
1982.00,0.0022
1981.00,0.0023
1980.00,0.0021
1979.00,0.0015
1978.00,0.0008
1977.00,0.0003
1976.00,0.0002
1975.00,0.0003
1974.00,0.0003
1973.00,0.0002
1972.00,0.0001
1971.00,-0.0001
1970.00,-0.0002
1969.00,-0.0002
1968.00,-0.0002
1967.00,-0.0000
1966.00,0.0001
1965.00,0.0001
1964.00,-0.0000
1963.00,-0.0001
1962.00,-0.0003
1961.00,-0.0005
1960.00,-0.0005
1959.00,-0.0005
1958.00,-0.0004
1957.00,-0.0003
1956.00,-0.0001
1955.00,0.0000
1954.00,0.0000
1953.00,-0.0001
1952.00,-0.0001
1951.00,-0.0001
1950.00,-0.0001
1949.00,-0.0000
1948.00,0.0001
1947.00,0.0001
1946.00,0.0001
1945.00,0.0001
1944.00,0.0000
1943.00,0.0000
1942.00,0.0001
1941.00,0.0001
1940.00,0.0001
1939.00,0.0001
1938.00,0.0000
1937.00,-0.0000
1936.00,-0.0000
1935.00,-0.0000
1934.00,-0.0000
1933.00,-0.0000
1932.00,-0.0000
1931.00,-0.0000
1930.00,0.0000
1929.00,0.0001
1928.00,0.0002
1927.00,0.0002
1926.00,0.0002
1925.00,0.0002
1924.00,0.0002
1923.00,0.0004
1922.00,0.0005
1921.00,0.0005
1920.00,0.0005
1919.00,0.0006
1918.00,0.0005
1917.00,0.0005
1916.00,0.0005
1915.00,0.0005
1914.00,0.0005
1913.00,0.0005
1912.00,0.0005
1911.00,0.0005
1910.00,0.0005
1909.00,0.0006
1908.00,0.0006
1907.00,0.0006
1906.00,0.0005
1905.00,0.0005
1904.00,0.0005
1903.00,0.0005
1902.00,0.0005
1901.00,0.0005
1900.00,0.0005
1899.00,0.0005
1898.00,0.0005
1897.00,0.0005
1896.00,0.0005
1895.00,0.0006
1894.00,0.0005
1893.00,0.0005
1892.00,0.0005
1891.00,0.0004
1890.00,0.0004
1889.00,0.0004
1888.00,0.0004
1887.00,0.0004
1886.00,0.0004
1885.00,0.0004
1884.00,0.0004
1883.00,0.0005
1882.00,0.0005
1881.00,0.0005
1880.00,0.0005
1879.00,0.0005
1878.00,0.0005
1877.00,0.0005
1876.00,0.0005
1875.00,0.0005
1874.00,0.0005
1873.00,0.0005
1872.00,0.0005
1871.00,0.0005
1870.00,0.0005
1869.00,0.0004
1868.00,0.0004
1867.00,0.0005
1866.00,0.0005
1865.00,0.0005
1864.00,0.0005
1863.00,0.0006
1862.00,0.0005
1861.00,0.0005
1860.00,0.0005
1859.00,0.0005
1858.00,0.0005
1857.00,0.0006
1856.00,0.0006
1855.00,0.0006
1854.00,0.0006
1853.00,0.0006
1852.00,0.0006
1851.00,0.0006
1850.00,0.0006
1849.00,0.0005
1848.00,0.0005
1847.00,0.0005
1846.00,0.0005
1845.00,0.0004
1844.00,0.0004
1843.00,0.0004
1842.00,0.0004
1841.00,0.0004
1840.00,0.0005
1839.00,0.0005
1838.00,0.0005
1837.00,0.0005
1836.00,0.0005
1835.00,0.0005
1834.00,0.0005
1833.00,0.0005
1832.00,0.0005
1831.00,0.0005
1830.00,0.0005
1829.00,0.0005
1828.00,0.0005
1827.00,0.0005
1826.00,0.0005
1825.00,0.0006
1824.00,0.0006
1823.00,0.0006
1822.00,0.0006
1821.00,0.0005
1820.00,0.0004
1819.00,0.0003
1818.00,0.0003
1817.00,0.0002
1816.00,0.0003
1815.00,0.0003
1814.00,0.0004
1813.00,0.0005
1812.00,0.0005
1811.00,0.0006
1810.00,0.0006
1809.00,0.0006
1808.00,0.0006
1807.00,0.0006
1806.00,0.0006
1805.00,0.0006
1804.00,0.0006
1803.00,0.0006
1802.00,0.0007
1801.00,0.0007
1800.00,0.0007
1799.00,0.0007
1798.00,0.0007
1797.00,0.0007
1796.00,0.0006
1795.00,0.0006
1794.00,0.0006
1793.00,0.0006
1792.00,0.0006
1791.00,0.0007
1790.00,0.0007
1789.00,0.0007
1788.00,0.0007
1787.00,0.0007
1786.00,0.0008
1785.00,0.0008
1784.00,0.0008
1783.00,0.0008
1782.00,0.0008
1781.00,0.0008
1780.00,0.0008
1779.00,0.0008
1778.00,0.0008
1777.00,0.0008
1776.00,0.0008
1775.00,0.0008
1774.00,0.0008
1773.00,0.0008
1772.00,0.0008
1771.00,0.0008
1770.00,0.0007
1769.00,0.0007
1768.00,0.0008
1767.00,0.0008
1766.00,0.0009
1765.00,0.0009
1764.00,0.0009
1763.00,0.0009
1762.00,0.0010
1761.00,0.0010
1760.00,0.0009
1759.00,0.0009
1758.00,0.0009
1757.00,0.0009
1756.00,0.0010
1755.00,0.0010
1754.00,0.0010
1753.00,0.0010
1752.00,0.0010
1751.00,0.0010
1750.00,0.0010
1749.00,0.0010
1748.00,0.0010
1747.00,0.0010
1746.00,0.0010
1745.00,0.0010
1744.00,0.0011
1743.00,0.0011
1742.00,0.0011
1741.00,0.0011
1740.00,0.0011
1739.00,0.0012
1738.00,0.0012
1737.00,0.0012
1736.00,0.0012
1735.00,0.0012
1734.00,0.0013
1733.00,0.0012
1732.00,0.0013
1731.00,0.0014
1730.00,0.0014
1729.00,0.0015
1728.00,0.0016
1727.00,0.0017
1726.00,0.0017
1725.00,0.0018
1724.00,0.0018
1723.00,0.0019
1722.00,0.0019
1721.00,0.0019
1720.00,0.0020
1719.00,0.0021
1718.00,0.0021
1717.00,0.0021
1716.00,0.0021
1715.00,0.0022
1714.00,0.0023
1713.00,0.0025
1712.00,0.0027
1711.00,0.0029
1710.00,0.0030
1709.00,0.0031
1708.00,0.0033
1707.00,0.0034
1706.00,0.0036
1705.00,0.0037
1704.00,0.0039
1703.00,0.0042
1702.00,0.0045
1701.00,0.0049
1700.00,0.0053
1699.00,0.0058
1698.00,0.0064
1697.00,0.0070
1696.00,0.0077
1695.00,0.0083
1694.00,0.0090
1693.00,0.0099
1692.00,0.0109
1691.00,0.0119
1690.00,0.0131
1689.00,0.0142
1688.00,0.0154
1687.00,0.0168
1686.00,0.0182
1685.00,0.0194
1684.00,0.0202
1683.00,0.0210
1682.00,0.0222
1681.00,0.0237
1680.00,0.0253
1679.00,0.0269
1678.00,0.0285
1677.00,0.0301
1676.00,0.0314
1675.00,0.0323
1674.00,0.0331
1673.00,0.0344
1672.00,0.0361
1671.00,0.0378
1670.00,0.0388
1669.00,0.0393
1668.00,0.0400
1667.00,0.0413
1666.00,0.0431
1665.00,0.0451
1664.00,0.0468
1663.00,0.0479
1662.00,0.0484
1661.00,0.0492
1660.00,0.0505
1659.00,0.0521
1658.00,0.0539
1657.00,0.0559
1656.00,0.0584
1655.00,0.0609
1654.00,0.0612
1653.00,0.0578
1652.00,0.0546
1651.00,0.0548
1650.00,0.0570
1649.00,0.0595
1648.00,0.0608
1647.00,0.0598
1646.00,0.0576
1645.00,0.0561
1644.00,0.0559
1643.00,0.0563
1642.00,0.0567
1641.00,0.0566
1640.00,0.0563
1639.00,0.0562
1638.00,0.0561
1637.00,0.0552
1636.00,0.0524
1635.00,0.0487
1634.00,0.0461
1633.00,0.0452
1632.00,0.0451
1631.00,0.0451
1630.00,0.0448
1629.00,0.0440
1628.00,0.0429
1627.00,0.0417
1626.00,0.0408
1625.00,0.0400
1624.00,0.0389
1623.00,0.0373
1622.00,0.0357
1621.00,0.0346
1620.00,0.0340
1619.00,0.0336
1618.00,0.0326
1617.00,0.0308
1616.00,0.0288
1615.00,0.0273
1614.00,0.0266
1613.00,0.0262
1612.00,0.0258
1611.00,0.0252
1610.00,0.0244
1609.00,0.0234
1608.00,0.0224
1607.00,0.0214
1606.00,0.0204
1605.00,0.0194
1604.00,0.0185
1603.00,0.0176
1602.00,0.0167
1601.00,0.0160
1600.00,0.0153
1599.00,0.0147
1598.00,0.0142
1597.00,0.0138
1596.00,0.0135
1595.00,0.0132
1594.00,0.0131
1593.00,0.0130
1592.00,0.0131
1591.00,0.0132
1590.00,0.0133
1589.00,0.0134
1588.00,0.0134
1587.00,0.0133
1586.00,0.0131
1585.00,0.0130
1584.00,0.0127
1583.00,0.0124
1582.00,0.0122
1581.00,0.0119
1580.00,0.0116
1579.00,0.0114
1578.00,0.0112
1577.00,0.0109
1576.00,0.0103
1575.00,0.0098
1574.00,0.0095
1573.00,0.0093
1572.00,0.0092
1571.00,0.0091
1570.00,0.0089
1569.00,0.0086
1568.00,0.0084
1567.00,0.0082
1566.00,0.0081
1565.00,0.0078
1564.00,0.0076
1563.00,0.0073
1562.00,0.0071
1561.00,0.0069
1560.00,0.0067
1559.00,0.0062
1558.00,0.0058
1557.00,0.0057
1556.00,0.0057
1555.00,0.0057
1554.00,0.0057
1553.00,0.0057
1552.00,0.0056
1551.00,0.0056
1550.00,0.0055
1549.00,0.0054
1548.00,0.0053
1547.00,0.0053
1546.00,0.0052
1545.00,0.0051
1544.00,0.0050
1543.00,0.0049
1542.00,0.0048
1541.00,0.0047
1540.00,0.0046
1539.00,0.0045
1538.00,0.0045
1537.00,0.0045
1536.00,0.0045
1535.00,0.0045
1534.00,0.0045
1533.00,0.0045
1532.00,0.0044
1531.00,0.0044
1530.00,0.0045
1529.00,0.0045
1528.00,0.0045
1527.00,0.0045
1526.00,0.0045
1525.00,0.0045
1524.00,0.0045
1523.00,0.0045
1522.00,0.0046
1521.00,0.0046
1520.00,0.0046
1519.00,0.0047
1518.00,0.0048
1517.00,0.0049
1516.00,0.0049
1515.00,0.0050
1514.00,0.0051
1513.00,0.0053
1512.00,0.0054
1511.00,0.0055
1510.00,0.0056
1509.00,0.0057
1508.00,0.0060
1507.00,0.0063
1506.00,0.0067
1505.00,0.0072
1504.00,0.0079
1503.00,0.0086
1502.00,0.0094
1501.00,0.0104
1500.00,0.0114
1499.00,0.0124
1498.00,0.0134
1497.00,0.0140
1496.00,0.0143
1495.00,0.0143
1494.00,0.0143
1493.00,0.0142
1492.00,0.0140
1491.00,0.0135
1490.00,0.0126
1489.00,0.0116
1488.00,0.0107
1487.00,0.0100
1486.00,0.0094
1485.00,0.0089
1484.00,0.0085
1483.00,0.0081
1482.00,0.0078
1481.00,0.0076
1480.00,0.0075
1479.00,0.0075
1478.00,0.0076
1477.00,0.0078
1476.00,0.0081
1475.00,0.0085
1474.00,0.0091
1473.00,0.0100
1472.00,0.0111
1471.00,0.0124
1470.00,0.0139
1469.00,0.0155
1468.00,0.0173
1467.00,0.0191
1466.00,0.0208
1465.00,0.0224
1464.00,0.0236
1463.00,0.0245
1462.00,0.0253
1461.00,0.0259
1460.00,0.0262
1459.00,0.0261
1458.00,0.0249
1457.00,0.0226
1456.00,0.0203
1455.00,0.0190
1454.00,0.0185
1453.00,0.0184
1452.00,0.0184
1451.00,0.0186
1450.00,0.0189
1449.00,0.0195
1448.00,0.0202
1447.00,0.0211
1446.00,0.0222
1445.00,0.0235
1444.00,0.0250
1443.00,0.0264
1442.00,0.0277
1441.00,0.0289
1440.00,0.0300
1439.00,0.0310
1438.00,0.0316
1437.00,0.0316
1436.00,0.0311
1435.00,0.0307
1434.00,0.0307
1433.00,0.0310
1432.00,0.0311
1431.00,0.0311
1430.00,0.0311
1429.00,0.0313
1428.00,0.0320
1427.00,0.0329
1426.00,0.0341
1425.00,0.0352
1424.00,0.0360
1423.00,0.0366
1422.00,0.0369
1421.00,0.0369
1420.00,0.0359
1419.00,0.0336
1418.00,0.0307
1417.00,0.0283
1416.00,0.0264
1415.00,0.0247
1414.00,0.0230
1413.00,0.0214
1412.00,0.0199
1411.00,0.0186
1410.00,0.0175
1409.00,0.0167
1408.00,0.0161
1407.00,0.0157
1406.00,0.0153
1405.00,0.0150
1404.00,0.0147
1403.00,0.0145
1402.00,0.0143
1401.00,0.0142
1400.00,0.0140
1399.00,0.0136
1398.00,0.0132
1397.00,0.0129
1396.00,0.0125
1395.00,0.0121
1394.00,0.0118
1393.00,0.0115
1392.00,0.0114
1391.00,0.0114
1390.00,0.0115
1389.00,0.0117
1388.00,0.0119
1387.00,0.0122
1386.00,0.0124
1385.00,0.0125
1384.00,0.0127
1383.00,0.0129
1382.00,0.0132
1381.00,0.0135
1380.00,0.0138
1379.00,0.0141
1378.00,0.0144
1377.00,0.0147
1376.00,0.0149
1375.00,0.0150
1374.00,0.0149
1373.00,0.0147
1372.00,0.0146
1371.00,0.0145
1370.00,0.0146
1369.00,0.0146
1368.00,0.0146
1367.00,0.0145
1366.00,0.0145
1365.00,0.0143
1364.00,0.0141
1363.00,0.0139
1362.00,0.0136
1361.00,0.0135
1360.00,0.0134
1359.00,0.0132
1358.00,0.0128
1357.00,0.0123
1356.00,0.0118
1355.00,0.0113
1354.00,0.0110
1353.00,0.0108
1352.00,0.0106
1351.00,0.0105
1350.00,0.0105
1349.00,0.0104
1348.00,0.0103
1347.00,0.0102
1346.00,0.0100
1345.00,0.0099
1344.00,0.0097
1343.00,0.0095
1342.00,0.0094
1341.00,0.0092
1340.00,0.0091
1339.00,0.0090
1338.00,0.0091
1337.00,0.0092
1336.00,0.0094
1335.00,0.0097
1334.00,0.0100
1333.00,0.0103
1332.00,0.0105
1331.00,0.0108
1330.00,0.0111
1329.00,0.0114
1328.00,0.0117
1327.00,0.0121
1326.00,0.0126
1325.00,0.0131
1324.00,0.0136
1323.00,0.0142
1322.00,0.0148
1321.00,0.0153
1320.00,0.0157
1319.00,0.0160
1318.00,0.0162
1317.00,0.0162
1316.00,0.0162
1315.00,0.0160
1314.00,0.0158
1313.00,0.0155
1312.00,0.0152
1311.00,0.0150
1310.00,0.0149
1309.00,0.0149
1308.00,0.0149
1307.00,0.0152
1306.00,0.0155
1305.00,0.0161
1304.00,0.0167
1303.00,0.0175
1302.00,0.0183
1301.00,0.0192
1300.00,0.0203
1299.00,0.0217
1298.00,0.0233
1297.00,0.0253
1296.00,0.0276
1295.00,0.0300
1294.00,0.0324
1293.00,0.0348
1292.00,0.0369
1291.00,0.0388
1290.00,0.0405
1289.00,0.0418
1288.00,0.0428
1287.00,0.0434
1286.00,0.0436
1285.00,0.0434
1284.00,0.0428
1283.00,0.0419
1282.00,0.0408
1281.00,0.0398
1280.00,0.0390
1279.00,0.0383
1278.00,0.0380
1277.00,0.0379
1276.00,0.0380
1275.00,0.0381
1274.00,0.0381
1273.00,0.0380
1272.00,0.0377
1271.00,0.0371
1270.00,0.0364
1269.00,0.0354
1268.00,0.0343
1267.00,0.0330
1266.00,0.0317
1265.00,0.0303
1264.00,0.0288
1263.00,0.0274
1262.00,0.0261
1261.00,0.0248
1260.00,0.0236
1259.00,0.0226
1258.00,0.0216
1257.00,0.0208
1256.00,0.0200
1255.00,0.0193
1254.00,0.0188
1253.00,0.0183
1252.00,0.0179
1251.00,0.0176
1250.00,0.0175
1249.00,0.0175
1248.00,0.0175
1247.00,0.0176
1246.00,0.0178
1245.00,0.0179
1244.00,0.0180
1243.00,0.0181
1242.00,0.0183
1241.00,0.0185
1240.00,0.0187
1239.00,0.0191
1238.00,0.0195
1237.00,0.0200
1236.00,0.0204
1235.00,0.0206
1234.00,0.0208
1233.00,0.0209
1232.00,0.0209
1231.00,0.0208
1230.00,0.0208
1229.00,0.0207
1228.00,0.0206
1227.00,0.0205
1226.00,0.0204
1225.00,0.0203
1224.00,0.0202
1223.00,0.0202
1222.00,0.0202
1221.00,0.0202
1220.00,0.0203
1219.00,0.0204
1218.00,0.0205
1217.00,0.0206
1216.00,0.0207
1215.00,0.0206
1214.00,0.0204
1213.00,0.0201
1212.00,0.0196
1211.00,0.0191
1210.00,0.0186
1209.00,0.0181
1208.00,0.0177
1207.00,0.0174
1206.00,0.0171
1205.00,0.0169
1204.00,0.0168
1203.00,0.0168
1202.00,0.0169
1201.00,0.0170
1200.00,0.0171
1199.00,0.0173
1198.00,0.0175
1197.00,0.0176
1196.00,0.0176
1195.00,0.0175
1194.00,0.0172
1193.00,0.0168
1192.00,0.0163
1191.00,0.0157
1190.00,0.0152
1189.00,0.0148
1188.00,0.0144
1187.00,0.0140
1186.00,0.0138
1185.00,0.0136
1184.00,0.0134
1183.00,0.0133
1182.00,0.0132
1181.00,0.0132
1180.00,0.0132
1179.00,0.0133
1178.00,0.0134
1177.00,0.0136
1176.00,0.0137
1175.00,0.0138
1174.00,0.0140
1173.00,0.0141
1172.00,0.0142
1171.00,0.0143
1170.00,0.0144
1169.00,0.0144
1168.00,0.0144
1167.00,0.0143
1166.00,0.0142
1165.00,0.0141
1164.00,0.0140
1163.00,0.0139
1162.00,0.0139
1161.00,0.0140
1160.00,0.0141
1159.00,0.0142
1158.00,0.0145
1157.00,0.0148
1156.00,0.0150
1155.00,0.0151
1154.00,0.0149
1153.00,0.0145
1152.00,0.0139
1151.00,0.0133
1150.00,0.0126
1149.00,0.0120
1148.00,0.0115
1147.00,0.0112
1146.00,0.0109
1145.00,0.0107
1144.00,0.0105
1143.00,0.0103
1142.00,0.0102
1141.00,0.0100
1140.00,0.0100
1139.00,0.0100
1138.00,0.0100
1137.00,0.0102
1136.00,0.0104
1135.00,0.0108
1134.00,0.0114
1133.00,0.0121
1132.00,0.0128
1131.00,0.0134
1130.00,0.0139
1129.00,0.0141
1128.00,0.0139
1127.00,0.0137
1126.00,0.0133
1125.00,0.0129
1124.00,0.0125
1123.00,0.0120
1122.00,0.0116
1121.00,0.0113
1120.00,0.0111
1119.00,0.0109
1118.00,0.0109
1117.00,0.0109
1116.00,0.0109
1115.00,0.0109
1114.00,0.0108
1113.00,0.0107
1112.00,0.0106
1111.00,0.0105
1110.00,0.0104
1109.00,0.0104
1108.00,0.0104
1107.00,0.0105
1106.00,0.0106
1105.00,0.0109
1104.00,0.0112
1103.00,0.0116
1102.00,0.0121
1101.00,0.0124
1100.00,0.0125
1099.00,0.0124
1098.00,0.0122
1097.00,0.0118
1096.00,0.0114
1095.00,0.0109
1094.00,0.0106
1093.00,0.0104
1092.00,0.0101
1091.00,0.0099
1090.00,0.0098
1089.00,0.0097
1088.00,0.0096
1087.00,0.0096
1086.00,0.0096
1085.00,0.0096
1084.00,0.0096
1083.00,0.0096
1082.00,0.0096
1081.00,0.0096
1080.00,0.0096
1079.00,0.0097
1078.00,0.0098
1077.00,0.0099
1076.00,0.0100
1075.00,0.0100
1074.00,0.0101
1073.00,0.0102
1072.00,0.0102
1071.00,0.0102
1070.00,0.0102
1069.00,0.0102
1068.00,0.0103
1067.00,0.0104
1066.00,0.0106
1065.00,0.0108
1064.00,0.0110
1063.00,0.0112
1062.00,0.0116
1061.00,0.0120
1060.00,0.0124
1059.00,0.0129
1058.00,0.0134
1057.00,0.0140
1056.00,0.0145
1055.00,0.0149
1054.00,0.0153
1053.00,0.0156
1052.00,0.0159
1051.00,0.0162
1050.00,0.0164
1049.00,0.0164
1048.00,0.0160
1047.00,0.0155
1046.00,0.0149
1045.00,0.0143
1044.00,0.0136
1043.00,0.0131
1042.00,0.0127
1041.00,0.0124
1040.00,0.0122
1039.00,0.0122
1038.00,0.0123
1037.00,0.0125
1036.00,0.0126
1035.00,0.0126
1034.00,0.0127
1033.00,0.0129
1032.00,0.0131
1031.00,0.0136
1030.00,0.0142
1029.00,0.0149
1028.00,0.0156
1027.00,0.0161
1026.00,0.0163
1025.00,0.0163
1024.00,0.0159
1023.00,0.0155
1022.00,0.0151
1021.00,0.0147
1020.00,0.0143
1019.00,0.0140
1018.00,0.0137
1017.00,0.0133
1016.00,0.0129
1015.00,0.0125
1014.00,0.0121
1013.00,0.0118
1012.00,0.0115
1011.00,0.0114
1010.00,0.0115
1009.00,0.0118
1008.00,0.0121
1007.00,0.0124
1006.00,0.0128
1005.00,0.0130
1004.00,0.0132
1003.00,0.0131
1002.00,0.0130
1001.00,0.0128
1000.00,0.0125
999.00,0.0121
998.00,0.0119
997.00,0.0116
996.00,0.0113
995.00,0.0111
994.00,0.0109
993.00,0.0107
992.00,0.0104
991.00,0.0101
990.00,0.0098
989.00,0.0096
988.00,0.0093
987.00,0.0091
986.00,0.0090
985.00,0.0088
984.00,0.0087
983.00,0.0086
982.00,0.0085
981.00,0.0084
980.00,0.0083
979.00,0.0082
978.00,0.0082
977.00,0.0082
976.00,0.0081
975.00,0.0080
974.00,0.0080
973.00,0.0079
972.00,0.0078
971.00,0.0078
970.00,0.0077
969.00,0.0077
968.00,0.0077
967.00,0.0077
966.00,0.0078
965.00,0.0078
964.00,0.0079
963.00,0.0080
962.00,0.0080
961.00,0.0080
960.00,0.0078
959.00,0.0077
958.00,0.0076
957.00,0.0074
956.00,0.0073
955.00,0.0071
954.00,0.0069
953.00,0.0068
952.00,0.0066
951.00,0.0065
950.00,0.0065
949.00,0.0065
948.00,0.0065
947.00,0.0064
946.00,0.0065
945.00,0.0065
944.00,0.0067
943.00,0.0069
942.00,0.0072
941.00,0.0075
940.00,0.0079
939.00,0.0082
938.00,0.0085
937.00,0.0088
936.00,0.0090
935.00,0.0093
934.00,0.0094
933.00,0.0095
932.00,0.0094
931.00,0.0092
930.00,0.0091
929.00,0.0090
928.00,0.0089
927.00,0.0088
926.00,0.0089
925.00,0.0090
924.00,0.0090
923.00,0.0089
922.00,0.0088
921.00,0.0086
920.00,0.0083
919.00,0.0081
918.00,0.0079
917.00,0.0077
916.00,0.0076
915.00,0.0075
914.00,0.0075
913.00,0.0075
912.00,0.0075
911.00,0.0075
910.00,0.0076
909.00,0.0077
908.00,0.0078
907.00,0.0080
906.00,0.0082
905.00,0.0085
904.00,0.0088
903.00,0.0091
902.00,0.0094
901.00,0.0097
900.00,0.0097
899.00,0.0097
898.00,0.0096
897.00,0.0094
896.00,0.0092
895.00,0.0091
894.00,0.0091
893.00,0.0091
892.00,0.0092
891.00,0.0093
890.00,0.0094
889.00,0.0094
888.00,0.0091
887.00,0.0088
886.00,0.0084
885.00,0.0082
884.00,0.0080
883.00,0.0079
882.00,0.0079
881.00,0.0081
880.00,0.0082
879.00,0.0084
878.00,0.0088
877.00,0.0092
876.00,0.0096
875.00,0.0101
874.00,0.0108
873.00,0.0115
872.00,0.0120
871.00,0.0123
870.00,0.0123
869.00,0.0120
868.00,0.0116
867.00,0.0113
866.00,0.0111
865.00,0.0109
864.00,0.0108
863.00,0.0106
862.00,0.0105
861.00,0.0105
860.00,0.0106
859.00,0.0109
858.00,0.0113
857.00,0.0119
856.00,0.0124
855.00,0.0128
854.00,0.0133
853.00,0.0138
852.00,0.0144
851.00,0.0151
850.00,0.0158
849.00,0.0162
848.00,0.0161
847.00,0.0159
846.00,0.0156
845.00,0.0152
844.00,0.0149
843.00,0.0148
842.00,0.0148
841.00,0.0148
840.00,0.0148
839.00,0.0150
838.00,0.0154
837.00,0.0157
836.00,0.0160
835.00,0.0161
834.00,0.0159
833.00,0.0155
832.00,0.0150
831.00,0.0144
830.00,0.0138
829.00,0.0132
828.00,0.0127
827.00,0.0123
826.00,0.0122
825.00,0.0122
824.00,0.0124
823.00,0.0128
822.00,0.0134
821.00,0.0142
820.00,0.0150
819.00,0.0158
818.00,0.0166
817.00,0.0170
816.00,0.0168
815.00,0.0158
814.00,0.0144
813.00,0.0130
812.00,0.0118
811.00,0.0111
810.00,0.0107
809.00,0.0105
808.00,0.0103
807.00,0.0102
806.00,0.0102
805.00,0.0102
804.00,0.0101
803.00,0.0101
802.00,0.0102
801.00,0.0102
800.00,0.0102
799.00,0.0102
798.00,0.0103
797.00,0.0104
796.00,0.0105
795.00,0.0106
794.00,0.0106
793.00,0.0106
792.00,0.0106
791.00,0.0106
790.00,0.0107
789.00,0.0108
788.00,0.0109
787.00,0.0110
786.00,0.0111
785.00,0.0112
784.00,0.0113
783.00,0.0114
782.00,0.0115
781.00,0.0117
780.00,0.0118
779.00,0.0120
778.00,0.0123
777.00,0.0125
776.00,0.0128
775.00,0.0130
774.00,0.0132
773.00,0.0133
772.00,0.0132
771.00,0.0132
770.00,0.0133
769.00,0.0134
768.00,0.0135
767.00,0.0135
766.00,0.0138
765.00,0.0140
764.00,0.0143
763.00,0.0146
762.00,0.0150
761.00,0.0153
760.00,0.0155
759.00,0.0157
758.00,0.0159
757.00,0.0161
756.00,0.0162
755.00,0.0164
754.00,0.0166
753.00,0.0168
752.00,0.0170
751.00,0.0172
750.00,0.0175
749.00,0.0178
748.00,0.0180
747.00,0.0182
746.00,0.0185
745.00,0.0188
744.00,0.0191
743.00,0.0195
742.00,0.0199
741.00,0.0204
740.00,0.0209
739.00,0.0215
738.00,0.0222
737.00,0.0229
736.00,0.0233
735.00,0.0234
734.00,0.0235
733.00,0.0235
732.00,0.0236
731.00,0.0238
730.00,0.0241
729.00,0.0242
728.00,0.0239
727.00,0.0233
726.00,0.0226
725.00,0.0220
724.00,0.0214
723.00,0.0210
722.00,0.0207
721.00,0.0206
720.00,0.0205
719.00,0.0206
718.00,0.0208
717.00,0.0211
716.00,0.0212
715.00,0.0213
714.00,0.0214
713.00,0.0213
712.00,0.0211
711.00,0.0209
710.00,0.0208
709.00,0.0208
708.00,0.0208
707.00,0.0208
706.00,0.0210
705.00,0.0212
704.00,0.0213
703.00,0.0215
702.00,0.0218
701.00,0.0220
700.00,0.0221
699.00,0.0222
698.00,0.0224
697.00,0.0224
696.00,0.0223
695.00,0.0222
694.00,0.0223
693.00,0.0225
692.00,0.0228
691.00,0.0231
690.00,0.0236
689.00,0.0239
688.00,0.0240
687.00,0.0240
686.00,0.0241
685.00,0.0242
684.00,0.0243
683.00,0.0245
682.00,0.0248
681.00,0.0250
680.00,0.0252
679.00,0.0254
678.00,0.0258
677.00,0.0261
676.00,0.0264
675.00,0.0267
674.00,0.0271
673.00,0.0275
672.00,0.0279
671.00,0.0282
670.00,0.0286
669.00,0.0288
668.00,0.0287
667.00,0.0285
666.00,0.0288
665.00,0.0293
664.00,0.0298
663.00,0.0304
662.00,0.0309
661.00,0.0314
660.00,0.0316
659.00,0.0318
658.00,0.0321
657.00,0.0325
656.00,0.0328
655.00,0.0332
654.00,0.0336
653.00,0.0341
652.00,0.0344
651.00,0.0346
650.00,0.0349
649.00,0.0351
648.00,0.0351
647.00,0.0352
646.00,0.0353
645.00,0.0353
644.00,0.0352
643.00,0.0351
642.00,0.0350
641.00,0.0349
640.00,0.0345
639.00,0.0343
638.00,0.0341
637.00,0.0340
636.00,0.0337
635.00,0.0334
634.00,0.0334
633.00,0.0333
632.00,0.0332
631.00,0.0330
630.00,0.0330
629.00,0.0330
628.00,0.0329
627.00,0.0329
626.00,0.0329
625.00,0.0330
624.00,0.0331
623.00,0.0332
622.00,0.0335
621.00,0.0337
620.00,0.0336
619.00,0.0335
618.00,0.0334
617.00,0.0332
616.00,0.0330
615.00,0.0327
614.00,0.0326
613.00,0.0325
612.00,0.0324
611.00,0.0323
610.00,0.0324
609.00,0.0327
608.00,0.0331
607.00,0.0336
606.00,0.0342
605.00,0.0346
604.00,0.0348
603.00,0.0351
602.00,0.0354
601.00,0.0358
600.00,0.0361
599.00,0.0362
598.00,0.0364
597.00,0.0365
596.00,0.0365
595.00,0.0364
594.00,0.0365
593.00,0.0366
592.00,0.0365
591.00,0.0365
590.00,0.0367
589.00,0.0368
588.00,0.0369
587.00,0.0371
586.00,0.0374
585.00,0.0377
584.00,0.0380
583.00,0.0383
582.00,0.0388
581.00,0.0394
580.00,0.0400
579.00,0.0408
578.00,0.0416
577.00,0.0423
576.00,0.0425
575.00,0.0425
574.00,0.0424
573.00,0.0422
572.00,0.0418
571.00,0.0414
570.00,0.0412
569.00,0.0411
568.00,0.0409
567.00,0.0408
566.00,0.0409
565.00,0.0412
564.00,0.0413
563.00,0.0416
562.00,0.0420
561.00,0.0422
560.00,0.0420
559.00,0.0417
558.00,0.0415
557.00,0.0412
556.00,0.0407
555.00,0.0403
554.00,0.0401
553.00,0.0401
552.00,0.0400
551.00,0.0401
550.00,0.0404
549.00,0.0408
548.00,0.0408
547.00,0.0408
546.00,0.0408
545.00,0.0406
544.00,0.0403
543.00,0.0401
542.00,0.0400
541.00,0.0398
540.00,0.0394
539.00,0.0392
538.00,0.0392
537.00,0.0393
536.00,0.0393
535.00,0.0394
534.00,0.0398
533.00,0.0402
532.00,0.0402
531.00,0.0401
530.00,0.0401
529.00,0.0401
528.00,0.0398
527.00,0.0394
526.00,0.0392
525.00,0.0389
524.00,0.0386
523.00,0.0385
522.00,0.0388
521.00,0.0389
520.00,0.0386
519.00,0.0382
518.00,0.0382
517.00,0.0383
516.00,0.0382
515.00,0.0381
514.00,0.0383
513.00,0.0385
512.00,0.0384
511.00,0.0384
510.00,0.0385
509.00,0.0387
508.00,0.0385
507.00,0.0384
506.00,0.0385
505.00,0.0386
504.00,0.0384
503.00,0.0383
502.00,0.0384
501.00,0.0385
500.00,0.0383
499.00,0.0382
498.00,0.0385
497.00,0.0385
496.00,0.0383
495.00,0.0381
494.00,0.0384
493.00,0.0386
492.00,0.0385
491.00,0.0384
490.00,0.0386
489.00,0.0388
488.00,0.0387
487.00,0.0387
486.00,0.0389
485.00,0.0390
484.00,0.0387
483.00,0.0385
482.00,0.0387
481.00,0.0389
480.00,0.0388
479.00,0.0388
478.00,0.0392
477.00,0.0394
476.00,0.0391
475.00,0.0389
474.00,0.0390
473.00,0.0391
472.00,0.0387
471.00,0.0385
470.00,0.0388
469.00,0.0391
468.00,0.0389
467.00,0.0386
466.00,0.0387
465.00,0.0390
464.00,0.0389
463.00,0.0389
462.00,0.0393
461.00,0.0397
460.00,0.0396
459.00,0.0393
458.00,0.0392
457.00,0.0389
456.00,0.0381
455.00,0.0377
454.00,0.0378
453.00,0.0378
452.00,0.0372
451.00,0.0368
450.00,0.0371
449.00,0.0374
448.00,0.0373
447.00,0.0372
446.00,0.0374
445.00,0.0375
444.00,0.0371
443.00,0.0367
442.00,0.0367
441.00,0.0366
440.00,0.0360
439.00,0.0357
438.00,0.0359
437.00,0.0361
436.00,0.0355
435.00,0.0348
434.00,0.0345
433.00,0.0345
432.00,0.0343
431.00,0.0346
430.00,0.0353
429.00,0.0357
428.00,0.0351
427.00,0.0344
426.00,0.0343
425.00,0.0340
424.00,0.0332
423.00,0.0327
422.00,0.0334
421.00,0.0341
420.00,0.0341
419.00,0.0340
418.00,0.0345
417.00,0.0345
416.00,0.0336
415.00,0.0334
414.00,0.0342
413.00,0.0348
412.00,0.0342
411.00,0.0338
410.00,0.0347
409.00,0.0355
408.00,0.0349
407.00,0.0336
406.00,0.0331
405.00,0.0328
404.00,0.0323
403.00,0.0330
402.00,0.0353
401.00,0.0365
400.00,0.0352
