Created as New Dataset,Sample 1024 By YargerLab Date Friday, August 01 2025
cm-1,A
4000.00,0.0108
3999.00,0.0108
3998.00,0.0108
3997.00,0.0108
3996.00,0.0108
3995.00,0.0108
3994.00,0.0108
3993.00,0.0108
3992.00,0.0108
3991.00,0.0108
3990.00,0.0108
3989.00,0.0108
3988.00,0.0108
3987.00,0.0108
3986.00,0.0108
3985.00,0.0108
3984.00,0.0108
3983.00,0.0108
3982.00,0.0108
3981.00,0.0108
3980.00,0.0108
3979.00,0.0108
3978.00,0.0108
3977.00,0.0108
3976.00,0.0109
3975.00,0.0109
3974.00,0.0109
3973.00,0.0109
3972.00,0.0109
3971.00,0.0109
3970.00,0.0109
3969.00,0.0109
3968.00,0.0109
3967.00,0.0109
3966.00,0.0108
3965.00,0.0108
3964.00,0.0108
3963.00,0.0108
3962.00,0.0108
3961.00,0.0108
3960.00,0.0108
3959.00,0.0108
3958.00,0.0108
3957.00,0.0108
3956.00,0.0108
3955.00,0.0108
3954.00,0.0108
3953.00,0.0108
3952.00,0.0108
3951.00,0.0108
3950.00,0.0108
3949.00,0.0108
3948.00,0.0108
3947.00,0.0108
3946.00,0.0108
3945.00,0.0108
3944.00,0.0108
3943.00,0.0108
3942.00,0.0107
3941.00,0.0107
3940.00,0.0107
3939.00,0.0107
3938.00,0.0108
3937.00,0.0108
3936.00,0.0107
3935.00,0.0107
3934.00,0.0108
3933.00,0.0108
3932.00,0.0108
3931.00,0.0107
3930.00,0.0107
3929.00,0.0107
3928.00,0.0107
3927.00,0.0107
3926.00,0.0107
3925.00,0.0107
3924.00,0.0107
3923.00,0.0107
3922.00,0.0107
3921.00,0.0107
3920.00,0.0107
3919.00,0.0108
3918.00,0.0108
3917.00,0.0108
3916.00,0.0108
3915.00,0.0108
3914.00,0.0107
3913.00,0.0107
3912.00,0.0107
3911.00,0.0107
3910.00,0.0107
3909.00,0.0108
3908.00,0.0108
3907.00,0.0108
3906.00,0.0108
3905.00,0.0108
3904.00,0.0107
3903.00,0.0107
3902.00,0.0107
3901.00,0.0107
3900.00,0.0107
3899.00,0.0107
3898.00,0.0107
3897.00,0.0107
3896.00,0.0107
3895.00,0.0107
3894.00,0.0107
3893.00,0.0107
3892.00,0.0107
3891.00,0.0107
3890.00,0.0107
3889.00,0.0107
3888.00,0.0107
3887.00,0.0107
3886.00,0.0107
3885.00,0.0107
3884.00,0.0107
3883.00,0.0106
3882.00,0.0106
3881.00,0.0106
3880.00,0.0106
3879.00,0.0106
3878.00,0.0106
3877.00,0.0107
3876.00,0.0107
3875.00,0.0107
3874.00,0.0107
3873.00,0.0106
3872.00,0.0106
3871.00,0.0106
3870.00,0.0106
3869.00,0.0106
3868.00,0.0106
3867.00,0.0106
3866.00,0.0107
3865.00,0.0107
3864.00,0.0107
3863.00,0.0107
3862.00,0.0106
3861.00,0.0106
3860.00,0.0106
3859.00,0.0106
3858.00,0.0106
3857.00,0.0106
3856.00,0.0106
3855.00,0.0107
3854.00,0.0107
3853.00,0.0107
3852.00,0.0107
3851.00,0.0107
3850.00,0.0107
3849.00,0.0107
3848.00,0.0107
3847.00,0.0107
3846.00,0.0107
3845.00,0.0107
3844.00,0.0107
3843.00,0.0107
3842.00,0.0107
3841.00,0.0106
3840.00,0.0106
3839.00,0.0106
3838.00,0.0106
3837.00,0.0106
3836.00,0.0106
3835.00,0.0106
3834.00,0.0106
3833.00,0.0106
3832.00,0.0107
3831.00,0.0107
3830.00,0.0107
3829.00,0.0107
3828.00,0.0107
3827.00,0.0107
3826.00,0.0107
3825.00,0.0106
3824.00,0.0106
3823.00,0.0106
3822.00,0.0107
3821.00,0.0107
3820.00,0.0106
3819.00,0.0106
3818.00,0.0106
3817.00,0.0106
3816.00,0.0106
3815.00,0.0107
3814.00,0.0107
3813.00,0.0107
3812.00,0.0106
3811.00,0.0106
3810.00,0.0106
3809.00,0.0106
3808.00,0.0106
3807.00,0.0106
3806.00,0.0106
3805.00,0.0106
3804.00,0.0107
3803.00,0.0107
3802.00,0.0107
3801.00,0.0106
3800.00,0.0106
3799.00,0.0106
3798.00,0.0106
3797.00,0.0106
3796.00,0.0106
3795.00,0.0106
3794.00,0.0106
3793.00,0.0106
3792.00,0.0107
3791.00,0.0106
3790.00,0.0106
3789.00,0.0106
3788.00,0.0106
3787.00,0.0107
3786.00,0.0107
3785.00,0.0106
3784.00,0.0106
3783.00,0.0106
3782.00,0.0106
3781.00,0.0106
3780.00,0.0107
3779.00,0.0107
3778.00,0.0107
3777.00,0.0107
3776.00,0.0107
3775.00,0.0107
3774.00,0.0107
3773.00,0.0107
3772.00,0.0107
3771.00,0.0106
3770.00,0.0106
3769.00,0.0106
3768.00,0.0106
3767.00,0.0106
3766.00,0.0106
3765.00,0.0106
3764.00,0.0107
3763.00,0.0107
3762.00,0.0107
3761.00,0.0107
3760.00,0.0107
3759.00,0.0107
3758.00,0.0107
3757.00,0.0107
3756.00,0.0106
3755.00,0.0106
3754.00,0.0106
3753.00,0.0106
3752.00,0.0106
3751.00,0.0106
3750.00,0.0106
3749.00,0.0106
3748.00,0.0106
3747.00,0.0106
3746.00,0.0106
3745.00,0.0106
3744.00,0.0106
3743.00,0.0106
3742.00,0.0106
3741.00,0.0106
3740.00,0.0106
3739.00,0.0105
3738.00,0.0105
3737.00,0.0104
3736.00,0.0104
3735.00,0.0103
3734.00,0.0103
3733.00,0.0103
3732.00,0.0104
3731.00,0.0105
3730.00,0.0105
3729.00,0.0106
3728.00,0.0106
3727.00,0.0106
3726.00,0.0106
3725.00,0.0106
3724.00,0.0105
3723.00,0.0105
3722.00,0.0105
3721.00,0.0105
3720.00,0.0105
3719.00,0.0105
3718.00,0.0105
3717.00,0.0105
3716.00,0.0106
3715.00,0.0106
3714.00,0.0106
3713.00,0.0106
3712.00,0.0106
3711.00,0.0105
3710.00,0.0105
3709.00,0.0105
3708.00,0.0105
3707.00,0.0105
3706.00,0.0105
3705.00,0.0105
3704.00,0.0105
3703.00,0.0105
3702.00,0.0105
3701.00,0.0105
3700.00,0.0105
3699.00,0.0105
3698.00,0.0105
3697.00,0.0105
3696.00,0.0105
3695.00,0.0105
3694.00,0.0105
3693.00,0.0106
3692.00,0.0106
3691.00,0.0106
3690.00,0.0107
3689.00,0.0107
3688.00,0.0107
3687.00,0.0108
3686.00,0.0108
3685.00,0.0109
3684.00,0.0109
3683.00,0.0109
3682.00,0.0109
3681.00,0.0110
3680.00,0.0110
3679.00,0.0110
3678.00,0.0110
3677.00,0.0111
3676.00,0.0111
3675.00,0.0111
3674.00,0.0111
3673.00,0.0111
3672.00,0.0112
3671.00,0.0113
3670.00,0.0113
3669.00,0.0113
3668.00,0.0113
3667.00,0.0114
3666.00,0.0114
3665.00,0.0114
3664.00,0.0115
3663.00,0.0115
3662.00,0.0115
3661.00,0.0115
3660.00,0.0116
3659.00,0.0116
3658.00,0.0116
3657.00,0.0117
3656.00,0.0118
3655.00,0.0118
3654.00,0.0118
3653.00,0.0119
3652.00,0.0119
3651.00,0.0120
3650.00,0.0121
3649.00,0.0122
3648.00,0.0122
3647.00,0.0123
3646.00,0.0123
3645.00,0.0124
3644.00,0.0124
3643.00,0.0125
3642.00,0.0125
3641.00,0.0126
3640.00,0.0127
3639.00,0.0128
3638.00,0.0128
3637.00,0.0129
3636.00,0.0129
3635.00,0.0130
3634.00,0.0131
3633.00,0.0131
3632.00,0.0131
3631.00,0.0132
3630.00,0.0133
3629.00,0.0134
3628.00,0.0136
3627.00,0.0137
3626.00,0.0137
3625.00,0.0138
3624.00,0.0138
3623.00,0.0138
3622.00,0.0139
3621.00,0.0140
3620.00,0.0141
3619.00,0.0142
3618.00,0.0143
3617.00,0.0145
3616.00,0.0146
3615.00,0.0146
3614.00,0.0147
3613.00,0.0148
3612.00,0.0149
3611.00,0.0150
3610.00,0.0151
3609.00,0.0152
3608.00,0.0153
3607.00,0.0155
3606.00,0.0156
3605.00,0.0157
3604.00,0.0157
3603.00,0.0158
3602.00,0.0159
3601.00,0.0160
3600.00,0.0161
3599.00,0.0163
3598.00,0.0163
3597.00,0.0164
3596.00,0.0166
3595.00,0.0167
3594.00,0.0168
3593.00,0.0169
3592.00,0.0170
3591.00,0.0171
3590.00,0.0171
3589.00,0.0173
3588.00,0.0174
3587.00,0.0177
3586.00,0.0179
3585.00,0.0180
3584.00,0.0182
3583.00,0.0183
3582.00,0.0184
3581.00,0.0186
3580.00,0.0187
3579.00,0.0188
3578.00,0.0189
3577.00,0.0191
3576.00,0.0193
3575.00,0.0194
3574.00,0.0196
3573.00,0.0197
3572.00,0.0198
3571.00,0.0199
3570.00,0.0200
3569.00,0.0202
3568.00,0.0204
3567.00,0.0206
3566.00,0.0208
3565.00,0.0210
3564.00,0.0212
3563.00,0.0213
3562.00,0.0215
3561.00,0.0216
3560.00,0.0217
3559.00,0.0219
3558.00,0.0220
3557.00,0.0222
3556.00,0.0223
3555.00,0.0225
3554.00,0.0226
3553.00,0.0228
3552.00,0.0230
3551.00,0.0231
3550.00,0.0233
3549.00,0.0234
3548.00,0.0235
3547.00,0.0237
3546.00,0.0239
3545.00,0.0241
3544.00,0.0243
3543.00,0.0244
3542.00,0.0245
3541.00,0.0247
3540.00,0.0248
3539.00,0.0249
3538.00,0.0251
3537.00,0.0252
3536.00,0.0253
3535.00,0.0255
3534.00,0.0256
3533.00,0.0257
3532.00,0.0258
3531.00,0.0259
3530.00,0.0261
3529.00,0.0262
3528.00,0.0264
3527.00,0.0266
3526.00,0.0267
3525.00,0.0268
3524.00,0.0270
3523.00,0.0272
3522.00,0.0273
3521.00,0.0274
3520.00,0.0275
3519.00,0.0277
3518.00,0.0278
3517.00,0.0279
3516.00,0.0280
3515.00,0.0282
3514.00,0.0283
3513.00,0.0284
3512.00,0.0284
3511.00,0.0285
3510.00,0.0287
3509.00,0.0288
3508.00,0.0289
3507.00,0.0291
3506.00,0.0292
3505.00,0.0293
3504.00,0.0295
3503.00,0.0296
3502.00,0.0298
3501.00,0.0299
3500.00,0.0300
3499.00,0.0301
3498.00,0.0302
3497.00,0.0303
3496.00,0.0304
3495.00,0.0306
3494.00,0.0307
3493.00,0.0308
3492.00,0.0309
3491.00,0.0310
3490.00,0.0312
3489.00,0.0313
3488.00,0.0315
3487.00,0.0316
3486.00,0.0318
3485.00,0.0319
3484.00,0.0320
3483.00,0.0322
3482.00,0.0324
3481.00,0.0326
3480.00,0.0328
3479.00,0.0329
3478.00,0.0331
3477.00,0.0332
3476.00,0.0334
3475.00,0.0335
3474.00,0.0336
3473.00,0.0338
3472.00,0.0340
3471.00,0.0342
3470.00,0.0343
3469.00,0.0345
3468.00,0.0347
3467.00,0.0349
3466.00,0.0350
3465.00,0.0352
3464.00,0.0354
3463.00,0.0356
3462.00,0.0358
3461.00,0.0360
3460.00,0.0362
3459.00,0.0364
3458.00,0.0365
3457.00,0.0367
3456.00,0.0369
3455.00,0.0371
3454.00,0.0373
3453.00,0.0375
3452.00,0.0376
3451.00,0.0378
3450.00,0.0380
3449.00,0.0381
3448.00,0.0383
3447.00,0.0385
3446.00,0.0387
3445.00,0.0390
3444.00,0.0392
3443.00,0.0394
3442.00,0.0397
3441.00,0.0399
3440.00,0.0401
3439.00,0.0404
3438.00,0.0406
3437.00,0.0409
3436.00,0.0411
3435.00,0.0414
3434.00,0.0416
3433.00,0.0419
3432.00,0.0422
3431.00,0.0424
3430.00,0.0427
3429.00,0.0429
3428.00,0.0432
3427.00,0.0434
3426.00,0.0437
3425.00,0.0440
3424.00,0.0443
3423.00,0.0446
3422.00,0.0449
3421.00,0.0452
3420.00,0.0455
3419.00,0.0458
3418.00,0.0460
3417.00,0.0463
3416.00,0.0466
3415.00,0.0469
3414.00,0.0471
3413.00,0.0474
3412.00,0.0477
3411.00,0.0479
3410.00,0.0481
3409.00,0.0482
3408.00,0.0484
3407.00,0.0486
3406.00,0.0487
3405.00,0.0488
3404.00,0.0490
3403.00,0.0490
3402.00,0.0491
3401.00,0.0491
3400.00,0.0491
3399.00,0.0491
3398.00,0.0491
3397.00,0.0490
3396.00,0.0490
3395.00,0.0489
3394.00,0.0488
3393.00,0.0487
3392.00,0.0486
3391.00,0.0484
3390.00,0.0483
3389.00,0.0482
3388.00,0.0480
3387.00,0.0478
3386.00,0.0477
3385.00,0.0475
3384.00,0.0473
3383.00,0.0471
3382.00,0.0469
3381.00,0.0467
3380.00,0.0464
3379.00,0.0462
3378.00,0.0460
3377.00,0.0457
3376.00,0.0455
3375.00,0.0453
3374.00,0.0451
3373.00,0.0449
3372.00,0.0447
3371.00,0.0445
3370.00,0.0442
3369.00,0.0440
3368.00,0.0438
3367.00,0.0437
3366.00,0.0435
3365.00,0.0433
3364.00,0.0431
3363.00,0.0430
3362.00,0.0428
3361.00,0.0426
3360.00,0.0425
3359.00,0.0423
3358.00,0.0422
3357.00,0.0420
3356.00,0.0419
3355.00,0.0417
3354.00,0.0415
3353.00,0.0413
3352.00,0.0411
3351.00,0.0410
3350.00,0.0409
3349.00,0.0408
3348.00,0.0408
3347.00,0.0407
3346.00,0.0406
3345.00,0.0405
3344.00,0.0404
3343.00,0.0402
3342.00,0.0401
3341.00,0.0400
3340.00,0.0399
3339.00,0.0398
3338.00,0.0398
3337.00,0.0398
3336.00,0.0398
3335.00,0.0397
3334.00,0.0397
3333.00,0.0397
3332.00,0.0396
3331.00,0.0396
3330.00,0.0395
3329.00,0.0394
3328.00,0.0394
3327.00,0.0393
3326.00,0.0393
3325.00,0.0393
3324.00,0.0394
3323.00,0.0394
3322.00,0.0394
3321.00,0.0395
3320.00,0.0395
3319.00,0.0395
3318.00,0.0396
3317.00,0.0396
3316.00,0.0396
3315.00,0.0397
3314.00,0.0397
3313.00,0.0397
3312.00,0.0396
3311.00,0.0395
3310.00,0.0394
3309.00,0.0394
3308.00,0.0394
3307.00,0.0394
3306.00,0.0395
3305.00,0.0397
3304.00,0.0399
3303.00,0.0401
3302.00,0.0402
3301.00,0.0403
3300.00,0.0404
3299.00,0.0404
3298.00,0.0404
3297.00,0.0404
3296.00,0.0404
3295.00,0.0404
3294.00,0.0405
3293.00,0.0406
3292.00,0.0407
3291.00,0.0408
3290.00,0.0410
3289.00,0.0412
3288.00,0.0413
3287.00,0.0414
3286.00,0.0415
3285.00,0.0416
3284.00,0.0417
3283.00,0.0418
3282.00,0.0418
3281.00,0.0419
3280.00,0.0419
3279.00,0.0420
3278.00,0.0420
3277.00,0.0420
3276.00,0.0420
3275.00,0.0420
3274.00,0.0420
3273.00,0.0421
3272.00,0.0421
3271.00,0.0422
3270.00,0.0423
3269.00,0.0424
3268.00,0.0426
3267.00,0.0427
3266.00,0.0428
3265.00,0.0429
3264.00,0.0429
3263.00,0.0430
3262.00,0.0430
3261.00,0.0430
3260.00,0.0431
3259.00,0.0431
3258.00,0.0431
3257.00,0.0431
3256.00,0.0431
3255.00,0.0432
3254.00,0.0433
3253.00,0.0433
3252.00,0.0434
3251.00,0.0434
3250.00,0.0433
3249.00,0.0433
3248.00,0.0433
3247.00,0.0433
3246.00,0.0433
3245.00,0.0434
3244.00,0.0435
3243.00,0.0435
3242.00,0.0435
3241.00,0.0435
3240.00,0.0435
3239.00,0.0434
3238.00,0.0433
3237.00,0.0432
3236.00,0.0431
3235.00,0.0430
3234.00,0.0429
3233.00,0.0428
3232.00,0.0428
3231.00,0.0428
3230.00,0.0428
3229.00,0.0428
3228.00,0.0427
3227.00,0.0426
3226.00,0.0425
3225.00,0.0424
3224.00,0.0423
3223.00,0.0422
3222.00,0.0421
3221.00,0.0420
3220.00,0.0418
3219.00,0.0417
3218.00,0.0415
3217.00,0.0413
3216.00,0.0412
3215.00,0.0410
3214.00,0.0409
3213.00,0.0407
3212.00,0.0405
3211.00,0.0403
3210.00,0.0401
3209.00,0.0399
3208.00,0.0397
3207.00,0.0395
3206.00,0.0393
3205.00,0.0391
3204.00,0.0389
3203.00,0.0387
3202.00,0.0385
3201.00,0.0382
3200.00,0.0380
3199.00,0.0378
3198.00,0.0376
3197.00,0.0374
3196.00,0.0372
3195.00,0.0370
3194.00,0.0367
3193.00,0.0365
3192.00,0.0363
3191.00,0.0360
3190.00,0.0358
3189.00,0.0356
3188.00,0.0354
3187.00,0.0352
3186.00,0.0349
3185.00,0.0347
3184.00,0.0345
3183.00,0.0343
3182.00,0.0341
3181.00,0.0338
3180.00,0.0336
3179.00,0.0334
3178.00,0.0331
3177.00,0.0329
3176.00,0.0327
3175.00,0.0325
3174.00,0.0323
3173.00,0.0321
3172.00,0.0319
3171.00,0.0316
3170.00,0.0314
3169.00,0.0312
3168.00,0.0309
3167.00,0.0307
3166.00,0.0304
3165.00,0.0302
3164.00,0.0300
3163.00,0.0298
3162.00,0.0296
3161.00,0.0294
3160.00,0.0292
3159.00,0.0290
3158.00,0.0288
3157.00,0.0285
3156.00,0.0283
3155.00,0.0281
3154.00,0.0278
3153.00,0.0276
3152.00,0.0274
3151.00,0.0272
3150.00,0.0270
3149.00,0.0269
3148.00,0.0267
3147.00,0.0266
3146.00,0.0264
3145.00,0.0262
3144.00,0.0261
3143.00,0.0259
3142.00,0.0256
3141.00,0.0254
3140.00,0.0253
3139.00,0.0251
3138.00,0.0249
3137.00,0.0248
3136.00,0.0247
3135.00,0.0245
3134.00,0.0244
3133.00,0.0242
3132.00,0.0240
3131.00,0.0239
3130.00,0.0238
3129.00,0.0236
3128.00,0.0235
3127.00,0.0234
3126.00,0.0233
3125.00,0.0232
3124.00,0.0231
3123.00,0.0230
3122.00,0.0228
3121.00,0.0227
3120.00,0.0226
3119.00,0.0225
3118.00,0.0224
3117.00,0.0222
3116.00,0.0221
3115.00,0.0220
3114.00,0.0219
3113.00,0.0218
3112.00,0.0216
3111.00,0.0215
3110.00,0.0214
3109.00,0.0213
3108.00,0.0211
3107.00,0.0210
3106.00,0.0209
3105.00,0.0208
3104.00,0.0206
3103.00,0.0205
3102.00,0.0204
3101.00,0.0204
3100.00,0.0203
3099.00,0.0202
3098.00,0.0202
3097.00,0.0201
3096.00,0.0200
3095.00,0.0200
3094.00,0.0199
3093.00,0.0199
3092.00,0.0199
3091.00,0.0199
3090.00,0.0199
3089.00,0.0199
3088.00,0.0199
3087.00,0.0199
3086.00,0.0199
3085.00,0.0198
3084.00,0.0198
3083.00,0.0197
3082.00,0.0197
3081.00,0.0196
3080.00,0.0195
3079.00,0.0195
3078.00,0.0194
3077.00,0.0194
3076.00,0.0193
3075.00,0.0193
3074.00,0.0192
3073.00,0.0191
3072.00,0.0191
3071.00,0.0190
3070.00,0.0189
3069.00,0.0189
3068.00,0.0189
3067.00,0.0189
3066.00,0.0188
3065.00,0.0188
3064.00,0.0188
3063.00,0.0188
3062.00,0.0188
3061.00,0.0187
3060.00,0.0188
3059.00,0.0188
3058.00,0.0188
3057.00,0.0188
3056.00,0.0188
3055.00,0.0188
3054.00,0.0188
3053.00,0.0187
3052.00,0.0187
3051.00,0.0186
3050.00,0.0186
3049.00,0.0185
3048.00,0.0185
3047.00,0.0185
3046.00,0.0184
3045.00,0.0184
3044.00,0.0184
3043.00,0.0184
3042.00,0.0184
3041.00,0.0184
3040.00,0.0185
3039.00,0.0186
3038.00,0.0187
3037.00,0.0188
3036.00,0.0189
3035.00,0.0190
3034.00,0.0190
3033.00,0.0191
3032.00,0.0191
3031.00,0.0190
3030.00,0.0189
3029.00,0.0189
3028.00,0.0187
3027.00,0.0186
3026.00,0.0185
3025.00,0.0184
3024.00,0.0183
3023.00,0.0182
3022.00,0.0181
3021.00,0.0180
3020.00,0.0179
3019.00,0.0179
3018.00,0.0178
3017.00,0.0178
3016.00,0.0178
3015.00,0.0178
3014.00,0.0178
3013.00,0.0179
3012.00,0.0180
3011.00,0.0182
3010.00,0.0184
3009.00,0.0186
3008.00,0.0188
3007.00,0.0191
3006.00,0.0194
3005.00,0.0197
3004.00,0.0201
3003.00,0.0205
3002.00,0.0210
3001.00,0.0215
3000.00,0.0220
2999.00,0.0226
2998.00,0.0233
2997.00,0.0239
2996.00,0.0246
2995.00,0.0253
2994.00,0.0259
2993.00,0.0265
2992.00,0.0271
2991.00,0.0276
2990.00,0.0280
2989.00,0.0285
2988.00,0.0289
2987.00,0.0294
2986.00,0.0301
2985.00,0.0308
2984.00,0.0317
2983.00,0.0327
2982.00,0.0338
2981.00,0.0349
2980.00,0.0360
2979.00,0.0368
2978.00,0.0373
2977.00,0.0377
2976.00,0.0381
2975.00,0.0388
2974.00,0.0398
2973.00,0.0411
2972.00,0.0426
2971.00,0.0439
2970.00,0.0451
2969.00,0.0459
2968.00,0.0466
2967.00,0.0472
2966.00,0.0478
2965.00,0.0486
2964.00,0.0494
2963.00,0.0503
2962.00,0.0511
2961.00,0.0516
2960.00,0.0519
2959.00,0.0518
2958.00,0.0513
2957.00,0.0505
2956.00,0.0495
2955.00,0.0484
2954.00,0.0472
2953.00,0.0462
2952.00,0.0452
2951.00,0.0445
2950.00,0.0439
2949.00,0.0435
2948.00,0.0433
2947.00,0.0434
2946.00,0.0436
2945.00,0.0440
2944.00,0.0446
2943.00,0.0453
2942.00,0.0461
2941.00,0.0471
2940.00,0.0483
2939.00,0.0497
2938.00,0.0513
2937.00,0.0531
2936.00,0.0553
2935.00,0.0576
2934.00,0.0601
2933.00,0.0627
2932.00,0.0653
2931.00,0.0678
2930.00,0.0700
2929.00,0.0718
2928.00,0.0731
2927.00,0.0738
2926.00,0.0738
2925.00,0.0733
2924.00,0.0723
2923.00,0.0710
2922.00,0.0694
2921.00,0.0676
2920.00,0.0658
2919.00,0.0638
2918.00,0.0619
2917.00,0.0600
2916.00,0.0581
2915.00,0.0564
2914.00,0.0547
2913.00,0.0532
2912.00,0.0518
2911.00,0.0505
2910.00,0.0493
2909.00,0.0482
2908.00,0.0472
2907.00,0.0463
2906.00,0.0454
2905.00,0.0445
2904.00,0.0437
2903.00,0.0430
2902.00,0.0424
2901.00,0.0417
2900.00,0.0412
2899.00,0.0406
2898.00,0.0400
2897.00,0.0395
2896.00,0.0391
2895.00,0.0387
2894.00,0.0383
2893.00,0.0380
2892.00,0.0377
2891.00,0.0373
2890.00,0.0370
2889.00,0.0367
2888.00,0.0363
2887.00,0.0360
2886.00,0.0358
2885.00,0.0355
2884.00,0.0354
2883.00,0.0353
2882.00,0.0354
2881.00,0.0355
2880.00,0.0359
2879.00,0.0363
2878.00,0.0369
2877.00,0.0377
2876.00,0.0384
2875.00,0.0391
2874.00,0.0397
2873.00,0.0401
2872.00,0.0403
2871.00,0.0403
2870.00,0.0401
2869.00,0.0398
2868.00,0.0397
2867.00,0.0397
2866.00,0.0399
2865.00,0.0405
2864.00,0.0414
2863.00,0.0426
2862.00,0.0442
2861.00,0.0461
2860.00,0.0479
2859.00,0.0497
2858.00,0.0511
2857.00,0.0520
2856.00,0.0525
2855.00,0.0526
2854.00,0.0522
2853.00,0.0516
2852.00,0.0506
2851.00,0.0491
2850.00,0.0472
2849.00,0.0450
2848.00,0.0427
2847.00,0.0403
2846.00,0.0382
2845.00,0.0362
2844.00,0.0344
2843.00,0.0328
2842.00,0.0313
2841.00,0.0300
2840.00,0.0288
2839.00,0.0279
2838.00,0.0271
2837.00,0.0264
2836.00,0.0258
2835.00,0.0253
2834.00,0.0248
2833.00,0.0243
2832.00,0.0239
2831.00,0.0235
2830.00,0.0231
2829.00,0.0228
2828.00,0.0224
2827.00,0.0221
2826.00,0.0217
2825.00,0.0214
2824.00,0.0212
2823.00,0.0209
2822.00,0.0206
2821.00,0.0204
2820.00,0.0201
2819.00,0.0199
2818.00,0.0197
2817.00,0.0196
2816.00,0.0194
2815.00,0.0193
2814.00,0.0191
2813.00,0.0190
2812.00,0.0189
2811.00,0.0187
2810.00,0.0186
2809.00,0.0186
2808.00,0.0185
2807.00,0.0184
2806.00,0.0183
2805.00,0.0182
2804.00,0.0181
2803.00,0.0180
2802.00,0.0179
2801.00,0.0178
2800.00,0.0177
2799.00,0.0176
2798.00,0.0175
2797.00,0.0175
2796.00,0.0174
2795.00,0.0173
2794.00,0.0172
2793.00,0.0171
2792.00,0.0171
2791.00,0.0170
2790.00,0.0169
2789.00,0.0168
2788.00,0.0168
2787.00,0.0167
2786.00,0.0167
2785.00,0.0166
2784.00,0.0165
2783.00,0.0165
2782.00,0.0164
2781.00,0.0164
2780.00,0.0163
2779.00,0.0163
2778.00,0.0162
2777.00,0.0162
2776.00,0.0161
2775.00,0.0161
2774.00,0.0160
2773.00,0.0160
2772.00,0.0160
2771.00,0.0159
2770.00,0.0159
2769.00,0.0159
2768.00,0.0159
2767.00,0.0159
2766.00,0.0158
2765.00,0.0158
2764.00,0.0158
2763.00,0.0158
2762.00,0.0157
2761.00,0.0157
2760.00,0.0157
2759.00,0.0157
2758.00,0.0157
2757.00,0.0157
2756.00,0.0157
2755.00,0.0157
2754.00,0.0157
2753.00,0.0157
2752.00,0.0157
2751.00,0.0158
2750.00,0.0157
2749.00,0.0158
2748.00,0.0158
2747.00,0.0158
2746.00,0.0158
2745.00,0.0158
2744.00,0.0158
2743.00,0.0158
2742.00,0.0159
2741.00,0.0159
2740.00,0.0159
2739.00,0.0160
2738.00,0.0160
2737.00,0.0161
2736.00,0.0161
2735.00,0.0162
2734.00,0.0163
2733.00,0.0163
2732.00,0.0164
2731.00,0.0164
2730.00,0.0164
2729.00,0.0164
2728.00,0.0164
2727.00,0.0163
2726.00,0.0163
2725.00,0.0162
2724.00,0.0162
2723.00,0.0161
2722.00,0.0161
2721.00,0.0160
2720.00,0.0160
2719.00,0.0159
2718.00,0.0159
2717.00,0.0159
2716.00,0.0158
2715.00,0.0158
2714.00,0.0158
2713.00,0.0157
2712.00,0.0157
2711.00,0.0157
2710.00,0.0157
2709.00,0.0156
2708.00,0.0156
2707.00,0.0156
2706.00,0.0156
2705.00,0.0156
2704.00,0.0155
2703.00,0.0155
2702.00,0.0155
2701.00,0.0155
2700.00,0.0155
2699.00,0.0155
2698.00,0.0154
2697.00,0.0154
2696.00,0.0153
2695.00,0.0153
2694.00,0.0153
2693.00,0.0152
2692.00,0.0152
2691.00,0.0152
2690.00,0.0151
2689.00,0.0151
2688.00,0.0151
2687.00,0.0150
2686.00,0.0150
2685.00,0.0150
2684.00,0.0150
2683.00,0.0149
2682.00,0.0149
2681.00,0.0149
2680.00,0.0149
2679.00,0.0149
2678.00,0.0149
2677.00,0.0149
2676.00,0.0149
2675.00,0.0149
2674.00,0.0149
2673.00,0.0149
2672.00,0.0150
2671.00,0.0150
2670.00,0.0150
2669.00,0.0150
2668.00,0.0151
2667.00,0.0151
2666.00,0.0152
2665.00,0.0153
2664.00,0.0153
2663.00,0.0154
2662.00,0.0155
2661.00,0.0155
2660.00,0.0156
2659.00,0.0156
2658.00,0.0156
2657.00,0.0156
2656.00,0.0156
2655.00,0.0156
2654.00,0.0156
2653.00,0.0156
2652.00,0.0156
2651.00,0.0156
2650.00,0.0156
2649.00,0.0156
2648.00,0.0156
2647.00,0.0156
2646.00,0.0156
2645.00,0.0156
2644.00,0.0156
2643.00,0.0155
2642.00,0.0155
2641.00,0.0154
2640.00,0.0154
2639.00,0.0154
2638.00,0.0154
2637.00,0.0153
2636.00,0.0153
2635.00,0.0153
2634.00,0.0152
2633.00,0.0152
2632.00,0.0152
2631.00,0.0151
2630.00,0.0150
2629.00,0.0150
2628.00,0.0149
2627.00,0.0149
2626.00,0.0149
2625.00,0.0148
2624.00,0.0148
2623.00,0.0148
2622.00,0.0147
2621.00,0.0147
2620.00,0.0147
2619.00,0.0147
2618.00,0.0146
2617.00,0.0146
2616.00,0.0146
2615.00,0.0146
2614.00,0.0146
2613.00,0.0146
2612.00,0.0146
2611.00,0.0146
2610.00,0.0146
2609.00,0.0146
2608.00,0.0146
2607.00,0.0146
2606.00,0.0147
2605.00,0.0147
2604.00,0.0147
2603.00,0.0147
2602.00,0.0147
2601.00,0.0147
2600.00,0.0148
2599.00,0.0148
2598.00,0.0148
2597.00,0.0148
2596.00,0.0148
2595.00,0.0148
2594.00,0.0148
2593.00,0.0148
2592.00,0.0148
2591.00,0.0149
2590.00,0.0149
2589.00,0.0149
2588.00,0.0149
2587.00,0.0149
2586.00,0.0150
2585.00,0.0150
2584.00,0.0150
2583.00,0.0149
2582.00,0.0149
2581.00,0.0148
2580.00,0.0148
2579.00,0.0147
2578.00,0.0147
2577.00,0.0147
2576.00,0.0147
2575.00,0.0146
2574.00,0.0146
2573.00,0.0146
2572.00,0.0146
2571.00,0.0146
2570.00,0.0146
2569.00,0.0146
2568.00,0.0146
2567.00,0.0146
2566.00,0.0146
2565.00,0.0147
2564.00,0.0146
2563.00,0.0146
2562.00,0.0145
2561.00,0.0145
2560.00,0.0144
2559.00,0.0143
2558.00,0.0143
2557.00,0.0143
2556.00,0.0142
2555.00,0.0142
2554.00,0.0142
2553.00,0.0141
2552.00,0.0141
2551.00,0.0141
2550.00,0.0141
2549.00,0.0141
2548.00,0.0141
2547.00,0.0141
2546.00,0.0140
2545.00,0.0140
2544.00,0.0141
2543.00,0.0141
2542.00,0.0141
2541.00,0.0141
2540.00,0.0141
2539.00,0.0141
2538.00,0.0141
2537.00,0.0141
2536.00,0.0141
2535.00,0.0140
2534.00,0.0140
2533.00,0.0140
2532.00,0.0140
2531.00,0.0139
2530.00,0.0139
2529.00,0.0139
2528.00,0.0139
2527.00,0.0139
2526.00,0.0139
2525.00,0.0139
2524.00,0.0139
2523.00,0.0139
2522.00,0.0138
2521.00,0.0138
2520.00,0.0137
2519.00,0.0137
2518.00,0.0136
2517.00,0.0136
2516.00,0.0136
2515.00,0.0136
2514.00,0.0135
2513.00,0.0135
2512.00,0.0135
2511.00,0.0135
2510.00,0.0135
2509.00,0.0135
2508.00,0.0135
2507.00,0.0134
2506.00,0.0134
2505.00,0.0134
2504.00,0.0135
2503.00,0.0135
2502.00,0.0134
2501.00,0.0134
2500.00,0.0134
2499.00,0.0134
2498.00,0.0134
2497.00,0.0134
2496.00,0.0134
2495.00,0.0133
2494.00,0.0133
2493.00,0.0133
2492.00,0.0132
2491.00,0.0132
2490.00,0.0132
2489.00,0.0132
2488.00,0.0133
2487.00,0.0132
2486.00,0.0132
2485.00,0.0132
2484.00,0.0132
2483.00,0.0132
2482.00,0.0132
2481.00,0.0132
2480.00,0.0132
2479.00,0.0131
2478.00,0.0131
2477.00,0.0131
2476.00,0.0131
2475.00,0.0131
2474.00,0.0131
2473.00,0.0131
2472.00,0.0131
2471.00,0.0131
2470.00,0.0131
2469.00,0.0130
2468.00,0.0130
2467.00,0.0131
2466.00,0.0131
2465.00,0.0130
2464.00,0.0130
2463.00,0.0130
2462.00,0.0130
2461.00,0.0130
2460.00,0.0131
2459.00,0.0131
2458.00,0.0131
2457.00,0.0131
2456.00,0.0131
2455.00,0.0132
2454.00,0.0132
2453.00,0.0132
2452.00,0.0132
2451.00,0.0131
2450.00,0.0131
2449.00,0.0131
2448.00,0.0131
2447.00,0.0131
2446.00,0.0131
2445.00,0.0131
2444.00,0.0131
2443.00,0.0130
2442.00,0.0129
2441.00,0.0129
2440.00,0.0129
2439.00,0.0129
2438.00,0.0129
2437.00,0.0129
2436.00,0.0129
2435.00,0.0129
2434.00,0.0129
2433.00,0.0129
2432.00,0.0129
2431.00,0.0129
2430.00,0.0128
2429.00,0.0128
2428.00,0.0129
2427.00,0.0129
2426.00,0.0128
2425.00,0.0128
2424.00,0.0128
2423.00,0.0128
2422.00,0.0128
2421.00,0.0128
2420.00,0.0128
2419.00,0.0128
2418.00,0.0128
2417.00,0.0128
2416.00,0.0128
2415.00,0.0128
2414.00,0.0128
2413.00,0.0129
2412.00,0.0129
2411.00,0.0129
2410.00,0.0129
2409.00,0.0129
2408.00,0.0128
2407.00,0.0128
2406.00,0.0128
2405.00,0.0128
2404.00,0.0128
2403.00,0.0128
2402.00,0.0127
2401.00,0.0128
2400.00,0.0128
2399.00,0.0128
2398.00,0.0128
2397.00,0.0128
2396.00,0.0128
2395.00,0.0128
2394.00,0.0127
2393.00,0.0127
2392.00,0.0127
2391.00,0.0127
2390.00,0.0127
2389.00,0.0126
2388.00,0.0126
2387.00,0.0126
2386.00,0.0125
2385.00,0.0125
2384.00,0.0124
2383.00,0.0123
2382.00,0.0123
2381.00,0.0122
2380.00,0.0121
2379.00,0.0121
2378.00,0.0121
2377.00,0.0121
2376.00,0.0122
2375.00,0.0122
2374.00,0.0122
2373.00,0.0122
2372.00,0.0122
2371.00,0.0122
2370.00,0.0122
2369.00,0.0122
2368.00,0.0122
2367.00,0.0122
2366.00,0.0122
2365.00,0.0122
2364.00,0.0122
2363.00,0.0123
2362.00,0.0123
2361.00,0.0123
2360.00,0.0123
2359.00,0.0122
2358.00,0.0122
2357.00,0.0123
2356.00,0.0124
2355.00,0.0126
2354.00,0.0126
2353.00,0.0127
2352.00,0.0127
2351.00,0.0126
2350.00,0.0126
2349.00,0.0125
2348.00,0.0125
2347.00,0.0125
2346.00,0.0125
2345.00,0.0126
2344.00,0.0126
2343.00,0.0126
2342.00,0.0125
2341.00,0.0126
2340.00,0.0126
2339.00,0.0127
2338.00,0.0128
2337.00,0.0128
2336.00,0.0128
2335.00,0.0128
2334.00,0.0128
2333.00,0.0128
2332.00,0.0128
2331.00,0.0128
2330.00,0.0129
2329.00,0.0131
2328.00,0.0134
2327.00,0.0138
2326.00,0.0141
2325.00,0.0142
2324.00,0.0141
2323.00,0.0138
2322.00,0.0136
2321.00,0.0135
2320.00,0.0134
2319.00,0.0133
2318.00,0.0133
2317.00,0.0132
2316.00,0.0132
2315.00,0.0131
2314.00,0.0131
2313.00,0.0130
2312.00,0.0130
2311.00,0.0129
2310.00,0.0129
2309.00,0.0128
2308.00,0.0128
2307.00,0.0128
2306.00,0.0128
2305.00,0.0128
2304.00,0.0128
2303.00,0.0129
2302.00,0.0129
2301.00,0.0129
2300.00,0.0130
2299.00,0.0130
2298.00,0.0131
2297.00,0.0132
2296.00,0.0133
2295.00,0.0134
2294.00,0.0135
2293.00,0.0136
2292.00,0.0137
2291.00,0.0138
2290.00,0.0139
2289.00,0.0139
2288.00,0.0140
2287.00,0.0140
2286.00,0.0140
2285.00,0.0140
2284.00,0.0139
2283.00,0.0138
2282.00,0.0137
2281.00,0.0137
2280.00,0.0136
2279.00,0.0136
2278.00,0.0135
2277.00,0.0134
2276.00,0.0134
2275.00,0.0133
2274.00,0.0133
2273.00,0.0132
2272.00,0.0132
2271.00,0.0132
2270.00,0.0131
2269.00,0.0131
2268.00,0.0130
2267.00,0.0129
2266.00,0.0128
2265.00,0.0128
2264.00,0.0128
2263.00,0.0128
2262.00,0.0128
2261.00,0.0128
2260.00,0.0128
2259.00,0.0128
2258.00,0.0128
2257.00,0.0127
2256.00,0.0125
2255.00,0.0124
2254.00,0.0124
2253.00,0.0124
2252.00,0.0125
2251.00,0.0125
2250.00,0.0125
2249.00,0.0126
2248.00,0.0127
2247.00,0.0127
2246.00,0.0127
2245.00,0.0127
2244.00,0.0127
2243.00,0.0127
2242.00,0.0128
2241.00,0.0129
2240.00,0.0130
2239.00,0.0131
2238.00,0.0131
2237.00,0.0130
2236.00,0.0130
2235.00,0.0129
2234.00,0.0128
2233.00,0.0127
2232.00,0.0127
2231.00,0.0128
2230.00,0.0129
2229.00,0.0130
2228.00,0.0130
2227.00,0.0130
2226.00,0.0130
2225.00,0.0130
2224.00,0.0130
2223.00,0.0129
2222.00,0.0129
2221.00,0.0128
2220.00,0.0128
2219.00,0.0127
2218.00,0.0127
2217.00,0.0126
2216.00,0.0126
2215.00,0.0125
2214.00,0.0125
2213.00,0.0125
2212.00,0.0126
2211.00,0.0126
2210.00,0.0126
2209.00,0.0126
2208.00,0.0127
2207.00,0.0128
2206.00,0.0128
2205.00,0.0129
2204.00,0.0129
2203.00,0.0129
2202.00,0.0129
2201.00,0.0128
2200.00,0.0129
2199.00,0.0129
2198.00,0.0128
2197.00,0.0128
2196.00,0.0128
2195.00,0.0128
2194.00,0.0128
2193.00,0.0128
2192.00,0.0128
2191.00,0.0127
2190.00,0.0128
2189.00,0.0129
2188.00,0.0132
2187.00,0.0133
2186.00,0.0132
2185.00,0.0131
2184.00,0.0129
2183.00,0.0126
2182.00,0.0125
2181.00,0.0125
2180.00,0.0127
2179.00,0.0127
2178.00,0.0125
2177.00,0.0123
2176.00,0.0122
2175.00,0.0123
2174.00,0.0124
2173.00,0.0126
2172.00,0.0128
2171.00,0.0130
2170.00,0.0132
2169.00,0.0134
2168.00,0.0136
2167.00,0.0136
2166.00,0.0136
2165.00,0.0137
2164.00,0.0140
2163.00,0.0140
2162.00,0.0134
2161.00,0.0122
2160.00,0.0108
2159.00,0.0097
2158.00,0.0092
2157.00,0.0093
2156.00,0.0097
2155.00,0.0101
2154.00,0.0102
2153.00,0.0104
2152.00,0.0105
2151.00,0.0107
2150.00,0.0107
2149.00,0.0108
2148.00,0.0110
2147.00,0.0110
2146.00,0.0110
2145.00,0.0111
2144.00,0.0112
2143.00,0.0112
2142.00,0.0112
2141.00,0.0112
2140.00,0.0111
2139.00,0.0110
2138.00,0.0109
2137.00,0.0109
2136.00,0.0108
2135.00,0.0107
2134.00,0.0105
2133.00,0.0105
2132.00,0.0106
2131.00,0.0107
2130.00,0.0109
2129.00,0.0111
2128.00,0.0113
2127.00,0.0114
2126.00,0.0115
2125.00,0.0117
2124.00,0.0118
2123.00,0.0118
2122.00,0.0118
2121.00,0.0119
2120.00,0.0121
2119.00,0.0122
2118.00,0.0124
2117.00,0.0125
2116.00,0.0126
2115.00,0.0125
2114.00,0.0124
2113.00,0.0124
2112.00,0.0124
2111.00,0.0123
2110.00,0.0123
2109.00,0.0123
2108.00,0.0123
2107.00,0.0123
2106.00,0.0123
2105.00,0.0123
2104.00,0.0123
2103.00,0.0122
2102.00,0.0122
2101.00,0.0121
2100.00,0.0120
2099.00,0.0119
2098.00,0.0117
2097.00,0.0116
2096.00,0.0115
2095.00,0.0115
2094.00,0.0115
2093.00,0.0117
2092.00,0.0118
2091.00,0.0119
2090.00,0.0120
2089.00,0.0120
2088.00,0.0121
2087.00,0.0120
2086.00,0.0120
2085.00,0.0120
2084.00,0.0122
2083.00,0.0122
2082.00,0.0123
2081.00,0.0123
2080.00,0.0123
2079.00,0.0123
2078.00,0.0123
2077.00,0.0123
2076.00,0.0122
2075.00,0.0122
2074.00,0.0122
2073.00,0.0122
2072.00,0.0122
2071.00,0.0122
2070.00,0.0121
2069.00,0.0120
2068.00,0.0119
2067.00,0.0119
2066.00,0.0118
2065.00,0.0118
2064.00,0.0118
2063.00,0.0118
2062.00,0.0117
2061.00,0.0116
2060.00,0.0116
2059.00,0.0116
2058.00,0.0115
2057.00,0.0115
2056.00,0.0115
2055.00,0.0115
2054.00,0.0117
2053.00,0.0121
2052.00,0.0125
2051.00,0.0124
2050.00,0.0119
2049.00,0.0115
2048.00,0.0113
2047.00,0.0113
2046.00,0.0113
2045.00,0.0114
2044.00,0.0115
2043.00,0.0116
2042.00,0.0117
2041.00,0.0117
2040.00,0.0117
2039.00,0.0116
2038.00,0.0115
2037.00,0.0114
2036.00,0.0113
2035.00,0.0111
2034.00,0.0108
2033.00,0.0108
2032.00,0.0109
2031.00,0.0110
2030.00,0.0110
2029.00,0.0110
2028.00,0.0110
2027.00,0.0109
2026.00,0.0108
2025.00,0.0108
2024.00,0.0108
2023.00,0.0108
2022.00,0.0108
2021.00,0.0109
2020.00,0.0110
2019.00,0.0111
2018.00,0.0110
2017.00,0.0108
2016.00,0.0106
2015.00,0.0104
2014.00,0.0103
2013.00,0.0103
2012.00,0.0104
2011.00,0.0104
2010.00,0.0103
2009.00,0.0101
2008.00,0.0099
2007.00,0.0096
2006.00,0.0094
2005.00,0.0094
2004.00,0.0095
2003.00,0.0098
2002.00,0.0099
2001.00,0.0102
2000.00,0.0105
1999.00,0.0106
1998.00,0.0107
1997.00,0.0107
1996.00,0.0108
1995.00,0.0109
1994.00,0.0110
1993.00,0.0112
1992.00,0.0114
1991.00,0.0115
1990.00,0.0115
1989.00,0.0115
1988.00,0.0116
1987.00,0.0115
1986.00,0.0113
1985.00,0.0113
1984.00,0.0115
1983.00,0.0118
1982.00,0.0121
1981.00,0.0123
1980.00,0.0121
1979.00,0.0115
1978.00,0.0106
1977.00,0.0102
1976.00,0.0101
1975.00,0.0102
1974.00,0.0100
1973.00,0.0099
1972.00,0.0098
1971.00,0.0097
1970.00,0.0097
1969.00,0.0098
1968.00,0.0100
1967.00,0.0101
1966.00,0.0100
1965.00,0.0100
1964.00,0.0100
1963.00,0.0100
1962.00,0.0098
1961.00,0.0096
1960.00,0.0096
1959.00,0.0097
1958.00,0.0098
1957.00,0.0100
1956.00,0.0101
1955.00,0.0102
1954.00,0.0101
1953.00,0.0101
1952.00,0.0102
1951.00,0.0103
1950.00,0.0103
1949.00,0.0103
1948.00,0.0104
1947.00,0.0105
1946.00,0.0105
1945.00,0.0106
1944.00,0.0107
1943.00,0.0108
1942.00,0.0106
1941.00,0.0105
1940.00,0.0104
1939.00,0.0104
1938.00,0.0103
1937.00,0.0103
1936.00,0.0104
1935.00,0.0104
1934.00,0.0103
1933.00,0.0104
1932.00,0.0105
1931.00,0.0106
1930.00,0.0106
1929.00,0.0106
1928.00,0.0106
1927.00,0.0106
1926.00,0.0107
1925.00,0.0108
1924.00,0.0110
1923.00,0.0111
1922.00,0.0111
1921.00,0.0110
1920.00,0.0110
1919.00,0.0109
1918.00,0.0108
1917.00,0.0107
1916.00,0.0108
1915.00,0.0109
1914.00,0.0110
1913.00,0.0113
1912.00,0.0116
1911.00,0.0119
1910.00,0.0122
1909.00,0.0124
1908.00,0.0125
1907.00,0.0123
1906.00,0.0121
1905.00,0.0118
1904.00,0.0116
1903.00,0.0115
1902.00,0.0113
1901.00,0.0113
1900.00,0.0113
1899.00,0.0114
1898.00,0.0114
1897.00,0.0115
1896.00,0.0117
1895.00,0.0118
1894.00,0.0118
1893.00,0.0117
1892.00,0.0117
1891.00,0.0116
1890.00,0.0115
1889.00,0.0113
1888.00,0.0112
1887.00,0.0111
1886.00,0.0111
1885.00,0.0111
1884.00,0.0111
1883.00,0.0111
1882.00,0.0111
1881.00,0.0111
1880.00,0.0111
1879.00,0.0111
1878.00,0.0110
1877.00,0.0110
1876.00,0.0110
1875.00,0.0110
1874.00,0.0110
1873.00,0.0110
1872.00,0.0111
1871.00,0.0112
1870.00,0.0112
1869.00,0.0113
1868.00,0.0114
1867.00,0.0113
1866.00,0.0112
1865.00,0.0112
1864.00,0.0112
1863.00,0.0113
1862.00,0.0113
1861.00,0.0113
1860.00,0.0113
1859.00,0.0113
1858.00,0.0113
1857.00,0.0113
1856.00,0.0113
1855.00,0.0113
1854.00,0.0113
1853.00,0.0113
1852.00,0.0113
1851.00,0.0114
1850.00,0.0114
1849.00,0.0116
1848.00,0.0118
1847.00,0.0119
1846.00,0.0118
1845.00,0.0117
1844.00,0.0115
1843.00,0.0113
1842.00,0.0112
1841.00,0.0113
1840.00,0.0114
1839.00,0.0115
1838.00,0.0115
1837.00,0.0114
1836.00,0.0114
1835.00,0.0114
1834.00,0.0113
1833.00,0.0113
1832.00,0.0113
1831.00,0.0113
1830.00,0.0113
1829.00,0.0112
1828.00,0.0112
1827.00,0.0112
1826.00,0.0112
1825.00,0.0113
1824.00,0.0113
1823.00,0.0113
1822.00,0.0112
1821.00,0.0112
1820.00,0.0111
1819.00,0.0110
1818.00,0.0109
1817.00,0.0109
1816.00,0.0110
1815.00,0.0110
1814.00,0.0111
1813.00,0.0113
1812.00,0.0114
1811.00,0.0115
1810.00,0.0115
1809.00,0.0115
1808.00,0.0114
1807.00,0.0114
1806.00,0.0114
1805.00,0.0114
1804.00,0.0115
1803.00,0.0116
1802.00,0.0116
1801.00,0.0117
1800.00,0.0117
1799.00,0.0117
1798.00,0.0117
1797.00,0.0119
1796.00,0.0120
1795.00,0.0120
1794.00,0.0118
1793.00,0.0117
1792.00,0.0116
1791.00,0.0116
1790.00,0.0115
1789.00,0.0115
1788.00,0.0116
1787.00,0.0116
1786.00,0.0116
1785.00,0.0116
1784.00,0.0116
1783.00,0.0117
1782.00,0.0118
1781.00,0.0120
1780.00,0.0121
1779.00,0.0121
1778.00,0.0121
1777.00,0.0122
1776.00,0.0124
1775.00,0.0125
1774.00,0.0125
1773.00,0.0125
1772.00,0.0124
1771.00,0.0122
1770.00,0.0121
1769.00,0.0121
1768.00,0.0121
1767.00,0.0121
1766.00,0.0121
1765.00,0.0121
1764.00,0.0122
1763.00,0.0123
1762.00,0.0124
1761.00,0.0124
1760.00,0.0126
1759.00,0.0127
1758.00,0.0128
1757.00,0.0127
1756.00,0.0126
1755.00,0.0125
1754.00,0.0125
1753.00,0.0126
1752.00,0.0128
1751.00,0.0130
1750.00,0.0131
1749.00,0.0133
1748.00,0.0135
1747.00,0.0136
1746.00,0.0136
1745.00,0.0137
1744.00,0.0138
1743.00,0.0138
1742.00,0.0135
1741.00,0.0133
1740.00,0.0133
1739.00,0.0133
1738.00,0.0133
1737.00,0.0134
1736.00,0.0134
1735.00,0.0135
1734.00,0.0135
1733.00,0.0137
1732.00,0.0142
1731.00,0.0147
1730.00,0.0150
1729.00,0.0151
1728.00,0.0152
1727.00,0.0153
1726.00,0.0155
1725.00,0.0157
1724.00,0.0161
1723.00,0.0163
1722.00,0.0164
1721.00,0.0164
1720.00,0.0166
1719.00,0.0168
1718.00,0.0172
1717.00,0.0177
1716.00,0.0180
1715.00,0.0182
1714.00,0.0184
1713.00,0.0188
1712.00,0.0193
1711.00,0.0197
1710.00,0.0201
1709.00,0.0205
1708.00,0.0210
1707.00,0.0216
1706.00,0.0222
1705.00,0.0229
1704.00,0.0234
1703.00,0.0236
1702.00,0.0236
1701.00,0.0242
1700.00,0.0257
1699.00,0.0276
1698.00,0.0293
1697.00,0.0312
1696.00,0.0335
1695.00,0.0355
1694.00,0.0373
1693.00,0.0391
1692.00,0.0412
1691.00,0.0436
1690.00,0.0462
1689.00,0.0488
1688.00,0.0511
1687.00,0.0529
1686.00,0.0547
1685.00,0.0580
1684.00,0.0628
1683.00,0.0668
1682.00,0.0695
1681.00,0.0721
1680.00,0.0749
1679.00,0.0773
1678.00,0.0792
1677.00,0.0811
1676.00,0.0841
1675.00,0.0878
1674.00,0.0912
1673.00,0.0939
1672.00,0.0963
1671.00,0.0990
1670.00,0.1026
1669.00,0.1064
1668.00,0.1099
1667.00,0.1124
1666.00,0.1142
1665.00,0.1159
1664.00,0.1183
1663.00,0.1215
1662.00,0.1247
1661.00,0.1274
1660.00,0.1295
1659.00,0.1312
1658.00,0.1324
1657.00,0.1330
1656.00,0.1331
1655.00,0.1331
1654.00,0.1349
1653.00,0.1392
1652.00,0.1424
1651.00,0.1432
1650.00,0.1427
1649.00,0.1419
1648.00,0.1419
1647.00,0.1426
1646.00,0.1430
1645.00,0.1426
1644.00,0.1418
1643.00,0.1406
1642.00,0.1392
1641.00,0.1375
1640.00,0.1357
1639.00,0.1335
1638.00,0.1310
1637.00,0.1286
1636.00,0.1267
1635.00,0.1251
1634.00,0.1235
1633.00,0.1222
1632.00,0.1213
1631.00,0.1209
1630.00,0.1214
1629.00,0.1232
1628.00,0.1263
1627.00,0.1297
1626.00,0.1324
1625.00,0.1344
1624.00,0.1364
1623.00,0.1382
1622.00,0.1386
1621.00,0.1371
1620.00,0.1341
1619.00,0.1297
1618.00,0.1241
1617.00,0.1176
1616.00,0.1118
1615.00,0.1077
1614.00,0.1052
1613.00,0.1036
1612.00,0.1025
1611.00,0.1015
1610.00,0.0998
1609.00,0.0972
1608.00,0.0937
1607.00,0.0894
1606.00,0.0848
1605.00,0.0802
1604.00,0.0758
1603.00,0.0717
1602.00,0.0679
1601.00,0.0645
1600.00,0.0616
1599.00,0.0591
1598.00,0.0571
1597.00,0.0556
1596.00,0.0546
1595.00,0.0541
1594.00,0.0543
1593.00,0.0551
1592.00,0.0567
1591.00,0.0590
1590.00,0.0620
1589.00,0.0653
1588.00,0.0686
1587.00,0.0716
1586.00,0.0740
1585.00,0.0756
1584.00,0.0763
1583.00,0.0761
1582.00,0.0752
1581.00,0.0736
1580.00,0.0716
1579.00,0.0694
1578.00,0.0669
1577.00,0.0640
1576.00,0.0608
1575.00,0.0580
1574.00,0.0558
1573.00,0.0541
1572.00,0.0526
1571.00,0.0512
1570.00,0.0501
1569.00,0.0490
1568.00,0.0479
1567.00,0.0466
1566.00,0.0451
1565.00,0.0433
1564.00,0.0413
1563.00,0.0394
1562.00,0.0374
1561.00,0.0353
1560.00,0.0333
1559.00,0.0318
1558.00,0.0305
1557.00,0.0296
1556.00,0.0295
1555.00,0.0295
1554.00,0.0293
1553.00,0.0290
1552.00,0.0287
1551.00,0.0286
1550.00,0.0284
1549.00,0.0281
1548.00,0.0276
1547.00,0.0272
1546.00,0.0270
1545.00,0.0269
1544.00,0.0267
1543.00,0.0263
1542.00,0.0258
1541.00,0.0255
1540.00,0.0252
1539.00,0.0247
1538.00,0.0243
1537.00,0.0244
1536.00,0.0245
1535.00,0.0245
1534.00,0.0243
1533.00,0.0242
1532.00,0.0240
1531.00,0.0239
1530.00,0.0239
1529.00,0.0240
1528.00,0.0241
1527.00,0.0242
1526.00,0.0242
1525.00,0.0242
1524.00,0.0242
1523.00,0.0243
1522.00,0.0246
1521.00,0.0250
1520.00,0.0252
1519.00,0.0256
1518.00,0.0263
1517.00,0.0272
1516.00,0.0280
1515.00,0.0285
1514.00,0.0289
1513.00,0.0295
1512.00,0.0302
1511.00,0.0309
1510.00,0.0316
1509.00,0.0322
1508.00,0.0330
1507.00,0.0341
1506.00,0.0346
1505.00,0.0352
1504.00,0.0366
1503.00,0.0385
1502.00,0.0406
1501.00,0.0432
1500.00,0.0466
1499.00,0.0509
1498.00,0.0560
1497.00,0.0609
1496.00,0.0641
1495.00,0.0649
1494.00,0.0637
1493.00,0.0614
1492.00,0.0583
1491.00,0.0548
1490.00,0.0512
1489.00,0.0479
1488.00,0.0446
1487.00,0.0417
1486.00,0.0391
1485.00,0.0372
1484.00,0.0356
1483.00,0.0343
1482.00,0.0333
1481.00,0.0326
1480.00,0.0322
1479.00,0.0319
1478.00,0.0320
1477.00,0.0325
1476.00,0.0334
1475.00,0.0346
1474.00,0.0364
1473.00,0.0396
1472.00,0.0440
1471.00,0.0489
1470.00,0.0543
1469.00,0.0601
1468.00,0.0661
1467.00,0.0719
1466.00,0.0772
1465.00,0.0819
1464.00,0.0851
1463.00,0.0867
1462.00,0.0872
1461.00,0.0870
1460.00,0.0862
1459.00,0.0847
1458.00,0.0823
1457.00,0.0789
1456.00,0.0753
1455.00,0.0723
1454.00,0.0704
1453.00,0.0691
1452.00,0.0685
1451.00,0.0687
1450.00,0.0696
1449.00,0.0715
1448.00,0.0744
1447.00,0.0778
1446.00,0.0814
1445.00,0.0852
1444.00,0.0893
1443.00,0.0933
1442.00,0.0972
1441.00,0.1004
1440.00,0.1028
1439.00,0.1043
1438.00,0.1055
1437.00,0.1071
1436.00,0.1091
1435.00,0.1107
1434.00,0.1118
1433.00,0.1126
1432.00,0.1136
1431.00,0.1148
1430.00,0.1164
1429.00,0.1182
1428.00,0.1199
1427.00,0.1213
1426.00,0.1225
1425.00,0.1238
1424.00,0.1248
1423.00,0.1246
1422.00,0.1232
1421.00,0.1205
1420.00,0.1166
1419.00,0.1117
1418.00,0.1062
1417.00,0.1006
1416.00,0.0951
1415.00,0.0898
1414.00,0.0850
1413.00,0.0809
1412.00,0.0777
1411.00,0.0754
1410.00,0.0740
1409.00,0.0735
1408.00,0.0737
1407.00,0.0748
1406.00,0.0768
1405.00,0.0794
1404.00,0.0820
1403.00,0.0841
1402.00,0.0855
1401.00,0.0862
1400.00,0.0862
1399.00,0.0852
1398.00,0.0832
1397.00,0.0805
1396.00,0.0770
1395.00,0.0730
1394.00,0.0691
1393.00,0.0657
1392.00,0.0632
1391.00,0.0614
1390.00,0.0606
1389.00,0.0610
1388.00,0.0626
1387.00,0.0644
1386.00,0.0651
1385.00,0.0646
1384.00,0.0635
1383.00,0.0627
1382.00,0.0627
1381.00,0.0635
1380.00,0.0644
1379.00,0.0652
1378.00,0.0657
1377.00,0.0655
1376.00,0.0647
1375.00,0.0631
1374.00,0.0611
1373.00,0.0591
1372.00,0.0577
1371.00,0.0571
1370.00,0.0576
1369.00,0.0590
1368.00,0.0612
1367.00,0.0635
1366.00,0.0654
1365.00,0.0664
1364.00,0.0669
1363.00,0.0677
1362.00,0.0696
1361.00,0.0719
1360.00,0.0732
1359.00,0.0724
1358.00,0.0698
1357.00,0.0662
1356.00,0.0628
1355.00,0.0602
1354.00,0.0583
1353.00,0.0570
1352.00,0.0563
1351.00,0.0559
1350.00,0.0559
1349.00,0.0561
1348.00,0.0562
1347.00,0.0562
1346.00,0.0558
1345.00,0.0551
1344.00,0.0541
1343.00,0.0529
1342.00,0.0516
1341.00,0.0504
1340.00,0.0492
1339.00,0.0481
1338.00,0.0471
1337.00,0.0465
1336.00,0.0464
1335.00,0.0468
1334.00,0.0477
1333.00,0.0489
1332.00,0.0502
1331.00,0.0515
1330.00,0.0527
1329.00,0.0538
1328.00,0.0546
1327.00,0.0553
1326.00,0.0560
1325.00,0.0567
1324.00,0.0573
1323.00,0.0581
1322.00,0.0589
1321.00,0.0597
1320.00,0.0603
1319.00,0.0605
1318.00,0.0604
1317.00,0.0597
1316.00,0.0588
1315.00,0.0577
1314.00,0.0566
1313.00,0.0556
1312.00,0.0549
1311.00,0.0545
1310.00,0.0546
1309.00,0.0552
1308.00,0.0565
1307.00,0.0584
1306.00,0.0611
1305.00,0.0647
1304.00,0.0691
1303.00,0.0740
1302.00,0.0789
1301.00,0.0833
1300.00,0.0868
1299.00,0.0898
1298.00,0.0928
1297.00,0.0965
1296.00,0.1009
1295.00,0.1059
1294.00,0.1109
1293.00,0.1155
1292.00,0.1195
1291.00,0.1227
1290.00,0.1255
1289.00,0.1279
1288.00,0.1302
1287.00,0.1321
1286.00,0.1336
1285.00,0.1344
1284.00,0.1344
1283.00,0.1333
1282.00,0.1312
1281.00,0.1283
1280.00,0.1249
1279.00,0.1217
1278.00,0.1188
1277.00,0.1165
1276.00,0.1147
1275.00,0.1133
1274.00,0.1121
1273.00,0.1107
1272.00,0.1090
1271.00,0.1069
1270.00,0.1044
1269.00,0.1015
1268.00,0.0984
1267.00,0.0951
1266.00,0.0918
1265.00,0.0884
1264.00,0.0850
1263.00,0.0816
1262.00,0.0783
1261.00,0.0753
1260.00,0.0725
1259.00,0.0699
1258.00,0.0676
1257.00,0.0655
1256.00,0.0638
1255.00,0.0623
1254.00,0.0611
1253.00,0.0602
1252.00,0.0596
1251.00,0.0595
1250.00,0.0598
1249.00,0.0606
1248.00,0.0618
1247.00,0.0635
1246.00,0.0653
1245.00,0.0672
1244.00,0.0689
1243.00,0.0704
1242.00,0.0716
1241.00,0.0729
1240.00,0.0744
1239.00,0.0764
1238.00,0.0789
1237.00,0.0819
1236.00,0.0850
1235.00,0.0877
1234.00,0.0894
1233.00,0.0901
1232.00,0.0895
1231.00,0.0878
1230.00,0.0855
1229.00,0.0828
1228.00,0.0802
1227.00,0.0777
1226.00,0.0757
1225.00,0.0740
1224.00,0.0726
1223.00,0.0717
1222.00,0.0711
1221.00,0.0710
1220.00,0.0713
1219.00,0.0719
1218.00,0.0729
1217.00,0.0740
1216.00,0.0749
1215.00,0.0755
1214.00,0.0754
1213.00,0.0744
1212.00,0.0725
1211.00,0.0700
1210.00,0.0673
1209.00,0.0646
1208.00,0.0622
1207.00,0.0604
1206.00,0.0593
1205.00,0.0588
1204.00,0.0591
1203.00,0.0602
1202.00,0.0620
1201.00,0.0643
1200.00,0.0671
1199.00,0.0702
1198.00,0.0737
1197.00,0.0773
1196.00,0.0804
1195.00,0.0825
1194.00,0.0832
1193.00,0.0823
1192.00,0.0802
1191.00,0.0771
1190.00,0.0735
1189.00,0.0697
1188.00,0.0658
1187.00,0.0621
1186.00,0.0588
1185.00,0.0560
1184.00,0.0538
1183.00,0.0520
1182.00,0.0506
1181.00,0.0496
1180.00,0.0489
1179.00,0.0484
1178.00,0.0481
1177.00,0.0480
1176.00,0.0479
1175.00,0.0480
1174.00,0.0480
1173.00,0.0482
1172.00,0.0482
1171.00,0.0483
1170.00,0.0483
1169.00,0.0482
1168.00,0.0480
1167.00,0.0478
1166.00,0.0477
1165.00,0.0477
1164.00,0.0479
1163.00,0.0485
1162.00,0.0496
1161.00,0.0515
1160.00,0.0545
1159.00,0.0586
1158.00,0.0638
1157.00,0.0694
1156.00,0.0744
1155.00,0.0775
1154.00,0.0777
1153.00,0.0747
1152.00,0.0694
1151.00,0.0629
1150.00,0.0566
1149.00,0.0513
1148.00,0.0473
1147.00,0.0445
1146.00,0.0426
1145.00,0.0413
1144.00,0.0404
1143.00,0.0397
1142.00,0.0394
1141.00,0.0392
1140.00,0.0393
1139.00,0.0398
1138.00,0.0407
1137.00,0.0423
1136.00,0.0446
1135.00,0.0480
1134.00,0.0527
1133.00,0.0589
1132.00,0.0661
1131.00,0.0736
1130.00,0.0801
1129.00,0.0845
1128.00,0.0863
1127.00,0.0857
1126.00,0.0832
1125.00,0.0794
1124.00,0.0748
1123.00,0.0696
1122.00,0.0644
1121.00,0.0598
1120.00,0.0559
1119.00,0.0531
1118.00,0.0512
1117.00,0.0500
1116.00,0.0495
1115.00,0.0491
1114.00,0.0488
1113.00,0.0483
1112.00,0.0475
1111.00,0.0465
1110.00,0.0455
1109.00,0.0448
1108.00,0.0443
1107.00,0.0444
1106.00,0.0451
1105.00,0.0468
1104.00,0.0494
1103.00,0.0531
1102.00,0.0573
1101.00,0.0613
1100.00,0.0640
1099.00,0.0647
1098.00,0.0633
1097.00,0.0602
1096.00,0.0562
1095.00,0.0520
1094.00,0.0483
1093.00,0.0453
1092.00,0.0430
1091.00,0.0413
1090.00,0.0402
1089.00,0.0393
1088.00,0.0386
1087.00,0.0381
1086.00,0.0377
1085.00,0.0375
1084.00,0.0373
1083.00,0.0372
1082.00,0.0372
1081.00,0.0374
1080.00,0.0375
1079.00,0.0378
1078.00,0.0381
1077.00,0.0385
1076.00,0.0388
1075.00,0.0392
1074.00,0.0395
1073.00,0.0399
1072.00,0.0403
1071.00,0.0408
1070.00,0.0414
1069.00,0.0420
1068.00,0.0427
1067.00,0.0435
1066.00,0.0446
1065.00,0.0460
1064.00,0.0478
1063.00,0.0502
1062.00,0.0534
1061.00,0.0577
1060.00,0.0631
1059.00,0.0698
1058.00,0.0777
1057.00,0.0861
1056.00,0.0941
1055.00,0.1008
1054.00,0.1055
1053.00,0.1084
1052.00,0.1099
1051.00,0.1105
1050.00,0.1104
1049.00,0.1092
1048.00,0.1068
1047.00,0.1029
1046.00,0.0977
1045.00,0.0919
1044.00,0.0857
1043.00,0.0796
1042.00,0.0741
1041.00,0.0694
1040.00,0.0657
1039.00,0.0632
1038.00,0.0619
1037.00,0.0616
1036.00,0.0620
1035.00,0.0627
1034.00,0.0638
1033.00,0.0655
1032.00,0.0685
1031.00,0.0732
1030.00,0.0797
1029.00,0.0871
1028.00,0.0940
1027.00,0.0988
1026.00,0.1000
1025.00,0.0977
1024.00,0.0926
1023.00,0.0860
1022.00,0.0794
1021.00,0.0735
1020.00,0.0684
1019.00,0.0641
1018.00,0.0605
1017.00,0.0574
1016.00,0.0546
1015.00,0.0522
1014.00,0.0501
1013.00,0.0484
1012.00,0.0472
1011.00,0.0466
1010.00,0.0468
1009.00,0.0480
1008.00,0.0500
1007.00,0.0526
1006.00,0.0556
1005.00,0.0584
1004.00,0.0606
1003.00,0.0616
1002.00,0.0615
1001.00,0.0605
1000.00,0.0589
999.00,0.0571
998.00,0.0554
997.00,0.0538
996.00,0.0524
995.00,0.0513
994.00,0.0502
993.00,0.0490
992.00,0.0474
991.00,0.0457
990.00,0.0439
989.00,0.0422
988.00,0.0407
987.00,0.0394
986.00,0.0384
985.00,0.0375
984.00,0.0368
983.00,0.0362
982.00,0.0358
981.00,0.0354
980.00,0.0352
979.00,0.0350
978.00,0.0349
977.00,0.0349
976.00,0.0348
975.00,0.0347
974.00,0.0346
973.00,0.0344
972.00,0.0341
971.00,0.0339
970.00,0.0337
969.00,0.0336
968.00,0.0336
967.00,0.0336
966.00,0.0337
965.00,0.0339
964.00,0.0343
963.00,0.0346
962.00,0.0347
961.00,0.0344
960.00,0.0337
959.00,0.0327
958.00,0.0317
957.00,0.0308
956.00,0.0300
955.00,0.0294
954.00,0.0290
953.00,0.0287
952.00,0.0285
951.00,0.0286
950.00,0.0289
949.00,0.0294
948.00,0.0298
947.00,0.0299
946.00,0.0299
945.00,0.0299
944.00,0.0302
943.00,0.0307
942.00,0.0316
941.00,0.0325
940.00,0.0336
939.00,0.0345
938.00,0.0354
937.00,0.0363
936.00,0.0371
935.00,0.0379
934.00,0.0385
933.00,0.0389
932.00,0.0389
931.00,0.0384
930.00,0.0376
929.00,0.0367
928.00,0.0361
927.00,0.0359
926.00,0.0361
925.00,0.0367
924.00,0.0376
923.00,0.0386
922.00,0.0393
921.00,0.0392
920.00,0.0384
919.00,0.0370
918.00,0.0353
917.00,0.0337
916.00,0.0322
915.00,0.0311
914.00,0.0303
913.00,0.0297
912.00,0.0294
911.00,0.0292
910.00,0.0291
909.00,0.0291
908.00,0.0293
907.00,0.0297
906.00,0.0303
905.00,0.0312
904.00,0.0326
903.00,0.0345
902.00,0.0368
901.00,0.0392
900.00,0.0412
899.00,0.0424
898.00,0.0424
897.00,0.0415
896.00,0.0401
895.00,0.0388
894.00,0.0382
893.00,0.0387
892.00,0.0402
891.00,0.0420
890.00,0.0430
889.00,0.0423
888.00,0.0401
887.00,0.0374
886.00,0.0351
885.00,0.0336
884.00,0.0329
883.00,0.0326
882.00,0.0328
881.00,0.0332
880.00,0.0340
879.00,0.0353
878.00,0.0374
877.00,0.0404
876.00,0.0443
875.00,0.0490
874.00,0.0543
873.00,0.0600
872.00,0.0655
871.00,0.0699
870.00,0.0725
869.00,0.0728
868.00,0.0710
867.00,0.0678
866.00,0.0644
865.00,0.0610
864.00,0.0579
863.00,0.0549
862.00,0.0522
861.00,0.0498
860.00,0.0482
859.00,0.0474
858.00,0.0477
857.00,0.0493
856.00,0.0519
855.00,0.0550
854.00,0.0583
853.00,0.0615
852.00,0.0649
851.00,0.0684
850.00,0.0717
849.00,0.0739
848.00,0.0741
847.00,0.0725
846.00,0.0698
845.00,0.0668
844.00,0.0641
843.00,0.0618
842.00,0.0602
841.00,0.0593
840.00,0.0593
839.00,0.0602
838.00,0.0623
837.00,0.0654
836.00,0.0688
835.00,0.0718
834.00,0.0737
833.00,0.0742
832.00,0.0732
831.00,0.0707
830.00,0.0670
829.00,0.0626
828.00,0.0579
827.00,0.0538
826.00,0.0510
825.00,0.0501
824.00,0.0519
823.00,0.0570
822.00,0.0650
821.00,0.0733
820.00,0.0792
819.00,0.0822
818.00,0.0844
817.00,0.0875
816.00,0.0903
815.00,0.0894
814.00,0.0832
813.00,0.0736
812.00,0.0641
811.00,0.0568
810.00,0.0518
809.00,0.0484
808.00,0.0461
807.00,0.0444
806.00,0.0431
805.00,0.0421
804.00,0.0415
803.00,0.0410
802.00,0.0406
801.00,0.0403
800.00,0.0400
799.00,0.0399
798.00,0.0399
797.00,0.0398
796.00,0.0398
795.00,0.0398
794.00,0.0398
793.00,0.0398
792.00,0.0398
791.00,0.0398
790.00,0.0399
789.00,0.0399
788.00,0.0400
787.00,0.0402
786.00,0.0403
785.00,0.0404
784.00,0.0405
783.00,0.0408
782.00,0.0411
781.00,0.0414
780.00,0.0418
779.00,0.0424
778.00,0.0434
777.00,0.0449
776.00,0.0469
775.00,0.0486
774.00,0.0496
773.00,0.0494
772.00,0.0485
771.00,0.0475
770.00,0.0468
769.00,0.0465
768.00,0.0465
767.00,0.0466
766.00,0.0469
765.00,0.0474
764.00,0.0482
763.00,0.0492
762.00,0.0504
761.00,0.0517
760.00,0.0528
759.00,0.0536
758.00,0.0541
757.00,0.0543
756.00,0.0543
755.00,0.0543
754.00,0.0545
753.00,0.0549
752.00,0.0553
751.00,0.0559
750.00,0.0565
749.00,0.0572
748.00,0.0579
747.00,0.0586
746.00,0.0594
745.00,0.0602
744.00,0.0612
743.00,0.0623
742.00,0.0636
741.00,0.0652
740.00,0.0673
739.00,0.0702
738.00,0.0740
737.00,0.0785
736.00,0.0828
735.00,0.0858
734.00,0.0867
733.00,0.0858
732.00,0.0844
731.00,0.0834
730.00,0.0834
729.00,0.0836
728.00,0.0832
727.00,0.0816
726.00,0.0789
725.00,0.0756
724.00,0.0726
723.00,0.0702
722.00,0.0686
721.00,0.0677
720.00,0.0675
719.00,0.0680
718.00,0.0692
717.00,0.0708
716.00,0.0723
715.00,0.0734
714.00,0.0738
713.00,0.0735
712.00,0.0727
711.00,0.0718
710.00,0.0708
709.00,0.0701
708.00,0.0697
707.00,0.0696
706.00,0.0698
705.00,0.0702
704.00,0.0708
703.00,0.0717
702.00,0.0727
701.00,0.0737
700.00,0.0748
699.00,0.0759
698.00,0.0766
697.00,0.0770
696.00,0.0769
695.00,0.0764
694.00,0.0758
693.00,0.0756
692.00,0.0762
691.00,0.0776
690.00,0.0796
689.00,0.0816
688.00,0.0831
687.00,0.0835
686.00,0.0831
685.00,0.0824
684.00,0.0817
683.00,0.0813
682.00,0.0814
681.00,0.0818
680.00,0.0825
679.00,0.0834
678.00,0.0846
677.00,0.0860
676.00,0.0877
675.00,0.0896
674.00,0.0916
673.00,0.0936
672.00,0.0952
671.00,0.0963
670.00,0.0969
669.00,0.0974
668.00,0.0979
667.00,0.0983
666.00,0.0985
665.00,0.0988
664.00,0.0996
663.00,0.1010
662.00,0.1025
661.00,0.1037
660.00,0.1043
659.00,0.1043
658.00,0.1040
657.00,0.1036
656.00,0.1034
655.00,0.1035
654.00,0.1038
653.00,0.1043
652.00,0.1049
651.00,0.1054
650.00,0.1059
649.00,0.1063
648.00,0.1066
647.00,0.1068
646.00,0.1067
645.00,0.1065
644.00,0.1061
643.00,0.1055
642.00,0.1049
641.00,0.1042
640.00,0.1035
639.00,0.1029
638.00,0.1023
637.00,0.1018
636.00,0.1013
635.00,0.1009
634.00,0.1006
633.00,0.1002
632.00,0.0999
631.00,0.0997
630.00,0.0995
629.00,0.0994
628.00,0.0995
627.00,0.0997
626.00,0.1001
625.00,0.1008
624.00,0.1017
623.00,0.1029
622.00,0.1040
621.00,0.1051
620.00,0.1058
619.00,0.1061
618.00,0.1057
617.00,0.1046
616.00,0.1031
615.00,0.1015
614.00,0.0999
613.00,0.0987
612.00,0.0981
611.00,0.0981
610.00,0.0987
609.00,0.1002
608.00,0.1025
607.00,0.1054
606.00,0.1086
605.00,0.1118
604.00,0.1145
603.00,0.1165
602.00,0.1178
601.00,0.1186
600.00,0.1191
599.00,0.1193
598.00,0.1195
597.00,0.1196
596.00,0.1197
595.00,0.1199
594.00,0.1200
593.00,0.1200
592.00,0.1200
591.00,0.1199
590.00,0.1197
589.00,0.1196
588.00,0.1195
587.00,0.1197
586.00,0.1200
585.00,0.1206
584.00,0.1214
583.00,0.1225
582.00,0.1239
581.00,0.1255
580.00,0.1277
579.00,0.1304
578.00,0.1334
577.00,0.1363
576.00,0.1382
575.00,0.1384
574.00,0.1370
573.00,0.1348
572.00,0.1326
571.00,0.1304
570.00,0.1284
569.00,0.1267
568.00,0.1256
567.00,0.1251
566.00,0.1254
565.00,0.1262
564.00,0.1273
563.00,0.1288
562.00,0.1303
561.00,0.1319
560.00,0.1330
559.00,0.1331
558.00,0.1321
557.00,0.1304
556.00,0.1284
555.00,0.1265
554.00,0.1250
553.00,0.1242
552.00,0.1242
551.00,0.1250
550.00,0.1266
549.00,0.1287
548.00,0.1310
547.00,0.1328
546.00,0.1337
545.00,0.1335
544.00,0.1323
543.00,0.1306
542.00,0.1287
541.00,0.1267
540.00,0.1249
539.00,0.1235
538.00,0.1225
537.00,0.1221
536.00,0.1225
535.00,0.1235
534.00,0.1251
533.00,0.1271
532.00,0.1289
531.00,0.1300
530.00,0.1298
529.00,0.1284
528.00,0.1264
527.00,0.1241
526.00,0.1218
525.00,0.1199
524.00,0.1183
523.00,0.1170
522.00,0.1159
521.00,0.1151
520.00,0.1144
519.00,0.1138
518.00,0.1133
517.00,0.1127
516.00,0.1122
515.00,0.1117
514.00,0.1114
513.00,0.1112
512.00,0.1112
511.00,0.1113
510.00,0.1115
509.00,0.1119
508.00,0.1125
507.00,0.1131
506.00,0.1134
505.00,0.1133
504.00,0.1128
503.00,0.1122
502.00,0.1114
501.00,0.1105
500.00,0.1098
499.00,0.1093
498.00,0.1091
497.00,0.1094
496.00,0.1098
495.00,0.1105
494.00,0.1113
493.00,0.1121
492.00,0.1127
491.00,0.1128
490.00,0.1123
489.00,0.1117
488.00,0.1111
487.00,0.1105
486.00,0.1101
485.00,0.1097
484.00,0.1095
483.00,0.1094
482.00,0.1093
481.00,0.1091
480.00,0.1088
479.00,0.1084
478.00,0.1080
477.00,0.1079
476.00,0.1079
475.00,0.1079
474.00,0.1076
473.00,0.1073
472.00,0.1070
471.00,0.1070
470.00,0.1072
469.00,0.1073
468.00,0.1071
467.00,0.1067
466.00,0.1061
465.00,0.1056
464.00,0.1052
463.00,0.1049
462.00,0.1046
461.00,0.1043
460.00,0.1041
459.00,0.1040
458.00,0.1041
457.00,0.1043
456.00,0.1043
455.00,0.1039
454.00,0.1033
453.00,0.1027
452.00,0.1024
451.00,0.1020
450.00,0.1017
449.00,0.1015
448.00,0.1013
447.00,0.1011
446.00,0.1007
445.00,0.1005
444.00,0.1003
443.00,0.1001
442.00,0.0999
441.00,0.0996
440.00,0.0993
439.00,0.0988
438.00,0.0982
437.00,0.0978
436.00,0.0976
435.00,0.0973
434.00,0.0967
433.00,0.0960
432.00,0.0957
431.00,0.0956
430.00,0.0957
429.00,0.0956
428.00,0.0953
427.00,0.0949
426.00,0.0944
425.00,0.0940
424.00,0.0936
423.00,0.0932
422.00,0.0926
421.00,0.0922
420.00,0.0921
419.00,0.0921
418.00,0.0917
417.00,0.0912
416.00,0.0913
415.00,0.0922
414.00,0.0936
413.00,0.0949
412.00,0.0958
411.00,0.0960
410.00,0.0957
409.00,0.0949
408.00,0.0938
407.00,0.0929
406.00,0.0925
405.00,0.0923
404.00,0.0922
403.00,0.0917
402.00,0.0906
401.00,0.0893
400.00,0.0876
