Created as New Dataset,Sample 093 By YargerLab Date Thursday, August 14 2025
cm-1,A
4000.00,0.0050
3999.00,0.0050
3998.00,0.0050
3997.00,0.0050
3996.00,0.0050
3995.00,0.0050
3994.00,0.0050
3993.00,0.0050
3992.00,0.0050
3991.00,0.0050
3990.00,0.0050
3989.00,0.0050
3988.00,0.0050
3987.00,0.0050
3986.00,0.0050
3985.00,0.0050
3984.00,0.0050
3983.00,0.0050
3982.00,0.0050
3981.00,0.0050
3980.00,0.0051
3979.00,0.0050
3978.00,0.0050
3977.00,0.0050
3976.00,0.0050
3975.00,0.0050
3974.00,0.0050
3973.00,0.0050
3972.00,0.0050
3971.00,0.0050
3970.00,0.0050
3969.00,0.0050
3968.00,0.0051
3967.00,0.0051
3966.00,0.0050
3965.00,0.0050
3964.00,0.0050
3963.00,0.0050
3962.00,0.0050
3961.00,0.0051
3960.00,0.0051
3959.00,0.0051
3958.00,0.0051
3957.00,0.0051
3956.00,0.0051
3955.00,0.0051
3954.00,0.0051
3953.00,0.0051
3952.00,0.0051
3951.00,0.0051
3950.00,0.0051
3949.00,0.0051
3948.00,0.0051
3947.00,0.0050
3946.00,0.0050
3945.00,0.0050
3944.00,0.0050
3943.00,0.0050
3942.00,0.0050
3941.00,0.0050
3940.00,0.0051
3939.00,0.0051
3938.00,0.0050
3937.00,0.0050
3936.00,0.0050
3935.00,0.0051
3934.00,0.0051
3933.00,0.0051
3932.00,0.0051
3931.00,0.0052
3930.00,0.0051
3929.00,0.0051
3928.00,0.0051
3927.00,0.0051
3926.00,0.0051
3925.00,0.0051
3924.00,0.0051
3923.00,0.0051
3922.00,0.0051
3921.00,0.0051
3920.00,0.0051
3919.00,0.0051
3918.00,0.0051
3917.00,0.0051
3916.00,0.0051
3915.00,0.0051
3914.00,0.0051
3913.00,0.0051
3912.00,0.0051
3911.00,0.0051
3910.00,0.0051
3909.00,0.0050
3908.00,0.0050
3907.00,0.0050
3906.00,0.0050
3905.00,0.0050
3904.00,0.0050
3903.00,0.0050
3902.00,0.0050
3901.00,0.0050
3900.00,0.0050
3899.00,0.0050
3898.00,0.0050
3897.00,0.0050
3896.00,0.0050
3895.00,0.0050
3894.00,0.0050
3893.00,0.0050
3892.00,0.0050
3891.00,0.0050
3890.00,0.0050
3889.00,0.0050
3888.00,0.0050
3887.00,0.0050
3886.00,0.0050
3885.00,0.0049
3884.00,0.0050
3883.00,0.0050
3882.00,0.0049
3881.00,0.0049
3880.00,0.0049
3879.00,0.0050
3878.00,0.0050
3877.00,0.0050
3876.00,0.0050
3875.00,0.0050
3874.00,0.0050
3873.00,0.0050
3872.00,0.0050
3871.00,0.0050
3870.00,0.0049
3869.00,0.0049
3868.00,0.0049
3867.00,0.0049
3866.00,0.0049
3865.00,0.0049
3864.00,0.0049
3863.00,0.0049
3862.00,0.0049
3861.00,0.0050
3860.00,0.0050
3859.00,0.0050
3858.00,0.0050
3857.00,0.0050
3856.00,0.0050
3855.00,0.0050
3854.00,0.0050
3853.00,0.0050
3852.00,0.0050
3851.00,0.0050
3850.00,0.0050
3849.00,0.0049
3848.00,0.0049
3847.00,0.0049
3846.00,0.0049
3845.00,0.0049
3844.00,0.0049
3843.00,0.0049
3842.00,0.0049
3841.00,0.0049
3840.00,0.0049
3839.00,0.0049
3838.00,0.0049
3837.00,0.0049
3836.00,0.0049
3835.00,0.0049
3834.00,0.0049
3833.00,0.0049
3832.00,0.0049
3831.00,0.0049
3830.00,0.0049
3829.00,0.0049
3828.00,0.0049
3827.00,0.0049
3826.00,0.0049
3825.00,0.0049
3824.00,0.0049
3823.00,0.0049
3822.00,0.0048
3821.00,0.0048
3820.00,0.0049
3819.00,0.0049
3818.00,0.0049
3817.00,0.0049
3816.00,0.0049
3815.00,0.0049
3814.00,0.0049
3813.00,0.0049
3812.00,0.0049
3811.00,0.0049
3810.00,0.0049
3809.00,0.0049
3808.00,0.0049
3807.00,0.0049
3806.00,0.0049
3805.00,0.0049
3804.00,0.0048
3803.00,0.0048
3802.00,0.0048
3801.00,0.0048
3800.00,0.0049
3799.00,0.0049
3798.00,0.0049
3797.00,0.0049
3796.00,0.0049
3795.00,0.0049
3794.00,0.0049
3793.00,0.0049
3792.00,0.0049
3791.00,0.0049
3790.00,0.0049
3789.00,0.0049
3788.00,0.0049
3787.00,0.0049
3786.00,0.0049
3785.00,0.0049
3784.00,0.0049
3783.00,0.0049
3782.00,0.0049
3781.00,0.0049
3780.00,0.0049
3779.00,0.0049
3778.00,0.0049
3777.00,0.0049
3776.00,0.0049
3775.00,0.0049
3774.00,0.0049
3773.00,0.0049
3772.00,0.0050
3771.00,0.0050
3770.00,0.0049
3769.00,0.0050
3768.00,0.0050
3767.00,0.0050
3766.00,0.0050
3765.00,0.0050
3764.00,0.0050
3763.00,0.0049
3762.00,0.0049
3761.00,0.0049
3760.00,0.0049
3759.00,0.0049
3758.00,0.0049
3757.00,0.0049
3756.00,0.0049
3755.00,0.0049
3754.00,0.0049
3753.00,0.0049
3752.00,0.0049
3751.00,0.0048
3750.00,0.0048
3749.00,0.0048
3748.00,0.0048
3747.00,0.0048
3746.00,0.0049
3745.00,0.0049
3744.00,0.0049
3743.00,0.0049
3742.00,0.0049
3741.00,0.0049
3740.00,0.0048
3739.00,0.0048
3738.00,0.0048
3737.00,0.0048
3736.00,0.0047
3735.00,0.0048
3734.00,0.0048
3733.00,0.0049
3732.00,0.0049
3731.00,0.0049
3730.00,0.0048
3729.00,0.0048
3728.00,0.0047
3727.00,0.0047
3726.00,0.0048
3725.00,0.0048
3724.00,0.0048
3723.00,0.0048
3722.00,0.0048
3721.00,0.0048
3720.00,0.0048
3719.00,0.0048
3718.00,0.0048
3717.00,0.0048
3716.00,0.0048
3715.00,0.0048
3714.00,0.0048
3713.00,0.0048
3712.00,0.0048
3711.00,0.0048
3710.00,0.0048
3709.00,0.0048
3708.00,0.0048
3707.00,0.0048
3706.00,0.0048
3705.00,0.0048
3704.00,0.0048
3703.00,0.0048
3702.00,0.0049
3701.00,0.0049
3700.00,0.0049
3699.00,0.0049
3698.00,0.0049
3697.00,0.0049
3696.00,0.0049
3695.00,0.0049
3694.00,0.0048
3693.00,0.0048
3692.00,0.0048
3691.00,0.0048
3690.00,0.0049
3689.00,0.0049
3688.00,0.0049
3687.00,0.0050
3686.00,0.0050
3685.00,0.0049
3684.00,0.0049
3683.00,0.0049
3682.00,0.0050
3681.00,0.0050
3680.00,0.0050
3679.00,0.0050
3678.00,0.0050
3677.00,0.0050
3676.00,0.0050
3675.00,0.0050
3674.00,0.0051
3673.00,0.0051
3672.00,0.0051
3671.00,0.0051
3670.00,0.0051
3669.00,0.0052
3668.00,0.0052
3667.00,0.0052
3666.00,0.0053
3665.00,0.0053
3664.00,0.0053
3663.00,0.0053
3662.00,0.0053
3661.00,0.0053
3660.00,0.0053
3659.00,0.0054
3658.00,0.0054
3657.00,0.0055
3656.00,0.0055
3655.00,0.0055
3654.00,0.0056
3653.00,0.0056
3652.00,0.0057
3651.00,0.0057
3650.00,0.0057
3649.00,0.0057
3648.00,0.0057
3647.00,0.0058
3646.00,0.0058
3645.00,0.0059
3644.00,0.0059
3643.00,0.0059
3642.00,0.0060
3641.00,0.0060
3640.00,0.0061
3639.00,0.0061
3638.00,0.0062
3637.00,0.0062
3636.00,0.0063
3635.00,0.0063
3634.00,0.0064
3633.00,0.0064
3632.00,0.0065
3631.00,0.0065
3630.00,0.0066
3629.00,0.0066
3628.00,0.0066
3627.00,0.0067
3626.00,0.0067
3625.00,0.0067
3624.00,0.0068
3623.00,0.0068
3622.00,0.0069
3621.00,0.0069
3620.00,0.0069
3619.00,0.0070
3618.00,0.0070
3617.00,0.0071
3616.00,0.0072
3615.00,0.0072
3614.00,0.0073
3613.00,0.0074
3612.00,0.0075
3611.00,0.0075
3610.00,0.0076
3609.00,0.0077
3608.00,0.0077
3607.00,0.0078
3606.00,0.0079
3605.00,0.0080
3604.00,0.0081
3603.00,0.0081
3602.00,0.0082
3601.00,0.0083
3600.00,0.0083
3599.00,0.0084
3598.00,0.0085
3597.00,0.0086
3596.00,0.0087
3595.00,0.0087
3594.00,0.0088
3593.00,0.0089
3592.00,0.0090
3591.00,0.0092
3590.00,0.0093
3589.00,0.0093
3588.00,0.0094
3587.00,0.0094
3586.00,0.0095
3585.00,0.0096
3584.00,0.0097
3583.00,0.0098
3582.00,0.0099
3581.00,0.0100
3580.00,0.0101
3579.00,0.0102
3578.00,0.0103
3577.00,0.0104
3576.00,0.0105
3575.00,0.0106
3574.00,0.0107
3573.00,0.0108
3572.00,0.0109
3571.00,0.0110
3570.00,0.0111
3569.00,0.0113
3568.00,0.0113
3567.00,0.0114
3566.00,0.0115
3565.00,0.0116
3564.00,0.0117
3563.00,0.0118
3562.00,0.0120
3561.00,0.0121
3560.00,0.0122
3559.00,0.0123
3558.00,0.0125
3557.00,0.0126
3556.00,0.0128
3555.00,0.0129
3554.00,0.0130
3553.00,0.0131
3552.00,0.0133
3551.00,0.0134
3550.00,0.0136
3549.00,0.0137
3548.00,0.0139
3547.00,0.0140
3546.00,0.0142
3545.00,0.0144
3544.00,0.0146
3543.00,0.0148
3542.00,0.0151
3541.00,0.0153
3540.00,0.0156
3539.00,0.0159
3538.00,0.0162
3537.00,0.0165
3536.00,0.0169
3535.00,0.0173
3534.00,0.0178
3533.00,0.0184
3532.00,0.0191
3531.00,0.0199
3530.00,0.0208
3529.00,0.0219
3528.00,0.0230
3527.00,0.0242
3526.00,0.0254
3525.00,0.0266
3524.00,0.0277
3523.00,0.0286
3522.00,0.0293
3521.00,0.0298
3520.00,0.0300
3519.00,0.0300
3518.00,0.0298
3517.00,0.0294
3516.00,0.0289
3515.00,0.0282
3514.00,0.0275
3513.00,0.0267
3512.00,0.0259
3511.00,0.0252
3510.00,0.0244
3509.00,0.0238
3508.00,0.0232
3507.00,0.0228
3506.00,0.0224
3505.00,0.0221
3504.00,0.0218
3503.00,0.0215
3502.00,0.0213
3501.00,0.0212
3500.00,0.0211
3499.00,0.0210
3498.00,0.0210
3497.00,0.0210
3496.00,0.0210
3495.00,0.0209
3494.00,0.0210
3493.00,0.0210
3492.00,0.0210
3491.00,0.0211
3490.00,0.0212
3489.00,0.0212
3488.00,0.0213
3487.00,0.0214
3486.00,0.0214
3485.00,0.0215
3484.00,0.0216
3483.00,0.0217
3482.00,0.0218
3481.00,0.0219
3480.00,0.0221
3479.00,0.0223
3478.00,0.0224
3477.00,0.0226
3476.00,0.0227
3475.00,0.0229
3474.00,0.0230
3473.00,0.0232
3472.00,0.0234
3471.00,0.0236
3470.00,0.0238
3469.00,0.0240
3468.00,0.0242
3467.00,0.0244
3466.00,0.0246
3465.00,0.0249
3464.00,0.0251
3463.00,0.0253
3462.00,0.0256
3461.00,0.0258
3460.00,0.0261
3459.00,0.0263
3458.00,0.0265
3457.00,0.0268
3456.00,0.0270
3455.00,0.0273
3454.00,0.0276
3453.00,0.0279
3452.00,0.0282
3451.00,0.0285
3450.00,0.0287
3449.00,0.0290
3448.00,0.0292
3447.00,0.0294
3446.00,0.0297
3445.00,0.0299
3444.00,0.0301
3443.00,0.0303
3442.00,0.0306
3441.00,0.0308
3440.00,0.0310
3439.00,0.0313
3438.00,0.0316
3437.00,0.0318
3436.00,0.0321
3435.00,0.0323
3434.00,0.0325
3433.00,0.0327
3432.00,0.0329
3431.00,0.0331
3430.00,0.0333
3429.00,0.0334
3428.00,0.0336
3427.00,0.0338
3426.00,0.0341
3425.00,0.0343
3424.00,0.0346
3423.00,0.0348
3422.00,0.0351
3421.00,0.0354
3420.00,0.0358
3419.00,0.0361
3418.00,0.0364
3417.00,0.0368
3416.00,0.0372
3415.00,0.0376
3414.00,0.0379
3413.00,0.0383
3412.00,0.0386
3411.00,0.0388
3410.00,0.0390
3409.00,0.0391
3408.00,0.0391
3407.00,0.0391
3406.00,0.0389
3405.00,0.0386
3404.00,0.0382
3403.00,0.0378
3402.00,0.0373
3401.00,0.0367
3400.00,0.0361
3399.00,0.0354
3398.00,0.0346
3397.00,0.0339
3396.00,0.0331
3395.00,0.0324
3394.00,0.0317
3393.00,0.0309
3392.00,0.0302
3391.00,0.0296
3390.00,0.0290
3389.00,0.0284
3388.00,0.0278
3387.00,0.0273
3386.00,0.0269
3385.00,0.0264
3384.00,0.0260
3383.00,0.0255
3382.00,0.0251
3381.00,0.0248
3380.00,0.0244
3379.00,0.0241
3378.00,0.0238
3377.00,0.0235
3376.00,0.0232
3375.00,0.0229
3374.00,0.0226
3373.00,0.0223
3372.00,0.0220
3371.00,0.0217
3370.00,0.0215
3369.00,0.0212
3368.00,0.0210
3367.00,0.0208
3366.00,0.0206
3365.00,0.0204
3364.00,0.0202
3363.00,0.0200
3362.00,0.0198
3361.00,0.0196
3360.00,0.0194
3359.00,0.0192
3358.00,0.0191
3357.00,0.0189
3356.00,0.0188
3355.00,0.0186
3354.00,0.0184
3353.00,0.0183
3352.00,0.0181
3351.00,0.0179
3350.00,0.0177
3349.00,0.0176
3348.00,0.0175
3347.00,0.0173
3346.00,0.0172
3345.00,0.0171
3344.00,0.0170
3343.00,0.0169
3342.00,0.0168
3341.00,0.0166
3340.00,0.0165
3339.00,0.0164
3338.00,0.0163
3337.00,0.0162
3336.00,0.0161
3335.00,0.0161
3334.00,0.0160
3333.00,0.0159
3332.00,0.0158
3331.00,0.0158
3330.00,0.0157
3329.00,0.0156
3328.00,0.0155
3327.00,0.0154
3326.00,0.0153
3325.00,0.0152
3324.00,0.0152
3323.00,0.0151
3322.00,0.0151
3321.00,0.0151
3320.00,0.0150
3319.00,0.0150
3318.00,0.0149
3317.00,0.0149
3316.00,0.0148
3315.00,0.0147
3314.00,0.0147
3313.00,0.0146
3312.00,0.0145
3311.00,0.0144
3310.00,0.0143
3309.00,0.0141
3308.00,0.0140
3307.00,0.0140
3306.00,0.0139
3305.00,0.0139
3304.00,0.0139
3303.00,0.0139
3302.00,0.0139
3301.00,0.0139
3300.00,0.0139
3299.00,0.0138
3298.00,0.0137
3297.00,0.0136
3296.00,0.0135
3295.00,0.0134
3294.00,0.0133
3293.00,0.0133
3292.00,0.0133
3291.00,0.0133
3290.00,0.0133
3289.00,0.0133
3288.00,0.0133
3287.00,0.0133
3286.00,0.0133
3285.00,0.0132
3284.00,0.0132
3283.00,0.0131
3282.00,0.0131
3281.00,0.0130
3280.00,0.0130
3279.00,0.0129
3278.00,0.0128
3277.00,0.0127
3276.00,0.0127
3275.00,0.0126
3274.00,0.0125
3273.00,0.0125
3272.00,0.0124
3271.00,0.0123
3270.00,0.0123
3269.00,0.0123
3268.00,0.0123
3267.00,0.0123
3266.00,0.0123
3265.00,0.0123
3264.00,0.0123
3263.00,0.0123
3262.00,0.0122
3261.00,0.0122
3260.00,0.0121
3259.00,0.0121
3258.00,0.0120
3257.00,0.0120
3256.00,0.0119
3255.00,0.0119
3254.00,0.0118
3253.00,0.0118
3252.00,0.0118
3251.00,0.0118
3250.00,0.0117
3249.00,0.0117
3248.00,0.0116
3247.00,0.0116
3246.00,0.0115
3245.00,0.0115
3244.00,0.0115
3243.00,0.0115
3242.00,0.0114
3241.00,0.0114
3240.00,0.0113
3239.00,0.0113
3238.00,0.0112
3237.00,0.0111
3236.00,0.0111
3235.00,0.0110
3234.00,0.0110
3233.00,0.0109
3232.00,0.0109
3231.00,0.0109
3230.00,0.0109
3229.00,0.0108
3228.00,0.0108
3227.00,0.0107
3226.00,0.0107
3225.00,0.0106
3224.00,0.0105
3223.00,0.0105
3222.00,0.0104
3221.00,0.0103
3220.00,0.0103
3219.00,0.0103
3218.00,0.0102
3217.00,0.0102
3216.00,0.0101
3215.00,0.0101
3214.00,0.0100
3213.00,0.0100
3212.00,0.0100
3211.00,0.0099
3210.00,0.0099
3209.00,0.0098
3208.00,0.0098
3207.00,0.0098
3206.00,0.0097
3205.00,0.0097
3204.00,0.0096
3203.00,0.0096
3202.00,0.0095
3201.00,0.0095
3200.00,0.0094
3199.00,0.0093
3198.00,0.0093
3197.00,0.0092
3196.00,0.0092
3195.00,0.0091
3194.00,0.0090
3193.00,0.0090
3192.00,0.0090
3191.00,0.0089
3190.00,0.0089
3189.00,0.0089
3188.00,0.0088
3187.00,0.0088
3186.00,0.0088
3185.00,0.0087
3184.00,0.0087
3183.00,0.0086
3182.00,0.0086
3181.00,0.0085
3180.00,0.0085
3179.00,0.0085
3178.00,0.0084
3177.00,0.0084
3176.00,0.0084
3175.00,0.0083
3174.00,0.0083
3173.00,0.0083
3172.00,0.0083
3171.00,0.0083
3170.00,0.0083
3169.00,0.0083
3168.00,0.0082
3167.00,0.0082
3166.00,0.0081
3165.00,0.0081
3164.00,0.0081
3163.00,0.0081
3162.00,0.0081
3161.00,0.0081
3160.00,0.0080
3159.00,0.0080
3158.00,0.0080
3157.00,0.0079
3156.00,0.0079
3155.00,0.0078
3154.00,0.0078
3153.00,0.0077
3152.00,0.0077
3151.00,0.0077
3150.00,0.0077
3149.00,0.0077
3148.00,0.0077
3147.00,0.0077
3146.00,0.0076
3145.00,0.0076
3144.00,0.0075
3143.00,0.0075
3142.00,0.0075
3141.00,0.0075
3140.00,0.0075
3139.00,0.0075
3138.00,0.0074
3137.00,0.0074
3136.00,0.0074
3135.00,0.0074
3134.00,0.0073
3133.00,0.0073
3132.00,0.0072
3131.00,0.0072
3130.00,0.0072
3129.00,0.0072
3128.00,0.0072
3127.00,0.0072
3126.00,0.0072
3125.00,0.0072
3124.00,0.0071
3123.00,0.0071
3122.00,0.0071
3121.00,0.0071
3120.00,0.0071
3119.00,0.0071
3118.00,0.0071
3117.00,0.0071
3116.00,0.0070
3115.00,0.0070
3114.00,0.0070
3113.00,0.0070
3112.00,0.0070
3111.00,0.0070
3110.00,0.0070
3109.00,0.0070
3108.00,0.0070
3107.00,0.0070
3106.00,0.0070
3105.00,0.0070
3104.00,0.0070
3103.00,0.0070
3102.00,0.0069
3101.00,0.0069
3100.00,0.0070
3099.00,0.0070
3098.00,0.0070
3097.00,0.0069
3096.00,0.0069
3095.00,0.0069
3094.00,0.0069
3093.00,0.0069
3092.00,0.0069
3091.00,0.0069
3090.00,0.0070
3089.00,0.0070
3088.00,0.0070
3087.00,0.0070
3086.00,0.0071
3085.00,0.0071
3084.00,0.0072
3083.00,0.0073
3082.00,0.0075
3081.00,0.0077
3080.00,0.0080
3079.00,0.0084
3078.00,0.0089
3077.00,0.0094
3076.00,0.0098
3075.00,0.0100
3074.00,0.0101
3073.00,0.0099
3072.00,0.0096
3071.00,0.0092
3070.00,0.0087
3069.00,0.0083
3068.00,0.0079
3067.00,0.0076
3066.00,0.0074
3065.00,0.0072
3064.00,0.0071
3063.00,0.0070
3062.00,0.0069
3061.00,0.0069
3060.00,0.0068
3059.00,0.0068
3058.00,0.0067
3057.00,0.0067
3056.00,0.0066
3055.00,0.0065
3054.00,0.0065
3053.00,0.0065
3052.00,0.0064
3051.00,0.0064
3050.00,0.0064
3049.00,0.0064
3048.00,0.0065
3047.00,0.0065
3046.00,0.0065
3045.00,0.0066
3044.00,0.0066
3043.00,0.0067
3042.00,0.0067
3041.00,0.0067
3040.00,0.0067
3039.00,0.0068
3038.00,0.0068
3037.00,0.0068
3036.00,0.0068
3035.00,0.0069
3034.00,0.0069
3033.00,0.0070
3032.00,0.0070
3031.00,0.0070
3030.00,0.0070
3029.00,0.0069
3028.00,0.0068
3027.00,0.0067
3026.00,0.0067
3025.00,0.0066
3024.00,0.0066
3023.00,0.0065
3022.00,0.0065
3021.00,0.0065
3020.00,0.0065
3019.00,0.0066
3018.00,0.0066
3017.00,0.0066
3016.00,0.0067
3015.00,0.0067
3014.00,0.0068
3013.00,0.0068
3012.00,0.0069
3011.00,0.0070
3010.00,0.0070
3009.00,0.0071
3008.00,0.0072
3007.00,0.0073
3006.00,0.0074
3005.00,0.0075
3004.00,0.0075
3003.00,0.0076
3002.00,0.0078
3001.00,0.0079
3000.00,0.0080
2999.00,0.0081
2998.00,0.0083
2997.00,0.0084
2996.00,0.0085
2995.00,0.0087
2994.00,0.0088
2993.00,0.0090
2992.00,0.0092
2991.00,0.0094
2990.00,0.0096
2989.00,0.0098
2988.00,0.0099
2987.00,0.0100
2986.00,0.0100
2985.00,0.0101
2984.00,0.0101
2983.00,0.0101
2982.00,0.0102
2981.00,0.0104
2980.00,0.0107
2979.00,0.0111
2978.00,0.0115
2977.00,0.0120
2976.00,0.0126
2975.00,0.0132
2974.00,0.0139
2973.00,0.0146
2972.00,0.0154
2971.00,0.0162
2970.00,0.0170
2969.00,0.0178
2968.00,0.0184
2967.00,0.0188
2966.00,0.0191
2965.00,0.0191
2964.00,0.0191
2963.00,0.0191
2962.00,0.0191
2961.00,0.0191
2960.00,0.0191
2959.00,0.0190
2958.00,0.0189
2957.00,0.0187
2956.00,0.0185
2955.00,0.0183
2954.00,0.0181
2953.00,0.0179
2952.00,0.0178
2951.00,0.0178
2950.00,0.0179
2949.00,0.0181
2948.00,0.0185
2947.00,0.0190
2946.00,0.0195
2945.00,0.0201
2944.00,0.0206
2943.00,0.0211
2942.00,0.0214
2941.00,0.0216
2940.00,0.0218
2939.00,0.0218
2938.00,0.0219
2937.00,0.0220
2936.00,0.0222
2935.00,0.0225
2934.00,0.0229
2933.00,0.0234
2932.00,0.0241
2931.00,0.0248
2930.00,0.0256
2929.00,0.0264
2928.00,0.0273
2927.00,0.0280
2926.00,0.0285
2925.00,0.0288
2924.00,0.0290
2923.00,0.0290
2922.00,0.0289
2921.00,0.0288
2920.00,0.0287
2919.00,0.0285
2918.00,0.0284
2917.00,0.0283
2916.00,0.0282
2915.00,0.0279
2914.00,0.0276
2913.00,0.0271
2912.00,0.0265
2911.00,0.0258
2910.00,0.0251
2909.00,0.0244
2908.00,0.0238
2907.00,0.0232
2906.00,0.0227
2905.00,0.0222
2904.00,0.0219
2903.00,0.0216
2902.00,0.0214
2901.00,0.0212
2900.00,0.0210
2899.00,0.0208
2898.00,0.0206
2897.00,0.0202
2896.00,0.0199
2895.00,0.0195
2894.00,0.0191
2893.00,0.0188
2892.00,0.0186
2891.00,0.0184
2890.00,0.0182
2889.00,0.0181
2888.00,0.0181
2887.00,0.0180
2886.00,0.0180
2885.00,0.0180
2884.00,0.0180
2883.00,0.0180
2882.00,0.0180
2881.00,0.0180
2880.00,0.0180
2879.00,0.0181
2878.00,0.0181
2877.00,0.0181
2876.00,0.0181
2875.00,0.0182
2874.00,0.0182
2873.00,0.0183
2872.00,0.0183
2871.00,0.0183
2870.00,0.0182
2869.00,0.0180
2868.00,0.0178
2867.00,0.0176
2866.00,0.0174
2865.00,0.0173
2864.00,0.0174
2863.00,0.0176
2862.00,0.0180
2861.00,0.0187
2860.00,0.0195
2859.00,0.0204
2858.00,0.0214
2857.00,0.0221
2856.00,0.0226
2855.00,0.0225
2854.00,0.0220
2853.00,0.0211
2852.00,0.0200
2851.00,0.0187
2850.00,0.0174
2849.00,0.0162
2848.00,0.0152
2847.00,0.0143
2846.00,0.0135
2845.00,0.0129
2844.00,0.0124
2843.00,0.0121
2842.00,0.0118
2841.00,0.0116
2840.00,0.0115
2839.00,0.0115
2838.00,0.0116
2837.00,0.0118
2836.00,0.0121
2835.00,0.0126
2834.00,0.0132
2833.00,0.0139
2832.00,0.0147
2831.00,0.0154
2830.00,0.0159
2829.00,0.0160
2828.00,0.0157
2827.00,0.0151
2826.00,0.0143
2825.00,0.0133
2824.00,0.0125
2823.00,0.0117
2822.00,0.0111
2821.00,0.0106
2820.00,0.0102
2819.00,0.0099
2818.00,0.0096
2817.00,0.0094
2816.00,0.0093
2815.00,0.0091
2814.00,0.0090
2813.00,0.0088
2812.00,0.0087
2811.00,0.0086
2810.00,0.0085
2809.00,0.0085
2808.00,0.0084
2807.00,0.0083
2806.00,0.0083
2805.00,0.0082
2804.00,0.0082
2803.00,0.0081
2802.00,0.0080
2801.00,0.0080
2800.00,0.0079
2799.00,0.0078
2798.00,0.0078
2797.00,0.0078
2796.00,0.0078
2795.00,0.0077
2794.00,0.0077
2793.00,0.0077
2792.00,0.0076
2791.00,0.0076
2790.00,0.0075
2789.00,0.0075
2788.00,0.0075
2787.00,0.0075
2786.00,0.0074
2785.00,0.0074
2784.00,0.0074
2783.00,0.0073
2782.00,0.0073
2781.00,0.0073
2780.00,0.0073
2779.00,0.0073
2778.00,0.0072
2777.00,0.0072
2776.00,0.0072
2775.00,0.0071
2774.00,0.0071
2773.00,0.0071
2772.00,0.0070
2771.00,0.0070
2770.00,0.0070
2769.00,0.0070
2768.00,0.0070
2767.00,0.0069
2766.00,0.0069
2765.00,0.0069
2764.00,0.0069
2763.00,0.0068
2762.00,0.0068
2761.00,0.0068
2760.00,0.0068
2759.00,0.0068
2758.00,0.0068
2757.00,0.0068
2756.00,0.0068
2755.00,0.0067
2754.00,0.0067
2753.00,0.0067
2752.00,0.0067
2751.00,0.0067
2750.00,0.0067
2749.00,0.0067
2748.00,0.0067
2747.00,0.0067
2746.00,0.0067
2745.00,0.0067
2744.00,0.0067
2743.00,0.0067
2742.00,0.0067
2741.00,0.0067
2740.00,0.0067
2739.00,0.0067
2738.00,0.0068
2737.00,0.0068
2736.00,0.0068
2735.00,0.0068
2734.00,0.0068
2733.00,0.0068
2732.00,0.0069
2731.00,0.0069
2730.00,0.0070
2729.00,0.0070
2728.00,0.0070
2727.00,0.0070
2726.00,0.0070
2725.00,0.0069
2724.00,0.0068
2723.00,0.0068
2722.00,0.0067
2721.00,0.0067
2720.00,0.0067
2719.00,0.0066
2718.00,0.0066
2717.00,0.0066
2716.00,0.0066
2715.00,0.0066
2714.00,0.0066
2713.00,0.0066
2712.00,0.0066
2711.00,0.0065
2710.00,0.0065
2709.00,0.0065
2708.00,0.0065
2707.00,0.0065
2706.00,0.0064
2705.00,0.0064
2704.00,0.0064
2703.00,0.0064
2702.00,0.0064
2701.00,0.0064
2700.00,0.0064
2699.00,0.0063
2698.00,0.0063
2697.00,0.0063
2696.00,0.0063
2695.00,0.0063
2694.00,0.0063
2693.00,0.0063
2692.00,0.0064
2691.00,0.0064
2690.00,0.0064
2689.00,0.0063
2688.00,0.0063
2687.00,0.0063
2686.00,0.0064
2685.00,0.0064
2684.00,0.0064
2683.00,0.0064
2682.00,0.0064
2681.00,0.0064
2680.00,0.0064
2679.00,0.0064
2678.00,0.0064
2677.00,0.0064
2676.00,0.0065
2675.00,0.0065
2674.00,0.0065
2673.00,0.0065
2672.00,0.0065
2671.00,0.0065
2670.00,0.0065
2669.00,0.0065
2668.00,0.0065
2667.00,0.0066
2666.00,0.0066
2665.00,0.0066
2664.00,0.0067
2663.00,0.0067
2662.00,0.0067
2661.00,0.0067
2660.00,0.0067
2659.00,0.0068
2658.00,0.0068
2657.00,0.0068
2656.00,0.0068
2655.00,0.0069
2654.00,0.0069
2653.00,0.0068
2652.00,0.0068
2651.00,0.0068
2650.00,0.0068
2649.00,0.0068
2648.00,0.0068
2647.00,0.0068
2646.00,0.0068
2645.00,0.0068
2644.00,0.0068
2643.00,0.0068
2642.00,0.0067
2641.00,0.0067
2640.00,0.0067
2639.00,0.0067
2638.00,0.0067
2637.00,0.0067
2636.00,0.0067
2635.00,0.0067
2634.00,0.0067
2633.00,0.0067
2632.00,0.0067
2631.00,0.0067
2630.00,0.0067
2629.00,0.0067
2628.00,0.0067
2627.00,0.0066
2626.00,0.0066
2625.00,0.0066
2624.00,0.0066
2623.00,0.0066
2622.00,0.0066
2621.00,0.0066
2620.00,0.0066
2619.00,0.0066
2618.00,0.0066
2617.00,0.0066
2616.00,0.0066
2615.00,0.0066
2614.00,0.0066
2613.00,0.0065
2612.00,0.0065
2611.00,0.0066
2610.00,0.0066
2609.00,0.0066
2608.00,0.0066
2607.00,0.0066
2606.00,0.0065
2605.00,0.0065
2604.00,0.0065
2603.00,0.0065
2602.00,0.0065
2601.00,0.0065
2600.00,0.0065
2599.00,0.0065
2598.00,0.0065
2597.00,0.0065
2596.00,0.0065
2595.00,0.0065
2594.00,0.0065
2593.00,0.0065
2592.00,0.0065
2591.00,0.0065
2590.00,0.0065
2589.00,0.0065
2588.00,0.0065
2587.00,0.0064
2586.00,0.0064
2585.00,0.0065
2584.00,0.0065
2583.00,0.0065
2582.00,0.0065
2581.00,0.0065
2580.00,0.0065
2579.00,0.0065
2578.00,0.0065
2577.00,0.0064
2576.00,0.0064
2575.00,0.0064
2574.00,0.0064
2573.00,0.0064
2572.00,0.0064
2571.00,0.0064
2570.00,0.0064
2569.00,0.0064
2568.00,0.0065
2567.00,0.0065
2566.00,0.0065
2565.00,0.0065
2564.00,0.0064
2563.00,0.0064
2562.00,0.0064
2561.00,0.0063
2560.00,0.0063
2559.00,0.0064
2558.00,0.0064
2557.00,0.0064
2556.00,0.0064
2555.00,0.0064
2554.00,0.0064
2553.00,0.0064
2552.00,0.0064
2551.00,0.0064
2550.00,0.0064
2549.00,0.0064
2548.00,0.0064
2547.00,0.0064
2546.00,0.0064
2545.00,0.0063
2544.00,0.0063
2543.00,0.0063
2542.00,0.0063
2541.00,0.0063
2540.00,0.0063
2539.00,0.0063
2538.00,0.0063
2537.00,0.0062
2536.00,0.0062
2535.00,0.0062
2534.00,0.0062
2533.00,0.0062
2532.00,0.0062
2531.00,0.0062
2530.00,0.0062
2529.00,0.0062
2528.00,0.0063
2527.00,0.0063
2526.00,0.0063
2525.00,0.0063
2524.00,0.0062
2523.00,0.0062
2522.00,0.0062
2521.00,0.0062
2520.00,0.0062
2519.00,0.0062
2518.00,0.0062
2517.00,0.0062
2516.00,0.0062
2515.00,0.0061
2514.00,0.0061
2513.00,0.0061
2512.00,0.0061
2511.00,0.0061
2510.00,0.0061
2509.00,0.0062
2508.00,0.0062
2507.00,0.0062
2506.00,0.0062
2505.00,0.0062
2504.00,0.0062
2503.00,0.0062
2502.00,0.0062
2501.00,0.0062
2500.00,0.0062
2499.00,0.0062
2498.00,0.0062
2497.00,0.0062
2496.00,0.0062
2495.00,0.0062
2494.00,0.0062
2493.00,0.0062
2492.00,0.0061
2491.00,0.0061
2490.00,0.0061
2489.00,0.0061
2488.00,0.0061
2487.00,0.0062
2486.00,0.0061
2485.00,0.0061
2484.00,0.0061
2483.00,0.0061
2482.00,0.0061
2481.00,0.0061
2480.00,0.0062
2479.00,0.0062
2478.00,0.0062
2477.00,0.0061
2476.00,0.0062
2475.00,0.0062
2474.00,0.0062
2473.00,0.0062
2472.00,0.0062
2471.00,0.0062
2470.00,0.0062
2469.00,0.0062
2468.00,0.0062
2467.00,0.0063
2466.00,0.0063
2465.00,0.0063
2464.00,0.0063
2463.00,0.0063
2462.00,0.0063
2461.00,0.0063
2460.00,0.0063
2459.00,0.0064
2458.00,0.0064
2457.00,0.0064
2456.00,0.0064
2455.00,0.0064
2454.00,0.0064
2453.00,0.0064
2452.00,0.0064
2451.00,0.0064
2450.00,0.0064
2449.00,0.0064
2448.00,0.0064
2447.00,0.0064
2446.00,0.0064
2445.00,0.0063
2444.00,0.0063
2443.00,0.0062
2442.00,0.0062
2441.00,0.0062
2440.00,0.0062
2439.00,0.0062
2438.00,0.0062
2437.00,0.0062
2436.00,0.0062
2435.00,0.0061
2434.00,0.0061
2433.00,0.0061
2432.00,0.0060
2431.00,0.0060
2430.00,0.0060
2429.00,0.0060
2428.00,0.0060
2427.00,0.0060
2426.00,0.0060
2425.00,0.0060
2424.00,0.0060
2423.00,0.0060
2422.00,0.0060
2421.00,0.0059
2420.00,0.0059
2419.00,0.0059
2418.00,0.0059
2417.00,0.0059
2416.00,0.0060
2415.00,0.0060
2414.00,0.0060
2413.00,0.0060
2412.00,0.0060
2411.00,0.0060
2410.00,0.0060
2409.00,0.0060
2408.00,0.0060
2407.00,0.0059
2406.00,0.0059
2405.00,0.0058
2404.00,0.0058
2403.00,0.0058
2402.00,0.0059
2401.00,0.0059
2400.00,0.0059
2399.00,0.0059
2398.00,0.0059
2397.00,0.0059
2396.00,0.0059
2395.00,0.0059
2394.00,0.0059
2393.00,0.0059
2392.00,0.0059
2391.00,0.0058
2390.00,0.0058
2389.00,0.0058
2388.00,0.0058
2387.00,0.0058
2386.00,0.0058
2385.00,0.0057
2384.00,0.0057
2383.00,0.0057
2382.00,0.0056
2381.00,0.0056
2380.00,0.0056
2379.00,0.0055
2378.00,0.0055
2377.00,0.0055
2376.00,0.0055
2375.00,0.0055
2374.00,0.0055
2373.00,0.0055
2372.00,0.0055
2371.00,0.0055
2370.00,0.0055
2369.00,0.0054
2368.00,0.0054
2367.00,0.0054
2366.00,0.0055
2365.00,0.0055
2364.00,0.0056
2363.00,0.0057
2362.00,0.0056
2361.00,0.0056
2360.00,0.0055
2359.00,0.0055
2358.00,0.0055
2357.00,0.0056
2356.00,0.0056
2355.00,0.0057
2354.00,0.0058
2353.00,0.0058
2352.00,0.0058
2351.00,0.0057
2350.00,0.0057
2349.00,0.0057
2348.00,0.0057
2347.00,0.0058
2346.00,0.0058
2345.00,0.0058
2344.00,0.0058
2343.00,0.0058
2342.00,0.0058
2341.00,0.0059
2340.00,0.0059
2339.00,0.0060
2338.00,0.0060
2337.00,0.0060
2336.00,0.0060
2335.00,0.0060
2334.00,0.0060
2333.00,0.0061
2332.00,0.0061
2331.00,0.0061
2330.00,0.0061
2329.00,0.0062
2328.00,0.0065
2327.00,0.0068
2326.00,0.0071
2325.00,0.0072
2324.00,0.0071
2323.00,0.0069
2322.00,0.0068
2321.00,0.0066
2320.00,0.0065
2319.00,0.0065
2318.00,0.0064
2317.00,0.0064
2316.00,0.0063
2315.00,0.0063
2314.00,0.0063
2313.00,0.0063
2312.00,0.0063
2311.00,0.0062
2310.00,0.0062
2309.00,0.0061
2308.00,0.0061
2307.00,0.0061
2306.00,0.0062
2305.00,0.0062
2304.00,0.0063
2303.00,0.0063
2302.00,0.0063
2301.00,0.0063
2300.00,0.0064
2299.00,0.0064
2298.00,0.0065
2297.00,0.0065
2296.00,0.0066
2295.00,0.0067
2294.00,0.0067
2293.00,0.0068
2292.00,0.0069
2291.00,0.0069
2290.00,0.0070
2289.00,0.0070
2288.00,0.0071
2287.00,0.0071
2286.00,0.0071
2285.00,0.0070
2284.00,0.0070
2283.00,0.0070
2282.00,0.0069
2281.00,0.0069
2280.00,0.0069
2279.00,0.0068
2278.00,0.0067
2277.00,0.0067
2276.00,0.0067
2275.00,0.0066
2274.00,0.0066
2273.00,0.0066
2272.00,0.0065
2271.00,0.0065
2270.00,0.0065
2269.00,0.0064
2268.00,0.0063
2267.00,0.0063
2266.00,0.0063
2265.00,0.0063
2264.00,0.0064
2263.00,0.0064
2262.00,0.0064
2261.00,0.0065
2260.00,0.0065
2259.00,0.0066
2258.00,0.0065
2257.00,0.0064
2256.00,0.0063
2255.00,0.0062
2254.00,0.0062
2253.00,0.0063
2252.00,0.0063
2251.00,0.0063
2250.00,0.0063
2249.00,0.0062
2248.00,0.0063
2247.00,0.0063
2246.00,0.0063
2245.00,0.0063
2244.00,0.0063
2243.00,0.0063
2242.00,0.0063
2241.00,0.0063
2240.00,0.0063
2239.00,0.0062
2238.00,0.0062
2237.00,0.0063
2236.00,0.0063
2235.00,0.0064
2234.00,0.0064
2233.00,0.0064
2232.00,0.0064
2231.00,0.0063
2230.00,0.0063
2229.00,0.0063
2228.00,0.0063
2227.00,0.0063
2226.00,0.0064
2225.00,0.0064
2224.00,0.0064
2223.00,0.0064
2222.00,0.0064
2221.00,0.0063
2220.00,0.0062
2219.00,0.0062
2218.00,0.0063
2217.00,0.0063
2216.00,0.0064
2215.00,0.0065
2214.00,0.0065
2213.00,0.0065
2212.00,0.0065
2211.00,0.0065
2210.00,0.0064
2209.00,0.0064
2208.00,0.0064
2207.00,0.0064
2206.00,0.0065
2205.00,0.0065
2204.00,0.0066
2203.00,0.0066
2202.00,0.0066
2201.00,0.0065
2200.00,0.0065
2199.00,0.0064
2198.00,0.0064
2197.00,0.0063
2196.00,0.0063
2195.00,0.0064
2194.00,0.0065
2193.00,0.0066
2192.00,0.0068
2191.00,0.0069
2190.00,0.0069
2189.00,0.0069
2188.00,0.0069
2187.00,0.0070
2186.00,0.0069
2185.00,0.0067
2184.00,0.0065
2183.00,0.0062
2182.00,0.0060
2181.00,0.0060
2180.00,0.0061
2179.00,0.0062
2178.00,0.0062
2177.00,0.0061
2176.00,0.0061
2175.00,0.0061
2174.00,0.0062
2173.00,0.0063
2172.00,0.0064
2171.00,0.0066
2170.00,0.0067
2169.00,0.0069
2168.00,0.0070
2167.00,0.0071
2166.00,0.0071
2165.00,0.0073
2164.00,0.0075
2163.00,0.0076
2162.00,0.0072
2161.00,0.0062
2160.00,0.0050
2159.00,0.0040
2158.00,0.0036
2157.00,0.0037
2156.00,0.0041
2155.00,0.0044
2154.00,0.0046
2153.00,0.0047
2152.00,0.0048
2151.00,0.0049
2150.00,0.0049
2149.00,0.0049
2148.00,0.0049
2147.00,0.0049
2146.00,0.0050
2145.00,0.0050
2144.00,0.0051
2143.00,0.0050
2142.00,0.0050
2141.00,0.0049
2140.00,0.0050
2139.00,0.0050
2138.00,0.0049
2137.00,0.0047
2136.00,0.0046
2135.00,0.0045
2134.00,0.0045
2133.00,0.0047
2132.00,0.0049
2131.00,0.0051
2130.00,0.0052
2129.00,0.0053
2128.00,0.0053
2127.00,0.0054
2126.00,0.0054
2125.00,0.0055
2124.00,0.0056
2123.00,0.0056
2122.00,0.0057
2121.00,0.0057
2120.00,0.0057
2119.00,0.0058
2118.00,0.0059
2117.00,0.0060
2116.00,0.0062
2115.00,0.0063
2114.00,0.0063
2113.00,0.0062
2112.00,0.0061
2111.00,0.0061
2110.00,0.0061
2109.00,0.0061
2108.00,0.0062
2107.00,0.0062
2106.00,0.0061
2105.00,0.0061
2104.00,0.0061
2103.00,0.0061
2102.00,0.0060
2101.00,0.0060
2100.00,0.0059
2099.00,0.0059
2098.00,0.0058
2097.00,0.0057
2096.00,0.0056
2095.00,0.0055
2094.00,0.0055
2093.00,0.0056
2092.00,0.0057
2091.00,0.0058
2090.00,0.0058
2089.00,0.0059
2088.00,0.0060
2087.00,0.0061
2086.00,0.0061
2085.00,0.0061
2084.00,0.0062
2083.00,0.0062
2082.00,0.0063
2081.00,0.0063
2080.00,0.0064
2079.00,0.0064
2078.00,0.0063
2077.00,0.0062
2076.00,0.0061
2075.00,0.0060
2074.00,0.0060
2073.00,0.0060
2072.00,0.0060
2071.00,0.0060
2070.00,0.0060
2069.00,0.0060
2068.00,0.0060
2067.00,0.0060
2066.00,0.0059
2065.00,0.0059
2064.00,0.0059
2063.00,0.0059
2062.00,0.0058
2061.00,0.0058
2060.00,0.0059
2059.00,0.0059
2058.00,0.0059
2057.00,0.0059
2056.00,0.0059
2055.00,0.0060
2054.00,0.0063
2053.00,0.0066
2052.00,0.0068
2051.00,0.0068
2050.00,0.0066
2049.00,0.0063
2048.00,0.0061
2047.00,0.0060
2046.00,0.0060
2045.00,0.0060
2044.00,0.0060
2043.00,0.0059
2042.00,0.0059
2041.00,0.0058
2040.00,0.0057
2039.00,0.0058
2038.00,0.0058
2037.00,0.0058
2036.00,0.0057
2035.00,0.0056
2034.00,0.0054
2033.00,0.0052
2032.00,0.0051
2031.00,0.0050
2030.00,0.0050
2029.00,0.0050
2028.00,0.0051
2027.00,0.0051
2026.00,0.0050
2025.00,0.0049
2024.00,0.0048
2023.00,0.0049
2022.00,0.0048
2021.00,0.0048
2020.00,0.0048
2019.00,0.0049
2018.00,0.0050
2017.00,0.0050
2016.00,0.0050
2015.00,0.0049
2014.00,0.0047
2013.00,0.0046
2012.00,0.0047
2011.00,0.0049
2010.00,0.0051
2009.00,0.0051
2008.00,0.0050
2007.00,0.0047
2006.00,0.0043
2005.00,0.0042
2004.00,0.0043
2003.00,0.0045
2002.00,0.0046
2001.00,0.0048
2000.00,0.0049
1999.00,0.0050
1998.00,0.0050
1997.00,0.0050
1996.00,0.0050
1995.00,0.0050
1994.00,0.0051
1993.00,0.0053
1992.00,0.0054
1991.00,0.0056
1990.00,0.0055
1989.00,0.0053
1988.00,0.0052
1987.00,0.0052
1986.00,0.0053
1985.00,0.0055
1984.00,0.0059
1983.00,0.0062
1982.00,0.0064
1981.00,0.0064
1980.00,0.0060
1979.00,0.0054
1978.00,0.0048
1977.00,0.0044
1976.00,0.0044
1975.00,0.0044
1974.00,0.0045
1973.00,0.0045
1972.00,0.0045
1971.00,0.0044
1970.00,0.0042
1969.00,0.0041
1968.00,0.0042
1967.00,0.0043
1966.00,0.0045
1965.00,0.0046
1964.00,0.0046
1963.00,0.0046
1962.00,0.0044
1961.00,0.0043
1960.00,0.0042
1959.00,0.0042
1958.00,0.0043
1957.00,0.0044
1956.00,0.0046
1955.00,0.0047
1954.00,0.0046
1953.00,0.0046
1952.00,0.0046
1951.00,0.0046
1950.00,0.0046
1949.00,0.0046
1948.00,0.0047
1947.00,0.0048
1946.00,0.0047
1945.00,0.0047
1944.00,0.0047
1943.00,0.0047
1942.00,0.0047
1941.00,0.0047
1940.00,0.0047
1939.00,0.0048
1938.00,0.0048
1937.00,0.0048
1936.00,0.0048
1935.00,0.0047
1934.00,0.0046
1933.00,0.0046
1932.00,0.0046
1931.00,0.0047
1930.00,0.0047
1929.00,0.0046
1928.00,0.0046
1927.00,0.0046
1926.00,0.0046
1925.00,0.0047
1924.00,0.0048
1923.00,0.0049
1922.00,0.0050
1921.00,0.0050
1920.00,0.0049
1919.00,0.0049
1918.00,0.0048
1917.00,0.0048
1916.00,0.0048
1915.00,0.0048
1914.00,0.0048
1913.00,0.0049
1912.00,0.0049
1911.00,0.0050
1910.00,0.0050
1909.00,0.0050
1908.00,0.0050
1907.00,0.0050
1906.00,0.0050
1905.00,0.0050
1904.00,0.0050
1903.00,0.0050
1902.00,0.0050
1901.00,0.0050
1900.00,0.0050
1899.00,0.0050
1898.00,0.0050
1897.00,0.0050
1896.00,0.0051
1895.00,0.0052
1894.00,0.0051
1893.00,0.0051
1892.00,0.0050
1891.00,0.0050
1890.00,0.0050
1889.00,0.0051
1888.00,0.0052
1887.00,0.0052
1886.00,0.0051
1885.00,0.0051
1884.00,0.0051
1883.00,0.0051
1882.00,0.0051
1881.00,0.0051
1880.00,0.0051
1879.00,0.0051
1878.00,0.0051
1877.00,0.0051
1876.00,0.0051
1875.00,0.0051
1874.00,0.0051
1873.00,0.0051
1872.00,0.0050
1871.00,0.0051
1870.00,0.0051
1869.00,0.0052
1868.00,0.0052
1867.00,0.0052
1866.00,0.0052
1865.00,0.0051
1864.00,0.0051
1863.00,0.0051
1862.00,0.0051
1861.00,0.0051
1860.00,0.0051
1859.00,0.0052
1858.00,0.0051
1857.00,0.0051
1856.00,0.0052
1855.00,0.0052
1854.00,0.0052
1853.00,0.0051
1852.00,0.0051
1851.00,0.0051
1850.00,0.0052
1849.00,0.0052
1848.00,0.0052
1847.00,0.0053
1846.00,0.0052
1845.00,0.0051
1844.00,0.0051
1843.00,0.0051
1842.00,0.0051
1841.00,0.0051
1840.00,0.0051
1839.00,0.0052
1838.00,0.0052
1837.00,0.0052
1836.00,0.0053
1835.00,0.0053
1834.00,0.0053
1833.00,0.0053
1832.00,0.0053
1831.00,0.0053
1830.00,0.0052
1829.00,0.0052
1828.00,0.0052
1827.00,0.0052
1826.00,0.0053
1825.00,0.0054
1824.00,0.0054
1823.00,0.0054
1822.00,0.0053
1821.00,0.0052
1820.00,0.0052
1819.00,0.0052
1818.00,0.0051
1817.00,0.0051
1816.00,0.0051
1815.00,0.0051
1814.00,0.0052
1813.00,0.0052
1812.00,0.0053
1811.00,0.0054
1810.00,0.0055
1809.00,0.0055
1808.00,0.0055
1807.00,0.0056
1806.00,0.0056
1805.00,0.0056
1804.00,0.0056
1803.00,0.0057
1802.00,0.0058
1801.00,0.0058
1800.00,0.0059
1799.00,0.0058
1798.00,0.0057
1797.00,0.0057
1796.00,0.0057
1795.00,0.0057
1794.00,0.0056
1793.00,0.0056
1792.00,0.0056
1791.00,0.0056
1790.00,0.0056
1789.00,0.0056
1788.00,0.0056
1787.00,0.0056
1786.00,0.0056
1785.00,0.0056
1784.00,0.0057
1783.00,0.0057
1782.00,0.0058
1781.00,0.0058
1780.00,0.0059
1779.00,0.0059
1778.00,0.0059
1777.00,0.0059
1776.00,0.0060
1775.00,0.0060
1774.00,0.0061
1773.00,0.0061
1772.00,0.0061
1771.00,0.0062
1770.00,0.0061
1769.00,0.0061
1768.00,0.0061
1767.00,0.0061
1766.00,0.0060
1765.00,0.0060
1764.00,0.0060
1763.00,0.0060
1762.00,0.0060
1761.00,0.0061
1760.00,0.0061
1759.00,0.0061
1758.00,0.0061
1757.00,0.0061
1756.00,0.0061
1755.00,0.0061
1754.00,0.0061
1753.00,0.0061
1752.00,0.0062
1751.00,0.0063
1750.00,0.0064
1749.00,0.0064
1748.00,0.0065
1747.00,0.0065
1746.00,0.0065
1745.00,0.0065
1744.00,0.0066
1743.00,0.0067
1742.00,0.0066
1741.00,0.0066
1740.00,0.0066
1739.00,0.0067
1738.00,0.0067
1737.00,0.0068
1736.00,0.0068
1735.00,0.0070
1734.00,0.0071
1733.00,0.0072
1732.00,0.0073
1731.00,0.0074
1730.00,0.0075
1729.00,0.0076
1728.00,0.0077
1727.00,0.0078
1726.00,0.0079
1725.00,0.0080
1724.00,0.0082
1723.00,0.0084
1722.00,0.0085
1721.00,0.0085
1720.00,0.0087
1719.00,0.0089
1718.00,0.0091
1717.00,0.0093
1716.00,0.0096
1715.00,0.0099
1714.00,0.0101
1713.00,0.0103
1712.00,0.0107
1711.00,0.0110
1710.00,0.0114
1709.00,0.0118
1708.00,0.0123
1707.00,0.0128
1706.00,0.0135
1705.00,0.0141
1704.00,0.0148
1703.00,0.0153
1702.00,0.0159
1701.00,0.0167
1700.00,0.0179
1699.00,0.0191
1698.00,0.0201
1697.00,0.0214
1696.00,0.0230
1695.00,0.0247
1694.00,0.0261
1693.00,0.0275
1692.00,0.0290
1691.00,0.0308
1690.00,0.0327
1689.00,0.0346
1688.00,0.0364
1687.00,0.0382
1686.00,0.0399
1685.00,0.0420
1684.00,0.0444
1683.00,0.0465
1682.00,0.0482
1681.00,0.0500
1680.00,0.0520
1679.00,0.0539
1678.00,0.0556
1677.00,0.0572
1676.00,0.0589
1675.00,0.0604
1674.00,0.0619
1673.00,0.0634
1672.00,0.0651
1671.00,0.0667
1670.00,0.0681
1669.00,0.0694
1668.00,0.0707
1667.00,0.0722
1666.00,0.0738
1665.00,0.0755
1664.00,0.0772
1663.00,0.0787
1662.00,0.0800
1661.00,0.0812
1660.00,0.0827
1659.00,0.0842
1658.00,0.0858
1657.00,0.0874
1656.00,0.0892
1655.00,0.0910
1654.00,0.0920
1653.00,0.0916
1652.00,0.0914
1651.00,0.0924
1650.00,0.0942
1649.00,0.0962
1648.00,0.0981
1647.00,0.0995
1646.00,0.1004
1645.00,0.1011
1644.00,0.1016
1643.00,0.1016
1642.00,0.1007
1641.00,0.0991
1640.00,0.0972
1639.00,0.0956
1638.00,0.0943
1637.00,0.0928
1636.00,0.0906
1635.00,0.0885
1634.00,0.0870
1633.00,0.0863
1632.00,0.0860
1631.00,0.0855
1630.00,0.0845
1629.00,0.0829
1628.00,0.0813
1627.00,0.0800
1626.00,0.0793
1625.00,0.0788
1624.00,0.0780
1623.00,0.0765
1622.00,0.0741
1621.00,0.0713
1620.00,0.0685
1619.00,0.0654
1618.00,0.0616
1617.00,0.0570
1616.00,0.0525
1615.00,0.0491
1614.00,0.0468
1613.00,0.0449
1612.00,0.0431
1611.00,0.0413
1610.00,0.0395
1609.00,0.0377
1608.00,0.0361
1607.00,0.0345
1606.00,0.0331
1605.00,0.0318
1604.00,0.0305
1603.00,0.0293
1602.00,0.0281
1601.00,0.0270
1600.00,0.0260
1599.00,0.0252
1598.00,0.0246
1597.00,0.0242
1596.00,0.0239
1595.00,0.0239
1594.00,0.0242
1593.00,0.0249
1592.00,0.0259
1591.00,0.0274
1590.00,0.0293
1589.00,0.0315
1588.00,0.0338
1587.00,0.0361
1586.00,0.0382
1585.00,0.0402
1584.00,0.0418
1583.00,0.0432
1582.00,0.0440
1581.00,0.0441
1580.00,0.0436
1579.00,0.0424
1578.00,0.0406
1577.00,0.0378
1576.00,0.0345
1575.00,0.0314
1574.00,0.0293
1573.00,0.0278
1572.00,0.0264
1571.00,0.0250
1570.00,0.0234
1569.00,0.0218
1568.00,0.0205
1567.00,0.0195
1566.00,0.0188
1565.00,0.0180
1564.00,0.0174
1563.00,0.0168
1562.00,0.0164
1561.00,0.0160
1560.00,0.0155
1559.00,0.0150
1558.00,0.0145
1557.00,0.0141
1556.00,0.0140
1555.00,0.0140
1554.00,0.0139
1553.00,0.0138
1552.00,0.0136
1551.00,0.0135
1550.00,0.0134
1549.00,0.0133
1548.00,0.0130
1547.00,0.0128
1546.00,0.0127
1545.00,0.0126
1544.00,0.0125
1543.00,0.0123
1542.00,0.0121
1541.00,0.0119
1540.00,0.0117
1539.00,0.0115
1538.00,0.0114
1537.00,0.0113
1536.00,0.0113
1535.00,0.0112
1534.00,0.0112
1533.00,0.0111
1532.00,0.0109
1531.00,0.0108
1530.00,0.0108
1529.00,0.0107
1528.00,0.0107
1527.00,0.0106
1526.00,0.0105
1525.00,0.0103
1524.00,0.0102
1523.00,0.0102
1522.00,0.0105
1521.00,0.0110
1520.00,0.0116
1519.00,0.0121
1518.00,0.0128
1517.00,0.0137
1516.00,0.0144
1515.00,0.0149
1514.00,0.0152
1513.00,0.0153
1512.00,0.0154
1511.00,0.0154
1510.00,0.0154
1509.00,0.0155
1508.00,0.0156
1507.00,0.0158
1506.00,0.0161
1505.00,0.0164
1504.00,0.0170
1503.00,0.0178
1502.00,0.0188
1501.00,0.0197
1500.00,0.0207
1499.00,0.0215
1498.00,0.0224
1497.00,0.0231
1496.00,0.0236
1495.00,0.0239
1494.00,0.0241
1493.00,0.0241
1492.00,0.0239
1491.00,0.0234
1490.00,0.0226
1489.00,0.0216
1488.00,0.0205
1487.00,0.0194
1486.00,0.0184
1485.00,0.0175
1484.00,0.0168
1483.00,0.0162
1482.00,0.0157
1481.00,0.0154
1480.00,0.0151
1479.00,0.0151
1478.00,0.0152
1477.00,0.0155
1476.00,0.0159
1475.00,0.0165
1474.00,0.0174
1473.00,0.0189
1472.00,0.0208
1471.00,0.0229
1470.00,0.0252
1469.00,0.0278
1468.00,0.0306
1467.00,0.0336
1466.00,0.0366
1465.00,0.0396
1464.00,0.0422
1463.00,0.0441
1462.00,0.0455
1461.00,0.0465
1460.00,0.0470
1459.00,0.0466
1458.00,0.0451
1457.00,0.0425
1456.00,0.0402
1455.00,0.0390
1454.00,0.0388
1453.00,0.0395
1452.00,0.0407
1451.00,0.0425
1450.00,0.0449
1449.00,0.0481
1448.00,0.0521
1447.00,0.0562
1446.00,0.0600
1445.00,0.0635
1444.00,0.0666
1443.00,0.0692
1442.00,0.0713
1441.00,0.0729
1440.00,0.0743
1439.00,0.0752
1438.00,0.0755
1437.00,0.0749
1436.00,0.0736
1435.00,0.0720
1434.00,0.0707
1433.00,0.0696
1432.00,0.0682
1431.00,0.0666
1430.00,0.0650
1429.00,0.0637
1428.00,0.0628
1427.00,0.0624
1426.00,0.0626
1425.00,0.0630
1424.00,0.0635
1423.00,0.0637
1422.00,0.0637
1421.00,0.0631
1420.00,0.0615
1419.00,0.0585
1418.00,0.0549
1417.00,0.0514
1416.00,0.0481
1415.00,0.0447
1414.00,0.0415
1413.00,0.0383
1412.00,0.0353
1411.00,0.0325
1410.00,0.0301
1409.00,0.0281
1408.00,0.0263
1407.00,0.0247
1406.00,0.0233
1405.00,0.0221
1404.00,0.0210
1403.00,0.0200
1402.00,0.0192
1401.00,0.0186
1400.00,0.0180
1399.00,0.0174
1398.00,0.0170
1397.00,0.0167
1396.00,0.0164
1395.00,0.0161
1394.00,0.0158
1393.00,0.0156
1392.00,0.0155
1391.00,0.0154
1390.00,0.0155
1389.00,0.0157
1388.00,0.0159
1387.00,0.0162
1386.00,0.0166
1385.00,0.0171
1384.00,0.0178
1383.00,0.0188
1382.00,0.0202
1381.00,0.0219
1380.00,0.0240
1379.00,0.0264
1378.00,0.0290
1377.00,0.0314
1376.00,0.0334
1375.00,0.0346
1374.00,0.0349
1373.00,0.0344
1372.00,0.0335
1371.00,0.0324
1370.00,0.0313
1369.00,0.0300
1368.00,0.0287
1367.00,0.0275
1366.00,0.0264
1365.00,0.0253
1364.00,0.0242
1363.00,0.0230
1362.00,0.0219
1361.00,0.0209
1360.00,0.0201
1359.00,0.0194
1358.00,0.0189
1357.00,0.0184
1356.00,0.0180
1355.00,0.0177
1354.00,0.0173
1353.00,0.0170
1352.00,0.0168
1351.00,0.0165
1350.00,0.0163
1349.00,0.0162
1348.00,0.0162
1347.00,0.0161
1346.00,0.0162
1345.00,0.0162
1344.00,0.0163
1343.00,0.0164
1342.00,0.0167
1341.00,0.0169
1340.00,0.0170
1339.00,0.0170
1338.00,0.0168
1337.00,0.0166
1336.00,0.0165
1335.00,0.0166
1334.00,0.0169
1333.00,0.0175
1332.00,0.0183
1331.00,0.0193
1330.00,0.0203
1329.00,0.0215
1328.00,0.0226
1327.00,0.0239
1326.00,0.0252
1325.00,0.0266
1324.00,0.0278
1323.00,0.0287
1322.00,0.0293
1321.00,0.0296
1320.00,0.0299
1319.00,0.0301
1318.00,0.0306
1317.00,0.0312
1316.00,0.0321
1315.00,0.0331
1314.00,0.0343
1313.00,0.0351
1312.00,0.0356
1311.00,0.0355
1310.00,0.0350
1309.00,0.0344
1308.00,0.0338
1307.00,0.0335
1306.00,0.0337
1305.00,0.0344
1304.00,0.0355
1303.00,0.0369
1302.00,0.0385
1301.00,0.0403
1300.00,0.0422
1299.00,0.0445
1298.00,0.0470
1297.00,0.0498
1296.00,0.0528
1295.00,0.0560
1294.00,0.0593
1293.00,0.0625
1292.00,0.0655
1291.00,0.0683
1290.00,0.0707
1289.00,0.0727
1288.00,0.0742
1287.00,0.0753
1286.00,0.0760
1285.00,0.0764
1284.00,0.0764
1283.00,0.0762
1282.00,0.0758
1281.00,0.0754
1280.00,0.0750
1279.00,0.0747
1278.00,0.0745
1277.00,0.0745
1276.00,0.0744
1275.00,0.0743
1274.00,0.0739
1273.00,0.0731
1272.00,0.0719
1271.00,0.0703
1270.00,0.0683
1269.00,0.0660
1268.00,0.0633
1267.00,0.0606
1266.00,0.0577
1265.00,0.0550
1264.00,0.0523
1263.00,0.0497
1262.00,0.0472
1261.00,0.0449
1260.00,0.0427
1259.00,0.0407
1258.00,0.0390
1257.00,0.0375
1256.00,0.0362
1255.00,0.0352
1254.00,0.0345
1253.00,0.0340
1252.00,0.0338
1251.00,0.0337
1250.00,0.0338
1249.00,0.0340
1248.00,0.0341
1247.00,0.0342
1246.00,0.0344
1245.00,0.0348
1244.00,0.0355
1243.00,0.0367
1242.00,0.0384
1241.00,0.0405
1240.00,0.0428
1239.00,0.0452
1238.00,0.0472
1237.00,0.0487
1236.00,0.0495
1235.00,0.0498
1234.00,0.0497
1233.00,0.0493
1232.00,0.0487
1231.00,0.0479
1230.00,0.0472
1229.00,0.0470
1228.00,0.0473
1227.00,0.0483
1226.00,0.0497
1225.00,0.0514
1224.00,0.0532
1223.00,0.0552
1222.00,0.0573
1221.00,0.0599
1220.00,0.0629
1219.00,0.0665
1218.00,0.0704
1217.00,0.0743
1216.00,0.0774
1215.00,0.0793
1214.00,0.0795
1213.00,0.0782
1212.00,0.0756
1211.00,0.0721
1210.00,0.0682
1209.00,0.0643
1208.00,0.0606
1207.00,0.0573
1206.00,0.0544
1205.00,0.0516
1204.00,0.0489
1203.00,0.0461
1202.00,0.0434
1201.00,0.0407
1200.00,0.0382
1199.00,0.0360
1198.00,0.0342
1197.00,0.0327
1196.00,0.0316
1195.00,0.0308
1194.00,0.0303
1193.00,0.0300
1192.00,0.0299
1191.00,0.0299
1190.00,0.0301
1189.00,0.0303
1188.00,0.0306
1187.00,0.0309
1186.00,0.0312
1185.00,0.0315
1184.00,0.0318
1183.00,0.0322
1182.00,0.0325
1181.00,0.0328
1180.00,0.0330
1179.00,0.0332
1178.00,0.0334
1177.00,0.0337
1176.00,0.0340
1175.00,0.0344
1174.00,0.0352
1173.00,0.0360
1172.00,0.0363
1171.00,0.0359
1170.00,0.0345
1169.00,0.0325
1168.00,0.0303
1167.00,0.0282
1166.00,0.0264
1165.00,0.0248
1164.00,0.0234
1163.00,0.0223
1162.00,0.0213
1161.00,0.0204
1160.00,0.0197
1159.00,0.0191
1158.00,0.0188
1157.00,0.0187
1156.00,0.0190
1155.00,0.0200
1154.00,0.0219
1153.00,0.0244
1152.00,0.0270
1151.00,0.0290
1150.00,0.0295
1149.00,0.0282
1148.00,0.0256
1147.00,0.0225
1146.00,0.0200
1145.00,0.0181
1144.00,0.0169
1143.00,0.0163
1142.00,0.0160
1141.00,0.0159
1140.00,0.0159
1139.00,0.0160
1138.00,0.0162
1137.00,0.0163
1136.00,0.0164
1135.00,0.0165
1134.00,0.0166
1133.00,0.0165
1132.00,0.0164
1131.00,0.0162
1130.00,0.0161
1129.00,0.0161
1128.00,0.0160
1127.00,0.0161
1126.00,0.0162
1125.00,0.0164
1124.00,0.0166
1123.00,0.0167
1122.00,0.0169
1121.00,0.0170
1120.00,0.0171
1119.00,0.0172
1118.00,0.0173
1117.00,0.0174
1116.00,0.0173
1115.00,0.0173
1114.00,0.0173
1113.00,0.0172
1112.00,0.0171
1111.00,0.0171
1110.00,0.0172
1109.00,0.0174
1108.00,0.0177
1107.00,0.0181
1106.00,0.0186
1105.00,0.0191
1104.00,0.0197
1103.00,0.0203
1102.00,0.0210
1101.00,0.0216
1100.00,0.0222
1099.00,0.0224
1098.00,0.0223
1097.00,0.0219
1096.00,0.0212
1095.00,0.0206
1094.00,0.0201
1093.00,0.0198
1092.00,0.0195
1091.00,0.0194
1090.00,0.0194
1089.00,0.0194
1088.00,0.0193
1087.00,0.0193
1086.00,0.0194
1085.00,0.0197
1084.00,0.0201
1083.00,0.0207
1082.00,0.0214
1081.00,0.0222
1080.00,0.0228
1079.00,0.0232
1078.00,0.0234
1077.00,0.0232
1076.00,0.0229
1075.00,0.0226
1074.00,0.0224
1073.00,0.0222
1072.00,0.0220
1071.00,0.0217
1070.00,0.0216
1069.00,0.0214
1068.00,0.0212
1067.00,0.0211
1066.00,0.0211
1065.00,0.0210
1064.00,0.0210
1063.00,0.0210
1062.00,0.0212
1061.00,0.0214
1060.00,0.0218
1059.00,0.0225
1058.00,0.0237
1057.00,0.0253
1056.00,0.0274
1055.00,0.0299
1054.00,0.0323
1053.00,0.0339
1052.00,0.0346
1051.00,0.0342
1050.00,0.0329
1049.00,0.0309
1048.00,0.0281
1047.00,0.0251
1046.00,0.0223
1045.00,0.0199
1044.00,0.0183
1043.00,0.0174
1042.00,0.0173
1041.00,0.0176
1040.00,0.0182
1039.00,0.0190
1038.00,0.0203
1037.00,0.0219
1036.00,0.0241
1035.00,0.0267
1034.00,0.0295
1033.00,0.0319
1032.00,0.0335
1031.00,0.0340
1030.00,0.0336
1029.00,0.0326
1028.00,0.0315
1027.00,0.0307
1026.00,0.0306
1025.00,0.0313
1024.00,0.0328
1023.00,0.0352
1022.00,0.0384
1021.00,0.0417
1020.00,0.0444
1019.00,0.0459
1018.00,0.0458
1017.00,0.0443
1016.00,0.0418
1015.00,0.0388
1014.00,0.0360
1013.00,0.0334
1012.00,0.0313
1011.00,0.0300
1010.00,0.0294
1009.00,0.0294
1008.00,0.0299
1007.00,0.0307
1006.00,0.0320
1005.00,0.0336
1004.00,0.0350
1003.00,0.0361
1002.00,0.0366
1001.00,0.0364
1000.00,0.0355
999.00,0.0339
998.00,0.0320
997.00,0.0299
996.00,0.0280
995.00,0.0264
994.00,0.0252
993.00,0.0243
992.00,0.0237
991.00,0.0234
990.00,0.0233
989.00,0.0234
988.00,0.0236
987.00,0.0238
986.00,0.0238
985.00,0.0238
984.00,0.0234
983.00,0.0228
982.00,0.0221
981.00,0.0213
980.00,0.0206
979.00,0.0201
978.00,0.0198
977.00,0.0196
976.00,0.0193
975.00,0.0191
974.00,0.0189
973.00,0.0187
972.00,0.0187
971.00,0.0188
970.00,0.0190
969.00,0.0194
968.00,0.0198
967.00,0.0203
966.00,0.0211
965.00,0.0220
964.00,0.0230
963.00,0.0241
962.00,0.0249
961.00,0.0252
960.00,0.0248
959.00,0.0238
958.00,0.0226
957.00,0.0212
956.00,0.0198
955.00,0.0187
954.00,0.0179
953.00,0.0173
952.00,0.0168
951.00,0.0165
950.00,0.0162
949.00,0.0161
948.00,0.0160
947.00,0.0159
946.00,0.0159
945.00,0.0160
944.00,0.0160
943.00,0.0161
942.00,0.0164
941.00,0.0166
940.00,0.0168
939.00,0.0171
938.00,0.0175
937.00,0.0180
936.00,0.0183
935.00,0.0187
934.00,0.0190
933.00,0.0191
932.00,0.0191
931.00,0.0190
930.00,0.0190
929.00,0.0188
928.00,0.0186
927.00,0.0184
926.00,0.0183
925.00,0.0181
924.00,0.0178
923.00,0.0175
922.00,0.0172
921.00,0.0169
920.00,0.0166
919.00,0.0164
918.00,0.0166
917.00,0.0168
916.00,0.0171
915.00,0.0174
914.00,0.0175
913.00,0.0174
912.00,0.0172
911.00,0.0172
910.00,0.0173
909.00,0.0176
908.00,0.0181
907.00,0.0188
906.00,0.0199
905.00,0.0211
904.00,0.0225
903.00,0.0241
902.00,0.0263
901.00,0.0291
900.00,0.0326
899.00,0.0366
898.00,0.0406
897.00,0.0436
896.00,0.0447
895.00,0.0440
894.00,0.0419
893.00,0.0391
892.00,0.0364
891.00,0.0342
890.00,0.0329
889.00,0.0326
888.00,0.0336
887.00,0.0361
886.00,0.0398
885.00,0.0440
884.00,0.0472
883.00,0.0483
882.00,0.0468
881.00,0.0432
880.00,0.0386
879.00,0.0343
878.00,0.0309
877.00,0.0284
876.00,0.0267
875.00,0.0257
874.00,0.0253
873.00,0.0254
872.00,0.0260
871.00,0.0267
870.00,0.0274
869.00,0.0276
868.00,0.0274
867.00,0.0270
866.00,0.0271
865.00,0.0277
864.00,0.0288
863.00,0.0301
862.00,0.0312
861.00,0.0316
860.00,0.0315
859.00,0.0312
858.00,0.0314
857.00,0.0321
856.00,0.0332
855.00,0.0345
854.00,0.0358
853.00,0.0370
852.00,0.0379
851.00,0.0386
850.00,0.0390
849.00,0.0388
848.00,0.0382
847.00,0.0374
846.00,0.0367
845.00,0.0362
844.00,0.0356
843.00,0.0351
842.00,0.0343
841.00,0.0334
840.00,0.0323
839.00,0.0314
838.00,0.0308
837.00,0.0307
836.00,0.0309
835.00,0.0314
834.00,0.0323
833.00,0.0332
832.00,0.0340
831.00,0.0348
830.00,0.0355
829.00,0.0359
828.00,0.0361
827.00,0.0358
826.00,0.0351
825.00,0.0340
824.00,0.0325
823.00,0.0309
822.00,0.0294
821.00,0.0279
820.00,0.0265
819.00,0.0252
818.00,0.0243
817.00,0.0236
816.00,0.0231
815.00,0.0228
814.00,0.0226
813.00,0.0225
812.00,0.0223
811.00,0.0222
810.00,0.0226
809.00,0.0234
808.00,0.0248
807.00,0.0269
806.00,0.0294
805.00,0.0314
804.00,0.0321
803.00,0.0316
802.00,0.0301
801.00,0.0284
800.00,0.0268
799.00,0.0255
798.00,0.0247
797.00,0.0241
796.00,0.0236
795.00,0.0233
794.00,0.0233
793.00,0.0233
792.00,0.0233
791.00,0.0233
790.00,0.0233
789.00,0.0234
788.00,0.0234
787.00,0.0236
786.00,0.0237
785.00,0.0238
784.00,0.0236
783.00,0.0233
782.00,0.0230
781.00,0.0229
780.00,0.0228
779.00,0.0228
778.00,0.0230
777.00,0.0232
776.00,0.0233
775.00,0.0234
774.00,0.0236
773.00,0.0238
772.00,0.0240
771.00,0.0243
770.00,0.0245
769.00,0.0247
768.00,0.0247
767.00,0.0247
766.00,0.0248
765.00,0.0249
764.00,0.0251
763.00,0.0253
762.00,0.0257
761.00,0.0260
760.00,0.0263
759.00,0.0267
758.00,0.0272
757.00,0.0278
756.00,0.0285
755.00,0.0294
754.00,0.0304
753.00,0.0314
752.00,0.0322
751.00,0.0330
750.00,0.0337
749.00,0.0342
748.00,0.0345
747.00,0.0344
746.00,0.0342
745.00,0.0340
744.00,0.0337
743.00,0.0337
742.00,0.0338
741.00,0.0339
740.00,0.0341
739.00,0.0343
738.00,0.0347
737.00,0.0350
736.00,0.0354
735.00,0.0358
734.00,0.0363
733.00,0.0368
732.00,0.0371
731.00,0.0372
730.00,0.0370
729.00,0.0365
728.00,0.0357
727.00,0.0350
726.00,0.0346
725.00,0.0343
724.00,0.0340
723.00,0.0339
722.00,0.0339
721.00,0.0339
720.00,0.0338
719.00,0.0337
718.00,0.0336
717.00,0.0334
716.00,0.0332
715.00,0.0329
714.00,0.0328
713.00,0.0328
712.00,0.0328
711.00,0.0328
710.00,0.0329
709.00,0.0329
708.00,0.0328
707.00,0.0327
706.00,0.0327
705.00,0.0327
704.00,0.0327
703.00,0.0328
702.00,0.0330
701.00,0.0332
700.00,0.0334
699.00,0.0336
698.00,0.0338
697.00,0.0340
696.00,0.0341
695.00,0.0343
694.00,0.0346
693.00,0.0348
692.00,0.0350
691.00,0.0353
690.00,0.0356
689.00,0.0359
688.00,0.0361
687.00,0.0364
686.00,0.0368
685.00,0.0372
684.00,0.0375
683.00,0.0379
682.00,0.0383
681.00,0.0387
680.00,0.0390
679.00,0.0393
678.00,0.0398
677.00,0.0402
676.00,0.0406
675.00,0.0411
674.00,0.0417
673.00,0.0424
672.00,0.0431
671.00,0.0439
670.00,0.0448
669.00,0.0457
668.00,0.0465
667.00,0.0472
666.00,0.0478
665.00,0.0483
664.00,0.0488
663.00,0.0495
662.00,0.0502
661.00,0.0509
660.00,0.0514
659.00,0.0520
658.00,0.0526
657.00,0.0532
656.00,0.0538
655.00,0.0545
654.00,0.0553
653.00,0.0562
652.00,0.0571
651.00,0.0581
650.00,0.0591
649.00,0.0599
648.00,0.0602
647.00,0.0601
646.00,0.0598
645.00,0.0593
644.00,0.0585
643.00,0.0577
642.00,0.0571
641.00,0.0565
640.00,0.0559
639.00,0.0553
638.00,0.0549
637.00,0.0546
636.00,0.0543
635.00,0.0540
634.00,0.0538
633.00,0.0537
632.00,0.0534
631.00,0.0533
630.00,0.0533
629.00,0.0534
628.00,0.0535
627.00,0.0535
626.00,0.0537
625.00,0.0537
624.00,0.0537
623.00,0.0535
622.00,0.0534
621.00,0.0532
620.00,0.0528
619.00,0.0522
618.00,0.0518
617.00,0.0516
616.00,0.0515
615.00,0.0518
614.00,0.0525
613.00,0.0535
612.00,0.0543
611.00,0.0548
610.00,0.0550
609.00,0.0548
608.00,0.0544
607.00,0.0543
606.00,0.0544
605.00,0.0546
604.00,0.0547
603.00,0.0550
602.00,0.0553
601.00,0.0558
600.00,0.0561
599.00,0.0564
598.00,0.0567
597.00,0.0569
596.00,0.0570
595.00,0.0572
594.00,0.0577
593.00,0.0584
592.00,0.0591
591.00,0.0601
590.00,0.0615
589.00,0.0630
588.00,0.0643
587.00,0.0654
586.00,0.0664
585.00,0.0670
584.00,0.0672
583.00,0.0672
582.00,0.0672
581.00,0.0671
580.00,0.0669
579.00,0.0668
578.00,0.0669
577.00,0.0672
576.00,0.0673
575.00,0.0676
574.00,0.0682
573.00,0.0688
572.00,0.0691
571.00,0.0694
570.00,0.0699
569.00,0.0703
568.00,0.0704
567.00,0.0703
566.00,0.0703
565.00,0.0702
564.00,0.0700
563.00,0.0697
562.00,0.0696
561.00,0.0693
560.00,0.0688
559.00,0.0684
558.00,0.0683
557.00,0.0682
556.00,0.0680
555.00,0.0680
554.00,0.0682
553.00,0.0685
552.00,0.0687
551.00,0.0689
550.00,0.0692
549.00,0.0693
548.00,0.0692
547.00,0.0693
546.00,0.0698
545.00,0.0703
544.00,0.0704
543.00,0.0704
542.00,0.0706
541.00,0.0710
540.00,0.0714
539.00,0.0720
538.00,0.0730
537.00,0.0738
536.00,0.0743
535.00,0.0744
534.00,0.0743
533.00,0.0739
532.00,0.0732
531.00,0.0726
530.00,0.0725
529.00,0.0726
528.00,0.0729
527.00,0.0738
526.00,0.0755
525.00,0.0773
524.00,0.0789
523.00,0.0803
522.00,0.0814
521.00,0.0814
520.00,0.0799
519.00,0.0777
518.00,0.0756
517.00,0.0737
516.00,0.0722
515.00,0.0711
514.00,0.0707
513.00,0.0706
512.00,0.0706
511.00,0.0707
510.00,0.0711
509.00,0.0716
508.00,0.0721
507.00,0.0729
506.00,0.0741
505.00,0.0755
504.00,0.0768
503.00,0.0781
502.00,0.0797
501.00,0.0810
500.00,0.0818
499.00,0.0826
498.00,0.0837
497.00,0.0847
496.00,0.0854
495.00,0.0858
494.00,0.0862
493.00,0.0863
492.00,0.0860
491.00,0.0856
490.00,0.0854
489.00,0.0853
488.00,0.0849
487.00,0.0847
486.00,0.0849
485.00,0.0852
484.00,0.0852
483.00,0.0850
482.00,0.0849
481.00,0.0843
480.00,0.0832
479.00,0.0821
478.00,0.0817
477.00,0.0816
476.00,0.0815
475.00,0.0817
474.00,0.0822
473.00,0.0828
472.00,0.0828
471.00,0.0830
470.00,0.0837
469.00,0.0845
468.00,0.0848
467.00,0.0850
466.00,0.0853
465.00,0.0853
464.00,0.0848
463.00,0.0843
462.00,0.0843
461.00,0.0843
460.00,0.0836
459.00,0.0828
458.00,0.0824
457.00,0.0818
456.00,0.0809
455.00,0.0802
454.00,0.0800
453.00,0.0798
452.00,0.0791
451.00,0.0784
450.00,0.0781
449.00,0.0777
448.00,0.0766
447.00,0.0756
446.00,0.0751
445.00,0.0747
444.00,0.0738
443.00,0.0731
442.00,0.0729
441.00,0.0724
440.00,0.0714
439.00,0.0706
438.00,0.0705
437.00,0.0704
436.00,0.0697
435.00,0.0691
434.00,0.0691
433.00,0.0690
432.00,0.0684
431.00,0.0681
430.00,0.0690
429.00,0.0705
428.00,0.0718
427.00,0.0732
426.00,0.0747
425.00,0.0752
424.00,0.0740
423.00,0.0727
422.00,0.0727
421.00,0.0728
420.00,0.0717
419.00,0.0703
418.00,0.0702
417.00,0.0708
416.00,0.0708
415.00,0.0710
414.00,0.0716
413.00,0.0715
412.00,0.0705
411.00,0.0700
410.00,0.0709
409.00,0.0717
408.00,0.0715
407.00,0.0716
406.00,0.0735
405.00,0.0755
404.00,0.0763
403.00,0.0772
402.00,0.0794
401.00,0.0807
400.00,0.0789
