Created as New Dataset,Sample 091 By YargerLab Date Thursday, August 14 2025
cm-1,A
4000.00,0.0023
3999.00,0.0023
3998.00,0.0023
3997.00,0.0024
3996.00,0.0024
3995.00,0.0024
3994.00,0.0024
3993.00,0.0024
3992.00,0.0024
3991.00,0.0024
3990.00,0.0024
3989.00,0.0024
3988.00,0.0024
3987.00,0.0024
3986.00,0.0024
3985.00,0.0024
3984.00,0.0024
3983.00,0.0024
3982.00,0.0024
3981.00,0.0024
3980.00,0.0024
3979.00,0.0024
3978.00,0.0024
3977.00,0.0024
3976.00,0.0024
3975.00,0.0024
3974.00,0.0024
3973.00,0.0024
3972.00,0.0024
3971.00,0.0025
3970.00,0.0025
3969.00,0.0025
3968.00,0.0025
3967.00,0.0025
3966.00,0.0025
3965.00,0.0024
3964.00,0.0024
3963.00,0.0024
3962.00,0.0024
3961.00,0.0025
3960.00,0.0025
3959.00,0.0025
3958.00,0.0025
3957.00,0.0025
3956.00,0.0024
3955.00,0.0024
3954.00,0.0024
3953.00,0.0025
3952.00,0.0025
3951.00,0.0025
3950.00,0.0025
3949.00,0.0025
3948.00,0.0025
3947.00,0.0025
3946.00,0.0025
3945.00,0.0025
3944.00,0.0025
3943.00,0.0025
3942.00,0.0025
3941.00,0.0025
3940.00,0.0025
3939.00,0.0025
3938.00,0.0025
3937.00,0.0025
3936.00,0.0025
3935.00,0.0025
3934.00,0.0025
3933.00,0.0025
3932.00,0.0025
3931.00,0.0026
3930.00,0.0026
3929.00,0.0026
3928.00,0.0025
3927.00,0.0025
3926.00,0.0025
3925.00,0.0025
3924.00,0.0025
3923.00,0.0025
3922.00,0.0025
3921.00,0.0025
3920.00,0.0026
3919.00,0.0026
3918.00,0.0026
3917.00,0.0026
3916.00,0.0025
3915.00,0.0025
3914.00,0.0025
3913.00,0.0025
3912.00,0.0025
3911.00,0.0025
3910.00,0.0025
3909.00,0.0025
3908.00,0.0025
3907.00,0.0026
3906.00,0.0026
3905.00,0.0027
3904.00,0.0027
3903.00,0.0027
3902.00,0.0028
3901.00,0.0028
3900.00,0.0028
3899.00,0.0027
3898.00,0.0027
3897.00,0.0027
3896.00,0.0027
3895.00,0.0026
3894.00,0.0026
3893.00,0.0026
3892.00,0.0026
3891.00,0.0026
3890.00,0.0026
3889.00,0.0027
3888.00,0.0027
3887.00,0.0027
3886.00,0.0027
3885.00,0.0026
3884.00,0.0027
3883.00,0.0027
3882.00,0.0027
3881.00,0.0027
3880.00,0.0026
3879.00,0.0026
3878.00,0.0026
3877.00,0.0026
3876.00,0.0027
3875.00,0.0026
3874.00,0.0026
3873.00,0.0027
3872.00,0.0027
3871.00,0.0027
3870.00,0.0027
3869.00,0.0027
3868.00,0.0028
3867.00,0.0028
3866.00,0.0028
3865.00,0.0028
3864.00,0.0027
3863.00,0.0027
3862.00,0.0027
3861.00,0.0027
3860.00,0.0027
3859.00,0.0027
3858.00,0.0027
3857.00,0.0028
3856.00,0.0029
3855.00,0.0030
3854.00,0.0030
3853.00,0.0030
3852.00,0.0030
3851.00,0.0030
3850.00,0.0030
3849.00,0.0028
3848.00,0.0027
3847.00,0.0026
3846.00,0.0025
3845.00,0.0025
3844.00,0.0025
3843.00,0.0026
3842.00,0.0027
3841.00,0.0028
3840.00,0.0029
3839.00,0.0029
3838.00,0.0029
3837.00,0.0029
3836.00,0.0029
3835.00,0.0029
3834.00,0.0029
3833.00,0.0028
3832.00,0.0027
3831.00,0.0026
3830.00,0.0026
3829.00,0.0026
3828.00,0.0026
3827.00,0.0026
3826.00,0.0026
3825.00,0.0026
3824.00,0.0027
3823.00,0.0027
3822.00,0.0028
3821.00,0.0028
3820.00,0.0028
3819.00,0.0029
3818.00,0.0029
3817.00,0.0029
3816.00,0.0028
3815.00,0.0027
3814.00,0.0027
3813.00,0.0026
3812.00,0.0026
3811.00,0.0026
3810.00,0.0026
3809.00,0.0026
3808.00,0.0026
3807.00,0.0026
3806.00,0.0026
3805.00,0.0026
3804.00,0.0027
3803.00,0.0027
3802.00,0.0027
3801.00,0.0027
3800.00,0.0027
3799.00,0.0028
3798.00,0.0028
3797.00,0.0027
3796.00,0.0026
3795.00,0.0026
3794.00,0.0025
3793.00,0.0025
3792.00,0.0025
3791.00,0.0025
3790.00,0.0025
3789.00,0.0025
3788.00,0.0025
3787.00,0.0025
3786.00,0.0025
3785.00,0.0025
3784.00,0.0025
3783.00,0.0025
3782.00,0.0025
3781.00,0.0025
3780.00,0.0025
3779.00,0.0025
3778.00,0.0025
3777.00,0.0025
3776.00,0.0025
3775.00,0.0025
3774.00,0.0025
3773.00,0.0026
3772.00,0.0026
3771.00,0.0026
3770.00,0.0026
3769.00,0.0027
3768.00,0.0027
3767.00,0.0027
3766.00,0.0027
3765.00,0.0027
3764.00,0.0026
3763.00,0.0026
3762.00,0.0026
3761.00,0.0026
3760.00,0.0026
3759.00,0.0026
3758.00,0.0027
3757.00,0.0027
3756.00,0.0028
3755.00,0.0028
3754.00,0.0029
3753.00,0.0030
3752.00,0.0030
3751.00,0.0030
3750.00,0.0030
3749.00,0.0030
3748.00,0.0031
3747.00,0.0031
3746.00,0.0031
3745.00,0.0031
3744.00,0.0030
3743.00,0.0030
3742.00,0.0030
3741.00,0.0030
3740.00,0.0029
3739.00,0.0029
3738.00,0.0029
3737.00,0.0029
3736.00,0.0029
3735.00,0.0030
3734.00,0.0029
3733.00,0.0029
3732.00,0.0029
3731.00,0.0028
3730.00,0.0027
3729.00,0.0027
3728.00,0.0026
3727.00,0.0026
3726.00,0.0025
3725.00,0.0026
3724.00,0.0026
3723.00,0.0026
3722.00,0.0026
3721.00,0.0026
3720.00,0.0026
3719.00,0.0026
3718.00,0.0025
3717.00,0.0025
3716.00,0.0026
3715.00,0.0026
3714.00,0.0027
3713.00,0.0028
3712.00,0.0028
3711.00,0.0028
3710.00,0.0028
3709.00,0.0027
3708.00,0.0027
3707.00,0.0026
3706.00,0.0026
3705.00,0.0026
3704.00,0.0025
3703.00,0.0025
3702.00,0.0026
3701.00,0.0026
3700.00,0.0026
3699.00,0.0026
3698.00,0.0026
3697.00,0.0026
3696.00,0.0025
3695.00,0.0025
3694.00,0.0026
3693.00,0.0026
3692.00,0.0027
3691.00,0.0028
3690.00,0.0028
3689.00,0.0028
3688.00,0.0029
3687.00,0.0029
3686.00,0.0029
3685.00,0.0028
3684.00,0.0028
3683.00,0.0028
3682.00,0.0027
3681.00,0.0028
3680.00,0.0029
3679.00,0.0030
3678.00,0.0031
3677.00,0.0032
3676.00,0.0032
3675.00,0.0032
3674.00,0.0032
3673.00,0.0033
3672.00,0.0034
3671.00,0.0034
3670.00,0.0033
3669.00,0.0033
3668.00,0.0032
3667.00,0.0032
3666.00,0.0032
3665.00,0.0032
3664.00,0.0031
3663.00,0.0031
3662.00,0.0030
3661.00,0.0031
3660.00,0.0031
3659.00,0.0032
3658.00,0.0033
3657.00,0.0034
3656.00,0.0035
3655.00,0.0035
3654.00,0.0036
3653.00,0.0038
3652.00,0.0039
3651.00,0.0040
3650.00,0.0041
3649.00,0.0041
3648.00,0.0041
3647.00,0.0040
3646.00,0.0040
3645.00,0.0040
3644.00,0.0040
3643.00,0.0039
3642.00,0.0039
3641.00,0.0039
3640.00,0.0039
3639.00,0.0039
3638.00,0.0040
3637.00,0.0040
3636.00,0.0041
3635.00,0.0042
3634.00,0.0043
3633.00,0.0045
3632.00,0.0046
3631.00,0.0048
3630.00,0.0048
3629.00,0.0048
3628.00,0.0048
3627.00,0.0048
3626.00,0.0049
3625.00,0.0049
3624.00,0.0049
3623.00,0.0049
3622.00,0.0049
3621.00,0.0050
3620.00,0.0051
3619.00,0.0051
3618.00,0.0052
3617.00,0.0053
3616.00,0.0054
3615.00,0.0054
3614.00,0.0055
3613.00,0.0055
3612.00,0.0056
3611.00,0.0057
3610.00,0.0058
3609.00,0.0059
3608.00,0.0059
3607.00,0.0059
3606.00,0.0060
3605.00,0.0060
3604.00,0.0061
3603.00,0.0062
3602.00,0.0063
3601.00,0.0063
3600.00,0.0064
3599.00,0.0065
3598.00,0.0066
3597.00,0.0067
3596.00,0.0068
3595.00,0.0069
3594.00,0.0069
3593.00,0.0070
3592.00,0.0072
3591.00,0.0073
3590.00,0.0075
3589.00,0.0076
3588.00,0.0076
3587.00,0.0077
3586.00,0.0077
3585.00,0.0078
3584.00,0.0079
3583.00,0.0080
3582.00,0.0080
3581.00,0.0081
3580.00,0.0082
3579.00,0.0082
3578.00,0.0083
3577.00,0.0084
3576.00,0.0085
3575.00,0.0086
3574.00,0.0087
3573.00,0.0088
3572.00,0.0090
3571.00,0.0092
3570.00,0.0094
3569.00,0.0096
3568.00,0.0097
3567.00,0.0097
3566.00,0.0097
3565.00,0.0098
3564.00,0.0099
3563.00,0.0100
3562.00,0.0101
3561.00,0.0101
3560.00,0.0102
3559.00,0.0103
3558.00,0.0104
3557.00,0.0105
3556.00,0.0107
3555.00,0.0108
3554.00,0.0109
3553.00,0.0110
3552.00,0.0111
3551.00,0.0112
3550.00,0.0114
3549.00,0.0115
3548.00,0.0117
3547.00,0.0118
3546.00,0.0119
3545.00,0.0120
3544.00,0.0121
3543.00,0.0122
3542.00,0.0123
3541.00,0.0124
3540.00,0.0125
3539.00,0.0127
3538.00,0.0128
3537.00,0.0130
3536.00,0.0132
3535.00,0.0133
3534.00,0.0136
3533.00,0.0138
3532.00,0.0141
3531.00,0.0144
3530.00,0.0148
3529.00,0.0151
3528.00,0.0155
3527.00,0.0160
3526.00,0.0164
3525.00,0.0169
3524.00,0.0173
3523.00,0.0176
3522.00,0.0179
3521.00,0.0182
3520.00,0.0183
3519.00,0.0184
3518.00,0.0184
3517.00,0.0183
3516.00,0.0182
3515.00,0.0181
3514.00,0.0179
3513.00,0.0177
3512.00,0.0175
3511.00,0.0173
3510.00,0.0170
3509.00,0.0168
3508.00,0.0167
3507.00,0.0166
3506.00,0.0165
3505.00,0.0165
3504.00,0.0164
3503.00,0.0163
3502.00,0.0162
3501.00,0.0162
3500.00,0.0161
3499.00,0.0161
3498.00,0.0162
3497.00,0.0162
3496.00,0.0162
3495.00,0.0161
3494.00,0.0161
3493.00,0.0162
3492.00,0.0162
3491.00,0.0163
3490.00,0.0163
3489.00,0.0164
3488.00,0.0164
3487.00,0.0164
3486.00,0.0165
3485.00,0.0166
3484.00,0.0166
3483.00,0.0167
3482.00,0.0167
3481.00,0.0168
3480.00,0.0169
3479.00,0.0169
3478.00,0.0170
3477.00,0.0171
3476.00,0.0172
3475.00,0.0173
3474.00,0.0173
3473.00,0.0174
3472.00,0.0175
3471.00,0.0176
3470.00,0.0177
3469.00,0.0178
3468.00,0.0179
3467.00,0.0180
3466.00,0.0182
3465.00,0.0183
3464.00,0.0184
3463.00,0.0185
3462.00,0.0186
3461.00,0.0187
3460.00,0.0188
3459.00,0.0189
3458.00,0.0190
3457.00,0.0191
3456.00,0.0192
3455.00,0.0194
3454.00,0.0195
3453.00,0.0196
3452.00,0.0197
3451.00,0.0198
3450.00,0.0199
3449.00,0.0200
3448.00,0.0201
3447.00,0.0201
3446.00,0.0202
3445.00,0.0203
3444.00,0.0204
3443.00,0.0205
3442.00,0.0205
3441.00,0.0206
3440.00,0.0207
3439.00,0.0208
3438.00,0.0210
3437.00,0.0211
3436.00,0.0212
3435.00,0.0212
3434.00,0.0213
3433.00,0.0214
3432.00,0.0215
3431.00,0.0216
3430.00,0.0216
3429.00,0.0217
3428.00,0.0218
3427.00,0.0219
3426.00,0.0220
3425.00,0.0221
3424.00,0.0222
3423.00,0.0223
3422.00,0.0224
3421.00,0.0224
3420.00,0.0225
3419.00,0.0226
3418.00,0.0227
3417.00,0.0228
3416.00,0.0230
3415.00,0.0232
3414.00,0.0233
3413.00,0.0234
3412.00,0.0236
3411.00,0.0236
3410.00,0.0237
3409.00,0.0238
3408.00,0.0238
3407.00,0.0238
3406.00,0.0238
3405.00,0.0237
3404.00,0.0236
3403.00,0.0235
3402.00,0.0234
3401.00,0.0232
3400.00,0.0230
3399.00,0.0228
3398.00,0.0225
3397.00,0.0223
3396.00,0.0220
3395.00,0.0218
3394.00,0.0215
3393.00,0.0212
3392.00,0.0209
3391.00,0.0206
3390.00,0.0204
3389.00,0.0201
3388.00,0.0199
3387.00,0.0197
3386.00,0.0196
3385.00,0.0194
3384.00,0.0192
3383.00,0.0190
3382.00,0.0188
3381.00,0.0187
3380.00,0.0185
3379.00,0.0184
3378.00,0.0183
3377.00,0.0182
3376.00,0.0181
3375.00,0.0179
3374.00,0.0178
3373.00,0.0177
3372.00,0.0175
3371.00,0.0174
3370.00,0.0173
3369.00,0.0172
3368.00,0.0170
3367.00,0.0170
3366.00,0.0169
3365.00,0.0168
3364.00,0.0167
3363.00,0.0166
3362.00,0.0165
3361.00,0.0164
3360.00,0.0163
3359.00,0.0162
3358.00,0.0162
3357.00,0.0161
3356.00,0.0160
3355.00,0.0159
3354.00,0.0158
3353.00,0.0158
3352.00,0.0157
3351.00,0.0156
3350.00,0.0155
3349.00,0.0154
3348.00,0.0153
3347.00,0.0153
3346.00,0.0152
3345.00,0.0151
3344.00,0.0151
3343.00,0.0150
3342.00,0.0149
3341.00,0.0149
3340.00,0.0148
3339.00,0.0148
3338.00,0.0147
3337.00,0.0147
3336.00,0.0147
3335.00,0.0146
3334.00,0.0146
3333.00,0.0146
3332.00,0.0145
3331.00,0.0145
3330.00,0.0145
3329.00,0.0144
3328.00,0.0144
3327.00,0.0144
3326.00,0.0143
3325.00,0.0143
3324.00,0.0143
3323.00,0.0143
3322.00,0.0142
3321.00,0.0142
3320.00,0.0142
3319.00,0.0141
3318.00,0.0141
3317.00,0.0141
3316.00,0.0141
3315.00,0.0140
3314.00,0.0140
3313.00,0.0140
3312.00,0.0139
3311.00,0.0139
3310.00,0.0138
3309.00,0.0137
3308.00,0.0136
3307.00,0.0136
3306.00,0.0136
3305.00,0.0136
3304.00,0.0137
3303.00,0.0137
3302.00,0.0138
3301.00,0.0138
3300.00,0.0137
3299.00,0.0137
3298.00,0.0136
3297.00,0.0135
3296.00,0.0135
3295.00,0.0134
3294.00,0.0134
3293.00,0.0134
3292.00,0.0134
3291.00,0.0134
3290.00,0.0135
3289.00,0.0135
3288.00,0.0135
3287.00,0.0135
3286.00,0.0135
3285.00,0.0135
3284.00,0.0135
3283.00,0.0135
3282.00,0.0135
3281.00,0.0134
3280.00,0.0134
3279.00,0.0133
3278.00,0.0133
3277.00,0.0132
3276.00,0.0132
3275.00,0.0132
3274.00,0.0131
3273.00,0.0131
3272.00,0.0130
3271.00,0.0130
3270.00,0.0129
3269.00,0.0129
3268.00,0.0129
3267.00,0.0129
3266.00,0.0129
3265.00,0.0129
3264.00,0.0129
3263.00,0.0129
3262.00,0.0128
3261.00,0.0128
3260.00,0.0128
3259.00,0.0127
3258.00,0.0127
3257.00,0.0126
3256.00,0.0126
3255.00,0.0125
3254.00,0.0124
3253.00,0.0124
3252.00,0.0124
3251.00,0.0123
3250.00,0.0123
3249.00,0.0122
3248.00,0.0122
3247.00,0.0121
3246.00,0.0121
3245.00,0.0120
3244.00,0.0120
3243.00,0.0119
3242.00,0.0119
3241.00,0.0118
3240.00,0.0117
3239.00,0.0117
3238.00,0.0116
3237.00,0.0115
3236.00,0.0115
3235.00,0.0114
3234.00,0.0114
3233.00,0.0113
3232.00,0.0113
3231.00,0.0112
3230.00,0.0112
3229.00,0.0112
3228.00,0.0111
3227.00,0.0110
3226.00,0.0109
3225.00,0.0109
3224.00,0.0108
3223.00,0.0108
3222.00,0.0107
3221.00,0.0107
3220.00,0.0106
3219.00,0.0105
3218.00,0.0105
3217.00,0.0104
3216.00,0.0104
3215.00,0.0103
3214.00,0.0103
3213.00,0.0102
3212.00,0.0101
3211.00,0.0101
3210.00,0.0100
3209.00,0.0100
3208.00,0.0099
3207.00,0.0098
3206.00,0.0098
3205.00,0.0097
3204.00,0.0097
3203.00,0.0097
3202.00,0.0096
3201.00,0.0096
3200.00,0.0095
3199.00,0.0094
3198.00,0.0094
3197.00,0.0093
3196.00,0.0092
3195.00,0.0092
3194.00,0.0091
3193.00,0.0090
3192.00,0.0090
3191.00,0.0089
3190.00,0.0089
3189.00,0.0088
3188.00,0.0088
3187.00,0.0087
3186.00,0.0087
3185.00,0.0087
3184.00,0.0086
3183.00,0.0086
3182.00,0.0085
3181.00,0.0085
3180.00,0.0084
3179.00,0.0084
3178.00,0.0083
3177.00,0.0083
3176.00,0.0082
3175.00,0.0081
3174.00,0.0081
3173.00,0.0081
3172.00,0.0080
3171.00,0.0080
3170.00,0.0080
3169.00,0.0079
3168.00,0.0079
3167.00,0.0078
3166.00,0.0078
3165.00,0.0078
3164.00,0.0077
3163.00,0.0077
3162.00,0.0076
3161.00,0.0076
3160.00,0.0075
3159.00,0.0075
3158.00,0.0074
3157.00,0.0074
3156.00,0.0073
3155.00,0.0073
3154.00,0.0073
3153.00,0.0072
3152.00,0.0072
3151.00,0.0072
3150.00,0.0071
3149.00,0.0071
3148.00,0.0071
3147.00,0.0071
3146.00,0.0070
3145.00,0.0070
3144.00,0.0069
3143.00,0.0069
3142.00,0.0069
3141.00,0.0068
3140.00,0.0068
3139.00,0.0068
3138.00,0.0068
3137.00,0.0067
3136.00,0.0067
3135.00,0.0066
3134.00,0.0066
3133.00,0.0065
3132.00,0.0065
3131.00,0.0064
3130.00,0.0064
3129.00,0.0064
3128.00,0.0064
3127.00,0.0064
3126.00,0.0063
3125.00,0.0063
3124.00,0.0063
3123.00,0.0063
3122.00,0.0063
3121.00,0.0063
3120.00,0.0063
3119.00,0.0062
3118.00,0.0062
3117.00,0.0062
3116.00,0.0061
3115.00,0.0061
3114.00,0.0061
3113.00,0.0061
3112.00,0.0060
3111.00,0.0060
3110.00,0.0060
3109.00,0.0060
3108.00,0.0060
3107.00,0.0059
3106.00,0.0059
3105.00,0.0059
3104.00,0.0059
3103.00,0.0059
3102.00,0.0059
3101.00,0.0058
3100.00,0.0058
3099.00,0.0058
3098.00,0.0058
3097.00,0.0057
3096.00,0.0057
3095.00,0.0057
3094.00,0.0057
3093.00,0.0056
3092.00,0.0056
3091.00,0.0056
3090.00,0.0056
3089.00,0.0056
3088.00,0.0056
3087.00,0.0056
3086.00,0.0056
3085.00,0.0056
3084.00,0.0056
3083.00,0.0056
3082.00,0.0057
3081.00,0.0058
3080.00,0.0058
3079.00,0.0059
3078.00,0.0061
3077.00,0.0062
3076.00,0.0063
3075.00,0.0064
3074.00,0.0064
3073.00,0.0063
3072.00,0.0062
3071.00,0.0061
3070.00,0.0059
3069.00,0.0057
3068.00,0.0056
3067.00,0.0054
3066.00,0.0054
3065.00,0.0053
3064.00,0.0052
3063.00,0.0052
3062.00,0.0051
3061.00,0.0051
3060.00,0.0050
3059.00,0.0050
3058.00,0.0050
3057.00,0.0050
3056.00,0.0050
3055.00,0.0049
3054.00,0.0049
3053.00,0.0049
3052.00,0.0048
3051.00,0.0048
3050.00,0.0048
3049.00,0.0048
3048.00,0.0048
3047.00,0.0048
3046.00,0.0048
3045.00,0.0048
3044.00,0.0048
3043.00,0.0048
3042.00,0.0048
3041.00,0.0048
3040.00,0.0048
3039.00,0.0048
3038.00,0.0048
3037.00,0.0048
3036.00,0.0048
3035.00,0.0048
3034.00,0.0048
3033.00,0.0049
3032.00,0.0049
3031.00,0.0049
3030.00,0.0048
3029.00,0.0048
3028.00,0.0048
3027.00,0.0048
3026.00,0.0047
3025.00,0.0047
3024.00,0.0047
3023.00,0.0047
3022.00,0.0047
3021.00,0.0048
3020.00,0.0048
3019.00,0.0048
3018.00,0.0048
3017.00,0.0049
3016.00,0.0049
3015.00,0.0050
3014.00,0.0050
3013.00,0.0051
3012.00,0.0051
3011.00,0.0052
3010.00,0.0053
3009.00,0.0053
3008.00,0.0054
3007.00,0.0056
3006.00,0.0057
3005.00,0.0058
3004.00,0.0059
3003.00,0.0060
3002.00,0.0062
3001.00,0.0064
3000.00,0.0065
2999.00,0.0067
2998.00,0.0068
2997.00,0.0069
2996.00,0.0071
2995.00,0.0073
2994.00,0.0074
2993.00,0.0076
2992.00,0.0078
2991.00,0.0080
2990.00,0.0082
2989.00,0.0083
2988.00,0.0085
2987.00,0.0086
2986.00,0.0087
2985.00,0.0088
2984.00,0.0089
2983.00,0.0090
2982.00,0.0091
2981.00,0.0092
2980.00,0.0094
2979.00,0.0096
2978.00,0.0098
2977.00,0.0101
2976.00,0.0103
2975.00,0.0106
2974.00,0.0109
2973.00,0.0112
2972.00,0.0115
2971.00,0.0119
2970.00,0.0123
2969.00,0.0127
2968.00,0.0131
2967.00,0.0134
2966.00,0.0136
2965.00,0.0137
2964.00,0.0138
2963.00,0.0138
2962.00,0.0139
2961.00,0.0139
2960.00,0.0139
2959.00,0.0139
2958.00,0.0139
2957.00,0.0140
2956.00,0.0140
2955.00,0.0141
2954.00,0.0141
2953.00,0.0142
2952.00,0.0142
2951.00,0.0143
2950.00,0.0143
2949.00,0.0144
2948.00,0.0144
2947.00,0.0145
2946.00,0.0146
2945.00,0.0146
2944.00,0.0147
2943.00,0.0147
2942.00,0.0147
2941.00,0.0147
2940.00,0.0146
2939.00,0.0146
2938.00,0.0145
2937.00,0.0145
2936.00,0.0145
2935.00,0.0145
2934.00,0.0145
2933.00,0.0146
2932.00,0.0147
2931.00,0.0150
2930.00,0.0153
2929.00,0.0157
2928.00,0.0161
2927.00,0.0165
2926.00,0.0169
2925.00,0.0172
2924.00,0.0174
2923.00,0.0174
2922.00,0.0174
2921.00,0.0173
2920.00,0.0172
2919.00,0.0172
2918.00,0.0171
2917.00,0.0170
2916.00,0.0169
2915.00,0.0168
2914.00,0.0166
2913.00,0.0164
2912.00,0.0162
2911.00,0.0160
2910.00,0.0157
2909.00,0.0154
2908.00,0.0151
2907.00,0.0148
2906.00,0.0146
2905.00,0.0144
2904.00,0.0142
2903.00,0.0141
2902.00,0.0140
2901.00,0.0140
2900.00,0.0139
2899.00,0.0138
2898.00,0.0138
2897.00,0.0137
2896.00,0.0136
2895.00,0.0135
2894.00,0.0134
2893.00,0.0133
2892.00,0.0132
2891.00,0.0131
2890.00,0.0131
2889.00,0.0130
2888.00,0.0130
2887.00,0.0130
2886.00,0.0129
2885.00,0.0129
2884.00,0.0129
2883.00,0.0129
2882.00,0.0129
2881.00,0.0128
2880.00,0.0128
2879.00,0.0128
2878.00,0.0127
2877.00,0.0127
2876.00,0.0126
2875.00,0.0126
2874.00,0.0125
2873.00,0.0125
2872.00,0.0125
2871.00,0.0125
2870.00,0.0125
2869.00,0.0124
2868.00,0.0123
2867.00,0.0121
2866.00,0.0120
2865.00,0.0119
2864.00,0.0118
2863.00,0.0118
2862.00,0.0119
2861.00,0.0120
2860.00,0.0122
2859.00,0.0124
2858.00,0.0127
2857.00,0.0129
2856.00,0.0130
2855.00,0.0129
2854.00,0.0127
2853.00,0.0123
2852.00,0.0118
2851.00,0.0113
2850.00,0.0108
2849.00,0.0103
2848.00,0.0098
2847.00,0.0094
2846.00,0.0090
2845.00,0.0087
2844.00,0.0084
2843.00,0.0082
2842.00,0.0080
2841.00,0.0078
2840.00,0.0077
2839.00,0.0076
2838.00,0.0075
2837.00,0.0076
2836.00,0.0076
2835.00,0.0078
2834.00,0.0079
2833.00,0.0081
2832.00,0.0084
2831.00,0.0085
2830.00,0.0087
2829.00,0.0087
2828.00,0.0086
2827.00,0.0084
2826.00,0.0081
2825.00,0.0077
2824.00,0.0073
2823.00,0.0070
2822.00,0.0067
2821.00,0.0065
2820.00,0.0063
2819.00,0.0061
2818.00,0.0060
2817.00,0.0059
2816.00,0.0057
2815.00,0.0057
2814.00,0.0056
2813.00,0.0055
2812.00,0.0054
2811.00,0.0054
2810.00,0.0053
2809.00,0.0053
2808.00,0.0052
2807.00,0.0052
2806.00,0.0052
2805.00,0.0051
2804.00,0.0051
2803.00,0.0051
2802.00,0.0050
2801.00,0.0050
2800.00,0.0049
2799.00,0.0049
2798.00,0.0049
2797.00,0.0049
2796.00,0.0049
2795.00,0.0049
2794.00,0.0049
2793.00,0.0048
2792.00,0.0048
2791.00,0.0048
2790.00,0.0047
2789.00,0.0047
2788.00,0.0047
2787.00,0.0047
2786.00,0.0046
2785.00,0.0046
2784.00,0.0046
2783.00,0.0046
2782.00,0.0046
2781.00,0.0046
2780.00,0.0046
2779.00,0.0046
2778.00,0.0045
2777.00,0.0045
2776.00,0.0045
2775.00,0.0044
2774.00,0.0044
2773.00,0.0044
2772.00,0.0044
2771.00,0.0044
2770.00,0.0044
2769.00,0.0044
2768.00,0.0043
2767.00,0.0043
2766.00,0.0043
2765.00,0.0043
2764.00,0.0043
2763.00,0.0043
2762.00,0.0042
2761.00,0.0042
2760.00,0.0042
2759.00,0.0042
2758.00,0.0042
2757.00,0.0042
2756.00,0.0042
2755.00,0.0042
2754.00,0.0042
2753.00,0.0042
2752.00,0.0042
2751.00,0.0042
2750.00,0.0042
2749.00,0.0042
2748.00,0.0042
2747.00,0.0042
2746.00,0.0042
2745.00,0.0042
2744.00,0.0042
2743.00,0.0042
2742.00,0.0042
2741.00,0.0042
2740.00,0.0042
2739.00,0.0042
2738.00,0.0042
2737.00,0.0042
2736.00,0.0042
2735.00,0.0042
2734.00,0.0042
2733.00,0.0042
2732.00,0.0042
2731.00,0.0042
2730.00,0.0043
2729.00,0.0043
2728.00,0.0043
2727.00,0.0043
2726.00,0.0043
2725.00,0.0042
2724.00,0.0042
2723.00,0.0042
2722.00,0.0041
2721.00,0.0041
2720.00,0.0041
2719.00,0.0041
2718.00,0.0041
2717.00,0.0041
2716.00,0.0041
2715.00,0.0041
2714.00,0.0041
2713.00,0.0041
2712.00,0.0041
2711.00,0.0040
2710.00,0.0040
2709.00,0.0040
2708.00,0.0040
2707.00,0.0040
2706.00,0.0040
2705.00,0.0040
2704.00,0.0040
2703.00,0.0040
2702.00,0.0040
2701.00,0.0040
2700.00,0.0040
2699.00,0.0039
2698.00,0.0039
2697.00,0.0039
2696.00,0.0039
2695.00,0.0039
2694.00,0.0039
2693.00,0.0039
2692.00,0.0039
2691.00,0.0039
2690.00,0.0039
2689.00,0.0039
2688.00,0.0039
2687.00,0.0039
2686.00,0.0039
2685.00,0.0039
2684.00,0.0039
2683.00,0.0039
2682.00,0.0040
2681.00,0.0039
2680.00,0.0039
2679.00,0.0039
2678.00,0.0039
2677.00,0.0039
2676.00,0.0040
2675.00,0.0040
2674.00,0.0040
2673.00,0.0039
2672.00,0.0039
2671.00,0.0039
2670.00,0.0039
2669.00,0.0039
2668.00,0.0040
2667.00,0.0040
2666.00,0.0040
2665.00,0.0041
2664.00,0.0041
2663.00,0.0041
2662.00,0.0042
2661.00,0.0042
2660.00,0.0042
2659.00,0.0042
2658.00,0.0043
2657.00,0.0043
2656.00,0.0043
2655.00,0.0043
2654.00,0.0043
2653.00,0.0043
2652.00,0.0043
2651.00,0.0043
2650.00,0.0043
2649.00,0.0043
2648.00,0.0043
2647.00,0.0043
2646.00,0.0043
2645.00,0.0043
2644.00,0.0043
2643.00,0.0043
2642.00,0.0043
2641.00,0.0043
2640.00,0.0043
2639.00,0.0042
2638.00,0.0042
2637.00,0.0042
2636.00,0.0042
2635.00,0.0042
2634.00,0.0042
2633.00,0.0042
2632.00,0.0042
2631.00,0.0042
2630.00,0.0042
2629.00,0.0042
2628.00,0.0042
2627.00,0.0042
2626.00,0.0042
2625.00,0.0041
2624.00,0.0041
2623.00,0.0041
2622.00,0.0041
2621.00,0.0041
2620.00,0.0041
2619.00,0.0041
2618.00,0.0041
2617.00,0.0041
2616.00,0.0041
2615.00,0.0041
2614.00,0.0040
2613.00,0.0040
2612.00,0.0041
2611.00,0.0041
2610.00,0.0041
2609.00,0.0041
2608.00,0.0041
2607.00,0.0041
2606.00,0.0040
2605.00,0.0040
2604.00,0.0040
2603.00,0.0039
2602.00,0.0039
2601.00,0.0039
2600.00,0.0039
2599.00,0.0039
2598.00,0.0039
2597.00,0.0039
2596.00,0.0040
2595.00,0.0040
2594.00,0.0040
2593.00,0.0040
2592.00,0.0040
2591.00,0.0040
2590.00,0.0040
2589.00,0.0040
2588.00,0.0040
2587.00,0.0040
2586.00,0.0040
2585.00,0.0040
2584.00,0.0040
2583.00,0.0040
2582.00,0.0040
2581.00,0.0040
2580.00,0.0039
2579.00,0.0039
2578.00,0.0039
2577.00,0.0039
2576.00,0.0039
2575.00,0.0039
2574.00,0.0039
2573.00,0.0039
2572.00,0.0039
2571.00,0.0039
2570.00,0.0039
2569.00,0.0040
2568.00,0.0040
2567.00,0.0039
2566.00,0.0039
2565.00,0.0039
2564.00,0.0039
2563.00,0.0039
2562.00,0.0038
2561.00,0.0038
2560.00,0.0038
2559.00,0.0038
2558.00,0.0038
2557.00,0.0038
2556.00,0.0038
2555.00,0.0038
2554.00,0.0038
2553.00,0.0038
2552.00,0.0038
2551.00,0.0038
2550.00,0.0037
2549.00,0.0037
2548.00,0.0037
2547.00,0.0038
2546.00,0.0038
2545.00,0.0038
2544.00,0.0038
2543.00,0.0037
2542.00,0.0037
2541.00,0.0037
2540.00,0.0037
2539.00,0.0037
2538.00,0.0037
2537.00,0.0037
2536.00,0.0037
2535.00,0.0037
2534.00,0.0037
2533.00,0.0036
2532.00,0.0036
2531.00,0.0036
2530.00,0.0036
2529.00,0.0036
2528.00,0.0037
2527.00,0.0037
2526.00,0.0037
2525.00,0.0037
2524.00,0.0036
2523.00,0.0036
2522.00,0.0036
2521.00,0.0036
2520.00,0.0036
2519.00,0.0036
2518.00,0.0036
2517.00,0.0036
2516.00,0.0036
2515.00,0.0036
2514.00,0.0036
2513.00,0.0036
2512.00,0.0036
2511.00,0.0036
2510.00,0.0036
2509.00,0.0036
2508.00,0.0036
2507.00,0.0036
2506.00,0.0035
2505.00,0.0035
2504.00,0.0035
2503.00,0.0036
2502.00,0.0036
2501.00,0.0036
2500.00,0.0036
2499.00,0.0036
2498.00,0.0036
2497.00,0.0036
2496.00,0.0036
2495.00,0.0036
2494.00,0.0036
2493.00,0.0035
2492.00,0.0035
2491.00,0.0035
2490.00,0.0035
2489.00,0.0035
2488.00,0.0035
2487.00,0.0035
2486.00,0.0035
2485.00,0.0036
2484.00,0.0036
2483.00,0.0036
2482.00,0.0036
2481.00,0.0036
2480.00,0.0036
2479.00,0.0036
2478.00,0.0036
2477.00,0.0036
2476.00,0.0036
2475.00,0.0036
2474.00,0.0036
2473.00,0.0036
2472.00,0.0036
2471.00,0.0035
2470.00,0.0035
2469.00,0.0035
2468.00,0.0035
2467.00,0.0035
2466.00,0.0036
2465.00,0.0037
2464.00,0.0037
2463.00,0.0037
2462.00,0.0037
2461.00,0.0037
2460.00,0.0037
2459.00,0.0037
2458.00,0.0037
2457.00,0.0037
2456.00,0.0037
2455.00,0.0038
2454.00,0.0038
2453.00,0.0038
2452.00,0.0038
2451.00,0.0037
2450.00,0.0037
2449.00,0.0038
2448.00,0.0038
2447.00,0.0037
2446.00,0.0037
2445.00,0.0037
2444.00,0.0036
2443.00,0.0036
2442.00,0.0036
2441.00,0.0035
2440.00,0.0035
2439.00,0.0036
2438.00,0.0036
2437.00,0.0036
2436.00,0.0036
2435.00,0.0036
2434.00,0.0036
2433.00,0.0035
2432.00,0.0035
2431.00,0.0035
2430.00,0.0035
2429.00,0.0035
2428.00,0.0034
2427.00,0.0034
2426.00,0.0034
2425.00,0.0035
2424.00,0.0035
2423.00,0.0035
2422.00,0.0035
2421.00,0.0034
2420.00,0.0034
2419.00,0.0034
2418.00,0.0034
2417.00,0.0034
2416.00,0.0035
2415.00,0.0035
2414.00,0.0035
2413.00,0.0035
2412.00,0.0035
2411.00,0.0035
2410.00,0.0035
2409.00,0.0034
2408.00,0.0034
2407.00,0.0034
2406.00,0.0034
2405.00,0.0034
2404.00,0.0034
2403.00,0.0034
2402.00,0.0034
2401.00,0.0034
2400.00,0.0034
2399.00,0.0034
2398.00,0.0035
2397.00,0.0034
2396.00,0.0034
2395.00,0.0034
2394.00,0.0034
2393.00,0.0034
2392.00,0.0034
2391.00,0.0034
2390.00,0.0034
2389.00,0.0034
2388.00,0.0034
2387.00,0.0034
2386.00,0.0033
2385.00,0.0033
2384.00,0.0033
2383.00,0.0032
2382.00,0.0031
2381.00,0.0031
2380.00,0.0030
2379.00,0.0030
2378.00,0.0030
2377.00,0.0030
2376.00,0.0030
2375.00,0.0030
2374.00,0.0030
2373.00,0.0030
2372.00,0.0030
2371.00,0.0029
2370.00,0.0029
2369.00,0.0028
2368.00,0.0028
2367.00,0.0029
2366.00,0.0029
2365.00,0.0030
2364.00,0.0031
2363.00,0.0031
2362.00,0.0031
2361.00,0.0030
2360.00,0.0030
2359.00,0.0029
2358.00,0.0029
2357.00,0.0030
2356.00,0.0030
2355.00,0.0031
2354.00,0.0031
2353.00,0.0032
2352.00,0.0032
2351.00,0.0032
2350.00,0.0031
2349.00,0.0031
2348.00,0.0032
2347.00,0.0032
2346.00,0.0033
2345.00,0.0033
2344.00,0.0033
2343.00,0.0033
2342.00,0.0033
2341.00,0.0033
2340.00,0.0034
2339.00,0.0034
2338.00,0.0035
2337.00,0.0035
2336.00,0.0035
2335.00,0.0035
2334.00,0.0035
2333.00,0.0035
2332.00,0.0035
2331.00,0.0035
2330.00,0.0035
2329.00,0.0037
2328.00,0.0039
2327.00,0.0042
2326.00,0.0045
2325.00,0.0046
2324.00,0.0046
2323.00,0.0044
2322.00,0.0043
2321.00,0.0041
2320.00,0.0040
2319.00,0.0040
2318.00,0.0039
2317.00,0.0039
2316.00,0.0039
2315.00,0.0039
2314.00,0.0039
2313.00,0.0039
2312.00,0.0039
2311.00,0.0039
2310.00,0.0038
2309.00,0.0038
2308.00,0.0038
2307.00,0.0038
2306.00,0.0038
2305.00,0.0039
2304.00,0.0039
2303.00,0.0039
2302.00,0.0039
2301.00,0.0039
2300.00,0.0039
2299.00,0.0039
2298.00,0.0040
2297.00,0.0041
2296.00,0.0042
2295.00,0.0043
2294.00,0.0044
2293.00,0.0044
2292.00,0.0045
2291.00,0.0046
2290.00,0.0046
2289.00,0.0047
2288.00,0.0047
2287.00,0.0047
2286.00,0.0047
2285.00,0.0046
2284.00,0.0046
2283.00,0.0046
2282.00,0.0045
2281.00,0.0045
2280.00,0.0045
2279.00,0.0045
2278.00,0.0044
2277.00,0.0044
2276.00,0.0043
2275.00,0.0043
2274.00,0.0043
2273.00,0.0042
2272.00,0.0042
2271.00,0.0042
2270.00,0.0042
2269.00,0.0041
2268.00,0.0040
2267.00,0.0040
2266.00,0.0039
2265.00,0.0040
2264.00,0.0040
2263.00,0.0041
2262.00,0.0041
2261.00,0.0041
2260.00,0.0042
2259.00,0.0042
2258.00,0.0041
2257.00,0.0040
2256.00,0.0040
2255.00,0.0039
2254.00,0.0039
2253.00,0.0040
2252.00,0.0041
2251.00,0.0041
2250.00,0.0040
2249.00,0.0040
2248.00,0.0039
2247.00,0.0039
2246.00,0.0039
2245.00,0.0040
2244.00,0.0040
2243.00,0.0041
2242.00,0.0041
2241.00,0.0041
2240.00,0.0041
2239.00,0.0041
2238.00,0.0042
2237.00,0.0043
2236.00,0.0043
2235.00,0.0043
2234.00,0.0043
2233.00,0.0042
2232.00,0.0041
2231.00,0.0041
2230.00,0.0040
2229.00,0.0040
2228.00,0.0040
2227.00,0.0041
2226.00,0.0041
2225.00,0.0041
2224.00,0.0042
2223.00,0.0042
2222.00,0.0042
2221.00,0.0042
2220.00,0.0041
2219.00,0.0041
2218.00,0.0041
2217.00,0.0041
2216.00,0.0042
2215.00,0.0042
2214.00,0.0042
2213.00,0.0043
2212.00,0.0044
2211.00,0.0044
2210.00,0.0044
2209.00,0.0043
2208.00,0.0043
2207.00,0.0043
2206.00,0.0042
2205.00,0.0042
2204.00,0.0042
2203.00,0.0042
2202.00,0.0043
2201.00,0.0043
2200.00,0.0043
2199.00,0.0043
2198.00,0.0043
2197.00,0.0043
2196.00,0.0044
2195.00,0.0045
2194.00,0.0045
2193.00,0.0045
2192.00,0.0046
2191.00,0.0046
2190.00,0.0045
2189.00,0.0044
2188.00,0.0045
2187.00,0.0046
2186.00,0.0046
2185.00,0.0045
2184.00,0.0043
2183.00,0.0041
2182.00,0.0040
2181.00,0.0040
2180.00,0.0042
2179.00,0.0042
2178.00,0.0041
2177.00,0.0038
2176.00,0.0037
2175.00,0.0036
2174.00,0.0037
2173.00,0.0039
2172.00,0.0042
2171.00,0.0044
2170.00,0.0047
2169.00,0.0048
2168.00,0.0049
2167.00,0.0049
2166.00,0.0048
2165.00,0.0049
2164.00,0.0050
2163.00,0.0051
2162.00,0.0047
2161.00,0.0038
2160.00,0.0027
2159.00,0.0017
2158.00,0.0013
2157.00,0.0013
2156.00,0.0015
2155.00,0.0018
2154.00,0.0020
2153.00,0.0021
2152.00,0.0023
2151.00,0.0024
2150.00,0.0025
2149.00,0.0025
2148.00,0.0025
2147.00,0.0026
2146.00,0.0027
2145.00,0.0027
2144.00,0.0028
2143.00,0.0029
2142.00,0.0029
2141.00,0.0030
2140.00,0.0030
2139.00,0.0029
2138.00,0.0027
2137.00,0.0025
2136.00,0.0023
2135.00,0.0022
2134.00,0.0022
2133.00,0.0024
2132.00,0.0026
2131.00,0.0028
2130.00,0.0029
2129.00,0.0030
2128.00,0.0031
2127.00,0.0032
2126.00,0.0033
2125.00,0.0034
2124.00,0.0034
2123.00,0.0035
2122.00,0.0035
2121.00,0.0036
2120.00,0.0037
2119.00,0.0038
2118.00,0.0039
2117.00,0.0040
2116.00,0.0041
2115.00,0.0041
2114.00,0.0041
2113.00,0.0040
2112.00,0.0040
2111.00,0.0039
2110.00,0.0039
2109.00,0.0039
2108.00,0.0040
2107.00,0.0040
2106.00,0.0040
2105.00,0.0040
2104.00,0.0040
2103.00,0.0040
2102.00,0.0040
2101.00,0.0040
2100.00,0.0040
2099.00,0.0039
2098.00,0.0038
2097.00,0.0037
2096.00,0.0036
2095.00,0.0035
2094.00,0.0034
2093.00,0.0035
2092.00,0.0036
2091.00,0.0037
2090.00,0.0037
2089.00,0.0038
2088.00,0.0039
2087.00,0.0039
2086.00,0.0039
2085.00,0.0040
2084.00,0.0040
2083.00,0.0041
2082.00,0.0041
2081.00,0.0041
2080.00,0.0042
2079.00,0.0041
2078.00,0.0041
2077.00,0.0040
2076.00,0.0040
2075.00,0.0040
2074.00,0.0039
2073.00,0.0039
2072.00,0.0039
2071.00,0.0039
2070.00,0.0039
2069.00,0.0040
2068.00,0.0040
2067.00,0.0039
2066.00,0.0039
2065.00,0.0038
2064.00,0.0038
2063.00,0.0037
2062.00,0.0036
2061.00,0.0036
2060.00,0.0036
2059.00,0.0037
2058.00,0.0038
2057.00,0.0039
2056.00,0.0039
2055.00,0.0039
2054.00,0.0040
2053.00,0.0043
2052.00,0.0046
2051.00,0.0046
2050.00,0.0044
2049.00,0.0040
2048.00,0.0038
2047.00,0.0037
2046.00,0.0037
2045.00,0.0038
2044.00,0.0038
2043.00,0.0039
2042.00,0.0038
2041.00,0.0038
2040.00,0.0038
2039.00,0.0038
2038.00,0.0038
2037.00,0.0038
2036.00,0.0037
2035.00,0.0036
2034.00,0.0033
2033.00,0.0031
2032.00,0.0030
2031.00,0.0030
2030.00,0.0029
2029.00,0.0029
2028.00,0.0029
2027.00,0.0029
2026.00,0.0029
2025.00,0.0028
2024.00,0.0029
2023.00,0.0029
2022.00,0.0028
2021.00,0.0028
2020.00,0.0029
2019.00,0.0030
2018.00,0.0031
2017.00,0.0031
2016.00,0.0031
2015.00,0.0031
2014.00,0.0030
2013.00,0.0030
2012.00,0.0030
2011.00,0.0031
2010.00,0.0030
2009.00,0.0028
2008.00,0.0025
2007.00,0.0022
2006.00,0.0021
2005.00,0.0021
2004.00,0.0023
2003.00,0.0025
2002.00,0.0026
2001.00,0.0027
2000.00,0.0028
1999.00,0.0028
1998.00,0.0029
1997.00,0.0029
1996.00,0.0031
1995.00,0.0032
1994.00,0.0032
1993.00,0.0031
1992.00,0.0032
1991.00,0.0033
1990.00,0.0033
1989.00,0.0034
1988.00,0.0033
1987.00,0.0033
1986.00,0.0033
1985.00,0.0035
1984.00,0.0037
1983.00,0.0040
1982.00,0.0043
1981.00,0.0043
1980.00,0.0041
1979.00,0.0035
1978.00,0.0028
1977.00,0.0023
1976.00,0.0022
1975.00,0.0023
1974.00,0.0024
1973.00,0.0025
1972.00,0.0025
1971.00,0.0024
1970.00,0.0022
1969.00,0.0020
1968.00,0.0020
1967.00,0.0021
1966.00,0.0023
1965.00,0.0024
1964.00,0.0025
1963.00,0.0024
1962.00,0.0022
1961.00,0.0021
1960.00,0.0022
1959.00,0.0023
1958.00,0.0024
1957.00,0.0025
1956.00,0.0026
1955.00,0.0026
1954.00,0.0026
1953.00,0.0025
1952.00,0.0026
1951.00,0.0026
1950.00,0.0026
1949.00,0.0027
1948.00,0.0027
1947.00,0.0027
1946.00,0.0027
1945.00,0.0026
1944.00,0.0026
1943.00,0.0026
1942.00,0.0026
1941.00,0.0026
1940.00,0.0026
1939.00,0.0026
1938.00,0.0026
1937.00,0.0026
1936.00,0.0026
1935.00,0.0026
1934.00,0.0026
1933.00,0.0026
1932.00,0.0026
1931.00,0.0027
1930.00,0.0027
1929.00,0.0026
1928.00,0.0026
1927.00,0.0026
1926.00,0.0026
1925.00,0.0027
1924.00,0.0027
1923.00,0.0029
1922.00,0.0030
1921.00,0.0030
1920.00,0.0030
1919.00,0.0030
1918.00,0.0029
1917.00,0.0028
1916.00,0.0028
1915.00,0.0028
1914.00,0.0028
1913.00,0.0028
1912.00,0.0029
1911.00,0.0029
1910.00,0.0029
1909.00,0.0029
1908.00,0.0029
1907.00,0.0030
1906.00,0.0029
1905.00,0.0029
1904.00,0.0029
1903.00,0.0029
1902.00,0.0029
1901.00,0.0029
1900.00,0.0029
1899.00,0.0029
1898.00,0.0029
1897.00,0.0029
1896.00,0.0030
1895.00,0.0030
1894.00,0.0029
1893.00,0.0029
1892.00,0.0029
1891.00,0.0029
1890.00,0.0030
1889.00,0.0030
1888.00,0.0031
1887.00,0.0031
1886.00,0.0031
1885.00,0.0030
1884.00,0.0030
1883.00,0.0029
1882.00,0.0029
1881.00,0.0029
1880.00,0.0030
1879.00,0.0030
1878.00,0.0030
1877.00,0.0030
1876.00,0.0030
1875.00,0.0031
1874.00,0.0030
1873.00,0.0030
1872.00,0.0030
1871.00,0.0030
1870.00,0.0030
1869.00,0.0030
1868.00,0.0031
1867.00,0.0031
1866.00,0.0031
1865.00,0.0031
1864.00,0.0030
1863.00,0.0030
1862.00,0.0030
1861.00,0.0030
1860.00,0.0030
1859.00,0.0031
1858.00,0.0031
1857.00,0.0031
1856.00,0.0032
1855.00,0.0032
1854.00,0.0032
1853.00,0.0031
1852.00,0.0031
1851.00,0.0031
1850.00,0.0031
1849.00,0.0031
1848.00,0.0031
1847.00,0.0031
1846.00,0.0031
1845.00,0.0030
1844.00,0.0030
1843.00,0.0031
1842.00,0.0031
1841.00,0.0031
1840.00,0.0030
1839.00,0.0030
1838.00,0.0031
1837.00,0.0031
1836.00,0.0032
1835.00,0.0032
1834.00,0.0032
1833.00,0.0032
1832.00,0.0032
1831.00,0.0032
1830.00,0.0032
1829.00,0.0032
1828.00,0.0032
1827.00,0.0032
1826.00,0.0032
1825.00,0.0032
1824.00,0.0032
1823.00,0.0033
1822.00,0.0033
1821.00,0.0032
1820.00,0.0032
1819.00,0.0031
1818.00,0.0030
1817.00,0.0030
1816.00,0.0030
1815.00,0.0030
1814.00,0.0031
1813.00,0.0031
1812.00,0.0032
1811.00,0.0032
1810.00,0.0033
1809.00,0.0033
1808.00,0.0034
1807.00,0.0034
1806.00,0.0034
1805.00,0.0034
1804.00,0.0034
1803.00,0.0034
1802.00,0.0034
1801.00,0.0034
1800.00,0.0034
1799.00,0.0035
1798.00,0.0035
1797.00,0.0035
1796.00,0.0035
1795.00,0.0035
1794.00,0.0034
1793.00,0.0034
1792.00,0.0034
1791.00,0.0035
1790.00,0.0035
1789.00,0.0035
1788.00,0.0035
1787.00,0.0035
1786.00,0.0035
1785.00,0.0035
1784.00,0.0035
1783.00,0.0036
1782.00,0.0036
1781.00,0.0036
1780.00,0.0037
1779.00,0.0037
1778.00,0.0037
1777.00,0.0037
1776.00,0.0037
1775.00,0.0038
1774.00,0.0038
1773.00,0.0038
1772.00,0.0040
1771.00,0.0041
1770.00,0.0041
1769.00,0.0040
1768.00,0.0039
1767.00,0.0039
1766.00,0.0040
1765.00,0.0040
1764.00,0.0040
1763.00,0.0040
1762.00,0.0040
1761.00,0.0040
1760.00,0.0041
1759.00,0.0041
1758.00,0.0041
1757.00,0.0041
1756.00,0.0041
1755.00,0.0042
1754.00,0.0042
1753.00,0.0042
1752.00,0.0042
1751.00,0.0043
1750.00,0.0044
1749.00,0.0044
1748.00,0.0045
1747.00,0.0046
1746.00,0.0046
1745.00,0.0046
1744.00,0.0047
1743.00,0.0048
1742.00,0.0048
1741.00,0.0048
1740.00,0.0049
1739.00,0.0050
1738.00,0.0051
1737.00,0.0051
1736.00,0.0052
1735.00,0.0053
1734.00,0.0054
1733.00,0.0056
1732.00,0.0057
1731.00,0.0058
1730.00,0.0057
1729.00,0.0057
1728.00,0.0058
1727.00,0.0060
1726.00,0.0061
1725.00,0.0062
1724.00,0.0063
1723.00,0.0065
1722.00,0.0066
1721.00,0.0067
1720.00,0.0069
1719.00,0.0071
1718.00,0.0074
1717.00,0.0077
1716.00,0.0080
1715.00,0.0082
1714.00,0.0084
1713.00,0.0085
1712.00,0.0088
1711.00,0.0091
1710.00,0.0095
1709.00,0.0099
1708.00,0.0104
1707.00,0.0109
1706.00,0.0114
1705.00,0.0121
1704.00,0.0128
1703.00,0.0134
1702.00,0.0141
1701.00,0.0149
1700.00,0.0160
1699.00,0.0173
1698.00,0.0185
1697.00,0.0197
1696.00,0.0212
1695.00,0.0228
1694.00,0.0244
1693.00,0.0257
1692.00,0.0272
1691.00,0.0289
1690.00,0.0307
1689.00,0.0326
1688.00,0.0345
1687.00,0.0365
1686.00,0.0385
1685.00,0.0405
1684.00,0.0425
1683.00,0.0444
1682.00,0.0461
1681.00,0.0478
1680.00,0.0497
1679.00,0.0517
1678.00,0.0537
1677.00,0.0555
1676.00,0.0572
1675.00,0.0587
1674.00,0.0601
1673.00,0.0619
1672.00,0.0638
1671.00,0.0656
1670.00,0.0669
1669.00,0.0679
1668.00,0.0693
1667.00,0.0709
1666.00,0.0729
1665.00,0.0749
1664.00,0.0767
1663.00,0.0780
1662.00,0.0790
1661.00,0.0802
1660.00,0.0818
1659.00,0.0836
1658.00,0.0854
1657.00,0.0875
1656.00,0.0899
1655.00,0.0922
1654.00,0.0926
1653.00,0.0905
1652.00,0.0892
1651.00,0.0902
1650.00,0.0922
1649.00,0.0942
1648.00,0.0952
1647.00,0.0948
1646.00,0.0936
1645.00,0.0929
1644.00,0.0929
1643.00,0.0930
1642.00,0.0926
1641.00,0.0917
1640.00,0.0906
1639.00,0.0898
1638.00,0.0889
1637.00,0.0873
1636.00,0.0840
1635.00,0.0801
1634.00,0.0774
1633.00,0.0760
1632.00,0.0752
1631.00,0.0743
1630.00,0.0729
1629.00,0.0709
1628.00,0.0686
1627.00,0.0667
1626.00,0.0652
1625.00,0.0639
1624.00,0.0622
1623.00,0.0600
1622.00,0.0577
1621.00,0.0559
1620.00,0.0544
1619.00,0.0529
1618.00,0.0507
1617.00,0.0477
1616.00,0.0446
1615.00,0.0422
1614.00,0.0405
1613.00,0.0391
1612.00,0.0378
1611.00,0.0363
1610.00,0.0349
1609.00,0.0335
1608.00,0.0322
1607.00,0.0310
1606.00,0.0298
1605.00,0.0288
1604.00,0.0278
1603.00,0.0268
1602.00,0.0258
1601.00,0.0250
1600.00,0.0241
1599.00,0.0234
1598.00,0.0227
1597.00,0.0221
1596.00,0.0216
1595.00,0.0211
1594.00,0.0208
1593.00,0.0206
1592.00,0.0206
1591.00,0.0208
1590.00,0.0211
1589.00,0.0217
1588.00,0.0223
1587.00,0.0230
1586.00,0.0236
1585.00,0.0242
1584.00,0.0246
1583.00,0.0248
1582.00,0.0249
1581.00,0.0247
1580.00,0.0244
1579.00,0.0240
1578.00,0.0233
1577.00,0.0222
1576.00,0.0207
1575.00,0.0194
1574.00,0.0185
1573.00,0.0178
1572.00,0.0171
1571.00,0.0165
1570.00,0.0157
1569.00,0.0150
1568.00,0.0144
1567.00,0.0139
1566.00,0.0135
1565.00,0.0132
1564.00,0.0129
1563.00,0.0127
1562.00,0.0126
1561.00,0.0125
1560.00,0.0122
1559.00,0.0118
1558.00,0.0116
1557.00,0.0115
1556.00,0.0113
1555.00,0.0111
1554.00,0.0109
1553.00,0.0109
1552.00,0.0107
1551.00,0.0106
1550.00,0.0104
1549.00,0.0103
1548.00,0.0102
1547.00,0.0102
1546.00,0.0101
1545.00,0.0100
1544.00,0.0099
1543.00,0.0099
1542.00,0.0100
1541.00,0.0100
1540.00,0.0100
1539.00,0.0100
1538.00,0.0099
1537.00,0.0097
1536.00,0.0095
1535.00,0.0092
1534.00,0.0091
1533.00,0.0090
1532.00,0.0090
1531.00,0.0090
1530.00,0.0090
1529.00,0.0090
1528.00,0.0090
1527.00,0.0090
1526.00,0.0090
1525.00,0.0090
1524.00,0.0091
1523.00,0.0091
1522.00,0.0092
1521.00,0.0093
1520.00,0.0095
1519.00,0.0097
1518.00,0.0098
1517.00,0.0101
1516.00,0.0104
1515.00,0.0106
1514.00,0.0108
1513.00,0.0110
1512.00,0.0111
1511.00,0.0113
1510.00,0.0114
1509.00,0.0116
1508.00,0.0119
1507.00,0.0124
1506.00,0.0131
1505.00,0.0138
1504.00,0.0145
1503.00,0.0153
1502.00,0.0161
1501.00,0.0171
1500.00,0.0181
1499.00,0.0191
1498.00,0.0201
1497.00,0.0210
1496.00,0.0217
1495.00,0.0221
1494.00,0.0224
1493.00,0.0225
1492.00,0.0223
1491.00,0.0217
1490.00,0.0208
1489.00,0.0197
1488.00,0.0185
1487.00,0.0175
1486.00,0.0165
1485.00,0.0157
1484.00,0.0150
1483.00,0.0144
1482.00,0.0139
1481.00,0.0135
1480.00,0.0133
1479.00,0.0132
1478.00,0.0133
1477.00,0.0136
1476.00,0.0140
1475.00,0.0146
1474.00,0.0154
1473.00,0.0167
1472.00,0.0185
1471.00,0.0204
1470.00,0.0224
1469.00,0.0247
1468.00,0.0273
1467.00,0.0299
1466.00,0.0326
1465.00,0.0352
1464.00,0.0375
1463.00,0.0393
1462.00,0.0406
1461.00,0.0416
1460.00,0.0421
1459.00,0.0417
1458.00,0.0400
1457.00,0.0371
1456.00,0.0344
1455.00,0.0328
1454.00,0.0322
1453.00,0.0321
1452.00,0.0323
1451.00,0.0330
1450.00,0.0341
1449.00,0.0358
1448.00,0.0379
1447.00,0.0403
1446.00,0.0428
1445.00,0.0453
1444.00,0.0478
1443.00,0.0499
1442.00,0.0518
1441.00,0.0535
1440.00,0.0551
1439.00,0.0563
1438.00,0.0570
1437.00,0.0568
1436.00,0.0560
1435.00,0.0552
1434.00,0.0549
1433.00,0.0547
1432.00,0.0545
1431.00,0.0540
1430.00,0.0537
1429.00,0.0537
1428.00,0.0542
1427.00,0.0552
1426.00,0.0564
1425.00,0.0577
1424.00,0.0589
1423.00,0.0596
1422.00,0.0601
1421.00,0.0600
1420.00,0.0585
1419.00,0.0555
1418.00,0.0518
1417.00,0.0484
1416.00,0.0452
1415.00,0.0421
1414.00,0.0391
1413.00,0.0361
1412.00,0.0332
1411.00,0.0305
1410.00,0.0282
1409.00,0.0263
1408.00,0.0246
1407.00,0.0231
1406.00,0.0219
1405.00,0.0207
1404.00,0.0196
1403.00,0.0188
1402.00,0.0181
1401.00,0.0176
1400.00,0.0170
1399.00,0.0165
1398.00,0.0161
1397.00,0.0158
1396.00,0.0155
1395.00,0.0153
1394.00,0.0152
1393.00,0.0151
1392.00,0.0152
1391.00,0.0153
1390.00,0.0154
1389.00,0.0155
1388.00,0.0157
1387.00,0.0159
1386.00,0.0163
1385.00,0.0168
1384.00,0.0174
1383.00,0.0180
1382.00,0.0189
1381.00,0.0199
1380.00,0.0210
1379.00,0.0222
1378.00,0.0235
1377.00,0.0247
1376.00,0.0257
1375.00,0.0264
1374.00,0.0267
1373.00,0.0266
1372.00,0.0263
1371.00,0.0259
1370.00,0.0253
1369.00,0.0246
1368.00,0.0238
1367.00,0.0230
1366.00,0.0222
1365.00,0.0214
1364.00,0.0205
1363.00,0.0195
1362.00,0.0186
1361.00,0.0178
1360.00,0.0171
1359.00,0.0166
1358.00,0.0162
1357.00,0.0158
1356.00,0.0155
1355.00,0.0152
1354.00,0.0150
1353.00,0.0148
1352.00,0.0146
1351.00,0.0144
1350.00,0.0143
1349.00,0.0143
1348.00,0.0143
1347.00,0.0144
1346.00,0.0145
1345.00,0.0147
1344.00,0.0147
1343.00,0.0147
1342.00,0.0147
1341.00,0.0147
1340.00,0.0147
1339.00,0.0146
1338.00,0.0146
1337.00,0.0147
1336.00,0.0148
1335.00,0.0150
1334.00,0.0153
1333.00,0.0156
1332.00,0.0161
1331.00,0.0167
1330.00,0.0174
1329.00,0.0182
1328.00,0.0191
1327.00,0.0201
1326.00,0.0212
1325.00,0.0223
1324.00,0.0235
1323.00,0.0245
1322.00,0.0254
1321.00,0.0262
1320.00,0.0268
1319.00,0.0272
1318.00,0.0276
1317.00,0.0279
1316.00,0.0282
1315.00,0.0285
1314.00,0.0287
1313.00,0.0288
1312.00,0.0287
1311.00,0.0284
1310.00,0.0279
1309.00,0.0274
1308.00,0.0270
1307.00,0.0268
1306.00,0.0268
1305.00,0.0272
1304.00,0.0279
1303.00,0.0289
1302.00,0.0302
1301.00,0.0319
1300.00,0.0338
1299.00,0.0361
1298.00,0.0388
1297.00,0.0418
1296.00,0.0452
1295.00,0.0486
1294.00,0.0522
1293.00,0.0557
1292.00,0.0589
1291.00,0.0619
1290.00,0.0644
1289.00,0.0664
1288.00,0.0678
1287.00,0.0687
1286.00,0.0691
1285.00,0.0690
1284.00,0.0685
1283.00,0.0677
1282.00,0.0668
1281.00,0.0659
1280.00,0.0652
1279.00,0.0648
1278.00,0.0646
1277.00,0.0647
1276.00,0.0649
1275.00,0.0651
1274.00,0.0652
1273.00,0.0650
1272.00,0.0645
1271.00,0.0636
1270.00,0.0624
1269.00,0.0607
1268.00,0.0588
1267.00,0.0567
1266.00,0.0545
1265.00,0.0522
1264.00,0.0500
1263.00,0.0479
1262.00,0.0458
1261.00,0.0437
1260.00,0.0418
1259.00,0.0399
1258.00,0.0382
1257.00,0.0366
1256.00,0.0353
1255.00,0.0341
1254.00,0.0331
1253.00,0.0322
1252.00,0.0316
1251.00,0.0311
1250.00,0.0307
1249.00,0.0304
1248.00,0.0302
1247.00,0.0300
1246.00,0.0299
1245.00,0.0299
1244.00,0.0300
1243.00,0.0304
1242.00,0.0310
1241.00,0.0319
1240.00,0.0329
1239.00,0.0339
1238.00,0.0349
1237.00,0.0357
1236.00,0.0362
1235.00,0.0366
1234.00,0.0368
1233.00,0.0369
1232.00,0.0368
1231.00,0.0367
1230.00,0.0366
1229.00,0.0366
1228.00,0.0367
1227.00,0.0370
1226.00,0.0375
1225.00,0.0380
1224.00,0.0385
1223.00,0.0391
1222.00,0.0398
1221.00,0.0406
1220.00,0.0416
1219.00,0.0427
1218.00,0.0439
1217.00,0.0450
1216.00,0.0458
1215.00,0.0462
1214.00,0.0461
1213.00,0.0454
1212.00,0.0444
1211.00,0.0430
1210.00,0.0414
1209.00,0.0399
1208.00,0.0384
1207.00,0.0371
1206.00,0.0358
1205.00,0.0346
1204.00,0.0334
1203.00,0.0323
1202.00,0.0311
1201.00,0.0300
1200.00,0.0289
1199.00,0.0279
1198.00,0.0271
1197.00,0.0263
1196.00,0.0257
1195.00,0.0251
1194.00,0.0247
1193.00,0.0243
1192.00,0.0240
1191.00,0.0238
1190.00,0.0237
1189.00,0.0236
1188.00,0.0237
1187.00,0.0237
1186.00,0.0238
1185.00,0.0239
1184.00,0.0240
1183.00,0.0242
1182.00,0.0243
1181.00,0.0245
1180.00,0.0246
1179.00,0.0248
1178.00,0.0251
1177.00,0.0254
1176.00,0.0257
1175.00,0.0261
1174.00,0.0266
1173.00,0.0272
1172.00,0.0275
1171.00,0.0276
1170.00,0.0272
1169.00,0.0266
1168.00,0.0258
1167.00,0.0249
1166.00,0.0241
1165.00,0.0234
1164.00,0.0226
1163.00,0.0219
1162.00,0.0214
1161.00,0.0209
1160.00,0.0204
1159.00,0.0201
1158.00,0.0199
1157.00,0.0197
1156.00,0.0197
1155.00,0.0199
1154.00,0.0204
1153.00,0.0211
1152.00,0.0220
1151.00,0.0227
1150.00,0.0229
1149.00,0.0226
1148.00,0.0218
1147.00,0.0206
1146.00,0.0195
1145.00,0.0186
1144.00,0.0178
1143.00,0.0172
1142.00,0.0167
1141.00,0.0164
1140.00,0.0162
1139.00,0.0160
1138.00,0.0160
1137.00,0.0159
1136.00,0.0158
1135.00,0.0157
1134.00,0.0156
1133.00,0.0155
1132.00,0.0153
1131.00,0.0152
1130.00,0.0152
1129.00,0.0152
1128.00,0.0152
1127.00,0.0153
1126.00,0.0153
1125.00,0.0154
1124.00,0.0155
1123.00,0.0156
1122.00,0.0156
1121.00,0.0157
1120.00,0.0158
1119.00,0.0159
1118.00,0.0159
1117.00,0.0159
1116.00,0.0159
1115.00,0.0160
1114.00,0.0161
1113.00,0.0161
1112.00,0.0162
1111.00,0.0162
1110.00,0.0163
1109.00,0.0164
1108.00,0.0165
1107.00,0.0166
1106.00,0.0167
1105.00,0.0169
1104.00,0.0171
1103.00,0.0174
1102.00,0.0176
1101.00,0.0179
1100.00,0.0182
1099.00,0.0184
1098.00,0.0184
1097.00,0.0183
1096.00,0.0181
1095.00,0.0178
1094.00,0.0176
1093.00,0.0174
1092.00,0.0173
1091.00,0.0172
1090.00,0.0172
1089.00,0.0172
1088.00,0.0173
1087.00,0.0173
1086.00,0.0174
1085.00,0.0176
1084.00,0.0178
1083.00,0.0181
1082.00,0.0185
1081.00,0.0190
1080.00,0.0194
1079.00,0.0196
1078.00,0.0198
1077.00,0.0198
1076.00,0.0197
1075.00,0.0196
1074.00,0.0195
1073.00,0.0194
1072.00,0.0193
1071.00,0.0191
1070.00,0.0190
1069.00,0.0188
1068.00,0.0187
1067.00,0.0186
1066.00,0.0185
1065.00,0.0185
1064.00,0.0185
1063.00,0.0184
1062.00,0.0185
1061.00,0.0185
1060.00,0.0186
1059.00,0.0188
1058.00,0.0192
1057.00,0.0197
1056.00,0.0205
1055.00,0.0215
1054.00,0.0225
1053.00,0.0233
1052.00,0.0237
1051.00,0.0237
1050.00,0.0234
1049.00,0.0229
1048.00,0.0220
1047.00,0.0210
1046.00,0.0199
1045.00,0.0189
1044.00,0.0180
1043.00,0.0174
1042.00,0.0170
1041.00,0.0168
1040.00,0.0167
1039.00,0.0168
1038.00,0.0170
1037.00,0.0175
1036.00,0.0181
1035.00,0.0190
1034.00,0.0199
1033.00,0.0208
1032.00,0.0214
1031.00,0.0217
1030.00,0.0217
1029.00,0.0214
1028.00,0.0212
1027.00,0.0210
1026.00,0.0211
1025.00,0.0215
1024.00,0.0223
1023.00,0.0234
1022.00,0.0248
1021.00,0.0262
1020.00,0.0275
1019.00,0.0284
1018.00,0.0287
1017.00,0.0285
1016.00,0.0278
1015.00,0.0268
1014.00,0.0256
1013.00,0.0244
1012.00,0.0232
1011.00,0.0223
1010.00,0.0218
1009.00,0.0215
1008.00,0.0215
1007.00,0.0218
1006.00,0.0224
1005.00,0.0231
1004.00,0.0238
1003.00,0.0244
1002.00,0.0247
1001.00,0.0247
1000.00,0.0243
999.00,0.0236
998.00,0.0227
997.00,0.0217
996.00,0.0208
995.00,0.0200
994.00,0.0193
993.00,0.0188
992.00,0.0184
991.00,0.0181
990.00,0.0180
989.00,0.0180
988.00,0.0180
987.00,0.0180
986.00,0.0179
985.00,0.0178
984.00,0.0176
983.00,0.0173
982.00,0.0170
981.00,0.0166
980.00,0.0163
979.00,0.0160
978.00,0.0158
977.00,0.0156
976.00,0.0155
975.00,0.0153
974.00,0.0151
973.00,0.0150
972.00,0.0149
971.00,0.0149
970.00,0.0150
969.00,0.0151
968.00,0.0152
967.00,0.0153
966.00,0.0155
965.00,0.0158
964.00,0.0161
963.00,0.0164
962.00,0.0167
961.00,0.0168
960.00,0.0166
959.00,0.0163
958.00,0.0157
957.00,0.0152
956.00,0.0147
955.00,0.0143
954.00,0.0139
953.00,0.0136
952.00,0.0134
951.00,0.0133
950.00,0.0131
949.00,0.0130
948.00,0.0130
947.00,0.0129
946.00,0.0130
945.00,0.0130
944.00,0.0131
943.00,0.0133
942.00,0.0134
941.00,0.0137
940.00,0.0139
939.00,0.0142
938.00,0.0146
937.00,0.0150
936.00,0.0154
935.00,0.0157
934.00,0.0160
933.00,0.0160
932.00,0.0159
931.00,0.0157
930.00,0.0154
929.00,0.0153
928.00,0.0151
927.00,0.0150
926.00,0.0148
925.00,0.0147
924.00,0.0146
923.00,0.0145
922.00,0.0144
921.00,0.0143
920.00,0.0142
919.00,0.0141
918.00,0.0140
917.00,0.0140
916.00,0.0140
915.00,0.0140
914.00,0.0140
913.00,0.0139
912.00,0.0138
911.00,0.0137
910.00,0.0138
909.00,0.0139
908.00,0.0142
907.00,0.0146
906.00,0.0150
905.00,0.0156
904.00,0.0163
903.00,0.0171
902.00,0.0181
901.00,0.0193
900.00,0.0207
899.00,0.0222
898.00,0.0238
897.00,0.0250
896.00,0.0255
895.00,0.0254
894.00,0.0247
893.00,0.0237
892.00,0.0227
891.00,0.0218
890.00,0.0212
889.00,0.0209
888.00,0.0211
887.00,0.0218
886.00,0.0229
885.00,0.0244
884.00,0.0257
883.00,0.0263
882.00,0.0260
881.00,0.0248
880.00,0.0232
879.00,0.0215
878.00,0.0201
877.00,0.0190
876.00,0.0183
875.00,0.0179
874.00,0.0177
873.00,0.0177
872.00,0.0179
871.00,0.0183
870.00,0.0186
869.00,0.0187
868.00,0.0187
867.00,0.0187
866.00,0.0188
865.00,0.0192
864.00,0.0198
863.00,0.0206
862.00,0.0214
861.00,0.0220
860.00,0.0224
859.00,0.0225
858.00,0.0226
857.00,0.0229
856.00,0.0234
855.00,0.0240
854.00,0.0247
853.00,0.0255
852.00,0.0263
851.00,0.0269
850.00,0.0274
849.00,0.0276
848.00,0.0276
847.00,0.0275
846.00,0.0274
845.00,0.0273
844.00,0.0272
843.00,0.0271
842.00,0.0269
841.00,0.0265
840.00,0.0261
839.00,0.0256
838.00,0.0252
837.00,0.0248
836.00,0.0247
835.00,0.0246
834.00,0.0246
833.00,0.0247
832.00,0.0247
831.00,0.0247
830.00,0.0247
829.00,0.0247
828.00,0.0246
827.00,0.0244
826.00,0.0241
825.00,0.0236
824.00,0.0230
823.00,0.0223
822.00,0.0216
821.00,0.0210
820.00,0.0204
819.00,0.0199
818.00,0.0194
817.00,0.0191
816.00,0.0189
815.00,0.0188
814.00,0.0187
813.00,0.0186
812.00,0.0185
811.00,0.0185
810.00,0.0185
809.00,0.0188
808.00,0.0194
807.00,0.0202
806.00,0.0211
805.00,0.0220
804.00,0.0225
803.00,0.0224
802.00,0.0219
801.00,0.0213
800.00,0.0207
799.00,0.0203
798.00,0.0200
797.00,0.0198
796.00,0.0197
795.00,0.0196
794.00,0.0196
793.00,0.0196
792.00,0.0196
791.00,0.0196
790.00,0.0197
789.00,0.0198
788.00,0.0199
787.00,0.0201
786.00,0.0202
785.00,0.0203
784.00,0.0204
783.00,0.0204
782.00,0.0204
781.00,0.0203
780.00,0.0203
779.00,0.0204
778.00,0.0205
777.00,0.0206
776.00,0.0208
775.00,0.0209
774.00,0.0211
773.00,0.0213
772.00,0.0214
771.00,0.0216
770.00,0.0219
769.00,0.0221
768.00,0.0223
767.00,0.0225
766.00,0.0227
765.00,0.0229
764.00,0.0231
763.00,0.0234
762.00,0.0237
761.00,0.0241
760.00,0.0244
759.00,0.0247
758.00,0.0251
757.00,0.0255
756.00,0.0260
755.00,0.0265
754.00,0.0272
753.00,0.0278
752.00,0.0284
751.00,0.0290
750.00,0.0295
749.00,0.0300
748.00,0.0304
747.00,0.0306
746.00,0.0308
745.00,0.0309
744.00,0.0310
743.00,0.0312
742.00,0.0315
741.00,0.0318
740.00,0.0321
739.00,0.0325
738.00,0.0328
737.00,0.0332
736.00,0.0335
735.00,0.0338
734.00,0.0341
733.00,0.0343
732.00,0.0344
731.00,0.0344
730.00,0.0341
729.00,0.0337
728.00,0.0332
727.00,0.0327
726.00,0.0323
725.00,0.0320
724.00,0.0317
723.00,0.0315
722.00,0.0313
721.00,0.0311
720.00,0.0309
719.00,0.0309
718.00,0.0308
717.00,0.0307
716.00,0.0306
715.00,0.0305
714.00,0.0304
713.00,0.0304
712.00,0.0304
711.00,0.0304
710.00,0.0304
709.00,0.0305
708.00,0.0305
707.00,0.0306
706.00,0.0307
705.00,0.0308
704.00,0.0308
703.00,0.0310
702.00,0.0311
701.00,0.0313
700.00,0.0314
699.00,0.0316
698.00,0.0318
697.00,0.0320
696.00,0.0322
695.00,0.0324
694.00,0.0326
693.00,0.0329
692.00,0.0331
691.00,0.0332
690.00,0.0335
689.00,0.0337
688.00,0.0340
687.00,0.0343
686.00,0.0347
685.00,0.0350
684.00,0.0353
683.00,0.0357
682.00,0.0360
681.00,0.0362
680.00,0.0365
679.00,0.0367
678.00,0.0370
677.00,0.0374
676.00,0.0377
675.00,0.0382
674.00,0.0387
673.00,0.0392
672.00,0.0397
671.00,0.0402
670.00,0.0407
669.00,0.0412
668.00,0.0416
667.00,0.0421
666.00,0.0427
665.00,0.0433
664.00,0.0439
663.00,0.0445
662.00,0.0452
661.00,0.0458
660.00,0.0465
659.00,0.0473
658.00,0.0481
657.00,0.0488
656.00,0.0496
655.00,0.0502
654.00,0.0508
653.00,0.0514
652.00,0.0520
651.00,0.0527
650.00,0.0533
649.00,0.0538
648.00,0.0542
647.00,0.0543
646.00,0.0542
645.00,0.0539
644.00,0.0535
643.00,0.0531
642.00,0.0527
641.00,0.0523
640.00,0.0519
639.00,0.0515
638.00,0.0511
637.00,0.0508
636.00,0.0506
635.00,0.0503
634.00,0.0500
633.00,0.0496
632.00,0.0494
631.00,0.0492
630.00,0.0491
629.00,0.0491
628.00,0.0490
627.00,0.0489
626.00,0.0488
625.00,0.0486
624.00,0.0485
623.00,0.0484
622.00,0.0484
621.00,0.0483
620.00,0.0481
619.00,0.0479
618.00,0.0477
617.00,0.0476
616.00,0.0476
615.00,0.0477
614.00,0.0481
613.00,0.0485
612.00,0.0488
611.00,0.0489
610.00,0.0489
609.00,0.0487
608.00,0.0486
607.00,0.0486
606.00,0.0488
605.00,0.0489
604.00,0.0491
603.00,0.0492
602.00,0.0494
601.00,0.0497
600.00,0.0500
599.00,0.0503
598.00,0.0504
597.00,0.0506
596.00,0.0507
595.00,0.0511
594.00,0.0515
593.00,0.0521
592.00,0.0526
591.00,0.0532
590.00,0.0539
589.00,0.0546
588.00,0.0554
587.00,0.0561
586.00,0.0567
585.00,0.0572
584.00,0.0577
583.00,0.0581
582.00,0.0584
581.00,0.0588
580.00,0.0592
579.00,0.0596
578.00,0.0599
577.00,0.0603
576.00,0.0606
575.00,0.0609
574.00,0.0612
573.00,0.0615
572.00,0.0617
571.00,0.0618
570.00,0.0619
569.00,0.0620
568.00,0.0621
567.00,0.0620
566.00,0.0618
565.00,0.0616
564.00,0.0613
563.00,0.0610
562.00,0.0608
561.00,0.0605
560.00,0.0601
559.00,0.0598
558.00,0.0595
557.00,0.0593
556.00,0.0592
555.00,0.0591
554.00,0.0590
553.00,0.0590
552.00,0.0591
551.00,0.0591
550.00,0.0590
549.00,0.0588
548.00,0.0587
547.00,0.0587
546.00,0.0587
545.00,0.0589
544.00,0.0592
543.00,0.0594
542.00,0.0594
541.00,0.0595
540.00,0.0596
539.00,0.0598
538.00,0.0601
537.00,0.0604
536.00,0.0606
535.00,0.0607
534.00,0.0605
533.00,0.0604
532.00,0.0603
531.00,0.0602
530.00,0.0600
529.00,0.0600
528.00,0.0601
527.00,0.0604
526.00,0.0609
525.00,0.0615
524.00,0.0623
523.00,0.0630
522.00,0.0635
521.00,0.0635
520.00,0.0631
519.00,0.0623
518.00,0.0615
517.00,0.0607
516.00,0.0601
515.00,0.0596
514.00,0.0592
513.00,0.0589
512.00,0.0588
511.00,0.0589
510.00,0.0590
509.00,0.0593
508.00,0.0596
507.00,0.0599
506.00,0.0602
505.00,0.0606
504.00,0.0612
503.00,0.0619
502.00,0.0624
501.00,0.0628
500.00,0.0632
499.00,0.0636
498.00,0.0641
497.00,0.0647
496.00,0.0651
495.00,0.0653
494.00,0.0653
493.00,0.0654
492.00,0.0654
491.00,0.0656
490.00,0.0657
489.00,0.0659
488.00,0.0660
487.00,0.0661
486.00,0.0663
485.00,0.0665
484.00,0.0667
483.00,0.0667
482.00,0.0663
481.00,0.0659
480.00,0.0656
479.00,0.0654
478.00,0.0652
477.00,0.0650
476.00,0.0650
475.00,0.0652
474.00,0.0654
473.00,0.0657
472.00,0.0660
471.00,0.0661
470.00,0.0661
469.00,0.0661
468.00,0.0662
467.00,0.0663
466.00,0.0662
465.00,0.0659
464.00,0.0656
463.00,0.0651
462.00,0.0646
461.00,0.0644
460.00,0.0644
459.00,0.0644
458.00,0.0641
457.00,0.0638
456.00,0.0636
455.00,0.0635
454.00,0.0633
453.00,0.0629
452.00,0.0625
451.00,0.0621
450.00,0.0618
449.00,0.0615
448.00,0.0611
447.00,0.0607
446.00,0.0604
445.00,0.0602
444.00,0.0601
443.00,0.0598
442.00,0.0592
441.00,0.0587
440.00,0.0583
439.00,0.0581
438.00,0.0578
437.00,0.0575
436.00,0.0573
435.00,0.0572
434.00,0.0571
433.00,0.0567
432.00,0.0563
431.00,0.0561
430.00,0.0561
429.00,0.0566
428.00,0.0573
427.00,0.0579
426.00,0.0581
425.00,0.0579
424.00,0.0575
423.00,0.0571
422.00,0.0568
421.00,0.0567
420.00,0.0562
419.00,0.0552
418.00,0.0543
417.00,0.0544
416.00,0.0550
415.00,0.0554
414.00,0.0552
413.00,0.0548
412.00,0.0548
411.00,0.0550
410.00,0.0548
409.00,0.0542
408.00,0.0537
407.00,0.0537
406.00,0.0543
405.00,0.0552
404.00,0.0564
403.00,0.0576
402.00,0.0584
401.00,0.0585
400.00,0.0579
