Created as New Dataset,Sample 917 By YargerLab Date Thursday, July 24 2025
cm-1,A
4000.00,0.0006
3999.00,0.0006
3998.00,0.0006
3997.00,0.0006
3996.00,0.0006
3995.00,0.0006
3994.00,0.0006
3993.00,0.0006
3992.00,0.0006
3991.00,0.0006
3990.00,0.0006
3989.00,0.0006
3988.00,0.0006
3987.00,0.0006
3986.00,0.0006
3985.00,0.0006
3984.00,0.0006
3983.00,0.0006
3982.00,0.0006
3981.00,0.0006
3980.00,0.0006
3979.00,0.0006
3978.00,0.0006
3977.00,0.0006
3976.00,0.0006
3975.00,0.0006
3974.00,0.0006
3973.00,0.0006
3972.00,0.0006
3971.00,0.0006
3970.00,0.0006
3969.00,0.0005
3968.00,0.0005
3967.00,0.0005
3966.00,0.0006
3965.00,0.0006
3964.00,0.0006
3963.00,0.0006
3962.00,0.0006
3961.00,0.0006
3960.00,0.0006
3959.00,0.0006
3958.00,0.0006
3957.00,0.0005
3956.00,0.0005
3955.00,0.0005
3954.00,0.0005
3953.00,0.0005
3952.00,0.0005
3951.00,0.0005
3950.00,0.0005
3949.00,0.0005
3948.00,0.0005
3947.00,0.0005
3946.00,0.0005
3945.00,0.0005
3944.00,0.0005
3943.00,0.0005
3942.00,0.0005
3941.00,0.0005
3940.00,0.0005
3939.00,0.0005
3938.00,0.0005
3937.00,0.0005
3936.00,0.0006
3935.00,0.0006
3934.00,0.0006
3933.00,0.0005
3932.00,0.0005
3931.00,0.0005
3930.00,0.0005
3929.00,0.0005
3928.00,0.0005
3927.00,0.0005
3926.00,0.0005
3925.00,0.0005
3924.00,0.0005
3923.00,0.0005
3922.00,0.0005
3921.00,0.0005
3920.00,0.0005
3919.00,0.0005
3918.00,0.0005
3917.00,0.0005
3916.00,0.0005
3915.00,0.0006
3914.00,0.0006
3913.00,0.0006
3912.00,0.0006
3911.00,0.0006
3910.00,0.0005
3909.00,0.0005
3908.00,0.0005
3907.00,0.0005
3906.00,0.0004
3905.00,0.0004
3904.00,0.0004
3903.00,0.0004
3902.00,0.0005
3901.00,0.0005
3900.00,0.0005
3899.00,0.0005
3898.00,0.0005
3897.00,0.0005
3896.00,0.0005
3895.00,0.0005
3894.00,0.0005
3893.00,0.0005
3892.00,0.0005
3891.00,0.0005
3890.00,0.0005
3889.00,0.0005
3888.00,0.0005
3887.00,0.0004
3886.00,0.0004
3885.00,0.0004
3884.00,0.0004
3883.00,0.0004
3882.00,0.0004
3881.00,0.0004
3880.00,0.0004
3879.00,0.0005
3878.00,0.0005
3877.00,0.0005
3876.00,0.0005
3875.00,0.0005
3874.00,0.0005
3873.00,0.0005
3872.00,0.0005
3871.00,0.0005
3870.00,0.0004
3869.00,0.0004
3868.00,0.0004
3867.00,0.0004
3866.00,0.0004
3865.00,0.0004
3864.00,0.0004
3863.00,0.0004
3862.00,0.0004
3861.00,0.0004
3860.00,0.0005
3859.00,0.0005
3858.00,0.0005
3857.00,0.0005
3856.00,0.0005
3855.00,0.0005
3854.00,0.0004
3853.00,0.0004
3852.00,0.0004
3851.00,0.0004
3850.00,0.0004
3849.00,0.0004
3848.00,0.0005
3847.00,0.0005
3846.00,0.0005
3845.00,0.0005
3844.00,0.0005
3843.00,0.0005
3842.00,0.0005
3841.00,0.0005
3840.00,0.0004
3839.00,0.0004
3838.00,0.0004
3837.00,0.0004
3836.00,0.0004
3835.00,0.0005
3834.00,0.0005
3833.00,0.0005
3832.00,0.0005
3831.00,0.0005
3830.00,0.0005
3829.00,0.0005
3828.00,0.0005
3827.00,0.0005
3826.00,0.0005
3825.00,0.0005
3824.00,0.0005
3823.00,0.0005
3822.00,0.0005
3821.00,0.0005
3820.00,0.0006
3819.00,0.0006
3818.00,0.0006
3817.00,0.0006
3816.00,0.0006
3815.00,0.0006
3814.00,0.0006
3813.00,0.0006
3812.00,0.0006
3811.00,0.0006
3810.00,0.0006
3809.00,0.0006
3808.00,0.0006
3807.00,0.0005
3806.00,0.0005
3805.00,0.0005
3804.00,0.0005
3803.00,0.0005
3802.00,0.0005
3801.00,0.0005
3800.00,0.0006
3799.00,0.0006
3798.00,0.0006
3797.00,0.0006
3796.00,0.0006
3795.00,0.0006
3794.00,0.0006
3793.00,0.0006
3792.00,0.0006
3791.00,0.0006
3790.00,0.0006
3789.00,0.0006
3788.00,0.0006
3787.00,0.0006
3786.00,0.0006
3785.00,0.0006
3784.00,0.0006
3783.00,0.0007
3782.00,0.0007
3781.00,0.0007
3780.00,0.0007
3779.00,0.0007
3778.00,0.0007
3777.00,0.0007
3776.00,0.0007
3775.00,0.0007
3774.00,0.0007
3773.00,0.0007
3772.00,0.0006
3771.00,0.0006
3770.00,0.0006
3769.00,0.0007
3768.00,0.0007
3767.00,0.0007
3766.00,0.0007
3765.00,0.0006
3764.00,0.0006
3763.00,0.0006
3762.00,0.0006
3761.00,0.0005
3760.00,0.0005
3759.00,0.0005
3758.00,0.0005
3757.00,0.0005
3756.00,0.0005
3755.00,0.0005
3754.00,0.0005
3753.00,0.0005
3752.00,0.0005
3751.00,0.0005
3750.00,0.0005
3749.00,0.0005
3748.00,0.0005
3747.00,0.0005
3746.00,0.0005
3745.00,0.0005
3744.00,0.0005
3743.00,0.0005
3742.00,0.0004
3741.00,0.0004
3740.00,0.0004
3739.00,0.0004
3738.00,0.0004
3737.00,0.0004
3736.00,0.0004
3735.00,0.0004
3734.00,0.0004
3733.00,0.0005
3732.00,0.0005
3731.00,0.0004
3730.00,0.0005
3729.00,0.0005
3728.00,0.0005
3727.00,0.0005
3726.00,0.0005
3725.00,0.0004
3724.00,0.0004
3723.00,0.0005
3722.00,0.0005
3721.00,0.0005
3720.00,0.0005
3719.00,0.0005
3718.00,0.0005
3717.00,0.0005
3716.00,0.0005
3715.00,0.0004
3714.00,0.0004
3713.00,0.0004
3712.00,0.0004
3711.00,0.0004
3710.00,0.0005
3709.00,0.0005
3708.00,0.0005
3707.00,0.0005
3706.00,0.0005
3705.00,0.0005
3704.00,0.0005
3703.00,0.0005
3702.00,0.0005
3701.00,0.0005
3700.00,0.0005
3699.00,0.0005
3698.00,0.0005
3697.00,0.0005
3696.00,0.0005
3695.00,0.0005
3694.00,0.0005
3693.00,0.0005
3692.00,0.0005
3691.00,0.0004
3690.00,0.0004
3689.00,0.0004
3688.00,0.0004
3687.00,0.0004
3686.00,0.0004
3685.00,0.0005
3684.00,0.0005
3683.00,0.0005
3682.00,0.0005
3681.00,0.0005
3680.00,0.0005
3679.00,0.0005
3678.00,0.0005
3677.00,0.0004
3676.00,0.0004
3675.00,0.0004
3674.00,0.0004
3673.00,0.0004
3672.00,0.0004
3671.00,0.0004
3670.00,0.0004
3669.00,0.0004
3668.00,0.0004
3667.00,0.0004
3666.00,0.0004
3665.00,0.0004
3664.00,0.0004
3663.00,0.0004
3662.00,0.0005
3661.00,0.0005
3660.00,0.0005
3659.00,0.0005
3658.00,0.0005
3657.00,0.0005
3656.00,0.0005
3655.00,0.0005
3654.00,0.0005
3653.00,0.0005
3652.00,0.0005
3651.00,0.0005
3650.00,0.0005
3649.00,0.0005
3648.00,0.0005
3647.00,0.0005
3646.00,0.0005
3645.00,0.0005
3644.00,0.0005
3643.00,0.0005
3642.00,0.0005
3641.00,0.0005
3640.00,0.0005
3639.00,0.0005
3638.00,0.0005
3637.00,0.0005
3636.00,0.0005
3635.00,0.0004
3634.00,0.0004
3633.00,0.0004
3632.00,0.0005
3631.00,0.0004
3630.00,0.0004
3629.00,0.0004
3628.00,0.0004
3627.00,0.0004
3626.00,0.0004
3625.00,0.0004
3624.00,0.0005
3623.00,0.0005
3622.00,0.0005
3621.00,0.0005
3620.00,0.0005
3619.00,0.0005
3618.00,0.0005
3617.00,0.0005
3616.00,0.0005
3615.00,0.0005
3614.00,0.0005
3613.00,0.0005
3612.00,0.0005
3611.00,0.0005
3610.00,0.0005
3609.00,0.0005
3608.00,0.0005
3607.00,0.0005
3606.00,0.0005
3605.00,0.0005
3604.00,0.0005
3603.00,0.0005
3602.00,0.0006
3601.00,0.0006
3600.00,0.0005
3599.00,0.0005
3598.00,0.0005
3597.00,0.0005
3596.00,0.0006
3595.00,0.0006
3594.00,0.0006
3593.00,0.0006
3592.00,0.0006
3591.00,0.0005
3590.00,0.0005
3589.00,0.0005
3588.00,0.0005
3587.00,0.0005
3586.00,0.0005
3585.00,0.0006
3584.00,0.0006
3583.00,0.0006
3582.00,0.0006
3581.00,0.0006
3580.00,0.0006
3579.00,0.0006
3578.00,0.0006
3577.00,0.0006
3576.00,0.0006
3575.00,0.0007
3574.00,0.0007
3573.00,0.0007
3572.00,0.0007
3571.00,0.0007
3570.00,0.0006
3569.00,0.0006
3568.00,0.0005
3567.00,0.0005
3566.00,0.0005
3565.00,0.0005
3564.00,0.0006
3563.00,0.0006
3562.00,0.0006
3561.00,0.0007
3560.00,0.0007
3559.00,0.0007
3558.00,0.0007
3557.00,0.0007
3556.00,0.0007
3555.00,0.0007
3554.00,0.0007
3553.00,0.0007
3552.00,0.0007
3551.00,0.0007
3550.00,0.0007
3549.00,0.0007
3548.00,0.0007
3547.00,0.0007
3546.00,0.0007
3545.00,0.0007
3544.00,0.0007
3543.00,0.0007
3542.00,0.0008
3541.00,0.0008
3540.00,0.0008
3539.00,0.0008
3538.00,0.0008
3537.00,0.0008
3536.00,0.0008
3535.00,0.0008
3534.00,0.0008
3533.00,0.0008
3532.00,0.0008
3531.00,0.0008
3530.00,0.0008
3529.00,0.0007
3528.00,0.0007
3527.00,0.0007
3526.00,0.0007
3525.00,0.0008
3524.00,0.0008
3523.00,0.0009
3522.00,0.0009
3521.00,0.0009
3520.00,0.0009
3519.00,0.0009
3518.00,0.0009
3517.00,0.0009
3516.00,0.0009
3515.00,0.0009
3514.00,0.0009
3513.00,0.0009
3512.00,0.0009
3511.00,0.0009
3510.00,0.0009
3509.00,0.0009
3508.00,0.0009
3507.00,0.0009
3506.00,0.0009
3505.00,0.0009
3504.00,0.0009
3503.00,0.0009
3502.00,0.0009
3501.00,0.0009
3500.00,0.0009
3499.00,0.0009
3498.00,0.0009
3497.00,0.0009
3496.00,0.0009
3495.00,0.0009
3494.00,0.0010
3493.00,0.0010
3492.00,0.0010
3491.00,0.0010
3490.00,0.0010
3489.00,0.0011
3488.00,0.0011
3487.00,0.0011
3486.00,0.0011
3485.00,0.0011
3484.00,0.0011
3483.00,0.0011
3482.00,0.0010
3481.00,0.0010
3480.00,0.0010
3479.00,0.0010
3478.00,0.0010
3477.00,0.0011
3476.00,0.0011
3475.00,0.0011
3474.00,0.0011
3473.00,0.0011
3472.00,0.0011
3471.00,0.0011
3470.00,0.0011
3469.00,0.0011
3468.00,0.0011
3467.00,0.0011
3466.00,0.0011
3465.00,0.0011
3464.00,0.0011
3463.00,0.0011
3462.00,0.0011
3461.00,0.0011
3460.00,0.0011
3459.00,0.0011
3458.00,0.0011
3457.00,0.0011
3456.00,0.0011
3455.00,0.0011
3454.00,0.0011
3453.00,0.0012
3452.00,0.0012
3451.00,0.0012
3450.00,0.0011
3449.00,0.0011
3448.00,0.0011
3447.00,0.0011
3446.00,0.0011
3445.00,0.0011
3444.00,0.0011
3443.00,0.0011
3442.00,0.0011
3441.00,0.0011
3440.00,0.0011
3439.00,0.0011
3438.00,0.0012
3437.00,0.0012
3436.00,0.0012
3435.00,0.0012
3434.00,0.0012
3433.00,0.0012
3432.00,0.0012
3431.00,0.0012
3430.00,0.0012
3429.00,0.0012
3428.00,0.0012
3427.00,0.0012
3426.00,0.0012
3425.00,0.0011
3424.00,0.0011
3423.00,0.0011
3422.00,0.0011
3421.00,0.0011
3420.00,0.0011
3419.00,0.0011
3418.00,0.0011
3417.00,0.0011
3416.00,0.0011
3415.00,0.0012
3414.00,0.0012
3413.00,0.0012
3412.00,0.0011
3411.00,0.0011
3410.00,0.0011
3409.00,0.0011
3408.00,0.0011
3407.00,0.0011
3406.00,0.0012
3405.00,0.0012
3404.00,0.0012
3403.00,0.0011
3402.00,0.0011
3401.00,0.0011
3400.00,0.0011
3399.00,0.0011
3398.00,0.0011
3397.00,0.0011
3396.00,0.0012
3395.00,0.0012
3394.00,0.0012
3393.00,0.0012
3392.00,0.0012
3391.00,0.0012
3390.00,0.0012
3389.00,0.0012
3388.00,0.0011
3387.00,0.0011
3386.00,0.0011
3385.00,0.0012
3384.00,0.0012
3383.00,0.0012
3382.00,0.0012
3381.00,0.0012
3380.00,0.0012
3379.00,0.0012
3378.00,0.0011
3377.00,0.0011
3376.00,0.0012
3375.00,0.0012
3374.00,0.0012
3373.00,0.0012
3372.00,0.0012
3371.00,0.0012
3370.00,0.0012
3369.00,0.0012
3368.00,0.0012
3367.00,0.0012
3366.00,0.0012
3365.00,0.0012
3364.00,0.0012
3363.00,0.0012
3362.00,0.0011
3361.00,0.0011
3360.00,0.0011
3359.00,0.0011
3358.00,0.0012
3357.00,0.0012
3356.00,0.0012
3355.00,0.0012
3354.00,0.0012
3353.00,0.0012
3352.00,0.0012
3351.00,0.0012
3350.00,0.0012
3349.00,0.0012
3348.00,0.0012
3347.00,0.0012
3346.00,0.0012
3345.00,0.0012
3344.00,0.0012
3343.00,0.0011
3342.00,0.0011
3341.00,0.0011
3340.00,0.0012
3339.00,0.0012
3338.00,0.0012
3337.00,0.0012
3336.00,0.0012
3335.00,0.0012
3334.00,0.0012
3333.00,0.0012
3332.00,0.0012
3331.00,0.0012
3330.00,0.0012
3329.00,0.0012
3328.00,0.0012
3327.00,0.0012
3326.00,0.0012
3325.00,0.0012
3324.00,0.0012
3323.00,0.0012
3322.00,0.0012
3321.00,0.0012
3320.00,0.0012
3319.00,0.0012
3318.00,0.0012
3317.00,0.0012
3316.00,0.0012
3315.00,0.0012
3314.00,0.0012
3313.00,0.0012
3312.00,0.0012
3311.00,0.0012
3310.00,0.0012
3309.00,0.0012
3308.00,0.0012
3307.00,0.0012
3306.00,0.0012
3305.00,0.0011
3304.00,0.0012
3303.00,0.0012
3302.00,0.0012
3301.00,0.0012
3300.00,0.0012
3299.00,0.0012
3298.00,0.0012
3297.00,0.0012
3296.00,0.0012
3295.00,0.0012
3294.00,0.0012
3293.00,0.0012
3292.00,0.0012
3291.00,0.0011
3290.00,0.0011
3289.00,0.0011
3288.00,0.0011
3287.00,0.0011
3286.00,0.0011
3285.00,0.0011
3284.00,0.0012
3283.00,0.0012
3282.00,0.0011
3281.00,0.0011
3280.00,0.0011
3279.00,0.0011
3278.00,0.0011
3277.00,0.0011
3276.00,0.0012
3275.00,0.0011
3274.00,0.0011
3273.00,0.0011
3272.00,0.0011
3271.00,0.0011
3270.00,0.0011
3269.00,0.0011
3268.00,0.0011
3267.00,0.0011
3266.00,0.0011
3265.00,0.0011
3264.00,0.0011
3263.00,0.0011
3262.00,0.0011
3261.00,0.0011
3260.00,0.0011
3259.00,0.0011
3258.00,0.0011
3257.00,0.0011
3256.00,0.0011
3255.00,0.0011
3254.00,0.0010
3253.00,0.0010
3252.00,0.0010
3251.00,0.0010
3250.00,0.0011
3249.00,0.0011
3248.00,0.0011
3247.00,0.0011
3246.00,0.0011
3245.00,0.0010
3244.00,0.0010
3243.00,0.0010
3242.00,0.0010
3241.00,0.0010
3240.00,0.0010
3239.00,0.0010
3238.00,0.0010
3237.00,0.0010
3236.00,0.0011
3235.00,0.0011
3234.00,0.0011
3233.00,0.0011
3232.00,0.0010
3231.00,0.0010
3230.00,0.0010
3229.00,0.0010
3228.00,0.0010
3227.00,0.0010
3226.00,0.0010
3225.00,0.0010
3224.00,0.0010
3223.00,0.0010
3222.00,0.0010
3221.00,0.0010
3220.00,0.0010
3219.00,0.0010
3218.00,0.0010
3217.00,0.0010
3216.00,0.0010
3215.00,0.0010
3214.00,0.0010
3213.00,0.0010
3212.00,0.0011
3211.00,0.0011
3210.00,0.0011
3209.00,0.0011
3208.00,0.0011
3207.00,0.0011
3206.00,0.0011
3205.00,0.0011
3204.00,0.0011
3203.00,0.0011
3202.00,0.0011
3201.00,0.0011
3200.00,0.0011
3199.00,0.0011
3198.00,0.0010
3197.00,0.0010
3196.00,0.0010
3195.00,0.0010
3194.00,0.0011
3193.00,0.0011
3192.00,0.0011
3191.00,0.0011
3190.00,0.0010
3189.00,0.0010
3188.00,0.0010
3187.00,0.0010
3186.00,0.0010
3185.00,0.0010
3184.00,0.0010
3183.00,0.0010
3182.00,0.0010
3181.00,0.0010
3180.00,0.0010
3179.00,0.0010
3178.00,0.0010
3177.00,0.0010
3176.00,0.0009
3175.00,0.0009
3174.00,0.0009
3173.00,0.0009
3172.00,0.0009
3171.00,0.0010
3170.00,0.0010
3169.00,0.0010
3168.00,0.0010
3167.00,0.0011
3166.00,0.0011
3165.00,0.0011
3164.00,0.0012
3163.00,0.0012
3162.00,0.0011
3161.00,0.0011
3160.00,0.0011
3159.00,0.0011
3158.00,0.0011
3157.00,0.0011
3156.00,0.0010
3155.00,0.0010
3154.00,0.0010
3153.00,0.0010
3152.00,0.0010
3151.00,0.0010
3150.00,0.0010
3149.00,0.0010
3148.00,0.0010
3147.00,0.0009
3146.00,0.0009
3145.00,0.0009
3144.00,0.0009
3143.00,0.0009
3142.00,0.0009
3141.00,0.0009
3140.00,0.0009
3139.00,0.0009
3138.00,0.0009
3137.00,0.0009
3136.00,0.0009
3135.00,0.0009
3134.00,0.0009
3133.00,0.0009
3132.00,0.0009
3131.00,0.0009
3130.00,0.0009
3129.00,0.0009
3128.00,0.0010
3127.00,0.0010
3126.00,0.0010
3125.00,0.0010
3124.00,0.0010
3123.00,0.0010
3122.00,0.0010
3121.00,0.0011
3120.00,0.0011
3119.00,0.0011
3118.00,0.0012
3117.00,0.0013
3116.00,0.0014
3115.00,0.0014
3114.00,0.0015
3113.00,0.0017
3112.00,0.0018
3111.00,0.0020
3110.00,0.0021
3109.00,0.0024
3108.00,0.0026
3107.00,0.0028
3106.00,0.0030
3105.00,0.0031
3104.00,0.0032
3103.00,0.0032
3102.00,0.0032
3101.00,0.0031
3100.00,0.0030
3099.00,0.0030
3098.00,0.0029
3097.00,0.0029
3096.00,0.0030
3095.00,0.0031
3094.00,0.0032
3093.00,0.0035
3092.00,0.0038
3091.00,0.0042
3090.00,0.0046
3089.00,0.0052
3088.00,0.0058
3087.00,0.0064
3086.00,0.0070
3085.00,0.0076
3084.00,0.0080
3083.00,0.0082
3082.00,0.0082
3081.00,0.0081
3080.00,0.0078
3079.00,0.0074
3078.00,0.0070
3077.00,0.0066
3076.00,0.0063
3075.00,0.0061
3074.00,0.0060
3073.00,0.0060
3072.00,0.0061
3071.00,0.0063
3070.00,0.0066
3069.00,0.0070
3068.00,0.0074
3067.00,0.0080
3066.00,0.0086
3065.00,0.0093
3064.00,0.0099
3063.00,0.0106
3062.00,0.0111
3061.00,0.0114
3060.00,0.0115
3059.00,0.0114
3058.00,0.0111
3057.00,0.0107
3056.00,0.0101
3055.00,0.0095
3054.00,0.0088
3053.00,0.0082
3052.00,0.0076
3051.00,0.0071
3050.00,0.0067
3049.00,0.0063
3048.00,0.0061
3047.00,0.0059
3046.00,0.0058
3045.00,0.0058
3044.00,0.0059
3043.00,0.0061
3042.00,0.0063
3041.00,0.0066
3040.00,0.0069
3039.00,0.0074
3038.00,0.0080
3037.00,0.0087
3036.00,0.0096
3035.00,0.0106
3034.00,0.0118
3033.00,0.0131
3032.00,0.0145
3031.00,0.0161
3030.00,0.0177
3029.00,0.0192
3028.00,0.0205
3027.00,0.0216
3026.00,0.0221
3025.00,0.0222
3024.00,0.0216
3023.00,0.0205
3022.00,0.0190
3021.00,0.0172
3020.00,0.0153
3019.00,0.0134
3018.00,0.0117
3017.00,0.0103
3016.00,0.0090
3015.00,0.0080
3014.00,0.0072
3013.00,0.0065
3012.00,0.0060
3011.00,0.0057
3010.00,0.0054
3009.00,0.0053
3008.00,0.0053
3007.00,0.0054
3006.00,0.0055
3005.00,0.0057
3004.00,0.0059
3003.00,0.0060
3002.00,0.0060
3001.00,0.0060
3000.00,0.0058
2999.00,0.0055
2998.00,0.0051
2997.00,0.0047
2996.00,0.0043
2995.00,0.0039
2994.00,0.0036
2993.00,0.0033
2992.00,0.0031
2991.00,0.0030
2990.00,0.0029
2989.00,0.0029
2988.00,0.0028
2987.00,0.0028
2986.00,0.0027
2985.00,0.0027
2984.00,0.0026
2983.00,0.0026
2982.00,0.0026
2981.00,0.0026
2980.00,0.0027
2979.00,0.0028
2978.00,0.0029
2977.00,0.0030
2976.00,0.0031
2975.00,0.0032
2974.00,0.0032
2973.00,0.0033
2972.00,0.0034
2971.00,0.0035
2970.00,0.0036
2969.00,0.0038
2968.00,0.0040
2967.00,0.0041
2966.00,0.0043
2965.00,0.0044
2964.00,0.0046
2963.00,0.0048
2962.00,0.0050
2961.00,0.0052
2960.00,0.0054
2959.00,0.0056
2958.00,0.0059
2957.00,0.0061
2956.00,0.0063
2955.00,0.0066
2954.00,0.0069
2953.00,0.0073
2952.00,0.0076
2951.00,0.0080
2950.00,0.0084
2949.00,0.0089
2948.00,0.0094
2947.00,0.0099
2946.00,0.0105
2945.00,0.0111
2944.00,0.0117
2943.00,0.0124
2942.00,0.0131
2941.00,0.0139
2940.00,0.0146
2939.00,0.0155
2938.00,0.0163
2937.00,0.0172
2936.00,0.0182
2935.00,0.0191
2934.00,0.0202
2933.00,0.0211
2932.00,0.0221
2931.00,0.0230
2930.00,0.0239
2929.00,0.0247
2928.00,0.0254
2927.00,0.0260
2926.00,0.0266
2925.00,0.0270
2924.00,0.0273
2923.00,0.0275
2922.00,0.0276
2921.00,0.0275
2920.00,0.0274
2919.00,0.0272
2918.00,0.0269
2917.00,0.0265
2916.00,0.0260
2915.00,0.0255
2914.00,0.0249
2913.00,0.0243
2912.00,0.0237
2911.00,0.0230
2910.00,0.0223
2909.00,0.0216
2908.00,0.0209
2907.00,0.0202
2906.00,0.0195
2905.00,0.0189
2904.00,0.0182
2903.00,0.0175
2902.00,0.0168
2901.00,0.0160
2900.00,0.0153
2899.00,0.0147
2898.00,0.0140
2897.00,0.0135
2896.00,0.0130
2895.00,0.0125
2894.00,0.0120
2893.00,0.0116
2892.00,0.0112
2891.00,0.0109
2890.00,0.0105
2889.00,0.0103
2888.00,0.0100
2887.00,0.0097
2886.00,0.0095
2885.00,0.0092
2884.00,0.0090
2883.00,0.0088
2882.00,0.0086
2881.00,0.0084
2880.00,0.0082
2879.00,0.0080
2878.00,0.0079
2877.00,0.0077
2876.00,0.0075
2875.00,0.0074
2874.00,0.0072
2873.00,0.0071
2872.00,0.0071
2871.00,0.0070
2870.00,0.0070
2869.00,0.0070
2868.00,0.0070
2867.00,0.0071
2866.00,0.0072
2865.00,0.0073
2864.00,0.0075
2863.00,0.0078
2862.00,0.0081
2861.00,0.0085
2860.00,0.0089
2859.00,0.0093
2858.00,0.0097
2857.00,0.0101
2856.00,0.0106
2855.00,0.0110
2854.00,0.0113
2853.00,0.0116
2852.00,0.0119
2851.00,0.0121
2850.00,0.0121
2849.00,0.0121
2848.00,0.0119
2847.00,0.0117
2846.00,0.0114
2845.00,0.0109
2844.00,0.0103
2843.00,0.0097
2842.00,0.0090
2841.00,0.0083
2840.00,0.0075
2839.00,0.0068
2838.00,0.0062
2837.00,0.0056
2836.00,0.0051
2835.00,0.0046
2834.00,0.0042
2833.00,0.0039
2832.00,0.0036
2831.00,0.0034
2830.00,0.0032
2829.00,0.0030
2828.00,0.0029
2827.00,0.0028
2826.00,0.0027
2825.00,0.0027
2824.00,0.0026
2823.00,0.0025
2822.00,0.0025
2821.00,0.0024
2820.00,0.0024
2819.00,0.0023
2818.00,0.0023
2817.00,0.0023
2816.00,0.0022
2815.00,0.0022
2814.00,0.0022
2813.00,0.0022
2812.00,0.0021
2811.00,0.0021
2810.00,0.0021
2809.00,0.0021
2808.00,0.0021
2807.00,0.0021
2806.00,0.0020
2805.00,0.0020
2804.00,0.0020
2803.00,0.0020
2802.00,0.0020
2801.00,0.0019
2800.00,0.0019
2799.00,0.0018
2798.00,0.0018
2797.00,0.0018
2796.00,0.0018
2795.00,0.0017
2794.00,0.0017
2793.00,0.0017
2792.00,0.0017
2791.00,0.0017
2790.00,0.0017
2789.00,0.0017
2788.00,0.0016
2787.00,0.0016
2786.00,0.0016
2785.00,0.0016
2784.00,0.0016
2783.00,0.0016
2782.00,0.0016
2781.00,0.0016
2780.00,0.0016
2779.00,0.0016
2778.00,0.0016
2777.00,0.0016
2776.00,0.0016
2775.00,0.0016
2774.00,0.0015
2773.00,0.0015
2772.00,0.0015
2771.00,0.0014
2770.00,0.0014
2769.00,0.0014
2768.00,0.0014
2767.00,0.0014
2766.00,0.0014
2765.00,0.0014
2764.00,0.0014
2763.00,0.0013
2762.00,0.0013
2761.00,0.0013
2760.00,0.0013
2759.00,0.0013
2758.00,0.0013
2757.00,0.0013
2756.00,0.0013
2755.00,0.0013
2754.00,0.0013
2753.00,0.0013
2752.00,0.0013
2751.00,0.0013
2750.00,0.0013
2749.00,0.0013
2748.00,0.0013
2747.00,0.0013
2746.00,0.0013
2745.00,0.0013
2744.00,0.0013
2743.00,0.0013
2742.00,0.0013
2741.00,0.0013
2740.00,0.0013
2739.00,0.0013
2738.00,0.0013
2737.00,0.0013
2736.00,0.0013
2735.00,0.0013
2734.00,0.0013
2733.00,0.0013
2732.00,0.0013
2731.00,0.0013
2730.00,0.0013
2729.00,0.0013
2728.00,0.0013
2727.00,0.0013
2726.00,0.0013
2725.00,0.0013
2724.00,0.0013
2723.00,0.0013
2722.00,0.0013
2721.00,0.0013
2720.00,0.0013
2719.00,0.0013
2718.00,0.0013
2717.00,0.0013
2716.00,0.0013
2715.00,0.0013
2714.00,0.0013
2713.00,0.0013
2712.00,0.0013
2711.00,0.0013
2710.00,0.0013
2709.00,0.0013
2708.00,0.0013
2707.00,0.0013
2706.00,0.0013
2705.00,0.0013
2704.00,0.0013
2703.00,0.0012
2702.00,0.0012
2701.00,0.0013
2700.00,0.0013
2699.00,0.0013
2698.00,0.0013
2697.00,0.0013
2696.00,0.0013
2695.00,0.0013
2694.00,0.0013
2693.00,0.0013
2692.00,0.0013
2691.00,0.0013
2690.00,0.0013
2689.00,0.0013
2688.00,0.0013
2687.00,0.0013
2686.00,0.0012
2685.00,0.0012
2684.00,0.0012
2683.00,0.0013
2682.00,0.0013
2681.00,0.0012
2680.00,0.0012
2679.00,0.0012
2678.00,0.0012
2677.00,0.0012
2676.00,0.0012
2675.00,0.0013
2674.00,0.0013
2673.00,0.0013
2672.00,0.0013
2671.00,0.0013
2670.00,0.0013
2669.00,0.0013
2668.00,0.0013
2667.00,0.0013
2666.00,0.0014
2665.00,0.0014
2664.00,0.0014
2663.00,0.0015
2662.00,0.0016
2661.00,0.0016
2660.00,0.0016
2659.00,0.0017
2658.00,0.0017
2657.00,0.0017
2656.00,0.0017
2655.00,0.0017
2654.00,0.0018
2653.00,0.0018
2652.00,0.0018
2651.00,0.0018
2650.00,0.0017
2649.00,0.0017
2648.00,0.0017
2647.00,0.0017
2646.00,0.0017
2645.00,0.0017
2644.00,0.0017
2643.00,0.0017
2642.00,0.0017
2641.00,0.0018
2640.00,0.0018
2639.00,0.0018
2638.00,0.0018
2637.00,0.0018
2636.00,0.0018
2635.00,0.0018
2634.00,0.0018
2633.00,0.0018
2632.00,0.0018
2631.00,0.0018
2630.00,0.0018
2629.00,0.0018
2628.00,0.0018
2627.00,0.0017
2626.00,0.0017
2625.00,0.0017
2624.00,0.0017
2623.00,0.0017
2622.00,0.0017
2621.00,0.0016
2620.00,0.0016
2619.00,0.0016
2618.00,0.0016
2617.00,0.0016
2616.00,0.0016
2615.00,0.0015
2614.00,0.0015
2613.00,0.0015
2612.00,0.0015
2611.00,0.0016
2610.00,0.0016
2609.00,0.0016
2608.00,0.0016
2607.00,0.0016
2606.00,0.0016
2605.00,0.0016
2604.00,0.0016
2603.00,0.0016
2602.00,0.0016
2601.00,0.0015
2600.00,0.0015
2599.00,0.0015
2598.00,0.0015
2597.00,0.0014
2596.00,0.0014
2595.00,0.0014
2594.00,0.0014
2593.00,0.0013
2592.00,0.0013
2591.00,0.0014
2590.00,0.0014
2589.00,0.0014
2588.00,0.0014
2587.00,0.0014
2586.00,0.0014
2585.00,0.0014
2584.00,0.0014
2583.00,0.0013
2582.00,0.0013
2581.00,0.0013
2580.00,0.0013
2579.00,0.0013
2578.00,0.0012
2577.00,0.0012
2576.00,0.0012
2575.00,0.0012
2574.00,0.0012
2573.00,0.0012
2572.00,0.0012
2571.00,0.0012
2570.00,0.0012
2569.00,0.0012
2568.00,0.0012
2567.00,0.0011
2566.00,0.0011
2565.00,0.0011
2564.00,0.0011
2563.00,0.0011
2562.00,0.0010
2561.00,0.0010
2560.00,0.0010
2559.00,0.0011
2558.00,0.0011
2557.00,0.0011
2556.00,0.0011
2555.00,0.0011
2554.00,0.0010
2553.00,0.0010
2552.00,0.0010
2551.00,0.0010
2550.00,0.0010
2549.00,0.0010
2548.00,0.0010
2547.00,0.0010
2546.00,0.0010
2545.00,0.0010
2544.00,0.0010
2543.00,0.0010
2542.00,0.0009
2541.00,0.0009
2540.00,0.0009
2539.00,0.0009
2538.00,0.0009
2537.00,0.0009
2536.00,0.0009
2535.00,0.0009
2534.00,0.0009
2533.00,0.0009
2532.00,0.0009
2531.00,0.0009
2530.00,0.0009
2529.00,0.0009
2528.00,0.0009
2527.00,0.0009
2526.00,0.0009
2525.00,0.0009
2524.00,0.0009
2523.00,0.0009
2522.00,0.0009
2521.00,0.0009
2520.00,0.0009
2519.00,0.0009
2518.00,0.0010
2517.00,0.0010
2516.00,0.0009
2515.00,0.0009
2514.00,0.0009
2513.00,0.0009
2512.00,0.0009
2511.00,0.0009
2510.00,0.0009
2509.00,0.0009
2508.00,0.0009
2507.00,0.0009
2506.00,0.0009
2505.00,0.0009
2504.00,0.0009
2503.00,0.0008
2502.00,0.0008
2501.00,0.0008
2500.00,0.0008
2499.00,0.0008
2498.00,0.0008
2497.00,0.0008
2496.00,0.0009
2495.00,0.0009
2494.00,0.0009
2493.00,0.0009
2492.00,0.0009
2491.00,0.0008
2490.00,0.0008
2489.00,0.0008
2488.00,0.0008
2487.00,0.0008
2486.00,0.0008
2485.00,0.0008
2484.00,0.0008
2483.00,0.0008
2482.00,0.0007
2481.00,0.0007
2480.00,0.0007
2479.00,0.0007
2478.00,0.0008
2477.00,0.0008
2476.00,0.0008
2475.00,0.0008
2474.00,0.0007
2473.00,0.0007
2472.00,0.0007
2471.00,0.0007
2470.00,0.0007
2469.00,0.0007
2468.00,0.0007
2467.00,0.0007
2466.00,0.0007
2465.00,0.0007
2464.00,0.0007
2463.00,0.0007
2462.00,0.0008
2461.00,0.0008
2460.00,0.0008
2459.00,0.0008
2458.00,0.0008
2457.00,0.0008
2456.00,0.0008
2455.00,0.0008
2454.00,0.0008
2453.00,0.0008
2452.00,0.0008
2451.00,0.0008
2450.00,0.0008
2449.00,0.0007
2448.00,0.0007
2447.00,0.0007
2446.00,0.0007
2445.00,0.0007
2444.00,0.0007
2443.00,0.0007
2442.00,0.0007
2441.00,0.0007
2440.00,0.0007
2439.00,0.0006
2438.00,0.0006
2437.00,0.0006
2436.00,0.0005
2435.00,0.0005
2434.00,0.0005
2433.00,0.0005
2432.00,0.0005
2431.00,0.0005
2430.00,0.0005
2429.00,0.0005
2428.00,0.0005
2427.00,0.0005
2426.00,0.0005
2425.00,0.0005
2424.00,0.0005
2423.00,0.0005
2422.00,0.0005
2421.00,0.0005
2420.00,0.0005
2419.00,0.0005
2418.00,0.0004
2417.00,0.0004
2416.00,0.0004
2415.00,0.0004
2414.00,0.0004
2413.00,0.0004
2412.00,0.0004
2411.00,0.0004
2410.00,0.0003
2409.00,0.0003
2408.00,0.0003
2407.00,0.0003
2406.00,0.0003
2405.00,0.0003
2404.00,0.0003
2403.00,0.0002
2402.00,0.0002
2401.00,0.0002
2400.00,0.0002
2399.00,0.0003
2398.00,0.0003
2397.00,0.0003
2396.00,0.0003
2395.00,0.0003
2394.00,0.0003
2393.00,0.0003
2392.00,0.0003
2391.00,0.0003
2390.00,0.0003
2389.00,0.0003
2388.00,0.0003
2387.00,0.0003
2386.00,0.0003
2385.00,0.0003
2384.00,0.0002
2383.00,0.0002
2382.00,0.0001
2381.00,0.0001
2380.00,0.0001
2379.00,0.0001
2378.00,0.0001
2377.00,0.0001
2376.00,0.0001
2375.00,0.0001
2374.00,0.0002
2373.00,0.0002
2372.00,0.0001
2371.00,0.0001
2370.00,0.0001
2369.00,0.0001
2368.00,0.0001
2367.00,0.0001
2366.00,0.0002
2365.00,0.0002
2364.00,0.0003
2363.00,0.0003
2362.00,0.0003
2361.00,0.0003
2360.00,0.0003
2359.00,0.0003
2358.00,0.0003
2357.00,0.0003
2356.00,0.0004
2355.00,0.0004
2354.00,0.0004
2353.00,0.0004
2352.00,0.0004
2351.00,0.0004
2350.00,0.0004
2349.00,0.0005
2348.00,0.0005
2347.00,0.0006
2346.00,0.0006
2345.00,0.0006
2344.00,0.0006
2343.00,0.0007
2342.00,0.0007
2341.00,0.0008
2340.00,0.0008
2339.00,0.0009
2338.00,0.0009
2337.00,0.0009
2336.00,0.0009
2335.00,0.0009
2334.00,0.0009
2333.00,0.0009
2332.00,0.0008
2331.00,0.0008
2330.00,0.0009
2329.00,0.0011
2328.00,0.0014
2327.00,0.0019
2326.00,0.0022
2325.00,0.0023
2324.00,0.0022
2323.00,0.0020
2322.00,0.0018
2321.00,0.0017
2320.00,0.0016
2319.00,0.0015
2318.00,0.0015
2317.00,0.0015
2316.00,0.0015
2315.00,0.0015
2314.00,0.0014
2313.00,0.0014
2312.00,0.0014
2311.00,0.0014
2310.00,0.0014
2309.00,0.0014
2308.00,0.0014
2307.00,0.0013
2306.00,0.0013
2305.00,0.0013
2304.00,0.0013
2303.00,0.0013
2302.00,0.0012
2301.00,0.0012
2300.00,0.0012
2299.00,0.0012
2298.00,0.0012
2297.00,0.0013
2296.00,0.0014
2295.00,0.0015
2294.00,0.0016
2293.00,0.0016
2292.00,0.0017
2291.00,0.0017
2290.00,0.0018
2289.00,0.0018
2288.00,0.0018
2287.00,0.0018
2286.00,0.0017
2285.00,0.0016
2284.00,0.0015
2283.00,0.0014
2282.00,0.0014
2281.00,0.0013
2280.00,0.0012
2279.00,0.0012
2278.00,0.0012
2277.00,0.0012
2276.00,0.0012
2275.00,0.0012
2274.00,0.0012
2273.00,0.0011
2272.00,0.0011
2271.00,0.0011
2270.00,0.0011
2269.00,0.0010
2268.00,0.0010
2267.00,0.0009
2266.00,0.0009
2265.00,0.0008
2264.00,0.0008
2263.00,0.0008
2262.00,0.0008
2261.00,0.0009
2260.00,0.0011
2259.00,0.0011
2258.00,0.0011
2257.00,0.0009
2256.00,0.0008
2255.00,0.0007
2254.00,0.0007
2253.00,0.0007
2252.00,0.0008
2251.00,0.0008
2250.00,0.0007
2249.00,0.0007
2248.00,0.0007
2247.00,0.0008
2246.00,0.0008
2245.00,0.0008
2244.00,0.0007
2243.00,0.0007
2242.00,0.0007
2241.00,0.0007
2240.00,0.0007
2239.00,0.0008
2238.00,0.0008
2237.00,0.0007
2236.00,0.0007
2235.00,0.0007
2234.00,0.0008
2233.00,0.0008
2232.00,0.0008
2231.00,0.0008
2230.00,0.0007
2229.00,0.0006
2228.00,0.0006
2227.00,0.0006
2226.00,0.0005
2225.00,0.0005
2224.00,0.0005
2223.00,0.0006
2222.00,0.0006
2221.00,0.0007
2220.00,0.0006
2219.00,0.0006
2218.00,0.0006
2217.00,0.0006
2216.00,0.0007
2215.00,0.0007
2214.00,0.0007
2213.00,0.0006
2212.00,0.0005
2211.00,0.0004
2210.00,0.0004
2209.00,0.0004
2208.00,0.0005
2207.00,0.0006
2206.00,0.0006
2205.00,0.0006
2204.00,0.0006
2203.00,0.0005
2202.00,0.0005
2201.00,0.0005
2200.00,0.0005
2199.00,0.0006
2198.00,0.0006
2197.00,0.0007
2196.00,0.0008
2195.00,0.0009
2194.00,0.0009
2193.00,0.0009
2192.00,0.0009
2191.00,0.0009
2190.00,0.0010
2189.00,0.0010
2188.00,0.0010
2187.00,0.0010
2186.00,0.0009
2185.00,0.0008
2184.00,0.0005
2183.00,0.0002
2182.00,-0.0000
2181.00,-0.0001
2180.00,-0.0001
2179.00,0.0000
2178.00,0.0000
2177.00,-0.0001
2176.00,-0.0002
2175.00,-0.0002
2174.00,-0.0001
2173.00,0.0001
2172.00,0.0004
2171.00,0.0007
2170.00,0.0011
2169.00,0.0013
2168.00,0.0015
2167.00,0.0016
2166.00,0.0017
2165.00,0.0017
2164.00,0.0018
2163.00,0.0018
2162.00,0.0013
2161.00,0.0003
2160.00,-0.0010
2159.00,-0.0021
2158.00,-0.0026
2157.00,-0.0026
2156.00,-0.0023
2155.00,-0.0019
2154.00,-0.0017
2153.00,-0.0015
2152.00,-0.0015
2151.00,-0.0015
2150.00,-0.0016
2149.00,-0.0017
2148.00,-0.0018
2147.00,-0.0018
2146.00,-0.0018
2145.00,-0.0018
2144.00,-0.0017
2143.00,-0.0016
2142.00,-0.0016
2141.00,-0.0015
2140.00,-0.0014
2139.00,-0.0015
2138.00,-0.0017
2137.00,-0.0019
2136.00,-0.0021
2135.00,-0.0022
2134.00,-0.0022
2133.00,-0.0020
2132.00,-0.0018
2131.00,-0.0016
2130.00,-0.0014
2129.00,-0.0012
2128.00,-0.0011
2127.00,-0.0010
2126.00,-0.0009
2125.00,-0.0007
2124.00,-0.0006
2123.00,-0.0005
2122.00,-0.0004
2121.00,-0.0003
2120.00,-0.0002
2119.00,-0.0001
2118.00,0.0000
2117.00,0.0001
2116.00,0.0002
2115.00,0.0002
2114.00,0.0002
2113.00,0.0002
2112.00,0.0001
2111.00,0.0001
2110.00,0.0000
2109.00,0.0001
2108.00,0.0001
2107.00,0.0001
2106.00,0.0002
2105.00,0.0002
2104.00,0.0002
2103.00,0.0002
2102.00,0.0001
2101.00,0.0001
2100.00,0.0001
2099.00,0.0000
2098.00,-0.0001
2097.00,-0.0003
2096.00,-0.0004
2095.00,-0.0005
2094.00,-0.0004
2093.00,-0.0003
2092.00,-0.0002
2091.00,-0.0000
2090.00,0.0001
2089.00,0.0001
2088.00,0.0002
2087.00,0.0002
2086.00,0.0002
2085.00,0.0003
2084.00,0.0003
2083.00,0.0004
2082.00,0.0004
2081.00,0.0005
2080.00,0.0005
2079.00,0.0005
2078.00,0.0004
2077.00,0.0002
2076.00,0.0001
2075.00,0.0001
2074.00,0.0000
2073.00,0.0000
2072.00,0.0000
2071.00,0.0001
2070.00,0.0001
2069.00,0.0001
2068.00,0.0001
2067.00,0.0001
2066.00,0.0002
2065.00,0.0002
2064.00,0.0001
2063.00,0.0000
2062.00,-0.0001
2061.00,-0.0001
2060.00,-0.0001
2059.00,-0.0000
2058.00,0.0000
2057.00,0.0001
2056.00,0.0000
2055.00,0.0001
2054.00,0.0003
2053.00,0.0006
2052.00,0.0009
2051.00,0.0008
2050.00,0.0006
2049.00,0.0003
2048.00,0.0001
2047.00,0.0000
2046.00,0.0001
2045.00,0.0001
2044.00,0.0002
2043.00,0.0003
2042.00,0.0003
2041.00,0.0003
2040.00,0.0002
2039.00,0.0002
2038.00,0.0001
2037.00,0.0001
2036.00,-0.0000
2035.00,-0.0002
2034.00,-0.0002
2033.00,-0.0002
2032.00,-0.0002
2031.00,-0.0003
2030.00,-0.0004
2029.00,-0.0006
2028.00,-0.0006
2027.00,-0.0006
2026.00,-0.0005
2025.00,-0.0005
2024.00,-0.0005
2023.00,-0.0004
2022.00,-0.0004
2021.00,-0.0003
2020.00,-0.0002
2019.00,-0.0002
2018.00,-0.0002
2017.00,-0.0003
2016.00,-0.0004
2015.00,-0.0004
2014.00,-0.0004
2013.00,-0.0004
2012.00,-0.0004
2011.00,-0.0004
2010.00,-0.0005
2009.00,-0.0007
2008.00,-0.0010
2007.00,-0.0012
2006.00,-0.0013
2005.00,-0.0013
2004.00,-0.0011
2003.00,-0.0008
2002.00,-0.0006
2001.00,-0.0004
2000.00,-0.0003
1999.00,-0.0002
1998.00,-0.0002
1997.00,-0.0001
1996.00,0.0000
1995.00,0.0001
1994.00,0.0002
1993.00,0.0003
1992.00,0.0004
1991.00,0.0005
1990.00,0.0006
1989.00,0.0007
1988.00,0.0008
1987.00,0.0008
1986.00,0.0008
1985.00,0.0008
1984.00,0.0009
1983.00,0.0012
1982.00,0.0015
1981.00,0.0016
1980.00,0.0015
1979.00,0.0010
1978.00,0.0004
1977.00,-0.0001
1976.00,-0.0003
1975.00,-0.0003
1974.00,-0.0003
1973.00,-0.0002
1972.00,-0.0002
1971.00,-0.0002
1970.00,-0.0002
1969.00,-0.0002
1968.00,-0.0001
1967.00,0.0000
1966.00,0.0003
1965.00,0.0005
1964.00,0.0007
1963.00,0.0007
1962.00,0.0006
1961.00,0.0005
1960.00,0.0004
1959.00,0.0004
1958.00,0.0006
1957.00,0.0008
1956.00,0.0010
1955.00,0.0012
1954.00,0.0013
1953.00,0.0014
1952.00,0.0015
1951.00,0.0017
1950.00,0.0018
1949.00,0.0019
1948.00,0.0020
1947.00,0.0021
1946.00,0.0022
1945.00,0.0024
1944.00,0.0025
1943.00,0.0025
1942.00,0.0025
1941.00,0.0024
1940.00,0.0022
1939.00,0.0020
1938.00,0.0019
1937.00,0.0017
1936.00,0.0015
1935.00,0.0013
1934.00,0.0011
1933.00,0.0009
1932.00,0.0009
1931.00,0.0008
1930.00,0.0007
1929.00,0.0006
1928.00,0.0005
1927.00,0.0004
1926.00,0.0003
1925.00,0.0003
1924.00,0.0003
1923.00,0.0003
1922.00,0.0003
1921.00,0.0002
1920.00,0.0001
1919.00,0.0001
1918.00,0.0000
1917.00,0.0000
1916.00,0.0000
1915.00,0.0000
1914.00,0.0000
1913.00,0.0000
1912.00,0.0000
1911.00,0.0000
1910.00,0.0001
1909.00,0.0001
1908.00,0.0001
1907.00,0.0001
1906.00,0.0001
1905.00,0.0001
1904.00,0.0001
1903.00,0.0002
1902.00,0.0003
1901.00,0.0004
1900.00,0.0004
1899.00,0.0004
1898.00,0.0004
1897.00,0.0005
1896.00,0.0006
1895.00,0.0007
1894.00,0.0008
1893.00,0.0009
1892.00,0.0010
1891.00,0.0011
1890.00,0.0012
1889.00,0.0013
1888.00,0.0014
1887.00,0.0014
1886.00,0.0015
1885.00,0.0015
1884.00,0.0016
1883.00,0.0017
1882.00,0.0017
1881.00,0.0018
1880.00,0.0019
1879.00,0.0020
1878.00,0.0020
1877.00,0.0021
1876.00,0.0021
1875.00,0.0022
1874.00,0.0022
1873.00,0.0022
1872.00,0.0022
1871.00,0.0023
1870.00,0.0023
1869.00,0.0023
1868.00,0.0023
1867.00,0.0022
1866.00,0.0021
1865.00,0.0020
1864.00,0.0019
1863.00,0.0018
1862.00,0.0017
1861.00,0.0016
1860.00,0.0015
1859.00,0.0013
1858.00,0.0011
1857.00,0.0010
1856.00,0.0009
1855.00,0.0008
1854.00,0.0008
1853.00,0.0007
1852.00,0.0006
1851.00,0.0005
1850.00,0.0005
1849.00,0.0005
1848.00,0.0005
1847.00,0.0004
1846.00,0.0003
1845.00,0.0003
1844.00,0.0003
1843.00,0.0003
1842.00,0.0003
1841.00,0.0003
1840.00,0.0003
1839.00,0.0003
1838.00,0.0003
1837.00,0.0003
1836.00,0.0003
1835.00,0.0004
1834.00,0.0004
1833.00,0.0004
1832.00,0.0005
1831.00,0.0005
1830.00,0.0006
1829.00,0.0007
1828.00,0.0008
1827.00,0.0009
1826.00,0.0009
1825.00,0.0010
1824.00,0.0010
1823.00,0.0011
1822.00,0.0011
1821.00,0.0012
1820.00,0.0012
1819.00,0.0012
1818.00,0.0013
1817.00,0.0014
1816.00,0.0015
1815.00,0.0017
1814.00,0.0018
1813.00,0.0019
1812.00,0.0021
1811.00,0.0022
1810.00,0.0023
1809.00,0.0025
1808.00,0.0026
1807.00,0.0026
1806.00,0.0027
1805.00,0.0028
1804.00,0.0028
1803.00,0.0028
1802.00,0.0029
1801.00,0.0029
1800.00,0.0028
1799.00,0.0028
1798.00,0.0027
1797.00,0.0026
1796.00,0.0025
1795.00,0.0024
1794.00,0.0022
1793.00,0.0021
1792.00,0.0019
1791.00,0.0018
1790.00,0.0017
1789.00,0.0016
1788.00,0.0015
1787.00,0.0015
1786.00,0.0014
1785.00,0.0014
1784.00,0.0014
1783.00,0.0013
1782.00,0.0013
1781.00,0.0014
1780.00,0.0014
1779.00,0.0014
1778.00,0.0014
1777.00,0.0014
1776.00,0.0014
1775.00,0.0015
1774.00,0.0015
1773.00,0.0015
1772.00,0.0016
1771.00,0.0016
1770.00,0.0016
1769.00,0.0016
1768.00,0.0017
1767.00,0.0017
1766.00,0.0018
1765.00,0.0018
1764.00,0.0018
1763.00,0.0019
1762.00,0.0020
1761.00,0.0021
1760.00,0.0022
1759.00,0.0023
1758.00,0.0024
1757.00,0.0025
1756.00,0.0026
1755.00,0.0027
1754.00,0.0029
1753.00,0.0030
1752.00,0.0031
1751.00,0.0033
1750.00,0.0034
1749.00,0.0035
1748.00,0.0036
1747.00,0.0037
1746.00,0.0038
1745.00,0.0039
1744.00,0.0040
1743.00,0.0041
1742.00,0.0041
1741.00,0.0041
1740.00,0.0041
1739.00,0.0040
1738.00,0.0040
1737.00,0.0040
1736.00,0.0040
1735.00,0.0040
1734.00,0.0039
1733.00,0.0039
1732.00,0.0038
1731.00,0.0038
1730.00,0.0037
1729.00,0.0036
1728.00,0.0035
1727.00,0.0034
1726.00,0.0034
1725.00,0.0033
1724.00,0.0032
1723.00,0.0032
1722.00,0.0031
1721.00,0.0030
1720.00,0.0030
1719.00,0.0030
1718.00,0.0029
1717.00,0.0029
1716.00,0.0028
1715.00,0.0028
1714.00,0.0027
1713.00,0.0027
1712.00,0.0026
1711.00,0.0026
1710.00,0.0026
1709.00,0.0025
1708.00,0.0025
1707.00,0.0025
1706.00,0.0025
1705.00,0.0024
1704.00,0.0024
1703.00,0.0024
1702.00,0.0024
1701.00,0.0024
1700.00,0.0024
1699.00,0.0024
1698.00,0.0024
1697.00,0.0024
1696.00,0.0024
1695.00,0.0024
1694.00,0.0024
1693.00,0.0024
1692.00,0.0025
1691.00,0.0025
1690.00,0.0026
1689.00,0.0027
1688.00,0.0027
1687.00,0.0028
1686.00,0.0028
1685.00,0.0029
1684.00,0.0029
1683.00,0.0029
1682.00,0.0029
1681.00,0.0030
1680.00,0.0030
1679.00,0.0030
1678.00,0.0030
1677.00,0.0031
1676.00,0.0031
1675.00,0.0031
1674.00,0.0031
1673.00,0.0031
1672.00,0.0031
1671.00,0.0032
1670.00,0.0031
1669.00,0.0031
1668.00,0.0031
1667.00,0.0031
1666.00,0.0032
1665.00,0.0032
1664.00,0.0031
1663.00,0.0031
1662.00,0.0030
1661.00,0.0030
1660.00,0.0029
1659.00,0.0029
1658.00,0.0028
1657.00,0.0028
1656.00,0.0027
1655.00,0.0027
1654.00,0.0027
1653.00,0.0027
1652.00,0.0026
1651.00,0.0025
1650.00,0.0024
1649.00,0.0023
1648.00,0.0023
1647.00,0.0022
1646.00,0.0022
1645.00,0.0022
1644.00,0.0022
1643.00,0.0021
1642.00,0.0021
1641.00,0.0021
1640.00,0.0020
1639.00,0.0020
1638.00,0.0020
1637.00,0.0020
1636.00,0.0020
1635.00,0.0020
1634.00,0.0019
1633.00,0.0019
1632.00,0.0019
1631.00,0.0020
1630.00,0.0020
1629.00,0.0020
1628.00,0.0020
1627.00,0.0021
1626.00,0.0021
1625.00,0.0021
1624.00,0.0021
1623.00,0.0021
1622.00,0.0022
1621.00,0.0022
1620.00,0.0023
1619.00,0.0024
1618.00,0.0025
1617.00,0.0026
1616.00,0.0028
1615.00,0.0029
1614.00,0.0032
1613.00,0.0035
1612.00,0.0039
1611.00,0.0045
1610.00,0.0053
1609.00,0.0064
1608.00,0.0079
1607.00,0.0097
1606.00,0.0118
1605.00,0.0141
1604.00,0.0164
1603.00,0.0183
1602.00,0.0196
1601.00,0.0199
1600.00,0.0193
1599.00,0.0178
1598.00,0.0158
1597.00,0.0137
1596.00,0.0117
1595.00,0.0101
1594.00,0.0087
1593.00,0.0077
1592.00,0.0069
1591.00,0.0063
1590.00,0.0059
1589.00,0.0058
1588.00,0.0059
1587.00,0.0063
1586.00,0.0069
1585.00,0.0076
1584.00,0.0082
1583.00,0.0083
1582.00,0.0079
1581.00,0.0071
1580.00,0.0061
1579.00,0.0052
1578.00,0.0045
1577.00,0.0039
1576.00,0.0034
1575.00,0.0030
1574.00,0.0028
1573.00,0.0026
1572.00,0.0024
1571.00,0.0023
1570.00,0.0022
1569.00,0.0021
1568.00,0.0020
1567.00,0.0019
1566.00,0.0019
1565.00,0.0018
1564.00,0.0018
1563.00,0.0018
1562.00,0.0018
1561.00,0.0018
1560.00,0.0018
1559.00,0.0018
1558.00,0.0019
1557.00,0.0020
1556.00,0.0020
1555.00,0.0021
1554.00,0.0022
1553.00,0.0022
1552.00,0.0023
1551.00,0.0024
1550.00,0.0024
1549.00,0.0025
1548.00,0.0026
1547.00,0.0027
1546.00,0.0028
1545.00,0.0028
1544.00,0.0029
1543.00,0.0029
1542.00,0.0029
1541.00,0.0028
1540.00,0.0028
1539.00,0.0027
1538.00,0.0027
1537.00,0.0026
1536.00,0.0025
1535.00,0.0024
1534.00,0.0023
1533.00,0.0022
1532.00,0.0021
1531.00,0.0020
1530.00,0.0019
1529.00,0.0018
1528.00,0.0018
1527.00,0.0017
1526.00,0.0017
1525.00,0.0016
1524.00,0.0016
1523.00,0.0016
1522.00,0.0016
1521.00,0.0017
1520.00,0.0017
1519.00,0.0017
1518.00,0.0017
1517.00,0.0017
1516.00,0.0018
1515.00,0.0018
1514.00,0.0019
1513.00,0.0019
1512.00,0.0020
1511.00,0.0021
1510.00,0.0022
1509.00,0.0024
1508.00,0.0025
1507.00,0.0028
1506.00,0.0031
1505.00,0.0035
1504.00,0.0040
1503.00,0.0046
1502.00,0.0054
1501.00,0.0066
1500.00,0.0084
1499.00,0.0111
1498.00,0.0152
1497.00,0.0213
1496.00,0.0291
1495.00,0.0371
1494.00,0.0437
1493.00,0.0473
1492.00,0.0471
1491.00,0.0429
1490.00,0.0361
1489.00,0.0289
1488.00,0.0229
1487.00,0.0184
1486.00,0.0151
1485.00,0.0126
1484.00,0.0106
1483.00,0.0091
1482.00,0.0079
1481.00,0.0069
1480.00,0.0063
1479.00,0.0058
1478.00,0.0054
1477.00,0.0052
1476.00,0.0050
1475.00,0.0048
1474.00,0.0047
1473.00,0.0047
1472.00,0.0047
1471.00,0.0047
1470.00,0.0048
1469.00,0.0050
1468.00,0.0052
1467.00,0.0055
1466.00,0.0057
1465.00,0.0060
1464.00,0.0063
1463.00,0.0068
1462.00,0.0074
1461.00,0.0082
1460.00,0.0094
1459.00,0.0113
1458.00,0.0148
1457.00,0.0206
1456.00,0.0280
1455.00,0.0353
1454.00,0.0416
1453.00,0.0462
1452.00,0.0485
1451.00,0.0481
1450.00,0.0456
1449.00,0.0420
1448.00,0.0383
1447.00,0.0350
1446.00,0.0322
1445.00,0.0298
1444.00,0.0275
1443.00,0.0253
1442.00,0.0232
1441.00,0.0214
1440.00,0.0198
1439.00,0.0183
1438.00,0.0168
1437.00,0.0152
1436.00,0.0135
1435.00,0.0121
1434.00,0.0109
1433.00,0.0100
1432.00,0.0091
1431.00,0.0082
1430.00,0.0075
1429.00,0.0069
1428.00,0.0064
1427.00,0.0060
1426.00,0.0058
1425.00,0.0055
1424.00,0.0053
1423.00,0.0051
1422.00,0.0050
1421.00,0.0049
1420.00,0.0048
1419.00,0.0046
1418.00,0.0045
1417.00,0.0044
1416.00,0.0043
1415.00,0.0043
1414.00,0.0042
1413.00,0.0042
1412.00,0.0041
1411.00,0.0041
1410.00,0.0040
1409.00,0.0040
1408.00,0.0039
1407.00,0.0039
1406.00,0.0039
1405.00,0.0039
1404.00,0.0038
1403.00,0.0038
1402.00,0.0038
1401.00,0.0038
1400.00,0.0038
1399.00,0.0039
1398.00,0.0039
1397.00,0.0040
1396.00,0.0042
1395.00,0.0043
1394.00,0.0045
1393.00,0.0048
1392.00,0.0050
1391.00,0.0053
1390.00,0.0056
1389.00,0.0059
1388.00,0.0063
1387.00,0.0067
1386.00,0.0070
1385.00,0.0074
1384.00,0.0077
1383.00,0.0081
1382.00,0.0084
1381.00,0.0087
1380.00,0.0090
1379.00,0.0094
1378.00,0.0097
1377.00,0.0100
1376.00,0.0103
1375.00,0.0105
1374.00,0.0106
1373.00,0.0107
1372.00,0.0108
1371.00,0.0108
1370.00,0.0107
1369.00,0.0107
1368.00,0.0106
1367.00,0.0105
1366.00,0.0104
1365.00,0.0103
1364.00,0.0102
1363.00,0.0101
1362.00,0.0100
1361.00,0.0098
1360.00,0.0097
1359.00,0.0095
1358.00,0.0094
1357.00,0.0092
1356.00,0.0091
1355.00,0.0090
1354.00,0.0089
1353.00,0.0089
1352.00,0.0089
1351.00,0.0089
1350.00,0.0089
1349.00,0.0088
1348.00,0.0088
1347.00,0.0087
1346.00,0.0085
1345.00,0.0084
1344.00,0.0082
1343.00,0.0081
1342.00,0.0080
1341.00,0.0079
1340.00,0.0077
1339.00,0.0077
1338.00,0.0076
1337.00,0.0076
1336.00,0.0077
1335.00,0.0079
1334.00,0.0081
1333.00,0.0083
1332.00,0.0085
1331.00,0.0087
1330.00,0.0089
1329.00,0.0089
1328.00,0.0089
1327.00,0.0089
1326.00,0.0088
1325.00,0.0086
1324.00,0.0085
1323.00,0.0084
1322.00,0.0082
1321.00,0.0082
1320.00,0.0081
1319.00,0.0082
1318.00,0.0082
1317.00,0.0083
1316.00,0.0084
1315.00,0.0085
1314.00,0.0085
1313.00,0.0086
1312.00,0.0086
1311.00,0.0085
1310.00,0.0084
1309.00,0.0083
1308.00,0.0082
1307.00,0.0081
1306.00,0.0080
1305.00,0.0078
1304.00,0.0077
1303.00,0.0075
1302.00,0.0074
1301.00,0.0072
1300.00,0.0071
1299.00,0.0070
1298.00,0.0070
1297.00,0.0069
1296.00,0.0069
1295.00,0.0068
1294.00,0.0068
1293.00,0.0068
1292.00,0.0067
1291.00,0.0067
1290.00,0.0066
1289.00,0.0065
1288.00,0.0065
1287.00,0.0064
1286.00,0.0063
1285.00,0.0063
1284.00,0.0063
1283.00,0.0062
1282.00,0.0062
1281.00,0.0062
1280.00,0.0061
1279.00,0.0060
1278.00,0.0059
1277.00,0.0058
1276.00,0.0057
1275.00,0.0056
1274.00,0.0054
1273.00,0.0053
1272.00,0.0052
1271.00,0.0051
1270.00,0.0050
1269.00,0.0049
1268.00,0.0048
1267.00,0.0048
1266.00,0.0047
1265.00,0.0047
1264.00,0.0046
1263.00,0.0046
1262.00,0.0046
1261.00,0.0046
1260.00,0.0046
1259.00,0.0045
1258.00,0.0045
1257.00,0.0045
1256.00,0.0045
1255.00,0.0045
1254.00,0.0045
1253.00,0.0045
1252.00,0.0045
1251.00,0.0045
1250.00,0.0046
1249.00,0.0046
1248.00,0.0047
1247.00,0.0047
1246.00,0.0047
1245.00,0.0047
1244.00,0.0047
1243.00,0.0047
1242.00,0.0046
1241.00,0.0046
1240.00,0.0046
1239.00,0.0045
1238.00,0.0045
1237.00,0.0045
1236.00,0.0045
1235.00,0.0045
1234.00,0.0045
1233.00,0.0045
1232.00,0.0045
1231.00,0.0045
1230.00,0.0045
1229.00,0.0045
1228.00,0.0045
1227.00,0.0046
1226.00,0.0046
1225.00,0.0046
1224.00,0.0046
1223.00,0.0046
1222.00,0.0045
1221.00,0.0045
1220.00,0.0045
1219.00,0.0046
1218.00,0.0046
1217.00,0.0046
1216.00,0.0047
1215.00,0.0047
1214.00,0.0048
1213.00,0.0049
1212.00,0.0050
1211.00,0.0050
1210.00,0.0051
1209.00,0.0053
1208.00,0.0054
1207.00,0.0055
1206.00,0.0057
1205.00,0.0059
1204.00,0.0061
1203.00,0.0062
1202.00,0.0064
1201.00,0.0065
1200.00,0.0067
1199.00,0.0068
1198.00,0.0069
1197.00,0.0070
1196.00,0.0070
1195.00,0.0071
1194.00,0.0072
1193.00,0.0072
1192.00,0.0072
1191.00,0.0073
1190.00,0.0074
1189.00,0.0075
1188.00,0.0077
1187.00,0.0080
1186.00,0.0084
1185.00,0.0088
1184.00,0.0093
1183.00,0.0097
1182.00,0.0100
1181.00,0.0101
1180.00,0.0099
1179.00,0.0094
1178.00,0.0088
1177.00,0.0081
1176.00,0.0075
1175.00,0.0070
1174.00,0.0066
1173.00,0.0063
1172.00,0.0061
1171.00,0.0059
1170.00,0.0058
1169.00,0.0058
1168.00,0.0058
1167.00,0.0058
1166.00,0.0058
1165.00,0.0059
1164.00,0.0060
1163.00,0.0061
1162.00,0.0064
1161.00,0.0068
1160.00,0.0073
1159.00,0.0079
1158.00,0.0086
1157.00,0.0093
1156.00,0.0099
1155.00,0.0102
1154.00,0.0101
1153.00,0.0097
1152.00,0.0090
1151.00,0.0082
1150.00,0.0074
1149.00,0.0067
1148.00,0.0061
1147.00,0.0056
1146.00,0.0053
1145.00,0.0051
1144.00,0.0048
1143.00,0.0046
1142.00,0.0044
1141.00,0.0043
1140.00,0.0041
1139.00,0.0041
1138.00,0.0040
1137.00,0.0040
1136.00,0.0039
1135.00,0.0039
1134.00,0.0039
1133.00,0.0039
1132.00,0.0039
1131.00,0.0040
1130.00,0.0040
1129.00,0.0040
1128.00,0.0041
1127.00,0.0041
1126.00,0.0041
1125.00,0.0041
1124.00,0.0042
1123.00,0.0042
1122.00,0.0043
1121.00,0.0044
1120.00,0.0045
1119.00,0.0047
1118.00,0.0048
1117.00,0.0050
1116.00,0.0052
1115.00,0.0054
1114.00,0.0055
1113.00,0.0055
1112.00,0.0055
1111.00,0.0055
1110.00,0.0054
1109.00,0.0054
1108.00,0.0054
1107.00,0.0054
1106.00,0.0054
1105.00,0.0054
1104.00,0.0054
1103.00,0.0054
1102.00,0.0055
1101.00,0.0055
1100.00,0.0056
1099.00,0.0057
1098.00,0.0058
1097.00,0.0058
1096.00,0.0059
1095.00,0.0060
1094.00,0.0061
1093.00,0.0062
1092.00,0.0063
1091.00,0.0064
1090.00,0.0065
1089.00,0.0066
1088.00,0.0068
1087.00,0.0070
1086.00,0.0072
1085.00,0.0075
1084.00,0.0078
1083.00,0.0081
1082.00,0.0084
1081.00,0.0087
1080.00,0.0090
1079.00,0.0094
1078.00,0.0097
1077.00,0.0102
1076.00,0.0106
1075.00,0.0112
1074.00,0.0117
1073.00,0.0122
1072.00,0.0127
1071.00,0.0131
1070.00,0.0133
1069.00,0.0135
1068.00,0.0134
1067.00,0.0132
1066.00,0.0128
1065.00,0.0123
1064.00,0.0118
1063.00,0.0112
1062.00,0.0107
1061.00,0.0103
1060.00,0.0099
1059.00,0.0095
1058.00,0.0091
1057.00,0.0088
1056.00,0.0085
1055.00,0.0082
1054.00,0.0079
1053.00,0.0077
1052.00,0.0075
1051.00,0.0073
1050.00,0.0072
1049.00,0.0070
1048.00,0.0069
1047.00,0.0068
1046.00,0.0068
1045.00,0.0067
1044.00,0.0067
1043.00,0.0067
1042.00,0.0067
1041.00,0.0068
1040.00,0.0071
1039.00,0.0075
1038.00,0.0081
1037.00,0.0089
1036.00,0.0101
1035.00,0.0117
1034.00,0.0137
1033.00,0.0159
1032.00,0.0181
1031.00,0.0202
1030.00,0.0217
1029.00,0.0227
1028.00,0.0231
1027.00,0.0226
1026.00,0.0216
1025.00,0.0201
1024.00,0.0185
1023.00,0.0169
1022.00,0.0156
1021.00,0.0145
1020.00,0.0136
1019.00,0.0128
1018.00,0.0121
1017.00,0.0114
1016.00,0.0109
1015.00,0.0105
1014.00,0.0101
1013.00,0.0098
1012.00,0.0095
1011.00,0.0092
1010.00,0.0090
1009.00,0.0089
1008.00,0.0089
1007.00,0.0090
1006.00,0.0092
1005.00,0.0095
1004.00,0.0097
1003.00,0.0097
1002.00,0.0095
1001.00,0.0089
1000.00,0.0083
999.00,0.0078
998.00,0.0073
997.00,0.0070
996.00,0.0068
995.00,0.0066
994.00,0.0066
993.00,0.0066
992.00,0.0066
991.00,0.0066
990.00,0.0068
989.00,0.0069
988.00,0.0071
987.00,0.0073
986.00,0.0075
985.00,0.0078
984.00,0.0080
983.00,0.0082
982.00,0.0084
981.00,0.0085
980.00,0.0085
979.00,0.0085
978.00,0.0084
977.00,0.0082
976.00,0.0080
975.00,0.0078
974.00,0.0076
973.00,0.0075
972.00,0.0076
971.00,0.0077
970.00,0.0079
969.00,0.0082
968.00,0.0085
967.00,0.0088
966.00,0.0090
965.00,0.0092
964.00,0.0092
963.00,0.0091
962.00,0.0089
961.00,0.0085
960.00,0.0081
959.00,0.0077
958.00,0.0074
957.00,0.0071
956.00,0.0068
955.00,0.0067
954.00,0.0066
953.00,0.0066
952.00,0.0066
951.00,0.0067
950.00,0.0068
949.00,0.0069
948.00,0.0070
947.00,0.0071
946.00,0.0072
945.00,0.0072
944.00,0.0072
943.00,0.0072
942.00,0.0071
941.00,0.0070
940.00,0.0068
939.00,0.0066
938.00,0.0064
937.00,0.0062
936.00,0.0059
935.00,0.0057
934.00,0.0055
933.00,0.0053
932.00,0.0051
931.00,0.0049
930.00,0.0048
929.00,0.0048
928.00,0.0048
927.00,0.0049
926.00,0.0049
925.00,0.0050
924.00,0.0051
923.00,0.0053
922.00,0.0054
921.00,0.0056
920.00,0.0059
919.00,0.0061
918.00,0.0065
917.00,0.0070
916.00,0.0075
915.00,0.0082
914.00,0.0091
913.00,0.0100
912.00,0.0110
911.00,0.0119
910.00,0.0129
909.00,0.0137
908.00,0.0144
907.00,0.0147
906.00,0.0148
905.00,0.0146
904.00,0.0140
903.00,0.0131
902.00,0.0121
901.00,0.0110
900.00,0.0098
899.00,0.0088
898.00,0.0078
897.00,0.0070
896.00,0.0064
895.00,0.0059
894.00,0.0055
893.00,0.0052
892.00,0.0050
891.00,0.0047
890.00,0.0045
889.00,0.0043
888.00,0.0042
887.00,0.0041
886.00,0.0040
885.00,0.0039
884.00,0.0038
883.00,0.0037
882.00,0.0037
881.00,0.0036
880.00,0.0036
879.00,0.0036
878.00,0.0035
877.00,0.0035
876.00,0.0034
875.00,0.0033
874.00,0.0032
873.00,0.0032
872.00,0.0031
871.00,0.0031
870.00,0.0031
869.00,0.0031
868.00,0.0031
867.00,0.0030
866.00,0.0030
865.00,0.0029
864.00,0.0029
863.00,0.0030
862.00,0.0030
861.00,0.0030
860.00,0.0030
859.00,0.0031
858.00,0.0031
857.00,0.0031
856.00,0.0032
855.00,0.0033
854.00,0.0035
853.00,0.0037
852.00,0.0039
851.00,0.0043
850.00,0.0046
849.00,0.0051
848.00,0.0055
847.00,0.0060
846.00,0.0065
845.00,0.0069
844.00,0.0072
843.00,0.0073
842.00,0.0074
841.00,0.0073
840.00,0.0071
839.00,0.0069
838.00,0.0065
837.00,0.0061
836.00,0.0055
835.00,0.0050
834.00,0.0045
833.00,0.0041
832.00,0.0038
831.00,0.0035
830.00,0.0032
829.00,0.0031
828.00,0.0029
827.00,0.0028
826.00,0.0028
825.00,0.0028
824.00,0.0028
823.00,0.0028
822.00,0.0028
821.00,0.0028
820.00,0.0028
819.00,0.0028
818.00,0.0029
817.00,0.0029
816.00,0.0029
815.00,0.0030
814.00,0.0030
813.00,0.0030
812.00,0.0030
811.00,0.0030
810.00,0.0031
809.00,0.0031
808.00,0.0031
807.00,0.0032
806.00,0.0032
805.00,0.0032
804.00,0.0033
803.00,0.0033
802.00,0.0034
801.00,0.0035
800.00,0.0036
799.00,0.0037
798.00,0.0039
797.00,0.0042
796.00,0.0044
795.00,0.0047
794.00,0.0050
793.00,0.0053
792.00,0.0057
791.00,0.0061
790.00,0.0066
789.00,0.0071
788.00,0.0076
787.00,0.0082
786.00,0.0087
785.00,0.0093
784.00,0.0099
783.00,0.0105
782.00,0.0113
781.00,0.0122
780.00,0.0132
779.00,0.0144
778.00,0.0157
777.00,0.0172
776.00,0.0188
775.00,0.0206
774.00,0.0226
773.00,0.0248
772.00,0.0271
771.00,0.0294
770.00,0.0319
769.00,0.0343
768.00,0.0368
767.00,0.0393
766.00,0.0416
765.00,0.0439
764.00,0.0462
763.00,0.0486
762.00,0.0510
761.00,0.0534
760.00,0.0558
759.00,0.0579
758.00,0.0597
757.00,0.0610
756.00,0.0619
755.00,0.0622
754.00,0.0622
753.00,0.0620
752.00,0.0618
751.00,0.0616
750.00,0.0614
749.00,0.0612
748.00,0.0608
747.00,0.0598
746.00,0.0581
745.00,0.0556
744.00,0.0523
743.00,0.0486
742.00,0.0446
741.00,0.0407
740.00,0.0369
739.00,0.0333
738.00,0.0301
737.00,0.0270
736.00,0.0240
735.00,0.0211
734.00,0.0184
733.00,0.0159
732.00,0.0137
731.00,0.0120
730.00,0.0106
729.00,0.0094
728.00,0.0086
727.00,0.0079
726.00,0.0074
725.00,0.0070
724.00,0.0068
723.00,0.0067
722.00,0.0066
721.00,0.0067
720.00,0.0068
719.00,0.0071
718.00,0.0073
717.00,0.0077
716.00,0.0083
715.00,0.0091
714.00,0.0103
713.00,0.0119
712.00,0.0142
711.00,0.0172
710.00,0.0213
709.00,0.0264
708.00,0.0326
707.00,0.0399
706.00,0.0484
705.00,0.0578
704.00,0.0682
703.00,0.0792
702.00,0.0909
701.00,0.1029
700.00,0.1151
699.00,0.1273
698.00,0.1388
697.00,0.1488
696.00,0.1557
695.00,0.1578
694.00,0.1539
693.00,0.1440
692.00,0.1297
691.00,0.1136
690.00,0.0980
689.00,0.0845
688.00,0.0732
687.00,0.0642
686.00,0.0571
685.00,0.0515
684.00,0.0469
683.00,0.0430
682.00,0.0398
681.00,0.0371
680.00,0.0347
679.00,0.0326
678.00,0.0309
677.00,0.0294
676.00,0.0280
675.00,0.0269
674.00,0.0258
673.00,0.0249
672.00,0.0242
671.00,0.0235
670.00,0.0229
669.00,0.0223
668.00,0.0215
667.00,0.0206
666.00,0.0197
665.00,0.0189
664.00,0.0181
663.00,0.0173
662.00,0.0166
661.00,0.0159
660.00,0.0152
659.00,0.0146
658.00,0.0141
657.00,0.0136
656.00,0.0132
655.00,0.0127
654.00,0.0122
653.00,0.0117
652.00,0.0112
651.00,0.0108
650.00,0.0105
649.00,0.0103
648.00,0.0101
647.00,0.0099
646.00,0.0098
645.00,0.0095
644.00,0.0093
643.00,0.0092
642.00,0.0091
641.00,0.0091
640.00,0.0092
639.00,0.0093
638.00,0.0094
637.00,0.0096
636.00,0.0099
635.00,0.0101
634.00,0.0104
633.00,0.0106
632.00,0.0109
631.00,0.0111
630.00,0.0113
629.00,0.0114
628.00,0.0116
627.00,0.0118
626.00,0.0119
625.00,0.0121
624.00,0.0123
623.00,0.0125
622.00,0.0126
621.00,0.0127
620.00,0.0127
619.00,0.0125
618.00,0.0121
617.00,0.0117
616.00,0.0114
615.00,0.0110
614.00,0.0108
613.00,0.0105
612.00,0.0104
611.00,0.0103
610.00,0.0103
609.00,0.0102
608.00,0.0102
607.00,0.0100
606.00,0.0099
605.00,0.0098
604.00,0.0098
603.00,0.0098
602.00,0.0099
601.00,0.0100
600.00,0.0101
599.00,0.0102
598.00,0.0103
597.00,0.0104
596.00,0.0105
595.00,0.0106
594.00,0.0109
593.00,0.0111
592.00,0.0113
591.00,0.0115
590.00,0.0116
589.00,0.0118
588.00,0.0120
587.00,0.0122
586.00,0.0125
585.00,0.0128
584.00,0.0131
583.00,0.0135
582.00,0.0138
581.00,0.0141
580.00,0.0146
579.00,0.0152
578.00,0.0159
577.00,0.0166
576.00,0.0174
575.00,0.0181
574.00,0.0188
573.00,0.0195
572.00,0.0203
571.00,0.0212
570.00,0.0221
569.00,0.0230
568.00,0.0238
567.00,0.0245
566.00,0.0251
565.00,0.0258
564.00,0.0264
563.00,0.0272
562.00,0.0280
561.00,0.0287
560.00,0.0295
559.00,0.0302
558.00,0.0309
557.00,0.0317
556.00,0.0327
555.00,0.0336
554.00,0.0345
553.00,0.0354
552.00,0.0364
551.00,0.0377
550.00,0.0391
549.00,0.0404
548.00,0.0419
547.00,0.0435
546.00,0.0452
545.00,0.0469
544.00,0.0485
543.00,0.0501
542.00,0.0516
541.00,0.0530
540.00,0.0542
539.00,0.0548
538.00,0.0547
537.00,0.0540
536.00,0.0528
535.00,0.0511
534.00,0.0489
533.00,0.0465
532.00,0.0439
531.00,0.0413
530.00,0.0388
529.00,0.0364
528.00,0.0342
527.00,0.0320
526.00,0.0298
525.00,0.0278
524.00,0.0260
523.00,0.0245
522.00,0.0232
521.00,0.0222
520.00,0.0214
519.00,0.0207
518.00,0.0199
517.00,0.0191
516.00,0.0184
515.00,0.0179
514.00,0.0173
513.00,0.0168
512.00,0.0161
511.00,0.0155
510.00,0.0150
509.00,0.0145
508.00,0.0141
507.00,0.0136
506.00,0.0131
505.00,0.0126
504.00,0.0122
503.00,0.0119
502.00,0.0116
501.00,0.0113
500.00,0.0112
499.00,0.0110
498.00,0.0109
497.00,0.0107
496.00,0.0105
495.00,0.0103
494.00,0.0101
493.00,0.0098
492.00,0.0096
491.00,0.0094
490.00,0.0090
489.00,0.0088
488.00,0.0086
487.00,0.0086
486.00,0.0086
485.00,0.0087
484.00,0.0086
483.00,0.0085
482.00,0.0084
481.00,0.0083
480.00,0.0083
479.00,0.0083
478.00,0.0083
477.00,0.0082
476.00,0.0080
475.00,0.0079
474.00,0.0078
473.00,0.0078
472.00,0.0077
471.00,0.0077
470.00,0.0076
469.00,0.0075
468.00,0.0073
467.00,0.0072
466.00,0.0072
465.00,0.0073
464.00,0.0073
463.00,0.0074
462.00,0.0073
461.00,0.0070
460.00,0.0066
459.00,0.0062
458.00,0.0059
457.00,0.0059
456.00,0.0061
455.00,0.0065
454.00,0.0068
453.00,0.0070
452.00,0.0069
451.00,0.0067
450.00,0.0065
449.00,0.0063
448.00,0.0062
447.00,0.0062
446.00,0.0064
445.00,0.0065
444.00,0.0064
443.00,0.0064
442.00,0.0064
441.00,0.0064
440.00,0.0064
439.00,0.0063
438.00,0.0063
437.00,0.0062
436.00,0.0061
435.00,0.0059
434.00,0.0057
433.00,0.0055
432.00,0.0053
431.00,0.0054
430.00,0.0057
429.00,0.0058
428.00,0.0058
427.00,0.0058
426.00,0.0060
425.00,0.0062
424.00,0.0062
423.00,0.0059
422.00,0.0056
421.00,0.0054
420.00,0.0053
419.00,0.0054
418.00,0.0056
417.00,0.0060
416.00,0.0064
415.00,0.0068
414.00,0.0069
413.00,0.0069
412.00,0.0068
411.00,0.0067
410.00,0.0066
409.00,0.0066
408.00,0.0067
407.00,0.0067
406.00,0.0063
405.00,0.0053
404.00,0.0043
403.00,0.0038
402.00,0.0041
401.00,0.0046
400.00,0.0047
