Created as New Dataset,Sample 710 By YargerLab Date Wednesday, June 18 2025
cm-1,A
4000.00,0.0027
3999.00,0.0027
3998.00,0.0027
3997.00,0.0027
3996.00,0.0027
3995.00,0.0028
3994.00,0.0028
3993.00,0.0028
3992.00,0.0027
3991.00,0.0027
3990.00,0.0027
3989.00,0.0027
3988.00,0.0027
3987.00,0.0027
3986.00,0.0027
3985.00,0.0027
3984.00,0.0027
3983.00,0.0027
3982.00,0.0028
3981.00,0.0028
3980.00,0.0028
3979.00,0.0028
3978.00,0.0028
3977.00,0.0028
3976.00,0.0027
3975.00,0.0027
3974.00,0.0027
3973.00,0.0027
3972.00,0.0027
3971.00,0.0027
3970.00,0.0027
3969.00,0.0027
3968.00,0.0027
3967.00,0.0027
3966.00,0.0027
3965.00,0.0027
3964.00,0.0027
3963.00,0.0027
3962.00,0.0027
3961.00,0.0027
3960.00,0.0027
3959.00,0.0027
3958.00,0.0027
3957.00,0.0027
3956.00,0.0027
3955.00,0.0027
3954.00,0.0027
3953.00,0.0027
3952.00,0.0026
3951.00,0.0026
3950.00,0.0026
3949.00,0.0026
3948.00,0.0026
3947.00,0.0026
3946.00,0.0026
3945.00,0.0026
3944.00,0.0026
3943.00,0.0026
3942.00,0.0027
3941.00,0.0027
3940.00,0.0027
3939.00,0.0027
3938.00,0.0027
3937.00,0.0027
3936.00,0.0027
3935.00,0.0026
3934.00,0.0026
3933.00,0.0026
3932.00,0.0026
3931.00,0.0026
3930.00,0.0026
3929.00,0.0026
3928.00,0.0026
3927.00,0.0026
3926.00,0.0026
3925.00,0.0026
3924.00,0.0026
3923.00,0.0027
3922.00,0.0027
3921.00,0.0027
3920.00,0.0027
3919.00,0.0026
3918.00,0.0026
3917.00,0.0026
3916.00,0.0026
3915.00,0.0026
3914.00,0.0026
3913.00,0.0026
3912.00,0.0026
3911.00,0.0026
3910.00,0.0026
3909.00,0.0026
3908.00,0.0027
3907.00,0.0027
3906.00,0.0027
3905.00,0.0026
3904.00,0.0026
3903.00,0.0026
3902.00,0.0025
3901.00,0.0025
3900.00,0.0025
3899.00,0.0025
3898.00,0.0025
3897.00,0.0025
3896.00,0.0026
3895.00,0.0026
3894.00,0.0026
3893.00,0.0026
3892.00,0.0026
3891.00,0.0026
3890.00,0.0026
3889.00,0.0026
3888.00,0.0026
3887.00,0.0026
3886.00,0.0025
3885.00,0.0026
3884.00,0.0026
3883.00,0.0025
3882.00,0.0025
3881.00,0.0025
3880.00,0.0025
3879.00,0.0026
3878.00,0.0026
3877.00,0.0026
3876.00,0.0025
3875.00,0.0025
3874.00,0.0026
3873.00,0.0026
3872.00,0.0026
3871.00,0.0026
3870.00,0.0025
3869.00,0.0025
3868.00,0.0025
3867.00,0.0025
3866.00,0.0025
3865.00,0.0025
3864.00,0.0025
3863.00,0.0026
3862.00,0.0026
3861.00,0.0026
3860.00,0.0026
3859.00,0.0026
3858.00,0.0026
3857.00,0.0026
3856.00,0.0026
3855.00,0.0026
3854.00,0.0026
3853.00,0.0025
3852.00,0.0025
3851.00,0.0025
3850.00,0.0024
3849.00,0.0024
3848.00,0.0024
3847.00,0.0025
3846.00,0.0025
3845.00,0.0025
3844.00,0.0025
3843.00,0.0025
3842.00,0.0025
3841.00,0.0025
3840.00,0.0024
3839.00,0.0024
3838.00,0.0024
3837.00,0.0024
3836.00,0.0024
3835.00,0.0025
3834.00,0.0025
3833.00,0.0025
3832.00,0.0025
3831.00,0.0025
3830.00,0.0025
3829.00,0.0025
3828.00,0.0024
3827.00,0.0024
3826.00,0.0024
3825.00,0.0025
3824.00,0.0024
3823.00,0.0024
3822.00,0.0024
3821.00,0.0024
3820.00,0.0024
3819.00,0.0024
3818.00,0.0024
3817.00,0.0024
3816.00,0.0024
3815.00,0.0024
3814.00,0.0025
3813.00,0.0025
3812.00,0.0025
3811.00,0.0025
3810.00,0.0025
3809.00,0.0025
3808.00,0.0025
3807.00,0.0025
3806.00,0.0025
3805.00,0.0025
3804.00,0.0024
3803.00,0.0024
3802.00,0.0024
3801.00,0.0024
3800.00,0.0024
3799.00,0.0024
3798.00,0.0024
3797.00,0.0024
3796.00,0.0024
3795.00,0.0025
3794.00,0.0025
3793.00,0.0025
3792.00,0.0025
3791.00,0.0025
3790.00,0.0025
3789.00,0.0025
3788.00,0.0025
3787.00,0.0025
3786.00,0.0025
3785.00,0.0025
3784.00,0.0025
3783.00,0.0025
3782.00,0.0025
3781.00,0.0025
3780.00,0.0025
3779.00,0.0025
3778.00,0.0026
3777.00,0.0026
3776.00,0.0026
3775.00,0.0026
3774.00,0.0026
3773.00,0.0026
3772.00,0.0026
3771.00,0.0026
3770.00,0.0026
3769.00,0.0025
3768.00,0.0025
3767.00,0.0025
3766.00,0.0025
3765.00,0.0025
3764.00,0.0025
3763.00,0.0025
3762.00,0.0025
3761.00,0.0025
3760.00,0.0025
3759.00,0.0025
3758.00,0.0025
3757.00,0.0024
3756.00,0.0024
3755.00,0.0024
3754.00,0.0024
3753.00,0.0024
3752.00,0.0023
3751.00,0.0023
3750.00,0.0023
3749.00,0.0023
3748.00,0.0023
3747.00,0.0023
3746.00,0.0023
3745.00,0.0022
3744.00,0.0023
3743.00,0.0023
3742.00,0.0023
3741.00,0.0023
3740.00,0.0023
3739.00,0.0023
3738.00,0.0022
3737.00,0.0022
3736.00,0.0022
3735.00,0.0022
3734.00,0.0022
3733.00,0.0022
3732.00,0.0022
3731.00,0.0022
3730.00,0.0022
3729.00,0.0023
3728.00,0.0023
3727.00,0.0023
3726.00,0.0023
3725.00,0.0023
3724.00,0.0023
3723.00,0.0022
3722.00,0.0022
3721.00,0.0023
3720.00,0.0023
3719.00,0.0023
3718.00,0.0024
3717.00,0.0024
3716.00,0.0025
3715.00,0.0024
3714.00,0.0024
3713.00,0.0023
3712.00,0.0022
3711.00,0.0022
3710.00,0.0022
3709.00,0.0022
3708.00,0.0022
3707.00,0.0022
3706.00,0.0022
3705.00,0.0023
3704.00,0.0023
3703.00,0.0023
3702.00,0.0023
3701.00,0.0023
3700.00,0.0024
3699.00,0.0024
3698.00,0.0023
3697.00,0.0023
3696.00,0.0023
3695.00,0.0023
3694.00,0.0023
3693.00,0.0023
3692.00,0.0023
3691.00,0.0023
3690.00,0.0023
3689.00,0.0022
3688.00,0.0022
3687.00,0.0022
3686.00,0.0022
3685.00,0.0022
3684.00,0.0022
3683.00,0.0022
3682.00,0.0022
3681.00,0.0022
3680.00,0.0022
3679.00,0.0022
3678.00,0.0022
3677.00,0.0022
3676.00,0.0021
3675.00,0.0021
3674.00,0.0021
3673.00,0.0021
3672.00,0.0021
3671.00,0.0020
3670.00,0.0020
3669.00,0.0021
3668.00,0.0021
3667.00,0.0021
3666.00,0.0021
3665.00,0.0022
3664.00,0.0022
3663.00,0.0022
3662.00,0.0022
3661.00,0.0022
3660.00,0.0022
3659.00,0.0022
3658.00,0.0022
3657.00,0.0022
3656.00,0.0022
3655.00,0.0022
3654.00,0.0021
3653.00,0.0021
3652.00,0.0020
3651.00,0.0020
3650.00,0.0019
3649.00,0.0019
3648.00,0.0020
3647.00,0.0020
3646.00,0.0020
3645.00,0.0021
3644.00,0.0021
3643.00,0.0021
3642.00,0.0022
3641.00,0.0022
3640.00,0.0023
3639.00,0.0023
3638.00,0.0023
3637.00,0.0023
3636.00,0.0022
3635.00,0.0022
3634.00,0.0022
3633.00,0.0022
3632.00,0.0022
3631.00,0.0022
3630.00,0.0022
3629.00,0.0022
3628.00,0.0022
3627.00,0.0022
3626.00,0.0022
3625.00,0.0022
3624.00,0.0023
3623.00,0.0023
3622.00,0.0023
3621.00,0.0023
3620.00,0.0023
3619.00,0.0023
3618.00,0.0023
3617.00,0.0024
3616.00,0.0024
3615.00,0.0024
3614.00,0.0025
3613.00,0.0025
3612.00,0.0025
3611.00,0.0025
3610.00,0.0025
3609.00,0.0025
3608.00,0.0025
3607.00,0.0025
3606.00,0.0025
3605.00,0.0025
3604.00,0.0025
3603.00,0.0025
3602.00,0.0025
3601.00,0.0025
3600.00,0.0025
3599.00,0.0025
3598.00,0.0026
3597.00,0.0026
3596.00,0.0026
3595.00,0.0026
3594.00,0.0026
3593.00,0.0026
3592.00,0.0026
3591.00,0.0026
3590.00,0.0026
3589.00,0.0027
3588.00,0.0027
3587.00,0.0027
3586.00,0.0027
3585.00,0.0027
3584.00,0.0027
3583.00,0.0027
3582.00,0.0027
3581.00,0.0028
3580.00,0.0028
3579.00,0.0028
3578.00,0.0029
3577.00,0.0029
3576.00,0.0029
3575.00,0.0029
3574.00,0.0030
3573.00,0.0030
3572.00,0.0030
3571.00,0.0030
3570.00,0.0030
3569.00,0.0030
3568.00,0.0030
3567.00,0.0030
3566.00,0.0030
3565.00,0.0030
3564.00,0.0031
3563.00,0.0031
3562.00,0.0031
3561.00,0.0032
3560.00,0.0032
3559.00,0.0033
3558.00,0.0033
3557.00,0.0033
3556.00,0.0033
3555.00,0.0034
3554.00,0.0034
3553.00,0.0035
3552.00,0.0035
3551.00,0.0035
3550.00,0.0035
3549.00,0.0035
3548.00,0.0036
3547.00,0.0036
3546.00,0.0036
3545.00,0.0037
3544.00,0.0037
3543.00,0.0037
3542.00,0.0038
3541.00,0.0038
3540.00,0.0039
3539.00,0.0039
3538.00,0.0040
3537.00,0.0041
3536.00,0.0041
3535.00,0.0042
3534.00,0.0042
3533.00,0.0042
3532.00,0.0043
3531.00,0.0043
3530.00,0.0043
3529.00,0.0043
3528.00,0.0044
3527.00,0.0044
3526.00,0.0045
3525.00,0.0045
3524.00,0.0046
3523.00,0.0046
3522.00,0.0047
3521.00,0.0048
3520.00,0.0048
3519.00,0.0049
3518.00,0.0050
3517.00,0.0050
3516.00,0.0051
3515.00,0.0052
3514.00,0.0053
3513.00,0.0054
3512.00,0.0055
3511.00,0.0056
3510.00,0.0056
3509.00,0.0057
3508.00,0.0058
3507.00,0.0059
3506.00,0.0060
3505.00,0.0061
3504.00,0.0063
3503.00,0.0064
3502.00,0.0065
3501.00,0.0066
3500.00,0.0068
3499.00,0.0069
3498.00,0.0070
3497.00,0.0072
3496.00,0.0073
3495.00,0.0075
3494.00,0.0077
3493.00,0.0078
3492.00,0.0080
3491.00,0.0082
3490.00,0.0084
3489.00,0.0086
3488.00,0.0088
3487.00,0.0090
3486.00,0.0092
3485.00,0.0094
3484.00,0.0097
3483.00,0.0100
3482.00,0.0102
3481.00,0.0105
3480.00,0.0108
3479.00,0.0110
3478.00,0.0113
3477.00,0.0116
3476.00,0.0119
3475.00,0.0122
3474.00,0.0126
3473.00,0.0130
3472.00,0.0133
3471.00,0.0138
3470.00,0.0142
3469.00,0.0148
3468.00,0.0154
3467.00,0.0161
3466.00,0.0169
3465.00,0.0178
3464.00,0.0188
3463.00,0.0199
3462.00,0.0211
3461.00,0.0225
3460.00,0.0241
3459.00,0.0258
3458.00,0.0276
3457.00,0.0296
3456.00,0.0316
3455.00,0.0337
3454.00,0.0356
3453.00,0.0374
3452.00,0.0389
3451.00,0.0400
3450.00,0.0407
3449.00,0.0411
3448.00,0.0410
3447.00,0.0405
3446.00,0.0397
3445.00,0.0386
3444.00,0.0373
3443.00,0.0358
3442.00,0.0342
3441.00,0.0326
3440.00,0.0310
3439.00,0.0294
3438.00,0.0279
3437.00,0.0265
3436.00,0.0251
3435.00,0.0239
3434.00,0.0227
3433.00,0.0217
3432.00,0.0207
3431.00,0.0198
3430.00,0.0189
3429.00,0.0182
3428.00,0.0175
3427.00,0.0169
3426.00,0.0164
3425.00,0.0159
3424.00,0.0155
3423.00,0.0151
3422.00,0.0148
3421.00,0.0145
3420.00,0.0142
3419.00,0.0140
3418.00,0.0138
3417.00,0.0136
3416.00,0.0134
3415.00,0.0132
3414.00,0.0130
3413.00,0.0128
3412.00,0.0127
3411.00,0.0125
3410.00,0.0124
3409.00,0.0123
3408.00,0.0122
3407.00,0.0122
3406.00,0.0121
3405.00,0.0120
3404.00,0.0120
3403.00,0.0119
3402.00,0.0118
3401.00,0.0118
3400.00,0.0118
3399.00,0.0117
3398.00,0.0117
3397.00,0.0116
3396.00,0.0116
3395.00,0.0116
3394.00,0.0116
3393.00,0.0115
3392.00,0.0115
3391.00,0.0115
3390.00,0.0115
3389.00,0.0115
3388.00,0.0114
3387.00,0.0114
3386.00,0.0114
3385.00,0.0114
3384.00,0.0114
3383.00,0.0114
3382.00,0.0114
3381.00,0.0114
3380.00,0.0114
3379.00,0.0114
3378.00,0.0114
3377.00,0.0114
3376.00,0.0114
3375.00,0.0114
3374.00,0.0114
3373.00,0.0114
3372.00,0.0114
3371.00,0.0114
3370.00,0.0114
3369.00,0.0115
3368.00,0.0115
3367.00,0.0115
3366.00,0.0115
3365.00,0.0115
3364.00,0.0116
3363.00,0.0116
3362.00,0.0116
3361.00,0.0116
3360.00,0.0117
3359.00,0.0117
3358.00,0.0117
3357.00,0.0117
3356.00,0.0118
3355.00,0.0118
3354.00,0.0118
3353.00,0.0119
3352.00,0.0119
3351.00,0.0120
3350.00,0.0120
3349.00,0.0121
3348.00,0.0121
3347.00,0.0121
3346.00,0.0121
3345.00,0.0122
3344.00,0.0122
3343.00,0.0122
3342.00,0.0122
3341.00,0.0123
3340.00,0.0123
3339.00,0.0123
3338.00,0.0123
3337.00,0.0124
3336.00,0.0124
3335.00,0.0124
3334.00,0.0125
3333.00,0.0125
3332.00,0.0126
3331.00,0.0127
3330.00,0.0128
3329.00,0.0128
3328.00,0.0128
3327.00,0.0129
3326.00,0.0129
3325.00,0.0130
3324.00,0.0130
3323.00,0.0131
3322.00,0.0132
3321.00,0.0132
3320.00,0.0133
3319.00,0.0134
3318.00,0.0135
3317.00,0.0135
3316.00,0.0136
3315.00,0.0136
3314.00,0.0136
3313.00,0.0137
3312.00,0.0137
3311.00,0.0137
3310.00,0.0138
3309.00,0.0138
3308.00,0.0139
3307.00,0.0140
3306.00,0.0140
3305.00,0.0141
3304.00,0.0142
3303.00,0.0143
3302.00,0.0144
3301.00,0.0145
3300.00,0.0146
3299.00,0.0146
3298.00,0.0147
3297.00,0.0148
3296.00,0.0148
3295.00,0.0149
3294.00,0.0149
3293.00,0.0150
3292.00,0.0151
3291.00,0.0152
3290.00,0.0154
3289.00,0.0155
3288.00,0.0156
3287.00,0.0157
3286.00,0.0158
3285.00,0.0159
3284.00,0.0160
3283.00,0.0161
3282.00,0.0162
3281.00,0.0163
3280.00,0.0164
3279.00,0.0164
3278.00,0.0165
3277.00,0.0166
3276.00,0.0166
3275.00,0.0167
3274.00,0.0167
3273.00,0.0167
3272.00,0.0168
3271.00,0.0169
3270.00,0.0171
3269.00,0.0173
3268.00,0.0175
3267.00,0.0176
3266.00,0.0178
3265.00,0.0179
3264.00,0.0180
3263.00,0.0180
3262.00,0.0181
3261.00,0.0181
3260.00,0.0182
3259.00,0.0182
3258.00,0.0183
3257.00,0.0183
3256.00,0.0184
3255.00,0.0185
3254.00,0.0186
3253.00,0.0187
3252.00,0.0187
3251.00,0.0188
3250.00,0.0188
3249.00,0.0188
3248.00,0.0189
3247.00,0.0189
3246.00,0.0190
3245.00,0.0191
3244.00,0.0193
3243.00,0.0194
3242.00,0.0194
3241.00,0.0195
3240.00,0.0196
3239.00,0.0197
3238.00,0.0198
3237.00,0.0198
3236.00,0.0199
3235.00,0.0199
3234.00,0.0200
3233.00,0.0201
3232.00,0.0202
3231.00,0.0203
3230.00,0.0204
3229.00,0.0205
3228.00,0.0206
3227.00,0.0207
3226.00,0.0208
3225.00,0.0209
3224.00,0.0209
3223.00,0.0210
3222.00,0.0210
3221.00,0.0211
3220.00,0.0212
3219.00,0.0213
3218.00,0.0214
3217.00,0.0215
3216.00,0.0215
3215.00,0.0216
3214.00,0.0217
3213.00,0.0218
3212.00,0.0219
3211.00,0.0220
3210.00,0.0221
3209.00,0.0222
3208.00,0.0223
3207.00,0.0224
3206.00,0.0225
3205.00,0.0226
3204.00,0.0227
3203.00,0.0228
3202.00,0.0229
3201.00,0.0230
3200.00,0.0230
3199.00,0.0231
3198.00,0.0231
3197.00,0.0232
3196.00,0.0233
3195.00,0.0233
3194.00,0.0234
3193.00,0.0235
3192.00,0.0236
3191.00,0.0236
3190.00,0.0237
3189.00,0.0237
3188.00,0.0238
3187.00,0.0239
3186.00,0.0239
3185.00,0.0240
3184.00,0.0241
3183.00,0.0241
3182.00,0.0242
3181.00,0.0242
3180.00,0.0243
3179.00,0.0243
3178.00,0.0244
3177.00,0.0244
3176.00,0.0245
3175.00,0.0245
3174.00,0.0246
3173.00,0.0246
3172.00,0.0246
3171.00,0.0246
3170.00,0.0247
3169.00,0.0247
3168.00,0.0248
3167.00,0.0249
3166.00,0.0249
3165.00,0.0249
3164.00,0.0250
3163.00,0.0250
3162.00,0.0250
3161.00,0.0250
3160.00,0.0250
3159.00,0.0250
3158.00,0.0250
3157.00,0.0250
3156.00,0.0250
3155.00,0.0249
3154.00,0.0249
3153.00,0.0250
3152.00,0.0251
3151.00,0.0253
3150.00,0.0254
3149.00,0.0256
3148.00,0.0257
3147.00,0.0258
3146.00,0.0259
3145.00,0.0259
3144.00,0.0260
3143.00,0.0261
3142.00,0.0261
3141.00,0.0261
3140.00,0.0262
3139.00,0.0263
3138.00,0.0264
3137.00,0.0265
3136.00,0.0266
3135.00,0.0267
3134.00,0.0268
3133.00,0.0269
3132.00,0.0269
3131.00,0.0269
3130.00,0.0270
3129.00,0.0271
3128.00,0.0272
3127.00,0.0272
3126.00,0.0273
3125.00,0.0273
3124.00,0.0273
3123.00,0.0273
3122.00,0.0272
3121.00,0.0272
3120.00,0.0272
3119.00,0.0273
3118.00,0.0273
3117.00,0.0274
3116.00,0.0276
3115.00,0.0277
3114.00,0.0278
3113.00,0.0279
3112.00,0.0280
3111.00,0.0280
3110.00,0.0281
3109.00,0.0282
3108.00,0.0282
3107.00,0.0283
3106.00,0.0284
3105.00,0.0285
3104.00,0.0285
3103.00,0.0286
3102.00,0.0286
3101.00,0.0287
3100.00,0.0287
3099.00,0.0287
3098.00,0.0288
3097.00,0.0288
3096.00,0.0289
3095.00,0.0289
3094.00,0.0289
3093.00,0.0289
3092.00,0.0289
3091.00,0.0289
3090.00,0.0289
3089.00,0.0290
3088.00,0.0290
3087.00,0.0290
3086.00,0.0291
3085.00,0.0291
3084.00,0.0292
3083.00,0.0292
3082.00,0.0293
3081.00,0.0294
3080.00,0.0295
3079.00,0.0297
3078.00,0.0299
3077.00,0.0301
3076.00,0.0303
3075.00,0.0306
3074.00,0.0308
3073.00,0.0309
3072.00,0.0311
3071.00,0.0311
3070.00,0.0311
3069.00,0.0310
3068.00,0.0309
3067.00,0.0307
3066.00,0.0305
3065.00,0.0302
3064.00,0.0299
3063.00,0.0295
3062.00,0.0292
3061.00,0.0289
3060.00,0.0285
3059.00,0.0282
3058.00,0.0279
3057.00,0.0277
3056.00,0.0274
3055.00,0.0273
3054.00,0.0271
3053.00,0.0269
3052.00,0.0267
3051.00,0.0266
3050.00,0.0264
3049.00,0.0263
3048.00,0.0262
3047.00,0.0261
3046.00,0.0260
3045.00,0.0259
3044.00,0.0259
3043.00,0.0258
3042.00,0.0257
3041.00,0.0257
3040.00,0.0257
3039.00,0.0256
3038.00,0.0256
3037.00,0.0255
3036.00,0.0255
3035.00,0.0254
3034.00,0.0253
3033.00,0.0252
3032.00,0.0252
3031.00,0.0251
3030.00,0.0250
3029.00,0.0249
3028.00,0.0248
3027.00,0.0247
3026.00,0.0246
3025.00,0.0245
3024.00,0.0244
3023.00,0.0243
3022.00,0.0242
3021.00,0.0241
3020.00,0.0240
3019.00,0.0239
3018.00,0.0238
3017.00,0.0237
3016.00,0.0237
3015.00,0.0236
3014.00,0.0236
3013.00,0.0236
3012.00,0.0236
3011.00,0.0236
3010.00,0.0236
3009.00,0.0236
3008.00,0.0236
3007.00,0.0236
3006.00,0.0236
3005.00,0.0237
3004.00,0.0237
3003.00,0.0238
3002.00,0.0238
3001.00,0.0239
3000.00,0.0240
2999.00,0.0242
2998.00,0.0243
2997.00,0.0245
2996.00,0.0247
2995.00,0.0250
2994.00,0.0253
2993.00,0.0256
2992.00,0.0259
2991.00,0.0263
2990.00,0.0265
2989.00,0.0268
2988.00,0.0270
2987.00,0.0272
2986.00,0.0273
2985.00,0.0274
2984.00,0.0275
2983.00,0.0277
2982.00,0.0280
2981.00,0.0284
2980.00,0.0289
2979.00,0.0295
2978.00,0.0300
2977.00,0.0306
2976.00,0.0310
2975.00,0.0314
2974.00,0.0317
2973.00,0.0320
2972.00,0.0322
2971.00,0.0324
2970.00,0.0327
2969.00,0.0331
2968.00,0.0336
2967.00,0.0341
2966.00,0.0348
2965.00,0.0356
2964.00,0.0365
2963.00,0.0375
2962.00,0.0386
2961.00,0.0398
2960.00,0.0410
2959.00,0.0422
2958.00,0.0432
2957.00,0.0441
2956.00,0.0448
2955.00,0.0453
2954.00,0.0457
2953.00,0.0458
2952.00,0.0457
2951.00,0.0453
2950.00,0.0447
2949.00,0.0439
2948.00,0.0432
2947.00,0.0426
2946.00,0.0423
2945.00,0.0422
2944.00,0.0425
2943.00,0.0431
2942.00,0.0439
2941.00,0.0448
2940.00,0.0459
2939.00,0.0471
2938.00,0.0484
2937.00,0.0498
2936.00,0.0513
2935.00,0.0529
2934.00,0.0547
2933.00,0.0567
2932.00,0.0588
2931.00,0.0609
2930.00,0.0629
2929.00,0.0648
2928.00,0.0663
2927.00,0.0675
2926.00,0.0682
2925.00,0.0685
2924.00,0.0685
2923.00,0.0681
2922.00,0.0675
2921.00,0.0665
2920.00,0.0654
2919.00,0.0641
2918.00,0.0627
2917.00,0.0613
2916.00,0.0599
2915.00,0.0583
2914.00,0.0568
2913.00,0.0552
2912.00,0.0535
2911.00,0.0519
2910.00,0.0503
2909.00,0.0488
2908.00,0.0473
2907.00,0.0459
2906.00,0.0446
2905.00,0.0435
2904.00,0.0425
2903.00,0.0416
2902.00,0.0409
2901.00,0.0402
2900.00,0.0395
2899.00,0.0389
2898.00,0.0384
2897.00,0.0378
2896.00,0.0373
2895.00,0.0369
2894.00,0.0366
2893.00,0.0362
2892.00,0.0360
2891.00,0.0357
2890.00,0.0355
2889.00,0.0353
2888.00,0.0351
2887.00,0.0350
2886.00,0.0349
2885.00,0.0348
2884.00,0.0347
2883.00,0.0347
2882.00,0.0347
2881.00,0.0348
2880.00,0.0349
2879.00,0.0351
2878.00,0.0354
2877.00,0.0358
2876.00,0.0364
2875.00,0.0370
2874.00,0.0377
2873.00,0.0384
2872.00,0.0389
2871.00,0.0392
2870.00,0.0391
2869.00,0.0387
2868.00,0.0382
2867.00,0.0377
2866.00,0.0374
2865.00,0.0373
2864.00,0.0377
2863.00,0.0383
2862.00,0.0391
2861.00,0.0400
2860.00,0.0409
2859.00,0.0418
2858.00,0.0423
2857.00,0.0425
2856.00,0.0423
2855.00,0.0418
2854.00,0.0410
2853.00,0.0400
2852.00,0.0389
2851.00,0.0376
2850.00,0.0363
2849.00,0.0351
2848.00,0.0340
2847.00,0.0331
2846.00,0.0323
2845.00,0.0317
2844.00,0.0312
2843.00,0.0308
2842.00,0.0303
2841.00,0.0299
2840.00,0.0295
2839.00,0.0292
2838.00,0.0290
2837.00,0.0290
2836.00,0.0291
2835.00,0.0292
2834.00,0.0292
2833.00,0.0290
2832.00,0.0286
2831.00,0.0281
2830.00,0.0273
2829.00,0.0265
2828.00,0.0256
2827.00,0.0248
2826.00,0.0240
2825.00,0.0233
2824.00,0.0227
2823.00,0.0222
2822.00,0.0217
2821.00,0.0213
2820.00,0.0210
2819.00,0.0207
2818.00,0.0204
2817.00,0.0202
2816.00,0.0200
2815.00,0.0198
2814.00,0.0197
2813.00,0.0195
2812.00,0.0193
2811.00,0.0192
2810.00,0.0190
2809.00,0.0189
2808.00,0.0188
2807.00,0.0187
2806.00,0.0186
2805.00,0.0186
2804.00,0.0185
2803.00,0.0184
2802.00,0.0184
2801.00,0.0183
2800.00,0.0182
2799.00,0.0181
2798.00,0.0181
2797.00,0.0181
2796.00,0.0180
2795.00,0.0180
2794.00,0.0179
2793.00,0.0179
2792.00,0.0179
2791.00,0.0178
2790.00,0.0178
2789.00,0.0178
2788.00,0.0178
2787.00,0.0178
2786.00,0.0178
2785.00,0.0178
2784.00,0.0178
2783.00,0.0178
2782.00,0.0178
2781.00,0.0179
2780.00,0.0179
2779.00,0.0180
2778.00,0.0180
2777.00,0.0180
2776.00,0.0181
2775.00,0.0181
2774.00,0.0182
2773.00,0.0183
2772.00,0.0183
2771.00,0.0184
2770.00,0.0184
2769.00,0.0185
2768.00,0.0185
2767.00,0.0185
2766.00,0.0186
2765.00,0.0186
2764.00,0.0187
2763.00,0.0187
2762.00,0.0188
2761.00,0.0188
2760.00,0.0189
2759.00,0.0189
2758.00,0.0190
2757.00,0.0190
2756.00,0.0190
2755.00,0.0190
2754.00,0.0190
2753.00,0.0190
2752.00,0.0190
2751.00,0.0190
2750.00,0.0190
2749.00,0.0190
2748.00,0.0190
2747.00,0.0190
2746.00,0.0191
2745.00,0.0191
2744.00,0.0191
2743.00,0.0191
2742.00,0.0191
2741.00,0.0191
2740.00,0.0192
2739.00,0.0192
2738.00,0.0193
2737.00,0.0194
2736.00,0.0194
2735.00,0.0195
2734.00,0.0195
2733.00,0.0196
2732.00,0.0196
2731.00,0.0197
2730.00,0.0197
2729.00,0.0197
2728.00,0.0197
2727.00,0.0197
2726.00,0.0197
2725.00,0.0197
2724.00,0.0197
2723.00,0.0197
2722.00,0.0197
2721.00,0.0197
2720.00,0.0197
2719.00,0.0197
2718.00,0.0197
2717.00,0.0197
2716.00,0.0196
2715.00,0.0196
2714.00,0.0196
2713.00,0.0196
2712.00,0.0196
2711.00,0.0197
2710.00,0.0197
2709.00,0.0197
2708.00,0.0197
2707.00,0.0197
2706.00,0.0197
2705.00,0.0197
2704.00,0.0198
2703.00,0.0198
2702.00,0.0198
2701.00,0.0198
2700.00,0.0198
2699.00,0.0198
2698.00,0.0199
2697.00,0.0199
2696.00,0.0199
2695.00,0.0199
2694.00,0.0199
2693.00,0.0199
2692.00,0.0199
2691.00,0.0199
2690.00,0.0199
2689.00,0.0199
2688.00,0.0199
2687.00,0.0199
2686.00,0.0199
2685.00,0.0199
2684.00,0.0198
2683.00,0.0198
2682.00,0.0198
2681.00,0.0198
2680.00,0.0198
2679.00,0.0197
2678.00,0.0197
2677.00,0.0197
2676.00,0.0197
2675.00,0.0197
2674.00,0.0197
2673.00,0.0198
2672.00,0.0198
2671.00,0.0198
2670.00,0.0198
2669.00,0.0198
2668.00,0.0198
2667.00,0.0199
2666.00,0.0199
2665.00,0.0200
2664.00,0.0200
2663.00,0.0201
2662.00,0.0201
2661.00,0.0201
2660.00,0.0201
2659.00,0.0200
2658.00,0.0200
2657.00,0.0200
2656.00,0.0199
2655.00,0.0199
2654.00,0.0198
2653.00,0.0198
2652.00,0.0198
2651.00,0.0198
2650.00,0.0198
2649.00,0.0197
2648.00,0.0197
2647.00,0.0197
2646.00,0.0196
2645.00,0.0195
2644.00,0.0195
2643.00,0.0195
2642.00,0.0194
2641.00,0.0194
2640.00,0.0193
2639.00,0.0193
2638.00,0.0193
2637.00,0.0192
2636.00,0.0192
2635.00,0.0192
2634.00,0.0192
2633.00,0.0191
2632.00,0.0191
2631.00,0.0191
2630.00,0.0190
2629.00,0.0190
2628.00,0.0190
2627.00,0.0189
2626.00,0.0189
2625.00,0.0189
2624.00,0.0188
2623.00,0.0188
2622.00,0.0188
2621.00,0.0187
2620.00,0.0187
2619.00,0.0187
2618.00,0.0187
2617.00,0.0186
2616.00,0.0186
2615.00,0.0186
2614.00,0.0186
2613.00,0.0185
2612.00,0.0185
2611.00,0.0185
2610.00,0.0184
2609.00,0.0184
2608.00,0.0184
2607.00,0.0183
2606.00,0.0183
2605.00,0.0182
2604.00,0.0182
2603.00,0.0182
2602.00,0.0182
2601.00,0.0181
2600.00,0.0180
2599.00,0.0180
2598.00,0.0179
2597.00,0.0178
2596.00,0.0178
2595.00,0.0177
2594.00,0.0176
2593.00,0.0176
2592.00,0.0175
2591.00,0.0175
2590.00,0.0175
2589.00,0.0174
2588.00,0.0174
2587.00,0.0173
2586.00,0.0172
2585.00,0.0172
2584.00,0.0172
2583.00,0.0171
2582.00,0.0171
2581.00,0.0171
2580.00,0.0170
2579.00,0.0170
2578.00,0.0170
2577.00,0.0170
2576.00,0.0170
2575.00,0.0170
2574.00,0.0169
2573.00,0.0169
2572.00,0.0169
2571.00,0.0169
2570.00,0.0169
2569.00,0.0169
2568.00,0.0170
2567.00,0.0170
2566.00,0.0170
2565.00,0.0170
2564.00,0.0171
2563.00,0.0171
2562.00,0.0171
2561.00,0.0171
2560.00,0.0172
2559.00,0.0172
2558.00,0.0172
2557.00,0.0172
2556.00,0.0172
2555.00,0.0172
2554.00,0.0172
2553.00,0.0172
2552.00,0.0172
2551.00,0.0171
2550.00,0.0171
2549.00,0.0170
2548.00,0.0170
2547.00,0.0169
2546.00,0.0169
2545.00,0.0168
2544.00,0.0167
2543.00,0.0167
2542.00,0.0166
2541.00,0.0165
2540.00,0.0164
2539.00,0.0164
2538.00,0.0163
2537.00,0.0163
2536.00,0.0162
2535.00,0.0161
2534.00,0.0161
2533.00,0.0160
2532.00,0.0160
2531.00,0.0160
2530.00,0.0159
2529.00,0.0159
2528.00,0.0158
2527.00,0.0158
2526.00,0.0157
2525.00,0.0157
2524.00,0.0157
2523.00,0.0156
2522.00,0.0156
2521.00,0.0156
2520.00,0.0155
2519.00,0.0155
2518.00,0.0154
2517.00,0.0154
2516.00,0.0153
2515.00,0.0153
2514.00,0.0152
2513.00,0.0151
2512.00,0.0150
2511.00,0.0150
2510.00,0.0149
2509.00,0.0149
2508.00,0.0148
2507.00,0.0148
2506.00,0.0148
2505.00,0.0148
2504.00,0.0148
2503.00,0.0147
2502.00,0.0146
2501.00,0.0146
2500.00,0.0145
2499.00,0.0145
2498.00,0.0145
2497.00,0.0144
2496.00,0.0144
2495.00,0.0144
2494.00,0.0144
2493.00,0.0144
2492.00,0.0143
2491.00,0.0143
2490.00,0.0143
2489.00,0.0143
2488.00,0.0143
2487.00,0.0143
2486.00,0.0144
2485.00,0.0143
2484.00,0.0143
2483.00,0.0143
2482.00,0.0142
2481.00,0.0142
2480.00,0.0142
2479.00,0.0142
2478.00,0.0142
2477.00,0.0142
2476.00,0.0142
2475.00,0.0142
2474.00,0.0141
2473.00,0.0141
2472.00,0.0141
2471.00,0.0141
2470.00,0.0140
2469.00,0.0140
2468.00,0.0140
2467.00,0.0140
2466.00,0.0141
2465.00,0.0141
2464.00,0.0141
2463.00,0.0141
2462.00,0.0141
2461.00,0.0142
2460.00,0.0143
2459.00,0.0143
2458.00,0.0143
2457.00,0.0143
2456.00,0.0144
2455.00,0.0144
2454.00,0.0144
2453.00,0.0144
2452.00,0.0144
2451.00,0.0144
2450.00,0.0144
2449.00,0.0144
2448.00,0.0144
2447.00,0.0144
2446.00,0.0144
2445.00,0.0143
2444.00,0.0143
2443.00,0.0143
2442.00,0.0143
2441.00,0.0143
2440.00,0.0143
2439.00,0.0143
2438.00,0.0142
2437.00,0.0142
2436.00,0.0141
2435.00,0.0141
2434.00,0.0141
2433.00,0.0140
2432.00,0.0141
2431.00,0.0141
2430.00,0.0141
2429.00,0.0140
2428.00,0.0140
2427.00,0.0140
2426.00,0.0139
2425.00,0.0139
2424.00,0.0139
2423.00,0.0139
2422.00,0.0138
2421.00,0.0138
2420.00,0.0138
2419.00,0.0137
2418.00,0.0137
2417.00,0.0137
2416.00,0.0136
2415.00,0.0136
2414.00,0.0135
2413.00,0.0135
2412.00,0.0134
2411.00,0.0133
2410.00,0.0132
2409.00,0.0131
2408.00,0.0130
2407.00,0.0128
2406.00,0.0127
2405.00,0.0126
2404.00,0.0125
2403.00,0.0125
2402.00,0.0125
2401.00,0.0124
2400.00,0.0124
2399.00,0.0123
2398.00,0.0122
2397.00,0.0121
2396.00,0.0120
2395.00,0.0119
2394.00,0.0118
2393.00,0.0117
2392.00,0.0117
2391.00,0.0116
2390.00,0.0115
2389.00,0.0114
2388.00,0.0113
2387.00,0.0112
2386.00,0.0111
2385.00,0.0110
2384.00,0.0109
2383.00,0.0108
2382.00,0.0106
2381.00,0.0105
2380.00,0.0104
2379.00,0.0104
2378.00,0.0103
2377.00,0.0103
2376.00,0.0102
2375.00,0.0102
2374.00,0.0101
2373.00,0.0100
2372.00,0.0098
2371.00,0.0098
2370.00,0.0097
2369.00,0.0096
2368.00,0.0095
2367.00,0.0095
2366.00,0.0094
2365.00,0.0093
2364.00,0.0093
2363.00,0.0093
2362.00,0.0093
2361.00,0.0092
2360.00,0.0092
2359.00,0.0091
2358.00,0.0091
2357.00,0.0091
2356.00,0.0090
2355.00,0.0090
2354.00,0.0089
2353.00,0.0088
2352.00,0.0088
2351.00,0.0088
2350.00,0.0088
2349.00,0.0088
2348.00,0.0088
2347.00,0.0088
2346.00,0.0087
2345.00,0.0087
2344.00,0.0086
2343.00,0.0086
2342.00,0.0086
2341.00,0.0086
2340.00,0.0086
2339.00,0.0086
2338.00,0.0086
2337.00,0.0086
2336.00,0.0086
2335.00,0.0085
2334.00,0.0084
2333.00,0.0083
2332.00,0.0083
2331.00,0.0082
2330.00,0.0083
2329.00,0.0085
2328.00,0.0089
2327.00,0.0093
2326.00,0.0096
2325.00,0.0096
2324.00,0.0094
2323.00,0.0091
2322.00,0.0089
2321.00,0.0087
2320.00,0.0085
2319.00,0.0084
2318.00,0.0083
2317.00,0.0082
2316.00,0.0081
2315.00,0.0080
2314.00,0.0079
2313.00,0.0079
2312.00,0.0078
2311.00,0.0078
2310.00,0.0077
2309.00,0.0077
2308.00,0.0077
2307.00,0.0076
2306.00,0.0076
2305.00,0.0076
2304.00,0.0076
2303.00,0.0076
2302.00,0.0076
2301.00,0.0075
2300.00,0.0075
2299.00,0.0076
2298.00,0.0076
2297.00,0.0076
2296.00,0.0076
2295.00,0.0077
2294.00,0.0078
2293.00,0.0079
2292.00,0.0080
2291.00,0.0081
2290.00,0.0081
2289.00,0.0082
2288.00,0.0081
2287.00,0.0081
2286.00,0.0080
2285.00,0.0079
2284.00,0.0078
2283.00,0.0077
2282.00,0.0076
2281.00,0.0075
2280.00,0.0075
2279.00,0.0074
2278.00,0.0073
2277.00,0.0073
2276.00,0.0072
2275.00,0.0071
2274.00,0.0070
2273.00,0.0070
2272.00,0.0070
2271.00,0.0070
2270.00,0.0070
2269.00,0.0069
2268.00,0.0069
2267.00,0.0068
2266.00,0.0066
2265.00,0.0066
2264.00,0.0066
2263.00,0.0066
2262.00,0.0067
2261.00,0.0067
2260.00,0.0067
2259.00,0.0067
2258.00,0.0066
2257.00,0.0065
2256.00,0.0064
2255.00,0.0062
2254.00,0.0062
2253.00,0.0062
2252.00,0.0063
2251.00,0.0063
2250.00,0.0063
2249.00,0.0064
2248.00,0.0064
2247.00,0.0063
2246.00,0.0062
2245.00,0.0062
2244.00,0.0062
2243.00,0.0062
2242.00,0.0062
2241.00,0.0061
2240.00,0.0061
2239.00,0.0061
2238.00,0.0060
2237.00,0.0060
2236.00,0.0060
2235.00,0.0059
2234.00,0.0060
2233.00,0.0060
2232.00,0.0059
2231.00,0.0059
2230.00,0.0058
2229.00,0.0057
2228.00,0.0058
2227.00,0.0058
2226.00,0.0058
2225.00,0.0058
2224.00,0.0058
2223.00,0.0057
2222.00,0.0057
2221.00,0.0056
2220.00,0.0055
2219.00,0.0055
2218.00,0.0055
2217.00,0.0055
2216.00,0.0056
2215.00,0.0057
2214.00,0.0057
2213.00,0.0057
2212.00,0.0057
2211.00,0.0057
2210.00,0.0057
2209.00,0.0056
2208.00,0.0056
2207.00,0.0055
2206.00,0.0054
2205.00,0.0054
2204.00,0.0054
2203.00,0.0054
2202.00,0.0054
2201.00,0.0054
2200.00,0.0054
2199.00,0.0053
2198.00,0.0052
2197.00,0.0051
2196.00,0.0051
2195.00,0.0051
2194.00,0.0052
2193.00,0.0053
2192.00,0.0055
2191.00,0.0055
2190.00,0.0055
2189.00,0.0055
2188.00,0.0055
2187.00,0.0055
2186.00,0.0054
2185.00,0.0052
2184.00,0.0050
2183.00,0.0048
2182.00,0.0047
2181.00,0.0048
2180.00,0.0049
2179.00,0.0050
2178.00,0.0048
2177.00,0.0047
2176.00,0.0046
2175.00,0.0046
2174.00,0.0047
2173.00,0.0049
2172.00,0.0052
2171.00,0.0055
2170.00,0.0057
2169.00,0.0059
2168.00,0.0061
2167.00,0.0063
2166.00,0.0064
2165.00,0.0066
2164.00,0.0067
2163.00,0.0065
2162.00,0.0057
2161.00,0.0042
2160.00,0.0025
2159.00,0.0011
2158.00,0.0005
2157.00,0.0006
2156.00,0.0009
2155.00,0.0013
2154.00,0.0016
2153.00,0.0020
2152.00,0.0023
2151.00,0.0026
2150.00,0.0027
2149.00,0.0027
2148.00,0.0026
2147.00,0.0025
2146.00,0.0024
2145.00,0.0023
2144.00,0.0022
2143.00,0.0022
2142.00,0.0022
2141.00,0.0022
2140.00,0.0022
2139.00,0.0022
2138.00,0.0021
2137.00,0.0019
2136.00,0.0017
2135.00,0.0014
2134.00,0.0014
2133.00,0.0016
2132.00,0.0019
2131.00,0.0021
2130.00,0.0023
2129.00,0.0024
2128.00,0.0025
2127.00,0.0026
2126.00,0.0027
2125.00,0.0028
2124.00,0.0029
2123.00,0.0030
2122.00,0.0031
2121.00,0.0032
2120.00,0.0032
2119.00,0.0033
2118.00,0.0034
2117.00,0.0036
2116.00,0.0038
2115.00,0.0039
2114.00,0.0039
2113.00,0.0038
2112.00,0.0038
2111.00,0.0037
2110.00,0.0036
2109.00,0.0036
2108.00,0.0036
2107.00,0.0035
2106.00,0.0035
2105.00,0.0035
2104.00,0.0034
2103.00,0.0034
2102.00,0.0034
2101.00,0.0034
2100.00,0.0034
2099.00,0.0033
2098.00,0.0032
2097.00,0.0031
2096.00,0.0029
2095.00,0.0029
2094.00,0.0029
2093.00,0.0030
2092.00,0.0032
2091.00,0.0033
2090.00,0.0034
2089.00,0.0034
2088.00,0.0035
2087.00,0.0035
2086.00,0.0036
2085.00,0.0036
2084.00,0.0036
2083.00,0.0035
2082.00,0.0035
2081.00,0.0034
2080.00,0.0034
2079.00,0.0034
2078.00,0.0034
2077.00,0.0035
2076.00,0.0034
2075.00,0.0033
2074.00,0.0032
2073.00,0.0031
2072.00,0.0031
2071.00,0.0030
2070.00,0.0029
2069.00,0.0030
2068.00,0.0030
2067.00,0.0030
2066.00,0.0030
2065.00,0.0029
2064.00,0.0029
2063.00,0.0028
2062.00,0.0027
2061.00,0.0027
2060.00,0.0027
2059.00,0.0028
2058.00,0.0029
2057.00,0.0029
2056.00,0.0030
2055.00,0.0031
2054.00,0.0034
2053.00,0.0040
2052.00,0.0044
2051.00,0.0044
2050.00,0.0041
2049.00,0.0037
2048.00,0.0035
2047.00,0.0035
2046.00,0.0034
2045.00,0.0033
2044.00,0.0033
2043.00,0.0032
2042.00,0.0032
2041.00,0.0031
2040.00,0.0032
2039.00,0.0033
2038.00,0.0034
2037.00,0.0035
2036.00,0.0034
2035.00,0.0031
2034.00,0.0029
2033.00,0.0027
2032.00,0.0027
2031.00,0.0028
2030.00,0.0029
2029.00,0.0029
2028.00,0.0030
2027.00,0.0029
2026.00,0.0029
2025.00,0.0029
2024.00,0.0029
2023.00,0.0028
2022.00,0.0028
2021.00,0.0027
2020.00,0.0027
2019.00,0.0027
2018.00,0.0027
2017.00,0.0028
2016.00,0.0028
2015.00,0.0028
2014.00,0.0027
2013.00,0.0026
2012.00,0.0026
2011.00,0.0027
2010.00,0.0027
2009.00,0.0026
2008.00,0.0025
2007.00,0.0022
2006.00,0.0020
2005.00,0.0020
2004.00,0.0021
2003.00,0.0024
2002.00,0.0026
2001.00,0.0027
2000.00,0.0028
1999.00,0.0028
1998.00,0.0028
1997.00,0.0030
1996.00,0.0031
1995.00,0.0032
1994.00,0.0034
1993.00,0.0035
1992.00,0.0036
1991.00,0.0035
1990.00,0.0035
1989.00,0.0035
1988.00,0.0036
1987.00,0.0037
1986.00,0.0038
1985.00,0.0039
1984.00,0.0042
1983.00,0.0045
1982.00,0.0048
1981.00,0.0049
1980.00,0.0047
1979.00,0.0040
1978.00,0.0032
1977.00,0.0026
1976.00,0.0024
1975.00,0.0023
1974.00,0.0023
1973.00,0.0022
1972.00,0.0021
1971.00,0.0021
1970.00,0.0021
1969.00,0.0022
1968.00,0.0024
1967.00,0.0024
1966.00,0.0022
1965.00,0.0021
1964.00,0.0020
1963.00,0.0019
1962.00,0.0017
1961.00,0.0017
1960.00,0.0018
1959.00,0.0019
1958.00,0.0020
1957.00,0.0021
1956.00,0.0022
1955.00,0.0022
1954.00,0.0022
1953.00,0.0022
1952.00,0.0023
1951.00,0.0023
1950.00,0.0023
1949.00,0.0023
1948.00,0.0023
1947.00,0.0024
1946.00,0.0024
1945.00,0.0025
1944.00,0.0026
1943.00,0.0026
1942.00,0.0025
1941.00,0.0024
1940.00,0.0023
1939.00,0.0022
1938.00,0.0022
1937.00,0.0023
1936.00,0.0024
1935.00,0.0025
1934.00,0.0025
1933.00,0.0025
1932.00,0.0025
1931.00,0.0024
1930.00,0.0024
1929.00,0.0024
1928.00,0.0024
1927.00,0.0024
1926.00,0.0025
1925.00,0.0026
1924.00,0.0027
1923.00,0.0027
1922.00,0.0027
1921.00,0.0028
1920.00,0.0028
1919.00,0.0028
1918.00,0.0028
1917.00,0.0028
1916.00,0.0028
1915.00,0.0028
1914.00,0.0027
1913.00,0.0027
1912.00,0.0027
1911.00,0.0026
1910.00,0.0026
1909.00,0.0026
1908.00,0.0027
1907.00,0.0027
1906.00,0.0027
1905.00,0.0028
1904.00,0.0028
1903.00,0.0028
1902.00,0.0028
1901.00,0.0027
1900.00,0.0027
1899.00,0.0027
1898.00,0.0027
1897.00,0.0027
1896.00,0.0027
1895.00,0.0027
1894.00,0.0027
1893.00,0.0027
1892.00,0.0027
1891.00,0.0028
1890.00,0.0028
1889.00,0.0028
1888.00,0.0028
1887.00,0.0027
1886.00,0.0027
1885.00,0.0027
1884.00,0.0028
1883.00,0.0028
1882.00,0.0028
1881.00,0.0028
1880.00,0.0028
1879.00,0.0029
1878.00,0.0029
1877.00,0.0029
1876.00,0.0029
1875.00,0.0029
1874.00,0.0029
1873.00,0.0029
1872.00,0.0029
1871.00,0.0030
1870.00,0.0030
1869.00,0.0030
1868.00,0.0029
1867.00,0.0029
1866.00,0.0028
1865.00,0.0028
1864.00,0.0029
1863.00,0.0029
1862.00,0.0029
1861.00,0.0029
1860.00,0.0029
1859.00,0.0029
1858.00,0.0029
1857.00,0.0029
1856.00,0.0029
1855.00,0.0029
1854.00,0.0029
1853.00,0.0029
1852.00,0.0029
1851.00,0.0030
1850.00,0.0030
1849.00,0.0030
1848.00,0.0031
1847.00,0.0031
1846.00,0.0031
1845.00,0.0031
1844.00,0.0032
1843.00,0.0032
1842.00,0.0031
1841.00,0.0031
1840.00,0.0031
1839.00,0.0031
1838.00,0.0030
1837.00,0.0030
1836.00,0.0030
1835.00,0.0030
1834.00,0.0030
1833.00,0.0030
1832.00,0.0031
1831.00,0.0031
1830.00,0.0031
1829.00,0.0030
1828.00,0.0031
1827.00,0.0032
1826.00,0.0032
1825.00,0.0033
1824.00,0.0033
1823.00,0.0032
1822.00,0.0032
1821.00,0.0031
1820.00,0.0030
1819.00,0.0029
1818.00,0.0028
1817.00,0.0028
1816.00,0.0028
1815.00,0.0029
1814.00,0.0030
1813.00,0.0031
1812.00,0.0032
1811.00,0.0032
1810.00,0.0032
1809.00,0.0032
1808.00,0.0032
1807.00,0.0032
1806.00,0.0033
1805.00,0.0033
1804.00,0.0035
1803.00,0.0036
1802.00,0.0036
1801.00,0.0036
1800.00,0.0036
1799.00,0.0036
1798.00,0.0036
1797.00,0.0036
1796.00,0.0037
1795.00,0.0038
1794.00,0.0039
1793.00,0.0040
1792.00,0.0041
1791.00,0.0041
1790.00,0.0041
1789.00,0.0042
1788.00,0.0044
1787.00,0.0046
1786.00,0.0047
1785.00,0.0048
1784.00,0.0048
1783.00,0.0048
1782.00,0.0047
1781.00,0.0047
1780.00,0.0046
1779.00,0.0046
1778.00,0.0046
1777.00,0.0046
1776.00,0.0046
1775.00,0.0046
1774.00,0.0046
1773.00,0.0046
1772.00,0.0046
1771.00,0.0047
1770.00,0.0047
1769.00,0.0047
1768.00,0.0047
1767.00,0.0047
1766.00,0.0046
1765.00,0.0046
1764.00,0.0047
1763.00,0.0047
1762.00,0.0048
1761.00,0.0047
1760.00,0.0047
1759.00,0.0047
1758.00,0.0047
1757.00,0.0047
1756.00,0.0047
1755.00,0.0047
1754.00,0.0046
1753.00,0.0046
1752.00,0.0047
1751.00,0.0047
1750.00,0.0047
1749.00,0.0047
1748.00,0.0047
1747.00,0.0048
1746.00,0.0048
1745.00,0.0049
1744.00,0.0050
1743.00,0.0050
1742.00,0.0050
1741.00,0.0050
1740.00,0.0051
1739.00,0.0051
1738.00,0.0052
1737.00,0.0052
1736.00,0.0053
1735.00,0.0054
1734.00,0.0054
1733.00,0.0056
1732.00,0.0057
1731.00,0.0059
1730.00,0.0060
1729.00,0.0061
1728.00,0.0062
1727.00,0.0063
1726.00,0.0064
1725.00,0.0065
1724.00,0.0067
1723.00,0.0069
1722.00,0.0070
1721.00,0.0071
1720.00,0.0072
1719.00,0.0074
1718.00,0.0075
1717.00,0.0076
1716.00,0.0078
1715.00,0.0080
1714.00,0.0080
1713.00,0.0081
1712.00,0.0082
1711.00,0.0083
1710.00,0.0083
1709.00,0.0084
1708.00,0.0085
1707.00,0.0086
1706.00,0.0087
1705.00,0.0089
1704.00,0.0089
1703.00,0.0090
1702.00,0.0090
1701.00,0.0092
1700.00,0.0095
1699.00,0.0096
1698.00,0.0097
1697.00,0.0099
1696.00,0.0104
1695.00,0.0109
1694.00,0.0113
1693.00,0.0117
1692.00,0.0120
1691.00,0.0124
1690.00,0.0128
1689.00,0.0131
1688.00,0.0133
1687.00,0.0134
1686.00,0.0136
1685.00,0.0141
1684.00,0.0148
1683.00,0.0154
1682.00,0.0157
1681.00,0.0158
1680.00,0.0160
1679.00,0.0161
1678.00,0.0163
1677.00,0.0166
1676.00,0.0171
1675.00,0.0176
1674.00,0.0181
1673.00,0.0184
1672.00,0.0187
1671.00,0.0192
1670.00,0.0199
1669.00,0.0208
1668.00,0.0215
1667.00,0.0221
1666.00,0.0225
1665.00,0.0229
1664.00,0.0236
1663.00,0.0245
1662.00,0.0253
1661.00,0.0261
1660.00,0.0268
1659.00,0.0275
1658.00,0.0282
1657.00,0.0287
1656.00,0.0292
1655.00,0.0300
1654.00,0.0319
1653.00,0.0352
1652.00,0.0382
1651.00,0.0400
1650.00,0.0412
1649.00,0.0429
1648.00,0.0459
1647.00,0.0508
1646.00,0.0567
1645.00,0.0624
1644.00,0.0676
1643.00,0.0723
1642.00,0.0768
1641.00,0.0810
1640.00,0.0849
1639.00,0.0882
1638.00,0.0915
1637.00,0.0958
1636.00,0.1019
1635.00,0.1081
1634.00,0.1119
1633.00,0.1131
1632.00,0.1127
1631.00,0.1112
1630.00,0.1089
1629.00,0.1056
1628.00,0.1016
1627.00,0.0970
1626.00,0.0922
1625.00,0.0874
1624.00,0.0826
1623.00,0.0781
1622.00,0.0739
1621.00,0.0702
1620.00,0.0667
1619.00,0.0634
1618.00,0.0605
1617.00,0.0580
1616.00,0.0560
1615.00,0.0541
1614.00,0.0524
1613.00,0.0507
1612.00,0.0491
1611.00,0.0477
1610.00,0.0465
1609.00,0.0456
1608.00,0.0448
1607.00,0.0440
1606.00,0.0435
1605.00,0.0431
1604.00,0.0429
1603.00,0.0429
1602.00,0.0431
1601.00,0.0436
1600.00,0.0444
1599.00,0.0454
1598.00,0.0467
1597.00,0.0486
1596.00,0.0510
1595.00,0.0541
1594.00,0.0578
1593.00,0.0623
1592.00,0.0673
1591.00,0.0726
1590.00,0.0781
1589.00,0.0834
1588.00,0.0885
1587.00,0.0930
1586.00,0.0972
1585.00,0.1009
1584.00,0.1045
1583.00,0.1076
1582.00,0.1104
1581.00,0.1127
1580.00,0.1143
1579.00,0.1151
1578.00,0.1157
1577.00,0.1169
1576.00,0.1185
1575.00,0.1194
1574.00,0.1186
1573.00,0.1168
1572.00,0.1147
1571.00,0.1128
1570.00,0.1112
1569.00,0.1094
1568.00,0.1072
1567.00,0.1045
1566.00,0.1014
1565.00,0.0981
1564.00,0.0948
1563.00,0.0914
1562.00,0.0877
1561.00,0.0840
1560.00,0.0807
1559.00,0.0776
1558.00,0.0747
1557.00,0.0717
1556.00,0.0686
1555.00,0.0656
1554.00,0.0628
1553.00,0.0601
1552.00,0.0576
1551.00,0.0553
1550.00,0.0531
1549.00,0.0510
1548.00,0.0491
1547.00,0.0473
1546.00,0.0457
1545.00,0.0442
1544.00,0.0427
1543.00,0.0414
1542.00,0.0401
1541.00,0.0390
1540.00,0.0383
1539.00,0.0379
1538.00,0.0374
1537.00,0.0367
1536.00,0.0362
1535.00,0.0358
1534.00,0.0357
1533.00,0.0360
1532.00,0.0363
1531.00,0.0367
1530.00,0.0371
1529.00,0.0377
1528.00,0.0386
1527.00,0.0396
1526.00,0.0403
1525.00,0.0406
1524.00,0.0404
1523.00,0.0398
1522.00,0.0390
1521.00,0.0380
1520.00,0.0367
1519.00,0.0351
1518.00,0.0334
1517.00,0.0316
1516.00,0.0301
1515.00,0.0288
1514.00,0.0277
1513.00,0.0268
1512.00,0.0261
1511.00,0.0254
1510.00,0.0247
1509.00,0.0241
1508.00,0.0235
1507.00,0.0231
1506.00,0.0228
1505.00,0.0226
1504.00,0.0223
1503.00,0.0219
1502.00,0.0216
1501.00,0.0212
1500.00,0.0210
1499.00,0.0207
1498.00,0.0204
1497.00,0.0203
1496.00,0.0203
1495.00,0.0202
1494.00,0.0201
1493.00,0.0199
1492.00,0.0198
1491.00,0.0198
1490.00,0.0196
1489.00,0.0196
1488.00,0.0195
1487.00,0.0194
1486.00,0.0194
1485.00,0.0195
1484.00,0.0197
1483.00,0.0201
1482.00,0.0205
1481.00,0.0212
1480.00,0.0219
1479.00,0.0227
1478.00,0.0236
1477.00,0.0246
1476.00,0.0257
1475.00,0.0268
1474.00,0.0281
1473.00,0.0302
1472.00,0.0331
1471.00,0.0360
1470.00,0.0385
1469.00,0.0404
1468.00,0.0415
1467.00,0.0420
1466.00,0.0419
1465.00,0.0421
1464.00,0.0428
1463.00,0.0440
1462.00,0.0456
1461.00,0.0475
1460.00,0.0499
1459.00,0.0531
1458.00,0.0577
1457.00,0.0638
1456.00,0.0698
1455.00,0.0744
1454.00,0.0785
1453.00,0.0832
1452.00,0.0887
1451.00,0.0944
1450.00,0.1001
1449.00,0.1058
1448.00,0.1113
1447.00,0.1159
1446.00,0.1191
1445.00,0.1212
1444.00,0.1223
1443.00,0.1221
1442.00,0.1205
1441.00,0.1178
1440.00,0.1141
1439.00,0.1100
1438.00,0.1060
1437.00,0.1026
1436.00,0.0995
1435.00,0.0966
1434.00,0.0936
1433.00,0.0905
1432.00,0.0874
1431.00,0.0842
1430.00,0.0809
1429.00,0.0776
1428.00,0.0745
1427.00,0.0716
1426.00,0.0690
1425.00,0.0666
1424.00,0.0646
1423.00,0.0628
1422.00,0.0613
1421.00,0.0600
1420.00,0.0592
1419.00,0.0587
1418.00,0.0584
1417.00,0.0580
1416.00,0.0575
1415.00,0.0571
1414.00,0.0568
1413.00,0.0567
1412.00,0.0567
1411.00,0.0569
1410.00,0.0571
1409.00,0.0574
1408.00,0.0576
1407.00,0.0580
1406.00,0.0586
1405.00,0.0591
1404.00,0.0597
1403.00,0.0600
1402.00,0.0602
1401.00,0.0602
1400.00,0.0603
1399.00,0.0603
1398.00,0.0601
1397.00,0.0597
1396.00,0.0591
1395.00,0.0584
1394.00,0.0577
1393.00,0.0569
1392.00,0.0559
1391.00,0.0549
1390.00,0.0540
1389.00,0.0533
1388.00,0.0528
1387.00,0.0526
1386.00,0.0525
1385.00,0.0528
1384.00,0.0536
1383.00,0.0552
1382.00,0.0577
1381.00,0.0608
1380.00,0.0641
1379.00,0.0670
1378.00,0.0691
1377.00,0.0699
1376.00,0.0696
1375.00,0.0683
1374.00,0.0663
1373.00,0.0643
1372.00,0.0628
1371.00,0.0621
1370.00,0.0623
1369.00,0.0630
1368.00,0.0637
1367.00,0.0640
1366.00,0.0637
1365.00,0.0628
1364.00,0.0617
1363.00,0.0606
1362.00,0.0598
1361.00,0.0592
1360.00,0.0590
1359.00,0.0591
1358.00,0.0597
1357.00,0.0609
1356.00,0.0626
1355.00,0.0649
1354.00,0.0673
1353.00,0.0697
1352.00,0.0718
1351.00,0.0734
1350.00,0.0744
1349.00,0.0745
1348.00,0.0737
1347.00,0.0722
1346.00,0.0703
1345.00,0.0682
1344.00,0.0664
1343.00,0.0651
1342.00,0.0643
1341.00,0.0641
1340.00,0.0646
1339.00,0.0657
1338.00,0.0670
1337.00,0.0681
1336.00,0.0687
1335.00,0.0686
1334.00,0.0676
1333.00,0.0659
1332.00,0.0639
1331.00,0.0623
1330.00,0.0612
1329.00,0.0610
1328.00,0.0618
1327.00,0.0635
1326.00,0.0661
1325.00,0.0694
1324.00,0.0734
1323.00,0.0779
1322.00,0.0825
1321.00,0.0867
1320.00,0.0899
1319.00,0.0914
1318.00,0.0909
1317.00,0.0883
1316.00,0.0843
1315.00,0.0797
1314.00,0.0749
1313.00,0.0706
1312.00,0.0670
1311.00,0.0642
1310.00,0.0623
1309.00,0.0614
1308.00,0.0614
1307.00,0.0619
1306.00,0.0626
1305.00,0.0628
1304.00,0.0623
1303.00,0.0611
1302.00,0.0596
1301.00,0.0581
1300.00,0.0571
1299.00,0.0567
1298.00,0.0568
1297.00,0.0573
1296.00,0.0579
1295.00,0.0587
1294.00,0.0597
1293.00,0.0611
1292.00,0.0628
1291.00,0.0650
1290.00,0.0675
1289.00,0.0700
1288.00,0.0724
1287.00,0.0746
1286.00,0.0767
1285.00,0.0789
1284.00,0.0814
1283.00,0.0839
1282.00,0.0860
1281.00,0.0874
1280.00,0.0874
1279.00,0.0859
1278.00,0.0830
1277.00,0.0790
1276.00,0.0744
1275.00,0.0697
1274.00,0.0652
1273.00,0.0610
1272.00,0.0573
1271.00,0.0540
1270.00,0.0510
1269.00,0.0484
1268.00,0.0461
1267.00,0.0440
1266.00,0.0422
1265.00,0.0407
1264.00,0.0394
1263.00,0.0384
1262.00,0.0378
1261.00,0.0374
1260.00,0.0374
1259.00,0.0379
1258.00,0.0390
1257.00,0.0407
1256.00,0.0430
1255.00,0.0457
1254.00,0.0484
1253.00,0.0508
1252.00,0.0526
1251.00,0.0540
1250.00,0.0554
1249.00,0.0574
1248.00,0.0603
1247.00,0.0638
1246.00,0.0675
1245.00,0.0704
1244.00,0.0720
1243.00,0.0718
1242.00,0.0699
1241.00,0.0666
1240.00,0.0626
1239.00,0.0583
1238.00,0.0543
1237.00,0.0509
1236.00,0.0480
1235.00,0.0459
1234.00,0.0446
1233.00,0.0442
1232.00,0.0448
1231.00,0.0461
1230.00,0.0476
1229.00,0.0488
1228.00,0.0492
1227.00,0.0485
1226.00,0.0471
1225.00,0.0454
1224.00,0.0440
1223.00,0.0431
1222.00,0.0430
1221.00,0.0435
1220.00,0.0442
1219.00,0.0447
1218.00,0.0445
1217.00,0.0435
1216.00,0.0420
1215.00,0.0405
1214.00,0.0394
1213.00,0.0391
1212.00,0.0400
1211.00,0.0423
1210.00,0.0463
1209.00,0.0519
1208.00,0.0585
1207.00,0.0647
1206.00,0.0689
1205.00,0.0700
1204.00,0.0681
1203.00,0.0638
1202.00,0.0583
1201.00,0.0525
1200.00,0.0472
1199.00,0.0427
1198.00,0.0391
1197.00,0.0363
1196.00,0.0342
1195.00,0.0327
1194.00,0.0319
1193.00,0.0316
1192.00,0.0316
1191.00,0.0319
1190.00,0.0323
1189.00,0.0324
1188.00,0.0323
1187.00,0.0320
1186.00,0.0316
1185.00,0.0312
1184.00,0.0309
1183.00,0.0309
1182.00,0.0313
1181.00,0.0322
1180.00,0.0339
1179.00,0.0366
1178.00,0.0402
1177.00,0.0444
1176.00,0.0489
1175.00,0.0537
1174.00,0.0584
1173.00,0.0625
1172.00,0.0651
1171.00,0.0657
1170.00,0.0640
1169.00,0.0604
1168.00,0.0559
1167.00,0.0512
1166.00,0.0468
1165.00,0.0430
1164.00,0.0399
1163.00,0.0374
1162.00,0.0354
1161.00,0.0339
1160.00,0.0329
1159.00,0.0322
1158.00,0.0319
1157.00,0.0319
1156.00,0.0321
1155.00,0.0329
1154.00,0.0345
1153.00,0.0374
1152.00,0.0417
1151.00,0.0471
1150.00,0.0524
1149.00,0.0556
1148.00,0.0553
1147.00,0.0514
1146.00,0.0452
1145.00,0.0385
1144.00,0.0327
1143.00,0.0285
1142.00,0.0256
1141.00,0.0238
1140.00,0.0228
1139.00,0.0222
1138.00,0.0219
1137.00,0.0217
1136.00,0.0215
1135.00,0.0211
1134.00,0.0206
1133.00,0.0200
1132.00,0.0193
1131.00,0.0186
1130.00,0.0179
1129.00,0.0172
1128.00,0.0167
1127.00,0.0163
1126.00,0.0160
1125.00,0.0157
1124.00,0.0155
1123.00,0.0153
1122.00,0.0152
1121.00,0.0151
1120.00,0.0151
1119.00,0.0151
1118.00,0.0152
1117.00,0.0153
1116.00,0.0155
1115.00,0.0157
1114.00,0.0160
1113.00,0.0164
1112.00,0.0169
1111.00,0.0175
1110.00,0.0182
1109.00,0.0188
1108.00,0.0195
1107.00,0.0202
1106.00,0.0210
1105.00,0.0219
1104.00,0.0229
1103.00,0.0240
1102.00,0.0251
1101.00,0.0260
1100.00,0.0266
1099.00,0.0266
1098.00,0.0261
1097.00,0.0252
1096.00,0.0241
1095.00,0.0231
1094.00,0.0222
1093.00,0.0215
1092.00,0.0208
1091.00,0.0203
1090.00,0.0198
1089.00,0.0195
1088.00,0.0193
1087.00,0.0192
1086.00,0.0194
1085.00,0.0197
1084.00,0.0200
1083.00,0.0202
1082.00,0.0204
1081.00,0.0204
1080.00,0.0202
1079.00,0.0199
1078.00,0.0195
1077.00,0.0189
1076.00,0.0183
1075.00,0.0178
1074.00,0.0175
1073.00,0.0172
1072.00,0.0171
1071.00,0.0171
1070.00,0.0172
1069.00,0.0175
1068.00,0.0180
1067.00,0.0187
1066.00,0.0196
1065.00,0.0209
1064.00,0.0226
1063.00,0.0247
1062.00,0.0273
1061.00,0.0305
1060.00,0.0344
1059.00,0.0390
1058.00,0.0445
1057.00,0.0507
1056.00,0.0573
1055.00,0.0629
1054.00,0.0661
1053.00,0.0660
1052.00,0.0627
1051.00,0.0575
1050.00,0.0519
1049.00,0.0470
1048.00,0.0436
1047.00,0.0415
1046.00,0.0408
1045.00,0.0410
1044.00,0.0420
1043.00,0.0436
1042.00,0.0458
1041.00,0.0487
1040.00,0.0525
1039.00,0.0571
1038.00,0.0625
1037.00,0.0686
1036.00,0.0748
1035.00,0.0803
1034.00,0.0846
1033.00,0.0870
1032.00,0.0876
1031.00,0.0862
1030.00,0.0830
1029.00,0.0783
1028.00,0.0725
1027.00,0.0661
1026.00,0.0597
1025.00,0.0539
1024.00,0.0490
1023.00,0.0451
1022.00,0.0421
1021.00,0.0397
1020.00,0.0378
1019.00,0.0360
1018.00,0.0343
1017.00,0.0327
1016.00,0.0313
1015.00,0.0301
1014.00,0.0291
1013.00,0.0283
1012.00,0.0276
1011.00,0.0271
1010.00,0.0266
1009.00,0.0260
1008.00,0.0252
1007.00,0.0245
1006.00,0.0238
1005.00,0.0235
1004.00,0.0237
1003.00,0.0247
1002.00,0.0263
1001.00,0.0285
1000.00,0.0304
999.00,0.0315
998.00,0.0312
997.00,0.0297
996.00,0.0277
995.00,0.0257
994.00,0.0242
993.00,0.0234
992.00,0.0230
991.00,0.0229
990.00,0.0231
989.00,0.0233
988.00,0.0236
987.00,0.0239
986.00,0.0241
985.00,0.0241
984.00,0.0238
983.00,0.0233
982.00,0.0225
981.00,0.0217
980.00,0.0209
979.00,0.0203
978.00,0.0198
977.00,0.0194
976.00,0.0191
975.00,0.0189
974.00,0.0189
973.00,0.0191
972.00,0.0193
971.00,0.0196
970.00,0.0199
969.00,0.0202
968.00,0.0205
967.00,0.0209
966.00,0.0215
965.00,0.0225
964.00,0.0238
963.00,0.0253
962.00,0.0269
961.00,0.0282
960.00,0.0291
959.00,0.0296
958.00,0.0296
957.00,0.0293
956.00,0.0287
955.00,0.0280
954.00,0.0275
953.00,0.0270
952.00,0.0267
951.00,0.0264
950.00,0.0261
949.00,0.0259
948.00,0.0257
947.00,0.0256
946.00,0.0256
945.00,0.0258
944.00,0.0261
943.00,0.0264
942.00,0.0265
941.00,0.0264
940.00,0.0260
939.00,0.0254
938.00,0.0247
937.00,0.0241
936.00,0.0236
935.00,0.0233
934.00,0.0232
933.00,0.0233
932.00,0.0236
931.00,0.0241
930.00,0.0247
929.00,0.0254
928.00,0.0261
927.00,0.0267
926.00,0.0273
925.00,0.0279
924.00,0.0284
923.00,0.0291
922.00,0.0300
921.00,0.0312
920.00,0.0326
919.00,0.0340
918.00,0.0353
917.00,0.0364
916.00,0.0375
915.00,0.0383
914.00,0.0385
913.00,0.0380
912.00,0.0367
911.00,0.0351
910.00,0.0335
909.00,0.0323
908.00,0.0320
907.00,0.0325
906.00,0.0338
905.00,0.0356
904.00,0.0377
903.00,0.0395
902.00,0.0407
901.00,0.0410
900.00,0.0406
899.00,0.0396
898.00,0.0386
897.00,0.0381
896.00,0.0386
895.00,0.0407
894.00,0.0451
893.00,0.0524
892.00,0.0623
891.00,0.0728
890.00,0.0807
889.00,0.0838
888.00,0.0826
887.00,0.0802
886.00,0.0791
885.00,0.0791
884.00,0.0783
883.00,0.0748
882.00,0.0689
881.00,0.0621
880.00,0.0560
879.00,0.0515
878.00,0.0485
877.00,0.0464
876.00,0.0449
875.00,0.0438
874.00,0.0430
873.00,0.0425
872.00,0.0424
871.00,0.0426
870.00,0.0433
869.00,0.0444
868.00,0.0461
867.00,0.0486
866.00,0.0523
865.00,0.0573
864.00,0.0631
863.00,0.0690
862.00,0.0737
861.00,0.0766
860.00,0.0776
859.00,0.0776
858.00,0.0774
857.00,0.0772
856.00,0.0766
855.00,0.0754
854.00,0.0731
853.00,0.0702
852.00,0.0672
851.00,0.0646
850.00,0.0628
849.00,0.0619
848.00,0.0617
847.00,0.0622
846.00,0.0631
845.00,0.0642
844.00,0.0652
843.00,0.0658
842.00,0.0662
841.00,0.0665
840.00,0.0670
839.00,0.0672
838.00,0.0665
837.00,0.0645
836.00,0.0615
835.00,0.0580
834.00,0.0547
833.00,0.0523
832.00,0.0508
831.00,0.0503
830.00,0.0505
829.00,0.0509
828.00,0.0506
827.00,0.0494
826.00,0.0471
825.00,0.0442
824.00,0.0413
823.00,0.0388
822.00,0.0368
821.00,0.0352
820.00,0.0339
819.00,0.0328
818.00,0.0319
817.00,0.0312
816.00,0.0308
815.00,0.0307
814.00,0.0309
813.00,0.0313
812.00,0.0319
811.00,0.0327
810.00,0.0338
809.00,0.0355
808.00,0.0381
807.00,0.0418
806.00,0.0460
805.00,0.0497
804.00,0.0518
803.00,0.0519
802.00,0.0507
801.00,0.0493
800.00,0.0486
799.00,0.0490
798.00,0.0504
797.00,0.0523
796.00,0.0541
795.00,0.0549
794.00,0.0543
793.00,0.0523
792.00,0.0494
791.00,0.0462
790.00,0.0433
789.00,0.0409
788.00,0.0391
787.00,0.0379
786.00,0.0370
785.00,0.0363
784.00,0.0357
783.00,0.0352
782.00,0.0347
781.00,0.0344
780.00,0.0343
779.00,0.0344
778.00,0.0346
777.00,0.0351
776.00,0.0357
775.00,0.0365
774.00,0.0373
773.00,0.0381
772.00,0.0388
771.00,0.0393
770.00,0.0396
769.00,0.0396
768.00,0.0393
767.00,0.0388
766.00,0.0382
765.00,0.0376
764.00,0.0369
763.00,0.0362
762.00,0.0356
761.00,0.0351
760.00,0.0348
759.00,0.0345
758.00,0.0345
757.00,0.0345
756.00,0.0345
755.00,0.0344
754.00,0.0340
753.00,0.0331
752.00,0.0319
751.00,0.0305
750.00,0.0293
749.00,0.0286
748.00,0.0282
747.00,0.0281
746.00,0.0283
745.00,0.0286
744.00,0.0290
743.00,0.0296
742.00,0.0303
741.00,0.0312
740.00,0.0323
739.00,0.0337
738.00,0.0354
737.00,0.0374
736.00,0.0397
735.00,0.0421
734.00,0.0441
733.00,0.0451
732.00,0.0449
731.00,0.0434
730.00,0.0411
729.00,0.0387
728.00,0.0366
727.00,0.0350
726.00,0.0339
725.00,0.0332
724.00,0.0326
723.00,0.0321
722.00,0.0317
721.00,0.0314
720.00,0.0312
719.00,0.0312
718.00,0.0311
717.00,0.0311
716.00,0.0312
715.00,0.0313
714.00,0.0314
713.00,0.0314
712.00,0.0315
711.00,0.0314
710.00,0.0313
709.00,0.0311
708.00,0.0309
707.00,0.0308
706.00,0.0307
705.00,0.0306
704.00,0.0305
703.00,0.0306
702.00,0.0306
701.00,0.0307
700.00,0.0309
699.00,0.0310
698.00,0.0312
697.00,0.0315
696.00,0.0317
695.00,0.0320
694.00,0.0323
693.00,0.0327
692.00,0.0332
691.00,0.0337
690.00,0.0344
689.00,0.0351
688.00,0.0359
687.00,0.0369
686.00,0.0379
685.00,0.0391
684.00,0.0402
683.00,0.0413
682.00,0.0424
681.00,0.0434
680.00,0.0441
679.00,0.0445
678.00,0.0447
677.00,0.0447
676.00,0.0445
675.00,0.0442
674.00,0.0440
673.00,0.0438
672.00,0.0437
671.00,0.0437
670.00,0.0437
669.00,0.0433
668.00,0.0422
667.00,0.0404
666.00,0.0383
665.00,0.0363
664.00,0.0347
663.00,0.0336
662.00,0.0329
661.00,0.0324
660.00,0.0321
659.00,0.0319
658.00,0.0316
657.00,0.0313
656.00,0.0311
655.00,0.0312
654.00,0.0315
653.00,0.0319
652.00,0.0325
651.00,0.0330
650.00,0.0333
649.00,0.0334
648.00,0.0332
647.00,0.0328
646.00,0.0323
645.00,0.0320
644.00,0.0317
643.00,0.0317
642.00,0.0318
641.00,0.0320
640.00,0.0324
639.00,0.0328
638.00,0.0334
637.00,0.0339
636.00,0.0344
635.00,0.0349
634.00,0.0352
633.00,0.0353
632.00,0.0351
631.00,0.0348
630.00,0.0343
629.00,0.0338
628.00,0.0332
627.00,0.0326
626.00,0.0320
625.00,0.0314
624.00,0.0309
623.00,0.0306
622.00,0.0304
621.00,0.0305
620.00,0.0308
619.00,0.0315
618.00,0.0326
617.00,0.0340
616.00,0.0353
615.00,0.0361
614.00,0.0363
613.00,0.0359
612.00,0.0354
611.00,0.0350
610.00,0.0346
609.00,0.0344
608.00,0.0340
607.00,0.0337
606.00,0.0333
605.00,0.0329
604.00,0.0325
603.00,0.0321
602.00,0.0317
601.00,0.0315
600.00,0.0313
599.00,0.0313
598.00,0.0315
597.00,0.0318
596.00,0.0322
595.00,0.0326
594.00,0.0328
593.00,0.0328
592.00,0.0326
591.00,0.0322
590.00,0.0319
589.00,0.0316
588.00,0.0315
587.00,0.0315
586.00,0.0319
585.00,0.0327
584.00,0.0342
583.00,0.0368
582.00,0.0408
581.00,0.0460
580.00,0.0515
579.00,0.0553
578.00,0.0561
577.00,0.0535
576.00,0.0485
575.00,0.0428
574.00,0.0378
573.00,0.0340
572.00,0.0311
571.00,0.0291
570.00,0.0277
569.00,0.0269
568.00,0.0263
567.00,0.0260
566.00,0.0258
565.00,0.0257
564.00,0.0260
563.00,0.0265
562.00,0.0273
561.00,0.0283
560.00,0.0294
559.00,0.0308
558.00,0.0328
557.00,0.0357
556.00,0.0400
555.00,0.0455
554.00,0.0514
553.00,0.0562
552.00,0.0583
551.00,0.0571
550.00,0.0532
549.00,0.0482
548.00,0.0436
547.00,0.0404
546.00,0.0387
545.00,0.0381
544.00,0.0381
543.00,0.0382
542.00,0.0383
541.00,0.0388
540.00,0.0401
539.00,0.0427
538.00,0.0465
537.00,0.0508
536.00,0.0544
535.00,0.0561
534.00,0.0549
533.00,0.0512
532.00,0.0465
531.00,0.0423
530.00,0.0400
529.00,0.0401
528.00,0.0423
527.00,0.0453
526.00,0.0475
525.00,0.0479
524.00,0.0471
523.00,0.0460
522.00,0.0446
521.00,0.0426
520.00,0.0397
519.00,0.0364
518.00,0.0334
517.00,0.0312
516.00,0.0298
515.00,0.0290
514.00,0.0287
513.00,0.0287
512.00,0.0291
511.00,0.0296
510.00,0.0302
509.00,0.0309
508.00,0.0319
507.00,0.0334
506.00,0.0352
505.00,0.0372
504.00,0.0393
503.00,0.0416
502.00,0.0443
501.00,0.0473
500.00,0.0505
499.00,0.0540
498.00,0.0577
497.00,0.0615
496.00,0.0653
495.00,0.0690
494.00,0.0724
493.00,0.0756
492.00,0.0785
491.00,0.0809
490.00,0.0827
489.00,0.0838
488.00,0.0841
487.00,0.0838
486.00,0.0832
485.00,0.0824
484.00,0.0818
483.00,0.0815
482.00,0.0813
481.00,0.0812
480.00,0.0811
479.00,0.0813
478.00,0.0815
477.00,0.0819
476.00,0.0821
475.00,0.0820
474.00,0.0818
473.00,0.0812
472.00,0.0805
471.00,0.0799
470.00,0.0797
469.00,0.0797
468.00,0.0797
467.00,0.0797
466.00,0.0795
465.00,0.0788
464.00,0.0774
463.00,0.0751
462.00,0.0719
461.00,0.0685
460.00,0.0654
459.00,0.0628
458.00,0.0608
457.00,0.0594
456.00,0.0588
455.00,0.0588
454.00,0.0588
453.00,0.0585
452.00,0.0579
451.00,0.0574
450.00,0.0570
449.00,0.0566
448.00,0.0559
447.00,0.0550
446.00,0.0543
445.00,0.0538
444.00,0.0536
443.00,0.0534
442.00,0.0530
441.00,0.0525
440.00,0.0522
439.00,0.0522
438.00,0.0525
437.00,0.0529
436.00,0.0529
435.00,0.0523
434.00,0.0511
433.00,0.0494
432.00,0.0474
431.00,0.0455
430.00,0.0437
429.00,0.0423
428.00,0.0416
427.00,0.0414
426.00,0.0415
425.00,0.0414
424.00,0.0409
423.00,0.0402
422.00,0.0395
421.00,0.0390
420.00,0.0387
419.00,0.0390
418.00,0.0394
417.00,0.0394
416.00,0.0386
415.00,0.0375
414.00,0.0364
413.00,0.0355
412.00,0.0349
411.00,0.0345
410.00,0.0341
409.00,0.0337
408.00,0.0336
407.00,0.0339
406.00,0.0343
405.00,0.0343
404.00,0.0342
403.00,0.0347
402.00,0.0359
401.00,0.0372
400.00,0.0383
