Created as New Dataset,Sample 1056 By YargerLab Date Monday, August 04 2025
cm-1,A
4000.00,0.0053
3999.00,0.0052
3998.00,0.0052
3997.00,0.0052
3996.00,0.0052
3995.00,0.0052
3994.00,0.0052
3993.00,0.0052
3992.00,0.0052
3991.00,0.0052
3990.00,0.0052
3989.00,0.0052
3988.00,0.0052
3987.00,0.0053
3986.00,0.0053
3985.00,0.0053
3984.00,0.0053
3983.00,0.0053
3982.00,0.0053
3981.00,0.0053
3980.00,0.0053
3979.00,0.0053
3978.00,0.0053
3977.00,0.0053
3976.00,0.0053
3975.00,0.0053
3974.00,0.0053
3973.00,0.0053
3972.00,0.0053
3971.00,0.0053
3970.00,0.0053
3969.00,0.0053
3968.00,0.0053
3967.00,0.0053
3966.00,0.0052
3965.00,0.0052
3964.00,0.0052
3963.00,0.0052
3962.00,0.0052
3961.00,0.0052
3960.00,0.0052
3959.00,0.0052
3958.00,0.0052
3957.00,0.0052
3956.00,0.0052
3955.00,0.0053
3954.00,0.0053
3953.00,0.0053
3952.00,0.0053
3951.00,0.0053
3950.00,0.0053
3949.00,0.0053
3948.00,0.0052
3947.00,0.0052
3946.00,0.0052
3945.00,0.0052
3944.00,0.0052
3943.00,0.0052
3942.00,0.0052
3941.00,0.0052
3940.00,0.0053
3939.00,0.0053
3938.00,0.0053
3937.00,0.0053
3936.00,0.0053
3935.00,0.0053
3934.00,0.0053
3933.00,0.0053
3932.00,0.0053
3931.00,0.0053
3930.00,0.0053
3929.00,0.0053
3928.00,0.0053
3927.00,0.0053
3926.00,0.0052
3925.00,0.0052
3924.00,0.0052
3923.00,0.0053
3922.00,0.0053
3921.00,0.0053
3920.00,0.0053
3919.00,0.0053
3918.00,0.0053
3917.00,0.0053
3916.00,0.0052
3915.00,0.0052
3914.00,0.0052
3913.00,0.0052
3912.00,0.0052
3911.00,0.0052
3910.00,0.0053
3909.00,0.0053
3908.00,0.0053
3907.00,0.0053
3906.00,0.0053
3905.00,0.0053
3904.00,0.0053
3903.00,0.0052
3902.00,0.0052
3901.00,0.0052
3900.00,0.0052
3899.00,0.0052
3898.00,0.0052
3897.00,0.0051
3896.00,0.0051
3895.00,0.0051
3894.00,0.0051
3893.00,0.0052
3892.00,0.0052
3891.00,0.0052
3890.00,0.0052
3889.00,0.0052
3888.00,0.0051
3887.00,0.0051
3886.00,0.0051
3885.00,0.0051
3884.00,0.0051
3883.00,0.0051
3882.00,0.0051
3881.00,0.0051
3880.00,0.0051
3879.00,0.0051
3878.00,0.0051
3877.00,0.0051
3876.00,0.0051
3875.00,0.0052
3874.00,0.0052
3873.00,0.0052
3872.00,0.0052
3871.00,0.0052
3870.00,0.0052
3869.00,0.0052
3868.00,0.0052
3867.00,0.0052
3866.00,0.0052
3865.00,0.0052
3864.00,0.0052
3863.00,0.0052
3862.00,0.0052
3861.00,0.0052
3860.00,0.0052
3859.00,0.0051
3858.00,0.0051
3857.00,0.0051
3856.00,0.0051
3855.00,0.0051
3854.00,0.0051
3853.00,0.0050
3852.00,0.0050
3851.00,0.0051
3850.00,0.0051
3849.00,0.0051
3848.00,0.0051
3847.00,0.0051
3846.00,0.0051
3845.00,0.0051
3844.00,0.0051
3843.00,0.0051
3842.00,0.0051
3841.00,0.0051
3840.00,0.0051
3839.00,0.0051
3838.00,0.0051
3837.00,0.0050
3836.00,0.0050
3835.00,0.0050
3834.00,0.0050
3833.00,0.0050
3832.00,0.0050
3831.00,0.0051
3830.00,0.0051
3829.00,0.0051
3828.00,0.0051
3827.00,0.0052
3826.00,0.0051
3825.00,0.0051
3824.00,0.0051
3823.00,0.0050
3822.00,0.0050
3821.00,0.0049
3820.00,0.0050
3819.00,0.0050
3818.00,0.0050
3817.00,0.0050
3816.00,0.0050
3815.00,0.0050
3814.00,0.0050
3813.00,0.0050
3812.00,0.0050
3811.00,0.0050
3810.00,0.0050
3809.00,0.0050
3808.00,0.0050
3807.00,0.0050
3806.00,0.0050
3805.00,0.0050
3804.00,0.0050
3803.00,0.0050
3802.00,0.0050
3801.00,0.0050
3800.00,0.0050
3799.00,0.0050
3798.00,0.0050
3797.00,0.0050
3796.00,0.0050
3795.00,0.0050
3794.00,0.0050
3793.00,0.0050
3792.00,0.0050
3791.00,0.0050
3790.00,0.0050
3789.00,0.0050
3788.00,0.0050
3787.00,0.0050
3786.00,0.0050
3785.00,0.0051
3784.00,0.0051
3783.00,0.0051
3782.00,0.0051
3781.00,0.0051
3780.00,0.0051
3779.00,0.0050
3778.00,0.0050
3777.00,0.0050
3776.00,0.0050
3775.00,0.0050
3774.00,0.0050
3773.00,0.0050
3772.00,0.0050
3771.00,0.0050
3770.00,0.0050
3769.00,0.0050
3768.00,0.0051
3767.00,0.0051
3766.00,0.0051
3765.00,0.0051
3764.00,0.0051
3763.00,0.0051
3762.00,0.0051
3761.00,0.0051
3760.00,0.0051
3759.00,0.0050
3758.00,0.0050
3757.00,0.0050
3756.00,0.0050
3755.00,0.0050
3754.00,0.0051
3753.00,0.0051
3752.00,0.0051
3751.00,0.0051
3750.00,0.0051
3749.00,0.0050
3748.00,0.0050
3747.00,0.0050
3746.00,0.0050
3745.00,0.0050
3744.00,0.0050
3743.00,0.0050
3742.00,0.0050
3741.00,0.0050
3740.00,0.0050
3739.00,0.0050
3738.00,0.0050
3737.00,0.0050
3736.00,0.0050
3735.00,0.0049
3734.00,0.0049
3733.00,0.0049
3732.00,0.0049
3731.00,0.0049
3730.00,0.0049
3729.00,0.0049
3728.00,0.0049
3727.00,0.0050
3726.00,0.0050
3725.00,0.0050
3724.00,0.0049
3723.00,0.0049
3722.00,0.0049
3721.00,0.0049
3720.00,0.0049
3719.00,0.0049
3718.00,0.0049
3717.00,0.0049
3716.00,0.0049
3715.00,0.0049
3714.00,0.0049
3713.00,0.0049
3712.00,0.0049
3711.00,0.0048
3710.00,0.0048
3709.00,0.0048
3708.00,0.0048
3707.00,0.0048
3706.00,0.0048
3705.00,0.0048
3704.00,0.0048
3703.00,0.0048
3702.00,0.0048
3701.00,0.0049
3700.00,0.0049
3699.00,0.0048
3698.00,0.0048
3697.00,0.0048
3696.00,0.0048
3695.00,0.0048
3694.00,0.0048
3693.00,0.0048
3692.00,0.0048
3691.00,0.0048
3690.00,0.0048
3689.00,0.0048
3688.00,0.0048
3687.00,0.0048
3686.00,0.0048
3685.00,0.0048
3684.00,0.0049
3683.00,0.0049
3682.00,0.0049
3681.00,0.0049
3680.00,0.0049
3679.00,0.0049
3678.00,0.0049
3677.00,0.0049
3676.00,0.0049
3675.00,0.0048
3674.00,0.0048
3673.00,0.0048
3672.00,0.0048
3671.00,0.0048
3670.00,0.0048
3669.00,0.0048
3668.00,0.0048
3667.00,0.0048
3666.00,0.0048
3665.00,0.0048
3664.00,0.0048
3663.00,0.0048
3662.00,0.0049
3661.00,0.0049
3660.00,0.0049
3659.00,0.0050
3658.00,0.0050
3657.00,0.0050
3656.00,0.0049
3655.00,0.0049
3654.00,0.0049
3653.00,0.0049
3652.00,0.0049
3651.00,0.0049
3650.00,0.0049
3649.00,0.0050
3648.00,0.0050
3647.00,0.0050
3646.00,0.0050
3645.00,0.0050
3644.00,0.0050
3643.00,0.0051
3642.00,0.0051
3641.00,0.0051
3640.00,0.0051
3639.00,0.0050
3638.00,0.0050
3637.00,0.0051
3636.00,0.0051
3635.00,0.0051
3634.00,0.0052
3633.00,0.0052
3632.00,0.0051
3631.00,0.0051
3630.00,0.0052
3629.00,0.0052
3628.00,0.0052
3627.00,0.0053
3626.00,0.0053
3625.00,0.0053
3624.00,0.0053
3623.00,0.0053
3622.00,0.0053
3621.00,0.0053
3620.00,0.0054
3619.00,0.0054
3618.00,0.0055
3617.00,0.0055
3616.00,0.0055
3615.00,0.0055
3614.00,0.0055
3613.00,0.0055
3612.00,0.0056
3611.00,0.0056
3610.00,0.0057
3609.00,0.0057
3608.00,0.0057
3607.00,0.0057
3606.00,0.0056
3605.00,0.0056
3604.00,0.0056
3603.00,0.0056
3602.00,0.0056
3601.00,0.0057
3600.00,0.0057
3599.00,0.0057
3598.00,0.0057
3597.00,0.0058
3596.00,0.0058
3595.00,0.0058
3594.00,0.0058
3593.00,0.0058
3592.00,0.0059
3591.00,0.0059
3590.00,0.0059
3589.00,0.0060
3588.00,0.0060
3587.00,0.0060
3586.00,0.0061
3585.00,0.0061
3584.00,0.0061
3583.00,0.0062
3582.00,0.0062
3581.00,0.0062
3580.00,0.0062
3579.00,0.0062
3578.00,0.0062
3577.00,0.0062
3576.00,0.0063
3575.00,0.0063
3574.00,0.0063
3573.00,0.0064
3572.00,0.0064
3571.00,0.0065
3570.00,0.0065
3569.00,0.0065
3568.00,0.0066
3567.00,0.0066
3566.00,0.0067
3565.00,0.0067
3564.00,0.0067
3563.00,0.0068
3562.00,0.0068
3561.00,0.0068
3560.00,0.0069
3559.00,0.0069
3558.00,0.0070
3557.00,0.0070
3556.00,0.0071
3555.00,0.0071
3554.00,0.0071
3553.00,0.0072
3552.00,0.0073
3551.00,0.0073
3550.00,0.0074
3549.00,0.0074
3548.00,0.0075
3547.00,0.0076
3546.00,0.0076
3545.00,0.0077
3544.00,0.0077
3543.00,0.0078
3542.00,0.0078
3541.00,0.0078
3540.00,0.0079
3539.00,0.0079
3538.00,0.0079
3537.00,0.0080
3536.00,0.0080
3535.00,0.0081
3534.00,0.0081
3533.00,0.0082
3532.00,0.0083
3531.00,0.0083
3530.00,0.0084
3529.00,0.0085
3528.00,0.0085
3527.00,0.0086
3526.00,0.0086
3525.00,0.0087
3524.00,0.0087
3523.00,0.0088
3522.00,0.0088
3521.00,0.0089
3520.00,0.0089
3519.00,0.0089
3518.00,0.0090
3517.00,0.0090
3516.00,0.0091
3515.00,0.0091
3514.00,0.0092
3513.00,0.0092
3512.00,0.0093
3511.00,0.0094
3510.00,0.0094
3509.00,0.0095
3508.00,0.0096
3507.00,0.0096
3506.00,0.0097
3505.00,0.0097
3504.00,0.0098
3503.00,0.0099
3502.00,0.0099
3501.00,0.0100
3500.00,0.0100
3499.00,0.0101
3498.00,0.0101
3497.00,0.0102
3496.00,0.0103
3495.00,0.0104
3494.00,0.0104
3493.00,0.0105
3492.00,0.0106
3491.00,0.0107
3490.00,0.0108
3489.00,0.0109
3488.00,0.0110
3487.00,0.0111
3486.00,0.0112
3485.00,0.0113
3484.00,0.0114
3483.00,0.0115
3482.00,0.0116
3481.00,0.0117
3480.00,0.0118
3479.00,0.0119
3478.00,0.0120
3477.00,0.0122
3476.00,0.0123
3475.00,0.0124
3474.00,0.0125
3473.00,0.0126
3472.00,0.0127
3471.00,0.0129
3470.00,0.0130
3469.00,0.0131
3468.00,0.0133
3467.00,0.0135
3466.00,0.0136
3465.00,0.0138
3464.00,0.0139
3463.00,0.0140
3462.00,0.0142
3461.00,0.0143
3460.00,0.0145
3459.00,0.0147
3458.00,0.0148
3457.00,0.0150
3456.00,0.0151
3455.00,0.0153
3454.00,0.0154
3453.00,0.0156
3452.00,0.0158
3451.00,0.0159
3450.00,0.0160
3449.00,0.0162
3448.00,0.0163
3447.00,0.0165
3446.00,0.0167
3445.00,0.0169
3444.00,0.0171
3443.00,0.0173
3442.00,0.0175
3441.00,0.0177
3440.00,0.0179
3439.00,0.0181
3438.00,0.0183
3437.00,0.0185
3436.00,0.0187
3435.00,0.0189
3434.00,0.0191
3433.00,0.0194
3432.00,0.0196
3431.00,0.0199
3430.00,0.0202
3429.00,0.0205
3428.00,0.0207
3427.00,0.0210
3426.00,0.0212
3425.00,0.0214
3424.00,0.0217
3423.00,0.0220
3422.00,0.0223
3421.00,0.0226
3420.00,0.0229
3419.00,0.0231
3418.00,0.0234
3417.00,0.0236
3416.00,0.0239
3415.00,0.0242
3414.00,0.0244
3413.00,0.0246
3412.00,0.0249
3411.00,0.0251
3410.00,0.0253
3409.00,0.0254
3408.00,0.0256
3407.00,0.0257
3406.00,0.0258
3405.00,0.0259
3404.00,0.0260
3403.00,0.0261
3402.00,0.0262
3401.00,0.0262
3400.00,0.0263
3399.00,0.0262
3398.00,0.0262
3397.00,0.0261
3396.00,0.0261
3395.00,0.0260
3394.00,0.0259
3393.00,0.0258
3392.00,0.0258
3391.00,0.0257
3390.00,0.0256
3389.00,0.0254
3388.00,0.0253
3387.00,0.0251
3386.00,0.0250
3385.00,0.0248
3384.00,0.0247
3383.00,0.0245
3382.00,0.0243
3381.00,0.0242
3380.00,0.0240
3379.00,0.0238
3378.00,0.0236
3377.00,0.0235
3376.00,0.0233
3375.00,0.0231
3374.00,0.0230
3373.00,0.0228
3372.00,0.0227
3371.00,0.0225
3370.00,0.0223
3369.00,0.0222
3368.00,0.0220
3367.00,0.0219
3366.00,0.0218
3365.00,0.0217
3364.00,0.0216
3363.00,0.0214
3362.00,0.0213
3361.00,0.0212
3360.00,0.0210
3359.00,0.0210
3358.00,0.0209
3357.00,0.0208
3356.00,0.0207
3355.00,0.0206
3354.00,0.0205
3353.00,0.0204
3352.00,0.0203
3351.00,0.0203
3350.00,0.0202
3349.00,0.0201
3348.00,0.0201
3347.00,0.0200
3346.00,0.0199
3345.00,0.0199
3344.00,0.0199
3343.00,0.0198
3342.00,0.0198
3341.00,0.0197
3340.00,0.0197
3339.00,0.0197
3338.00,0.0197
3337.00,0.0197
3336.00,0.0197
3335.00,0.0197
3334.00,0.0196
3333.00,0.0196
3332.00,0.0196
3331.00,0.0196
3330.00,0.0196
3329.00,0.0196
3328.00,0.0196
3327.00,0.0196
3326.00,0.0197
3325.00,0.0197
3324.00,0.0197
3323.00,0.0197
3322.00,0.0198
3321.00,0.0198
3320.00,0.0199
3319.00,0.0199
3318.00,0.0200
3317.00,0.0200
3316.00,0.0201
3315.00,0.0201
3314.00,0.0202
3313.00,0.0203
3312.00,0.0203
3311.00,0.0204
3310.00,0.0204
3309.00,0.0204
3308.00,0.0205
3307.00,0.0206
3306.00,0.0206
3305.00,0.0207
3304.00,0.0208
3303.00,0.0209
3302.00,0.0210
3301.00,0.0211
3300.00,0.0212
3299.00,0.0213
3298.00,0.0214
3297.00,0.0215
3296.00,0.0216
3295.00,0.0217
3294.00,0.0218
3293.00,0.0219
3292.00,0.0220
3291.00,0.0221
3290.00,0.0222
3289.00,0.0223
3288.00,0.0224
3287.00,0.0225
3286.00,0.0226
3285.00,0.0227
3284.00,0.0228
3283.00,0.0229
3282.00,0.0230
3281.00,0.0231
3280.00,0.0232
3279.00,0.0233
3278.00,0.0234
3277.00,0.0235
3276.00,0.0235
3275.00,0.0236
3274.00,0.0238
3273.00,0.0239
3272.00,0.0240
3271.00,0.0241
3270.00,0.0242
3269.00,0.0243
3268.00,0.0244
3267.00,0.0245
3266.00,0.0246
3265.00,0.0247
3264.00,0.0248
3263.00,0.0249
3262.00,0.0249
3261.00,0.0250
3260.00,0.0251
3259.00,0.0252
3258.00,0.0253
3257.00,0.0254
3256.00,0.0255
3255.00,0.0257
3254.00,0.0258
3253.00,0.0259
3252.00,0.0260
3251.00,0.0261
3250.00,0.0262
3249.00,0.0262
3248.00,0.0263
3247.00,0.0263
3246.00,0.0264
3245.00,0.0265
3244.00,0.0266
3243.00,0.0267
3242.00,0.0267
3241.00,0.0268
3240.00,0.0268
3239.00,0.0269
3238.00,0.0268
3237.00,0.0268
3236.00,0.0268
3235.00,0.0267
3234.00,0.0267
3233.00,0.0267
3232.00,0.0268
3231.00,0.0268
3230.00,0.0268
3229.00,0.0268
3228.00,0.0268
3227.00,0.0267
3226.00,0.0267
3225.00,0.0266
3224.00,0.0265
3223.00,0.0265
3222.00,0.0264
3221.00,0.0264
3220.00,0.0263
3219.00,0.0263
3218.00,0.0262
3217.00,0.0261
3216.00,0.0259
3215.00,0.0258
3214.00,0.0257
3213.00,0.0255
3212.00,0.0254
3211.00,0.0253
3210.00,0.0252
3209.00,0.0251
3208.00,0.0249
3207.00,0.0248
3206.00,0.0247
3205.00,0.0245
3204.00,0.0244
3203.00,0.0242
3202.00,0.0240
3201.00,0.0239
3200.00,0.0237
3199.00,0.0235
3198.00,0.0234
3197.00,0.0232
3196.00,0.0230
3195.00,0.0229
3194.00,0.0227
3193.00,0.0226
3192.00,0.0224
3191.00,0.0222
3190.00,0.0220
3189.00,0.0218
3188.00,0.0217
3187.00,0.0215
3186.00,0.0214
3185.00,0.0212
3184.00,0.0211
3183.00,0.0209
3182.00,0.0208
3181.00,0.0206
3180.00,0.0204
3179.00,0.0203
3178.00,0.0201
3177.00,0.0199
3176.00,0.0198
3175.00,0.0196
3174.00,0.0195
3173.00,0.0193
3172.00,0.0191
3171.00,0.0190
3170.00,0.0188
3169.00,0.0186
3168.00,0.0184
3167.00,0.0183
3166.00,0.0181
3165.00,0.0179
3164.00,0.0178
3163.00,0.0176
3162.00,0.0175
3161.00,0.0173
3160.00,0.0172
3159.00,0.0170
3158.00,0.0168
3157.00,0.0166
3156.00,0.0164
3155.00,0.0162
3154.00,0.0160
3153.00,0.0158
3152.00,0.0157
3151.00,0.0156
3150.00,0.0155
3149.00,0.0154
3148.00,0.0152
3147.00,0.0151
3146.00,0.0150
3145.00,0.0149
3144.00,0.0147
3143.00,0.0146
3142.00,0.0144
3141.00,0.0142
3140.00,0.0141
3139.00,0.0139
3138.00,0.0138
3137.00,0.0138
3136.00,0.0137
3135.00,0.0136
3134.00,0.0135
3133.00,0.0134
3132.00,0.0133
3131.00,0.0132
3130.00,0.0131
3129.00,0.0130
3128.00,0.0129
3127.00,0.0128
3126.00,0.0128
3125.00,0.0127
3124.00,0.0126
3123.00,0.0125
3122.00,0.0124
3121.00,0.0123
3120.00,0.0123
3119.00,0.0122
3118.00,0.0121
3117.00,0.0120
3116.00,0.0119
3115.00,0.0119
3114.00,0.0118
3113.00,0.0117
3112.00,0.0116
3111.00,0.0115
3110.00,0.0114
3109.00,0.0113
3108.00,0.0111
3107.00,0.0110
3106.00,0.0109
3105.00,0.0109
3104.00,0.0108
3103.00,0.0107
3102.00,0.0106
3101.00,0.0106
3100.00,0.0105
3099.00,0.0105
3098.00,0.0105
3097.00,0.0105
3096.00,0.0105
3095.00,0.0105
3094.00,0.0105
3093.00,0.0105
3092.00,0.0105
3091.00,0.0105
3090.00,0.0106
3089.00,0.0106
3088.00,0.0107
3087.00,0.0107
3086.00,0.0107
3085.00,0.0107
3084.00,0.0107
3083.00,0.0107
3082.00,0.0107
3081.00,0.0107
3080.00,0.0106
3079.00,0.0106
3078.00,0.0106
3077.00,0.0105
3076.00,0.0105
3075.00,0.0105
3074.00,0.0104
3073.00,0.0104
3072.00,0.0103
3071.00,0.0103
3070.00,0.0103
3069.00,0.0103
3068.00,0.0102
3067.00,0.0102
3066.00,0.0102
3065.00,0.0102
3064.00,0.0102
3063.00,0.0102
3062.00,0.0103
3061.00,0.0103
3060.00,0.0103
3059.00,0.0103
3058.00,0.0103
3057.00,0.0104
3056.00,0.0104
3055.00,0.0104
3054.00,0.0104
3053.00,0.0104
3052.00,0.0104
3051.00,0.0104
3050.00,0.0104
3049.00,0.0104
3048.00,0.0104
3047.00,0.0103
3046.00,0.0103
3045.00,0.0102
3044.00,0.0102
3043.00,0.0102
3042.00,0.0103
3041.00,0.0104
3040.00,0.0104
3039.00,0.0105
3038.00,0.0106
3037.00,0.0108
3036.00,0.0109
3035.00,0.0110
3034.00,0.0111
3033.00,0.0111
3032.00,0.0111
3031.00,0.0111
3030.00,0.0110
3029.00,0.0109
3028.00,0.0108
3027.00,0.0107
3026.00,0.0105
3025.00,0.0104
3024.00,0.0102
3023.00,0.0101
3022.00,0.0100
3021.00,0.0099
3020.00,0.0098
3019.00,0.0097
3018.00,0.0097
3017.00,0.0096
3016.00,0.0096
3015.00,0.0095
3014.00,0.0096
3013.00,0.0096
3012.00,0.0097
3011.00,0.0097
3010.00,0.0098
3009.00,0.0099
3008.00,0.0100
3007.00,0.0102
3006.00,0.0103
3005.00,0.0105
3004.00,0.0108
3003.00,0.0111
3002.00,0.0114
3001.00,0.0117
3000.00,0.0121
2999.00,0.0125
2998.00,0.0129
2997.00,0.0134
2996.00,0.0140
2995.00,0.0145
2994.00,0.0150
2993.00,0.0154
2992.00,0.0158
2991.00,0.0161
2990.00,0.0164
2989.00,0.0167
2988.00,0.0170
2987.00,0.0174
2986.00,0.0178
2985.00,0.0184
2984.00,0.0191
2983.00,0.0199
2982.00,0.0208
2981.00,0.0218
2980.00,0.0227
2979.00,0.0234
2978.00,0.0238
2977.00,0.0240
2976.00,0.0242
2975.00,0.0246
2974.00,0.0254
2973.00,0.0264
2972.00,0.0277
2971.00,0.0288
2970.00,0.0298
2969.00,0.0304
2968.00,0.0309
2967.00,0.0313
2966.00,0.0317
2965.00,0.0322
2964.00,0.0329
2963.00,0.0336
2962.00,0.0342
2961.00,0.0347
2960.00,0.0350
2959.00,0.0349
2958.00,0.0344
2957.00,0.0336
2956.00,0.0326
2955.00,0.0315
2954.00,0.0304
2953.00,0.0294
2952.00,0.0285
2951.00,0.0278
2950.00,0.0272
2949.00,0.0269
2948.00,0.0268
2947.00,0.0270
2946.00,0.0273
2945.00,0.0279
2944.00,0.0285
2943.00,0.0293
2942.00,0.0301
2941.00,0.0311
2940.00,0.0322
2939.00,0.0335
2938.00,0.0350
2937.00,0.0368
2936.00,0.0388
2935.00,0.0410
2934.00,0.0432
2933.00,0.0456
2932.00,0.0479
2931.00,0.0502
2930.00,0.0522
2929.00,0.0538
2928.00,0.0549
2927.00,0.0554
2926.00,0.0554
2925.00,0.0548
2924.00,0.0539
2923.00,0.0526
2922.00,0.0511
2921.00,0.0495
2920.00,0.0477
2919.00,0.0460
2918.00,0.0442
2917.00,0.0425
2916.00,0.0409
2915.00,0.0393
2914.00,0.0379
2913.00,0.0367
2912.00,0.0355
2911.00,0.0345
2910.00,0.0335
2909.00,0.0325
2908.00,0.0316
2907.00,0.0308
2906.00,0.0300
2905.00,0.0293
2904.00,0.0286
2903.00,0.0280
2902.00,0.0273
2901.00,0.0267
2900.00,0.0261
2899.00,0.0255
2898.00,0.0250
2897.00,0.0244
2896.00,0.0240
2895.00,0.0236
2894.00,0.0232
2893.00,0.0229
2892.00,0.0225
2891.00,0.0222
2890.00,0.0219
2889.00,0.0216
2888.00,0.0213
2887.00,0.0211
2886.00,0.0209
2885.00,0.0207
2884.00,0.0206
2883.00,0.0206
2882.00,0.0207
2881.00,0.0209
2880.00,0.0213
2879.00,0.0218
2878.00,0.0224
2877.00,0.0232
2876.00,0.0240
2875.00,0.0248
2874.00,0.0255
2873.00,0.0260
2872.00,0.0263
2871.00,0.0263
2870.00,0.0262
2869.00,0.0261
2868.00,0.0259
2867.00,0.0259
2866.00,0.0262
2865.00,0.0267
2864.00,0.0276
2863.00,0.0289
2862.00,0.0304
2861.00,0.0322
2860.00,0.0341
2859.00,0.0358
2858.00,0.0373
2857.00,0.0384
2856.00,0.0390
2855.00,0.0391
2854.00,0.0389
2853.00,0.0383
2852.00,0.0374
2851.00,0.0361
2850.00,0.0344
2849.00,0.0324
2848.00,0.0303
2847.00,0.0283
2846.00,0.0264
2845.00,0.0246
2844.00,0.0230
2843.00,0.0216
2842.00,0.0203
2841.00,0.0192
2840.00,0.0182
2839.00,0.0174
2838.00,0.0167
2837.00,0.0161
2836.00,0.0156
2835.00,0.0151
2834.00,0.0147
2833.00,0.0143
2832.00,0.0140
2831.00,0.0137
2830.00,0.0133
2829.00,0.0130
2828.00,0.0128
2827.00,0.0125
2826.00,0.0123
2825.00,0.0121
2824.00,0.0119
2823.00,0.0117
2822.00,0.0115
2821.00,0.0114
2820.00,0.0112
2819.00,0.0111
2818.00,0.0109
2817.00,0.0108
2816.00,0.0107
2815.00,0.0106
2814.00,0.0105
2813.00,0.0104
2812.00,0.0103
2811.00,0.0102
2810.00,0.0102
2809.00,0.0101
2808.00,0.0101
2807.00,0.0100
2806.00,0.0099
2805.00,0.0099
2804.00,0.0098
2803.00,0.0097
2802.00,0.0097
2801.00,0.0096
2800.00,0.0095
2799.00,0.0095
2798.00,0.0094
2797.00,0.0093
2796.00,0.0093
2795.00,0.0092
2794.00,0.0092
2793.00,0.0091
2792.00,0.0090
2791.00,0.0089
2790.00,0.0089
2789.00,0.0088
2788.00,0.0088
2787.00,0.0087
2786.00,0.0087
2785.00,0.0086
2784.00,0.0086
2783.00,0.0086
2782.00,0.0085
2781.00,0.0085
2780.00,0.0085
2779.00,0.0084
2778.00,0.0084
2777.00,0.0083
2776.00,0.0083
2775.00,0.0083
2774.00,0.0082
2773.00,0.0082
2772.00,0.0082
2771.00,0.0082
2770.00,0.0082
2769.00,0.0082
2768.00,0.0082
2767.00,0.0082
2766.00,0.0082
2765.00,0.0081
2764.00,0.0081
2763.00,0.0081
2762.00,0.0081
2761.00,0.0081
2760.00,0.0081
2759.00,0.0081
2758.00,0.0081
2757.00,0.0081
2756.00,0.0081
2755.00,0.0082
2754.00,0.0082
2753.00,0.0082
2752.00,0.0082
2751.00,0.0082
2750.00,0.0082
2749.00,0.0082
2748.00,0.0082
2747.00,0.0083
2746.00,0.0083
2745.00,0.0083
2744.00,0.0083
2743.00,0.0083
2742.00,0.0084
2741.00,0.0084
2740.00,0.0085
2739.00,0.0085
2738.00,0.0086
2737.00,0.0086
2736.00,0.0087
2735.00,0.0088
2734.00,0.0089
2733.00,0.0089
2732.00,0.0090
2731.00,0.0090
2730.00,0.0090
2729.00,0.0090
2728.00,0.0089
2727.00,0.0089
2726.00,0.0089
2725.00,0.0088
2724.00,0.0088
2723.00,0.0087
2722.00,0.0087
2721.00,0.0086
2720.00,0.0086
2719.00,0.0086
2718.00,0.0086
2717.00,0.0085
2716.00,0.0085
2715.00,0.0084
2714.00,0.0084
2713.00,0.0084
2712.00,0.0084
2711.00,0.0083
2710.00,0.0083
2709.00,0.0083
2708.00,0.0084
2707.00,0.0083
2706.00,0.0083
2705.00,0.0083
2704.00,0.0083
2703.00,0.0083
2702.00,0.0083
2701.00,0.0082
2700.00,0.0082
2699.00,0.0082
2698.00,0.0082
2697.00,0.0081
2696.00,0.0081
2695.00,0.0081
2694.00,0.0080
2693.00,0.0080
2692.00,0.0080
2691.00,0.0080
2690.00,0.0080
2689.00,0.0079
2688.00,0.0079
2687.00,0.0079
2686.00,0.0079
2685.00,0.0078
2684.00,0.0078
2683.00,0.0078
2682.00,0.0078
2681.00,0.0078
2680.00,0.0078
2679.00,0.0078
2678.00,0.0078
2677.00,0.0078
2676.00,0.0078
2675.00,0.0078
2674.00,0.0078
2673.00,0.0078
2672.00,0.0078
2671.00,0.0079
2670.00,0.0079
2669.00,0.0080
2668.00,0.0080
2667.00,0.0080
2666.00,0.0081
2665.00,0.0081
2664.00,0.0082
2663.00,0.0082
2662.00,0.0082
2661.00,0.0083
2660.00,0.0084
2659.00,0.0084
2658.00,0.0084
2657.00,0.0084
2656.00,0.0084
2655.00,0.0084
2654.00,0.0084
2653.00,0.0084
2652.00,0.0084
2651.00,0.0084
2650.00,0.0084
2649.00,0.0083
2648.00,0.0083
2647.00,0.0083
2646.00,0.0083
2645.00,0.0084
2644.00,0.0084
2643.00,0.0083
2642.00,0.0083
2641.00,0.0083
2640.00,0.0083
2639.00,0.0082
2638.00,0.0082
2637.00,0.0082
2636.00,0.0081
2635.00,0.0081
2634.00,0.0080
2633.00,0.0080
2632.00,0.0079
2631.00,0.0079
2630.00,0.0078
2629.00,0.0078
2628.00,0.0078
2627.00,0.0078
2626.00,0.0077
2625.00,0.0077
2624.00,0.0077
2623.00,0.0076
2622.00,0.0076
2621.00,0.0076
2620.00,0.0076
2619.00,0.0076
2618.00,0.0076
2617.00,0.0075
2616.00,0.0075
2615.00,0.0075
2614.00,0.0075
2613.00,0.0075
2612.00,0.0075
2611.00,0.0075
2610.00,0.0076
2609.00,0.0076
2608.00,0.0076
2607.00,0.0076
2606.00,0.0076
2605.00,0.0076
2604.00,0.0076
2603.00,0.0076
2602.00,0.0076
2601.00,0.0077
2600.00,0.0077
2599.00,0.0077
2598.00,0.0077
2597.00,0.0077
2596.00,0.0077
2595.00,0.0077
2594.00,0.0077
2593.00,0.0077
2592.00,0.0077
2591.00,0.0077
2590.00,0.0078
2589.00,0.0078
2588.00,0.0078
2587.00,0.0078
2586.00,0.0078
2585.00,0.0078
2584.00,0.0078
2583.00,0.0078
2582.00,0.0077
2581.00,0.0077
2580.00,0.0077
2579.00,0.0077
2578.00,0.0077
2577.00,0.0077
2576.00,0.0076
2575.00,0.0075
2574.00,0.0075
2573.00,0.0075
2572.00,0.0075
2571.00,0.0075
2570.00,0.0075
2569.00,0.0075
2568.00,0.0076
2567.00,0.0076
2566.00,0.0075
2565.00,0.0075
2564.00,0.0075
2563.00,0.0075
2562.00,0.0074
2561.00,0.0074
2560.00,0.0073
2559.00,0.0072
2558.00,0.0072
2557.00,0.0072
2556.00,0.0071
2555.00,0.0071
2554.00,0.0071
2553.00,0.0071
2552.00,0.0071
2551.00,0.0071
2550.00,0.0072
2549.00,0.0072
2548.00,0.0072
2547.00,0.0072
2546.00,0.0072
2545.00,0.0072
2544.00,0.0072
2543.00,0.0072
2542.00,0.0071
2541.00,0.0071
2540.00,0.0071
2539.00,0.0071
2538.00,0.0072
2537.00,0.0072
2536.00,0.0072
2535.00,0.0072
2534.00,0.0072
2533.00,0.0072
2532.00,0.0072
2531.00,0.0071
2530.00,0.0071
2529.00,0.0071
2528.00,0.0070
2527.00,0.0070
2526.00,0.0070
2525.00,0.0070
2524.00,0.0070
2523.00,0.0069
2522.00,0.0069
2521.00,0.0069
2520.00,0.0069
2519.00,0.0069
2518.00,0.0069
2517.00,0.0068
2516.00,0.0068
2515.00,0.0068
2514.00,0.0067
2513.00,0.0067
2512.00,0.0067
2511.00,0.0067
2510.00,0.0067
2509.00,0.0066
2508.00,0.0066
2507.00,0.0066
2506.00,0.0066
2505.00,0.0066
2504.00,0.0066
2503.00,0.0065
2502.00,0.0065
2501.00,0.0065
2500.00,0.0065
2499.00,0.0065
2498.00,0.0065
2497.00,0.0065
2496.00,0.0065
2495.00,0.0064
2494.00,0.0064
2493.00,0.0064
2492.00,0.0063
2491.00,0.0063
2490.00,0.0063
2489.00,0.0063
2488.00,0.0063
2487.00,0.0064
2486.00,0.0064
2485.00,0.0064
2484.00,0.0064
2483.00,0.0063
2482.00,0.0063
2481.00,0.0063
2480.00,0.0063
2479.00,0.0062
2478.00,0.0062
2477.00,0.0062
2476.00,0.0062
2475.00,0.0063
2474.00,0.0063
2473.00,0.0062
2472.00,0.0062
2471.00,0.0062
2470.00,0.0062
2469.00,0.0062
2468.00,0.0062
2467.00,0.0062
2466.00,0.0062
2465.00,0.0062
2464.00,0.0062
2463.00,0.0062
2462.00,0.0062
2461.00,0.0062
2460.00,0.0062
2459.00,0.0062
2458.00,0.0062
2457.00,0.0063
2456.00,0.0063
2455.00,0.0063
2454.00,0.0063
2453.00,0.0063
2452.00,0.0063
2451.00,0.0063
2450.00,0.0062
2449.00,0.0062
2448.00,0.0062
2447.00,0.0062
2446.00,0.0062
2445.00,0.0062
2444.00,0.0061
2443.00,0.0061
2442.00,0.0061
2441.00,0.0061
2440.00,0.0061
2439.00,0.0061
2438.00,0.0061
2437.00,0.0060
2436.00,0.0060
2435.00,0.0060
2434.00,0.0060
2433.00,0.0060
2432.00,0.0060
2431.00,0.0060
2430.00,0.0060
2429.00,0.0060
2428.00,0.0060
2427.00,0.0060
2426.00,0.0060
2425.00,0.0060
2424.00,0.0060
2423.00,0.0059
2422.00,0.0059
2421.00,0.0059
2420.00,0.0059
2419.00,0.0059
2418.00,0.0059
2417.00,0.0059
2416.00,0.0059
2415.00,0.0059
2414.00,0.0059
2413.00,0.0059
2412.00,0.0059
2411.00,0.0059
2410.00,0.0059
2409.00,0.0059
2408.00,0.0059
2407.00,0.0059
2406.00,0.0058
2405.00,0.0058
2404.00,0.0058
2403.00,0.0058
2402.00,0.0058
2401.00,0.0058
2400.00,0.0058
2399.00,0.0058
2398.00,0.0058
2397.00,0.0058
2396.00,0.0058
2395.00,0.0058
2394.00,0.0058
2393.00,0.0058
2392.00,0.0058
2391.00,0.0057
2390.00,0.0057
2389.00,0.0057
2388.00,0.0057
2387.00,0.0057
2386.00,0.0057
2385.00,0.0057
2384.00,0.0056
2383.00,0.0056
2382.00,0.0055
2381.00,0.0055
2380.00,0.0055
2379.00,0.0055
2378.00,0.0055
2377.00,0.0055
2376.00,0.0055
2375.00,0.0055
2374.00,0.0055
2373.00,0.0055
2372.00,0.0055
2371.00,0.0055
2370.00,0.0055
2369.00,0.0054
2368.00,0.0054
2367.00,0.0054
2366.00,0.0055
2365.00,0.0055
2364.00,0.0055
2363.00,0.0055
2362.00,0.0055
2361.00,0.0055
2360.00,0.0055
2359.00,0.0056
2358.00,0.0056
2357.00,0.0056
2356.00,0.0056
2355.00,0.0056
2354.00,0.0056
2353.00,0.0055
2352.00,0.0055
2351.00,0.0056
2350.00,0.0056
2349.00,0.0057
2348.00,0.0057
2347.00,0.0057
2346.00,0.0057
2345.00,0.0057
2344.00,0.0057
2343.00,0.0058
2342.00,0.0058
2341.00,0.0059
2340.00,0.0059
2339.00,0.0059
2338.00,0.0058
2337.00,0.0058
2336.00,0.0058
2335.00,0.0058
2334.00,0.0057
2333.00,0.0057
2332.00,0.0057
2331.00,0.0058
2330.00,0.0058
2329.00,0.0060
2328.00,0.0063
2327.00,0.0066
2326.00,0.0069
2325.00,0.0070
2324.00,0.0069
2323.00,0.0068
2322.00,0.0066
2321.00,0.0064
2320.00,0.0063
2319.00,0.0063
2318.00,0.0062
2317.00,0.0062
2316.00,0.0062
2315.00,0.0061
2314.00,0.0061
2313.00,0.0060
2312.00,0.0060
2311.00,0.0059
2310.00,0.0059
2309.00,0.0059
2308.00,0.0059
2307.00,0.0059
2306.00,0.0059
2305.00,0.0059
2304.00,0.0060
2303.00,0.0060
2302.00,0.0060
2301.00,0.0060
2300.00,0.0060
2299.00,0.0061
2298.00,0.0061
2297.00,0.0062
2296.00,0.0062
2295.00,0.0063
2294.00,0.0063
2293.00,0.0064
2292.00,0.0065
2291.00,0.0065
2290.00,0.0066
2289.00,0.0067
2288.00,0.0067
2287.00,0.0067
2286.00,0.0067
2285.00,0.0067
2284.00,0.0066
2283.00,0.0065
2282.00,0.0064
2281.00,0.0063
2280.00,0.0063
2279.00,0.0062
2278.00,0.0062
2277.00,0.0062
2276.00,0.0062
2275.00,0.0061
2274.00,0.0060
2273.00,0.0060
2272.00,0.0059
2271.00,0.0059
2270.00,0.0059
2269.00,0.0058
2268.00,0.0057
2267.00,0.0056
2266.00,0.0055
2265.00,0.0055
2264.00,0.0055
2263.00,0.0056
2262.00,0.0056
2261.00,0.0056
2260.00,0.0056
2259.00,0.0055
2258.00,0.0055
2257.00,0.0054
2256.00,0.0053
2255.00,0.0053
2254.00,0.0053
2253.00,0.0053
2252.00,0.0054
2251.00,0.0054
2250.00,0.0054
2249.00,0.0054
2248.00,0.0055
2247.00,0.0056
2246.00,0.0056
2245.00,0.0056
2244.00,0.0056
2243.00,0.0056
2242.00,0.0056
2241.00,0.0056
2240.00,0.0056
2239.00,0.0056
2238.00,0.0056
2237.00,0.0056
2236.00,0.0056
2235.00,0.0057
2234.00,0.0057
2233.00,0.0057
2232.00,0.0056
2231.00,0.0056
2230.00,0.0055
2229.00,0.0055
2228.00,0.0056
2227.00,0.0057
2226.00,0.0057
2225.00,0.0056
2224.00,0.0056
2223.00,0.0054
2222.00,0.0053
2221.00,0.0053
2220.00,0.0053
2219.00,0.0054
2218.00,0.0055
2217.00,0.0055
2216.00,0.0055
2215.00,0.0055
2214.00,0.0055
2213.00,0.0056
2212.00,0.0056
2211.00,0.0056
2210.00,0.0056
2209.00,0.0057
2208.00,0.0057
2207.00,0.0057
2206.00,0.0057
2205.00,0.0056
2204.00,0.0056
2203.00,0.0056
2202.00,0.0056
2201.00,0.0057
2200.00,0.0057
2199.00,0.0057
2198.00,0.0056
2197.00,0.0056
2196.00,0.0056
2195.00,0.0056
2194.00,0.0056
2193.00,0.0056
2192.00,0.0057
2191.00,0.0057
2190.00,0.0058
2189.00,0.0058
2188.00,0.0058
2187.00,0.0058
2186.00,0.0057
2185.00,0.0055
2184.00,0.0053
2183.00,0.0051
2182.00,0.0051
2181.00,0.0051
2180.00,0.0052
2179.00,0.0053
2178.00,0.0053
2177.00,0.0053
2176.00,0.0053
2175.00,0.0054
2174.00,0.0054
2173.00,0.0055
2172.00,0.0057
2171.00,0.0058
2170.00,0.0058
2169.00,0.0059
2168.00,0.0060
2167.00,0.0061
2166.00,0.0061
2165.00,0.0062
2164.00,0.0063
2163.00,0.0063
2162.00,0.0060
2161.00,0.0052
2160.00,0.0040
2159.00,0.0030
2158.00,0.0025
2157.00,0.0025
2156.00,0.0029
2155.00,0.0032
2154.00,0.0036
2153.00,0.0038
2152.00,0.0039
2151.00,0.0039
2150.00,0.0038
2149.00,0.0038
2148.00,0.0037
2147.00,0.0038
2146.00,0.0038
2145.00,0.0039
2144.00,0.0040
2143.00,0.0040
2142.00,0.0039
2141.00,0.0038
2140.00,0.0037
2139.00,0.0037
2138.00,0.0036
2137.00,0.0036
2136.00,0.0035
2135.00,0.0035
2134.00,0.0035
2133.00,0.0036
2132.00,0.0037
2131.00,0.0039
2130.00,0.0040
2129.00,0.0041
2128.00,0.0042
2127.00,0.0043
2126.00,0.0044
2125.00,0.0044
2124.00,0.0044
2123.00,0.0045
2122.00,0.0044
2121.00,0.0045
2120.00,0.0045
2119.00,0.0046
2118.00,0.0047
2117.00,0.0048
2116.00,0.0049
2115.00,0.0050
2114.00,0.0050
2113.00,0.0050
2112.00,0.0049
2111.00,0.0049
2110.00,0.0048
2109.00,0.0047
2108.00,0.0047
2107.00,0.0048
2106.00,0.0047
2105.00,0.0047
2104.00,0.0047
2103.00,0.0047
2102.00,0.0047
2101.00,0.0047
2100.00,0.0047
2099.00,0.0046
2098.00,0.0044
2097.00,0.0043
2096.00,0.0041
2095.00,0.0041
2094.00,0.0041
2093.00,0.0042
2092.00,0.0044
2091.00,0.0045
2090.00,0.0046
2089.00,0.0046
2088.00,0.0047
2087.00,0.0048
2086.00,0.0049
2085.00,0.0050
2084.00,0.0051
2083.00,0.0052
2082.00,0.0052
2081.00,0.0052
2080.00,0.0052
2079.00,0.0051
2078.00,0.0050
2077.00,0.0050
2076.00,0.0051
2075.00,0.0051
2074.00,0.0051
2073.00,0.0051
2072.00,0.0051
2071.00,0.0051
2070.00,0.0050
2069.00,0.0049
2068.00,0.0048
2067.00,0.0047
2066.00,0.0047
2065.00,0.0046
2064.00,0.0046
2063.00,0.0046
2062.00,0.0046
2061.00,0.0047
2060.00,0.0047
2059.00,0.0047
2058.00,0.0047
2057.00,0.0046
2056.00,0.0045
2055.00,0.0044
2054.00,0.0045
2053.00,0.0048
2052.00,0.0051
2051.00,0.0052
2050.00,0.0050
2049.00,0.0048
2048.00,0.0046
2047.00,0.0046
2046.00,0.0046
2045.00,0.0046
2044.00,0.0047
2043.00,0.0047
2042.00,0.0048
2041.00,0.0048
2040.00,0.0049
2039.00,0.0050
2038.00,0.0050
2037.00,0.0049
2036.00,0.0048
2035.00,0.0047
2034.00,0.0045
2033.00,0.0043
2032.00,0.0043
2031.00,0.0043
2030.00,0.0043
2029.00,0.0043
2028.00,0.0044
2027.00,0.0044
2026.00,0.0044
2025.00,0.0044
2024.00,0.0044
2023.00,0.0044
2022.00,0.0043
2021.00,0.0043
2020.00,0.0042
2019.00,0.0041
2018.00,0.0040
2017.00,0.0039
2016.00,0.0039
2015.00,0.0039
2014.00,0.0039
2013.00,0.0039
2012.00,0.0039
2011.00,0.0039
2010.00,0.0038
2009.00,0.0036
2008.00,0.0035
2007.00,0.0034
2006.00,0.0033
2005.00,0.0033
2004.00,0.0034
2003.00,0.0036
2002.00,0.0037
2001.00,0.0038
2000.00,0.0040
1999.00,0.0040
1998.00,0.0040
1997.00,0.0041
1996.00,0.0042
1995.00,0.0043
1994.00,0.0044
1993.00,0.0045
1992.00,0.0045
1991.00,0.0045
1990.00,0.0046
1989.00,0.0047
1988.00,0.0047
1987.00,0.0048
1986.00,0.0048
1985.00,0.0049
1984.00,0.0050
1983.00,0.0052
1982.00,0.0053
1981.00,0.0054
1980.00,0.0052
1979.00,0.0048
1978.00,0.0042
1977.00,0.0038
1976.00,0.0036
1975.00,0.0036
1974.00,0.0036
1973.00,0.0036
1972.00,0.0036
1971.00,0.0035
1970.00,0.0035
1969.00,0.0036
1968.00,0.0037
1967.00,0.0039
1966.00,0.0040
1965.00,0.0040
1964.00,0.0041
1963.00,0.0041
1962.00,0.0040
1961.00,0.0039
1960.00,0.0037
1959.00,0.0035
1958.00,0.0035
1957.00,0.0037
1956.00,0.0038
1955.00,0.0039
1954.00,0.0039
1953.00,0.0039
1952.00,0.0039
1951.00,0.0040
1950.00,0.0040
1949.00,0.0040
1948.00,0.0041
1947.00,0.0041
1946.00,0.0041
1945.00,0.0042
1944.00,0.0043
1943.00,0.0043
1942.00,0.0042
1941.00,0.0041
1940.00,0.0042
1939.00,0.0042
1938.00,0.0043
1937.00,0.0042
1936.00,0.0042
1935.00,0.0042
1934.00,0.0042
1933.00,0.0043
1932.00,0.0043
1931.00,0.0043
1930.00,0.0043
1929.00,0.0043
1928.00,0.0043
1927.00,0.0043
1926.00,0.0043
1925.00,0.0044
1924.00,0.0046
1923.00,0.0047
1922.00,0.0047
1921.00,0.0047
1920.00,0.0048
1919.00,0.0048
1918.00,0.0048
1917.00,0.0047
1916.00,0.0047
1915.00,0.0048
1914.00,0.0049
1913.00,0.0051
1912.00,0.0054
1911.00,0.0057
1910.00,0.0060
1909.00,0.0062
1908.00,0.0062
1907.00,0.0061
1906.00,0.0059
1905.00,0.0056
1904.00,0.0054
1903.00,0.0052
1902.00,0.0051
1901.00,0.0051
1900.00,0.0050
1899.00,0.0051
1898.00,0.0051
1897.00,0.0053
1896.00,0.0054
1895.00,0.0055
1894.00,0.0055
1893.00,0.0055
1892.00,0.0055
1891.00,0.0054
1890.00,0.0053
1889.00,0.0051
1888.00,0.0050
1887.00,0.0049
1886.00,0.0049
1885.00,0.0050
1884.00,0.0050
1883.00,0.0049
1882.00,0.0048
1881.00,0.0048
1880.00,0.0048
1879.00,0.0049
1878.00,0.0049
1877.00,0.0049
1876.00,0.0049
1875.00,0.0049
1874.00,0.0049
1873.00,0.0048
1872.00,0.0048
1871.00,0.0048
1870.00,0.0049
1869.00,0.0049
1868.00,0.0048
1867.00,0.0048
1866.00,0.0048
1865.00,0.0049
1864.00,0.0049
1863.00,0.0049
1862.00,0.0050
1861.00,0.0050
1860.00,0.0050
1859.00,0.0050
1858.00,0.0050
1857.00,0.0050
1856.00,0.0051
1855.00,0.0051
1854.00,0.0051
1853.00,0.0051
1852.00,0.0052
1851.00,0.0052
1850.00,0.0053
1849.00,0.0053
1848.00,0.0054
1847.00,0.0055
1846.00,0.0055
1845.00,0.0055
1844.00,0.0054
1843.00,0.0053
1842.00,0.0052
1841.00,0.0051
1840.00,0.0051
1839.00,0.0051
1838.00,0.0051
1837.00,0.0051
1836.00,0.0051
1835.00,0.0050
1834.00,0.0050
1833.00,0.0050
1832.00,0.0050
1831.00,0.0050
1830.00,0.0050
1829.00,0.0049
1828.00,0.0049
1827.00,0.0049
1826.00,0.0050
1825.00,0.0050
1824.00,0.0050
1823.00,0.0049
1822.00,0.0050
1821.00,0.0050
1820.00,0.0049
1819.00,0.0049
1818.00,0.0048
1817.00,0.0048
1816.00,0.0048
1815.00,0.0048
1814.00,0.0049
1813.00,0.0050
1812.00,0.0051
1811.00,0.0051
1810.00,0.0051
1809.00,0.0051
1808.00,0.0051
1807.00,0.0051
1806.00,0.0051
1805.00,0.0052
1804.00,0.0052
1803.00,0.0052
1802.00,0.0052
1801.00,0.0052
1800.00,0.0052
1799.00,0.0053
1798.00,0.0053
1797.00,0.0054
1796.00,0.0055
1795.00,0.0055
1794.00,0.0055
1793.00,0.0054
1792.00,0.0054
1791.00,0.0053
1790.00,0.0053
1789.00,0.0054
1788.00,0.0054
1787.00,0.0055
1786.00,0.0054
1785.00,0.0054
1784.00,0.0054
1783.00,0.0054
1782.00,0.0054
1781.00,0.0055
1780.00,0.0055
1779.00,0.0055
1778.00,0.0056
1777.00,0.0057
1776.00,0.0058
1775.00,0.0059
1774.00,0.0059
1773.00,0.0059
1772.00,0.0058
1771.00,0.0057
1770.00,0.0056
1769.00,0.0057
1768.00,0.0057
1767.00,0.0056
1766.00,0.0056
1765.00,0.0056
1764.00,0.0057
1763.00,0.0058
1762.00,0.0059
1761.00,0.0059
1760.00,0.0060
1759.00,0.0060
1758.00,0.0060
1757.00,0.0059
1756.00,0.0058
1755.00,0.0057
1754.00,0.0057
1753.00,0.0058
1752.00,0.0058
1751.00,0.0058
1750.00,0.0058
1749.00,0.0058
1748.00,0.0058
1747.00,0.0059
1746.00,0.0059
1745.00,0.0059
1744.00,0.0060
1743.00,0.0059
1742.00,0.0059
1741.00,0.0058
1740.00,0.0058
1739.00,0.0058
1738.00,0.0058
1737.00,0.0059
1736.00,0.0060
1735.00,0.0061
1734.00,0.0061
1733.00,0.0060
1732.00,0.0062
1731.00,0.0064
1730.00,0.0066
1729.00,0.0066
1728.00,0.0067
1727.00,0.0067
1726.00,0.0068
1725.00,0.0069
1724.00,0.0070
1723.00,0.0071
1722.00,0.0071
1721.00,0.0071
1720.00,0.0072
1719.00,0.0073
1718.00,0.0074
1717.00,0.0074
1716.00,0.0075
1715.00,0.0076
1714.00,0.0077
1713.00,0.0079
1712.00,0.0082
1711.00,0.0084
1710.00,0.0085
1709.00,0.0086
1708.00,0.0087
1707.00,0.0089
1706.00,0.0090
1705.00,0.0092
1704.00,0.0093
1703.00,0.0094
1702.00,0.0095
1701.00,0.0097
1700.00,0.0102
1699.00,0.0107
1698.00,0.0114
1697.00,0.0121
1696.00,0.0128
1695.00,0.0134
1694.00,0.0140
1693.00,0.0146
1692.00,0.0154
1691.00,0.0162
1690.00,0.0169
1689.00,0.0175
1688.00,0.0181
1687.00,0.0186
1686.00,0.0191
1685.00,0.0198
1684.00,0.0206
1683.00,0.0213
1682.00,0.0219
1681.00,0.0226
1680.00,0.0232
1679.00,0.0236
1678.00,0.0240
1677.00,0.0243
1676.00,0.0249
1675.00,0.0255
1674.00,0.0261
1673.00,0.0267
1672.00,0.0272
1671.00,0.0278
1670.00,0.0284
1669.00,0.0290
1668.00,0.0297
1667.00,0.0302
1666.00,0.0306
1665.00,0.0310
1664.00,0.0315
1663.00,0.0320
1662.00,0.0325
1661.00,0.0329
1660.00,0.0333
1659.00,0.0336
1658.00,0.0338
1657.00,0.0338
1656.00,0.0337
1655.00,0.0336
1654.00,0.0338
1653.00,0.0340
1652.00,0.0343
1651.00,0.0345
1650.00,0.0345
1649.00,0.0345
1648.00,0.0345
1647.00,0.0345
1646.00,0.0344
1645.00,0.0343
1644.00,0.0343
1643.00,0.0342
1642.00,0.0341
1641.00,0.0340
1640.00,0.0337
1639.00,0.0334
1638.00,0.0330
1637.00,0.0327
1636.00,0.0326
1635.00,0.0329
1634.00,0.0335
1633.00,0.0344
1632.00,0.0358
1631.00,0.0378
1630.00,0.0406
1629.00,0.0444
1628.00,0.0491
1627.00,0.0540
1626.00,0.0584
1625.00,0.0623
1624.00,0.0659
1623.00,0.0690
1622.00,0.0709
1621.00,0.0713
1620.00,0.0706
1619.00,0.0688
1618.00,0.0658
1617.00,0.0620
1616.00,0.0584
1615.00,0.0561
1614.00,0.0552
1613.00,0.0552
1612.00,0.0555
1611.00,0.0558
1610.00,0.0553
1609.00,0.0539
1608.00,0.0516
1607.00,0.0487
1606.00,0.0454
1605.00,0.0422
1604.00,0.0391
1603.00,0.0363
1602.00,0.0337
1601.00,0.0315
1600.00,0.0297
1599.00,0.0283
1598.00,0.0273
1597.00,0.0267
1596.00,0.0265
1595.00,0.0267
1594.00,0.0275
1593.00,0.0288
1592.00,0.0308
1591.00,0.0335
1590.00,0.0368
1589.00,0.0404
1588.00,0.0440
1587.00,0.0474
1586.00,0.0502
1585.00,0.0522
1584.00,0.0534
1583.00,0.0537
1582.00,0.0533
1581.00,0.0522
1580.00,0.0508
1579.00,0.0491
1578.00,0.0470
1577.00,0.0445
1576.00,0.0417
1575.00,0.0391
1574.00,0.0372
1573.00,0.0358
1572.00,0.0346
1571.00,0.0335
1570.00,0.0326
1569.00,0.0317
1568.00,0.0308
1567.00,0.0298
1566.00,0.0285
1565.00,0.0268
1564.00,0.0250
1563.00,0.0234
1562.00,0.0219
1561.00,0.0205
1560.00,0.0190
1559.00,0.0174
1558.00,0.0161
1557.00,0.0155
1556.00,0.0153
1555.00,0.0151
1554.00,0.0149
1553.00,0.0146
1552.00,0.0144
1551.00,0.0143
1550.00,0.0141
1549.00,0.0139
1548.00,0.0136
1547.00,0.0134
1546.00,0.0133
1545.00,0.0131
1544.00,0.0129
1543.00,0.0126
1542.00,0.0123
1541.00,0.0121
1540.00,0.0119
1539.00,0.0117
1538.00,0.0117
1537.00,0.0118
1536.00,0.0118
1535.00,0.0118
1534.00,0.0117
1533.00,0.0116
1532.00,0.0115
1531.00,0.0115
1530.00,0.0116
1529.00,0.0116
1528.00,0.0117
1527.00,0.0117
1526.00,0.0118
1525.00,0.0118
1524.00,0.0119
1523.00,0.0121
1522.00,0.0124
1521.00,0.0126
1520.00,0.0130
1519.00,0.0134
1518.00,0.0140
1517.00,0.0146
1516.00,0.0152
1515.00,0.0158
1514.00,0.0163
1513.00,0.0169
1512.00,0.0174
1511.00,0.0178
1510.00,0.0182
1509.00,0.0184
1508.00,0.0186
1507.00,0.0187
1506.00,0.0187
1505.00,0.0190
1504.00,0.0197
1503.00,0.0205
1502.00,0.0216
1501.00,0.0231
1500.00,0.0253
1499.00,0.0283
1498.00,0.0319
1497.00,0.0352
1496.00,0.0372
1495.00,0.0373
1494.00,0.0360
1493.00,0.0340
1492.00,0.0314
1491.00,0.0287
1490.00,0.0262
1489.00,0.0239
1488.00,0.0221
1487.00,0.0206
1486.00,0.0194
1485.00,0.0184
1484.00,0.0177
1483.00,0.0171
1482.00,0.0166
1481.00,0.0163
1480.00,0.0161
1479.00,0.0160
1478.00,0.0160
1477.00,0.0162
1476.00,0.0166
1475.00,0.0170
1474.00,0.0178
1473.00,0.0192
1472.00,0.0213
1471.00,0.0239
1470.00,0.0270
1469.00,0.0303
1468.00,0.0336
1467.00,0.0364
1466.00,0.0385
1465.00,0.0396
1464.00,0.0400
1463.00,0.0399
1462.00,0.0399
1461.00,0.0399
1460.00,0.0400
1459.00,0.0399
1458.00,0.0396
1457.00,0.0388
1456.00,0.0376
1455.00,0.0366
1454.00,0.0358
1453.00,0.0353
1452.00,0.0351
1451.00,0.0352
1450.00,0.0356
1449.00,0.0362
1448.00,0.0371
1447.00,0.0381
1446.00,0.0394
1445.00,0.0409
1444.00,0.0426
1443.00,0.0443
1442.00,0.0460
1441.00,0.0475
1440.00,0.0486
1439.00,0.0495
1438.00,0.0503
1437.00,0.0514
1436.00,0.0528
1435.00,0.0542
1434.00,0.0556
1433.00,0.0569
1432.00,0.0581
1431.00,0.0591
1430.00,0.0599
1429.00,0.0604
1428.00,0.0605
1427.00,0.0602
1426.00,0.0597
1425.00,0.0592
1424.00,0.0585
1423.00,0.0577
1422.00,0.0568
1421.00,0.0557
1420.00,0.0543
1419.00,0.0527
1418.00,0.0509
1417.00,0.0492
1416.00,0.0476
1415.00,0.0460
1414.00,0.0448
1413.00,0.0438
1412.00,0.0434
1411.00,0.0434
1410.00,0.0440
1409.00,0.0451
1408.00,0.0467
1407.00,0.0489
1406.00,0.0516
1405.00,0.0548
1404.00,0.0580
1403.00,0.0607
1402.00,0.0627
1401.00,0.0640
1400.00,0.0645
1399.00,0.0638
1398.00,0.0622
1397.00,0.0598
1396.00,0.0567
1395.00,0.0530
1394.00,0.0493
1393.00,0.0460
1392.00,0.0435
1391.00,0.0417
1390.00,0.0408
1389.00,0.0410
1388.00,0.0422
1387.00,0.0435
1386.00,0.0439
1385.00,0.0431
1384.00,0.0416
1383.00,0.0404
1382.00,0.0399
1381.00,0.0400
1380.00,0.0404
1379.00,0.0406
1378.00,0.0404
1377.00,0.0397
1376.00,0.0384
1375.00,0.0365
1374.00,0.0345
1373.00,0.0327
1372.00,0.0316
1371.00,0.0314
1370.00,0.0322
1369.00,0.0340
1368.00,0.0365
1367.00,0.0394
1366.00,0.0419
1365.00,0.0436
1364.00,0.0447
1363.00,0.0462
1362.00,0.0484
1361.00,0.0509
1360.00,0.0525
1359.00,0.0521
1358.00,0.0498
1357.00,0.0467
1356.00,0.0437
1355.00,0.0414
1354.00,0.0399
1353.00,0.0389
1352.00,0.0383
1351.00,0.0380
1350.00,0.0381
1349.00,0.0383
1348.00,0.0385
1347.00,0.0385
1346.00,0.0382
1345.00,0.0375
1344.00,0.0365
1343.00,0.0354
1342.00,0.0341
1341.00,0.0327
1340.00,0.0314
1339.00,0.0301
1338.00,0.0291
1337.00,0.0284
1336.00,0.0282
1335.00,0.0284
1334.00,0.0289
1333.00,0.0296
1332.00,0.0303
1331.00,0.0309
1330.00,0.0314
1329.00,0.0316
1328.00,0.0316
1327.00,0.0314
1326.00,0.0311
1325.00,0.0307
1324.00,0.0304
1323.00,0.0303
1322.00,0.0302
1321.00,0.0302
1320.00,0.0301
1319.00,0.0299
1318.00,0.0296
1317.00,0.0291
1316.00,0.0285
1315.00,0.0279
1314.00,0.0274
1313.00,0.0270
1312.00,0.0270
1311.00,0.0272
1310.00,0.0279
1309.00,0.0288
1308.00,0.0302
1307.00,0.0320
1306.00,0.0342
1305.00,0.0370
1304.00,0.0402
1303.00,0.0435
1302.00,0.0464
1301.00,0.0483
1300.00,0.0491
1299.00,0.0489
1298.00,0.0484
1297.00,0.0480
1296.00,0.0481
1295.00,0.0485
1294.00,0.0491
1293.00,0.0496
1292.00,0.0498
1291.00,0.0500
1290.00,0.0504
1289.00,0.0511
1288.00,0.0523
1287.00,0.0540
1286.00,0.0557
1285.00,0.0573
1284.00,0.0584
1283.00,0.0587
1282.00,0.0580
1281.00,0.0564
1280.00,0.0541
1279.00,0.0515
1278.00,0.0490
1277.00,0.0467
1276.00,0.0449
1275.00,0.0435
1274.00,0.0424
1273.00,0.0414
1272.00,0.0405
1271.00,0.0397
1270.00,0.0388
1269.00,0.0379
1268.00,0.0371
1267.00,0.0363
1266.00,0.0354
1265.00,0.0346
1264.00,0.0336
1263.00,0.0325
1262.00,0.0315
1261.00,0.0305
1260.00,0.0295
1259.00,0.0287
1258.00,0.0279
1257.00,0.0273
1256.00,0.0268
1255.00,0.0265
1254.00,0.0263
1253.00,0.0263
1252.00,0.0266
1251.00,0.0271
1250.00,0.0279
1249.00,0.0292
1248.00,0.0308
1247.00,0.0326
1246.00,0.0346
1245.00,0.0365
1244.00,0.0381
1243.00,0.0394
1242.00,0.0403
1241.00,0.0412
1240.00,0.0421
1239.00,0.0434
1238.00,0.0453
1237.00,0.0476
1236.00,0.0499
1235.00,0.0520
1234.00,0.0533
1233.00,0.0537
1232.00,0.0530
1231.00,0.0514
1230.00,0.0493
1229.00,0.0470
1228.00,0.0448
1227.00,0.0427
1226.00,0.0409
1225.00,0.0395
1224.00,0.0383
1223.00,0.0374
1222.00,0.0370
1221.00,0.0368
1220.00,0.0371
1219.00,0.0377
1218.00,0.0387
1217.00,0.0399
1216.00,0.0410
1215.00,0.0419
1214.00,0.0422
1213.00,0.0417
1212.00,0.0404
1211.00,0.0386
1210.00,0.0365
1209.00,0.0345
1208.00,0.0328
1207.00,0.0315
1206.00,0.0309
1205.00,0.0309
1204.00,0.0316
1203.00,0.0329
1202.00,0.0350
1201.00,0.0375
1200.00,0.0405
1199.00,0.0437
1198.00,0.0473
1197.00,0.0509
1196.00,0.0539
1195.00,0.0560
1194.00,0.0568
1193.00,0.0560
1192.00,0.0541
1191.00,0.0513
1190.00,0.0481
1189.00,0.0446
1188.00,0.0410
1187.00,0.0376
1186.00,0.0346
1185.00,0.0320
1184.00,0.0299
1183.00,0.0282
1182.00,0.0268
1181.00,0.0258
1180.00,0.0249
1179.00,0.0243
1178.00,0.0239
1177.00,0.0235
1176.00,0.0232
1175.00,0.0229
1174.00,0.0228
1173.00,0.0226
1172.00,0.0225
1171.00,0.0225
1170.00,0.0225
1169.00,0.0226
1168.00,0.0227
1167.00,0.0228
1166.00,0.0231
1165.00,0.0235
1164.00,0.0242
1163.00,0.0252
1162.00,0.0268
1161.00,0.0291
1160.00,0.0324
1159.00,0.0367
1158.00,0.0420
1157.00,0.0477
1156.00,0.0527
1155.00,0.0559
1154.00,0.0563
1153.00,0.0536
1152.00,0.0486
1151.00,0.0425
1150.00,0.0367
1149.00,0.0318
1148.00,0.0282
1147.00,0.0257
1146.00,0.0241
1145.00,0.0230
1144.00,0.0223
1143.00,0.0219
1142.00,0.0218
1141.00,0.0219
1140.00,0.0221
1139.00,0.0227
1138.00,0.0237
1137.00,0.0251
1136.00,0.0273
1135.00,0.0304
1134.00,0.0347
1133.00,0.0403
1132.00,0.0468
1131.00,0.0535
1130.00,0.0594
1129.00,0.0634
1128.00,0.0649
1127.00,0.0641
1126.00,0.0616
1125.00,0.0579
1124.00,0.0534
1123.00,0.0485
1122.00,0.0437
1121.00,0.0393
1120.00,0.0358
1119.00,0.0331
1118.00,0.0313
1117.00,0.0302
1116.00,0.0297
1115.00,0.0294
1114.00,0.0292
1113.00,0.0287
1112.00,0.0281
1111.00,0.0272
1110.00,0.0264
1109.00,0.0258
1108.00,0.0255
1107.00,0.0256
1106.00,0.0263
1105.00,0.0277
1104.00,0.0300
1103.00,0.0332
1102.00,0.0369
1101.00,0.0404
1100.00,0.0428
1099.00,0.0435
1098.00,0.0423
1097.00,0.0394
1096.00,0.0357
1095.00,0.0318
1094.00,0.0284
1093.00,0.0256
1092.00,0.0235
1091.00,0.0219
1090.00,0.0208
1089.00,0.0200
1088.00,0.0194
1087.00,0.0190
1086.00,0.0187
1085.00,0.0184
1084.00,0.0182
1083.00,0.0182
1082.00,0.0182
1081.00,0.0182
1080.00,0.0182
1079.00,0.0184
1078.00,0.0186
1077.00,0.0188
1076.00,0.0191
1075.00,0.0194
1074.00,0.0198
1073.00,0.0202
1072.00,0.0206
1071.00,0.0212
1070.00,0.0219
1069.00,0.0227
1068.00,0.0235
1067.00,0.0244
1066.00,0.0256
1065.00,0.0270
1064.00,0.0288
1063.00,0.0312
1062.00,0.0342
1061.00,0.0382
1060.00,0.0431
1059.00,0.0491
1058.00,0.0562
1057.00,0.0637
1056.00,0.0707
1055.00,0.0766
1054.00,0.0809
1053.00,0.0837
1052.00,0.0854
1051.00,0.0865
1050.00,0.0871
1049.00,0.0868
1048.00,0.0850
1047.00,0.0818
1046.00,0.0772
1045.00,0.0716
1044.00,0.0656
1043.00,0.0597
1042.00,0.0544
1041.00,0.0498
1040.00,0.0462
1039.00,0.0437
1038.00,0.0424
1037.00,0.0419
1036.00,0.0421
1035.00,0.0427
1034.00,0.0438
1033.00,0.0455
1032.00,0.0483
1031.00,0.0527
1030.00,0.0587
1029.00,0.0654
1028.00,0.0717
1027.00,0.0760
1026.00,0.0769
1025.00,0.0741
1024.00,0.0685
1023.00,0.0617
1022.00,0.0549
1021.00,0.0489
1020.00,0.0439
1019.00,0.0398
1018.00,0.0365
1017.00,0.0339
1016.00,0.0317
1015.00,0.0299
1014.00,0.0286
1013.00,0.0276
1012.00,0.0269
1011.00,0.0268
1010.00,0.0272
1009.00,0.0283
1008.00,0.0301
1007.00,0.0322
1006.00,0.0347
1005.00,0.0369
1004.00,0.0385
1003.00,0.0392
1002.00,0.0390
1001.00,0.0381
1000.00,0.0367
999.00,0.0354
998.00,0.0341
997.00,0.0330
996.00,0.0320
995.00,0.0312
994.00,0.0304
993.00,0.0296
992.00,0.0284
991.00,0.0271
990.00,0.0257
989.00,0.0243
988.00,0.0231
987.00,0.0221
986.00,0.0213
985.00,0.0206
984.00,0.0200
983.00,0.0196
982.00,0.0193
981.00,0.0192
980.00,0.0191
979.00,0.0190
978.00,0.0191
977.00,0.0191
976.00,0.0190
975.00,0.0190
974.00,0.0190
973.00,0.0189
972.00,0.0187
971.00,0.0185
970.00,0.0185
969.00,0.0185
968.00,0.0184
967.00,0.0185
966.00,0.0186
965.00,0.0189
964.00,0.0192
963.00,0.0195
962.00,0.0196
961.00,0.0194
960.00,0.0187
959.00,0.0178
958.00,0.0169
957.00,0.0161
956.00,0.0155
955.00,0.0150
954.00,0.0147
953.00,0.0145
952.00,0.0143
951.00,0.0143
950.00,0.0146
949.00,0.0150
948.00,0.0153
947.00,0.0153
946.00,0.0152
945.00,0.0152
944.00,0.0153
943.00,0.0157
942.00,0.0164
941.00,0.0171
940.00,0.0179
939.00,0.0186
938.00,0.0193
937.00,0.0198
936.00,0.0202
935.00,0.0206
934.00,0.0211
933.00,0.0215
932.00,0.0215
931.00,0.0213
930.00,0.0208
929.00,0.0203
928.00,0.0200
927.00,0.0199
926.00,0.0203
925.00,0.0210
924.00,0.0219
923.00,0.0228
922.00,0.0235
921.00,0.0236
920.00,0.0228
919.00,0.0215
918.00,0.0200
917.00,0.0186
916.00,0.0173
915.00,0.0163
914.00,0.0157
913.00,0.0152
912.00,0.0148
911.00,0.0145
910.00,0.0144
909.00,0.0145
908.00,0.0146
907.00,0.0149
906.00,0.0154
905.00,0.0161
904.00,0.0172
903.00,0.0187
902.00,0.0207
901.00,0.0228
900.00,0.0245
899.00,0.0253
898.00,0.0252
897.00,0.0242
896.00,0.0228
895.00,0.0215
894.00,0.0210
893.00,0.0215
892.00,0.0228
891.00,0.0244
890.00,0.0253
889.00,0.0248
888.00,0.0229
887.00,0.0206
886.00,0.0187
885.00,0.0176
884.00,0.0171
883.00,0.0171
882.00,0.0175
881.00,0.0180
880.00,0.0189
879.00,0.0202
878.00,0.0221
877.00,0.0248
876.00,0.0282
875.00,0.0324
874.00,0.0371
873.00,0.0422
872.00,0.0470
871.00,0.0510
870.00,0.0532
869.00,0.0533
868.00,0.0513
867.00,0.0482
866.00,0.0448
865.00,0.0415
864.00,0.0385
863.00,0.0355
862.00,0.0328
861.00,0.0305
860.00,0.0286
859.00,0.0275
858.00,0.0275
857.00,0.0286
856.00,0.0306
855.00,0.0330
854.00,0.0356
853.00,0.0379
852.00,0.0401
851.00,0.0425
850.00,0.0447
849.00,0.0459
848.00,0.0456
847.00,0.0438
846.00,0.0414
845.00,0.0388
844.00,0.0364
843.00,0.0346
842.00,0.0334
841.00,0.0329
840.00,0.0330
839.00,0.0341
838.00,0.0363
837.00,0.0393
836.00,0.0425
835.00,0.0453
834.00,0.0472
833.00,0.0479
832.00,0.0472
831.00,0.0452
830.00,0.0423
829.00,0.0386
828.00,0.0347
827.00,0.0313
826.00,0.0292
825.00,0.0287
824.00,0.0306
823.00,0.0354
822.00,0.0427
821.00,0.0500
820.00,0.0550
819.00,0.0575
818.00,0.0594
817.00,0.0623
816.00,0.0647
815.00,0.0636
814.00,0.0576
813.00,0.0486
812.00,0.0397
811.00,0.0329
810.00,0.0284
809.00,0.0254
808.00,0.0232
807.00,0.0216
806.00,0.0204
805.00,0.0194
804.00,0.0187
803.00,0.0183
802.00,0.0180
801.00,0.0177
800.00,0.0175
799.00,0.0173
798.00,0.0172
797.00,0.0170
796.00,0.0169
795.00,0.0169
794.00,0.0169
793.00,0.0168
792.00,0.0168
791.00,0.0167
790.00,0.0167
789.00,0.0167
788.00,0.0166
787.00,0.0166
786.00,0.0166
785.00,0.0166
784.00,0.0167
783.00,0.0168
782.00,0.0170
781.00,0.0171
780.00,0.0174
779.00,0.0178
778.00,0.0187
777.00,0.0200
776.00,0.0215
775.00,0.0229
774.00,0.0235
773.00,0.0231
772.00,0.0220
771.00,0.0208
770.00,0.0199
769.00,0.0195
768.00,0.0192
767.00,0.0192
766.00,0.0193
765.00,0.0195
764.00,0.0199
763.00,0.0205
762.00,0.0212
761.00,0.0219
760.00,0.0225
759.00,0.0228
758.00,0.0229
757.00,0.0228
756.00,0.0224
755.00,0.0222
754.00,0.0220
753.00,0.0220
752.00,0.0221
751.00,0.0222
750.00,0.0225
749.00,0.0228
748.00,0.0230
747.00,0.0233
746.00,0.0237
745.00,0.0242
744.00,0.0246
743.00,0.0253
742.00,0.0261
741.00,0.0272
740.00,0.0288
739.00,0.0311
738.00,0.0342
737.00,0.0378
736.00,0.0413
735.00,0.0436
734.00,0.0443
733.00,0.0434
732.00,0.0420
731.00,0.0410
730.00,0.0409
729.00,0.0411
728.00,0.0408
727.00,0.0396
726.00,0.0375
725.00,0.0351
724.00,0.0327
723.00,0.0308
722.00,0.0296
721.00,0.0291
720.00,0.0291
719.00,0.0296
718.00,0.0307
717.00,0.0320
716.00,0.0332
715.00,0.0340
714.00,0.0342
713.00,0.0339
712.00,0.0331
711.00,0.0322
710.00,0.0314
709.00,0.0308
708.00,0.0303
707.00,0.0301
706.00,0.0303
705.00,0.0306
704.00,0.0311
703.00,0.0317
702.00,0.0326
701.00,0.0334
700.00,0.0342
699.00,0.0349
698.00,0.0354
697.00,0.0354
696.00,0.0350
695.00,0.0344
694.00,0.0339
693.00,0.0337
692.00,0.0340
691.00,0.0349
690.00,0.0364
689.00,0.0377
688.00,0.0385
687.00,0.0385
686.00,0.0378
685.00,0.0368
684.00,0.0359
683.00,0.0354
682.00,0.0353
681.00,0.0355
680.00,0.0358
679.00,0.0364
678.00,0.0372
677.00,0.0382
676.00,0.0393
675.00,0.0407
674.00,0.0422
673.00,0.0437
672.00,0.0448
671.00,0.0454
670.00,0.0457
669.00,0.0456
668.00,0.0450
667.00,0.0444
666.00,0.0442
665.00,0.0443
664.00,0.0448
663.00,0.0455
662.00,0.0463
661.00,0.0466
660.00,0.0463
659.00,0.0455
658.00,0.0445
657.00,0.0436
656.00,0.0428
655.00,0.0422
654.00,0.0420
653.00,0.0420
652.00,0.0419
651.00,0.0419
650.00,0.0419
649.00,0.0419
648.00,0.0418
647.00,0.0417
646.00,0.0418
645.00,0.0418
644.00,0.0417
643.00,0.0415
642.00,0.0413
641.00,0.0412
640.00,0.0409
639.00,0.0407
638.00,0.0405
637.00,0.0404
636.00,0.0402
635.00,0.0401
634.00,0.0401
633.00,0.0400
632.00,0.0399
631.00,0.0399
630.00,0.0400
629.00,0.0403
628.00,0.0405
627.00,0.0407
626.00,0.0412
625.00,0.0418
624.00,0.0425
623.00,0.0434
622.00,0.0444
621.00,0.0452
620.00,0.0457
619.00,0.0456
618.00,0.0451
617.00,0.0441
616.00,0.0428
615.00,0.0415
614.00,0.0406
613.00,0.0400
612.00,0.0395
611.00,0.0395
610.00,0.0400
609.00,0.0411
608.00,0.0428
607.00,0.0451
606.00,0.0478
605.00,0.0502
604.00,0.0521
603.00,0.0536
602.00,0.0546
601.00,0.0551
600.00,0.0552
599.00,0.0551
598.00,0.0550
597.00,0.0549
596.00,0.0547
595.00,0.0545
594.00,0.0544
593.00,0.0542
592.00,0.0538
591.00,0.0533
590.00,0.0529
589.00,0.0524
588.00,0.0520
587.00,0.0518
586.00,0.0519
585.00,0.0521
584.00,0.0523
583.00,0.0528
582.00,0.0535
581.00,0.0543
580.00,0.0553
579.00,0.0568
578.00,0.0588
577.00,0.0606
576.00,0.0614
575.00,0.0611
574.00,0.0599
573.00,0.0583
572.00,0.0564
571.00,0.0548
570.00,0.0535
569.00,0.0526
568.00,0.0519
567.00,0.0517
566.00,0.0522
565.00,0.0531
564.00,0.0540
563.00,0.0553
562.00,0.0568
561.00,0.0582
560.00,0.0590
559.00,0.0591
558.00,0.0585
557.00,0.0574
556.00,0.0560
555.00,0.0547
554.00,0.0539
553.00,0.0536
552.00,0.0535
551.00,0.0541
550.00,0.0554
549.00,0.0570
548.00,0.0586
547.00,0.0600
546.00,0.0608
545.00,0.0608
544.00,0.0599
543.00,0.0585
542.00,0.0573
541.00,0.0561
540.00,0.0548
539.00,0.0538
538.00,0.0532
537.00,0.0530
536.00,0.0531
535.00,0.0538
534.00,0.0552
533.00,0.0569
532.00,0.0581
531.00,0.0588
530.00,0.0588
529.00,0.0579
528.00,0.0562
527.00,0.0543
526.00,0.0526
525.00,0.0512
524.00,0.0498
523.00,0.0488
522.00,0.0480
521.00,0.0474
520.00,0.0467
519.00,0.0461
518.00,0.0459
517.00,0.0456
516.00,0.0453
515.00,0.0451
514.00,0.0452
513.00,0.0454
512.00,0.0454
511.00,0.0456
510.00,0.0460
509.00,0.0464
508.00,0.0466
507.00,0.0467
506.00,0.0469
505.00,0.0470
504.00,0.0465
503.00,0.0459
502.00,0.0453
501.00,0.0448
500.00,0.0442
499.00,0.0439
498.00,0.0439
497.00,0.0441
496.00,0.0444
495.00,0.0450
494.00,0.0458
493.00,0.0464
492.00,0.0464
491.00,0.0463
490.00,0.0461
489.00,0.0457
488.00,0.0450
487.00,0.0445
486.00,0.0444
485.00,0.0442
484.00,0.0437
483.00,0.0432
482.00,0.0432
481.00,0.0433
480.00,0.0431
479.00,0.0429
478.00,0.0432
477.00,0.0434
476.00,0.0432
475.00,0.0430
474.00,0.0430
473.00,0.0429
472.00,0.0425
471.00,0.0423
470.00,0.0425
469.00,0.0427
468.00,0.0424
467.00,0.0422
466.00,0.0424
465.00,0.0424
464.00,0.0418
463.00,0.0414
462.00,0.0415
461.00,0.0417
460.00,0.0415
459.00,0.0416
458.00,0.0422
457.00,0.0426
456.00,0.0423
455.00,0.0419
454.00,0.0420
453.00,0.0422
452.00,0.0421
451.00,0.0419
450.00,0.0419
449.00,0.0417
448.00,0.0411
447.00,0.0410
446.00,0.0416
445.00,0.0420
444.00,0.0417
443.00,0.0413
442.00,0.0415
441.00,0.0417
440.00,0.0414
439.00,0.0411
438.00,0.0413
437.00,0.0414
436.00,0.0410
435.00,0.0407
434.00,0.0410
433.00,0.0409
432.00,0.0403
431.00,0.0399
430.00,0.0404
429.00,0.0410
428.00,0.0407
427.00,0.0401
426.00,0.0399
425.00,0.0396
424.00,0.0389
423.00,0.0385
422.00,0.0389
421.00,0.0392
420.00,0.0388
419.00,0.0386
418.00,0.0394
417.00,0.0396
416.00,0.0388
415.00,0.0385
414.00,0.0396
413.00,0.0409
412.00,0.0412
411.00,0.0415
410.00,0.0425
409.00,0.0429
408.00,0.0416
407.00,0.0402
406.00,0.0401
405.00,0.0399
404.00,0.0384
403.00,0.0373
402.00,0.0379
401.00,0.0390
400.00,0.0385
