Created as New Dataset,Sample 860 By YargerLab Date Monday, July 21 2025
cm-1,A
4000.00,0.0020
3999.00,0.0020
3998.00,0.0020
3997.00,0.0020
3996.00,0.0020
3995.00,0.0020
3994.00,0.0020
3993.00,0.0020
3992.00,0.0020
3991.00,0.0020
3990.00,0.0020
3989.00,0.0020
3988.00,0.0020
3987.00,0.0020
3986.00,0.0020
3985.00,0.0020
3984.00,0.0020
3983.00,0.0020
3982.00,0.0020
3981.00,0.0020
3980.00,0.0020
3979.00,0.0020
3978.00,0.0020
3977.00,0.0020
3976.00,0.0020
3975.00,0.0020
3974.00,0.0019
3973.00,0.0020
3972.00,0.0020
3971.00,0.0020
3970.00,0.0020
3969.00,0.0020
3968.00,0.0020
3967.00,0.0020
3966.00,0.0020
3965.00,0.0020
3964.00,0.0020
3963.00,0.0020
3962.00,0.0020
3961.00,0.0020
3960.00,0.0020
3959.00,0.0020
3958.00,0.0020
3957.00,0.0020
3956.00,0.0020
3955.00,0.0020
3954.00,0.0020
3953.00,0.0020
3952.00,0.0020
3951.00,0.0020
3950.00,0.0020
3949.00,0.0020
3948.00,0.0020
3947.00,0.0020
3946.00,0.0020
3945.00,0.0020
3944.00,0.0020
3943.00,0.0020
3942.00,0.0020
3941.00,0.0020
3940.00,0.0020
3939.00,0.0020
3938.00,0.0020
3937.00,0.0020
3936.00,0.0020
3935.00,0.0020
3934.00,0.0020
3933.00,0.0020
3932.00,0.0020
3931.00,0.0020
3930.00,0.0020
3929.00,0.0020
3928.00,0.0020
3927.00,0.0020
3926.00,0.0019
3925.00,0.0019
3924.00,0.0020
3923.00,0.0020
3922.00,0.0020
3921.00,0.0020
3920.00,0.0020
3919.00,0.0020
3918.00,0.0020
3917.00,0.0020
3916.00,0.0020
3915.00,0.0020
3914.00,0.0020
3913.00,0.0020
3912.00,0.0020
3911.00,0.0020
3910.00,0.0020
3909.00,0.0020
3908.00,0.0021
3907.00,0.0021
3906.00,0.0021
3905.00,0.0021
3904.00,0.0021
3903.00,0.0021
3902.00,0.0021
3901.00,0.0020
3900.00,0.0020
3899.00,0.0020
3898.00,0.0020
3897.00,0.0020
3896.00,0.0020
3895.00,0.0020
3894.00,0.0020
3893.00,0.0020
3892.00,0.0020
3891.00,0.0020
3890.00,0.0021
3889.00,0.0022
3888.00,0.0022
3887.00,0.0021
3886.00,0.0021
3885.00,0.0021
3884.00,0.0021
3883.00,0.0021
3882.00,0.0021
3881.00,0.0021
3880.00,0.0021
3879.00,0.0021
3878.00,0.0021
3877.00,0.0021
3876.00,0.0021
3875.00,0.0021
3874.00,0.0021
3873.00,0.0021
3872.00,0.0021
3871.00,0.0021
3870.00,0.0021
3869.00,0.0021
3868.00,0.0021
3867.00,0.0021
3866.00,0.0021
3865.00,0.0020
3864.00,0.0020
3863.00,0.0020
3862.00,0.0020
3861.00,0.0020
3860.00,0.0020
3859.00,0.0020
3858.00,0.0021
3857.00,0.0022
3856.00,0.0023
3855.00,0.0023
3854.00,0.0022
3853.00,0.0022
3852.00,0.0022
3851.00,0.0022
3850.00,0.0021
3849.00,0.0021
3848.00,0.0020
3847.00,0.0020
3846.00,0.0020
3845.00,0.0020
3844.00,0.0020
3843.00,0.0021
3842.00,0.0021
3841.00,0.0021
3840.00,0.0022
3839.00,0.0022
3838.00,0.0022
3837.00,0.0022
3836.00,0.0022
3835.00,0.0022
3834.00,0.0021
3833.00,0.0021
3832.00,0.0021
3831.00,0.0021
3830.00,0.0021
3829.00,0.0021
3828.00,0.0021
3827.00,0.0020
3826.00,0.0020
3825.00,0.0021
3824.00,0.0021
3823.00,0.0021
3822.00,0.0021
3821.00,0.0020
3820.00,0.0021
3819.00,0.0021
3818.00,0.0021
3817.00,0.0020
3816.00,0.0020
3815.00,0.0020
3814.00,0.0021
3813.00,0.0021
3812.00,0.0020
3811.00,0.0020
3810.00,0.0020
3809.00,0.0021
3808.00,0.0020
3807.00,0.0020
3806.00,0.0021
3805.00,0.0021
3804.00,0.0022
3803.00,0.0022
3802.00,0.0021
3801.00,0.0021
3800.00,0.0022
3799.00,0.0022
3798.00,0.0021
3797.00,0.0020
3796.00,0.0020
3795.00,0.0020
3794.00,0.0020
3793.00,0.0020
3792.00,0.0020
3791.00,0.0020
3790.00,0.0020
3789.00,0.0020
3788.00,0.0020
3787.00,0.0020
3786.00,0.0020
3785.00,0.0020
3784.00,0.0020
3783.00,0.0021
3782.00,0.0021
3781.00,0.0021
3780.00,0.0020
3779.00,0.0020
3778.00,0.0020
3777.00,0.0020
3776.00,0.0021
3775.00,0.0021
3774.00,0.0021
3773.00,0.0021
3772.00,0.0021
3771.00,0.0021
3770.00,0.0021
3769.00,0.0021
3768.00,0.0022
3767.00,0.0022
3766.00,0.0021
3765.00,0.0021
3764.00,0.0021
3763.00,0.0021
3762.00,0.0021
3761.00,0.0021
3760.00,0.0021
3759.00,0.0021
3758.00,0.0021
3757.00,0.0021
3756.00,0.0021
3755.00,0.0022
3754.00,0.0022
3753.00,0.0022
3752.00,0.0023
3751.00,0.0022
3750.00,0.0023
3749.00,0.0023
3748.00,0.0023
3747.00,0.0024
3746.00,0.0023
3745.00,0.0023
3744.00,0.0022
3743.00,0.0022
3742.00,0.0022
3741.00,0.0022
3740.00,0.0021
3739.00,0.0021
3738.00,0.0021
3737.00,0.0021
3736.00,0.0021
3735.00,0.0021
3734.00,0.0021
3733.00,0.0021
3732.00,0.0021
3731.00,0.0021
3730.00,0.0020
3729.00,0.0020
3728.00,0.0020
3727.00,0.0020
3726.00,0.0020
3725.00,0.0020
3724.00,0.0020
3723.00,0.0020
3722.00,0.0020
3721.00,0.0020
3720.00,0.0020
3719.00,0.0020
3718.00,0.0020
3717.00,0.0020
3716.00,0.0020
3715.00,0.0021
3714.00,0.0021
3713.00,0.0021
3712.00,0.0020
3711.00,0.0020
3710.00,0.0020
3709.00,0.0021
3708.00,0.0021
3707.00,0.0021
3706.00,0.0021
3705.00,0.0021
3704.00,0.0021
3703.00,0.0020
3702.00,0.0020
3701.00,0.0020
3700.00,0.0020
3699.00,0.0020
3698.00,0.0020
3697.00,0.0020
3696.00,0.0020
3695.00,0.0020
3694.00,0.0021
3693.00,0.0021
3692.00,0.0022
3691.00,0.0022
3690.00,0.0022
3689.00,0.0022
3688.00,0.0022
3687.00,0.0022
3686.00,0.0022
3685.00,0.0022
3684.00,0.0021
3683.00,0.0021
3682.00,0.0022
3681.00,0.0022
3680.00,0.0023
3679.00,0.0024
3678.00,0.0025
3677.00,0.0025
3676.00,0.0025
3675.00,0.0025
3674.00,0.0025
3673.00,0.0025
3672.00,0.0025
3671.00,0.0024
3670.00,0.0023
3669.00,0.0023
3668.00,0.0024
3667.00,0.0024
3666.00,0.0023
3665.00,0.0023
3664.00,0.0023
3663.00,0.0023
3662.00,0.0023
3661.00,0.0024
3660.00,0.0024
3659.00,0.0024
3658.00,0.0025
3657.00,0.0025
3656.00,0.0025
3655.00,0.0026
3654.00,0.0027
3653.00,0.0027
3652.00,0.0028
3651.00,0.0028
3650.00,0.0028
3649.00,0.0028
3648.00,0.0029
3647.00,0.0029
3646.00,0.0028
3645.00,0.0028
3644.00,0.0028
3643.00,0.0028
3642.00,0.0028
3641.00,0.0028
3640.00,0.0028
3639.00,0.0029
3638.00,0.0030
3637.00,0.0030
3636.00,0.0031
3635.00,0.0031
3634.00,0.0032
3633.00,0.0032
3632.00,0.0033
3631.00,0.0034
3630.00,0.0034
3629.00,0.0035
3628.00,0.0036
3627.00,0.0037
3626.00,0.0037
3625.00,0.0037
3624.00,0.0036
3623.00,0.0036
3622.00,0.0037
3621.00,0.0037
3620.00,0.0038
3619.00,0.0038
3618.00,0.0039
3617.00,0.0039
3616.00,0.0039
3615.00,0.0039
3614.00,0.0039
3613.00,0.0039
3612.00,0.0040
3611.00,0.0041
3610.00,0.0041
3609.00,0.0042
3608.00,0.0043
3607.00,0.0043
3606.00,0.0044
3605.00,0.0044
3604.00,0.0045
3603.00,0.0045
3602.00,0.0045
3601.00,0.0046
3600.00,0.0046
3599.00,0.0047
3598.00,0.0047
3597.00,0.0048
3596.00,0.0048
3595.00,0.0049
3594.00,0.0049
3593.00,0.0050
3592.00,0.0051
3591.00,0.0051
3590.00,0.0052
3589.00,0.0052
3588.00,0.0053
3587.00,0.0053
3586.00,0.0054
3585.00,0.0055
3584.00,0.0055
3583.00,0.0055
3582.00,0.0056
3581.00,0.0056
3580.00,0.0057
3579.00,0.0057
3578.00,0.0058
3577.00,0.0059
3576.00,0.0059
3575.00,0.0060
3574.00,0.0060
3573.00,0.0061
3572.00,0.0061
3571.00,0.0062
3570.00,0.0063
3569.00,0.0063
3568.00,0.0064
3567.00,0.0064
3566.00,0.0065
3565.00,0.0066
3564.00,0.0067
3563.00,0.0068
3562.00,0.0068
3561.00,0.0069
3560.00,0.0069
3559.00,0.0070
3558.00,0.0071
3557.00,0.0071
3556.00,0.0071
3555.00,0.0072
3554.00,0.0072
3553.00,0.0072
3552.00,0.0073
3551.00,0.0073
3550.00,0.0074
3549.00,0.0075
3548.00,0.0076
3547.00,0.0076
3546.00,0.0077
3545.00,0.0077
3544.00,0.0077
3543.00,0.0078
3542.00,0.0078
3541.00,0.0079
3540.00,0.0079
3539.00,0.0080
3538.00,0.0080
3537.00,0.0081
3536.00,0.0081
3535.00,0.0082
3534.00,0.0082
3533.00,0.0082
3532.00,0.0083
3531.00,0.0083
3530.00,0.0084
3529.00,0.0085
3528.00,0.0085
3527.00,0.0086
3526.00,0.0086
3525.00,0.0086
3524.00,0.0087
3523.00,0.0087
3522.00,0.0088
3521.00,0.0088
3520.00,0.0088
3519.00,0.0089
3518.00,0.0090
3517.00,0.0090
3516.00,0.0091
3515.00,0.0091
3514.00,0.0091
3513.00,0.0091
3512.00,0.0092
3511.00,0.0092
3510.00,0.0093
3509.00,0.0094
3508.00,0.0094
3507.00,0.0095
3506.00,0.0095
3505.00,0.0095
3504.00,0.0095
3503.00,0.0096
3502.00,0.0096
3501.00,0.0097
3500.00,0.0097
3499.00,0.0098
3498.00,0.0098
3497.00,0.0098
3496.00,0.0099
3495.00,0.0099
3494.00,0.0100
3493.00,0.0101
3492.00,0.0101
3491.00,0.0102
3490.00,0.0102
3489.00,0.0102
3488.00,0.0103
3487.00,0.0103
3486.00,0.0104
3485.00,0.0104
3484.00,0.0105
3483.00,0.0105
3482.00,0.0106
3481.00,0.0106
3480.00,0.0107
3479.00,0.0107
3478.00,0.0108
3477.00,0.0108
3476.00,0.0108
3475.00,0.0108
3474.00,0.0108
3473.00,0.0109
3472.00,0.0109
3471.00,0.0110
3470.00,0.0110
3469.00,0.0111
3468.00,0.0112
3467.00,0.0112
3466.00,0.0112
3465.00,0.0113
3464.00,0.0113
3463.00,0.0113
3462.00,0.0113
3461.00,0.0114
3460.00,0.0114
3459.00,0.0114
3458.00,0.0115
3457.00,0.0115
3456.00,0.0115
3455.00,0.0116
3454.00,0.0116
3453.00,0.0116
3452.00,0.0116
3451.00,0.0117
3450.00,0.0117
3449.00,0.0117
3448.00,0.0117
3447.00,0.0118
3446.00,0.0118
3445.00,0.0119
3444.00,0.0119
3443.00,0.0119
3442.00,0.0119
3441.00,0.0119
3440.00,0.0120
3439.00,0.0120
3438.00,0.0120
3437.00,0.0121
3436.00,0.0121
3435.00,0.0121
3434.00,0.0121
3433.00,0.0121
3432.00,0.0121
3431.00,0.0121
3430.00,0.0121
3429.00,0.0121
3428.00,0.0121
3427.00,0.0122
3426.00,0.0122
3425.00,0.0122
3424.00,0.0122
3423.00,0.0122
3422.00,0.0123
3421.00,0.0123
3420.00,0.0123
3419.00,0.0123
3418.00,0.0123
3417.00,0.0123
3416.00,0.0123
3415.00,0.0124
3414.00,0.0124
3413.00,0.0124
3412.00,0.0124
3411.00,0.0124
3410.00,0.0124
3409.00,0.0124
3408.00,0.0124
3407.00,0.0124
3406.00,0.0124
3405.00,0.0124
3404.00,0.0124
3403.00,0.0124
3402.00,0.0124
3401.00,0.0124
3400.00,0.0124
3399.00,0.0124
3398.00,0.0125
3397.00,0.0125
3396.00,0.0125
3395.00,0.0125
3394.00,0.0125
3393.00,0.0125
3392.00,0.0125
3391.00,0.0125
3390.00,0.0126
3389.00,0.0126
3388.00,0.0127
3387.00,0.0128
3386.00,0.0128
3385.00,0.0128
3384.00,0.0128
3383.00,0.0128
3382.00,0.0128
3381.00,0.0128
3380.00,0.0128
3379.00,0.0128
3378.00,0.0128
3377.00,0.0128
3376.00,0.0129
3375.00,0.0129
3374.00,0.0128
3373.00,0.0128
3372.00,0.0127
3371.00,0.0127
3370.00,0.0126
3369.00,0.0126
3368.00,0.0127
3367.00,0.0127
3366.00,0.0128
3365.00,0.0129
3364.00,0.0130
3363.00,0.0130
3362.00,0.0130
3361.00,0.0130
3360.00,0.0131
3359.00,0.0131
3358.00,0.0132
3357.00,0.0132
3356.00,0.0133
3355.00,0.0133
3354.00,0.0132
3353.00,0.0131
3352.00,0.0130
3351.00,0.0130
3350.00,0.0131
3349.00,0.0132
3348.00,0.0133
3347.00,0.0133
3346.00,0.0133
3345.00,0.0133
3344.00,0.0132
3343.00,0.0132
3342.00,0.0132
3341.00,0.0132
3340.00,0.0131
3339.00,0.0131
3338.00,0.0131
3337.00,0.0132
3336.00,0.0133
3335.00,0.0134
3334.00,0.0135
3333.00,0.0135
3332.00,0.0135
3331.00,0.0135
3330.00,0.0135
3329.00,0.0135
3328.00,0.0134
3327.00,0.0134
3326.00,0.0134
3325.00,0.0134
3324.00,0.0134
3323.00,0.0135
3322.00,0.0136
3321.00,0.0137
3320.00,0.0137
3319.00,0.0137
3318.00,0.0138
3317.00,0.0138
3316.00,0.0138
3315.00,0.0138
3314.00,0.0137
3313.00,0.0137
3312.00,0.0136
3311.00,0.0135
3310.00,0.0133
3309.00,0.0132
3308.00,0.0132
3307.00,0.0131
3306.00,0.0132
3305.00,0.0133
3304.00,0.0135
3303.00,0.0136
3302.00,0.0138
3301.00,0.0138
3300.00,0.0138
3299.00,0.0138
3298.00,0.0137
3297.00,0.0136
3296.00,0.0136
3295.00,0.0135
3294.00,0.0135
3293.00,0.0135
3292.00,0.0136
3291.00,0.0137
3290.00,0.0138
3289.00,0.0139
3288.00,0.0139
3287.00,0.0139
3286.00,0.0139
3285.00,0.0139
3284.00,0.0139
3283.00,0.0139
3282.00,0.0138
3281.00,0.0138
3280.00,0.0138
3279.00,0.0138
3278.00,0.0138
3277.00,0.0137
3276.00,0.0137
3275.00,0.0136
3274.00,0.0135
3273.00,0.0135
3272.00,0.0134
3271.00,0.0134
3270.00,0.0134
3269.00,0.0135
3268.00,0.0136
3267.00,0.0136
3266.00,0.0136
3265.00,0.0136
3264.00,0.0136
3263.00,0.0136
3262.00,0.0136
3261.00,0.0136
3260.00,0.0136
3259.00,0.0136
3258.00,0.0135
3257.00,0.0135
3256.00,0.0135
3255.00,0.0135
3254.00,0.0134
3253.00,0.0134
3252.00,0.0134
3251.00,0.0134
3250.00,0.0134
3249.00,0.0133
3248.00,0.0133
3247.00,0.0133
3246.00,0.0133
3245.00,0.0133
3244.00,0.0133
3243.00,0.0134
3242.00,0.0134
3241.00,0.0133
3240.00,0.0133
3239.00,0.0133
3238.00,0.0132
3237.00,0.0132
3236.00,0.0131
3235.00,0.0131
3234.00,0.0131
3233.00,0.0131
3232.00,0.0131
3231.00,0.0131
3230.00,0.0131
3229.00,0.0131
3228.00,0.0131
3227.00,0.0131
3226.00,0.0131
3225.00,0.0130
3224.00,0.0130
3223.00,0.0130
3222.00,0.0129
3221.00,0.0129
3220.00,0.0129
3219.00,0.0129
3218.00,0.0129
3217.00,0.0128
3216.00,0.0128
3215.00,0.0128
3214.00,0.0127
3213.00,0.0127
3212.00,0.0127
3211.00,0.0127
3210.00,0.0126
3209.00,0.0126
3208.00,0.0126
3207.00,0.0126
3206.00,0.0126
3205.00,0.0126
3204.00,0.0125
3203.00,0.0125
3202.00,0.0125
3201.00,0.0125
3200.00,0.0125
3199.00,0.0125
3198.00,0.0124
3197.00,0.0124
3196.00,0.0124
3195.00,0.0124
3194.00,0.0123
3193.00,0.0123
3192.00,0.0123
3191.00,0.0122
3190.00,0.0122
3189.00,0.0122
3188.00,0.0122
3187.00,0.0122
3186.00,0.0122
3185.00,0.0122
3184.00,0.0121
3183.00,0.0121
3182.00,0.0120
3181.00,0.0119
3180.00,0.0119
3179.00,0.0119
3178.00,0.0119
3177.00,0.0118
3176.00,0.0118
3175.00,0.0118
3174.00,0.0117
3173.00,0.0117
3172.00,0.0116
3171.00,0.0116
3170.00,0.0116
3169.00,0.0115
3168.00,0.0115
3167.00,0.0115
3166.00,0.0114
3165.00,0.0114
3164.00,0.0114
3163.00,0.0113
3162.00,0.0113
3161.00,0.0112
3160.00,0.0112
3159.00,0.0111
3158.00,0.0111
3157.00,0.0110
3156.00,0.0110
3155.00,0.0109
3154.00,0.0109
3153.00,0.0108
3152.00,0.0108
3151.00,0.0107
3150.00,0.0107
3149.00,0.0107
3148.00,0.0107
3147.00,0.0106
3146.00,0.0106
3145.00,0.0105
3144.00,0.0105
3143.00,0.0105
3142.00,0.0104
3141.00,0.0104
3140.00,0.0103
3139.00,0.0103
3138.00,0.0103
3137.00,0.0102
3136.00,0.0102
3135.00,0.0102
3134.00,0.0102
3133.00,0.0102
3132.00,0.0101
3131.00,0.0101
3130.00,0.0101
3129.00,0.0100
3128.00,0.0100
3127.00,0.0100
3126.00,0.0100
3125.00,0.0100
3124.00,0.0099
3123.00,0.0099
3122.00,0.0098
3121.00,0.0098
3120.00,0.0098
3119.00,0.0097
3118.00,0.0097
3117.00,0.0097
3116.00,0.0096
3115.00,0.0096
3114.00,0.0096
3113.00,0.0096
3112.00,0.0095
3111.00,0.0094
3110.00,0.0094
3109.00,0.0094
3108.00,0.0093
3107.00,0.0093
3106.00,0.0093
3105.00,0.0092
3104.00,0.0092
3103.00,0.0091
3102.00,0.0091
3101.00,0.0090
3100.00,0.0090
3099.00,0.0090
3098.00,0.0089
3097.00,0.0089
3096.00,0.0089
3095.00,0.0089
3094.00,0.0088
3093.00,0.0088
3092.00,0.0088
3091.00,0.0087
3090.00,0.0087
3089.00,0.0087
3088.00,0.0087
3087.00,0.0087
3086.00,0.0086
3085.00,0.0086
3084.00,0.0086
3083.00,0.0086
3082.00,0.0086
3081.00,0.0086
3080.00,0.0086
3079.00,0.0086
3078.00,0.0086
3077.00,0.0086
3076.00,0.0086
3075.00,0.0086
3074.00,0.0085
3073.00,0.0085
3072.00,0.0085
3071.00,0.0085
3070.00,0.0085
3069.00,0.0084
3068.00,0.0084
3067.00,0.0083
3066.00,0.0083
3065.00,0.0082
3064.00,0.0081
3063.00,0.0080
3062.00,0.0080
3061.00,0.0079
3060.00,0.0078
3059.00,0.0078
3058.00,0.0077
3057.00,0.0077
3056.00,0.0076
3055.00,0.0076
3054.00,0.0076
3053.00,0.0076
3052.00,0.0075
3051.00,0.0075
3050.00,0.0075
3049.00,0.0075
3048.00,0.0075
3047.00,0.0074
3046.00,0.0074
3045.00,0.0074
3044.00,0.0073
3043.00,0.0073
3042.00,0.0073
3041.00,0.0073
3040.00,0.0073
3039.00,0.0072
3038.00,0.0072
3037.00,0.0072
3036.00,0.0071
3035.00,0.0071
3034.00,0.0071
3033.00,0.0071
3032.00,0.0071
3031.00,0.0071
3030.00,0.0071
3029.00,0.0071
3028.00,0.0071
3027.00,0.0071
3026.00,0.0071
3025.00,0.0071
3024.00,0.0071
3023.00,0.0071
3022.00,0.0072
3021.00,0.0072
3020.00,0.0072
3019.00,0.0072
3018.00,0.0073
3017.00,0.0073
3016.00,0.0074
3015.00,0.0074
3014.00,0.0074
3013.00,0.0075
3012.00,0.0076
3011.00,0.0077
3010.00,0.0077
3009.00,0.0078
3008.00,0.0079
3007.00,0.0080
3006.00,0.0081
3005.00,0.0082
3004.00,0.0083
3003.00,0.0084
3002.00,0.0085
3001.00,0.0087
3000.00,0.0088
2999.00,0.0090
2998.00,0.0092
2997.00,0.0094
2996.00,0.0096
2995.00,0.0098
2994.00,0.0101
2993.00,0.0103
2992.00,0.0106
2991.00,0.0109
2990.00,0.0112
2989.00,0.0115
2988.00,0.0117
2987.00,0.0120
2986.00,0.0122
2985.00,0.0123
2984.00,0.0124
2983.00,0.0125
2982.00,0.0127
2981.00,0.0129
2980.00,0.0132
2979.00,0.0135
2978.00,0.0138
2977.00,0.0142
2976.00,0.0145
2975.00,0.0147
2974.00,0.0150
2973.00,0.0153
2972.00,0.0155
2971.00,0.0159
2970.00,0.0162
2969.00,0.0166
2968.00,0.0170
2967.00,0.0174
2966.00,0.0179
2965.00,0.0183
2964.00,0.0187
2963.00,0.0192
2962.00,0.0196
2961.00,0.0199
2960.00,0.0203
2959.00,0.0206
2958.00,0.0209
2957.00,0.0211
2956.00,0.0213
2955.00,0.0215
2954.00,0.0216
2953.00,0.0217
2952.00,0.0218
2951.00,0.0218
2950.00,0.0217
2949.00,0.0217
2948.00,0.0217
2947.00,0.0217
2946.00,0.0217
2945.00,0.0217
2944.00,0.0217
2943.00,0.0217
2942.00,0.0218
2941.00,0.0219
2940.00,0.0220
2939.00,0.0222
2938.00,0.0224
2937.00,0.0226
2936.00,0.0229
2935.00,0.0232
2934.00,0.0235
2933.00,0.0238
2932.00,0.0240
2931.00,0.0243
2930.00,0.0246
2929.00,0.0249
2928.00,0.0252
2927.00,0.0254
2926.00,0.0256
2925.00,0.0257
2924.00,0.0258
2923.00,0.0259
2922.00,0.0259
2921.00,0.0258
2920.00,0.0257
2919.00,0.0256
2918.00,0.0254
2917.00,0.0251
2916.00,0.0248
2915.00,0.0245
2914.00,0.0242
2913.00,0.0238
2912.00,0.0235
2911.00,0.0231
2910.00,0.0228
2909.00,0.0224
2908.00,0.0221
2907.00,0.0217
2906.00,0.0214
2905.00,0.0211
2904.00,0.0208
2903.00,0.0206
2902.00,0.0204
2901.00,0.0203
2900.00,0.0201
2899.00,0.0200
2898.00,0.0199
2897.00,0.0198
2896.00,0.0197
2895.00,0.0196
2894.00,0.0196
2893.00,0.0195
2892.00,0.0194
2891.00,0.0193
2890.00,0.0193
2889.00,0.0192
2888.00,0.0191
2887.00,0.0190
2886.00,0.0190
2885.00,0.0189
2884.00,0.0189
2883.00,0.0189
2882.00,0.0189
2881.00,0.0189
2880.00,0.0189
2879.00,0.0189
2878.00,0.0189
2877.00,0.0189
2876.00,0.0189
2875.00,0.0189
2874.00,0.0188
2873.00,0.0189
2872.00,0.0189
2871.00,0.0189
2870.00,0.0189
2869.00,0.0188
2868.00,0.0187
2867.00,0.0187
2866.00,0.0186
2865.00,0.0186
2864.00,0.0186
2863.00,0.0186
2862.00,0.0186
2861.00,0.0187
2860.00,0.0187
2859.00,0.0188
2858.00,0.0188
2857.00,0.0188
2856.00,0.0188
2855.00,0.0186
2854.00,0.0184
2853.00,0.0181
2852.00,0.0178
2851.00,0.0173
2850.00,0.0169
2849.00,0.0163
2848.00,0.0158
2847.00,0.0153
2846.00,0.0148
2845.00,0.0144
2844.00,0.0139
2843.00,0.0134
2842.00,0.0130
2841.00,0.0126
2840.00,0.0123
2839.00,0.0120
2838.00,0.0118
2837.00,0.0116
2836.00,0.0115
2835.00,0.0115
2834.00,0.0114
2833.00,0.0112
2832.00,0.0111
2831.00,0.0110
2830.00,0.0108
2829.00,0.0106
2828.00,0.0104
2827.00,0.0102
2826.00,0.0099
2825.00,0.0096
2824.00,0.0094
2823.00,0.0091
2822.00,0.0089
2821.00,0.0086
2820.00,0.0084
2819.00,0.0081
2818.00,0.0079
2817.00,0.0078
2816.00,0.0076
2815.00,0.0075
2814.00,0.0073
2813.00,0.0072
2812.00,0.0071
2811.00,0.0070
2810.00,0.0069
2809.00,0.0068
2808.00,0.0068
2807.00,0.0067
2806.00,0.0066
2805.00,0.0065
2804.00,0.0065
2803.00,0.0064
2802.00,0.0064
2801.00,0.0063
2800.00,0.0062
2799.00,0.0062
2798.00,0.0062
2797.00,0.0061
2796.00,0.0061
2795.00,0.0061
2794.00,0.0060
2793.00,0.0060
2792.00,0.0059
2791.00,0.0059
2790.00,0.0059
2789.00,0.0058
2788.00,0.0058
2787.00,0.0058
2786.00,0.0058
2785.00,0.0057
2784.00,0.0057
2783.00,0.0057
2782.00,0.0057
2781.00,0.0056
2780.00,0.0056
2779.00,0.0056
2778.00,0.0055
2777.00,0.0055
2776.00,0.0055
2775.00,0.0055
2774.00,0.0054
2773.00,0.0054
2772.00,0.0054
2771.00,0.0054
2770.00,0.0054
2769.00,0.0054
2768.00,0.0053
2767.00,0.0053
2766.00,0.0053
2765.00,0.0053
2764.00,0.0052
2763.00,0.0052
2762.00,0.0052
2761.00,0.0052
2760.00,0.0052
2759.00,0.0052
2758.00,0.0052
2757.00,0.0052
2756.00,0.0052
2755.00,0.0052
2754.00,0.0052
2753.00,0.0052
2752.00,0.0052
2751.00,0.0052
2750.00,0.0052
2749.00,0.0052
2748.00,0.0052
2747.00,0.0052
2746.00,0.0052
2745.00,0.0052
2744.00,0.0052
2743.00,0.0052
2742.00,0.0052
2741.00,0.0052
2740.00,0.0052
2739.00,0.0052
2738.00,0.0052
2737.00,0.0052
2736.00,0.0052
2735.00,0.0053
2734.00,0.0053
2733.00,0.0053
2732.00,0.0053
2731.00,0.0053
2730.00,0.0053
2729.00,0.0053
2728.00,0.0053
2727.00,0.0053
2726.00,0.0053
2725.00,0.0053
2724.00,0.0053
2723.00,0.0053
2722.00,0.0053
2721.00,0.0052
2720.00,0.0052
2719.00,0.0052
2718.00,0.0052
2717.00,0.0052
2716.00,0.0052
2715.00,0.0052
2714.00,0.0052
2713.00,0.0052
2712.00,0.0051
2711.00,0.0051
2710.00,0.0051
2709.00,0.0051
2708.00,0.0050
2707.00,0.0050
2706.00,0.0050
2705.00,0.0050
2704.00,0.0050
2703.00,0.0050
2702.00,0.0050
2701.00,0.0049
2700.00,0.0049
2699.00,0.0049
2698.00,0.0049
2697.00,0.0049
2696.00,0.0049
2695.00,0.0049
2694.00,0.0049
2693.00,0.0049
2692.00,0.0049
2691.00,0.0049
2690.00,0.0049
2689.00,0.0049
2688.00,0.0049
2687.00,0.0049
2686.00,0.0049
2685.00,0.0049
2684.00,0.0049
2683.00,0.0048
2682.00,0.0048
2681.00,0.0048
2680.00,0.0048
2679.00,0.0048
2678.00,0.0048
2677.00,0.0048
2676.00,0.0048
2675.00,0.0048
2674.00,0.0048
2673.00,0.0048
2672.00,0.0048
2671.00,0.0048
2670.00,0.0048
2669.00,0.0048
2668.00,0.0048
2667.00,0.0048
2666.00,0.0049
2665.00,0.0049
2664.00,0.0049
2663.00,0.0050
2662.00,0.0050
2661.00,0.0050
2660.00,0.0051
2659.00,0.0051
2658.00,0.0051
2657.00,0.0051
2656.00,0.0051
2655.00,0.0051
2654.00,0.0051
2653.00,0.0050
2652.00,0.0050
2651.00,0.0050
2650.00,0.0050
2649.00,0.0050
2648.00,0.0050
2647.00,0.0050
2646.00,0.0050
2645.00,0.0050
2644.00,0.0050
2643.00,0.0050
2642.00,0.0050
2641.00,0.0049
2640.00,0.0049
2639.00,0.0049
2638.00,0.0049
2637.00,0.0049
2636.00,0.0049
2635.00,0.0049
2634.00,0.0049
2633.00,0.0048
2632.00,0.0048
2631.00,0.0048
2630.00,0.0048
2629.00,0.0048
2628.00,0.0048
2627.00,0.0048
2626.00,0.0048
2625.00,0.0048
2624.00,0.0047
2623.00,0.0047
2622.00,0.0046
2621.00,0.0046
2620.00,0.0046
2619.00,0.0046
2618.00,0.0046
2617.00,0.0046
2616.00,0.0046
2615.00,0.0046
2614.00,0.0046
2613.00,0.0045
2612.00,0.0045
2611.00,0.0045
2610.00,0.0045
2609.00,0.0045
2608.00,0.0045
2607.00,0.0045
2606.00,0.0045
2605.00,0.0045
2604.00,0.0044
2603.00,0.0044
2602.00,0.0044
2601.00,0.0044
2600.00,0.0044
2599.00,0.0044
2598.00,0.0044
2597.00,0.0044
2596.00,0.0044
2595.00,0.0044
2594.00,0.0043
2593.00,0.0043
2592.00,0.0044
2591.00,0.0044
2590.00,0.0044
2589.00,0.0044
2588.00,0.0044
2587.00,0.0044
2586.00,0.0044
2585.00,0.0044
2584.00,0.0044
2583.00,0.0044
2582.00,0.0043
2581.00,0.0043
2580.00,0.0043
2579.00,0.0042
2578.00,0.0042
2577.00,0.0043
2576.00,0.0043
2575.00,0.0042
2574.00,0.0042
2573.00,0.0042
2572.00,0.0042
2571.00,0.0042
2570.00,0.0042
2569.00,0.0042
2568.00,0.0042
2567.00,0.0042
2566.00,0.0042
2565.00,0.0042
2564.00,0.0042
2563.00,0.0041
2562.00,0.0041
2561.00,0.0041
2560.00,0.0041
2559.00,0.0040
2558.00,0.0040
2557.00,0.0040
2556.00,0.0040
2555.00,0.0040
2554.00,0.0040
2553.00,0.0040
2552.00,0.0040
2551.00,0.0040
2550.00,0.0040
2549.00,0.0039
2548.00,0.0039
2547.00,0.0039
2546.00,0.0039
2545.00,0.0038
2544.00,0.0038
2543.00,0.0038
2542.00,0.0039
2541.00,0.0039
2540.00,0.0039
2539.00,0.0039
2538.00,0.0039
2537.00,0.0038
2536.00,0.0038
2535.00,0.0038
2534.00,0.0038
2533.00,0.0038
2532.00,0.0038
2531.00,0.0038
2530.00,0.0038
2529.00,0.0038
2528.00,0.0038
2527.00,0.0038
2526.00,0.0038
2525.00,0.0037
2524.00,0.0037
2523.00,0.0037
2522.00,0.0037
2521.00,0.0037
2520.00,0.0037
2519.00,0.0037
2518.00,0.0037
2517.00,0.0036
2516.00,0.0036
2515.00,0.0036
2514.00,0.0036
2513.00,0.0036
2512.00,0.0036
2511.00,0.0036
2510.00,0.0036
2509.00,0.0036
2508.00,0.0036
2507.00,0.0036
2506.00,0.0036
2505.00,0.0036
2504.00,0.0036
2503.00,0.0036
2502.00,0.0035
2501.00,0.0035
2500.00,0.0035
2499.00,0.0035
2498.00,0.0036
2497.00,0.0036
2496.00,0.0036
2495.00,0.0036
2494.00,0.0035
2493.00,0.0035
2492.00,0.0035
2491.00,0.0034
2490.00,0.0034
2489.00,0.0034
2488.00,0.0034
2487.00,0.0034
2486.00,0.0034
2485.00,0.0034
2484.00,0.0034
2483.00,0.0033
2482.00,0.0033
2481.00,0.0034
2480.00,0.0034
2479.00,0.0034
2478.00,0.0034
2477.00,0.0034
2476.00,0.0034
2475.00,0.0034
2474.00,0.0034
2473.00,0.0034
2472.00,0.0034
2471.00,0.0034
2470.00,0.0034
2469.00,0.0034
2468.00,0.0034
2467.00,0.0033
2466.00,0.0033
2465.00,0.0034
2464.00,0.0034
2463.00,0.0034
2462.00,0.0034
2461.00,0.0034
2460.00,0.0034
2459.00,0.0034
2458.00,0.0034
2457.00,0.0034
2456.00,0.0034
2455.00,0.0034
2454.00,0.0034
2453.00,0.0034
2452.00,0.0034
2451.00,0.0034
2450.00,0.0034
2449.00,0.0034
2448.00,0.0034
2447.00,0.0034
2446.00,0.0034
2445.00,0.0034
2444.00,0.0034
2443.00,0.0034
2442.00,0.0033
2441.00,0.0033
2440.00,0.0033
2439.00,0.0033
2438.00,0.0033
2437.00,0.0033
2436.00,0.0033
2435.00,0.0032
2434.00,0.0032
2433.00,0.0032
2432.00,0.0032
2431.00,0.0032
2430.00,0.0031
2429.00,0.0032
2428.00,0.0032
2427.00,0.0032
2426.00,0.0032
2425.00,0.0032
2424.00,0.0032
2423.00,0.0032
2422.00,0.0031
2421.00,0.0031
2420.00,0.0031
2419.00,0.0031
2418.00,0.0031
2417.00,0.0031
2416.00,0.0032
2415.00,0.0032
2414.00,0.0032
2413.00,0.0032
2412.00,0.0032
2411.00,0.0031
2410.00,0.0031
2409.00,0.0030
2408.00,0.0030
2407.00,0.0029
2406.00,0.0029
2405.00,0.0029
2404.00,0.0029
2403.00,0.0030
2402.00,0.0030
2401.00,0.0030
2400.00,0.0030
2399.00,0.0030
2398.00,0.0030
2397.00,0.0030
2396.00,0.0030
2395.00,0.0030
2394.00,0.0030
2393.00,0.0029
2392.00,0.0029
2391.00,0.0029
2390.00,0.0029
2389.00,0.0029
2388.00,0.0029
2387.00,0.0029
2386.00,0.0028
2385.00,0.0028
2384.00,0.0028
2383.00,0.0027
2382.00,0.0027
2381.00,0.0027
2380.00,0.0027
2379.00,0.0027
2378.00,0.0027
2377.00,0.0027
2376.00,0.0027
2375.00,0.0027
2374.00,0.0027
2373.00,0.0026
2372.00,0.0026
2371.00,0.0026
2370.00,0.0026
2369.00,0.0026
2368.00,0.0026
2367.00,0.0026
2366.00,0.0026
2365.00,0.0027
2364.00,0.0027
2363.00,0.0027
2362.00,0.0027
2361.00,0.0027
2360.00,0.0027
2359.00,0.0028
2358.00,0.0028
2357.00,0.0028
2356.00,0.0028
2355.00,0.0028
2354.00,0.0028
2353.00,0.0028
2352.00,0.0028
2351.00,0.0028
2350.00,0.0028
2349.00,0.0028
2348.00,0.0029
2347.00,0.0030
2346.00,0.0031
2345.00,0.0031
2344.00,0.0031
2343.00,0.0031
2342.00,0.0031
2341.00,0.0032
2340.00,0.0032
2339.00,0.0032
2338.00,0.0032
2337.00,0.0033
2336.00,0.0033
2335.00,0.0033
2334.00,0.0033
2333.00,0.0033
2332.00,0.0033
2331.00,0.0033
2330.00,0.0034
2329.00,0.0035
2328.00,0.0037
2327.00,0.0041
2326.00,0.0043
2325.00,0.0044
2324.00,0.0043
2323.00,0.0041
2322.00,0.0039
2321.00,0.0038
2320.00,0.0037
2319.00,0.0036
2318.00,0.0036
2317.00,0.0036
2316.00,0.0035
2315.00,0.0035
2314.00,0.0034
2313.00,0.0034
2312.00,0.0033
2311.00,0.0033
2310.00,0.0033
2309.00,0.0032
2308.00,0.0032
2307.00,0.0032
2306.00,0.0032
2305.00,0.0032
2304.00,0.0032
2303.00,0.0033
2302.00,0.0034
2301.00,0.0035
2300.00,0.0035
2299.00,0.0036
2298.00,0.0036
2297.00,0.0036
2296.00,0.0036
2295.00,0.0036
2294.00,0.0037
2293.00,0.0038
2292.00,0.0039
2291.00,0.0040
2290.00,0.0041
2289.00,0.0041
2288.00,0.0042
2287.00,0.0042
2286.00,0.0042
2285.00,0.0041
2284.00,0.0041
2283.00,0.0040
2282.00,0.0039
2281.00,0.0038
2280.00,0.0038
2279.00,0.0037
2278.00,0.0037
2277.00,0.0037
2276.00,0.0038
2275.00,0.0039
2274.00,0.0039
2273.00,0.0038
2272.00,0.0038
2271.00,0.0037
2270.00,0.0036
2269.00,0.0036
2268.00,0.0035
2267.00,0.0035
2266.00,0.0034
2265.00,0.0034
2264.00,0.0034
2263.00,0.0034
2262.00,0.0034
2261.00,0.0035
2260.00,0.0036
2259.00,0.0036
2258.00,0.0036
2257.00,0.0035
2256.00,0.0034
2255.00,0.0034
2254.00,0.0033
2253.00,0.0033
2252.00,0.0033
2251.00,0.0033
2250.00,0.0033
2249.00,0.0033
2248.00,0.0033
2247.00,0.0033
2246.00,0.0033
2245.00,0.0034
2244.00,0.0035
2243.00,0.0035
2242.00,0.0036
2241.00,0.0036
2240.00,0.0036
2239.00,0.0036
2238.00,0.0036
2237.00,0.0035
2236.00,0.0035
2235.00,0.0035
2234.00,0.0034
2233.00,0.0034
2232.00,0.0034
2231.00,0.0034
2230.00,0.0034
2229.00,0.0034
2228.00,0.0034
2227.00,0.0034
2226.00,0.0034
2225.00,0.0035
2224.00,0.0035
2223.00,0.0035
2222.00,0.0034
2221.00,0.0034
2220.00,0.0033
2219.00,0.0033
2218.00,0.0033
2217.00,0.0033
2216.00,0.0033
2215.00,0.0033
2214.00,0.0033
2213.00,0.0033
2212.00,0.0033
2211.00,0.0034
2210.00,0.0034
2209.00,0.0034
2208.00,0.0034
2207.00,0.0035
2206.00,0.0035
2205.00,0.0035
2204.00,0.0034
2203.00,0.0034
2202.00,0.0033
2201.00,0.0033
2200.00,0.0033
2199.00,0.0032
2198.00,0.0032
2197.00,0.0033
2196.00,0.0034
2195.00,0.0035
2194.00,0.0035
2193.00,0.0035
2192.00,0.0035
2191.00,0.0034
2190.00,0.0034
2189.00,0.0034
2188.00,0.0034
2187.00,0.0034
2186.00,0.0034
2185.00,0.0033
2184.00,0.0032
2183.00,0.0030
2182.00,0.0030
2181.00,0.0030
2180.00,0.0032
2179.00,0.0032
2178.00,0.0031
2177.00,0.0028
2176.00,0.0026
2175.00,0.0026
2174.00,0.0028
2173.00,0.0031
2172.00,0.0035
2171.00,0.0037
2170.00,0.0039
2169.00,0.0040
2168.00,0.0041
2167.00,0.0043
2166.00,0.0043
2165.00,0.0045
2164.00,0.0047
2163.00,0.0047
2162.00,0.0041
2161.00,0.0030
2160.00,0.0017
2159.00,0.0005
2158.00,-0.0001
2157.00,-0.0002
2156.00,0.0001
2155.00,0.0006
2154.00,0.0009
2153.00,0.0013
2152.00,0.0015
2151.00,0.0017
2150.00,0.0016
2149.00,0.0016
2148.00,0.0015
2147.00,0.0014
2146.00,0.0014
2145.00,0.0014
2144.00,0.0014
2143.00,0.0014
2142.00,0.0015
2141.00,0.0015
2140.00,0.0016
2139.00,0.0016
2138.00,0.0015
2137.00,0.0014
2136.00,0.0012
2135.00,0.0011
2134.00,0.0010
2133.00,0.0011
2132.00,0.0013
2131.00,0.0015
2130.00,0.0016
2129.00,0.0018
2128.00,0.0019
2127.00,0.0021
2126.00,0.0022
2125.00,0.0023
2124.00,0.0024
2123.00,0.0024
2122.00,0.0025
2121.00,0.0025
2120.00,0.0026
2119.00,0.0027
2118.00,0.0028
2117.00,0.0029
2116.00,0.0030
2115.00,0.0030
2114.00,0.0030
2113.00,0.0030
2112.00,0.0030
2111.00,0.0029
2110.00,0.0029
2109.00,0.0028
2108.00,0.0028
2107.00,0.0028
2106.00,0.0029
2105.00,0.0029
2104.00,0.0030
2103.00,0.0030
2102.00,0.0030
2101.00,0.0029
2100.00,0.0029
2099.00,0.0028
2098.00,0.0027
2097.00,0.0026
2096.00,0.0025
2095.00,0.0024
2094.00,0.0024
2093.00,0.0025
2092.00,0.0027
2091.00,0.0028
2090.00,0.0029
2089.00,0.0029
2088.00,0.0029
2087.00,0.0029
2086.00,0.0029
2085.00,0.0029
2084.00,0.0030
2083.00,0.0031
2082.00,0.0031
2081.00,0.0031
2080.00,0.0031
2079.00,0.0030
2078.00,0.0030
2077.00,0.0029
2076.00,0.0029
2075.00,0.0029
2074.00,0.0029
2073.00,0.0028
2072.00,0.0028
2071.00,0.0027
2070.00,0.0027
2069.00,0.0026
2068.00,0.0027
2067.00,0.0027
2066.00,0.0028
2065.00,0.0028
2064.00,0.0028
2063.00,0.0028
2062.00,0.0026
2061.00,0.0026
2060.00,0.0026
2059.00,0.0026
2058.00,0.0027
2057.00,0.0027
2056.00,0.0027
2055.00,0.0027
2054.00,0.0029
2053.00,0.0033
2052.00,0.0037
2051.00,0.0038
2050.00,0.0035
2049.00,0.0032
2048.00,0.0030
2047.00,0.0029
2046.00,0.0028
2045.00,0.0027
2044.00,0.0027
2043.00,0.0028
2042.00,0.0029
2041.00,0.0029
2040.00,0.0030
2039.00,0.0030
2038.00,0.0030
2037.00,0.0028
2036.00,0.0027
2035.00,0.0025
2034.00,0.0024
2033.00,0.0023
2032.00,0.0023
2031.00,0.0022
2030.00,0.0021
2029.00,0.0021
2028.00,0.0021
2027.00,0.0021
2026.00,0.0021
2025.00,0.0021
2024.00,0.0021
2023.00,0.0022
2022.00,0.0021
2021.00,0.0020
2020.00,0.0020
2019.00,0.0019
2018.00,0.0018
2017.00,0.0017
2016.00,0.0018
2015.00,0.0019
2014.00,0.0020
2013.00,0.0020
2012.00,0.0022
2011.00,0.0023
2010.00,0.0022
2009.00,0.0020
2008.00,0.0018
2007.00,0.0016
2006.00,0.0013
2005.00,0.0012
2004.00,0.0013
2003.00,0.0014
2002.00,0.0016
2001.00,0.0017
2000.00,0.0019
1999.00,0.0020
1998.00,0.0020
1997.00,0.0020
1996.00,0.0021
1995.00,0.0023
1994.00,0.0024
1993.00,0.0026
1992.00,0.0028
1991.00,0.0028
1990.00,0.0028
1989.00,0.0028
1988.00,0.0029
1987.00,0.0028
1986.00,0.0027
1985.00,0.0027
1984.00,0.0029
1983.00,0.0032
1982.00,0.0034
1981.00,0.0035
1980.00,0.0034
1979.00,0.0029
1978.00,0.0024
1977.00,0.0020
1976.00,0.0019
1975.00,0.0018
1974.00,0.0017
1973.00,0.0016
1972.00,0.0016
1971.00,0.0015
1970.00,0.0015
1969.00,0.0016
1968.00,0.0018
1967.00,0.0018
1966.00,0.0016
1965.00,0.0015
1964.00,0.0014
1963.00,0.0014
1962.00,0.0014
1961.00,0.0014
1960.00,0.0014
1959.00,0.0015
1958.00,0.0015
1957.00,0.0016
1956.00,0.0017
1955.00,0.0018
1954.00,0.0017
1953.00,0.0017
1952.00,0.0017
1951.00,0.0016
1950.00,0.0016
1949.00,0.0015
1948.00,0.0016
1947.00,0.0017
1946.00,0.0017
1945.00,0.0018
1944.00,0.0019
1943.00,0.0019
1942.00,0.0019
1941.00,0.0018
1940.00,0.0018
1939.00,0.0018
1938.00,0.0017
1937.00,0.0017
1936.00,0.0017
1935.00,0.0018
1934.00,0.0018
1933.00,0.0018
1932.00,0.0018
1931.00,0.0019
1930.00,0.0019
1929.00,0.0020
1928.00,0.0021
1927.00,0.0020
1926.00,0.0019
1925.00,0.0019
1924.00,0.0019
1923.00,0.0020
1922.00,0.0021
1921.00,0.0021
1920.00,0.0022
1919.00,0.0023
1918.00,0.0023
1917.00,0.0023
1916.00,0.0023
1915.00,0.0022
1914.00,0.0022
1913.00,0.0022
1912.00,0.0023
1911.00,0.0023
1910.00,0.0023
1909.00,0.0023
1908.00,0.0023
1907.00,0.0023
1906.00,0.0023
1905.00,0.0023
1904.00,0.0023
1903.00,0.0023
1902.00,0.0023
1901.00,0.0023
1900.00,0.0023
1899.00,0.0023
1898.00,0.0023
1897.00,0.0023
1896.00,0.0023
1895.00,0.0023
1894.00,0.0023
1893.00,0.0023
1892.00,0.0023
1891.00,0.0023
1890.00,0.0023
1889.00,0.0023
1888.00,0.0023
1887.00,0.0022
1886.00,0.0022
1885.00,0.0022
1884.00,0.0022
1883.00,0.0022
1882.00,0.0022
1881.00,0.0022
1880.00,0.0023
1879.00,0.0023
1878.00,0.0023
1877.00,0.0023
1876.00,0.0023
1875.00,0.0023
1874.00,0.0023
1873.00,0.0023
1872.00,0.0023
1871.00,0.0024
1870.00,0.0024
1869.00,0.0023
1868.00,0.0024
1867.00,0.0024
1866.00,0.0023
1865.00,0.0023
1864.00,0.0023
1863.00,0.0024
1862.00,0.0024
1861.00,0.0024
1860.00,0.0024
1859.00,0.0024
1858.00,0.0024
1857.00,0.0023
1856.00,0.0023
1855.00,0.0023
1854.00,0.0023
1853.00,0.0023
1852.00,0.0024
1851.00,0.0024
1850.00,0.0024
1849.00,0.0024
1848.00,0.0024
1847.00,0.0024
1846.00,0.0025
1845.00,0.0025
1844.00,0.0025
1843.00,0.0025
1842.00,0.0025
1841.00,0.0025
1840.00,0.0024
1839.00,0.0024
1838.00,0.0024
1837.00,0.0023
1836.00,0.0024
1835.00,0.0024
1834.00,0.0024
1833.00,0.0024
1832.00,0.0024
1831.00,0.0024
1830.00,0.0023
1829.00,0.0023
1828.00,0.0024
1827.00,0.0024
1826.00,0.0025
1825.00,0.0025
1824.00,0.0025
1823.00,0.0025
1822.00,0.0025
1821.00,0.0024
1820.00,0.0023
1819.00,0.0022
1818.00,0.0022
1817.00,0.0021
1816.00,0.0022
1815.00,0.0022
1814.00,0.0023
1813.00,0.0024
1812.00,0.0024
1811.00,0.0025
1810.00,0.0024
1809.00,0.0024
1808.00,0.0024
1807.00,0.0025
1806.00,0.0025
1805.00,0.0025
1804.00,0.0025
1803.00,0.0026
1802.00,0.0026
1801.00,0.0026
1800.00,0.0026
1799.00,0.0026
1798.00,0.0025
1797.00,0.0025
1796.00,0.0026
1795.00,0.0026
1794.00,0.0026
1793.00,0.0025
1792.00,0.0025
1791.00,0.0025
1790.00,0.0025
1789.00,0.0025
1788.00,0.0026
1787.00,0.0026
1786.00,0.0026
1785.00,0.0026
1784.00,0.0027
1783.00,0.0028
1782.00,0.0028
1781.00,0.0028
1780.00,0.0028
1779.00,0.0028
1778.00,0.0027
1777.00,0.0027
1776.00,0.0027
1775.00,0.0028
1774.00,0.0028
1773.00,0.0027
1772.00,0.0028
1771.00,0.0028
1770.00,0.0029
1769.00,0.0029
1768.00,0.0030
1767.00,0.0030
1766.00,0.0030
1765.00,0.0030
1764.00,0.0030
1763.00,0.0030
1762.00,0.0030
1761.00,0.0030
1760.00,0.0030
1759.00,0.0031
1758.00,0.0032
1757.00,0.0032
1756.00,0.0032
1755.00,0.0033
1754.00,0.0033
1753.00,0.0033
1752.00,0.0034
1751.00,0.0034
1750.00,0.0034
1749.00,0.0035
1748.00,0.0036
1747.00,0.0036
1746.00,0.0037
1745.00,0.0037
1744.00,0.0038
1743.00,0.0039
1742.00,0.0039
1741.00,0.0039
1740.00,0.0039
1739.00,0.0040
1738.00,0.0040
1737.00,0.0041
1736.00,0.0042
1735.00,0.0042
1734.00,0.0042
1733.00,0.0043
1732.00,0.0045
1731.00,0.0047
1730.00,0.0048
1729.00,0.0049
1728.00,0.0050
1727.00,0.0051
1726.00,0.0052
1725.00,0.0054
1724.00,0.0056
1723.00,0.0058
1722.00,0.0059
1721.00,0.0061
1720.00,0.0063
1719.00,0.0065
1718.00,0.0067
1717.00,0.0069
1716.00,0.0074
1715.00,0.0078
1714.00,0.0082
1713.00,0.0086
1712.00,0.0091
1711.00,0.0097
1710.00,0.0102
1709.00,0.0109
1708.00,0.0117
1707.00,0.0126
1706.00,0.0137
1705.00,0.0149
1704.00,0.0162
1703.00,0.0173
1702.00,0.0186
1701.00,0.0205
1700.00,0.0232
1699.00,0.0258
1698.00,0.0278
1697.00,0.0302
1696.00,0.0335
1695.00,0.0371
1694.00,0.0400
1693.00,0.0426
1692.00,0.0452
1691.00,0.0481
1690.00,0.0512
1689.00,0.0543
1688.00,0.0571
1687.00,0.0595
1686.00,0.0618
1685.00,0.0649
1684.00,0.0689
1683.00,0.0724
1682.00,0.0746
1681.00,0.0763
1680.00,0.0780
1679.00,0.0796
1678.00,0.0808
1677.00,0.0820
1676.00,0.0835
1675.00,0.0851
1674.00,0.0865
1673.00,0.0874
1672.00,0.0882
1671.00,0.0891
1670.00,0.0903
1669.00,0.0917
1668.00,0.0930
1667.00,0.0939
1666.00,0.0947
1665.00,0.0954
1664.00,0.0964
1663.00,0.0977
1662.00,0.0991
1661.00,0.1002
1660.00,0.1011
1659.00,0.1018
1658.00,0.1023
1657.00,0.1026
1656.00,0.1026
1655.00,0.1026
1654.00,0.1028
1653.00,0.1032
1652.00,0.1033
1651.00,0.1026
1650.00,0.1015
1649.00,0.1002
1648.00,0.0986
1647.00,0.0967
1646.00,0.0946
1645.00,0.0923
1644.00,0.0900
1643.00,0.0876
1642.00,0.0849
1641.00,0.0820
1640.00,0.0791
1639.00,0.0762
1638.00,0.0733
1637.00,0.0701
1636.00,0.0666
1635.00,0.0633
1634.00,0.0606
1633.00,0.0584
1632.00,0.0563
1631.00,0.0544
1630.00,0.0526
1629.00,0.0509
1628.00,0.0494
1627.00,0.0481
1626.00,0.0470
1625.00,0.0460
1624.00,0.0451
1623.00,0.0442
1622.00,0.0435
1621.00,0.0428
1620.00,0.0421
1619.00,0.0414
1618.00,0.0406
1617.00,0.0396
1616.00,0.0386
1615.00,0.0376
1614.00,0.0365
1613.00,0.0353
1612.00,0.0340
1611.00,0.0327
1610.00,0.0313
1609.00,0.0300
1608.00,0.0288
1607.00,0.0278
1606.00,0.0269
1605.00,0.0261
1604.00,0.0255
1603.00,0.0251
1602.00,0.0250
1601.00,0.0250
1600.00,0.0251
1599.00,0.0254
1598.00,0.0258
1597.00,0.0263
1596.00,0.0268
1595.00,0.0272
1594.00,0.0275
1593.00,0.0277
1592.00,0.0278
1591.00,0.0277
1590.00,0.0275
1589.00,0.0272
1588.00,0.0268
1587.00,0.0264
1586.00,0.0259
1585.00,0.0253
1584.00,0.0247
1583.00,0.0240
1582.00,0.0233
1581.00,0.0225
1580.00,0.0218
1579.00,0.0211
1578.00,0.0203
1577.00,0.0194
1576.00,0.0184
1575.00,0.0176
1574.00,0.0170
1573.00,0.0166
1572.00,0.0162
1571.00,0.0157
1570.00,0.0151
1569.00,0.0146
1568.00,0.0142
1567.00,0.0139
1566.00,0.0137
1565.00,0.0134
1564.00,0.0131
1563.00,0.0129
1562.00,0.0127
1561.00,0.0124
1560.00,0.0120
1559.00,0.0116
1558.00,0.0114
1557.00,0.0113
1556.00,0.0113
1555.00,0.0113
1554.00,0.0112
1553.00,0.0111
1552.00,0.0111
1551.00,0.0110
1550.00,0.0110
1549.00,0.0109
1548.00,0.0108
1547.00,0.0107
1546.00,0.0107
1545.00,0.0107
1544.00,0.0107
1543.00,0.0106
1542.00,0.0105
1541.00,0.0104
1540.00,0.0102
1539.00,0.0101
1538.00,0.0101
1537.00,0.0102
1536.00,0.0102
1535.00,0.0102
1534.00,0.0102
1533.00,0.0102
1532.00,0.0102
1531.00,0.0103
1530.00,0.0103
1529.00,0.0103
1528.00,0.0103
1527.00,0.0103
1526.00,0.0103
1525.00,0.0104
1524.00,0.0104
1523.00,0.0104
1522.00,0.0104
1521.00,0.0105
1520.00,0.0105
1519.00,0.0106
1518.00,0.0106
1517.00,0.0107
1516.00,0.0108
1515.00,0.0108
1514.00,0.0108
1513.00,0.0109
1512.00,0.0110
1511.00,0.0112
1510.00,0.0114
1509.00,0.0116
1508.00,0.0119
1507.00,0.0124
1506.00,0.0131
1505.00,0.0137
1504.00,0.0143
1503.00,0.0151
1502.00,0.0160
1501.00,0.0171
1500.00,0.0182
1499.00,0.0193
1498.00,0.0206
1497.00,0.0218
1496.00,0.0230
1495.00,0.0237
1494.00,0.0242
1493.00,0.0243
1492.00,0.0242
1491.00,0.0237
1490.00,0.0229
1489.00,0.0219
1488.00,0.0207
1487.00,0.0194
1486.00,0.0182
1485.00,0.0171
1484.00,0.0162
1483.00,0.0154
1482.00,0.0148
1481.00,0.0144
1480.00,0.0141
1479.00,0.0140
1478.00,0.0141
1477.00,0.0144
1476.00,0.0149
1475.00,0.0155
1474.00,0.0164
1473.00,0.0179
1472.00,0.0198
1471.00,0.0218
1470.00,0.0238
1469.00,0.0260
1468.00,0.0283
1467.00,0.0308
1466.00,0.0337
1465.00,0.0368
1464.00,0.0398
1463.00,0.0420
1462.00,0.0435
1461.00,0.0443
1460.00,0.0447
1459.00,0.0444
1458.00,0.0434
1457.00,0.0418
1456.00,0.0401
1455.00,0.0387
1454.00,0.0376
1453.00,0.0368
1452.00,0.0364
1451.00,0.0363
1450.00,0.0367
1449.00,0.0375
1448.00,0.0388
1447.00,0.0403
1446.00,0.0420
1445.00,0.0439
1444.00,0.0458
1443.00,0.0478
1442.00,0.0499
1441.00,0.0519
1440.00,0.0536
1439.00,0.0552
1438.00,0.0569
1437.00,0.0588
1436.00,0.0607
1435.00,0.0623
1434.00,0.0634
1433.00,0.0645
1432.00,0.0657
1431.00,0.0671
1430.00,0.0686
1429.00,0.0702
1428.00,0.0718
1427.00,0.0732
1426.00,0.0745
1425.00,0.0759
1424.00,0.0773
1423.00,0.0782
1422.00,0.0784
1421.00,0.0779
1420.00,0.0765
1419.00,0.0738
1418.00,0.0703
1417.00,0.0665
1416.00,0.0624
1415.00,0.0581
1414.00,0.0538
1413.00,0.0498
1412.00,0.0461
1411.00,0.0427
1410.00,0.0398
1409.00,0.0373
1408.00,0.0352
1407.00,0.0334
1406.00,0.0319
1405.00,0.0305
1404.00,0.0294
1403.00,0.0284
1402.00,0.0277
1401.00,0.0271
1400.00,0.0265
1399.00,0.0260
1398.00,0.0257
1397.00,0.0255
1396.00,0.0253
1395.00,0.0251
1394.00,0.0250
1393.00,0.0250
1392.00,0.0250
1391.00,0.0250
1390.00,0.0252
1389.00,0.0255
1388.00,0.0259
1387.00,0.0264
1386.00,0.0269
1385.00,0.0275
1384.00,0.0281
1383.00,0.0289
1382.00,0.0298
1381.00,0.0308
1380.00,0.0319
1379.00,0.0329
1378.00,0.0339
1377.00,0.0348
1376.00,0.0354
1375.00,0.0358
1374.00,0.0360
1373.00,0.0359
1372.00,0.0355
1371.00,0.0350
1370.00,0.0344
1369.00,0.0337
1368.00,0.0330
1367.00,0.0321
1366.00,0.0313
1365.00,0.0304
1364.00,0.0295
1363.00,0.0286
1362.00,0.0277
1361.00,0.0269
1360.00,0.0261
1359.00,0.0253
1358.00,0.0247
1357.00,0.0243
1356.00,0.0238
1355.00,0.0234
1354.00,0.0230
1353.00,0.0226
1352.00,0.0222
1351.00,0.0219
1350.00,0.0216
1349.00,0.0213
1348.00,0.0210
1347.00,0.0208
1346.00,0.0206
1345.00,0.0205
1344.00,0.0203
1343.00,0.0202
1342.00,0.0201
1341.00,0.0202
1340.00,0.0202
1339.00,0.0203
1338.00,0.0204
1337.00,0.0204
1336.00,0.0205
1335.00,0.0206
1334.00,0.0208
1333.00,0.0210
1332.00,0.0212
1331.00,0.0216
1330.00,0.0221
1329.00,0.0227
1328.00,0.0234
1327.00,0.0241
1326.00,0.0250
1325.00,0.0260
1324.00,0.0270
1323.00,0.0280
1322.00,0.0291
1321.00,0.0301
1320.00,0.0310
1319.00,0.0317
1318.00,0.0322
1317.00,0.0325
1316.00,0.0326
1315.00,0.0323
1314.00,0.0320
1313.00,0.0314
1312.00,0.0308
1311.00,0.0302
1310.00,0.0297
1309.00,0.0292
1308.00,0.0288
1307.00,0.0286
1306.00,0.0286
1305.00,0.0288
1304.00,0.0292
1303.00,0.0299
1302.00,0.0309
1301.00,0.0323
1300.00,0.0342
1299.00,0.0365
1298.00,0.0394
1297.00,0.0427
1296.00,0.0464
1295.00,0.0504
1294.00,0.0546
1293.00,0.0588
1292.00,0.0629
1291.00,0.0667
1290.00,0.0701
1289.00,0.0729
1288.00,0.0752
1287.00,0.0767
1286.00,0.0775
1285.00,0.0775
1284.00,0.0769
1283.00,0.0758
1282.00,0.0743
1281.00,0.0727
1280.00,0.0712
1279.00,0.0701
1278.00,0.0693
1277.00,0.0690
1276.00,0.0691
1275.00,0.0695
1274.00,0.0700
1273.00,0.0705
1272.00,0.0708
1271.00,0.0708
1270.00,0.0703
1269.00,0.0694
1268.00,0.0681
1267.00,0.0665
1266.00,0.0645
1265.00,0.0624
1264.00,0.0603
1263.00,0.0581
1262.00,0.0561
1261.00,0.0544
1260.00,0.0528
1259.00,0.0515
1258.00,0.0505
1257.00,0.0497
1256.00,0.0491
1255.00,0.0486
1254.00,0.0482
1253.00,0.0478
1252.00,0.0474
1251.00,0.0470
1250.00,0.0465
1249.00,0.0460
1248.00,0.0455
1247.00,0.0449
1246.00,0.0443
1245.00,0.0438
1244.00,0.0431
1243.00,0.0425
1242.00,0.0419
1241.00,0.0414
1240.00,0.0409
1239.00,0.0405
1238.00,0.0402
1237.00,0.0400
1236.00,0.0399
1235.00,0.0399
1234.00,0.0399
1233.00,0.0400
1232.00,0.0401
1231.00,0.0401
1230.00,0.0402
1229.00,0.0402
1228.00,0.0402
1227.00,0.0401
1226.00,0.0400
1225.00,0.0399
1224.00,0.0396
1223.00,0.0393
1222.00,0.0390
1221.00,0.0386
1220.00,0.0382
1219.00,0.0377
1218.00,0.0373
1217.00,0.0368
1216.00,0.0363
1215.00,0.0357
1214.00,0.0351
1213.00,0.0345
1212.00,0.0339
1211.00,0.0332
1210.00,0.0326
1209.00,0.0320
1208.00,0.0314
1207.00,0.0310
1206.00,0.0306
1205.00,0.0303
1204.00,0.0299
1203.00,0.0296
1202.00,0.0292
1201.00,0.0288
1200.00,0.0284
1199.00,0.0279
1198.00,0.0275
1197.00,0.0272
1196.00,0.0268
1195.00,0.0265
1194.00,0.0263
1193.00,0.0261
1192.00,0.0259
1191.00,0.0258
1190.00,0.0257
1189.00,0.0256
1188.00,0.0255
1187.00,0.0254
1186.00,0.0252
1185.00,0.0251
1184.00,0.0249
1183.00,0.0248
1182.00,0.0247
1181.00,0.0247
1180.00,0.0248
1179.00,0.0249
1178.00,0.0252
1177.00,0.0256
1176.00,0.0261
1175.00,0.0266
1174.00,0.0271
1173.00,0.0276
1172.00,0.0279
1171.00,0.0281
1170.00,0.0281
1169.00,0.0280
1168.00,0.0277
1167.00,0.0272
1166.00,0.0268
1165.00,0.0262
1164.00,0.0256
1163.00,0.0251
1162.00,0.0245
1161.00,0.0241
1160.00,0.0239
1159.00,0.0238
1158.00,0.0239
1157.00,0.0242
1156.00,0.0246
1155.00,0.0250
1154.00,0.0252
1153.00,0.0253
1152.00,0.0250
1151.00,0.0246
1150.00,0.0239
1149.00,0.0231
1148.00,0.0222
1147.00,0.0212
1146.00,0.0203
1145.00,0.0195
1144.00,0.0188
1143.00,0.0181
1142.00,0.0176
1141.00,0.0172
1140.00,0.0169
1139.00,0.0166
1138.00,0.0164
1137.00,0.0163
1136.00,0.0161
1135.00,0.0160
1134.00,0.0159
1133.00,0.0158
1132.00,0.0157
1131.00,0.0156
1130.00,0.0155
1129.00,0.0155
1128.00,0.0155
1127.00,0.0155
1126.00,0.0155
1125.00,0.0155
1124.00,0.0156
1123.00,0.0157
1122.00,0.0158
1121.00,0.0159
1120.00,0.0160
1119.00,0.0160
1118.00,0.0162
1117.00,0.0163
1116.00,0.0163
1115.00,0.0164
1114.00,0.0165
1113.00,0.0165
1112.00,0.0166
1111.00,0.0167
1110.00,0.0167
1109.00,0.0168
1108.00,0.0168
1107.00,0.0168
1106.00,0.0168
1105.00,0.0168
1104.00,0.0168
1103.00,0.0169
1102.00,0.0169
1101.00,0.0171
1100.00,0.0172
1099.00,0.0173
1098.00,0.0174
1097.00,0.0174
1096.00,0.0174
1095.00,0.0174
1094.00,0.0173
1093.00,0.0172
1092.00,0.0170
1091.00,0.0169
1090.00,0.0167
1089.00,0.0166
1088.00,0.0165
1087.00,0.0164
1086.00,0.0164
1085.00,0.0165
1084.00,0.0166
1083.00,0.0167
1082.00,0.0169
1081.00,0.0172
1080.00,0.0176
1079.00,0.0179
1078.00,0.0182
1077.00,0.0184
1076.00,0.0185
1075.00,0.0185
1074.00,0.0185
1073.00,0.0184
1072.00,0.0183
1071.00,0.0180
1070.00,0.0178
1069.00,0.0176
1068.00,0.0175
1067.00,0.0174
1066.00,0.0174
1065.00,0.0176
1064.00,0.0179
1063.00,0.0183
1062.00,0.0190
1061.00,0.0199
1060.00,0.0210
1059.00,0.0224
1058.00,0.0238
1057.00,0.0250
1056.00,0.0258
1055.00,0.0260
1054.00,0.0257
1053.00,0.0248
1052.00,0.0237
1051.00,0.0226
1050.00,0.0215
1049.00,0.0207
1048.00,0.0202
1047.00,0.0199
1046.00,0.0199
1045.00,0.0201
1044.00,0.0205
1043.00,0.0211
1042.00,0.0218
1041.00,0.0227
1040.00,0.0238
1039.00,0.0250
1038.00,0.0264
1037.00,0.0279
1036.00,0.0296
1035.00,0.0312
1034.00,0.0327
1033.00,0.0339
1032.00,0.0347
1031.00,0.0350
1030.00,0.0350
1029.00,0.0345
1028.00,0.0337
1027.00,0.0327
1026.00,0.0316
1025.00,0.0305
1024.00,0.0296
1023.00,0.0289
1022.00,0.0284
1021.00,0.0281
1020.00,0.0278
1019.00,0.0275
1018.00,0.0272
1017.00,0.0267
1016.00,0.0260
1015.00,0.0252
1014.00,0.0244
1013.00,0.0235
1012.00,0.0227
1011.00,0.0219
1010.00,0.0213
1009.00,0.0208
1008.00,0.0205
1007.00,0.0204
1006.00,0.0204
1005.00,0.0206
1004.00,0.0208
1003.00,0.0209
1002.00,0.0210
1001.00,0.0209
1000.00,0.0207
999.00,0.0205
998.00,0.0201
997.00,0.0197
996.00,0.0193
995.00,0.0189
994.00,0.0185
993.00,0.0182
992.00,0.0180
991.00,0.0178
990.00,0.0176
989.00,0.0175
988.00,0.0173
987.00,0.0172
986.00,0.0170
985.00,0.0168
984.00,0.0165
983.00,0.0162
982.00,0.0159
981.00,0.0157
980.00,0.0155
979.00,0.0153
978.00,0.0151
977.00,0.0150
976.00,0.0149
975.00,0.0147
974.00,0.0146
973.00,0.0145
972.00,0.0144
971.00,0.0143
970.00,0.0143
969.00,0.0142
968.00,0.0141
967.00,0.0141
966.00,0.0141
965.00,0.0140
964.00,0.0139
963.00,0.0138
962.00,0.0137
961.00,0.0135
960.00,0.0133
959.00,0.0131
958.00,0.0128
957.00,0.0125
956.00,0.0122
955.00,0.0119
954.00,0.0117
953.00,0.0115
952.00,0.0114
951.00,0.0113
950.00,0.0112
949.00,0.0112
948.00,0.0111
947.00,0.0111
946.00,0.0111
945.00,0.0111
944.00,0.0112
943.00,0.0113
942.00,0.0114
941.00,0.0117
940.00,0.0120
939.00,0.0124
938.00,0.0129
937.00,0.0134
936.00,0.0140
935.00,0.0145
934.00,0.0150
933.00,0.0152
932.00,0.0153
931.00,0.0152
930.00,0.0149
929.00,0.0146
928.00,0.0143
927.00,0.0141
926.00,0.0139
925.00,0.0138
924.00,0.0136
923.00,0.0135
922.00,0.0134
921.00,0.0133
920.00,0.0133
919.00,0.0133
918.00,0.0134
917.00,0.0135
916.00,0.0136
915.00,0.0137
914.00,0.0138
913.00,0.0138
912.00,0.0139
911.00,0.0140
910.00,0.0141
909.00,0.0144
908.00,0.0147
907.00,0.0150
906.00,0.0155
905.00,0.0160
904.00,0.0165
903.00,0.0171
902.00,0.0177
901.00,0.0182
900.00,0.0187
899.00,0.0191
898.00,0.0196
897.00,0.0199
896.00,0.0202
895.00,0.0204
894.00,0.0206
893.00,0.0207
892.00,0.0208
891.00,0.0209
890.00,0.0210
889.00,0.0210
888.00,0.0211
887.00,0.0212
886.00,0.0213
885.00,0.0214
884.00,0.0215
883.00,0.0215
882.00,0.0215
881.00,0.0214
880.00,0.0212
879.00,0.0210
878.00,0.0208
877.00,0.0206
876.00,0.0202
875.00,0.0199
874.00,0.0196
873.00,0.0193
872.00,0.0191
871.00,0.0190
870.00,0.0189
869.00,0.0188
868.00,0.0188
867.00,0.0189
866.00,0.0190
865.00,0.0192
864.00,0.0195
863.00,0.0198
862.00,0.0202
861.00,0.0207
860.00,0.0212
859.00,0.0218
858.00,0.0224
857.00,0.0231
856.00,0.0238
855.00,0.0245
854.00,0.0252
853.00,0.0259
852.00,0.0266
851.00,0.0272
850.00,0.0277
849.00,0.0282
848.00,0.0286
847.00,0.0290
846.00,0.0293
845.00,0.0295
844.00,0.0296
843.00,0.0296
842.00,0.0296
841.00,0.0295
840.00,0.0295
839.00,0.0294
838.00,0.0293
837.00,0.0292
836.00,0.0291
835.00,0.0290
834.00,0.0289
833.00,0.0289
832.00,0.0288
831.00,0.0287
830.00,0.0285
829.00,0.0282
828.00,0.0278
827.00,0.0273
826.00,0.0267
825.00,0.0261
824.00,0.0253
823.00,0.0246
822.00,0.0239
821.00,0.0232
820.00,0.0226
819.00,0.0220
818.00,0.0215
817.00,0.0210
816.00,0.0207
815.00,0.0205
814.00,0.0203
813.00,0.0201
812.00,0.0200
811.00,0.0199
810.00,0.0199
809.00,0.0199
808.00,0.0200
807.00,0.0201
806.00,0.0201
805.00,0.0201
804.00,0.0200
803.00,0.0198
802.00,0.0195
801.00,0.0192
800.00,0.0190
799.00,0.0189
798.00,0.0189
797.00,0.0190
796.00,0.0191
795.00,0.0192
794.00,0.0193
793.00,0.0194
792.00,0.0194
791.00,0.0193
790.00,0.0192
789.00,0.0191
788.00,0.0190
787.00,0.0189
786.00,0.0188
785.00,0.0188
784.00,0.0187
783.00,0.0187
782.00,0.0188
781.00,0.0188
780.00,0.0189
779.00,0.0191
778.00,0.0193
777.00,0.0196
776.00,0.0199
775.00,0.0202
774.00,0.0204
773.00,0.0206
772.00,0.0208
771.00,0.0210
770.00,0.0211
769.00,0.0213
768.00,0.0214
767.00,0.0216
766.00,0.0218
765.00,0.0221
764.00,0.0223
763.00,0.0227
762.00,0.0230
761.00,0.0234
760.00,0.0238
759.00,0.0242
758.00,0.0246
757.00,0.0249
756.00,0.0252
755.00,0.0255
754.00,0.0257
753.00,0.0258
752.00,0.0260
751.00,0.0261
750.00,0.0263
749.00,0.0265
748.00,0.0268
747.00,0.0271
746.00,0.0274
745.00,0.0278
744.00,0.0281
743.00,0.0284
742.00,0.0288
741.00,0.0292
740.00,0.0297
739.00,0.0302
738.00,0.0307
737.00,0.0311
736.00,0.0315
735.00,0.0318
734.00,0.0320
733.00,0.0321
732.00,0.0321
731.00,0.0319
730.00,0.0315
729.00,0.0311
728.00,0.0306
727.00,0.0301
726.00,0.0295
725.00,0.0290
724.00,0.0284
723.00,0.0279
722.00,0.0273
721.00,0.0269
720.00,0.0265
719.00,0.0263
718.00,0.0261
717.00,0.0260
716.00,0.0259
715.00,0.0257
714.00,0.0256
713.00,0.0255
712.00,0.0255
711.00,0.0254
710.00,0.0254
709.00,0.0254
708.00,0.0254
707.00,0.0255
706.00,0.0256
705.00,0.0257
704.00,0.0258
703.00,0.0258
702.00,0.0259
701.00,0.0261
700.00,0.0263
699.00,0.0265
698.00,0.0266
697.00,0.0268
696.00,0.0270
695.00,0.0272
694.00,0.0274
693.00,0.0277
692.00,0.0279
691.00,0.0282
690.00,0.0285
689.00,0.0289
688.00,0.0292
687.00,0.0295
686.00,0.0298
685.00,0.0301
684.00,0.0304
683.00,0.0308
682.00,0.0311
681.00,0.0315
680.00,0.0318
679.00,0.0322
678.00,0.0327
677.00,0.0331
676.00,0.0334
675.00,0.0337
674.00,0.0340
673.00,0.0343
672.00,0.0347
671.00,0.0350
670.00,0.0353
669.00,0.0359
668.00,0.0366
667.00,0.0374
666.00,0.0379
665.00,0.0383
664.00,0.0388
663.00,0.0394
662.00,0.0401
661.00,0.0408
660.00,0.0416
659.00,0.0424
658.00,0.0433
657.00,0.0441
656.00,0.0449
655.00,0.0457
654.00,0.0465
653.00,0.0473
652.00,0.0480
651.00,0.0486
650.00,0.0490
649.00,0.0493
648.00,0.0494
647.00,0.0495
646.00,0.0494
645.00,0.0492
644.00,0.0488
643.00,0.0482
642.00,0.0475
641.00,0.0468
640.00,0.0460
639.00,0.0452
638.00,0.0445
637.00,0.0438
636.00,0.0432
635.00,0.0426
634.00,0.0421
633.00,0.0416
632.00,0.0411
631.00,0.0406
630.00,0.0401
629.00,0.0397
628.00,0.0393
627.00,0.0389
626.00,0.0385
625.00,0.0382
624.00,0.0379
623.00,0.0377
622.00,0.0375
621.00,0.0374
620.00,0.0373
619.00,0.0372
618.00,0.0372
617.00,0.0372
616.00,0.0372
615.00,0.0373
614.00,0.0374
613.00,0.0375
612.00,0.0376
611.00,0.0377
610.00,0.0378
609.00,0.0378
608.00,0.0378
607.00,0.0379
606.00,0.0379
605.00,0.0380
604.00,0.0380
603.00,0.0381
602.00,0.0382
601.00,0.0384
600.00,0.0386
599.00,0.0388
598.00,0.0389
597.00,0.0390
596.00,0.0392
595.00,0.0395
594.00,0.0398
593.00,0.0401
592.00,0.0404
591.00,0.0407
590.00,0.0411
589.00,0.0415
588.00,0.0420
587.00,0.0426
586.00,0.0432
585.00,0.0440
584.00,0.0448
583.00,0.0457
582.00,0.0467
581.00,0.0477
580.00,0.0486
579.00,0.0494
578.00,0.0499
577.00,0.0503
576.00,0.0506
575.00,0.0509
574.00,0.0510
573.00,0.0511
572.00,0.0511
571.00,0.0510
570.00,0.0507
569.00,0.0504
568.00,0.0501
567.00,0.0496
566.00,0.0491
565.00,0.0485
564.00,0.0479
563.00,0.0474
562.00,0.0470
561.00,0.0468
560.00,0.0466
559.00,0.0463
558.00,0.0460
557.00,0.0458
556.00,0.0457
555.00,0.0456
554.00,0.0454
553.00,0.0453
552.00,0.0452
551.00,0.0451
550.00,0.0450
549.00,0.0447
548.00,0.0443
547.00,0.0439
546.00,0.0434
545.00,0.0429
544.00,0.0425
543.00,0.0422
542.00,0.0418
541.00,0.0414
540.00,0.0411
539.00,0.0409
538.00,0.0408
537.00,0.0409
536.00,0.0410
535.00,0.0411
534.00,0.0412
533.00,0.0412
532.00,0.0410
531.00,0.0408
530.00,0.0407
529.00,0.0408
528.00,0.0409
527.00,0.0412
526.00,0.0414
525.00,0.0416
524.00,0.0417
523.00,0.0417
522.00,0.0415
521.00,0.0413
520.00,0.0410
519.00,0.0407
518.00,0.0404
517.00,0.0400
516.00,0.0395
515.00,0.0391
514.00,0.0388
513.00,0.0387
512.00,0.0387
511.00,0.0387
510.00,0.0387
509.00,0.0387
508.00,0.0387
507.00,0.0386
506.00,0.0385
505.00,0.0385
504.00,0.0384
503.00,0.0384
502.00,0.0384
501.00,0.0384
500.00,0.0384
499.00,0.0385
498.00,0.0386
497.00,0.0386
496.00,0.0385
495.00,0.0384
494.00,0.0384
493.00,0.0386
492.00,0.0389
491.00,0.0392
490.00,0.0394
489.00,0.0395
488.00,0.0396
487.00,0.0397
486.00,0.0398
485.00,0.0399
484.00,0.0399
483.00,0.0398
482.00,0.0398
481.00,0.0398
480.00,0.0399
479.00,0.0399
478.00,0.0399
477.00,0.0400
476.00,0.0402
475.00,0.0403
474.00,0.0405
473.00,0.0407
472.00,0.0409
471.00,0.0409
470.00,0.0407
469.00,0.0404
468.00,0.0401
467.00,0.0400
466.00,0.0400
465.00,0.0402
464.00,0.0403
463.00,0.0401
462.00,0.0398
461.00,0.0395
460.00,0.0393
459.00,0.0393
458.00,0.0392
457.00,0.0390
456.00,0.0389
455.00,0.0387
454.00,0.0386
453.00,0.0385
452.00,0.0384
451.00,0.0385
450.00,0.0386
449.00,0.0387
448.00,0.0386
447.00,0.0384
446.00,0.0383
445.00,0.0382
444.00,0.0381
443.00,0.0380
442.00,0.0378
441.00,0.0378
440.00,0.0377
439.00,0.0376
438.00,0.0374
437.00,0.0374
436.00,0.0375
435.00,0.0379
434.00,0.0384
433.00,0.0388
432.00,0.0389
431.00,0.0388
430.00,0.0384
429.00,0.0383
428.00,0.0386
427.00,0.0392
426.00,0.0396
425.00,0.0397
424.00,0.0393
423.00,0.0388
422.00,0.0386
421.00,0.0389
420.00,0.0395
419.00,0.0399
418.00,0.0398
417.00,0.0395
416.00,0.0393
415.00,0.0393
414.00,0.0392
413.00,0.0389
412.00,0.0385
411.00,0.0382
410.00,0.0381
409.00,0.0383
408.00,0.0386
407.00,0.0389
406.00,0.0393
405.00,0.0396
404.00,0.0396
403.00,0.0390
402.00,0.0377
401.00,0.0361
400.00,0.0349
