Created as New Dataset,Sample 587 By YargerLab Date Thursday, June 05 2025
cm-1,A
4000.00,0.0173
3999.00,0.0173
3998.00,0.0173
3997.00,0.0173
3996.00,0.0173
3995.00,0.0172
3994.00,0.0172
3993.00,0.0172
3992.00,0.0172
3991.00,0.0172
3990.00,0.0172
3989.00,0.0172
3988.00,0.0172
3987.00,0.0172
3986.00,0.0172
3985.00,0.0172
3984.00,0.0172
3983.00,0.0172
3982.00,0.0172
3981.00,0.0172
3980.00,0.0172
3979.00,0.0172
3978.00,0.0172
3977.00,0.0172
3976.00,0.0172
3975.00,0.0172
3974.00,0.0172
3973.00,0.0172
3972.00,0.0172
3971.00,0.0171
3970.00,0.0171
3969.00,0.0171
3968.00,0.0171
3967.00,0.0172
3966.00,0.0172
3965.00,0.0172
3964.00,0.0171
3963.00,0.0171
3962.00,0.0171
3961.00,0.0171
3960.00,0.0172
3959.00,0.0172
3958.00,0.0172
3957.00,0.0172
3956.00,0.0172
3955.00,0.0172
3954.00,0.0172
3953.00,0.0172
3952.00,0.0172
3951.00,0.0172
3950.00,0.0172
3949.00,0.0172
3948.00,0.0172
3947.00,0.0171
3946.00,0.0171
3945.00,0.0171
3944.00,0.0171
3943.00,0.0171
3942.00,0.0171
3941.00,0.0171
3940.00,0.0171
3939.00,0.0171
3938.00,0.0171
3937.00,0.0171
3936.00,0.0170
3935.00,0.0170
3934.00,0.0170
3933.00,0.0171
3932.00,0.0171
3931.00,0.0171
3930.00,0.0171
3929.00,0.0171
3928.00,0.0171
3927.00,0.0171
3926.00,0.0171
3925.00,0.0171
3924.00,0.0171
3923.00,0.0171
3922.00,0.0171
3921.00,0.0171
3920.00,0.0170
3919.00,0.0170
3918.00,0.0170
3917.00,0.0170
3916.00,0.0170
3915.00,0.0170
3914.00,0.0170
3913.00,0.0170
3912.00,0.0170
3911.00,0.0170
3910.00,0.0170
3909.00,0.0170
3908.00,0.0170
3907.00,0.0170
3906.00,0.0169
3905.00,0.0169
3904.00,0.0169
3903.00,0.0169
3902.00,0.0168
3901.00,0.0168
3900.00,0.0168
3899.00,0.0168
3898.00,0.0168
3897.00,0.0168
3896.00,0.0168
3895.00,0.0168
3894.00,0.0168
3893.00,0.0168
3892.00,0.0168
3891.00,0.0168
3890.00,0.0168
3889.00,0.0168
3888.00,0.0168
3887.00,0.0168
3886.00,0.0167
3885.00,0.0167
3884.00,0.0167
3883.00,0.0167
3882.00,0.0167
3881.00,0.0166
3880.00,0.0167
3879.00,0.0167
3878.00,0.0167
3877.00,0.0167
3876.00,0.0167
3875.00,0.0167
3874.00,0.0167
3873.00,0.0167
3872.00,0.0167
3871.00,0.0167
3870.00,0.0166
3869.00,0.0166
3868.00,0.0166
3867.00,0.0166
3866.00,0.0166
3865.00,0.0166
3864.00,0.0166
3863.00,0.0166
3862.00,0.0166
3861.00,0.0166
3860.00,0.0166
3859.00,0.0166
3858.00,0.0166
3857.00,0.0166
3856.00,0.0166
3855.00,0.0165
3854.00,0.0165
3853.00,0.0165
3852.00,0.0165
3851.00,0.0165
3850.00,0.0165
3849.00,0.0165
3848.00,0.0165
3847.00,0.0165
3846.00,0.0165
3845.00,0.0165
3844.00,0.0165
3843.00,0.0165
3842.00,0.0165
3841.00,0.0164
3840.00,0.0164
3839.00,0.0164
3838.00,0.0164
3837.00,0.0164
3836.00,0.0164
3835.00,0.0164
3834.00,0.0164
3833.00,0.0164
3832.00,0.0164
3831.00,0.0164
3830.00,0.0164
3829.00,0.0164
3828.00,0.0164
3827.00,0.0164
3826.00,0.0164
3825.00,0.0164
3824.00,0.0163
3823.00,0.0163
3822.00,0.0163
3821.00,0.0163
3820.00,0.0163
3819.00,0.0162
3818.00,0.0162
3817.00,0.0162
3816.00,0.0162
3815.00,0.0162
3814.00,0.0163
3813.00,0.0162
3812.00,0.0162
3811.00,0.0162
3810.00,0.0162
3809.00,0.0162
3808.00,0.0162
3807.00,0.0162
3806.00,0.0162
3805.00,0.0163
3804.00,0.0162
3803.00,0.0162
3802.00,0.0162
3801.00,0.0162
3800.00,0.0162
3799.00,0.0162
3798.00,0.0161
3797.00,0.0161
3796.00,0.0161
3795.00,0.0161
3794.00,0.0161
3793.00,0.0161
3792.00,0.0161
3791.00,0.0161
3790.00,0.0161
3789.00,0.0161
3788.00,0.0161
3787.00,0.0161
3786.00,0.0161
3785.00,0.0160
3784.00,0.0160
3783.00,0.0160
3782.00,0.0160
3781.00,0.0160
3780.00,0.0160
3779.00,0.0160
3778.00,0.0160
3777.00,0.0159
3776.00,0.0159
3775.00,0.0159
3774.00,0.0160
3773.00,0.0160
3772.00,0.0160
3771.00,0.0160
3770.00,0.0160
3769.00,0.0160
3768.00,0.0160
3767.00,0.0160
3766.00,0.0160
3765.00,0.0160
3764.00,0.0160
3763.00,0.0160
3762.00,0.0161
3761.00,0.0161
3760.00,0.0161
3759.00,0.0161
3758.00,0.0161
3757.00,0.0160
3756.00,0.0160
3755.00,0.0160
3754.00,0.0159
3753.00,0.0159
3752.00,0.0159
3751.00,0.0158
3750.00,0.0158
3749.00,0.0158
3748.00,0.0158
3747.00,0.0158
3746.00,0.0158
3745.00,0.0158
3744.00,0.0158
3743.00,0.0158
3742.00,0.0157
3741.00,0.0156
3740.00,0.0156
3739.00,0.0155
3738.00,0.0155
3737.00,0.0155
3736.00,0.0155
3735.00,0.0155
3734.00,0.0154
3733.00,0.0153
3732.00,0.0152
3731.00,0.0153
3730.00,0.0153
3729.00,0.0153
3728.00,0.0153
3727.00,0.0153
3726.00,0.0153
3725.00,0.0153
3724.00,0.0153
3723.00,0.0153
3722.00,0.0152
3721.00,0.0152
3720.00,0.0151
3719.00,0.0151
3718.00,0.0151
3717.00,0.0152
3716.00,0.0152
3715.00,0.0152
3714.00,0.0152
3713.00,0.0152
3712.00,0.0152
3711.00,0.0152
3710.00,0.0152
3709.00,0.0151
3708.00,0.0151
3707.00,0.0151
3706.00,0.0151
3705.00,0.0151
3704.00,0.0151
3703.00,0.0150
3702.00,0.0150
3701.00,0.0150
3700.00,0.0150
3699.00,0.0150
3698.00,0.0150
3697.00,0.0150
3696.00,0.0150
3695.00,0.0150
3694.00,0.0150
3693.00,0.0150
3692.00,0.0150
3691.00,0.0150
3690.00,0.0149
3689.00,0.0148
3688.00,0.0148
3687.00,0.0148
3686.00,0.0148
3685.00,0.0148
3684.00,0.0148
3683.00,0.0148
3682.00,0.0149
3681.00,0.0149
3680.00,0.0148
3679.00,0.0148
3678.00,0.0148
3677.00,0.0147
3676.00,0.0147
3675.00,0.0147
3674.00,0.0147
3673.00,0.0146
3672.00,0.0146
3671.00,0.0145
3670.00,0.0145
3669.00,0.0145
3668.00,0.0145
3667.00,0.0145
3666.00,0.0145
3665.00,0.0145
3664.00,0.0145
3663.00,0.0145
3662.00,0.0145
3661.00,0.0145
3660.00,0.0145
3659.00,0.0145
3658.00,0.0145
3657.00,0.0145
3656.00,0.0145
3655.00,0.0145
3654.00,0.0144
3653.00,0.0144
3652.00,0.0144
3651.00,0.0144
3650.00,0.0144
3649.00,0.0144
3648.00,0.0144
3647.00,0.0144
3646.00,0.0144
3645.00,0.0145
3644.00,0.0145
3643.00,0.0145
3642.00,0.0145
3641.00,0.0145
3640.00,0.0145
3639.00,0.0145
3638.00,0.0145
3637.00,0.0145
3636.00,0.0145
3635.00,0.0145
3634.00,0.0145
3633.00,0.0146
3632.00,0.0146
3631.00,0.0146
3630.00,0.0146
3629.00,0.0145
3628.00,0.0145
3627.00,0.0145
3626.00,0.0145
3625.00,0.0145
3624.00,0.0145
3623.00,0.0145
3622.00,0.0145
3621.00,0.0145
3620.00,0.0145
3619.00,0.0145
3618.00,0.0146
3617.00,0.0146
3616.00,0.0146
3615.00,0.0146
3614.00,0.0146
3613.00,0.0146
3612.00,0.0146
3611.00,0.0146
3610.00,0.0146
3609.00,0.0146
3608.00,0.0146
3607.00,0.0146
3606.00,0.0145
3605.00,0.0145
3604.00,0.0145
3603.00,0.0145
3602.00,0.0145
3601.00,0.0145
3600.00,0.0145
3599.00,0.0145
3598.00,0.0146
3597.00,0.0146
3596.00,0.0145
3595.00,0.0145
3594.00,0.0145
3593.00,0.0145
3592.00,0.0145
3591.00,0.0145
3590.00,0.0145
3589.00,0.0145
3588.00,0.0145
3587.00,0.0145
3586.00,0.0145
3585.00,0.0145
3584.00,0.0145
3583.00,0.0145
3582.00,0.0145
3581.00,0.0146
3580.00,0.0146
3579.00,0.0146
3578.00,0.0146
3577.00,0.0146
3576.00,0.0146
3575.00,0.0146
3574.00,0.0145
3573.00,0.0145
3572.00,0.0145
3571.00,0.0145
3570.00,0.0146
3569.00,0.0146
3568.00,0.0147
3567.00,0.0147
3566.00,0.0146
3565.00,0.0146
3564.00,0.0146
3563.00,0.0146
3562.00,0.0146
3561.00,0.0146
3560.00,0.0146
3559.00,0.0146
3558.00,0.0146
3557.00,0.0147
3556.00,0.0147
3555.00,0.0147
3554.00,0.0147
3553.00,0.0147
3552.00,0.0147
3551.00,0.0147
3550.00,0.0147
3549.00,0.0147
3548.00,0.0147
3547.00,0.0147
3546.00,0.0147
3545.00,0.0147
3544.00,0.0147
3543.00,0.0147
3542.00,0.0147
3541.00,0.0147
3540.00,0.0147
3539.00,0.0147
3538.00,0.0147
3537.00,0.0147
3536.00,0.0147
3535.00,0.0147
3534.00,0.0148
3533.00,0.0148
3532.00,0.0148
3531.00,0.0148
3530.00,0.0148
3529.00,0.0148
3528.00,0.0148
3527.00,0.0148
3526.00,0.0147
3525.00,0.0147
3524.00,0.0147
3523.00,0.0147
3522.00,0.0148
3521.00,0.0148
3520.00,0.0148
3519.00,0.0148
3518.00,0.0148
3517.00,0.0148
3516.00,0.0148
3515.00,0.0148
3514.00,0.0148
3513.00,0.0148
3512.00,0.0148
3511.00,0.0149
3510.00,0.0149
3509.00,0.0149
3508.00,0.0149
3507.00,0.0149
3506.00,0.0149
3505.00,0.0149
3504.00,0.0149
3503.00,0.0149
3502.00,0.0149
3501.00,0.0149
3500.00,0.0149
3499.00,0.0150
3498.00,0.0150
3497.00,0.0150
3496.00,0.0150
3495.00,0.0151
3494.00,0.0151
3493.00,0.0151
3492.00,0.0151
3491.00,0.0151
3490.00,0.0151
3489.00,0.0151
3488.00,0.0151
3487.00,0.0151
3486.00,0.0151
3485.00,0.0152
3484.00,0.0152
3483.00,0.0152
3482.00,0.0152
3481.00,0.0152
3480.00,0.0152
3479.00,0.0152
3478.00,0.0152
3477.00,0.0153
3476.00,0.0153
3475.00,0.0153
3474.00,0.0154
3473.00,0.0154
3472.00,0.0153
3471.00,0.0153
3470.00,0.0153
3469.00,0.0153
3468.00,0.0153
3467.00,0.0153
3466.00,0.0153
3465.00,0.0154
3464.00,0.0154
3463.00,0.0154
3462.00,0.0154
3461.00,0.0154
3460.00,0.0154
3459.00,0.0154
3458.00,0.0154
3457.00,0.0154
3456.00,0.0155
3455.00,0.0155
3454.00,0.0155
3453.00,0.0155
3452.00,0.0156
3451.00,0.0156
3450.00,0.0156
3449.00,0.0156
3448.00,0.0156
3447.00,0.0156
3446.00,0.0156
3445.00,0.0156
3444.00,0.0156
3443.00,0.0156
3442.00,0.0156
3441.00,0.0156
3440.00,0.0156
3439.00,0.0156
3438.00,0.0156
3437.00,0.0156
3436.00,0.0157
3435.00,0.0157
3434.00,0.0157
3433.00,0.0156
3432.00,0.0157
3431.00,0.0157
3430.00,0.0157
3429.00,0.0157
3428.00,0.0158
3427.00,0.0158
3426.00,0.0158
3425.00,0.0159
3424.00,0.0159
3423.00,0.0159
3422.00,0.0159
3421.00,0.0159
3420.00,0.0159
3419.00,0.0159
3418.00,0.0159
3417.00,0.0160
3416.00,0.0160
3415.00,0.0160
3414.00,0.0160
3413.00,0.0160
3412.00,0.0161
3411.00,0.0161
3410.00,0.0161
3409.00,0.0162
3408.00,0.0162
3407.00,0.0163
3406.00,0.0163
3405.00,0.0163
3404.00,0.0162
3403.00,0.0161
3402.00,0.0161
3401.00,0.0161
3400.00,0.0162
3399.00,0.0163
3398.00,0.0164
3397.00,0.0165
3396.00,0.0165
3395.00,0.0165
3394.00,0.0164
3393.00,0.0163
3392.00,0.0164
3391.00,0.0165
3390.00,0.0166
3389.00,0.0168
3388.00,0.0169
3387.00,0.0170
3386.00,0.0170
3385.00,0.0170
3384.00,0.0171
3383.00,0.0171
3382.00,0.0170
3381.00,0.0170
3380.00,0.0170
3379.00,0.0170
3378.00,0.0171
3377.00,0.0171
3376.00,0.0172
3375.00,0.0172
3374.00,0.0172
3373.00,0.0171
3372.00,0.0169
3371.00,0.0168
3370.00,0.0167
3369.00,0.0167
3368.00,0.0168
3367.00,0.0169
3366.00,0.0171
3365.00,0.0173
3364.00,0.0174
3363.00,0.0175
3362.00,0.0175
3361.00,0.0175
3360.00,0.0176
3359.00,0.0177
3358.00,0.0178
3357.00,0.0180
3356.00,0.0180
3355.00,0.0180
3354.00,0.0180
3353.00,0.0179
3352.00,0.0178
3351.00,0.0178
3350.00,0.0180
3349.00,0.0182
3348.00,0.0184
3347.00,0.0185
3346.00,0.0185
3345.00,0.0185
3344.00,0.0185
3343.00,0.0186
3342.00,0.0186
3341.00,0.0186
3340.00,0.0186
3339.00,0.0187
3338.00,0.0188
3337.00,0.0189
3336.00,0.0191
3335.00,0.0193
3334.00,0.0193
3333.00,0.0194
3332.00,0.0194
3331.00,0.0194
3330.00,0.0193
3329.00,0.0193
3328.00,0.0192
3327.00,0.0192
3326.00,0.0192
3325.00,0.0192
3324.00,0.0194
3323.00,0.0195
3322.00,0.0196
3321.00,0.0197
3320.00,0.0198
3319.00,0.0198
3318.00,0.0199
3317.00,0.0199
3316.00,0.0200
3315.00,0.0201
3314.00,0.0202
3313.00,0.0202
3312.00,0.0202
3311.00,0.0202
3310.00,0.0202
3309.00,0.0201
3308.00,0.0202
3307.00,0.0202
3306.00,0.0203
3305.00,0.0205
3304.00,0.0206
3303.00,0.0208
3302.00,0.0210
3301.00,0.0211
3300.00,0.0212
3299.00,0.0213
3298.00,0.0214
3297.00,0.0214
3296.00,0.0215
3295.00,0.0216
3294.00,0.0217
3293.00,0.0218
3292.00,0.0220
3291.00,0.0222
3290.00,0.0224
3289.00,0.0227
3288.00,0.0228
3287.00,0.0230
3286.00,0.0231
3285.00,0.0233
3284.00,0.0234
3283.00,0.0235
3282.00,0.0237
3281.00,0.0238
3280.00,0.0240
3279.00,0.0242
3278.00,0.0243
3277.00,0.0243
3276.00,0.0244
3275.00,0.0244
3274.00,0.0245
3273.00,0.0245
3272.00,0.0245
3271.00,0.0246
3270.00,0.0248
3269.00,0.0251
3268.00,0.0255
3267.00,0.0257
3266.00,0.0259
3265.00,0.0260
3264.00,0.0261
3263.00,0.0262
3262.00,0.0263
3261.00,0.0263
3260.00,0.0264
3259.00,0.0265
3258.00,0.0266
3257.00,0.0266
3256.00,0.0267
3255.00,0.0269
3254.00,0.0270
3253.00,0.0272
3252.00,0.0273
3251.00,0.0274
3250.00,0.0274
3249.00,0.0275
3248.00,0.0275
3247.00,0.0276
3246.00,0.0278
3245.00,0.0280
3244.00,0.0282
3243.00,0.0284
3242.00,0.0286
3241.00,0.0287
3240.00,0.0288
3239.00,0.0290
3238.00,0.0291
3237.00,0.0291
3236.00,0.0291
3235.00,0.0292
3234.00,0.0293
3233.00,0.0295
3232.00,0.0298
3231.00,0.0300
3230.00,0.0303
3229.00,0.0305
3228.00,0.0307
3227.00,0.0308
3226.00,0.0310
3225.00,0.0311
3224.00,0.0313
3223.00,0.0315
3222.00,0.0317
3221.00,0.0318
3220.00,0.0320
3219.00,0.0321
3218.00,0.0323
3217.00,0.0325
3216.00,0.0326
3215.00,0.0328
3214.00,0.0330
3213.00,0.0332
3212.00,0.0334
3211.00,0.0336
3210.00,0.0338
3209.00,0.0339
3208.00,0.0341
3207.00,0.0342
3206.00,0.0343
3205.00,0.0345
3204.00,0.0347
3203.00,0.0348
3202.00,0.0350
3201.00,0.0352
3200.00,0.0354
3199.00,0.0355
3198.00,0.0356
3197.00,0.0357
3196.00,0.0358
3195.00,0.0360
3194.00,0.0361
3193.00,0.0362
3192.00,0.0364
3191.00,0.0365
3190.00,0.0366
3189.00,0.0368
3188.00,0.0370
3187.00,0.0371
3186.00,0.0373
3185.00,0.0375
3184.00,0.0376
3183.00,0.0378
3182.00,0.0379
3181.00,0.0381
3180.00,0.0382
3179.00,0.0384
3178.00,0.0385
3177.00,0.0387
3176.00,0.0389
3175.00,0.0390
3174.00,0.0392
3173.00,0.0393
3172.00,0.0395
3171.00,0.0396
3170.00,0.0397
3169.00,0.0399
3168.00,0.0400
3167.00,0.0402
3166.00,0.0404
3165.00,0.0406
3164.00,0.0408
3163.00,0.0409
3162.00,0.0411
3161.00,0.0413
3160.00,0.0415
3159.00,0.0417
3158.00,0.0418
3157.00,0.0420
3156.00,0.0421
3155.00,0.0422
3154.00,0.0424
3153.00,0.0426
3152.00,0.0429
3151.00,0.0431
3150.00,0.0434
3149.00,0.0437
3148.00,0.0439
3147.00,0.0442
3146.00,0.0444
3145.00,0.0446
3144.00,0.0449
3143.00,0.0451
3142.00,0.0452
3141.00,0.0454
3140.00,0.0457
3139.00,0.0459
3138.00,0.0462
3137.00,0.0465
3136.00,0.0467
3135.00,0.0470
3134.00,0.0472
3133.00,0.0474
3132.00,0.0476
3131.00,0.0479
3130.00,0.0481
3129.00,0.0483
3128.00,0.0486
3127.00,0.0488
3126.00,0.0490
3125.00,0.0493
3124.00,0.0495
3123.00,0.0497
3122.00,0.0500
3121.00,0.0502
3120.00,0.0505
3119.00,0.0508
3118.00,0.0510
3117.00,0.0514
3116.00,0.0517
3115.00,0.0521
3114.00,0.0525
3113.00,0.0528
3112.00,0.0531
3111.00,0.0534
3110.00,0.0538
3109.00,0.0541
3108.00,0.0544
3107.00,0.0548
3106.00,0.0552
3105.00,0.0555
3104.00,0.0558
3103.00,0.0561
3102.00,0.0564
3101.00,0.0568
3100.00,0.0571
3099.00,0.0574
3098.00,0.0578
3097.00,0.0581
3096.00,0.0585
3095.00,0.0589
3094.00,0.0592
3093.00,0.0595
3092.00,0.0599
3091.00,0.0603
3090.00,0.0607
3089.00,0.0611
3088.00,0.0615
3087.00,0.0619
3086.00,0.0624
3085.00,0.0628
3084.00,0.0632
3083.00,0.0636
3082.00,0.0640
3081.00,0.0645
3080.00,0.0649
3079.00,0.0654
3078.00,0.0658
3077.00,0.0663
3076.00,0.0668
3075.00,0.0672
3074.00,0.0675
3073.00,0.0679
3072.00,0.0683
3071.00,0.0686
3070.00,0.0689
3069.00,0.0692
3068.00,0.0695
3067.00,0.0698
3066.00,0.0701
3065.00,0.0704
3064.00,0.0707
3063.00,0.0710
3062.00,0.0712
3061.00,0.0714
3060.00,0.0716
3059.00,0.0719
3058.00,0.0721
3057.00,0.0724
3056.00,0.0726
3055.00,0.0728
3054.00,0.0731
3053.00,0.0733
3052.00,0.0735
3051.00,0.0737
3050.00,0.0739
3049.00,0.0740
3048.00,0.0741
3047.00,0.0742
3046.00,0.0743
3045.00,0.0743
3044.00,0.0744
3043.00,0.0744
3042.00,0.0744
3041.00,0.0744
3040.00,0.0745
3039.00,0.0746
3038.00,0.0748
3037.00,0.0752
3036.00,0.0757
3035.00,0.0765
3034.00,0.0775
3033.00,0.0788
3032.00,0.0804
3031.00,0.0824
3030.00,0.0845
3029.00,0.0866
3028.00,0.0887
3027.00,0.0904
3026.00,0.0916
3025.00,0.0924
3024.00,0.0927
3023.00,0.0928
3022.00,0.0928
3021.00,0.0928
3020.00,0.0926
3019.00,0.0922
3018.00,0.0915
3017.00,0.0904
3016.00,0.0891
3015.00,0.0879
3014.00,0.0867
3013.00,0.0858
3012.00,0.0851
3011.00,0.0846
3010.00,0.0843
3009.00,0.0841
3008.00,0.0840
3007.00,0.0839
3006.00,0.0840
3005.00,0.0840
3004.00,0.0840
3003.00,0.0841
3002.00,0.0841
3001.00,0.0842
3000.00,0.0842
2999.00,0.0843
2998.00,0.0845
2997.00,0.0846
2996.00,0.0847
2995.00,0.0849
2994.00,0.0851
2993.00,0.0852
2992.00,0.0854
2991.00,0.0855
2990.00,0.0857
2989.00,0.0859
2988.00,0.0861
2987.00,0.0863
2986.00,0.0865
2985.00,0.0866
2984.00,0.0867
2983.00,0.0868
2982.00,0.0871
2981.00,0.0877
2980.00,0.0885
2979.00,0.0894
2978.00,0.0906
2977.00,0.0918
2976.00,0.0932
2975.00,0.0947
2974.00,0.0962
2973.00,0.0976
2972.00,0.0988
2971.00,0.0998
2970.00,0.1004
2969.00,0.1006
2968.00,0.1005
2967.00,0.1000
2966.00,0.0993
2965.00,0.0985
2964.00,0.0978
2963.00,0.0972
2962.00,0.0968
2961.00,0.0965
2960.00,0.0964
2959.00,0.0965
2958.00,0.0966
2957.00,0.0968
2956.00,0.0970
2955.00,0.0971
2954.00,0.0971
2953.00,0.0969
2952.00,0.0963
2951.00,0.0956
2950.00,0.0947
2949.00,0.0937
2948.00,0.0928
2947.00,0.0919
2946.00,0.0912
2945.00,0.0906
2944.00,0.0902
2943.00,0.0898
2942.00,0.0896
2941.00,0.0894
2940.00,0.0894
2939.00,0.0893
2938.00,0.0894
2937.00,0.0895
2936.00,0.0896
2935.00,0.0898
2934.00,0.0900
2933.00,0.0903
2932.00,0.0905
2931.00,0.0908
2930.00,0.0912
2929.00,0.0916
2928.00,0.0920
2927.00,0.0926
2926.00,0.0931
2925.00,0.0938
2924.00,0.0943
2923.00,0.0949
2922.00,0.0952
2921.00,0.0954
2920.00,0.0953
2919.00,0.0951
2918.00,0.0948
2917.00,0.0945
2916.00,0.0942
2915.00,0.0940
2914.00,0.0938
2913.00,0.0937
2912.00,0.0937
2911.00,0.0938
2910.00,0.0939
2909.00,0.0942
2908.00,0.0944
2907.00,0.0947
2906.00,0.0950
2905.00,0.0952
2904.00,0.0954
2903.00,0.0956
2902.00,0.0958
2901.00,0.0959
2900.00,0.0961
2899.00,0.0961
2898.00,0.0962
2897.00,0.0962
2896.00,0.0962
2895.00,0.0962
2894.00,0.0962
2893.00,0.0961
2892.00,0.0960
2891.00,0.0959
2890.00,0.0957
2889.00,0.0956
2888.00,0.0955
2887.00,0.0953
2886.00,0.0952
2885.00,0.0951
2884.00,0.0951
2883.00,0.0950
2882.00,0.0950
2881.00,0.0950
2880.00,0.0950
2879.00,0.0950
2878.00,0.0949
2877.00,0.0947
2876.00,0.0945
2875.00,0.0942
2874.00,0.0939
2873.00,0.0936
2872.00,0.0934
2871.00,0.0931
2870.00,0.0928
2869.00,0.0925
2868.00,0.0921
2867.00,0.0918
2866.00,0.0916
2865.00,0.0914
2864.00,0.0912
2863.00,0.0911
2862.00,0.0911
2861.00,0.0911
2860.00,0.0911
2859.00,0.0913
2858.00,0.0914
2857.00,0.0916
2856.00,0.0919
2855.00,0.0922
2854.00,0.0926
2853.00,0.0929
2852.00,0.0934
2851.00,0.0938
2850.00,0.0943
2849.00,0.0949
2848.00,0.0955
2847.00,0.0961
2846.00,0.0967
2845.00,0.0974
2844.00,0.0980
2843.00,0.0986
2842.00,0.0992
2841.00,0.0998
2840.00,0.1003
2839.00,0.1008
2838.00,0.1013
2837.00,0.1017
2836.00,0.1021
2835.00,0.1024
2834.00,0.1026
2833.00,0.1028
2832.00,0.1029
2831.00,0.1030
2830.00,0.1030
2829.00,0.1030
2828.00,0.1030
2827.00,0.1029
2826.00,0.1028
2825.00,0.1027
2824.00,0.1025
2823.00,0.1023
2822.00,0.1021
2821.00,0.1019
2820.00,0.1017
2819.00,0.1014
2818.00,0.1011
2817.00,0.1007
2816.00,0.1003
2815.00,0.0999
2814.00,0.0995
2813.00,0.0991
2812.00,0.0986
2811.00,0.0981
2810.00,0.0977
2809.00,0.0972
2808.00,0.0968
2807.00,0.0963
2806.00,0.0959
2805.00,0.0954
2804.00,0.0950
2803.00,0.0945
2802.00,0.0940
2801.00,0.0935
2800.00,0.0930
2799.00,0.0925
2798.00,0.0920
2797.00,0.0914
2796.00,0.0909
2795.00,0.0903
2794.00,0.0897
2793.00,0.0891
2792.00,0.0886
2791.00,0.0880
2790.00,0.0875
2789.00,0.0869
2788.00,0.0864
2787.00,0.0858
2786.00,0.0853
2785.00,0.0849
2784.00,0.0844
2783.00,0.0840
2782.00,0.0837
2781.00,0.0834
2780.00,0.0832
2779.00,0.0830
2778.00,0.0829
2777.00,0.0829
2776.00,0.0829
2775.00,0.0829
2774.00,0.0830
2773.00,0.0831
2772.00,0.0833
2771.00,0.0834
2770.00,0.0836
2769.00,0.0838
2768.00,0.0840
2767.00,0.0842
2766.00,0.0844
2765.00,0.0846
2764.00,0.0848
2763.00,0.0849
2762.00,0.0850
2761.00,0.0851
2760.00,0.0852
2759.00,0.0852
2758.00,0.0852
2757.00,0.0852
2756.00,0.0852
2755.00,0.0851
2754.00,0.0850
2753.00,0.0848
2752.00,0.0847
2751.00,0.0846
2750.00,0.0844
2749.00,0.0843
2748.00,0.0843
2747.00,0.0843
2746.00,0.0843
2745.00,0.0845
2744.00,0.0847
2743.00,0.0850
2742.00,0.0853
2741.00,0.0856
2740.00,0.0860
2739.00,0.0864
2738.00,0.0868
2737.00,0.0872
2736.00,0.0875
2735.00,0.0878
2734.00,0.0879
2733.00,0.0880
2732.00,0.0880
2731.00,0.0878
2730.00,0.0876
2729.00,0.0873
2728.00,0.0870
2727.00,0.0867
2726.00,0.0863
2725.00,0.0859
2724.00,0.0855
2723.00,0.0850
2722.00,0.0846
2721.00,0.0842
2720.00,0.0839
2719.00,0.0836
2718.00,0.0834
2717.00,0.0832
2716.00,0.0831
2715.00,0.0830
2714.00,0.0830
2713.00,0.0831
2712.00,0.0833
2711.00,0.0835
2710.00,0.0838
2709.00,0.0842
2708.00,0.0845
2707.00,0.0849
2706.00,0.0853
2705.00,0.0857
2704.00,0.0861
2703.00,0.0866
2702.00,0.0869
2701.00,0.0873
2700.00,0.0877
2699.00,0.0880
2698.00,0.0884
2697.00,0.0887
2696.00,0.0890
2695.00,0.0894
2694.00,0.0897
2693.00,0.0899
2692.00,0.0902
2691.00,0.0904
2690.00,0.0905
2689.00,0.0905
2688.00,0.0906
2687.00,0.0905
2686.00,0.0905
2685.00,0.0904
2684.00,0.0903
2683.00,0.0902
2682.00,0.0901
2681.00,0.0900
2680.00,0.0900
2679.00,0.0899
2678.00,0.0899
2677.00,0.0900
2676.00,0.0901
2675.00,0.0902
2674.00,0.0904
2673.00,0.0906
2672.00,0.0909
2671.00,0.0912
2670.00,0.0915
2669.00,0.0918
2668.00,0.0922
2667.00,0.0925
2666.00,0.0928
2665.00,0.0930
2664.00,0.0933
2663.00,0.0935
2662.00,0.0938
2661.00,0.0940
2660.00,0.0942
2659.00,0.0945
2658.00,0.0949
2657.00,0.0953
2656.00,0.0958
2655.00,0.0963
2654.00,0.0969
2653.00,0.0975
2652.00,0.0980
2651.00,0.0985
2650.00,0.0989
2649.00,0.0993
2648.00,0.0996
2647.00,0.0998
2646.00,0.0999
2645.00,0.0999
2644.00,0.0999
2643.00,0.0998
2642.00,0.0996
2641.00,0.0994
2640.00,0.0991
2639.00,0.0988
2638.00,0.0984
2637.00,0.0980
2636.00,0.0976
2635.00,0.0973
2634.00,0.0969
2633.00,0.0965
2632.00,0.0961
2631.00,0.0958
2630.00,0.0955
2629.00,0.0953
2628.00,0.0952
2627.00,0.0952
2626.00,0.0953
2625.00,0.0955
2624.00,0.0957
2623.00,0.0960
2622.00,0.0961
2621.00,0.0963
2620.00,0.0963
2619.00,0.0963
2618.00,0.0963
2617.00,0.0962
2616.00,0.0961
2615.00,0.0960
2614.00,0.0959
2613.00,0.0958
2612.00,0.0957
2611.00,0.0956
2610.00,0.0955
2609.00,0.0954
2608.00,0.0952
2607.00,0.0950
2606.00,0.0948
2605.00,0.0946
2604.00,0.0944
2603.00,0.0942
2602.00,0.0939
2601.00,0.0937
2600.00,0.0934
2599.00,0.0932
2598.00,0.0930
2597.00,0.0928
2596.00,0.0927
2595.00,0.0927
2594.00,0.0927
2593.00,0.0929
2592.00,0.0931
2591.00,0.0935
2590.00,0.0939
2589.00,0.0943
2588.00,0.0949
2587.00,0.0957
2586.00,0.0965
2585.00,0.0974
2584.00,0.0984
2583.00,0.0993
2582.00,0.1002
2581.00,0.1011
2580.00,0.1017
2579.00,0.1022
2578.00,0.1025
2577.00,0.1026
2576.00,0.1026
2575.00,0.1025
2574.00,0.1023
2573.00,0.1020
2572.00,0.1018
2571.00,0.1016
2570.00,0.1014
2569.00,0.1013
2568.00,0.1013
2567.00,0.1013
2566.00,0.1013
2565.00,0.1013
2564.00,0.1014
2563.00,0.1014
2562.00,0.1014
2561.00,0.1015
2560.00,0.1015
2559.00,0.1015
2558.00,0.1014
2557.00,0.1014
2556.00,0.1015
2555.00,0.1015
2554.00,0.1015
2553.00,0.1015
2552.00,0.1014
2551.00,0.1011
2550.00,0.1008
2549.00,0.1005
2548.00,0.1000
2547.00,0.0995
2546.00,0.0990
2545.00,0.0985
2544.00,0.0980
2543.00,0.0975
2542.00,0.0970
2541.00,0.0965
2540.00,0.0960
2539.00,0.0955
2538.00,0.0951
2537.00,0.0948
2536.00,0.0945
2535.00,0.0942
2534.00,0.0940
2533.00,0.0938
2532.00,0.0937
2531.00,0.0936
2530.00,0.0937
2529.00,0.0938
2528.00,0.0939
2527.00,0.0941
2526.00,0.0944
2525.00,0.0947
2524.00,0.0950
2523.00,0.0953
2522.00,0.0956
2521.00,0.0960
2520.00,0.0962
2519.00,0.0964
2518.00,0.0964
2517.00,0.0962
2516.00,0.0959
2515.00,0.0955
2514.00,0.0950
2513.00,0.0945
2512.00,0.0939
2511.00,0.0933
2510.00,0.0928
2509.00,0.0922
2508.00,0.0916
2507.00,0.0910
2506.00,0.0905
2505.00,0.0900
2504.00,0.0896
2503.00,0.0892
2502.00,0.0889
2501.00,0.0886
2500.00,0.0883
2499.00,0.0880
2498.00,0.0878
2497.00,0.0876
2496.00,0.0873
2495.00,0.0871
2494.00,0.0868
2493.00,0.0866
2492.00,0.0863
2491.00,0.0861
2490.00,0.0859
2489.00,0.0857
2488.00,0.0855
2487.00,0.0854
2486.00,0.0852
2485.00,0.0852
2484.00,0.0851
2483.00,0.0851
2482.00,0.0851
2481.00,0.0850
2480.00,0.0849
2479.00,0.0848
2478.00,0.0845
2477.00,0.0842
2476.00,0.0839
2475.00,0.0836
2474.00,0.0832
2473.00,0.0829
2472.00,0.0825
2471.00,0.0821
2470.00,0.0816
2469.00,0.0813
2468.00,0.0810
2467.00,0.0808
2466.00,0.0805
2465.00,0.0804
2464.00,0.0802
2463.00,0.0801
2462.00,0.0799
2461.00,0.0798
2460.00,0.0797
2459.00,0.0796
2458.00,0.0794
2457.00,0.0793
2456.00,0.0791
2455.00,0.0790
2454.00,0.0788
2453.00,0.0787
2452.00,0.0786
2451.00,0.0785
2450.00,0.0784
2449.00,0.0783
2448.00,0.0782
2447.00,0.0779
2446.00,0.0776
2445.00,0.0773
2444.00,0.0769
2443.00,0.0765
2442.00,0.0761
2441.00,0.0758
2440.00,0.0754
2439.00,0.0751
2438.00,0.0748
2437.00,0.0745
2436.00,0.0742
2435.00,0.0740
2434.00,0.0737
2433.00,0.0735
2432.00,0.0733
2431.00,0.0730
2430.00,0.0728
2429.00,0.0726
2428.00,0.0724
2427.00,0.0722
2426.00,0.0720
2425.00,0.0719
2424.00,0.0718
2423.00,0.0718
2422.00,0.0718
2421.00,0.0718
2420.00,0.0718
2419.00,0.0719
2418.00,0.0719
2417.00,0.0720
2416.00,0.0720
2415.00,0.0721
2414.00,0.0720
2413.00,0.0719
2412.00,0.0718
2411.00,0.0716
2410.00,0.0714
2409.00,0.0711
2408.00,0.0708
2407.00,0.0705
2406.00,0.0703
2405.00,0.0700
2404.00,0.0698
2403.00,0.0695
2402.00,0.0692
2401.00,0.0690
2400.00,0.0687
2399.00,0.0684
2398.00,0.0681
2397.00,0.0678
2396.00,0.0676
2395.00,0.0673
2394.00,0.0670
2393.00,0.0667
2392.00,0.0665
2391.00,0.0663
2390.00,0.0660
2389.00,0.0658
2388.00,0.0655
2387.00,0.0653
2386.00,0.0650
2385.00,0.0647
2384.00,0.0644
2383.00,0.0641
2382.00,0.0638
2381.00,0.0636
2380.00,0.0634
2379.00,0.0632
2378.00,0.0630
2377.00,0.0629
2376.00,0.0628
2375.00,0.0627
2374.00,0.0626
2373.00,0.0625
2372.00,0.0623
2371.00,0.0621
2370.00,0.0619
2369.00,0.0616
2368.00,0.0614
2367.00,0.0612
2366.00,0.0611
2365.00,0.0609
2364.00,0.0607
2363.00,0.0606
2362.00,0.0604
2361.00,0.0603
2360.00,0.0602
2359.00,0.0600
2358.00,0.0598
2357.00,0.0597
2356.00,0.0597
2355.00,0.0596
2354.00,0.0595
2353.00,0.0593
2352.00,0.0591
2351.00,0.0589
2350.00,0.0587
2349.00,0.0587
2348.00,0.0587
2347.00,0.0586
2346.00,0.0584
2345.00,0.0582
2344.00,0.0580
2343.00,0.0578
2342.00,0.0577
2341.00,0.0577
2340.00,0.0577
2339.00,0.0577
2338.00,0.0576
2337.00,0.0575
2336.00,0.0574
2335.00,0.0573
2334.00,0.0571
2333.00,0.0570
2332.00,0.0568
2331.00,0.0566
2330.00,0.0566
2329.00,0.0567
2328.00,0.0570
2327.00,0.0573
2326.00,0.0576
2325.00,0.0576
2324.00,0.0574
2323.00,0.0571
2322.00,0.0567
2321.00,0.0565
2320.00,0.0564
2319.00,0.0563
2318.00,0.0563
2317.00,0.0562
2316.00,0.0562
2315.00,0.0562
2314.00,0.0561
2313.00,0.0560
2312.00,0.0560
2311.00,0.0560
2310.00,0.0560
2309.00,0.0561
2308.00,0.0563
2307.00,0.0565
2306.00,0.0567
2305.00,0.0569
2304.00,0.0570
2303.00,0.0572
2302.00,0.0572
2301.00,0.0571
2300.00,0.0569
2299.00,0.0567
2298.00,0.0564
2297.00,0.0561
2296.00,0.0558
2295.00,0.0554
2294.00,0.0551
2293.00,0.0548
2292.00,0.0546
2291.00,0.0544
2290.00,0.0542
2289.00,0.0540
2288.00,0.0538
2287.00,0.0536
2286.00,0.0534
2285.00,0.0531
2284.00,0.0529
2283.00,0.0527
2282.00,0.0525
2281.00,0.0523
2280.00,0.0522
2279.00,0.0520
2278.00,0.0519
2277.00,0.0518
2276.00,0.0517
2275.00,0.0517
2274.00,0.0517
2273.00,0.0517
2272.00,0.0517
2271.00,0.0517
2270.00,0.0515
2269.00,0.0513
2268.00,0.0511
2267.00,0.0508
2266.00,0.0506
2265.00,0.0504
2264.00,0.0503
2263.00,0.0502
2262.00,0.0500
2261.00,0.0499
2260.00,0.0499
2259.00,0.0497
2258.00,0.0495
2257.00,0.0493
2256.00,0.0491
2255.00,0.0489
2254.00,0.0488
2253.00,0.0488
2252.00,0.0488
2251.00,0.0489
2250.00,0.0488
2249.00,0.0487
2248.00,0.0486
2247.00,0.0485
2246.00,0.0484
2245.00,0.0484
2244.00,0.0485
2243.00,0.0486
2242.00,0.0487
2241.00,0.0488
2240.00,0.0490
2239.00,0.0491
2238.00,0.0492
2237.00,0.0492
2236.00,0.0493
2235.00,0.0494
2234.00,0.0495
2233.00,0.0496
2232.00,0.0496
2231.00,0.0496
2230.00,0.0494
2229.00,0.0493
2228.00,0.0492
2227.00,0.0490
2226.00,0.0487
2225.00,0.0484
2224.00,0.0482
2223.00,0.0479
2222.00,0.0475
2221.00,0.0473
2220.00,0.0471
2219.00,0.0469
2218.00,0.0467
2217.00,0.0466
2216.00,0.0466
2215.00,0.0466
2214.00,0.0465
2213.00,0.0465
2212.00,0.0464
2211.00,0.0464
2210.00,0.0462
2209.00,0.0460
2208.00,0.0460
2207.00,0.0459
2206.00,0.0459
2205.00,0.0459
2204.00,0.0459
2203.00,0.0458
2202.00,0.0456
2201.00,0.0454
2200.00,0.0453
2199.00,0.0453
2198.00,0.0452
2197.00,0.0452
2196.00,0.0452
2195.00,0.0451
2194.00,0.0448
2193.00,0.0447
2192.00,0.0447
2191.00,0.0447
2190.00,0.0446
2189.00,0.0446
2188.00,0.0447
2187.00,0.0447
2186.00,0.0446
2185.00,0.0444
2184.00,0.0442
2183.00,0.0438
2182.00,0.0434
2181.00,0.0433
2180.00,0.0434
2179.00,0.0434
2178.00,0.0432
2177.00,0.0431
2176.00,0.0430
2175.00,0.0430
2174.00,0.0430
2173.00,0.0431
2172.00,0.0433
2171.00,0.0435
2170.00,0.0435
2169.00,0.0436
2168.00,0.0437
2167.00,0.0436
2166.00,0.0434
2165.00,0.0433
2164.00,0.0434
2163.00,0.0431
2162.00,0.0423
2161.00,0.0411
2160.00,0.0397
2159.00,0.0385
2158.00,0.0379
2157.00,0.0379
2156.00,0.0383
2155.00,0.0386
2154.00,0.0388
2153.00,0.0390
2152.00,0.0394
2151.00,0.0397
2150.00,0.0397
2149.00,0.0397
2148.00,0.0397
2147.00,0.0396
2146.00,0.0396
2145.00,0.0396
2144.00,0.0398
2143.00,0.0400
2142.00,0.0401
2141.00,0.0402
2140.00,0.0403
2139.00,0.0401
2138.00,0.0398
2137.00,0.0395
2136.00,0.0393
2135.00,0.0393
2134.00,0.0392
2133.00,0.0394
2132.00,0.0397
2131.00,0.0400
2130.00,0.0401
2129.00,0.0402
2128.00,0.0403
2127.00,0.0403
2126.00,0.0402
2125.00,0.0402
2124.00,0.0402
2123.00,0.0402
2122.00,0.0401
2121.00,0.0399
2120.00,0.0398
2119.00,0.0397
2118.00,0.0396
2117.00,0.0395
2116.00,0.0394
2115.00,0.0394
2114.00,0.0392
2113.00,0.0391
2112.00,0.0390
2111.00,0.0389
2110.00,0.0387
2109.00,0.0385
2108.00,0.0384
2107.00,0.0384
2106.00,0.0383
2105.00,0.0384
2104.00,0.0384
2103.00,0.0385
2102.00,0.0384
2101.00,0.0384
2100.00,0.0385
2099.00,0.0385
2098.00,0.0385
2097.00,0.0384
2096.00,0.0383
2095.00,0.0383
2094.00,0.0382
2093.00,0.0382
2092.00,0.0383
2091.00,0.0383
2090.00,0.0382
2089.00,0.0380
2088.00,0.0379
2087.00,0.0378
2086.00,0.0376
2085.00,0.0375
2084.00,0.0375
2083.00,0.0374
2082.00,0.0372
2081.00,0.0371
2080.00,0.0370
2079.00,0.0370
2078.00,0.0368
2077.00,0.0367
2076.00,0.0366
2075.00,0.0365
2074.00,0.0363
2073.00,0.0362
2072.00,0.0362
2071.00,0.0361
2070.00,0.0360
2069.00,0.0358
2068.00,0.0358
2067.00,0.0357
2066.00,0.0356
2065.00,0.0356
2064.00,0.0357
2063.00,0.0357
2062.00,0.0356
2061.00,0.0355
2060.00,0.0354
2059.00,0.0354
2058.00,0.0353
2057.00,0.0353
2056.00,0.0353
2055.00,0.0353
2054.00,0.0354
2053.00,0.0358
2052.00,0.0362
2051.00,0.0362
2050.00,0.0357
2049.00,0.0353
2048.00,0.0350
2047.00,0.0350
2046.00,0.0349
2045.00,0.0350
2044.00,0.0351
2043.00,0.0351
2042.00,0.0350
2041.00,0.0350
2040.00,0.0353
2039.00,0.0355
2038.00,0.0355
2037.00,0.0356
2036.00,0.0356
2035.00,0.0354
2034.00,0.0351
2033.00,0.0348
2032.00,0.0347
2031.00,0.0345
2030.00,0.0341
2029.00,0.0338
2028.00,0.0338
2027.00,0.0339
2026.00,0.0337
2025.00,0.0337
2024.00,0.0338
2023.00,0.0337
2022.00,0.0335
2021.00,0.0333
2020.00,0.0333
2019.00,0.0333
2018.00,0.0332
2017.00,0.0333
2016.00,0.0336
2015.00,0.0336
2014.00,0.0335
2013.00,0.0334
2012.00,0.0335
2011.00,0.0335
2010.00,0.0333
2009.00,0.0329
2008.00,0.0327
2007.00,0.0322
2006.00,0.0317
2005.00,0.0315
2004.00,0.0315
2003.00,0.0314
2002.00,0.0313
2001.00,0.0313
2000.00,0.0314
1999.00,0.0314
1998.00,0.0312
1997.00,0.0311
1996.00,0.0312
1995.00,0.0313
1994.00,0.0313
1993.00,0.0314
1992.00,0.0316
1991.00,0.0318
1990.00,0.0319
1989.00,0.0322
1988.00,0.0327
1987.00,0.0330
1986.00,0.0333
1985.00,0.0337
1984.00,0.0342
1983.00,0.0346
1982.00,0.0347
1981.00,0.0345
1980.00,0.0342
1979.00,0.0335
1978.00,0.0326
1977.00,0.0321
1976.00,0.0322
1975.00,0.0324
1974.00,0.0325
1973.00,0.0326
1972.00,0.0330
1971.00,0.0332
1970.00,0.0330
1969.00,0.0330
1968.00,0.0331
1967.00,0.0332
1966.00,0.0331
1965.00,0.0331
1964.00,0.0333
1963.00,0.0334
1962.00,0.0334
1961.00,0.0335
1960.00,0.0339
1959.00,0.0342
1958.00,0.0343
1957.00,0.0346
1956.00,0.0350
1955.00,0.0352
1954.00,0.0353
1953.00,0.0355
1952.00,0.0359
1951.00,0.0363
1950.00,0.0365
1949.00,0.0369
1948.00,0.0374
1947.00,0.0378
1946.00,0.0380
1945.00,0.0381
1944.00,0.0382
1943.00,0.0381
1942.00,0.0379
1941.00,0.0377
1940.00,0.0375
1939.00,0.0372
1938.00,0.0368
1937.00,0.0365
1936.00,0.0364
1935.00,0.0363
1934.00,0.0361
1933.00,0.0360
1932.00,0.0360
1931.00,0.0359
1930.00,0.0358
1929.00,0.0358
1928.00,0.0360
1927.00,0.0360
1926.00,0.0359
1925.00,0.0359
1924.00,0.0360
1923.00,0.0361
1922.00,0.0361
1921.00,0.0362
1920.00,0.0364
1919.00,0.0365
1918.00,0.0365
1917.00,0.0366
1916.00,0.0369
1915.00,0.0371
1914.00,0.0373
1913.00,0.0375
1912.00,0.0378
1911.00,0.0380
1910.00,0.0381
1909.00,0.0381
1908.00,0.0382
1907.00,0.0383
1906.00,0.0383
1905.00,0.0383
1904.00,0.0385
1903.00,0.0386
1902.00,0.0385
1901.00,0.0385
1900.00,0.0385
1899.00,0.0385
1898.00,0.0385
1897.00,0.0385
1896.00,0.0385
1895.00,0.0385
1894.00,0.0384
1893.00,0.0383
1892.00,0.0383
1891.00,0.0383
1890.00,0.0381
1889.00,0.0380
1888.00,0.0380
1887.00,0.0380
1886.00,0.0380
1885.00,0.0380
1884.00,0.0381
1883.00,0.0381
1882.00,0.0380
1881.00,0.0379
1880.00,0.0380
1879.00,0.0381
1878.00,0.0381
1877.00,0.0381
1876.00,0.0383
1875.00,0.0384
1874.00,0.0384
1873.00,0.0385
1872.00,0.0385
1871.00,0.0384
1870.00,0.0382
1869.00,0.0380
1868.00,0.0378
1867.00,0.0374
1866.00,0.0370
1865.00,0.0368
1864.00,0.0366
1863.00,0.0364
1862.00,0.0361
1861.00,0.0359
1860.00,0.0358
1859.00,0.0357
1858.00,0.0356
1857.00,0.0355
1856.00,0.0356
1855.00,0.0356
1854.00,0.0355
1853.00,0.0354
1852.00,0.0355
1851.00,0.0355
1850.00,0.0354
1849.00,0.0354
1848.00,0.0355
1847.00,0.0356
1846.00,0.0359
1845.00,0.0364
1844.00,0.0372
1843.00,0.0380
1842.00,0.0387
1841.00,0.0393
1840.00,0.0398
1839.00,0.0400
1838.00,0.0399
1837.00,0.0396
1836.00,0.0393
1835.00,0.0389
1834.00,0.0384
1833.00,0.0379
1832.00,0.0377
1831.00,0.0374
1830.00,0.0371
1829.00,0.0368
1828.00,0.0367
1827.00,0.0366
1826.00,0.0366
1825.00,0.0367
1824.00,0.0368
1823.00,0.0369
1822.00,0.0370
1821.00,0.0370
1820.00,0.0371
1819.00,0.0371
1818.00,0.0370
1817.00,0.0370
1816.00,0.0373
1815.00,0.0375
1814.00,0.0376
1813.00,0.0378
1812.00,0.0381
1811.00,0.0383
1810.00,0.0383
1809.00,0.0385
1808.00,0.0387
1807.00,0.0389
1806.00,0.0390
1805.00,0.0391
1804.00,0.0392
1803.00,0.0393
1802.00,0.0392
1801.00,0.0393
1800.00,0.0394
1799.00,0.0395
1798.00,0.0396
1797.00,0.0396
1796.00,0.0397
1795.00,0.0397
1794.00,0.0397
1793.00,0.0397
1792.00,0.0398
1791.00,0.0399
1790.00,0.0400
1789.00,0.0402
1788.00,0.0405
1787.00,0.0406
1786.00,0.0406
1785.00,0.0405
1784.00,0.0406
1783.00,0.0407
1782.00,0.0406
1781.00,0.0405
1780.00,0.0403
1779.00,0.0401
1778.00,0.0397
1777.00,0.0394
1776.00,0.0391
1775.00,0.0389
1774.00,0.0385
1773.00,0.0380
1772.00,0.0375
1771.00,0.0369
1770.00,0.0363
1769.00,0.0359
1768.00,0.0356
1767.00,0.0352
1766.00,0.0347
1765.00,0.0343
1764.00,0.0340
1763.00,0.0336
1762.00,0.0330
1761.00,0.0325
1760.00,0.0322
1759.00,0.0321
1758.00,0.0319
1757.00,0.0317
1756.00,0.0315
1755.00,0.0314
1754.00,0.0312
1753.00,0.0310
1752.00,0.0308
1751.00,0.0305
1750.00,0.0301
1749.00,0.0298
1748.00,0.0297
1747.00,0.0295
1746.00,0.0290
1745.00,0.0286
1744.00,0.0283
1743.00,0.0279
1742.00,0.0274
1741.00,0.0271
1740.00,0.0271
1739.00,0.0269
1738.00,0.0267
1737.00,0.0265
1736.00,0.0267
1735.00,0.0269
1734.00,0.0266
1733.00,0.0265
1732.00,0.0268
1731.00,0.0272
1730.00,0.0273
1729.00,0.0274
1728.00,0.0277
1727.00,0.0280
1726.00,0.0281
1725.00,0.0283
1724.00,0.0288
1723.00,0.0292
1722.00,0.0294
1721.00,0.0297
1720.00,0.0306
1719.00,0.0318
1718.00,0.0329
1717.00,0.0344
1716.00,0.0365
1715.00,0.0388
1714.00,0.0411
1713.00,0.0440
1712.00,0.0478
1711.00,0.0522
1710.00,0.0571
1709.00,0.0631
1708.00,0.0706
1707.00,0.0802
1706.00,0.0919
1705.00,0.1051
1704.00,0.1175
1703.00,0.1282
1702.00,0.1392
1701.00,0.1545
1700.00,0.1730
1699.00,0.1877
1698.00,0.1968
1697.00,0.2047
1696.00,0.2147
1695.00,0.2250
1694.00,0.2327
1693.00,0.2378
1692.00,0.2425
1691.00,0.2480
1690.00,0.2542
1689.00,0.2602
1688.00,0.2651
1687.00,0.2691
1686.00,0.2738
1685.00,0.2823
1684.00,0.2952
1683.00,0.3071
1682.00,0.3152
1681.00,0.3219
1680.00,0.3290
1679.00,0.3361
1678.00,0.3417
1677.00,0.3459
1676.00,0.3498
1675.00,0.3526
1674.00,0.3515
1673.00,0.3460
1672.00,0.3374
1671.00,0.3271
1670.00,0.3153
1669.00,0.3027
1668.00,0.2904
1667.00,0.2790
1666.00,0.2679
1665.00,0.2568
1664.00,0.2455
1663.00,0.2342
1662.00,0.2232
1661.00,0.2127
1660.00,0.2028
1659.00,0.1935
1658.00,0.1848
1657.00,0.1765
1656.00,0.1687
1655.00,0.1607
1654.00,0.1514
1653.00,0.1408
1652.00,0.1323
1651.00,0.1272
1650.00,0.1244
1649.00,0.1239
1648.00,0.1278
1647.00,0.1388
1646.00,0.1560
1645.00,0.1750
1644.00,0.1928
1643.00,0.2094
1642.00,0.2257
1641.00,0.2421
1640.00,0.2583
1639.00,0.2733
1638.00,0.2865
1637.00,0.2973
1636.00,0.3039
1635.00,0.3044
1634.00,0.2991
1633.00,0.2901
1632.00,0.2792
1631.00,0.2676
1630.00,0.2561
1629.00,0.2450
1628.00,0.2348
1627.00,0.2260
1626.00,0.2190
1625.00,0.2137
1624.00,0.2101
1623.00,0.2087
1622.00,0.2091
1621.00,0.2105
1620.00,0.2122
1619.00,0.2145
1618.00,0.2183
1617.00,0.2241
1616.00,0.2304
1615.00,0.2358
1614.00,0.2398
1613.00,0.2431
1612.00,0.2460
1611.00,0.2482
1610.00,0.2488
1609.00,0.2475
1608.00,0.2443
1607.00,0.2397
1606.00,0.2344
1605.00,0.2287
1604.00,0.2232
1603.00,0.2178
1602.00,0.2124
1601.00,0.2066
1600.00,0.2004
1599.00,0.1942
1598.00,0.1882
1597.00,0.1824
1596.00,0.1772
1595.00,0.1727
1594.00,0.1691
1593.00,0.1660
1592.00,0.1634
1591.00,0.1611
1590.00,0.1591
1589.00,0.1569
1588.00,0.1547
1587.00,0.1524
1586.00,0.1500
1585.00,0.1474
1584.00,0.1445
1583.00,0.1414
1582.00,0.1381
1581.00,0.1346
1580.00,0.1310
1579.00,0.1277
1578.00,0.1246
1577.00,0.1216
1576.00,0.1186
1575.00,0.1157
1574.00,0.1131
1573.00,0.1108
1572.00,0.1084
1571.00,0.1063
1570.00,0.1044
1569.00,0.1026
1568.00,0.1010
1567.00,0.0995
1566.00,0.0983
1565.00,0.0971
1564.00,0.0958
1563.00,0.0945
1562.00,0.0933
1561.00,0.0921
1560.00,0.0913
1559.00,0.0912
1558.00,0.0910
1557.00,0.0904
1556.00,0.0897
1555.00,0.0889
1554.00,0.0880
1553.00,0.0871
1552.00,0.0861
1551.00,0.0852
1550.00,0.0845
1549.00,0.0838
1548.00,0.0829
1547.00,0.0821
1546.00,0.0812
1545.00,0.0803
1544.00,0.0793
1543.00,0.0783
1542.00,0.0774
1541.00,0.0766
1540.00,0.0755
1539.00,0.0742
1538.00,0.0731
1537.00,0.0719
1536.00,0.0708
1535.00,0.0698
1534.00,0.0689
1533.00,0.0681
1532.00,0.0673
1531.00,0.0667
1530.00,0.0663
1529.00,0.0658
1528.00,0.0654
1527.00,0.0651
1526.00,0.0649
1525.00,0.0648
1524.00,0.0646
1523.00,0.0646
1522.00,0.0647
1521.00,0.0646
1520.00,0.0643
1519.00,0.0640
1518.00,0.0637
1517.00,0.0632
1516.00,0.0624
1515.00,0.0615
1514.00,0.0606
1513.00,0.0597
1512.00,0.0588
1511.00,0.0578
1510.00,0.0569
1509.00,0.0561
1508.00,0.0555
1507.00,0.0549
1506.00,0.0542
1505.00,0.0538
1504.00,0.0535
1503.00,0.0533
1502.00,0.0530
1501.00,0.0526
1500.00,0.0522
1499.00,0.0519
1498.00,0.0517
1497.00,0.0514
1496.00,0.0512
1495.00,0.0508
1494.00,0.0505
1493.00,0.0501
1492.00,0.0496
1491.00,0.0490
1490.00,0.0485
1489.00,0.0480
1488.00,0.0474
1487.00,0.0469
1486.00,0.0464
1485.00,0.0459
1484.00,0.0453
1483.00,0.0446
1482.00,0.0440
1481.00,0.0432
1480.00,0.0424
1479.00,0.0417
1478.00,0.0410
1477.00,0.0403
1476.00,0.0397
1475.00,0.0391
1474.00,0.0386
1473.00,0.0383
1472.00,0.0380
1471.00,0.0380
1470.00,0.0381
1469.00,0.0382
1468.00,0.0383
1467.00,0.0384
1466.00,0.0385
1465.00,0.0386
1464.00,0.0389
1463.00,0.0394
1462.00,0.0399
1461.00,0.0405
1460.00,0.0412
1459.00,0.0422
1458.00,0.0438
1457.00,0.0463
1456.00,0.0493
1455.00,0.0524
1454.00,0.0559
1453.00,0.0600
1452.00,0.0650
1451.00,0.0705
1450.00,0.0763
1449.00,0.0822
1448.00,0.0875
1447.00,0.0913
1446.00,0.0937
1445.00,0.0951
1444.00,0.0966
1443.00,0.0989
1442.00,0.1023
1441.00,0.1063
1440.00,0.1099
1439.00,0.1125
1438.00,0.1139
1437.00,0.1141
1436.00,0.1134
1435.00,0.1123
1434.00,0.1113
1433.00,0.1108
1432.00,0.1111
1431.00,0.1129
1430.00,0.1163
1429.00,0.1211
1428.00,0.1267
1427.00,0.1325
1426.00,0.1383
1425.00,0.1441
1424.00,0.1493
1423.00,0.1533
1422.00,0.1563
1421.00,0.1596
1420.00,0.1646
1419.00,0.1715
1418.00,0.1789
1417.00,0.1851
1416.00,0.1891
1415.00,0.1909
1414.00,0.1903
1413.00,0.1876
1412.00,0.1826
1411.00,0.1757
1410.00,0.1677
1409.00,0.1593
1408.00,0.1508
1407.00,0.1422
1406.00,0.1337
1405.00,0.1255
1404.00,0.1178
1403.00,0.1109
1402.00,0.1049
1401.00,0.0994
1400.00,0.0942
1399.00,0.0893
1398.00,0.0852
1397.00,0.0817
1396.00,0.0787
1395.00,0.0759
1394.00,0.0735
1393.00,0.0716
1392.00,0.0701
1391.00,0.0689
1390.00,0.0681
1389.00,0.0678
1388.00,0.0680
1387.00,0.0687
1386.00,0.0699
1385.00,0.0711
1384.00,0.0727
1383.00,0.0755
1382.00,0.0804
1381.00,0.0889
1380.00,0.1016
1379.00,0.1182
1378.00,0.1356
1377.00,0.1489
1376.00,0.1538
1375.00,0.1489
1374.00,0.1364
1373.00,0.1212
1372.00,0.1069
1371.00,0.0948
1370.00,0.0848
1369.00,0.0764
1368.00,0.0696
1367.00,0.0642
1366.00,0.0601
1365.00,0.0567
1364.00,0.0536
1363.00,0.0507
1362.00,0.0483
1361.00,0.0463
1360.00,0.0449
1359.00,0.0437
1358.00,0.0430
1357.00,0.0425
1356.00,0.0422
1355.00,0.0422
1354.00,0.0425
1353.00,0.0431
1352.00,0.0440
1351.00,0.0452
1350.00,0.0469
1349.00,0.0490
1348.00,0.0516
1347.00,0.0547
1346.00,0.0585
1345.00,0.0629
1344.00,0.0678
1343.00,0.0732
1342.00,0.0791
1341.00,0.0860
1340.00,0.0938
1339.00,0.1027
1338.00,0.1125
1337.00,0.1231
1336.00,0.1345
1335.00,0.1467
1334.00,0.1596
1333.00,0.1728
1332.00,0.1859
1331.00,0.1982
1330.00,0.2090
1329.00,0.2174
1328.00,0.2228
1327.00,0.2247
1326.00,0.2234
1325.00,0.2194
1324.00,0.2139
1323.00,0.2079
1322.00,0.2022
1321.00,0.1969
1320.00,0.1920
1319.00,0.1878
1318.00,0.1853
1317.00,0.1853
1316.00,0.1877
1315.00,0.1909
1314.00,0.1926
1313.00,0.1911
1312.00,0.1859
1311.00,0.1778
1310.00,0.1682
1309.00,0.1586
1308.00,0.1501
1307.00,0.1433
1306.00,0.1385
1305.00,0.1354
1304.00,0.1335
1303.00,0.1328
1302.00,0.1336
1301.00,0.1368
1300.00,0.1433
1299.00,0.1534
1298.00,0.1658
1297.00,0.1774
1296.00,0.1840
1295.00,0.1828
1294.00,0.1740
1293.00,0.1603
1292.00,0.1456
1291.00,0.1326
1290.00,0.1232
1289.00,0.1178
1288.00,0.1162
1287.00,0.1180
1286.00,0.1222
1285.00,0.1278
1284.00,0.1336
1283.00,0.1387
1282.00,0.1426
1281.00,0.1454
1280.00,0.1474
1279.00,0.1495
1278.00,0.1524
1277.00,0.1567
1276.00,0.1629
1275.00,0.1709
1274.00,0.1805
1273.00,0.1915
1272.00,0.2034
1271.00,0.2160
1270.00,0.2292
1269.00,0.2433
1268.00,0.2582
1267.00,0.2733
1266.00,0.2873
1265.00,0.2988
1264.00,0.3062
1263.00,0.3088
1262.00,0.3070
1261.00,0.3016
1260.00,0.2937
1259.00,0.2845
1258.00,0.2747
1257.00,0.2650
1256.00,0.2558
1255.00,0.2471
1254.00,0.2390
1253.00,0.2317
1252.00,0.2249
1251.00,0.2186
1250.00,0.2127
1249.00,0.2070
1248.00,0.2016
1247.00,0.1964
1246.00,0.1915
1245.00,0.1869
1244.00,0.1825
1243.00,0.1783
1242.00,0.1743
1241.00,0.1705
1240.00,0.1668
1239.00,0.1632
1238.00,0.1598
1237.00,0.1565
1236.00,0.1533
1235.00,0.1502
1234.00,0.1472
1233.00,0.1444
1232.00,0.1417
1231.00,0.1391
1230.00,0.1366
1229.00,0.1343
1228.00,0.1321
1227.00,0.1301
1226.00,0.1283
1225.00,0.1268
1224.00,0.1257
1223.00,0.1251
1222.00,0.1252
1221.00,0.1256
1220.00,0.1258
1219.00,0.1253
1218.00,0.1238
1217.00,0.1214
1216.00,0.1187
1215.00,0.1164
1214.00,0.1150
1213.00,0.1149
1212.00,0.1165
1211.00,0.1204
1210.00,0.1268
1209.00,0.1361
1208.00,0.1479
1207.00,0.1612
1206.00,0.1745
1205.00,0.1856
1204.00,0.1927
1203.00,0.1951
1202.00,0.1930
1201.00,0.1877
1200.00,0.1803
1199.00,0.1723
1198.00,0.1643
1197.00,0.1568
1196.00,0.1499
1195.00,0.1436
1194.00,0.1379
1193.00,0.1328
1192.00,0.1282
1191.00,0.1240
1190.00,0.1202
1189.00,0.1168
1188.00,0.1135
1187.00,0.1105
1186.00,0.1076
1185.00,0.1049
1184.00,0.1022
1183.00,0.0996
1182.00,0.0971
1181.00,0.0947
1180.00,0.0923
1179.00,0.0899
1178.00,0.0876
1177.00,0.0853
1176.00,0.0830
1175.00,0.0807
1174.00,0.0784
1173.00,0.0761
1172.00,0.0740
1171.00,0.0720
1170.00,0.0704
1169.00,0.0694
1168.00,0.0693
1167.00,0.0705
1166.00,0.0735
1165.00,0.0783
1164.00,0.0849
1163.00,0.0934
1162.00,0.1040
1161.00,0.1173
1160.00,0.1338
1159.00,0.1538
1158.00,0.1761
1157.00,0.1986
1156.00,0.2182
1155.00,0.2321
1154.00,0.2388
1153.00,0.2388
1152.00,0.2336
1151.00,0.2252
1150.00,0.2155
1149.00,0.2059
1148.00,0.1969
1147.00,0.1890
1146.00,0.1821
1145.00,0.1761
1144.00,0.1706
1143.00,0.1656
1142.00,0.1610
1141.00,0.1569
1140.00,0.1530
1139.00,0.1496
1138.00,0.1464
1137.00,0.1434
1136.00,0.1405
1135.00,0.1377
1134.00,0.1349
1133.00,0.1323
1132.00,0.1297
1131.00,0.1272
1130.00,0.1249
1129.00,0.1228
1128.00,0.1207
1127.00,0.1187
1126.00,0.1169
1125.00,0.1152
1124.00,0.1136
1123.00,0.1120
1122.00,0.1107
1121.00,0.1094
1120.00,0.1081
1119.00,0.1069
1118.00,0.1058
1117.00,0.1048
1116.00,0.1038
1115.00,0.1029
1114.00,0.1020
1113.00,0.1012
1112.00,0.1004
1111.00,0.0995
1110.00,0.0988
1109.00,0.0980
1108.00,0.0973
1107.00,0.0966
1106.00,0.0960
1105.00,0.0955
1104.00,0.0949
1103.00,0.0944
1102.00,0.0939
1101.00,0.0935
1100.00,0.0930
1099.00,0.0926
1098.00,0.0923
1097.00,0.0920
1096.00,0.0918
1095.00,0.0915
1094.00,0.0914
1093.00,0.0914
1092.00,0.0917
1091.00,0.0924
1090.00,0.0937
1089.00,0.0953
1088.00,0.0967
1087.00,0.0975
1086.00,0.0973
1085.00,0.0962
1084.00,0.0946
1083.00,0.0930
1082.00,0.0918
1081.00,0.0907
1080.00,0.0898
1079.00,0.0891
1078.00,0.0885
1077.00,0.0880
1076.00,0.0875
1075.00,0.0870
1074.00,0.0866
1073.00,0.0862
1072.00,0.0858
1071.00,0.0854
1070.00,0.0851
1069.00,0.0849
1068.00,0.0845
1067.00,0.0843
1066.00,0.0841
1065.00,0.0840
1064.00,0.0838
1063.00,0.0837
1062.00,0.0837
1061.00,0.0837
1060.00,0.0837
1059.00,0.0838
1058.00,0.0840
1057.00,0.0843
1056.00,0.0844
1055.00,0.0846
1054.00,0.0849
1053.00,0.0850
1052.00,0.0851
1051.00,0.0851
1050.00,0.0851
1049.00,0.0850
1048.00,0.0848
1047.00,0.0846
1046.00,0.0845
1045.00,0.0844
1044.00,0.0843
1043.00,0.0844
1042.00,0.0849
1041.00,0.0859
1040.00,0.0875
1039.00,0.0896
1038.00,0.0921
1037.00,0.0942
1036.00,0.0954
1035.00,0.0952
1034.00,0.0938
1033.00,0.0913
1032.00,0.0885
1031.00,0.0859
1030.00,0.0838
1029.00,0.0820
1028.00,0.0805
1027.00,0.0792
1026.00,0.0781
1025.00,0.0771
1024.00,0.0761
1023.00,0.0751
1022.00,0.0744
1021.00,0.0737
1020.00,0.0731
1019.00,0.0726
1018.00,0.0723
1017.00,0.0721
1016.00,0.0721
1015.00,0.0722
1014.00,0.0725
1013.00,0.0729
1012.00,0.0735
1011.00,0.0743
1010.00,0.0757
1009.00,0.0777
1008.00,0.0807
1007.00,0.0856
1006.00,0.0934
1005.00,0.1053
1004.00,0.1229
1003.00,0.1477
1002.00,0.1806
1001.00,0.2223
1000.00,0.2728
999.00,0.3315
998.00,0.3952
997.00,0.4574
996.00,0.5080
995.00,0.5376
994.00,0.5422
993.00,0.5246
992.00,0.4904
991.00,0.4462
990.00,0.3984
989.00,0.3520
988.00,0.3102
987.00,0.2743
986.00,0.2447
985.00,0.2206
984.00,0.2011
983.00,0.1855
982.00,0.1732
981.00,0.1637
980.00,0.1568
979.00,0.1527
978.00,0.1517
977.00,0.1540
976.00,0.1594
975.00,0.1667
974.00,0.1736
973.00,0.1771
972.00,0.1758
971.00,0.1703
970.00,0.1624
969.00,0.1542
968.00,0.1469
967.00,0.1408
966.00,0.1362
965.00,0.1326
964.00,0.1300
963.00,0.1281
962.00,0.1268
961.00,0.1261
960.00,0.1258
959.00,0.1262
958.00,0.1274
957.00,0.1297
956.00,0.1332
955.00,0.1383
954.00,0.1453
953.00,0.1547
952.00,0.1674
951.00,0.1844
950.00,0.2057
949.00,0.2282
948.00,0.2449
947.00,0.2493
946.00,0.2400
945.00,0.2226
944.00,0.2045
943.00,0.1904
942.00,0.1814
941.00,0.1765
940.00,0.1745
939.00,0.1747
938.00,0.1765
937.00,0.1794
936.00,0.1834
935.00,0.1882
934.00,0.1939
933.00,0.2002
932.00,0.2072
931.00,0.2148
930.00,0.2231
929.00,0.2321
928.00,0.2418
927.00,0.2522
926.00,0.2634
925.00,0.2752
924.00,0.2877
923.00,0.3005
922.00,0.3132
921.00,0.3248
920.00,0.3344
919.00,0.3414
918.00,0.3458
917.00,0.3479
916.00,0.3480
915.00,0.3464
914.00,0.3434
913.00,0.3391
912.00,0.3336
911.00,0.3270
910.00,0.3194
909.00,0.3112
908.00,0.3023
907.00,0.2930
906.00,0.2836
905.00,0.2742
904.00,0.2648
903.00,0.2556
902.00,0.2467
901.00,0.2381
900.00,0.2298
899.00,0.2219
898.00,0.2144
897.00,0.2072
896.00,0.2003
895.00,0.1938
894.00,0.1878
893.00,0.1820
892.00,0.1765
891.00,0.1713
890.00,0.1665
889.00,0.1619
888.00,0.1575
887.00,0.1534
886.00,0.1495
885.00,0.1458
884.00,0.1423
883.00,0.1393
882.00,0.1372
881.00,0.1367
880.00,0.1388
879.00,0.1448
878.00,0.1561
877.00,0.1743
876.00,0.2021
875.00,0.2424
874.00,0.2932
873.00,0.3429
872.00,0.3724
871.00,0.3693
870.00,0.3400
869.00,0.3014
868.00,0.2662
867.00,0.2388
866.00,0.2185
865.00,0.2031
864.00,0.1907
863.00,0.1806
862.00,0.1725
861.00,0.1659
860.00,0.1604
859.00,0.1558
858.00,0.1518
857.00,0.1483
856.00,0.1451
855.00,0.1423
854.00,0.1398
853.00,0.1376
852.00,0.1356
851.00,0.1338
850.00,0.1322
849.00,0.1307
848.00,0.1294
847.00,0.1282
846.00,0.1272
845.00,0.1263
844.00,0.1255
843.00,0.1248
842.00,0.1243
841.00,0.1238
840.00,0.1235
839.00,0.1232
838.00,0.1230
837.00,0.1228
836.00,0.1227
835.00,0.1226
834.00,0.1226
833.00,0.1226
832.00,0.1225
831.00,0.1225
830.00,0.1225
829.00,0.1225
828.00,0.1223
827.00,0.1221
826.00,0.1219
825.00,0.1216
824.00,0.1213
823.00,0.1210
822.00,0.1208
821.00,0.1205
820.00,0.1201
819.00,0.1198
818.00,0.1196
817.00,0.1194
816.00,0.1192
815.00,0.1193
814.00,0.1198
813.00,0.1206
812.00,0.1220
811.00,0.1245
810.00,0.1287
809.00,0.1349
808.00,0.1437
807.00,0.1545
806.00,0.1654
805.00,0.1733
804.00,0.1749
803.00,0.1693
802.00,0.1582
801.00,0.1450
800.00,0.1325
799.00,0.1223
798.00,0.1145
797.00,0.1088
796.00,0.1044
795.00,0.1011
794.00,0.0986
793.00,0.0966
792.00,0.0950
791.00,0.0935
790.00,0.0923
789.00,0.0912
788.00,0.0901
787.00,0.0891
786.00,0.0881
785.00,0.0872
784.00,0.0863
783.00,0.0853
782.00,0.0845
781.00,0.0837
780.00,0.0828
779.00,0.0820
778.00,0.0812
777.00,0.0804
776.00,0.0797
775.00,0.0790
774.00,0.0784
773.00,0.0777
772.00,0.0770
771.00,0.0763
770.00,0.0757
769.00,0.0751
768.00,0.0745
767.00,0.0739
766.00,0.0733
765.00,0.0728
764.00,0.0722
763.00,0.0716
762.00,0.0712
761.00,0.0707
760.00,0.0701
759.00,0.0696
758.00,0.0692
757.00,0.0688
756.00,0.0684
755.00,0.0681
754.00,0.0678
753.00,0.0675
752.00,0.0671
751.00,0.0666
750.00,0.0662
749.00,0.0658
748.00,0.0653
747.00,0.0649
746.00,0.0644
745.00,0.0640
744.00,0.0635
743.00,0.0629
742.00,0.0624
741.00,0.0619
740.00,0.0614
739.00,0.0608
738.00,0.0603
737.00,0.0598
736.00,0.0592
735.00,0.0586
734.00,0.0579
733.00,0.0573
732.00,0.0565
731.00,0.0558
730.00,0.0551
729.00,0.0543
728.00,0.0535
727.00,0.0527
726.00,0.0520
725.00,0.0512
724.00,0.0504
723.00,0.0495
722.00,0.0488
721.00,0.0482
720.00,0.0477
719.00,0.0476
718.00,0.0480
717.00,0.0490
716.00,0.0508
715.00,0.0533
714.00,0.0561
713.00,0.0585
712.00,0.0597
711.00,0.0598
710.00,0.0593
709.00,0.0592
708.00,0.0607
707.00,0.0653
706.00,0.0751
705.00,0.0926
704.00,0.1200
703.00,0.1576
702.00,0.2021
701.00,0.2452
700.00,0.2767
699.00,0.2912
698.00,0.2915
697.00,0.2853
696.00,0.2780
695.00,0.2704
694.00,0.2601
693.00,0.2449
692.00,0.2255
691.00,0.2049
690.00,0.1860
689.00,0.1701
688.00,0.1571
687.00,0.1468
686.00,0.1386
685.00,0.1320
684.00,0.1265
683.00,0.1218
682.00,0.1180
681.00,0.1148
680.00,0.1118
679.00,0.1091
678.00,0.1068
677.00,0.1047
676.00,0.1027
675.00,0.1009
674.00,0.0994
673.00,0.0979
672.00,0.0964
671.00,0.0951
670.00,0.0943
669.00,0.0936
668.00,0.0929
667.00,0.0921
666.00,0.0909
665.00,0.0895
664.00,0.0883
663.00,0.0874
662.00,0.0867
661.00,0.0860
660.00,0.0852
659.00,0.0845
658.00,0.0839
657.00,0.0833
656.00,0.0826
655.00,0.0819
654.00,0.0814
653.00,0.0810
652.00,0.0804
651.00,0.0798
650.00,0.0794
649.00,0.0789
648.00,0.0783
647.00,0.0777
646.00,0.0772
645.00,0.0768
644.00,0.0763
643.00,0.0759
642.00,0.0754
641.00,0.0749
640.00,0.0743
639.00,0.0738
638.00,0.0734
637.00,0.0730
636.00,0.0725
635.00,0.0720
634.00,0.0716
633.00,0.0713
632.00,0.0709
631.00,0.0705
630.00,0.0703
629.00,0.0700
628.00,0.0697
627.00,0.0693
626.00,0.0691
625.00,0.0690
624.00,0.0688
623.00,0.0686
622.00,0.0686
621.00,0.0685
620.00,0.0684
619.00,0.0684
618.00,0.0685
617.00,0.0686
616.00,0.0687
615.00,0.0690
614.00,0.0695
613.00,0.0702
612.00,0.0710
611.00,0.0721
610.00,0.0738
609.00,0.0758
608.00,0.0783
607.00,0.0813
606.00,0.0851
605.00,0.0894
604.00,0.0942
603.00,0.0995
602.00,0.1053
601.00,0.1117
600.00,0.1184
599.00,0.1254
598.00,0.1324
597.00,0.1387
596.00,0.1435
595.00,0.1465
594.00,0.1473
593.00,0.1461
592.00,0.1435
591.00,0.1407
590.00,0.1392
589.00,0.1400
588.00,0.1437
587.00,0.1504
586.00,0.1594
585.00,0.1683
584.00,0.1744
583.00,0.1757
582.00,0.1717
581.00,0.1637
580.00,0.1536
579.00,0.1434
578.00,0.1344
577.00,0.1264
576.00,0.1195
575.00,0.1138
574.00,0.1091
573.00,0.1052
572.00,0.1016
571.00,0.0986
570.00,0.0962
569.00,0.0941
568.00,0.0920
567.00,0.0900
566.00,0.0883
565.00,0.0868
564.00,0.0853
563.00,0.0840
562.00,0.0829
561.00,0.0819
560.00,0.0807
559.00,0.0797
558.00,0.0790
557.00,0.0784
556.00,0.0775
555.00,0.0766
554.00,0.0760
553.00,0.0754
552.00,0.0746
551.00,0.0738
550.00,0.0732
549.00,0.0726
548.00,0.0719
547.00,0.0712
546.00,0.0708
545.00,0.0705
544.00,0.0699
543.00,0.0695
542.00,0.0694
541.00,0.0693
540.00,0.0689
539.00,0.0686
538.00,0.0686
537.00,0.0685
536.00,0.0681
535.00,0.0678
534.00,0.0678
533.00,0.0676
532.00,0.0672
531.00,0.0667
530.00,0.0665
529.00,0.0660
528.00,0.0652
527.00,0.0644
526.00,0.0639
525.00,0.0635
524.00,0.0630
523.00,0.0626
522.00,0.0626
521.00,0.0624
520.00,0.0619
519.00,0.0613
518.00,0.0609
517.00,0.0605
516.00,0.0599
515.00,0.0595
514.00,0.0594
513.00,0.0592
512.00,0.0588
511.00,0.0586
510.00,0.0588
509.00,0.0591
508.00,0.0591
507.00,0.0590
506.00,0.0593
505.00,0.0597
504.00,0.0599
503.00,0.0602
502.00,0.0609
501.00,0.0615
500.00,0.0620
499.00,0.0627
498.00,0.0638
497.00,0.0650
496.00,0.0660
495.00,0.0667
494.00,0.0677
493.00,0.0686
492.00,0.0693
491.00,0.0702
490.00,0.0717
489.00,0.0731
488.00,0.0743
487.00,0.0754
486.00,0.0770
485.00,0.0792
484.00,0.0817
483.00,0.0852
482.00,0.0902
481.00,0.0968
480.00,0.1052
479.00,0.1165
478.00,0.1315
477.00,0.1503
476.00,0.1720
475.00,0.1956
474.00,0.2198
473.00,0.2420
472.00,0.2582
471.00,0.2657
470.00,0.2645
469.00,0.2564
468.00,0.2437
467.00,0.2292
466.00,0.2149
465.00,0.2013
464.00,0.1885
463.00,0.1772
462.00,0.1679
461.00,0.1599
460.00,0.1526
459.00,0.1458
458.00,0.1398
457.00,0.1343
456.00,0.1292
455.00,0.1249
454.00,0.1213
453.00,0.1176
452.00,0.1139
451.00,0.1107
450.00,0.1084
449.00,0.1060
448.00,0.1033
447.00,0.1009
446.00,0.0993
445.00,0.0976
444.00,0.0954
443.00,0.0935
442.00,0.0926
441.00,0.0919
440.00,0.0904
439.00,0.0889
438.00,0.0878
437.00,0.0867
436.00,0.0853
435.00,0.0843
434.00,0.0841
433.00,0.0839
432.00,0.0830
431.00,0.0823
430.00,0.0821
429.00,0.0819
428.00,0.0809
427.00,0.0801
426.00,0.0800
425.00,0.0794
424.00,0.0778
423.00,0.0766
422.00,0.0766
421.00,0.0766
420.00,0.0755
419.00,0.0748
418.00,0.0755
417.00,0.0759
416.00,0.0749
415.00,0.0740
414.00,0.0746
413.00,0.0755
412.00,0.0753
411.00,0.0748
410.00,0.0747
409.00,0.0739
408.00,0.0719
407.00,0.0704
406.00,0.0708
405.00,0.0714
404.00,0.0706
403.00,0.0697
402.00,0.0702
401.00,0.0701
400.00,0.0676
