Created as New Dataset,Sample 872 By YargerLab Date Monday, July 21 2025
cm-1,A
4000.00,0.0021
3999.00,0.0021
3998.00,0.0021
3997.00,0.0021
3996.00,0.0022
3995.00,0.0021
3994.00,0.0021
3993.00,0.0021
3992.00,0.0021
3991.00,0.0021
3990.00,0.0021
3989.00,0.0021
3988.00,0.0021
3987.00,0.0021
3986.00,0.0021
3985.00,0.0021
3984.00,0.0021
3983.00,0.0021
3982.00,0.0021
3981.00,0.0021
3980.00,0.0021
3979.00,0.0021
3978.00,0.0021
3977.00,0.0021
3976.00,0.0021
3975.00,0.0021
3974.00,0.0021
3973.00,0.0021
3972.00,0.0021
3971.00,0.0021
3970.00,0.0021
3969.00,0.0021
3968.00,0.0021
3967.00,0.0021
3966.00,0.0021
3965.00,0.0021
3964.00,0.0021
3963.00,0.0021
3962.00,0.0021
3961.00,0.0021
3960.00,0.0021
3959.00,0.0021
3958.00,0.0021
3957.00,0.0021
3956.00,0.0020
3955.00,0.0020
3954.00,0.0020
3953.00,0.0020
3952.00,0.0020
3951.00,0.0020
3950.00,0.0020
3949.00,0.0020
3948.00,0.0020
3947.00,0.0020
3946.00,0.0020
3945.00,0.0020
3944.00,0.0020
3943.00,0.0020
3942.00,0.0021
3941.00,0.0021
3940.00,0.0021
3939.00,0.0021
3938.00,0.0021
3937.00,0.0021
3936.00,0.0021
3935.00,0.0021
3934.00,0.0021
3933.00,0.0021
3932.00,0.0021
3931.00,0.0021
3930.00,0.0021
3929.00,0.0021
3928.00,0.0021
3927.00,0.0021
3926.00,0.0021
3925.00,0.0021
3924.00,0.0021
3923.00,0.0021
3922.00,0.0021
3921.00,0.0021
3920.00,0.0021
3919.00,0.0021
3918.00,0.0021
3917.00,0.0021
3916.00,0.0021
3915.00,0.0021
3914.00,0.0021
3913.00,0.0021
3912.00,0.0021
3911.00,0.0021
3910.00,0.0021
3909.00,0.0021
3908.00,0.0021
3907.00,0.0021
3906.00,0.0021
3905.00,0.0021
3904.00,0.0021
3903.00,0.0021
3902.00,0.0021
3901.00,0.0021
3900.00,0.0021
3899.00,0.0020
3898.00,0.0021
3897.00,0.0021
3896.00,0.0021
3895.00,0.0021
3894.00,0.0021
3893.00,0.0021
3892.00,0.0021
3891.00,0.0021
3890.00,0.0021
3889.00,0.0021
3888.00,0.0021
3887.00,0.0021
3886.00,0.0021
3885.00,0.0021
3884.00,0.0021
3883.00,0.0021
3882.00,0.0020
3881.00,0.0020
3880.00,0.0021
3879.00,0.0021
3878.00,0.0021
3877.00,0.0021
3876.00,0.0021
3875.00,0.0020
3874.00,0.0020
3873.00,0.0020
3872.00,0.0020
3871.00,0.0020
3870.00,0.0020
3869.00,0.0020
3868.00,0.0021
3867.00,0.0021
3866.00,0.0021
3865.00,0.0021
3864.00,0.0021
3863.00,0.0021
3862.00,0.0021
3861.00,0.0021
3860.00,0.0021
3859.00,0.0021
3858.00,0.0021
3857.00,0.0021
3856.00,0.0020
3855.00,0.0020
3854.00,0.0020
3853.00,0.0020
3852.00,0.0020
3851.00,0.0020
3850.00,0.0020
3849.00,0.0020
3848.00,0.0020
3847.00,0.0020
3846.00,0.0020
3845.00,0.0021
3844.00,0.0021
3843.00,0.0021
3842.00,0.0021
3841.00,0.0021
3840.00,0.0021
3839.00,0.0021
3838.00,0.0021
3837.00,0.0021
3836.00,0.0020
3835.00,0.0020
3834.00,0.0020
3833.00,0.0020
3832.00,0.0021
3831.00,0.0021
3830.00,0.0021
3829.00,0.0021
3828.00,0.0021
3827.00,0.0021
3826.00,0.0021
3825.00,0.0021
3824.00,0.0021
3823.00,0.0020
3822.00,0.0020
3821.00,0.0020
3820.00,0.0020
3819.00,0.0020
3818.00,0.0020
3817.00,0.0020
3816.00,0.0020
3815.00,0.0021
3814.00,0.0021
3813.00,0.0021
3812.00,0.0021
3811.00,0.0021
3810.00,0.0021
3809.00,0.0021
3808.00,0.0021
3807.00,0.0021
3806.00,0.0021
3805.00,0.0021
3804.00,0.0021
3803.00,0.0020
3802.00,0.0021
3801.00,0.0021
3800.00,0.0021
3799.00,0.0021
3798.00,0.0021
3797.00,0.0021
3796.00,0.0021
3795.00,0.0021
3794.00,0.0021
3793.00,0.0021
3792.00,0.0021
3791.00,0.0021
3790.00,0.0021
3789.00,0.0021
3788.00,0.0022
3787.00,0.0021
3786.00,0.0021
3785.00,0.0021
3784.00,0.0021
3783.00,0.0021
3782.00,0.0021
3781.00,0.0021
3780.00,0.0021
3779.00,0.0021
3778.00,0.0020
3777.00,0.0021
3776.00,0.0021
3775.00,0.0021
3774.00,0.0021
3773.00,0.0021
3772.00,0.0021
3771.00,0.0021
3770.00,0.0022
3769.00,0.0022
3768.00,0.0022
3767.00,0.0022
3766.00,0.0022
3765.00,0.0022
3764.00,0.0022
3763.00,0.0021
3762.00,0.0021
3761.00,0.0021
3760.00,0.0021
3759.00,0.0021
3758.00,0.0021
3757.00,0.0021
3756.00,0.0021
3755.00,0.0021
3754.00,0.0021
3753.00,0.0021
3752.00,0.0021
3751.00,0.0022
3750.00,0.0022
3749.00,0.0022
3748.00,0.0022
3747.00,0.0022
3746.00,0.0021
3745.00,0.0021
3744.00,0.0021
3743.00,0.0021
3742.00,0.0020
3741.00,0.0020
3740.00,0.0020
3739.00,0.0021
3738.00,0.0021
3737.00,0.0021
3736.00,0.0021
3735.00,0.0021
3734.00,0.0021
3733.00,0.0020
3732.00,0.0020
3731.00,0.0020
3730.00,0.0020
3729.00,0.0020
3728.00,0.0020
3727.00,0.0020
3726.00,0.0020
3725.00,0.0020
3724.00,0.0020
3723.00,0.0020
3722.00,0.0020
3721.00,0.0020
3720.00,0.0020
3719.00,0.0020
3718.00,0.0020
3717.00,0.0020
3716.00,0.0020
3715.00,0.0020
3714.00,0.0020
3713.00,0.0020
3712.00,0.0021
3711.00,0.0021
3710.00,0.0021
3709.00,0.0021
3708.00,0.0020
3707.00,0.0020
3706.00,0.0019
3705.00,0.0019
3704.00,0.0019
3703.00,0.0019
3702.00,0.0019
3701.00,0.0019
3700.00,0.0019
3699.00,0.0019
3698.00,0.0020
3697.00,0.0020
3696.00,0.0020
3695.00,0.0020
3694.00,0.0020
3693.00,0.0020
3692.00,0.0020
3691.00,0.0020
3690.00,0.0020
3689.00,0.0021
3688.00,0.0021
3687.00,0.0021
3686.00,0.0021
3685.00,0.0021
3684.00,0.0021
3683.00,0.0021
3682.00,0.0022
3681.00,0.0022
3680.00,0.0022
3679.00,0.0022
3678.00,0.0023
3677.00,0.0023
3676.00,0.0023
3675.00,0.0022
3674.00,0.0022
3673.00,0.0022
3672.00,0.0022
3671.00,0.0022
3670.00,0.0022
3669.00,0.0023
3668.00,0.0023
3667.00,0.0023
3666.00,0.0023
3665.00,0.0023
3664.00,0.0023
3663.00,0.0024
3662.00,0.0024
3661.00,0.0024
3660.00,0.0025
3659.00,0.0025
3658.00,0.0025
3657.00,0.0025
3656.00,0.0025
3655.00,0.0025
3654.00,0.0026
3653.00,0.0026
3652.00,0.0026
3651.00,0.0026
3650.00,0.0026
3649.00,0.0027
3648.00,0.0027
3647.00,0.0027
3646.00,0.0027
3645.00,0.0027
3644.00,0.0027
3643.00,0.0028
3642.00,0.0028
3641.00,0.0028
3640.00,0.0028
3639.00,0.0028
3638.00,0.0029
3637.00,0.0029
3636.00,0.0029
3635.00,0.0029
3634.00,0.0029
3633.00,0.0030
3632.00,0.0030
3631.00,0.0030
3630.00,0.0030
3629.00,0.0031
3628.00,0.0032
3627.00,0.0032
3626.00,0.0033
3625.00,0.0033
3624.00,0.0033
3623.00,0.0033
3622.00,0.0033
3621.00,0.0033
3620.00,0.0034
3619.00,0.0035
3618.00,0.0035
3617.00,0.0036
3616.00,0.0037
3615.00,0.0037
3614.00,0.0038
3613.00,0.0038
3612.00,0.0039
3611.00,0.0039
3610.00,0.0039
3609.00,0.0040
3608.00,0.0041
3607.00,0.0041
3606.00,0.0042
3605.00,0.0042
3604.00,0.0042
3603.00,0.0043
3602.00,0.0044
3601.00,0.0044
3600.00,0.0045
3599.00,0.0045
3598.00,0.0046
3597.00,0.0046
3596.00,0.0046
3595.00,0.0047
3594.00,0.0048
3593.00,0.0048
3592.00,0.0049
3591.00,0.0050
3590.00,0.0050
3589.00,0.0051
3588.00,0.0051
3587.00,0.0052
3586.00,0.0053
3585.00,0.0053
3584.00,0.0054
3583.00,0.0055
3582.00,0.0055
3581.00,0.0056
3580.00,0.0057
3579.00,0.0058
3578.00,0.0058
3577.00,0.0059
3576.00,0.0060
3575.00,0.0061
3574.00,0.0061
3573.00,0.0062
3572.00,0.0063
3571.00,0.0063
3570.00,0.0064
3569.00,0.0065
3568.00,0.0066
3567.00,0.0067
3566.00,0.0068
3565.00,0.0069
3564.00,0.0070
3563.00,0.0070
3562.00,0.0071
3561.00,0.0072
3560.00,0.0073
3559.00,0.0074
3558.00,0.0074
3557.00,0.0075
3556.00,0.0076
3555.00,0.0077
3554.00,0.0078
3553.00,0.0079
3552.00,0.0080
3551.00,0.0081
3550.00,0.0082
3549.00,0.0083
3548.00,0.0084
3547.00,0.0085
3546.00,0.0086
3545.00,0.0088
3544.00,0.0089
3543.00,0.0090
3542.00,0.0091
3541.00,0.0092
3540.00,0.0093
3539.00,0.0095
3538.00,0.0096
3537.00,0.0098
3536.00,0.0099
3535.00,0.0101
3534.00,0.0103
3533.00,0.0105
3532.00,0.0108
3531.00,0.0111
3530.00,0.0114
3529.00,0.0118
3528.00,0.0122
3527.00,0.0127
3526.00,0.0132
3525.00,0.0136
3524.00,0.0141
3523.00,0.0145
3522.00,0.0148
3521.00,0.0151
3520.00,0.0153
3519.00,0.0154
3518.00,0.0154
3517.00,0.0153
3516.00,0.0152
3515.00,0.0151
3514.00,0.0149
3513.00,0.0147
3512.00,0.0144
3511.00,0.0142
3510.00,0.0140
3509.00,0.0138
3508.00,0.0136
3507.00,0.0134
3506.00,0.0133
3505.00,0.0131
3504.00,0.0130
3503.00,0.0130
3502.00,0.0129
3501.00,0.0129
3500.00,0.0129
3499.00,0.0128
3498.00,0.0128
3497.00,0.0128
3496.00,0.0129
3495.00,0.0129
3494.00,0.0129
3493.00,0.0130
3492.00,0.0130
3491.00,0.0130
3490.00,0.0131
3489.00,0.0131
3488.00,0.0132
3487.00,0.0132
3486.00,0.0133
3485.00,0.0134
3484.00,0.0135
3483.00,0.0136
3482.00,0.0137
3481.00,0.0137
3480.00,0.0138
3479.00,0.0139
3478.00,0.0140
3477.00,0.0141
3476.00,0.0142
3475.00,0.0143
3474.00,0.0144
3473.00,0.0145
3472.00,0.0146
3471.00,0.0147
3470.00,0.0148
3469.00,0.0149
3468.00,0.0150
3467.00,0.0151
3466.00,0.0153
3465.00,0.0154
3464.00,0.0155
3463.00,0.0156
3462.00,0.0157
3461.00,0.0158
3460.00,0.0159
3459.00,0.0160
3458.00,0.0161
3457.00,0.0162
3456.00,0.0163
3455.00,0.0164
3454.00,0.0166
3453.00,0.0167
3452.00,0.0168
3451.00,0.0170
3450.00,0.0171
3449.00,0.0172
3448.00,0.0173
3447.00,0.0173
3446.00,0.0174
3445.00,0.0175
3444.00,0.0176
3443.00,0.0177
3442.00,0.0178
3441.00,0.0179
3440.00,0.0180
3439.00,0.0181
3438.00,0.0182
3437.00,0.0183
3436.00,0.0184
3435.00,0.0185
3434.00,0.0186
3433.00,0.0186
3432.00,0.0187
3431.00,0.0188
3430.00,0.0189
3429.00,0.0189
3428.00,0.0190
3427.00,0.0191
3426.00,0.0192
3425.00,0.0193
3424.00,0.0194
3423.00,0.0194
3422.00,0.0195
3421.00,0.0196
3420.00,0.0197
3419.00,0.0198
3418.00,0.0199
3417.00,0.0201
3416.00,0.0202
3415.00,0.0203
3414.00,0.0204
3413.00,0.0205
3412.00,0.0206
3411.00,0.0207
3410.00,0.0208
3409.00,0.0208
3408.00,0.0208
3407.00,0.0208
3406.00,0.0208
3405.00,0.0208
3404.00,0.0207
3403.00,0.0205
3402.00,0.0204
3401.00,0.0202
3400.00,0.0199
3399.00,0.0197
3398.00,0.0194
3397.00,0.0192
3396.00,0.0189
3395.00,0.0186
3394.00,0.0183
3393.00,0.0180
3392.00,0.0177
3391.00,0.0175
3390.00,0.0172
3389.00,0.0170
3388.00,0.0168
3387.00,0.0166
3386.00,0.0164
3385.00,0.0162
3384.00,0.0160
3383.00,0.0158
3382.00,0.0157
3381.00,0.0155
3380.00,0.0154
3379.00,0.0152
3378.00,0.0151
3377.00,0.0149
3376.00,0.0148
3375.00,0.0147
3374.00,0.0146
3373.00,0.0145
3372.00,0.0143
3371.00,0.0142
3370.00,0.0141
3369.00,0.0139
3368.00,0.0138
3367.00,0.0137
3366.00,0.0137
3365.00,0.0136
3364.00,0.0136
3363.00,0.0135
3362.00,0.0134
3361.00,0.0133
3360.00,0.0133
3359.00,0.0132
3358.00,0.0132
3357.00,0.0131
3356.00,0.0130
3355.00,0.0129
3354.00,0.0128
3353.00,0.0126
3352.00,0.0125
3351.00,0.0125
3350.00,0.0124
3349.00,0.0124
3348.00,0.0124
3347.00,0.0124
3346.00,0.0123
3345.00,0.0122
3344.00,0.0122
3343.00,0.0121
3342.00,0.0120
3341.00,0.0119
3340.00,0.0118
3339.00,0.0118
3338.00,0.0117
3337.00,0.0117
3336.00,0.0117
3335.00,0.0117
3334.00,0.0117
3333.00,0.0117
3332.00,0.0117
3331.00,0.0116
3330.00,0.0116
3329.00,0.0115
3328.00,0.0115
3327.00,0.0114
3326.00,0.0113
3325.00,0.0113
3324.00,0.0113
3323.00,0.0113
3322.00,0.0113
3321.00,0.0113
3320.00,0.0113
3319.00,0.0113
3318.00,0.0112
3317.00,0.0112
3316.00,0.0112
3315.00,0.0111
3314.00,0.0111
3313.00,0.0110
3312.00,0.0109
3311.00,0.0108
3310.00,0.0107
3309.00,0.0106
3308.00,0.0105
3307.00,0.0104
3306.00,0.0104
3305.00,0.0104
3304.00,0.0105
3303.00,0.0106
3302.00,0.0107
3301.00,0.0107
3300.00,0.0107
3299.00,0.0106
3298.00,0.0106
3297.00,0.0105
3296.00,0.0104
3295.00,0.0104
3294.00,0.0103
3293.00,0.0103
3292.00,0.0103
3291.00,0.0103
3290.00,0.0103
3289.00,0.0104
3288.00,0.0104
3287.00,0.0104
3286.00,0.0104
3285.00,0.0103
3284.00,0.0103
3283.00,0.0103
3282.00,0.0103
3281.00,0.0103
3280.00,0.0102
3279.00,0.0102
3278.00,0.0101
3277.00,0.0100
3276.00,0.0099
3275.00,0.0098
3274.00,0.0097
3273.00,0.0097
3272.00,0.0096
3271.00,0.0096
3270.00,0.0096
3269.00,0.0097
3268.00,0.0097
3267.00,0.0097
3266.00,0.0097
3265.00,0.0097
3264.00,0.0096
3263.00,0.0096
3262.00,0.0095
3261.00,0.0095
3260.00,0.0094
3259.00,0.0094
3258.00,0.0093
3257.00,0.0093
3256.00,0.0092
3255.00,0.0092
3254.00,0.0092
3253.00,0.0092
3252.00,0.0091
3251.00,0.0091
3250.00,0.0090
3249.00,0.0089
3248.00,0.0089
3247.00,0.0088
3246.00,0.0088
3245.00,0.0088
3244.00,0.0088
3243.00,0.0088
3242.00,0.0087
3241.00,0.0086
3240.00,0.0086
3239.00,0.0085
3238.00,0.0085
3237.00,0.0084
3236.00,0.0084
3235.00,0.0083
3234.00,0.0083
3233.00,0.0082
3232.00,0.0082
3231.00,0.0082
3230.00,0.0082
3229.00,0.0081
3228.00,0.0081
3227.00,0.0081
3226.00,0.0080
3225.00,0.0080
3224.00,0.0080
3223.00,0.0080
3222.00,0.0079
3221.00,0.0079
3220.00,0.0078
3219.00,0.0078
3218.00,0.0077
3217.00,0.0077
3216.00,0.0076
3215.00,0.0076
3214.00,0.0076
3213.00,0.0075
3212.00,0.0075
3211.00,0.0075
3210.00,0.0074
3209.00,0.0074
3208.00,0.0074
3207.00,0.0073
3206.00,0.0073
3205.00,0.0072
3204.00,0.0072
3203.00,0.0072
3202.00,0.0071
3201.00,0.0071
3200.00,0.0071
3199.00,0.0071
3198.00,0.0070
3197.00,0.0070
3196.00,0.0069
3195.00,0.0069
3194.00,0.0068
3193.00,0.0068
3192.00,0.0068
3191.00,0.0067
3190.00,0.0067
3189.00,0.0067
3188.00,0.0067
3187.00,0.0066
3186.00,0.0066
3185.00,0.0066
3184.00,0.0065
3183.00,0.0065
3182.00,0.0065
3181.00,0.0065
3180.00,0.0064
3179.00,0.0064
3178.00,0.0064
3177.00,0.0064
3176.00,0.0064
3175.00,0.0063
3174.00,0.0063
3173.00,0.0062
3172.00,0.0062
3171.00,0.0061
3170.00,0.0061
3169.00,0.0061
3168.00,0.0061
3167.00,0.0061
3166.00,0.0061
3165.00,0.0060
3164.00,0.0060
3163.00,0.0060
3162.00,0.0060
3161.00,0.0059
3160.00,0.0059
3159.00,0.0058
3158.00,0.0058
3157.00,0.0058
3156.00,0.0058
3155.00,0.0057
3154.00,0.0057
3153.00,0.0057
3152.00,0.0056
3151.00,0.0056
3150.00,0.0056
3149.00,0.0056
3148.00,0.0056
3147.00,0.0056
3146.00,0.0055
3145.00,0.0055
3144.00,0.0055
3143.00,0.0054
3142.00,0.0054
3141.00,0.0054
3140.00,0.0054
3139.00,0.0053
3138.00,0.0053
3137.00,0.0053
3136.00,0.0053
3135.00,0.0053
3134.00,0.0053
3133.00,0.0052
3132.00,0.0052
3131.00,0.0052
3130.00,0.0052
3129.00,0.0052
3128.00,0.0051
3127.00,0.0051
3126.00,0.0051
3125.00,0.0051
3124.00,0.0051
3123.00,0.0051
3122.00,0.0051
3121.00,0.0050
3120.00,0.0050
3119.00,0.0050
3118.00,0.0050
3117.00,0.0049
3116.00,0.0049
3115.00,0.0049
3114.00,0.0049
3113.00,0.0049
3112.00,0.0048
3111.00,0.0048
3110.00,0.0048
3109.00,0.0048
3108.00,0.0048
3107.00,0.0048
3106.00,0.0048
3105.00,0.0048
3104.00,0.0048
3103.00,0.0048
3102.00,0.0048
3101.00,0.0047
3100.00,0.0047
3099.00,0.0047
3098.00,0.0047
3097.00,0.0047
3096.00,0.0047
3095.00,0.0047
3094.00,0.0047
3093.00,0.0047
3092.00,0.0047
3091.00,0.0047
3090.00,0.0047
3089.00,0.0047
3088.00,0.0047
3087.00,0.0047
3086.00,0.0047
3085.00,0.0047
3084.00,0.0047
3083.00,0.0048
3082.00,0.0049
3081.00,0.0050
3080.00,0.0051
3079.00,0.0053
3078.00,0.0055
3077.00,0.0056
3076.00,0.0057
3075.00,0.0058
3074.00,0.0058
3073.00,0.0057
3072.00,0.0056
3071.00,0.0054
3070.00,0.0053
3069.00,0.0051
3068.00,0.0049
3067.00,0.0048
3066.00,0.0047
3065.00,0.0047
3064.00,0.0046
3063.00,0.0046
3062.00,0.0045
3061.00,0.0045
3060.00,0.0045
3059.00,0.0044
3058.00,0.0044
3057.00,0.0044
3056.00,0.0043
3055.00,0.0043
3054.00,0.0043
3053.00,0.0043
3052.00,0.0043
3051.00,0.0043
3050.00,0.0043
3049.00,0.0043
3048.00,0.0043
3047.00,0.0043
3046.00,0.0043
3045.00,0.0044
3044.00,0.0044
3043.00,0.0044
3042.00,0.0044
3041.00,0.0044
3040.00,0.0044
3039.00,0.0045
3038.00,0.0045
3037.00,0.0045
3036.00,0.0046
3035.00,0.0046
3034.00,0.0046
3033.00,0.0046
3032.00,0.0046
3031.00,0.0046
3030.00,0.0046
3029.00,0.0046
3028.00,0.0045
3027.00,0.0045
3026.00,0.0045
3025.00,0.0045
3024.00,0.0045
3023.00,0.0045
3022.00,0.0045
3021.00,0.0045
3020.00,0.0045
3019.00,0.0045
3018.00,0.0046
3017.00,0.0046
3016.00,0.0047
3015.00,0.0047
3014.00,0.0048
3013.00,0.0049
3012.00,0.0049
3011.00,0.0050
3010.00,0.0051
3009.00,0.0052
3008.00,0.0053
3007.00,0.0054
3006.00,0.0055
3005.00,0.0057
3004.00,0.0058
3003.00,0.0059
3002.00,0.0061
3001.00,0.0062
3000.00,0.0064
2999.00,0.0066
2998.00,0.0068
2997.00,0.0070
2996.00,0.0072
2995.00,0.0074
2994.00,0.0076
2993.00,0.0078
2992.00,0.0080
2991.00,0.0083
2990.00,0.0085
2989.00,0.0087
2988.00,0.0089
2987.00,0.0091
2986.00,0.0093
2985.00,0.0096
2984.00,0.0098
2983.00,0.0101
2982.00,0.0103
2981.00,0.0106
2980.00,0.0108
2979.00,0.0111
2978.00,0.0114
2977.00,0.0118
2976.00,0.0122
2975.00,0.0126
2974.00,0.0130
2973.00,0.0135
2972.00,0.0140
2971.00,0.0145
2970.00,0.0149
2969.00,0.0154
2968.00,0.0158
2967.00,0.0161
2966.00,0.0164
2965.00,0.0166
2964.00,0.0168
2963.00,0.0169
2962.00,0.0170
2961.00,0.0170
2960.00,0.0170
2959.00,0.0169
2958.00,0.0168
2957.00,0.0167
2956.00,0.0166
2955.00,0.0164
2954.00,0.0163
2953.00,0.0162
2952.00,0.0161
2951.00,0.0160
2950.00,0.0159
2949.00,0.0159
2948.00,0.0160
2947.00,0.0161
2946.00,0.0162
2945.00,0.0164
2944.00,0.0167
2943.00,0.0169
2942.00,0.0172
2941.00,0.0174
2940.00,0.0176
2939.00,0.0179
2938.00,0.0181
2937.00,0.0185
2936.00,0.0188
2935.00,0.0192
2934.00,0.0195
2933.00,0.0199
2932.00,0.0203
2931.00,0.0207
2930.00,0.0211
2929.00,0.0214
2928.00,0.0218
2927.00,0.0221
2926.00,0.0223
2925.00,0.0225
2924.00,0.0225
2923.00,0.0225
2922.00,0.0224
2921.00,0.0223
2920.00,0.0222
2919.00,0.0221
2918.00,0.0219
2917.00,0.0217
2916.00,0.0215
2915.00,0.0213
2914.00,0.0210
2913.00,0.0207
2912.00,0.0203
2911.00,0.0199
2910.00,0.0195
2909.00,0.0191
2908.00,0.0186
2907.00,0.0183
2906.00,0.0179
2905.00,0.0176
2904.00,0.0173
2903.00,0.0170
2902.00,0.0168
2901.00,0.0166
2900.00,0.0164
2899.00,0.0163
2898.00,0.0161
2897.00,0.0159
2896.00,0.0157
2895.00,0.0155
2894.00,0.0154
2893.00,0.0153
2892.00,0.0152
2891.00,0.0151
2890.00,0.0150
2889.00,0.0149
2888.00,0.0149
2887.00,0.0148
2886.00,0.0148
2885.00,0.0147
2884.00,0.0147
2883.00,0.0147
2882.00,0.0147
2881.00,0.0146
2880.00,0.0146
2879.00,0.0146
2878.00,0.0146
2877.00,0.0146
2876.00,0.0147
2875.00,0.0147
2874.00,0.0147
2873.00,0.0148
2872.00,0.0148
2871.00,0.0148
2870.00,0.0147
2869.00,0.0146
2868.00,0.0145
2867.00,0.0144
2866.00,0.0144
2865.00,0.0144
2864.00,0.0144
2863.00,0.0146
2862.00,0.0148
2861.00,0.0151
2860.00,0.0155
2859.00,0.0159
2858.00,0.0163
2857.00,0.0166
2856.00,0.0167
2855.00,0.0166
2854.00,0.0163
2853.00,0.0158
2852.00,0.0152
2851.00,0.0145
2850.00,0.0138
2849.00,0.0131
2848.00,0.0125
2847.00,0.0119
2846.00,0.0114
2845.00,0.0109
2844.00,0.0105
2843.00,0.0101
2842.00,0.0097
2841.00,0.0094
2840.00,0.0091
2839.00,0.0090
2838.00,0.0089
2837.00,0.0088
2836.00,0.0088
2835.00,0.0089
2834.00,0.0090
2833.00,0.0092
2832.00,0.0094
2831.00,0.0096
2830.00,0.0097
2829.00,0.0097
2828.00,0.0095
2827.00,0.0092
2826.00,0.0087
2825.00,0.0083
2824.00,0.0078
2823.00,0.0074
2822.00,0.0071
2821.00,0.0068
2820.00,0.0066
2819.00,0.0064
2818.00,0.0062
2817.00,0.0061
2816.00,0.0059
2815.00,0.0058
2814.00,0.0057
2813.00,0.0056
2812.00,0.0055
2811.00,0.0055
2810.00,0.0054
2809.00,0.0053
2808.00,0.0053
2807.00,0.0052
2806.00,0.0052
2805.00,0.0051
2804.00,0.0050
2803.00,0.0050
2802.00,0.0050
2801.00,0.0049
2800.00,0.0049
2799.00,0.0049
2798.00,0.0048
2797.00,0.0048
2796.00,0.0047
2795.00,0.0047
2794.00,0.0046
2793.00,0.0046
2792.00,0.0046
2791.00,0.0046
2790.00,0.0045
2789.00,0.0045
2788.00,0.0045
2787.00,0.0045
2786.00,0.0045
2785.00,0.0045
2784.00,0.0045
2783.00,0.0044
2782.00,0.0044
2781.00,0.0044
2780.00,0.0043
2779.00,0.0043
2778.00,0.0043
2777.00,0.0042
2776.00,0.0042
2775.00,0.0042
2774.00,0.0042
2773.00,0.0042
2772.00,0.0041
2771.00,0.0041
2770.00,0.0041
2769.00,0.0041
2768.00,0.0041
2767.00,0.0041
2766.00,0.0041
2765.00,0.0041
2764.00,0.0041
2763.00,0.0040
2762.00,0.0040
2761.00,0.0040
2760.00,0.0040
2759.00,0.0040
2758.00,0.0040
2757.00,0.0040
2756.00,0.0040
2755.00,0.0040
2754.00,0.0040
2753.00,0.0040
2752.00,0.0040
2751.00,0.0040
2750.00,0.0040
2749.00,0.0040
2748.00,0.0040
2747.00,0.0040
2746.00,0.0040
2745.00,0.0040
2744.00,0.0040
2743.00,0.0040
2742.00,0.0040
2741.00,0.0040
2740.00,0.0040
2739.00,0.0041
2738.00,0.0041
2737.00,0.0041
2736.00,0.0041
2735.00,0.0041
2734.00,0.0041
2733.00,0.0041
2732.00,0.0042
2731.00,0.0042
2730.00,0.0042
2729.00,0.0042
2728.00,0.0042
2727.00,0.0042
2726.00,0.0042
2725.00,0.0042
2724.00,0.0041
2723.00,0.0041
2722.00,0.0041
2721.00,0.0040
2720.00,0.0040
2719.00,0.0040
2718.00,0.0040
2717.00,0.0039
2716.00,0.0039
2715.00,0.0039
2714.00,0.0039
2713.00,0.0039
2712.00,0.0039
2711.00,0.0039
2710.00,0.0039
2709.00,0.0039
2708.00,0.0038
2707.00,0.0038
2706.00,0.0038
2705.00,0.0038
2704.00,0.0038
2703.00,0.0038
2702.00,0.0038
2701.00,0.0038
2700.00,0.0038
2699.00,0.0038
2698.00,0.0038
2697.00,0.0038
2696.00,0.0038
2695.00,0.0037
2694.00,0.0037
2693.00,0.0037
2692.00,0.0037
2691.00,0.0037
2690.00,0.0037
2689.00,0.0037
2688.00,0.0037
2687.00,0.0037
2686.00,0.0037
2685.00,0.0037
2684.00,0.0037
2683.00,0.0037
2682.00,0.0037
2681.00,0.0037
2680.00,0.0037
2679.00,0.0037
2678.00,0.0037
2677.00,0.0037
2676.00,0.0037
2675.00,0.0037
2674.00,0.0037
2673.00,0.0037
2672.00,0.0037
2671.00,0.0037
2670.00,0.0038
2669.00,0.0038
2668.00,0.0038
2667.00,0.0038
2666.00,0.0039
2665.00,0.0039
2664.00,0.0040
2663.00,0.0040
2662.00,0.0041
2661.00,0.0041
2660.00,0.0041
2659.00,0.0041
2658.00,0.0041
2657.00,0.0042
2656.00,0.0042
2655.00,0.0042
2654.00,0.0042
2653.00,0.0042
2652.00,0.0042
2651.00,0.0042
2650.00,0.0042
2649.00,0.0042
2648.00,0.0042
2647.00,0.0042
2646.00,0.0042
2645.00,0.0041
2644.00,0.0041
2643.00,0.0041
2642.00,0.0041
2641.00,0.0041
2640.00,0.0041
2639.00,0.0041
2638.00,0.0041
2637.00,0.0041
2636.00,0.0041
2635.00,0.0041
2634.00,0.0040
2633.00,0.0040
2632.00,0.0040
2631.00,0.0041
2630.00,0.0040
2629.00,0.0040
2628.00,0.0041
2627.00,0.0041
2626.00,0.0040
2625.00,0.0040
2624.00,0.0040
2623.00,0.0040
2622.00,0.0040
2621.00,0.0039
2620.00,0.0039
2619.00,0.0039
2618.00,0.0039
2617.00,0.0039
2616.00,0.0039
2615.00,0.0039
2614.00,0.0039
2613.00,0.0039
2612.00,0.0039
2611.00,0.0039
2610.00,0.0039
2609.00,0.0039
2608.00,0.0038
2607.00,0.0038
2606.00,0.0038
2605.00,0.0038
2604.00,0.0038
2603.00,0.0037
2602.00,0.0038
2601.00,0.0038
2600.00,0.0038
2599.00,0.0038
2598.00,0.0038
2597.00,0.0038
2596.00,0.0038
2595.00,0.0038
2594.00,0.0038
2593.00,0.0038
2592.00,0.0038
2591.00,0.0038
2590.00,0.0038
2589.00,0.0038
2588.00,0.0038
2587.00,0.0038
2586.00,0.0038
2585.00,0.0038
2584.00,0.0037
2583.00,0.0037
2582.00,0.0037
2581.00,0.0037
2580.00,0.0037
2579.00,0.0038
2578.00,0.0038
2577.00,0.0037
2576.00,0.0037
2575.00,0.0037
2574.00,0.0037
2573.00,0.0037
2572.00,0.0037
2571.00,0.0037
2570.00,0.0037
2569.00,0.0037
2568.00,0.0036
2567.00,0.0036
2566.00,0.0036
2565.00,0.0036
2564.00,0.0036
2563.00,0.0036
2562.00,0.0036
2561.00,0.0036
2560.00,0.0036
2559.00,0.0036
2558.00,0.0036
2557.00,0.0036
2556.00,0.0036
2555.00,0.0036
2554.00,0.0036
2553.00,0.0036
2552.00,0.0036
2551.00,0.0036
2550.00,0.0036
2549.00,0.0036
2548.00,0.0035
2547.00,0.0035
2546.00,0.0035
2545.00,0.0035
2544.00,0.0035
2543.00,0.0034
2542.00,0.0034
2541.00,0.0034
2540.00,0.0034
2539.00,0.0034
2538.00,0.0034
2537.00,0.0035
2536.00,0.0035
2535.00,0.0034
2534.00,0.0034
2533.00,0.0034
2532.00,0.0034
2531.00,0.0034
2530.00,0.0034
2529.00,0.0034
2528.00,0.0034
2527.00,0.0034
2526.00,0.0034
2525.00,0.0034
2524.00,0.0034
2523.00,0.0034
2522.00,0.0033
2521.00,0.0033
2520.00,0.0033
2519.00,0.0033
2518.00,0.0033
2517.00,0.0033
2516.00,0.0033
2515.00,0.0033
2514.00,0.0032
2513.00,0.0032
2512.00,0.0033
2511.00,0.0033
2510.00,0.0033
2509.00,0.0033
2508.00,0.0033
2507.00,0.0033
2506.00,0.0033
2505.00,0.0033
2504.00,0.0033
2503.00,0.0033
2502.00,0.0033
2501.00,0.0033
2500.00,0.0033
2499.00,0.0033
2498.00,0.0033
2497.00,0.0033
2496.00,0.0033
2495.00,0.0033
2494.00,0.0033
2493.00,0.0033
2492.00,0.0033
2491.00,0.0032
2490.00,0.0032
2489.00,0.0032
2488.00,0.0032
2487.00,0.0032
2486.00,0.0032
2485.00,0.0031
2484.00,0.0031
2483.00,0.0032
2482.00,0.0032
2481.00,0.0032
2480.00,0.0032
2479.00,0.0032
2478.00,0.0032
2477.00,0.0032
2476.00,0.0032
2475.00,0.0032
2474.00,0.0032
2473.00,0.0032
2472.00,0.0031
2471.00,0.0031
2470.00,0.0031
2469.00,0.0032
2468.00,0.0032
2467.00,0.0032
2466.00,0.0032
2465.00,0.0032
2464.00,0.0032
2463.00,0.0033
2462.00,0.0033
2461.00,0.0033
2460.00,0.0033
2459.00,0.0033
2458.00,0.0033
2457.00,0.0033
2456.00,0.0034
2455.00,0.0034
2454.00,0.0034
2453.00,0.0033
2452.00,0.0034
2451.00,0.0034
2450.00,0.0034
2449.00,0.0034
2448.00,0.0033
2447.00,0.0033
2446.00,0.0033
2445.00,0.0032
2444.00,0.0032
2443.00,0.0032
2442.00,0.0032
2441.00,0.0032
2440.00,0.0032
2439.00,0.0032
2438.00,0.0032
2437.00,0.0031
2436.00,0.0031
2435.00,0.0031
2434.00,0.0031
2433.00,0.0031
2432.00,0.0031
2431.00,0.0030
2430.00,0.0030
2429.00,0.0031
2428.00,0.0031
2427.00,0.0030
2426.00,0.0030
2425.00,0.0030
2424.00,0.0030
2423.00,0.0030
2422.00,0.0030
2421.00,0.0030
2420.00,0.0029
2419.00,0.0029
2418.00,0.0030
2417.00,0.0030
2416.00,0.0030
2415.00,0.0030
2414.00,0.0030
2413.00,0.0030
2412.00,0.0030
2411.00,0.0030
2410.00,0.0030
2409.00,0.0029
2408.00,0.0029
2407.00,0.0028
2406.00,0.0028
2405.00,0.0028
2404.00,0.0028
2403.00,0.0029
2402.00,0.0029
2401.00,0.0029
2400.00,0.0029
2399.00,0.0028
2398.00,0.0028
2397.00,0.0028
2396.00,0.0028
2395.00,0.0028
2394.00,0.0028
2393.00,0.0028
2392.00,0.0028
2391.00,0.0028
2390.00,0.0028
2389.00,0.0028
2388.00,0.0027
2387.00,0.0027
2386.00,0.0027
2385.00,0.0026
2384.00,0.0026
2383.00,0.0025
2382.00,0.0024
2381.00,0.0023
2380.00,0.0022
2379.00,0.0022
2378.00,0.0023
2377.00,0.0023
2376.00,0.0024
2375.00,0.0024
2374.00,0.0024
2373.00,0.0024
2372.00,0.0024
2371.00,0.0024
2370.00,0.0023
2369.00,0.0023
2368.00,0.0023
2367.00,0.0023
2366.00,0.0024
2365.00,0.0024
2364.00,0.0025
2363.00,0.0026
2362.00,0.0026
2361.00,0.0026
2360.00,0.0025
2359.00,0.0025
2358.00,0.0025
2357.00,0.0025
2356.00,0.0026
2355.00,0.0026
2354.00,0.0026
2353.00,0.0026
2352.00,0.0026
2351.00,0.0026
2350.00,0.0026
2349.00,0.0027
2348.00,0.0028
2347.00,0.0028
2346.00,0.0028
2345.00,0.0028
2344.00,0.0028
2343.00,0.0029
2342.00,0.0029
2341.00,0.0030
2340.00,0.0030
2339.00,0.0031
2338.00,0.0030
2337.00,0.0030
2336.00,0.0030
2335.00,0.0030
2334.00,0.0030
2333.00,0.0030
2332.00,0.0029
2331.00,0.0029
2330.00,0.0030
2329.00,0.0032
2328.00,0.0035
2327.00,0.0039
2326.00,0.0042
2325.00,0.0043
2324.00,0.0043
2323.00,0.0041
2322.00,0.0039
2321.00,0.0037
2320.00,0.0036
2319.00,0.0035
2318.00,0.0035
2317.00,0.0035
2316.00,0.0035
2315.00,0.0035
2314.00,0.0034
2313.00,0.0033
2312.00,0.0032
2311.00,0.0032
2310.00,0.0032
2309.00,0.0032
2308.00,0.0032
2307.00,0.0032
2306.00,0.0033
2305.00,0.0033
2304.00,0.0033
2303.00,0.0033
2302.00,0.0033
2301.00,0.0033
2300.00,0.0033
2299.00,0.0034
2298.00,0.0034
2297.00,0.0035
2296.00,0.0036
2295.00,0.0036
2294.00,0.0037
2293.00,0.0038
2292.00,0.0039
2291.00,0.0040
2290.00,0.0041
2289.00,0.0041
2288.00,0.0042
2287.00,0.0042
2286.00,0.0041
2285.00,0.0040
2284.00,0.0040
2283.00,0.0039
2282.00,0.0039
2281.00,0.0039
2280.00,0.0039
2279.00,0.0038
2278.00,0.0037
2277.00,0.0037
2276.00,0.0036
2275.00,0.0035
2274.00,0.0035
2273.00,0.0035
2272.00,0.0035
2271.00,0.0034
2270.00,0.0034
2269.00,0.0033
2268.00,0.0033
2267.00,0.0033
2266.00,0.0033
2265.00,0.0033
2264.00,0.0034
2263.00,0.0034
2262.00,0.0034
2261.00,0.0034
2260.00,0.0034
2259.00,0.0034
2258.00,0.0034
2257.00,0.0033
2256.00,0.0033
2255.00,0.0032
2254.00,0.0032
2253.00,0.0032
2252.00,0.0032
2251.00,0.0032
2250.00,0.0032
2249.00,0.0032
2248.00,0.0032
2247.00,0.0033
2246.00,0.0034
2245.00,0.0034
2244.00,0.0035
2243.00,0.0035
2242.00,0.0035
2241.00,0.0035
2240.00,0.0035
2239.00,0.0035
2238.00,0.0035
2237.00,0.0034
2236.00,0.0033
2235.00,0.0032
2234.00,0.0032
2233.00,0.0033
2232.00,0.0034
2231.00,0.0034
2230.00,0.0034
2229.00,0.0034
2228.00,0.0033
2227.00,0.0033
2226.00,0.0032
2225.00,0.0032
2224.00,0.0032
2223.00,0.0032
2222.00,0.0032
2221.00,0.0032
2220.00,0.0032
2219.00,0.0032
2218.00,0.0032
2217.00,0.0031
2216.00,0.0032
2215.00,0.0032
2214.00,0.0031
2213.00,0.0031
2212.00,0.0031
2211.00,0.0031
2210.00,0.0031
2209.00,0.0032
2208.00,0.0032
2207.00,0.0033
2206.00,0.0033
2205.00,0.0034
2204.00,0.0035
2203.00,0.0035
2202.00,0.0035
2201.00,0.0034
2200.00,0.0033
2199.00,0.0033
2198.00,0.0033
2197.00,0.0034
2196.00,0.0035
2195.00,0.0035
2194.00,0.0036
2193.00,0.0035
2192.00,0.0035
2191.00,0.0034
2190.00,0.0034
2189.00,0.0035
2188.00,0.0036
2187.00,0.0037
2186.00,0.0036
2185.00,0.0034
2184.00,0.0031
2183.00,0.0029
2182.00,0.0027
2181.00,0.0028
2180.00,0.0029
2179.00,0.0030
2178.00,0.0029
2177.00,0.0028
2176.00,0.0028
2175.00,0.0029
2174.00,0.0030
2173.00,0.0032
2172.00,0.0034
2171.00,0.0036
2170.00,0.0039
2169.00,0.0041
2168.00,0.0042
2167.00,0.0043
2166.00,0.0044
2165.00,0.0045
2164.00,0.0046
2163.00,0.0044
2162.00,0.0038
2161.00,0.0026
2160.00,0.0013
2159.00,0.0003
2158.00,-0.0000
2157.00,0.0001
2156.00,0.0005
2155.00,0.0007
2154.00,0.0009
2153.00,0.0010
2152.00,0.0012
2151.00,0.0015
2150.00,0.0016
2149.00,0.0017
2148.00,0.0016
2147.00,0.0015
2146.00,0.0014
2145.00,0.0015
2144.00,0.0016
2143.00,0.0017
2142.00,0.0017
2141.00,0.0017
2140.00,0.0017
2139.00,0.0016
2138.00,0.0015
2137.00,0.0013
2136.00,0.0012
2135.00,0.0010
2134.00,0.0010
2133.00,0.0012
2132.00,0.0014
2131.00,0.0017
2130.00,0.0019
2129.00,0.0019
2128.00,0.0020
2127.00,0.0020
2126.00,0.0021
2125.00,0.0022
2124.00,0.0023
2123.00,0.0024
2122.00,0.0025
2121.00,0.0027
2120.00,0.0028
2119.00,0.0029
2118.00,0.0030
2117.00,0.0030
2116.00,0.0031
2115.00,0.0032
2114.00,0.0031
2113.00,0.0031
2112.00,0.0030
2111.00,0.0029
2110.00,0.0028
2109.00,0.0028
2108.00,0.0028
2107.00,0.0029
2106.00,0.0029
2105.00,0.0030
2104.00,0.0030
2103.00,0.0030
2102.00,0.0030
2101.00,0.0029
2100.00,0.0029
2099.00,0.0029
2098.00,0.0028
2097.00,0.0026
2096.00,0.0025
2095.00,0.0024
2094.00,0.0025
2093.00,0.0026
2092.00,0.0027
2091.00,0.0028
2090.00,0.0029
2089.00,0.0029
2088.00,0.0030
2087.00,0.0031
2086.00,0.0031
2085.00,0.0031
2084.00,0.0031
2083.00,0.0032
2082.00,0.0032
2081.00,0.0032
2080.00,0.0032
2079.00,0.0032
2078.00,0.0031
2077.00,0.0030
2076.00,0.0029
2075.00,0.0028
2074.00,0.0028
2073.00,0.0028
2072.00,0.0028
2071.00,0.0029
2070.00,0.0029
2069.00,0.0029
2068.00,0.0029
2067.00,0.0028
2066.00,0.0027
2065.00,0.0026
2064.00,0.0025
2063.00,0.0025
2062.00,0.0025
2061.00,0.0025
2060.00,0.0026
2059.00,0.0028
2058.00,0.0029
2057.00,0.0029
2056.00,0.0029
2055.00,0.0030
2054.00,0.0031
2053.00,0.0035
2052.00,0.0038
2051.00,0.0038
2050.00,0.0034
2049.00,0.0031
2048.00,0.0028
2047.00,0.0028
2046.00,0.0028
2045.00,0.0028
2044.00,0.0027
2043.00,0.0026
2042.00,0.0025
2041.00,0.0025
2040.00,0.0026
2039.00,0.0027
2038.00,0.0028
2037.00,0.0028
2036.00,0.0026
2035.00,0.0023
2034.00,0.0019
2033.00,0.0017
2032.00,0.0018
2031.00,0.0019
2030.00,0.0019
2029.00,0.0020
2028.00,0.0019
2027.00,0.0019
2026.00,0.0019
2025.00,0.0019
2024.00,0.0020
2023.00,0.0022
2022.00,0.0022
2021.00,0.0023
2020.00,0.0023
2019.00,0.0023
2018.00,0.0022
2017.00,0.0021
2016.00,0.0021
2015.00,0.0019
2014.00,0.0018
2013.00,0.0016
2012.00,0.0016
2011.00,0.0017
2010.00,0.0017
2009.00,0.0016
2008.00,0.0014
2007.00,0.0013
2006.00,0.0012
2005.00,0.0012
2004.00,0.0014
2003.00,0.0016
2002.00,0.0018
2001.00,0.0020
2000.00,0.0021
1999.00,0.0022
1998.00,0.0021
1997.00,0.0021
1996.00,0.0021
1995.00,0.0022
1994.00,0.0022
1993.00,0.0023
1992.00,0.0024
1991.00,0.0025
1990.00,0.0025
1989.00,0.0027
1988.00,0.0028
1987.00,0.0030
1986.00,0.0030
1985.00,0.0031
1984.00,0.0032
1983.00,0.0034
1982.00,0.0035
1981.00,0.0037
1980.00,0.0036
1979.00,0.0032
1978.00,0.0027
1977.00,0.0022
1976.00,0.0020
1975.00,0.0018
1974.00,0.0015
1973.00,0.0013
1972.00,0.0013
1971.00,0.0013
1970.00,0.0014
1969.00,0.0014
1968.00,0.0014
1967.00,0.0014
1966.00,0.0014
1965.00,0.0014
1964.00,0.0015
1963.00,0.0016
1962.00,0.0014
1961.00,0.0012
1960.00,0.0011
1959.00,0.0011
1958.00,0.0012
1957.00,0.0013
1956.00,0.0015
1955.00,0.0015
1954.00,0.0016
1953.00,0.0016
1952.00,0.0016
1951.00,0.0016
1950.00,0.0016
1949.00,0.0016
1948.00,0.0017
1947.00,0.0017
1946.00,0.0016
1945.00,0.0016
1944.00,0.0016
1943.00,0.0017
1942.00,0.0018
1941.00,0.0018
1940.00,0.0019
1939.00,0.0019
1938.00,0.0018
1937.00,0.0018
1936.00,0.0018
1935.00,0.0018
1934.00,0.0018
1933.00,0.0018
1932.00,0.0018
1931.00,0.0018
1930.00,0.0017
1929.00,0.0017
1928.00,0.0017
1927.00,0.0018
1926.00,0.0018
1925.00,0.0019
1924.00,0.0020
1923.00,0.0020
1922.00,0.0021
1921.00,0.0020
1920.00,0.0020
1919.00,0.0019
1918.00,0.0019
1917.00,0.0018
1916.00,0.0019
1915.00,0.0019
1914.00,0.0020
1913.00,0.0020
1912.00,0.0021
1911.00,0.0021
1910.00,0.0021
1909.00,0.0021
1908.00,0.0021
1907.00,0.0021
1906.00,0.0021
1905.00,0.0021
1904.00,0.0022
1903.00,0.0022
1902.00,0.0022
1901.00,0.0022
1900.00,0.0021
1899.00,0.0021
1898.00,0.0020
1897.00,0.0020
1896.00,0.0021
1895.00,0.0021
1894.00,0.0021
1893.00,0.0021
1892.00,0.0021
1891.00,0.0022
1890.00,0.0022
1889.00,0.0022
1888.00,0.0022
1887.00,0.0023
1886.00,0.0022
1885.00,0.0022
1884.00,0.0022
1883.00,0.0022
1882.00,0.0022
1881.00,0.0022
1880.00,0.0022
1879.00,0.0022
1878.00,0.0022
1877.00,0.0022
1876.00,0.0023
1875.00,0.0023
1874.00,0.0023
1873.00,0.0022
1872.00,0.0022
1871.00,0.0022
1870.00,0.0022
1869.00,0.0023
1868.00,0.0023
1867.00,0.0023
1866.00,0.0023
1865.00,0.0023
1864.00,0.0023
1863.00,0.0023
1862.00,0.0023
1861.00,0.0023
1860.00,0.0023
1859.00,0.0023
1858.00,0.0023
1857.00,0.0023
1856.00,0.0023
1855.00,0.0023
1854.00,0.0024
1853.00,0.0023
1852.00,0.0023
1851.00,0.0023
1850.00,0.0023
1849.00,0.0023
1848.00,0.0023
1847.00,0.0023
1846.00,0.0023
1845.00,0.0022
1844.00,0.0022
1843.00,0.0022
1842.00,0.0022
1841.00,0.0023
1840.00,0.0024
1839.00,0.0024
1838.00,0.0024
1837.00,0.0024
1836.00,0.0024
1835.00,0.0024
1834.00,0.0024
1833.00,0.0024
1832.00,0.0024
1831.00,0.0024
1830.00,0.0024
1829.00,0.0024
1828.00,0.0024
1827.00,0.0024
1826.00,0.0024
1825.00,0.0024
1824.00,0.0024
1823.00,0.0024
1822.00,0.0024
1821.00,0.0024
1820.00,0.0023
1819.00,0.0022
1818.00,0.0022
1817.00,0.0021
1816.00,0.0021
1815.00,0.0022
1814.00,0.0022
1813.00,0.0023
1812.00,0.0024
1811.00,0.0025
1810.00,0.0025
1809.00,0.0025
1808.00,0.0026
1807.00,0.0026
1806.00,0.0026
1805.00,0.0026
1804.00,0.0026
1803.00,0.0026
1802.00,0.0026
1801.00,0.0026
1800.00,0.0026
1799.00,0.0026
1798.00,0.0027
1797.00,0.0027
1796.00,0.0027
1795.00,0.0026
1794.00,0.0026
1793.00,0.0025
1792.00,0.0025
1791.00,0.0025
1790.00,0.0025
1789.00,0.0025
1788.00,0.0026
1787.00,0.0026
1786.00,0.0026
1785.00,0.0026
1784.00,0.0026
1783.00,0.0026
1782.00,0.0027
1781.00,0.0027
1780.00,0.0027
1779.00,0.0027
1778.00,0.0027
1777.00,0.0027
1776.00,0.0028
1775.00,0.0028
1774.00,0.0028
1773.00,0.0028
1772.00,0.0028
1771.00,0.0028
1770.00,0.0028
1769.00,0.0028
1768.00,0.0028
1767.00,0.0028
1766.00,0.0028
1765.00,0.0028
1764.00,0.0028
1763.00,0.0028
1762.00,0.0028
1761.00,0.0028
1760.00,0.0028
1759.00,0.0028
1758.00,0.0029
1757.00,0.0029
1756.00,0.0029
1755.00,0.0029
1754.00,0.0029
1753.00,0.0030
1752.00,0.0030
1751.00,0.0031
1750.00,0.0032
1749.00,0.0033
1748.00,0.0033
1747.00,0.0033
1746.00,0.0033
1745.00,0.0034
1744.00,0.0034
1743.00,0.0034
1742.00,0.0033
1741.00,0.0032
1740.00,0.0032
1739.00,0.0033
1738.00,0.0033
1737.00,0.0033
1736.00,0.0033
1735.00,0.0033
1734.00,0.0034
1733.00,0.0034
1732.00,0.0036
1731.00,0.0037
1730.00,0.0038
1729.00,0.0038
1728.00,0.0038
1727.00,0.0039
1726.00,0.0040
1725.00,0.0041
1724.00,0.0043
1723.00,0.0044
1722.00,0.0044
1721.00,0.0044
1720.00,0.0045
1719.00,0.0047
1718.00,0.0049
1717.00,0.0050
1716.00,0.0052
1715.00,0.0054
1714.00,0.0056
1713.00,0.0058
1712.00,0.0061
1711.00,0.0064
1710.00,0.0067
1709.00,0.0070
1708.00,0.0073
1707.00,0.0078
1706.00,0.0083
1705.00,0.0088
1704.00,0.0093
1703.00,0.0096
1702.00,0.0100
1701.00,0.0107
1700.00,0.0119
1699.00,0.0132
1698.00,0.0142
1697.00,0.0153
1696.00,0.0166
1695.00,0.0180
1694.00,0.0192
1693.00,0.0204
1692.00,0.0217
1691.00,0.0231
1690.00,0.0246
1689.00,0.0262
1688.00,0.0276
1687.00,0.0288
1686.00,0.0300
1685.00,0.0318
1684.00,0.0342
1683.00,0.0362
1682.00,0.0378
1681.00,0.0392
1680.00,0.0406
1679.00,0.0419
1678.00,0.0431
1677.00,0.0443
1676.00,0.0458
1675.00,0.0476
1674.00,0.0492
1673.00,0.0505
1672.00,0.0517
1671.00,0.0530
1670.00,0.0544
1669.00,0.0560
1668.00,0.0574
1667.00,0.0585
1666.00,0.0594
1665.00,0.0603
1664.00,0.0614
1663.00,0.0627
1662.00,0.0639
1661.00,0.0649
1660.00,0.0658
1659.00,0.0667
1658.00,0.0673
1657.00,0.0678
1656.00,0.0682
1655.00,0.0687
1654.00,0.0695
1653.00,0.0707
1652.00,0.0716
1651.00,0.0720
1650.00,0.0721
1649.00,0.0721
1648.00,0.0724
1647.00,0.0727
1646.00,0.0729
1645.00,0.0728
1644.00,0.0723
1643.00,0.0715
1642.00,0.0702
1641.00,0.0686
1640.00,0.0670
1639.00,0.0654
1638.00,0.0639
1637.00,0.0625
1636.00,0.0611
1635.00,0.0599
1634.00,0.0589
1633.00,0.0580
1632.00,0.0571
1631.00,0.0560
1630.00,0.0549
1629.00,0.0536
1628.00,0.0525
1627.00,0.0515
1626.00,0.0506
1625.00,0.0498
1624.00,0.0489
1623.00,0.0478
1622.00,0.0464
1621.00,0.0449
1620.00,0.0433
1619.00,0.0415
1618.00,0.0395
1617.00,0.0373
1616.00,0.0353
1615.00,0.0336
1614.00,0.0322
1613.00,0.0310
1612.00,0.0298
1611.00,0.0286
1610.00,0.0275
1609.00,0.0265
1608.00,0.0255
1607.00,0.0246
1606.00,0.0238
1605.00,0.0232
1604.00,0.0226
1603.00,0.0220
1602.00,0.0216
1601.00,0.0212
1600.00,0.0209
1599.00,0.0208
1598.00,0.0207
1597.00,0.0206
1596.00,0.0207
1595.00,0.0208
1594.00,0.0210
1593.00,0.0214
1592.00,0.0219
1591.00,0.0225
1590.00,0.0233
1589.00,0.0241
1588.00,0.0249
1587.00,0.0257
1586.00,0.0264
1585.00,0.0269
1584.00,0.0273
1583.00,0.0275
1582.00,0.0274
1581.00,0.0271
1580.00,0.0265
1579.00,0.0257
1578.00,0.0246
1577.00,0.0232
1576.00,0.0215
1575.00,0.0200
1574.00,0.0188
1573.00,0.0180
1572.00,0.0172
1571.00,0.0164
1570.00,0.0155
1569.00,0.0147
1568.00,0.0140
1567.00,0.0136
1566.00,0.0131
1565.00,0.0127
1564.00,0.0123
1563.00,0.0119
1562.00,0.0115
1561.00,0.0111
1560.00,0.0108
1559.00,0.0106
1558.00,0.0103
1557.00,0.0102
1556.00,0.0102
1555.00,0.0102
1554.00,0.0101
1553.00,0.0100
1552.00,0.0100
1551.00,0.0099
1550.00,0.0099
1549.00,0.0098
1548.00,0.0097
1547.00,0.0096
1546.00,0.0096
1545.00,0.0096
1544.00,0.0095
1543.00,0.0095
1542.00,0.0094
1541.00,0.0094
1540.00,0.0093
1539.00,0.0091
1538.00,0.0091
1537.00,0.0091
1536.00,0.0091
1535.00,0.0090
1534.00,0.0090
1533.00,0.0089
1532.00,0.0088
1531.00,0.0088
1530.00,0.0088
1529.00,0.0088
1528.00,0.0088
1527.00,0.0088
1526.00,0.0088
1525.00,0.0088
1524.00,0.0089
1523.00,0.0090
1522.00,0.0091
1521.00,0.0093
1520.00,0.0096
1519.00,0.0099
1518.00,0.0102
1517.00,0.0106
1516.00,0.0108
1515.00,0.0109
1514.00,0.0109
1513.00,0.0110
1512.00,0.0109
1511.00,0.0109
1510.00,0.0109
1509.00,0.0110
1508.00,0.0112
1507.00,0.0114
1506.00,0.0116
1505.00,0.0120
1504.00,0.0126
1503.00,0.0132
1502.00,0.0138
1501.00,0.0145
1500.00,0.0152
1499.00,0.0160
1498.00,0.0167
1497.00,0.0175
1496.00,0.0181
1495.00,0.0185
1494.00,0.0187
1493.00,0.0187
1492.00,0.0185
1491.00,0.0182
1490.00,0.0177
1489.00,0.0170
1488.00,0.0162
1487.00,0.0154
1486.00,0.0146
1485.00,0.0139
1484.00,0.0133
1483.00,0.0128
1482.00,0.0123
1481.00,0.0121
1480.00,0.0119
1479.00,0.0118
1478.00,0.0118
1477.00,0.0120
1476.00,0.0124
1475.00,0.0129
1474.00,0.0137
1473.00,0.0148
1472.00,0.0164
1471.00,0.0181
1470.00,0.0198
1469.00,0.0218
1468.00,0.0237
1467.00,0.0258
1466.00,0.0280
1465.00,0.0304
1464.00,0.0325
1463.00,0.0341
1462.00,0.0352
1461.00,0.0359
1460.00,0.0361
1459.00,0.0359
1458.00,0.0352
1457.00,0.0340
1456.00,0.0328
1455.00,0.0320
1454.00,0.0317
1453.00,0.0317
1452.00,0.0320
1451.00,0.0326
1450.00,0.0337
1449.00,0.0352
1448.00,0.0372
1447.00,0.0393
1446.00,0.0413
1445.00,0.0433
1444.00,0.0451
1443.00,0.0467
1442.00,0.0482
1441.00,0.0495
1440.00,0.0505
1439.00,0.0512
1438.00,0.0518
1437.00,0.0522
1436.00,0.0524
1435.00,0.0524
1434.00,0.0522
1433.00,0.0520
1432.00,0.0518
1431.00,0.0515
1430.00,0.0513
1429.00,0.0512
1428.00,0.0512
1427.00,0.0514
1426.00,0.0517
1425.00,0.0522
1424.00,0.0527
1423.00,0.0529
1422.00,0.0528
1421.00,0.0522
1420.00,0.0511
1419.00,0.0492
1418.00,0.0469
1417.00,0.0445
1416.00,0.0419
1415.00,0.0392
1414.00,0.0365
1413.00,0.0340
1412.00,0.0315
1411.00,0.0292
1410.00,0.0273
1409.00,0.0256
1408.00,0.0241
1407.00,0.0229
1406.00,0.0218
1405.00,0.0208
1404.00,0.0199
1403.00,0.0191
1402.00,0.0185
1401.00,0.0180
1400.00,0.0175
1399.00,0.0172
1398.00,0.0169
1397.00,0.0166
1396.00,0.0164
1395.00,0.0161
1394.00,0.0160
1393.00,0.0160
1392.00,0.0160
1391.00,0.0161
1390.00,0.0162
1389.00,0.0164
1388.00,0.0167
1387.00,0.0170
1386.00,0.0175
1385.00,0.0180
1384.00,0.0186
1383.00,0.0194
1382.00,0.0203
1381.00,0.0214
1380.00,0.0225
1379.00,0.0238
1378.00,0.0251
1377.00,0.0263
1376.00,0.0272
1375.00,0.0277
1374.00,0.0278
1373.00,0.0275
1372.00,0.0269
1371.00,0.0262
1370.00,0.0256
1369.00,0.0249
1368.00,0.0241
1367.00,0.0233
1366.00,0.0226
1365.00,0.0219
1364.00,0.0212
1363.00,0.0204
1362.00,0.0196
1361.00,0.0189
1360.00,0.0182
1359.00,0.0177
1358.00,0.0173
1357.00,0.0169
1356.00,0.0166
1355.00,0.0163
1354.00,0.0161
1353.00,0.0158
1352.00,0.0156
1351.00,0.0155
1350.00,0.0154
1349.00,0.0154
1348.00,0.0153
1347.00,0.0153
1346.00,0.0154
1345.00,0.0154
1344.00,0.0155
1343.00,0.0156
1342.00,0.0157
1341.00,0.0158
1340.00,0.0158
1339.00,0.0157
1338.00,0.0156
1337.00,0.0155
1336.00,0.0155
1335.00,0.0156
1334.00,0.0159
1333.00,0.0162
1332.00,0.0166
1331.00,0.0170
1330.00,0.0176
1329.00,0.0182
1328.00,0.0189
1327.00,0.0196
1326.00,0.0204
1325.00,0.0213
1324.00,0.0221
1323.00,0.0228
1322.00,0.0234
1321.00,0.0240
1320.00,0.0244
1319.00,0.0248
1318.00,0.0252
1317.00,0.0256
1316.00,0.0260
1315.00,0.0264
1314.00,0.0267
1313.00,0.0269
1312.00,0.0268
1311.00,0.0266
1310.00,0.0262
1309.00,0.0257
1308.00,0.0253
1307.00,0.0251
1306.00,0.0251
1305.00,0.0253
1304.00,0.0258
1303.00,0.0265
1302.00,0.0274
1301.00,0.0285
1300.00,0.0297
1299.00,0.0313
1298.00,0.0332
1297.00,0.0353
1296.00,0.0377
1295.00,0.0403
1294.00,0.0429
1293.00,0.0456
1292.00,0.0481
1291.00,0.0505
1290.00,0.0527
1289.00,0.0545
1288.00,0.0560
1287.00,0.0571
1286.00,0.0578
1285.00,0.0581
1284.00,0.0581
1283.00,0.0578
1282.00,0.0573
1281.00,0.0567
1280.00,0.0562
1279.00,0.0558
1278.00,0.0556
1277.00,0.0556
1276.00,0.0557
1275.00,0.0558
1274.00,0.0559
1273.00,0.0559
1272.00,0.0557
1271.00,0.0552
1270.00,0.0544
1269.00,0.0533
1268.00,0.0520
1267.00,0.0505
1266.00,0.0489
1265.00,0.0472
1264.00,0.0455
1263.00,0.0438
1262.00,0.0422
1261.00,0.0406
1260.00,0.0391
1259.00,0.0377
1258.00,0.0364
1257.00,0.0354
1256.00,0.0344
1255.00,0.0335
1254.00,0.0328
1253.00,0.0322
1252.00,0.0317
1251.00,0.0313
1250.00,0.0310
1249.00,0.0308
1248.00,0.0305
1247.00,0.0302
1246.00,0.0300
1245.00,0.0300
1244.00,0.0301
1243.00,0.0304
1242.00,0.0309
1241.00,0.0315
1240.00,0.0323
1239.00,0.0331
1238.00,0.0338
1237.00,0.0344
1236.00,0.0347
1235.00,0.0349
1234.00,0.0350
1233.00,0.0349
1232.00,0.0348
1231.00,0.0346
1230.00,0.0345
1229.00,0.0345
1228.00,0.0347
1227.00,0.0350
1226.00,0.0355
1225.00,0.0361
1224.00,0.0367
1223.00,0.0373
1222.00,0.0380
1221.00,0.0388
1220.00,0.0398
1219.00,0.0409
1218.00,0.0422
1217.00,0.0433
1216.00,0.0440
1215.00,0.0443
1214.00,0.0441
1213.00,0.0433
1212.00,0.0421
1211.00,0.0406
1210.00,0.0391
1209.00,0.0375
1208.00,0.0360
1207.00,0.0347
1206.00,0.0335
1205.00,0.0324
1204.00,0.0313
1203.00,0.0302
1202.00,0.0292
1201.00,0.0281
1200.00,0.0271
1199.00,0.0261
1198.00,0.0253
1197.00,0.0246
1196.00,0.0240
1195.00,0.0235
1194.00,0.0232
1193.00,0.0229
1192.00,0.0227
1191.00,0.0226
1190.00,0.0226
1189.00,0.0227
1188.00,0.0227
1187.00,0.0228
1186.00,0.0229
1185.00,0.0230
1184.00,0.0231
1183.00,0.0233
1182.00,0.0235
1181.00,0.0236
1180.00,0.0238
1179.00,0.0240
1178.00,0.0243
1177.00,0.0247
1176.00,0.0250
1175.00,0.0255
1174.00,0.0261
1173.00,0.0267
1172.00,0.0271
1171.00,0.0272
1170.00,0.0269
1169.00,0.0263
1168.00,0.0256
1167.00,0.0250
1166.00,0.0244
1165.00,0.0239
1164.00,0.0234
1163.00,0.0230
1162.00,0.0226
1161.00,0.0222
1160.00,0.0218
1159.00,0.0215
1158.00,0.0214
1157.00,0.0213
1156.00,0.0214
1155.00,0.0218
1154.00,0.0224
1153.00,0.0231
1152.00,0.0238
1151.00,0.0242
1150.00,0.0240
1149.00,0.0233
1148.00,0.0221
1147.00,0.0208
1146.00,0.0196
1145.00,0.0186
1144.00,0.0179
1143.00,0.0173
1142.00,0.0170
1141.00,0.0167
1140.00,0.0166
1139.00,0.0165
1138.00,0.0165
1137.00,0.0166
1136.00,0.0167
1135.00,0.0167
1134.00,0.0168
1133.00,0.0168
1132.00,0.0167
1131.00,0.0166
1130.00,0.0165
1129.00,0.0164
1128.00,0.0163
1127.00,0.0162
1126.00,0.0161
1125.00,0.0159
1124.00,0.0158
1123.00,0.0156
1122.00,0.0156
1121.00,0.0156
1120.00,0.0155
1119.00,0.0156
1118.00,0.0157
1117.00,0.0158
1116.00,0.0158
1115.00,0.0159
1114.00,0.0161
1113.00,0.0162
1112.00,0.0163
1111.00,0.0165
1110.00,0.0166
1109.00,0.0168
1108.00,0.0169
1107.00,0.0171
1106.00,0.0173
1105.00,0.0175
1104.00,0.0176
1103.00,0.0178
1102.00,0.0180
1101.00,0.0183
1100.00,0.0184
1099.00,0.0185
1098.00,0.0185
1097.00,0.0183
1096.00,0.0180
1095.00,0.0177
1094.00,0.0174
1093.00,0.0172
1092.00,0.0170
1091.00,0.0169
1090.00,0.0167
1089.00,0.0166
1088.00,0.0165
1087.00,0.0165
1086.00,0.0166
1085.00,0.0167
1084.00,0.0170
1083.00,0.0173
1082.00,0.0177
1081.00,0.0181
1080.00,0.0183
1079.00,0.0185
1078.00,0.0185
1077.00,0.0184
1076.00,0.0183
1075.00,0.0181
1074.00,0.0179
1073.00,0.0177
1072.00,0.0175
1071.00,0.0173
1070.00,0.0172
1069.00,0.0171
1068.00,0.0169
1067.00,0.0167
1066.00,0.0167
1065.00,0.0166
1064.00,0.0166
1063.00,0.0167
1062.00,0.0169
1061.00,0.0172
1060.00,0.0176
1059.00,0.0181
1058.00,0.0188
1057.00,0.0197
1056.00,0.0207
1055.00,0.0217
1054.00,0.0226
1053.00,0.0232
1052.00,0.0234
1051.00,0.0233
1050.00,0.0229
1049.00,0.0222
1048.00,0.0214
1047.00,0.0205
1046.00,0.0197
1045.00,0.0192
1044.00,0.0188
1043.00,0.0187
1042.00,0.0188
1041.00,0.0190
1040.00,0.0194
1039.00,0.0199
1038.00,0.0206
1037.00,0.0215
1036.00,0.0226
1035.00,0.0238
1034.00,0.0251
1033.00,0.0262
1032.00,0.0269
1031.00,0.0271
1030.00,0.0269
1029.00,0.0264
1028.00,0.0259
1027.00,0.0253
1026.00,0.0251
1025.00,0.0251
1024.00,0.0255
1023.00,0.0262
1022.00,0.0273
1021.00,0.0284
1020.00,0.0294
1019.00,0.0299
1018.00,0.0298
1017.00,0.0292
1016.00,0.0281
1015.00,0.0269
1014.00,0.0257
1013.00,0.0245
1012.00,0.0235
1011.00,0.0226
1010.00,0.0221
1009.00,0.0218
1008.00,0.0217
1007.00,0.0219
1006.00,0.0223
1005.00,0.0228
1004.00,0.0233
1003.00,0.0236
1002.00,0.0239
1001.00,0.0237
1000.00,0.0233
999.00,0.0225
998.00,0.0216
997.00,0.0207
996.00,0.0197
995.00,0.0189
994.00,0.0183
993.00,0.0179
992.00,0.0176
991.00,0.0174
990.00,0.0174
989.00,0.0174
988.00,0.0174
987.00,0.0174
986.00,0.0174
985.00,0.0173
984.00,0.0171
983.00,0.0167
982.00,0.0164
981.00,0.0161
980.00,0.0157
979.00,0.0155
978.00,0.0153
977.00,0.0152
976.00,0.0150
975.00,0.0149
974.00,0.0147
973.00,0.0146
972.00,0.0145
971.00,0.0146
970.00,0.0147
969.00,0.0150
968.00,0.0152
967.00,0.0153
966.00,0.0156
965.00,0.0159
964.00,0.0163
963.00,0.0168
962.00,0.0172
961.00,0.0175
960.00,0.0176
959.00,0.0175
958.00,0.0174
957.00,0.0172
956.00,0.0169
955.00,0.0166
954.00,0.0164
953.00,0.0161
952.00,0.0158
951.00,0.0154
950.00,0.0151
949.00,0.0147
948.00,0.0143
947.00,0.0140
946.00,0.0137
945.00,0.0135
944.00,0.0133
943.00,0.0132
942.00,0.0132
941.00,0.0132
940.00,0.0133
939.00,0.0135
938.00,0.0138
937.00,0.0142
936.00,0.0144
935.00,0.0147
934.00,0.0149
933.00,0.0150
932.00,0.0149
931.00,0.0147
930.00,0.0145
929.00,0.0144
928.00,0.0142
927.00,0.0140
926.00,0.0139
925.00,0.0138
924.00,0.0136
923.00,0.0135
922.00,0.0134
921.00,0.0134
920.00,0.0133
919.00,0.0134
918.00,0.0135
917.00,0.0135
916.00,0.0136
915.00,0.0136
914.00,0.0136
913.00,0.0136
912.00,0.0135
911.00,0.0135
910.00,0.0137
909.00,0.0138
908.00,0.0141
907.00,0.0144
906.00,0.0150
905.00,0.0156
904.00,0.0164
903.00,0.0172
902.00,0.0183
901.00,0.0195
900.00,0.0209
899.00,0.0225
898.00,0.0239
897.00,0.0250
896.00,0.0254
895.00,0.0251
894.00,0.0244
893.00,0.0234
892.00,0.0223
891.00,0.0214
890.00,0.0209
889.00,0.0207
888.00,0.0211
887.00,0.0220
886.00,0.0233
885.00,0.0249
884.00,0.0260
883.00,0.0264
882.00,0.0259
881.00,0.0246
880.00,0.0229
879.00,0.0212
878.00,0.0198
877.00,0.0188
876.00,0.0181
875.00,0.0177
874.00,0.0175
873.00,0.0176
872.00,0.0177
871.00,0.0180
870.00,0.0183
869.00,0.0184
868.00,0.0184
867.00,0.0184
866.00,0.0186
865.00,0.0190
864.00,0.0196
863.00,0.0203
862.00,0.0209
861.00,0.0214
860.00,0.0217
859.00,0.0219
858.00,0.0223
857.00,0.0228
856.00,0.0233
855.00,0.0240
854.00,0.0248
853.00,0.0255
852.00,0.0261
851.00,0.0266
850.00,0.0269
849.00,0.0271
848.00,0.0270
847.00,0.0269
846.00,0.0268
845.00,0.0267
844.00,0.0266
843.00,0.0265
842.00,0.0263
841.00,0.0261
840.00,0.0257
839.00,0.0254
838.00,0.0252
837.00,0.0251
836.00,0.0250
835.00,0.0250
834.00,0.0251
833.00,0.0253
832.00,0.0254
831.00,0.0255
830.00,0.0257
829.00,0.0257
828.00,0.0255
827.00,0.0252
826.00,0.0249
825.00,0.0243
824.00,0.0236
823.00,0.0228
822.00,0.0222
821.00,0.0215
820.00,0.0208
819.00,0.0202
818.00,0.0198
817.00,0.0194
816.00,0.0190
815.00,0.0186
814.00,0.0184
813.00,0.0181
812.00,0.0179
811.00,0.0177
810.00,0.0178
809.00,0.0180
808.00,0.0185
807.00,0.0193
806.00,0.0203
805.00,0.0211
804.00,0.0213
803.00,0.0210
802.00,0.0204
801.00,0.0196
800.00,0.0189
799.00,0.0182
798.00,0.0179
797.00,0.0176
796.00,0.0175
795.00,0.0174
794.00,0.0174
793.00,0.0174
792.00,0.0174
791.00,0.0173
790.00,0.0173
789.00,0.0173
788.00,0.0172
787.00,0.0172
786.00,0.0173
785.00,0.0174
784.00,0.0173
783.00,0.0172
782.00,0.0172
781.00,0.0172
780.00,0.0172
779.00,0.0173
778.00,0.0174
777.00,0.0175
776.00,0.0175
775.00,0.0175
774.00,0.0177
773.00,0.0179
772.00,0.0180
771.00,0.0182
770.00,0.0184
769.00,0.0185
768.00,0.0185
767.00,0.0186
766.00,0.0187
765.00,0.0188
764.00,0.0189
763.00,0.0190
762.00,0.0193
761.00,0.0196
760.00,0.0198
759.00,0.0201
758.00,0.0205
757.00,0.0209
756.00,0.0213
755.00,0.0217
754.00,0.0223
753.00,0.0229
752.00,0.0233
751.00,0.0237
750.00,0.0241
749.00,0.0245
748.00,0.0248
747.00,0.0250
746.00,0.0251
745.00,0.0252
744.00,0.0252
743.00,0.0252
742.00,0.0254
741.00,0.0256
740.00,0.0258
739.00,0.0261
738.00,0.0264
737.00,0.0267
736.00,0.0270
735.00,0.0274
734.00,0.0277
733.00,0.0280
732.00,0.0282
731.00,0.0281
730.00,0.0280
729.00,0.0277
728.00,0.0272
727.00,0.0267
726.00,0.0263
725.00,0.0258
724.00,0.0254
723.00,0.0250
722.00,0.0248
721.00,0.0245
720.00,0.0243
719.00,0.0241
718.00,0.0240
717.00,0.0239
716.00,0.0238
715.00,0.0237
714.00,0.0237
713.00,0.0237
712.00,0.0237
711.00,0.0236
710.00,0.0236
709.00,0.0237
708.00,0.0236
707.00,0.0236
706.00,0.0237
705.00,0.0237
704.00,0.0238
703.00,0.0238
702.00,0.0239
701.00,0.0240
700.00,0.0241
699.00,0.0242
698.00,0.0244
697.00,0.0246
696.00,0.0247
695.00,0.0249
694.00,0.0252
693.00,0.0254
692.00,0.0256
691.00,0.0258
690.00,0.0260
689.00,0.0263
688.00,0.0264
687.00,0.0267
686.00,0.0270
685.00,0.0274
684.00,0.0277
683.00,0.0279
682.00,0.0282
681.00,0.0285
680.00,0.0287
679.00,0.0289
678.00,0.0293
677.00,0.0297
676.00,0.0300
675.00,0.0303
674.00,0.0308
673.00,0.0312
672.00,0.0315
671.00,0.0318
670.00,0.0323
669.00,0.0329
668.00,0.0337
667.00,0.0344
666.00,0.0350
665.00,0.0354
664.00,0.0358
663.00,0.0363
662.00,0.0369
661.00,0.0375
660.00,0.0380
659.00,0.0386
658.00,0.0393
657.00,0.0399
656.00,0.0405
655.00,0.0410
654.00,0.0417
653.00,0.0423
652.00,0.0429
651.00,0.0435
650.00,0.0441
649.00,0.0446
648.00,0.0447
647.00,0.0448
646.00,0.0447
645.00,0.0444
644.00,0.0440
643.00,0.0435
642.00,0.0431
641.00,0.0427
640.00,0.0422
639.00,0.0418
638.00,0.0415
637.00,0.0412
636.00,0.0408
635.00,0.0404
634.00,0.0402
633.00,0.0400
632.00,0.0399
631.00,0.0397
630.00,0.0397
629.00,0.0397
628.00,0.0395
627.00,0.0394
626.00,0.0394
625.00,0.0394
624.00,0.0392
623.00,0.0391
622.00,0.0390
621.00,0.0388
620.00,0.0386
619.00,0.0384
618.00,0.0383
617.00,0.0383
616.00,0.0382
615.00,0.0384
614.00,0.0387
613.00,0.0392
612.00,0.0395
611.00,0.0398
610.00,0.0399
609.00,0.0399
608.00,0.0397
607.00,0.0397
606.00,0.0398
605.00,0.0400
604.00,0.0401
603.00,0.0403
602.00,0.0406
601.00,0.0409
600.00,0.0411
599.00,0.0412
598.00,0.0414
597.00,0.0416
596.00,0.0417
595.00,0.0419
594.00,0.0424
593.00,0.0429
592.00,0.0434
591.00,0.0439
590.00,0.0446
589.00,0.0453
588.00,0.0459
587.00,0.0464
586.00,0.0469
585.00,0.0473
584.00,0.0475
583.00,0.0478
582.00,0.0482
581.00,0.0486
580.00,0.0489
579.00,0.0492
578.00,0.0497
577.00,0.0501
576.00,0.0503
575.00,0.0506
574.00,0.0509
573.00,0.0512
572.00,0.0512
571.00,0.0513
570.00,0.0514
569.00,0.0515
568.00,0.0514
567.00,0.0512
566.00,0.0511
565.00,0.0509
564.00,0.0505
563.00,0.0501
562.00,0.0499
561.00,0.0497
560.00,0.0493
559.00,0.0490
558.00,0.0488
557.00,0.0487
556.00,0.0485
555.00,0.0485
554.00,0.0486
553.00,0.0486
552.00,0.0484
551.00,0.0481
550.00,0.0481
549.00,0.0481
548.00,0.0480
547.00,0.0480
546.00,0.0481
545.00,0.0482
544.00,0.0481
543.00,0.0479
542.00,0.0478
541.00,0.0479
540.00,0.0479
539.00,0.0482
538.00,0.0487
537.00,0.0491
536.00,0.0493
535.00,0.0493
534.00,0.0494
533.00,0.0494
532.00,0.0491
531.00,0.0488
530.00,0.0487
529.00,0.0486
528.00,0.0486
527.00,0.0488
526.00,0.0495
525.00,0.0502
524.00,0.0506
523.00,0.0511
522.00,0.0516
521.00,0.0517
520.00,0.0510
519.00,0.0499
518.00,0.0489
517.00,0.0481
516.00,0.0473
515.00,0.0469
514.00,0.0468
513.00,0.0467
512.00,0.0465
511.00,0.0463
510.00,0.0465
509.00,0.0468
508.00,0.0470
507.00,0.0472
506.00,0.0478
505.00,0.0483
504.00,0.0486
503.00,0.0490
502.00,0.0498
501.00,0.0505
500.00,0.0508
499.00,0.0511
498.00,0.0516
497.00,0.0520
496.00,0.0520
495.00,0.0521
494.00,0.0524
493.00,0.0525
492.00,0.0523
491.00,0.0521
490.00,0.0522
489.00,0.0523
488.00,0.0521
487.00,0.0519
486.00,0.0521
485.00,0.0523
484.00,0.0521
483.00,0.0519
482.00,0.0520
481.00,0.0519
480.00,0.0514
479.00,0.0509
478.00,0.0508
477.00,0.0508
476.00,0.0505
475.00,0.0504
474.00,0.0508
473.00,0.0513
472.00,0.0515
471.00,0.0516
470.00,0.0520
469.00,0.0521
468.00,0.0518
467.00,0.0516
466.00,0.0517
465.00,0.0518
464.00,0.0515
463.00,0.0515
462.00,0.0519
461.00,0.0523
460.00,0.0520
459.00,0.0517
458.00,0.0517
457.00,0.0515
456.00,0.0509
455.00,0.0505
454.00,0.0505
453.00,0.0503
452.00,0.0497
451.00,0.0493
450.00,0.0495
449.00,0.0498
448.00,0.0495
447.00,0.0493
446.00,0.0494
445.00,0.0493
444.00,0.0485
443.00,0.0477
442.00,0.0474
441.00,0.0474
440.00,0.0471
439.00,0.0472
438.00,0.0477
437.00,0.0479
436.00,0.0472
435.00,0.0465
434.00,0.0467
433.00,0.0470
432.00,0.0471
431.00,0.0474
430.00,0.0485
429.00,0.0494
428.00,0.0498
427.00,0.0502
426.00,0.0511
425.00,0.0517
424.00,0.0512
423.00,0.0504
422.00,0.0503
421.00,0.0501
420.00,0.0494
419.00,0.0490
418.00,0.0497
417.00,0.0497
416.00,0.0484
415.00,0.0474
414.00,0.0477
413.00,0.0481
412.00,0.0475
411.00,0.0471
410.00,0.0479
409.00,0.0489
408.00,0.0487
407.00,0.0484
406.00,0.0489
405.00,0.0489
404.00,0.0480
403.00,0.0478
402.00,0.0494
401.00,0.0506
400.00,0.0495
