Created as New Dataset,Sample 013 By YargerLab Date Thursday, August 07 2025
cm-1,A
4000.00,0.0007
3999.00,0.0007
3998.00,0.0007
3997.00,0.0007
3996.00,0.0007
3995.00,0.0007
3994.00,0.0007
3993.00,0.0006
3992.00,0.0006
3991.00,0.0006
3990.00,0.0006
3989.00,0.0006
3988.00,0.0006
3987.00,0.0006
3986.00,0.0006
3985.00,0.0006
3984.00,0.0006
3983.00,0.0006
3982.00,0.0006
3981.00,0.0006
3980.00,0.0006
3979.00,0.0006
3978.00,0.0006
3977.00,0.0007
3976.00,0.0007
3975.00,0.0007
3974.00,0.0006
3973.00,0.0006
3972.00,0.0006
3971.00,0.0006
3970.00,0.0006
3969.00,0.0006
3968.00,0.0006
3967.00,0.0006
3966.00,0.0007
3965.00,0.0007
3964.00,0.0007
3963.00,0.0007
3962.00,0.0007
3961.00,0.0007
3960.00,0.0007
3959.00,0.0007
3958.00,0.0006
3957.00,0.0006
3956.00,0.0006
3955.00,0.0006
3954.00,0.0006
3953.00,0.0007
3952.00,0.0007
3951.00,0.0007
3950.00,0.0007
3949.00,0.0007
3948.00,0.0007
3947.00,0.0007
3946.00,0.0006
3945.00,0.0006
3944.00,0.0006
3943.00,0.0006
3942.00,0.0006
3941.00,0.0006
3940.00,0.0006
3939.00,0.0006
3938.00,0.0006
3937.00,0.0007
3936.00,0.0007
3935.00,0.0007
3934.00,0.0007
3933.00,0.0007
3932.00,0.0007
3931.00,0.0007
3930.00,0.0007
3929.00,0.0007
3928.00,0.0007
3927.00,0.0007
3926.00,0.0007
3925.00,0.0007
3924.00,0.0006
3923.00,0.0006
3922.00,0.0006
3921.00,0.0007
3920.00,0.0007
3919.00,0.0007
3918.00,0.0007
3917.00,0.0007
3916.00,0.0007
3915.00,0.0007
3914.00,0.0007
3913.00,0.0007
3912.00,0.0006
3911.00,0.0006
3910.00,0.0006
3909.00,0.0006
3908.00,0.0007
3907.00,0.0007
3906.00,0.0007
3905.00,0.0007
3904.00,0.0008
3903.00,0.0008
3902.00,0.0008
3901.00,0.0008
3900.00,0.0008
3899.00,0.0008
3898.00,0.0007
3897.00,0.0007
3896.00,0.0007
3895.00,0.0007
3894.00,0.0008
3893.00,0.0008
3892.00,0.0007
3891.00,0.0007
3890.00,0.0007
3889.00,0.0008
3888.00,0.0008
3887.00,0.0008
3886.00,0.0008
3885.00,0.0008
3884.00,0.0007
3883.00,0.0007
3882.00,0.0007
3881.00,0.0007
3880.00,0.0007
3879.00,0.0007
3878.00,0.0007
3877.00,0.0007
3876.00,0.0007
3875.00,0.0007
3874.00,0.0007
3873.00,0.0008
3872.00,0.0008
3871.00,0.0008
3870.00,0.0009
3869.00,0.0009
3868.00,0.0009
3867.00,0.0009
3866.00,0.0009
3865.00,0.0008
3864.00,0.0008
3863.00,0.0008
3862.00,0.0008
3861.00,0.0008
3860.00,0.0008
3859.00,0.0008
3858.00,0.0008
3857.00,0.0009
3856.00,0.0009
3855.00,0.0010
3854.00,0.0010
3853.00,0.0010
3852.00,0.0010
3851.00,0.0010
3850.00,0.0010
3849.00,0.0009
3848.00,0.0009
3847.00,0.0008
3846.00,0.0008
3845.00,0.0007
3844.00,0.0007
3843.00,0.0008
3842.00,0.0008
3841.00,0.0008
3840.00,0.0009
3839.00,0.0009
3838.00,0.0009
3837.00,0.0009
3836.00,0.0009
3835.00,0.0009
3834.00,0.0009
3833.00,0.0009
3832.00,0.0009
3831.00,0.0009
3830.00,0.0009
3829.00,0.0009
3828.00,0.0009
3827.00,0.0008
3826.00,0.0008
3825.00,0.0008
3824.00,0.0008
3823.00,0.0008
3822.00,0.0009
3821.00,0.0009
3820.00,0.0009
3819.00,0.0010
3818.00,0.0010
3817.00,0.0010
3816.00,0.0010
3815.00,0.0010
3814.00,0.0009
3813.00,0.0009
3812.00,0.0009
3811.00,0.0009
3810.00,0.0009
3809.00,0.0009
3808.00,0.0009
3807.00,0.0009
3806.00,0.0009
3805.00,0.0009
3804.00,0.0010
3803.00,0.0010
3802.00,0.0010
3801.00,0.0010
3800.00,0.0010
3799.00,0.0010
3798.00,0.0010
3797.00,0.0010
3796.00,0.0009
3795.00,0.0009
3794.00,0.0009
3793.00,0.0008
3792.00,0.0008
3791.00,0.0008
3790.00,0.0008
3789.00,0.0008
3788.00,0.0008
3787.00,0.0008
3786.00,0.0008
3785.00,0.0008
3784.00,0.0008
3783.00,0.0008
3782.00,0.0008
3781.00,0.0008
3780.00,0.0008
3779.00,0.0008
3778.00,0.0008
3777.00,0.0008
3776.00,0.0008
3775.00,0.0008
3774.00,0.0008
3773.00,0.0008
3772.00,0.0009
3771.00,0.0009
3770.00,0.0009
3769.00,0.0009
3768.00,0.0009
3767.00,0.0008
3766.00,0.0008
3765.00,0.0008
3764.00,0.0008
3763.00,0.0009
3762.00,0.0009
3761.00,0.0009
3760.00,0.0009
3759.00,0.0009
3758.00,0.0009
3757.00,0.0009
3756.00,0.0009
3755.00,0.0009
3754.00,0.0010
3753.00,0.0010
3752.00,0.0011
3751.00,0.0011
3750.00,0.0011
3749.00,0.0011
3748.00,0.0011
3747.00,0.0011
3746.00,0.0011
3745.00,0.0011
3744.00,0.0010
3743.00,0.0010
3742.00,0.0010
3741.00,0.0010
3740.00,0.0010
3739.00,0.0010
3738.00,0.0010
3737.00,0.0010
3736.00,0.0010
3735.00,0.0010
3734.00,0.0010
3733.00,0.0010
3732.00,0.0010
3731.00,0.0010
3730.00,0.0010
3729.00,0.0010
3728.00,0.0009
3727.00,0.0009
3726.00,0.0009
3725.00,0.0009
3724.00,0.0008
3723.00,0.0008
3722.00,0.0008
3721.00,0.0007
3720.00,0.0007
3719.00,0.0007
3718.00,0.0007
3717.00,0.0007
3716.00,0.0007
3715.00,0.0008
3714.00,0.0008
3713.00,0.0008
3712.00,0.0009
3711.00,0.0009
3710.00,0.0009
3709.00,0.0009
3708.00,0.0008
3707.00,0.0008
3706.00,0.0008
3705.00,0.0008
3704.00,0.0008
3703.00,0.0008
3702.00,0.0008
3701.00,0.0008
3700.00,0.0007
3699.00,0.0007
3698.00,0.0007
3697.00,0.0007
3696.00,0.0007
3695.00,0.0007
3694.00,0.0008
3693.00,0.0008
3692.00,0.0009
3691.00,0.0009
3690.00,0.0009
3689.00,0.0009
3688.00,0.0009
3687.00,0.0008
3686.00,0.0008
3685.00,0.0008
3684.00,0.0008
3683.00,0.0007
3682.00,0.0007
3681.00,0.0007
3680.00,0.0007
3679.00,0.0008
3678.00,0.0008
3677.00,0.0009
3676.00,0.0009
3675.00,0.0009
3674.00,0.0009
3673.00,0.0010
3672.00,0.0010
3671.00,0.0009
3670.00,0.0009
3669.00,0.0009
3668.00,0.0009
3667.00,0.0009
3666.00,0.0009
3665.00,0.0008
3664.00,0.0008
3663.00,0.0007
3662.00,0.0007
3661.00,0.0007
3660.00,0.0008
3659.00,0.0008
3658.00,0.0008
3657.00,0.0008
3656.00,0.0008
3655.00,0.0008
3654.00,0.0008
3653.00,0.0009
3652.00,0.0009
3651.00,0.0009
3650.00,0.0009
3649.00,0.0009
3648.00,0.0009
3647.00,0.0009
3646.00,0.0009
3645.00,0.0009
3644.00,0.0008
3643.00,0.0008
3642.00,0.0007
3641.00,0.0007
3640.00,0.0007
3639.00,0.0007
3638.00,0.0007
3637.00,0.0007
3636.00,0.0007
3635.00,0.0007
3634.00,0.0007
3633.00,0.0007
3632.00,0.0007
3631.00,0.0007
3630.00,0.0007
3629.00,0.0007
3628.00,0.0007
3627.00,0.0007
3626.00,0.0008
3625.00,0.0008
3624.00,0.0008
3623.00,0.0008
3622.00,0.0007
3621.00,0.0007
3620.00,0.0006
3619.00,0.0007
3618.00,0.0007
3617.00,0.0007
3616.00,0.0008
3615.00,0.0008
3614.00,0.0007
3613.00,0.0007
3612.00,0.0007
3611.00,0.0007
3610.00,0.0007
3609.00,0.0007
3608.00,0.0006
3607.00,0.0006
3606.00,0.0006
3605.00,0.0006
3604.00,0.0006
3603.00,0.0006
3602.00,0.0006
3601.00,0.0006
3600.00,0.0006
3599.00,0.0006
3598.00,0.0006
3597.00,0.0006
3596.00,0.0005
3595.00,0.0005
3594.00,0.0005
3593.00,0.0005
3592.00,0.0005
3591.00,0.0006
3590.00,0.0006
3589.00,0.0006
3588.00,0.0006
3587.00,0.0006
3586.00,0.0006
3585.00,0.0006
3584.00,0.0006
3583.00,0.0006
3582.00,0.0006
3581.00,0.0006
3580.00,0.0006
3579.00,0.0006
3578.00,0.0006
3577.00,0.0006
3576.00,0.0006
3575.00,0.0006
3574.00,0.0006
3573.00,0.0006
3572.00,0.0006
3571.00,0.0006
3570.00,0.0007
3569.00,0.0007
3568.00,0.0007
3567.00,0.0007
3566.00,0.0007
3565.00,0.0007
3564.00,0.0007
3563.00,0.0006
3562.00,0.0006
3561.00,0.0006
3560.00,0.0006
3559.00,0.0006
3558.00,0.0006
3557.00,0.0006
3556.00,0.0006
3555.00,0.0006
3554.00,0.0006
3553.00,0.0006
3552.00,0.0006
3551.00,0.0006
3550.00,0.0006
3549.00,0.0007
3548.00,0.0007
3547.00,0.0007
3546.00,0.0006
3545.00,0.0006
3544.00,0.0006
3543.00,0.0006
3542.00,0.0006
3541.00,0.0007
3540.00,0.0007
3539.00,0.0007
3538.00,0.0008
3537.00,0.0008
3536.00,0.0008
3535.00,0.0008
3534.00,0.0007
3533.00,0.0007
3532.00,0.0007
3531.00,0.0007
3530.00,0.0007
3529.00,0.0008
3528.00,0.0008
3527.00,0.0008
3526.00,0.0008
3525.00,0.0008
3524.00,0.0008
3523.00,0.0008
3522.00,0.0008
3521.00,0.0008
3520.00,0.0008
3519.00,0.0008
3518.00,0.0008
3517.00,0.0008
3516.00,0.0008
3515.00,0.0008
3514.00,0.0008
3513.00,0.0008
3512.00,0.0008
3511.00,0.0008
3510.00,0.0008
3509.00,0.0008
3508.00,0.0009
3507.00,0.0009
3506.00,0.0009
3505.00,0.0009
3504.00,0.0008
3503.00,0.0008
3502.00,0.0008
3501.00,0.0008
3500.00,0.0008
3499.00,0.0008
3498.00,0.0008
3497.00,0.0008
3496.00,0.0008
3495.00,0.0008
3494.00,0.0008
3493.00,0.0008
3492.00,0.0008
3491.00,0.0008
3490.00,0.0008
3489.00,0.0008
3488.00,0.0008
3487.00,0.0008
3486.00,0.0008
3485.00,0.0008
3484.00,0.0008
3483.00,0.0008
3482.00,0.0008
3481.00,0.0008
3480.00,0.0008
3479.00,0.0008
3478.00,0.0008
3477.00,0.0008
3476.00,0.0008
3475.00,0.0008
3474.00,0.0009
3473.00,0.0009
3472.00,0.0009
3471.00,0.0008
3470.00,0.0008
3469.00,0.0008
3468.00,0.0008
3467.00,0.0008
3466.00,0.0008
3465.00,0.0008
3464.00,0.0008
3463.00,0.0008
3462.00,0.0008
3461.00,0.0008
3460.00,0.0008
3459.00,0.0008
3458.00,0.0008
3457.00,0.0008
3456.00,0.0008
3455.00,0.0008
3454.00,0.0008
3453.00,0.0008
3452.00,0.0008
3451.00,0.0008
3450.00,0.0008
3449.00,0.0008
3448.00,0.0008
3447.00,0.0009
3446.00,0.0009
3445.00,0.0009
3444.00,0.0009
3443.00,0.0009
3442.00,0.0008
3441.00,0.0008
3440.00,0.0009
3439.00,0.0009
3438.00,0.0008
3437.00,0.0008
3436.00,0.0008
3435.00,0.0008
3434.00,0.0008
3433.00,0.0008
3432.00,0.0008
3431.00,0.0008
3430.00,0.0009
3429.00,0.0009
3428.00,0.0009
3427.00,0.0009
3426.00,0.0009
3425.00,0.0008
3424.00,0.0008
3423.00,0.0009
3422.00,0.0009
3421.00,0.0009
3420.00,0.0009
3419.00,0.0009
3418.00,0.0008
3417.00,0.0008
3416.00,0.0008
3415.00,0.0008
3414.00,0.0008
3413.00,0.0009
3412.00,0.0009
3411.00,0.0009
3410.00,0.0008
3409.00,0.0008
3408.00,0.0008
3407.00,0.0008
3406.00,0.0008
3405.00,0.0008
3404.00,0.0008
3403.00,0.0008
3402.00,0.0009
3401.00,0.0009
3400.00,0.0009
3399.00,0.0009
3398.00,0.0008
3397.00,0.0008
3396.00,0.0008
3395.00,0.0008
3394.00,0.0008
3393.00,0.0009
3392.00,0.0009
3391.00,0.0009
3390.00,0.0009
3389.00,0.0009
3388.00,0.0009
3387.00,0.0009
3386.00,0.0009
3385.00,0.0008
3384.00,0.0008
3383.00,0.0008
3382.00,0.0008
3381.00,0.0008
3380.00,0.0008
3379.00,0.0008
3378.00,0.0008
3377.00,0.0008
3376.00,0.0008
3375.00,0.0009
3374.00,0.0009
3373.00,0.0009
3372.00,0.0009
3371.00,0.0009
3370.00,0.0009
3369.00,0.0009
3368.00,0.0009
3367.00,0.0009
3366.00,0.0009
3365.00,0.0009
3364.00,0.0008
3363.00,0.0008
3362.00,0.0008
3361.00,0.0008
3360.00,0.0009
3359.00,0.0009
3358.00,0.0009
3357.00,0.0009
3356.00,0.0009
3355.00,0.0009
3354.00,0.0009
3353.00,0.0009
3352.00,0.0009
3351.00,0.0009
3350.00,0.0009
3349.00,0.0008
3348.00,0.0008
3347.00,0.0008
3346.00,0.0008
3345.00,0.0008
3344.00,0.0008
3343.00,0.0009
3342.00,0.0009
3341.00,0.0009
3340.00,0.0009
3339.00,0.0009
3338.00,0.0009
3337.00,0.0009
3336.00,0.0009
3335.00,0.0008
3334.00,0.0008
3333.00,0.0008
3332.00,0.0008
3331.00,0.0008
3330.00,0.0008
3329.00,0.0008
3328.00,0.0008
3327.00,0.0008
3326.00,0.0008
3325.00,0.0008
3324.00,0.0008
3323.00,0.0008
3322.00,0.0008
3321.00,0.0008
3320.00,0.0008
3319.00,0.0008
3318.00,0.0009
3317.00,0.0009
3316.00,0.0009
3315.00,0.0008
3314.00,0.0008
3313.00,0.0008
3312.00,0.0008
3311.00,0.0008
3310.00,0.0008
3309.00,0.0008
3308.00,0.0008
3307.00,0.0008
3306.00,0.0008
3305.00,0.0008
3304.00,0.0008
3303.00,0.0008
3302.00,0.0008
3301.00,0.0008
3300.00,0.0008
3299.00,0.0008
3298.00,0.0008
3297.00,0.0008
3296.00,0.0008
3295.00,0.0008
3294.00,0.0008
3293.00,0.0008
3292.00,0.0008
3291.00,0.0008
3290.00,0.0008
3289.00,0.0008
3288.00,0.0008
3287.00,0.0008
3286.00,0.0008
3285.00,0.0008
3284.00,0.0008
3283.00,0.0008
3282.00,0.0008
3281.00,0.0008
3280.00,0.0008
3279.00,0.0008
3278.00,0.0008
3277.00,0.0008
3276.00,0.0008
3275.00,0.0008
3274.00,0.0008
3273.00,0.0009
3272.00,0.0009
3271.00,0.0009
3270.00,0.0009
3269.00,0.0009
3268.00,0.0009
3267.00,0.0008
3266.00,0.0008
3265.00,0.0008
3264.00,0.0008
3263.00,0.0008
3262.00,0.0008
3261.00,0.0008
3260.00,0.0008
3259.00,0.0009
3258.00,0.0009
3257.00,0.0008
3256.00,0.0008
3255.00,0.0008
3254.00,0.0008
3253.00,0.0008
3252.00,0.0008
3251.00,0.0008
3250.00,0.0008
3249.00,0.0007
3248.00,0.0007
3247.00,0.0007
3246.00,0.0007
3245.00,0.0008
3244.00,0.0008
3243.00,0.0008
3242.00,0.0008
3241.00,0.0008
3240.00,0.0008
3239.00,0.0008
3238.00,0.0008
3237.00,0.0008
3236.00,0.0008
3235.00,0.0008
3234.00,0.0008
3233.00,0.0008
3232.00,0.0008
3231.00,0.0008
3230.00,0.0008
3229.00,0.0008
3228.00,0.0008
3227.00,0.0007
3226.00,0.0007
3225.00,0.0007
3224.00,0.0007
3223.00,0.0008
3222.00,0.0008
3221.00,0.0008
3220.00,0.0008
3219.00,0.0008
3218.00,0.0007
3217.00,0.0007
3216.00,0.0007
3215.00,0.0007
3214.00,0.0007
3213.00,0.0008
3212.00,0.0008
3211.00,0.0008
3210.00,0.0008
3209.00,0.0008
3208.00,0.0008
3207.00,0.0008
3206.00,0.0008
3205.00,0.0008
3204.00,0.0008
3203.00,0.0008
3202.00,0.0008
3201.00,0.0008
3200.00,0.0008
3199.00,0.0008
3198.00,0.0008
3197.00,0.0007
3196.00,0.0007
3195.00,0.0007
3194.00,0.0007
3193.00,0.0007
3192.00,0.0007
3191.00,0.0007
3190.00,0.0007
3189.00,0.0007
3188.00,0.0007
3187.00,0.0007
3186.00,0.0007
3185.00,0.0007
3184.00,0.0007
3183.00,0.0007
3182.00,0.0007
3181.00,0.0007
3180.00,0.0007
3179.00,0.0007
3178.00,0.0007
3177.00,0.0007
3176.00,0.0007
3175.00,0.0007
3174.00,0.0007
3173.00,0.0007
3172.00,0.0007
3171.00,0.0007
3170.00,0.0007
3169.00,0.0007
3168.00,0.0007
3167.00,0.0008
3166.00,0.0008
3165.00,0.0008
3164.00,0.0007
3163.00,0.0007
3162.00,0.0007
3161.00,0.0008
3160.00,0.0008
3159.00,0.0008
3158.00,0.0008
3157.00,0.0008
3156.00,0.0008
3155.00,0.0008
3154.00,0.0007
3153.00,0.0007
3152.00,0.0007
3151.00,0.0007
3150.00,0.0007
3149.00,0.0007
3148.00,0.0007
3147.00,0.0007
3146.00,0.0007
3145.00,0.0007
3144.00,0.0007
3143.00,0.0006
3142.00,0.0006
3141.00,0.0007
3140.00,0.0007
3139.00,0.0007
3138.00,0.0007
3137.00,0.0007
3136.00,0.0007
3135.00,0.0007
3134.00,0.0007
3133.00,0.0007
3132.00,0.0007
3131.00,0.0007
3130.00,0.0007
3129.00,0.0007
3128.00,0.0007
3127.00,0.0007
3126.00,0.0007
3125.00,0.0007
3124.00,0.0007
3123.00,0.0008
3122.00,0.0008
3121.00,0.0008
3120.00,0.0009
3119.00,0.0009
3118.00,0.0009
3117.00,0.0010
3116.00,0.0010
3115.00,0.0010
3114.00,0.0011
3113.00,0.0012
3112.00,0.0013
3111.00,0.0014
3110.00,0.0015
3109.00,0.0016
3108.00,0.0018
3107.00,0.0019
3106.00,0.0020
3105.00,0.0021
3104.00,0.0021
3103.00,0.0021
3102.00,0.0021
3101.00,0.0020
3100.00,0.0020
3099.00,0.0020
3098.00,0.0020
3097.00,0.0020
3096.00,0.0020
3095.00,0.0021
3094.00,0.0023
3093.00,0.0025
3092.00,0.0027
3091.00,0.0030
3090.00,0.0033
3089.00,0.0037
3088.00,0.0041
3087.00,0.0044
3086.00,0.0048
3085.00,0.0050
3084.00,0.0052
3083.00,0.0053
3082.00,0.0052
3081.00,0.0051
3080.00,0.0049
3079.00,0.0046
3078.00,0.0044
3077.00,0.0042
3076.00,0.0041
3075.00,0.0040
3074.00,0.0040
3073.00,0.0040
3072.00,0.0041
3071.00,0.0042
3070.00,0.0044
3069.00,0.0047
3068.00,0.0050
3067.00,0.0053
3066.00,0.0056
3065.00,0.0060
3064.00,0.0064
3063.00,0.0067
3062.00,0.0069
3061.00,0.0071
3060.00,0.0071
3059.00,0.0071
3058.00,0.0069
3057.00,0.0066
3056.00,0.0063
3055.00,0.0059
3054.00,0.0055
3053.00,0.0052
3052.00,0.0049
3051.00,0.0046
3050.00,0.0043
3049.00,0.0042
3048.00,0.0040
3047.00,0.0040
3046.00,0.0039
3045.00,0.0040
3044.00,0.0040
3043.00,0.0041
3042.00,0.0043
3041.00,0.0045
3040.00,0.0048
3039.00,0.0051
3038.00,0.0055
3037.00,0.0060
3036.00,0.0066
3035.00,0.0072
3034.00,0.0079
3033.00,0.0087
3032.00,0.0095
3031.00,0.0104
3030.00,0.0113
3029.00,0.0121
3028.00,0.0128
3027.00,0.0133
3026.00,0.0135
3025.00,0.0134
3024.00,0.0130
3023.00,0.0123
3022.00,0.0114
3021.00,0.0103
3020.00,0.0093
3019.00,0.0082
3018.00,0.0072
3017.00,0.0064
3016.00,0.0057
3015.00,0.0051
3014.00,0.0047
3013.00,0.0043
3012.00,0.0041
3011.00,0.0039
3010.00,0.0038
3009.00,0.0038
3008.00,0.0038
3007.00,0.0039
3006.00,0.0040
3005.00,0.0041
3004.00,0.0042
3003.00,0.0042
3002.00,0.0042
3001.00,0.0041
3000.00,0.0040
2999.00,0.0038
2998.00,0.0035
2997.00,0.0033
2996.00,0.0030
2995.00,0.0028
2994.00,0.0026
2993.00,0.0025
2992.00,0.0024
2991.00,0.0023
2990.00,0.0022
2989.00,0.0022
2988.00,0.0021
2987.00,0.0021
2986.00,0.0021
2985.00,0.0021
2984.00,0.0021
2983.00,0.0021
2982.00,0.0021
2981.00,0.0021
2980.00,0.0021
2979.00,0.0022
2978.00,0.0022
2977.00,0.0022
2976.00,0.0022
2975.00,0.0022
2974.00,0.0022
2973.00,0.0023
2972.00,0.0023
2971.00,0.0024
2970.00,0.0025
2969.00,0.0026
2968.00,0.0026
2967.00,0.0027
2966.00,0.0028
2965.00,0.0029
2964.00,0.0030
2963.00,0.0031
2962.00,0.0032
2961.00,0.0034
2960.00,0.0035
2959.00,0.0037
2958.00,0.0038
2957.00,0.0040
2956.00,0.0042
2955.00,0.0044
2954.00,0.0046
2953.00,0.0048
2952.00,0.0050
2951.00,0.0053
2950.00,0.0056
2949.00,0.0059
2948.00,0.0062
2947.00,0.0065
2946.00,0.0069
2945.00,0.0073
2944.00,0.0077
2943.00,0.0081
2942.00,0.0085
2941.00,0.0090
2940.00,0.0095
2939.00,0.0099
2938.00,0.0104
2937.00,0.0110
2936.00,0.0115
2935.00,0.0120
2934.00,0.0126
2933.00,0.0131
2932.00,0.0136
2931.00,0.0141
2930.00,0.0145
2929.00,0.0150
2928.00,0.0154
2927.00,0.0157
2926.00,0.0160
2925.00,0.0162
2924.00,0.0164
2923.00,0.0165
2922.00,0.0166
2921.00,0.0166
2920.00,0.0165
2919.00,0.0164
2918.00,0.0162
2917.00,0.0160
2916.00,0.0158
2915.00,0.0155
2914.00,0.0152
2913.00,0.0149
2912.00,0.0145
2911.00,0.0142
2910.00,0.0138
2909.00,0.0134
2908.00,0.0130
2907.00,0.0127
2906.00,0.0123
2905.00,0.0118
2904.00,0.0114
2903.00,0.0110
2902.00,0.0106
2901.00,0.0102
2900.00,0.0098
2899.00,0.0094
2898.00,0.0090
2897.00,0.0087
2896.00,0.0084
2895.00,0.0081
2894.00,0.0078
2893.00,0.0076
2892.00,0.0074
2891.00,0.0072
2890.00,0.0070
2889.00,0.0068
2888.00,0.0067
2887.00,0.0065
2886.00,0.0064
2885.00,0.0062
2884.00,0.0061
2883.00,0.0060
2882.00,0.0058
2881.00,0.0057
2880.00,0.0056
2879.00,0.0055
2878.00,0.0053
2877.00,0.0053
2876.00,0.0052
2875.00,0.0051
2874.00,0.0050
2873.00,0.0049
2872.00,0.0049
2871.00,0.0048
2870.00,0.0048
2869.00,0.0048
2868.00,0.0048
2867.00,0.0049
2866.00,0.0049
2865.00,0.0050
2864.00,0.0051
2863.00,0.0053
2862.00,0.0055
2861.00,0.0057
2860.00,0.0059
2859.00,0.0062
2858.00,0.0064
2857.00,0.0066
2856.00,0.0068
2855.00,0.0070
2854.00,0.0072
2853.00,0.0074
2852.00,0.0075
2851.00,0.0076
2850.00,0.0077
2849.00,0.0076
2848.00,0.0076
2847.00,0.0074
2846.00,0.0072
2845.00,0.0069
2844.00,0.0066
2843.00,0.0062
2842.00,0.0058
2841.00,0.0054
2840.00,0.0050
2839.00,0.0046
2838.00,0.0042
2837.00,0.0039
2836.00,0.0035
2835.00,0.0033
2834.00,0.0030
2833.00,0.0028
2832.00,0.0026
2831.00,0.0025
2830.00,0.0024
2829.00,0.0023
2828.00,0.0022
2827.00,0.0021
2826.00,0.0021
2825.00,0.0020
2824.00,0.0019
2823.00,0.0019
2822.00,0.0018
2821.00,0.0018
2820.00,0.0018
2819.00,0.0018
2818.00,0.0018
2817.00,0.0018
2816.00,0.0017
2815.00,0.0017
2814.00,0.0017
2813.00,0.0017
2812.00,0.0017
2811.00,0.0017
2810.00,0.0017
2809.00,0.0017
2808.00,0.0017
2807.00,0.0017
2806.00,0.0016
2805.00,0.0016
2804.00,0.0016
2803.00,0.0015
2802.00,0.0015
2801.00,0.0015
2800.00,0.0015
2799.00,0.0015
2798.00,0.0014
2797.00,0.0014
2796.00,0.0014
2795.00,0.0014
2794.00,0.0014
2793.00,0.0014
2792.00,0.0014
2791.00,0.0014
2790.00,0.0014
2789.00,0.0014
2788.00,0.0014
2787.00,0.0014
2786.00,0.0014
2785.00,0.0014
2784.00,0.0014
2783.00,0.0014
2782.00,0.0013
2781.00,0.0013
2780.00,0.0013
2779.00,0.0013
2778.00,0.0013
2777.00,0.0013
2776.00,0.0013
2775.00,0.0013
2774.00,0.0013
2773.00,0.0012
2772.00,0.0012
2771.00,0.0012
2770.00,0.0012
2769.00,0.0012
2768.00,0.0012
2767.00,0.0012
2766.00,0.0012
2765.00,0.0012
2764.00,0.0012
2763.00,0.0012
2762.00,0.0012
2761.00,0.0011
2760.00,0.0011
2759.00,0.0011
2758.00,0.0011
2757.00,0.0011
2756.00,0.0011
2755.00,0.0011
2754.00,0.0011
2753.00,0.0011
2752.00,0.0011
2751.00,0.0011
2750.00,0.0011
2749.00,0.0011
2748.00,0.0011
2747.00,0.0011
2746.00,0.0011
2745.00,0.0011
2744.00,0.0011
2743.00,0.0011
2742.00,0.0011
2741.00,0.0011
2740.00,0.0011
2739.00,0.0011
2738.00,0.0011
2737.00,0.0011
2736.00,0.0011
2735.00,0.0011
2734.00,0.0011
2733.00,0.0011
2732.00,0.0011
2731.00,0.0011
2730.00,0.0011
2729.00,0.0011
2728.00,0.0011
2727.00,0.0011
2726.00,0.0011
2725.00,0.0011
2724.00,0.0011
2723.00,0.0011
2722.00,0.0011
2721.00,0.0011
2720.00,0.0011
2719.00,0.0011
2718.00,0.0011
2717.00,0.0011
2716.00,0.0011
2715.00,0.0011
2714.00,0.0011
2713.00,0.0011
2712.00,0.0011
2711.00,0.0011
2710.00,0.0011
2709.00,0.0011
2708.00,0.0011
2707.00,0.0011
2706.00,0.0011
2705.00,0.0011
2704.00,0.0011
2703.00,0.0011
2702.00,0.0011
2701.00,0.0011
2700.00,0.0011
2699.00,0.0011
2698.00,0.0011
2697.00,0.0011
2696.00,0.0011
2695.00,0.0011
2694.00,0.0011
2693.00,0.0011
2692.00,0.0011
2691.00,0.0011
2690.00,0.0011
2689.00,0.0011
2688.00,0.0011
2687.00,0.0011
2686.00,0.0011
2685.00,0.0011
2684.00,0.0011
2683.00,0.0011
2682.00,0.0011
2681.00,0.0011
2680.00,0.0011
2679.00,0.0011
2678.00,0.0011
2677.00,0.0011
2676.00,0.0011
2675.00,0.0011
2674.00,0.0011
2673.00,0.0011
2672.00,0.0011
2671.00,0.0011
2670.00,0.0011
2669.00,0.0011
2668.00,0.0012
2667.00,0.0012
2666.00,0.0013
2665.00,0.0013
2664.00,0.0013
2663.00,0.0014
2662.00,0.0014
2661.00,0.0015
2660.00,0.0015
2659.00,0.0015
2658.00,0.0016
2657.00,0.0016
2656.00,0.0016
2655.00,0.0016
2654.00,0.0016
2653.00,0.0017
2652.00,0.0016
2651.00,0.0016
2650.00,0.0016
2649.00,0.0017
2648.00,0.0017
2647.00,0.0017
2646.00,0.0017
2645.00,0.0017
2644.00,0.0017
2643.00,0.0017
2642.00,0.0017
2641.00,0.0017
2640.00,0.0017
2639.00,0.0017
2638.00,0.0017
2637.00,0.0017
2636.00,0.0018
2635.00,0.0018
2634.00,0.0018
2633.00,0.0018
2632.00,0.0018
2631.00,0.0017
2630.00,0.0017
2629.00,0.0017
2628.00,0.0017
2627.00,0.0017
2626.00,0.0016
2625.00,0.0016
2624.00,0.0016
2623.00,0.0016
2622.00,0.0015
2621.00,0.0015
2620.00,0.0015
2619.00,0.0015
2618.00,0.0015
2617.00,0.0015
2616.00,0.0015
2615.00,0.0015
2614.00,0.0015
2613.00,0.0015
2612.00,0.0015
2611.00,0.0015
2610.00,0.0015
2609.00,0.0015
2608.00,0.0016
2607.00,0.0016
2606.00,0.0015
2605.00,0.0015
2604.00,0.0015
2603.00,0.0015
2602.00,0.0015
2601.00,0.0014
2600.00,0.0014
2599.00,0.0013
2598.00,0.0013
2597.00,0.0013
2596.00,0.0013
2595.00,0.0013
2594.00,0.0013
2593.00,0.0012
2592.00,0.0012
2591.00,0.0012
2590.00,0.0012
2589.00,0.0012
2588.00,0.0012
2587.00,0.0012
2586.00,0.0012
2585.00,0.0012
2584.00,0.0012
2583.00,0.0012
2582.00,0.0012
2581.00,0.0012
2580.00,0.0012
2579.00,0.0012
2578.00,0.0012
2577.00,0.0012
2576.00,0.0012
2575.00,0.0011
2574.00,0.0011
2573.00,0.0011
2572.00,0.0011
2571.00,0.0011
2570.00,0.0011
2569.00,0.0010
2568.00,0.0010
2567.00,0.0010
2566.00,0.0010
2565.00,0.0010
2564.00,0.0011
2563.00,0.0010
2562.00,0.0010
2561.00,0.0010
2560.00,0.0010
2559.00,0.0009
2558.00,0.0009
2557.00,0.0009
2556.00,0.0009
2555.00,0.0009
2554.00,0.0010
2553.00,0.0010
2552.00,0.0010
2551.00,0.0010
2550.00,0.0010
2549.00,0.0010
2548.00,0.0010
2547.00,0.0010
2546.00,0.0009
2545.00,0.0009
2544.00,0.0009
2543.00,0.0009
2542.00,0.0009
2541.00,0.0009
2540.00,0.0009
2539.00,0.0009
2538.00,0.0008
2537.00,0.0008
2536.00,0.0008
2535.00,0.0009
2534.00,0.0009
2533.00,0.0009
2532.00,0.0009
2531.00,0.0008
2530.00,0.0008
2529.00,0.0008
2528.00,0.0008
2527.00,0.0008
2526.00,0.0008
2525.00,0.0008
2524.00,0.0008
2523.00,0.0008
2522.00,0.0008
2521.00,0.0009
2520.00,0.0009
2519.00,0.0009
2518.00,0.0008
2517.00,0.0008
2516.00,0.0008
2515.00,0.0008
2514.00,0.0008
2513.00,0.0008
2512.00,0.0008
2511.00,0.0009
2510.00,0.0009
2509.00,0.0009
2508.00,0.0009
2507.00,0.0009
2506.00,0.0008
2505.00,0.0008
2504.00,0.0008
2503.00,0.0008
2502.00,0.0008
2501.00,0.0008
2500.00,0.0008
2499.00,0.0008
2498.00,0.0008
2497.00,0.0008
2496.00,0.0007
2495.00,0.0007
2494.00,0.0007
2493.00,0.0008
2492.00,0.0008
2491.00,0.0008
2490.00,0.0008
2489.00,0.0008
2488.00,0.0008
2487.00,0.0007
2486.00,0.0007
2485.00,0.0007
2484.00,0.0007
2483.00,0.0007
2482.00,0.0007
2481.00,0.0007
2480.00,0.0007
2479.00,0.0007
2478.00,0.0007
2477.00,0.0007
2476.00,0.0007
2475.00,0.0007
2474.00,0.0007
2473.00,0.0007
2472.00,0.0006
2471.00,0.0006
2470.00,0.0006
2469.00,0.0007
2468.00,0.0007
2467.00,0.0007
2466.00,0.0007
2465.00,0.0007
2464.00,0.0007
2463.00,0.0008
2462.00,0.0008
2461.00,0.0008
2460.00,0.0008
2459.00,0.0008
2458.00,0.0009
2457.00,0.0009
2456.00,0.0009
2455.00,0.0009
2454.00,0.0009
2453.00,0.0008
2452.00,0.0008
2451.00,0.0007
2450.00,0.0007
2449.00,0.0007
2448.00,0.0007
2447.00,0.0007
2446.00,0.0007
2445.00,0.0007
2444.00,0.0007
2443.00,0.0007
2442.00,0.0006
2441.00,0.0006
2440.00,0.0006
2439.00,0.0006
2438.00,0.0006
2437.00,0.0006
2436.00,0.0006
2435.00,0.0006
2434.00,0.0006
2433.00,0.0006
2432.00,0.0005
2431.00,0.0005
2430.00,0.0005
2429.00,0.0005
2428.00,0.0004
2427.00,0.0005
2426.00,0.0005
2425.00,0.0005
2424.00,0.0005
2423.00,0.0004
2422.00,0.0005
2421.00,0.0005
2420.00,0.0004
2419.00,0.0004
2418.00,0.0004
2417.00,0.0004
2416.00,0.0004
2415.00,0.0005
2414.00,0.0005
2413.00,0.0005
2412.00,0.0005
2411.00,0.0005
2410.00,0.0004
2409.00,0.0004
2408.00,0.0003
2407.00,0.0003
2406.00,0.0003
2405.00,0.0002
2404.00,0.0003
2403.00,0.0003
2402.00,0.0003
2401.00,0.0003
2400.00,0.0003
2399.00,0.0003
2398.00,0.0003
2397.00,0.0003
2396.00,0.0003
2395.00,0.0003
2394.00,0.0003
2393.00,0.0002
2392.00,0.0002
2391.00,0.0002
2390.00,0.0002
2389.00,0.0002
2388.00,0.0002
2387.00,0.0002
2386.00,0.0002
2385.00,0.0001
2384.00,0.0001
2383.00,0.0001
2382.00,0.0001
2381.00,0.0001
2380.00,0.0001
2379.00,0.0002
2378.00,0.0002
2377.00,0.0002
2376.00,0.0002
2375.00,0.0002
2374.00,0.0002
2373.00,0.0002
2372.00,0.0001
2371.00,0.0001
2370.00,0.0001
2369.00,0.0001
2368.00,0.0000
2367.00,0.0001
2366.00,0.0001
2365.00,0.0002
2364.00,0.0003
2363.00,0.0003
2362.00,0.0003
2361.00,0.0004
2360.00,0.0004
2359.00,0.0004
2358.00,0.0004
2357.00,0.0004
2356.00,0.0004
2355.00,0.0004
2354.00,0.0004
2353.00,0.0004
2352.00,0.0004
2351.00,0.0004
2350.00,0.0004
2349.00,0.0005
2348.00,0.0006
2347.00,0.0007
2346.00,0.0009
2345.00,0.0010
2344.00,0.0010
2343.00,0.0009
2342.00,0.0009
2341.00,0.0008
2340.00,0.0008
2339.00,0.0009
2338.00,0.0009
2337.00,0.0009
2336.00,0.0008
2335.00,0.0008
2334.00,0.0007
2333.00,0.0007
2332.00,0.0007
2331.00,0.0007
2330.00,0.0008
2329.00,0.0010
2328.00,0.0013
2327.00,0.0017
2326.00,0.0020
2325.00,0.0021
2324.00,0.0020
2323.00,0.0018
2322.00,0.0016
2321.00,0.0015
2320.00,0.0014
2319.00,0.0014
2318.00,0.0013
2317.00,0.0013
2316.00,0.0013
2315.00,0.0012
2314.00,0.0012
2313.00,0.0012
2312.00,0.0012
2311.00,0.0012
2310.00,0.0012
2309.00,0.0011
2308.00,0.0011
2307.00,0.0011
2306.00,0.0010
2305.00,0.0010
2304.00,0.0010
2303.00,0.0010
2302.00,0.0010
2301.00,0.0011
2300.00,0.0011
2299.00,0.0012
2298.00,0.0012
2297.00,0.0013
2296.00,0.0014
2295.00,0.0015
2294.00,0.0016
2293.00,0.0017
2292.00,0.0018
2291.00,0.0018
2290.00,0.0019
2289.00,0.0019
2288.00,0.0019
2287.00,0.0019
2286.00,0.0018
2285.00,0.0018
2284.00,0.0017
2283.00,0.0016
2282.00,0.0016
2281.00,0.0015
2280.00,0.0015
2279.00,0.0015
2278.00,0.0014
2277.00,0.0014
2276.00,0.0013
2275.00,0.0012
2274.00,0.0012
2273.00,0.0011
2272.00,0.0011
2271.00,0.0011
2270.00,0.0011
2269.00,0.0011
2268.00,0.0011
2267.00,0.0011
2266.00,0.0010
2265.00,0.0010
2264.00,0.0010
2263.00,0.0010
2262.00,0.0010
2261.00,0.0011
2260.00,0.0011
2259.00,0.0011
2258.00,0.0011
2257.00,0.0010
2256.00,0.0009
2255.00,0.0009
2254.00,0.0008
2253.00,0.0008
2252.00,0.0009
2251.00,0.0009
2250.00,0.0010
2249.00,0.0010
2248.00,0.0010
2247.00,0.0010
2246.00,0.0010
2245.00,0.0010
2244.00,0.0010
2243.00,0.0009
2242.00,0.0009
2241.00,0.0010
2240.00,0.0010
2239.00,0.0010
2238.00,0.0010
2237.00,0.0010
2236.00,0.0009
2235.00,0.0009
2234.00,0.0008
2233.00,0.0008
2232.00,0.0008
2231.00,0.0009
2230.00,0.0009
2229.00,0.0009
2228.00,0.0009
2227.00,0.0009
2226.00,0.0009
2225.00,0.0009
2224.00,0.0008
2223.00,0.0008
2222.00,0.0007
2221.00,0.0007
2220.00,0.0006
2219.00,0.0006
2218.00,0.0006
2217.00,0.0006
2216.00,0.0007
2215.00,0.0007
2214.00,0.0007
2213.00,0.0007
2212.00,0.0007
2211.00,0.0007
2210.00,0.0007
2209.00,0.0008
2208.00,0.0008
2207.00,0.0009
2206.00,0.0009
2205.00,0.0009
2204.00,0.0008
2203.00,0.0007
2202.00,0.0008
2201.00,0.0008
2200.00,0.0009
2199.00,0.0008
2198.00,0.0008
2197.00,0.0007
2196.00,0.0007
2195.00,0.0008
2194.00,0.0008
2193.00,0.0009
2192.00,0.0010
2191.00,0.0010
2190.00,0.0011
2189.00,0.0012
2188.00,0.0012
2187.00,0.0012
2186.00,0.0010
2185.00,0.0007
2184.00,0.0006
2183.00,0.0005
2182.00,0.0006
2181.00,0.0007
2180.00,0.0007
2179.00,0.0006
2178.00,0.0004
2177.00,0.0002
2176.00,0.0001
2175.00,0.0001
2174.00,0.0004
2173.00,0.0007
2172.00,0.0010
2171.00,0.0012
2170.00,0.0013
2169.00,0.0014
2168.00,0.0015
2167.00,0.0016
2166.00,0.0018
2165.00,0.0019
2164.00,0.0020
2163.00,0.0019
2162.00,0.0014
2161.00,0.0001
2160.00,-0.0014
2159.00,-0.0027
2158.00,-0.0033
2157.00,-0.0031
2156.00,-0.0026
2155.00,-0.0022
2154.00,-0.0019
2153.00,-0.0017
2152.00,-0.0015
2151.00,-0.0014
2150.00,-0.0013
2149.00,-0.0014
2148.00,-0.0014
2147.00,-0.0014
2146.00,-0.0014
2145.00,-0.0014
2144.00,-0.0014
2143.00,-0.0014
2142.00,-0.0013
2141.00,-0.0013
2140.00,-0.0013
2139.00,-0.0013
2138.00,-0.0014
2137.00,-0.0016
2136.00,-0.0018
2135.00,-0.0019
2134.00,-0.0020
2133.00,-0.0019
2132.00,-0.0017
2131.00,-0.0015
2130.00,-0.0013
2129.00,-0.0011
2128.00,-0.0009
2127.00,-0.0007
2126.00,-0.0006
2125.00,-0.0006
2124.00,-0.0005
2123.00,-0.0004
2122.00,-0.0003
2121.00,-0.0002
2120.00,-0.0001
2119.00,0.0001
2118.00,0.0003
2117.00,0.0004
2116.00,0.0004
2115.00,0.0004
2114.00,0.0003
2113.00,0.0003
2112.00,0.0003
2111.00,0.0003
2110.00,0.0004
2109.00,0.0004
2108.00,0.0003
2107.00,0.0003
2106.00,0.0003
2105.00,0.0002
2104.00,0.0002
2103.00,0.0003
2102.00,0.0002
2101.00,0.0002
2100.00,0.0002
2099.00,0.0001
2098.00,0.0000
2097.00,-0.0001
2096.00,-0.0003
2095.00,-0.0003
2094.00,-0.0003
2093.00,-0.0001
2092.00,0.0000
2091.00,0.0002
2090.00,0.0002
2089.00,0.0003
2088.00,0.0003
2087.00,0.0004
2086.00,0.0005
2085.00,0.0005
2084.00,0.0006
2083.00,0.0006
2082.00,0.0007
2081.00,0.0008
2080.00,0.0008
2079.00,0.0008
2078.00,0.0008
2077.00,0.0007
2076.00,0.0007
2075.00,0.0006
2074.00,0.0005
2073.00,0.0004
2072.00,0.0003
2071.00,0.0002
2070.00,0.0002
2069.00,0.0003
2068.00,0.0004
2067.00,0.0004
2066.00,0.0004
2065.00,0.0003
2064.00,0.0002
2063.00,0.0002
2062.00,0.0002
2061.00,0.0003
2060.00,0.0004
2059.00,0.0005
2058.00,0.0006
2057.00,0.0006
2056.00,0.0005
2055.00,0.0006
2054.00,0.0008
2053.00,0.0012
2052.00,0.0015
2051.00,0.0015
2050.00,0.0013
2049.00,0.0009
2048.00,0.0007
2047.00,0.0007
2046.00,0.0007
2045.00,0.0007
2044.00,0.0007
2043.00,0.0007
2042.00,0.0006
2041.00,0.0007
2040.00,0.0008
2039.00,0.0010
2038.00,0.0010
2037.00,0.0009
2036.00,0.0007
2035.00,0.0004
2034.00,0.0002
2033.00,0.0001
2032.00,-0.0001
2031.00,-0.0002
2030.00,-0.0003
2029.00,-0.0003
2028.00,-0.0002
2027.00,-0.0002
2026.00,-0.0002
2025.00,-0.0003
2024.00,-0.0004
2023.00,-0.0004
2022.00,-0.0005
2021.00,-0.0006
2020.00,-0.0005
2019.00,-0.0005
2018.00,-0.0004
2017.00,-0.0004
2016.00,-0.0003
2015.00,-0.0001
2014.00,0.0001
2013.00,0.0002
2012.00,0.0003
2011.00,0.0003
2010.00,0.0001
2009.00,-0.0002
2008.00,-0.0006
2007.00,-0.0008
2006.00,-0.0009
2005.00,-0.0009
2004.00,-0.0007
2003.00,-0.0005
2002.00,-0.0003
2001.00,-0.0002
2000.00,-0.0001
1999.00,0.0000
1998.00,0.0001
1997.00,0.0001
1996.00,0.0002
1995.00,0.0004
1994.00,0.0005
1993.00,0.0005
1992.00,0.0005
1991.00,0.0004
1990.00,0.0005
1989.00,0.0006
1988.00,0.0008
1987.00,0.0009
1986.00,0.0010
1985.00,0.0011
1984.00,0.0012
1983.00,0.0014
1982.00,0.0017
1981.00,0.0017
1980.00,0.0014
1979.00,0.0008
1978.00,0.0002
1977.00,-0.0002
1976.00,-0.0002
1975.00,-0.0001
1974.00,-0.0000
1973.00,-0.0000
1972.00,-0.0001
1971.00,-0.0002
1970.00,-0.0004
1969.00,-0.0004
1968.00,-0.0003
1967.00,-0.0001
1966.00,0.0001
1965.00,0.0002
1964.00,0.0002
1963.00,0.0002
1962.00,0.0001
1961.00,0.0000
1960.00,0.0000
1959.00,0.0001
1958.00,0.0002
1957.00,0.0003
1956.00,0.0005
1955.00,0.0006
1954.00,0.0008
1953.00,0.0009
1952.00,0.0011
1951.00,0.0012
1950.00,0.0013
1949.00,0.0013
1948.00,0.0013
1947.00,0.0012
1946.00,0.0012
1945.00,0.0012
1944.00,0.0013
1943.00,0.0013
1942.00,0.0014
1941.00,0.0015
1940.00,0.0015
1939.00,0.0014
1938.00,0.0013
1937.00,0.0012
1936.00,0.0011
1935.00,0.0010
1934.00,0.0008
1933.00,0.0007
1932.00,0.0006
1931.00,0.0005
1930.00,0.0004
1929.00,0.0004
1928.00,0.0003
1927.00,0.0002
1926.00,0.0001
1925.00,0.0001
1924.00,0.0001
1923.00,0.0001
1922.00,0.0001
1921.00,0.0002
1920.00,0.0002
1919.00,0.0002
1918.00,0.0001
1917.00,0.0000
1916.00,-0.0000
1915.00,0.0000
1914.00,0.0001
1913.00,0.0001
1912.00,0.0001
1911.00,0.0002
1910.00,0.0002
1909.00,0.0002
1908.00,0.0002
1907.00,0.0003
1906.00,0.0003
1905.00,0.0003
1904.00,0.0003
1903.00,0.0003
1902.00,0.0003
1901.00,0.0003
1900.00,0.0004
1899.00,0.0005
1898.00,0.0005
1897.00,0.0005
1896.00,0.0006
1895.00,0.0007
1894.00,0.0008
1893.00,0.0009
1892.00,0.0009
1891.00,0.0010
1890.00,0.0010
1889.00,0.0011
1888.00,0.0011
1887.00,0.0011
1886.00,0.0011
1885.00,0.0011
1884.00,0.0011
1883.00,0.0012
1882.00,0.0012
1881.00,0.0013
1880.00,0.0013
1879.00,0.0014
1878.00,0.0014
1877.00,0.0014
1876.00,0.0015
1875.00,0.0015
1874.00,0.0016
1873.00,0.0016
1872.00,0.0017
1871.00,0.0017
1870.00,0.0016
1869.00,0.0016
1868.00,0.0015
1867.00,0.0015
1866.00,0.0014
1865.00,0.0014
1864.00,0.0013
1863.00,0.0012
1862.00,0.0011
1861.00,0.0011
1860.00,0.0010
1859.00,0.0009
1858.00,0.0009
1857.00,0.0008
1856.00,0.0007
1855.00,0.0007
1854.00,0.0006
1853.00,0.0006
1852.00,0.0005
1851.00,0.0004
1850.00,0.0004
1849.00,0.0004
1848.00,0.0004
1847.00,0.0004
1846.00,0.0003
1845.00,0.0003
1844.00,0.0003
1843.00,0.0003
1842.00,0.0003
1841.00,0.0003
1840.00,0.0003
1839.00,0.0003
1838.00,0.0003
1837.00,0.0003
1836.00,0.0003
1835.00,0.0003
1834.00,0.0004
1833.00,0.0004
1832.00,0.0004
1831.00,0.0005
1830.00,0.0005
1829.00,0.0006
1828.00,0.0007
1827.00,0.0007
1826.00,0.0008
1825.00,0.0008
1824.00,0.0008
1823.00,0.0008
1822.00,0.0009
1821.00,0.0009
1820.00,0.0009
1819.00,0.0009
1818.00,0.0008
1817.00,0.0009
1816.00,0.0010
1815.00,0.0011
1814.00,0.0012
1813.00,0.0013
1812.00,0.0014
1811.00,0.0015
1810.00,0.0016
1809.00,0.0017
1808.00,0.0018
1807.00,0.0019
1806.00,0.0019
1805.00,0.0019
1804.00,0.0020
1803.00,0.0020
1802.00,0.0020
1801.00,0.0020
1800.00,0.0020
1799.00,0.0019
1798.00,0.0019
1797.00,0.0019
1796.00,0.0018
1795.00,0.0017
1794.00,0.0016
1793.00,0.0016
1792.00,0.0015
1791.00,0.0014
1790.00,0.0013
1789.00,0.0012
1788.00,0.0012
1787.00,0.0011
1786.00,0.0010
1785.00,0.0010
1784.00,0.0010
1783.00,0.0010
1782.00,0.0010
1781.00,0.0010
1780.00,0.0010
1779.00,0.0010
1778.00,0.0011
1777.00,0.0011
1776.00,0.0011
1775.00,0.0012
1774.00,0.0012
1773.00,0.0012
1772.00,0.0012
1771.00,0.0012
1770.00,0.0012
1769.00,0.0012
1768.00,0.0012
1767.00,0.0012
1766.00,0.0012
1765.00,0.0013
1764.00,0.0013
1763.00,0.0013
1762.00,0.0014
1761.00,0.0015
1760.00,0.0016
1759.00,0.0016
1758.00,0.0017
1757.00,0.0017
1756.00,0.0018
1755.00,0.0019
1754.00,0.0020
1753.00,0.0021
1752.00,0.0021
1751.00,0.0021
1750.00,0.0022
1749.00,0.0022
1748.00,0.0022
1747.00,0.0023
1746.00,0.0024
1745.00,0.0024
1744.00,0.0024
1743.00,0.0024
1742.00,0.0024
1741.00,0.0024
1740.00,0.0024
1739.00,0.0024
1738.00,0.0024
1737.00,0.0024
1736.00,0.0023
1735.00,0.0023
1734.00,0.0022
1733.00,0.0022
1732.00,0.0022
1731.00,0.0021
1730.00,0.0021
1729.00,0.0020
1728.00,0.0020
1727.00,0.0019
1726.00,0.0019
1725.00,0.0019
1724.00,0.0019
1723.00,0.0019
1722.00,0.0018
1721.00,0.0018
1720.00,0.0018
1719.00,0.0018
1718.00,0.0018
1717.00,0.0017
1716.00,0.0017
1715.00,0.0017
1714.00,0.0016
1713.00,0.0016
1712.00,0.0016
1711.00,0.0015
1710.00,0.0015
1709.00,0.0015
1708.00,0.0015
1707.00,0.0015
1706.00,0.0015
1705.00,0.0015
1704.00,0.0015
1703.00,0.0015
1702.00,0.0015
1701.00,0.0015
1700.00,0.0015
1699.00,0.0015
1698.00,0.0015
1697.00,0.0014
1696.00,0.0014
1695.00,0.0014
1694.00,0.0014
1693.00,0.0014
1692.00,0.0014
1691.00,0.0014
1690.00,0.0015
1689.00,0.0015
1688.00,0.0015
1687.00,0.0015
1686.00,0.0015
1685.00,0.0016
1684.00,0.0016
1683.00,0.0016
1682.00,0.0016
1681.00,0.0016
1680.00,0.0016
1679.00,0.0016
1678.00,0.0016
1677.00,0.0016
1676.00,0.0016
1675.00,0.0016
1674.00,0.0016
1673.00,0.0016
1672.00,0.0017
1671.00,0.0017
1670.00,0.0017
1669.00,0.0017
1668.00,0.0017
1667.00,0.0017
1666.00,0.0017
1665.00,0.0017
1664.00,0.0017
1663.00,0.0017
1662.00,0.0016
1661.00,0.0016
1660.00,0.0016
1659.00,0.0016
1658.00,0.0016
1657.00,0.0015
1656.00,0.0015
1655.00,0.0015
1654.00,0.0015
1653.00,0.0014
1652.00,0.0015
1651.00,0.0015
1650.00,0.0014
1649.00,0.0014
1648.00,0.0013
1647.00,0.0012
1646.00,0.0012
1645.00,0.0012
1644.00,0.0012
1643.00,0.0012
1642.00,0.0012
1641.00,0.0012
1640.00,0.0012
1639.00,0.0012
1638.00,0.0012
1637.00,0.0012
1636.00,0.0012
1635.00,0.0012
1634.00,0.0012
1633.00,0.0012
1632.00,0.0012
1631.00,0.0012
1630.00,0.0012
1629.00,0.0013
1628.00,0.0013
1627.00,0.0013
1626.00,0.0014
1625.00,0.0014
1624.00,0.0014
1623.00,0.0015
1622.00,0.0015
1621.00,0.0015
1620.00,0.0015
1619.00,0.0016
1618.00,0.0017
1617.00,0.0017
1616.00,0.0019
1615.00,0.0020
1614.00,0.0022
1613.00,0.0024
1612.00,0.0027
1611.00,0.0031
1610.00,0.0037
1609.00,0.0045
1608.00,0.0055
1607.00,0.0068
1606.00,0.0081
1605.00,0.0095
1604.00,0.0109
1603.00,0.0119
1602.00,0.0125
1601.00,0.0126
1600.00,0.0120
1599.00,0.0110
1598.00,0.0098
1597.00,0.0085
1596.00,0.0073
1595.00,0.0064
1594.00,0.0056
1593.00,0.0050
1592.00,0.0046
1591.00,0.0043
1590.00,0.0041
1589.00,0.0040
1588.00,0.0042
1587.00,0.0045
1586.00,0.0049
1585.00,0.0053
1584.00,0.0055
1583.00,0.0055
1582.00,0.0051
1581.00,0.0046
1580.00,0.0040
1579.00,0.0035
1578.00,0.0030
1577.00,0.0027
1576.00,0.0024
1575.00,0.0022
1574.00,0.0020
1573.00,0.0019
1572.00,0.0017
1571.00,0.0016
1570.00,0.0015
1569.00,0.0014
1568.00,0.0014
1567.00,0.0014
1566.00,0.0014
1565.00,0.0013
1564.00,0.0013
1563.00,0.0013
1562.00,0.0013
1561.00,0.0013
1560.00,0.0014
1559.00,0.0014
1558.00,0.0014
1557.00,0.0014
1556.00,0.0014
1555.00,0.0014
1554.00,0.0015
1553.00,0.0015
1552.00,0.0016
1551.00,0.0016
1550.00,0.0017
1549.00,0.0017
1548.00,0.0018
1547.00,0.0018
1546.00,0.0018
1545.00,0.0018
1544.00,0.0019
1543.00,0.0019
1542.00,0.0020
1541.00,0.0020
1540.00,0.0019
1539.00,0.0019
1538.00,0.0019
1537.00,0.0018
1536.00,0.0018
1535.00,0.0017
1534.00,0.0016
1533.00,0.0015
1532.00,0.0015
1531.00,0.0014
1530.00,0.0014
1529.00,0.0013
1528.00,0.0013
1527.00,0.0012
1526.00,0.0012
1525.00,0.0012
1524.00,0.0012
1523.00,0.0012
1522.00,0.0012
1521.00,0.0011
1520.00,0.0012
1519.00,0.0012
1518.00,0.0012
1517.00,0.0012
1516.00,0.0012
1515.00,0.0013
1514.00,0.0013
1513.00,0.0014
1512.00,0.0014
1511.00,0.0015
1510.00,0.0015
1509.00,0.0016
1508.00,0.0017
1507.00,0.0018
1506.00,0.0021
1505.00,0.0024
1504.00,0.0028
1503.00,0.0033
1502.00,0.0039
1501.00,0.0047
1500.00,0.0061
1499.00,0.0080
1498.00,0.0109
1497.00,0.0151
1496.00,0.0201
1495.00,0.0250
1494.00,0.0286
1493.00,0.0303
1492.00,0.0298
1491.00,0.0269
1490.00,0.0225
1489.00,0.0180
1488.00,0.0144
1487.00,0.0118
1486.00,0.0098
1485.00,0.0083
1484.00,0.0071
1483.00,0.0062
1482.00,0.0054
1481.00,0.0047
1480.00,0.0043
1479.00,0.0039
1478.00,0.0037
1477.00,0.0035
1476.00,0.0034
1475.00,0.0032
1474.00,0.0031
1473.00,0.0031
1472.00,0.0031
1471.00,0.0031
1470.00,0.0031
1469.00,0.0032
1468.00,0.0033
1467.00,0.0034
1466.00,0.0036
1465.00,0.0038
1464.00,0.0040
1463.00,0.0044
1462.00,0.0048
1461.00,0.0054
1460.00,0.0062
1459.00,0.0076
1458.00,0.0101
1457.00,0.0142
1456.00,0.0192
1455.00,0.0236
1454.00,0.0270
1453.00,0.0293
1452.00,0.0304
1451.00,0.0299
1450.00,0.0284
1449.00,0.0263
1448.00,0.0241
1447.00,0.0221
1446.00,0.0204
1445.00,0.0190
1444.00,0.0176
1443.00,0.0162
1442.00,0.0149
1441.00,0.0138
1440.00,0.0128
1439.00,0.0119
1438.00,0.0110
1437.00,0.0099
1436.00,0.0089
1435.00,0.0080
1434.00,0.0073
1433.00,0.0067
1432.00,0.0061
1431.00,0.0056
1430.00,0.0051
1429.00,0.0047
1428.00,0.0044
1427.00,0.0041
1426.00,0.0039
1425.00,0.0037
1424.00,0.0036
1423.00,0.0035
1422.00,0.0034
1421.00,0.0033
1420.00,0.0032
1419.00,0.0031
1418.00,0.0030
1417.00,0.0029
1416.00,0.0029
1415.00,0.0029
1414.00,0.0029
1413.00,0.0029
1412.00,0.0029
1411.00,0.0029
1410.00,0.0029
1409.00,0.0028
1408.00,0.0028
1407.00,0.0028
1406.00,0.0028
1405.00,0.0028
1404.00,0.0028
1403.00,0.0028
1402.00,0.0029
1401.00,0.0029
1400.00,0.0029
1399.00,0.0029
1398.00,0.0030
1397.00,0.0030
1396.00,0.0031
1395.00,0.0032
1394.00,0.0033
1393.00,0.0034
1392.00,0.0036
1391.00,0.0038
1390.00,0.0039
1389.00,0.0041
1388.00,0.0043
1387.00,0.0045
1386.00,0.0048
1385.00,0.0050
1384.00,0.0052
1383.00,0.0054
1382.00,0.0056
1381.00,0.0058
1380.00,0.0060
1379.00,0.0062
1378.00,0.0063
1377.00,0.0065
1376.00,0.0067
1375.00,0.0068
1374.00,0.0069
1373.00,0.0069
1372.00,0.0070
1371.00,0.0070
1370.00,0.0070
1369.00,0.0070
1368.00,0.0070
1367.00,0.0069
1366.00,0.0069
1365.00,0.0068
1364.00,0.0068
1363.00,0.0067
1362.00,0.0066
1361.00,0.0065
1360.00,0.0064
1359.00,0.0064
1358.00,0.0063
1357.00,0.0062
1356.00,0.0061
1355.00,0.0061
1354.00,0.0060
1353.00,0.0060
1352.00,0.0060
1351.00,0.0059
1350.00,0.0059
1349.00,0.0059
1348.00,0.0058
1347.00,0.0058
1346.00,0.0057
1345.00,0.0057
1344.00,0.0056
1343.00,0.0055
1342.00,0.0055
1341.00,0.0054
1340.00,0.0053
1339.00,0.0052
1338.00,0.0052
1337.00,0.0052
1336.00,0.0053
1335.00,0.0054
1334.00,0.0056
1333.00,0.0057
1332.00,0.0058
1331.00,0.0059
1330.00,0.0060
1329.00,0.0061
1328.00,0.0061
1327.00,0.0060
1326.00,0.0059
1325.00,0.0058
1324.00,0.0058
1323.00,0.0057
1322.00,0.0056
1321.00,0.0056
1320.00,0.0056
1319.00,0.0056
1318.00,0.0056
1317.00,0.0057
1316.00,0.0057
1315.00,0.0058
1314.00,0.0059
1313.00,0.0059
1312.00,0.0059
1311.00,0.0058
1310.00,0.0058
1309.00,0.0057
1308.00,0.0056
1307.00,0.0056
1306.00,0.0055
1305.00,0.0054
1304.00,0.0053
1303.00,0.0052
1302.00,0.0051
1301.00,0.0051
1300.00,0.0050
1299.00,0.0049
1298.00,0.0049
1297.00,0.0048
1296.00,0.0048
1295.00,0.0047
1294.00,0.0047
1293.00,0.0047
1292.00,0.0047
1291.00,0.0046
1290.00,0.0046
1289.00,0.0045
1288.00,0.0045
1287.00,0.0044
1286.00,0.0044
1285.00,0.0044
1284.00,0.0044
1283.00,0.0044
1282.00,0.0043
1281.00,0.0043
1280.00,0.0043
1279.00,0.0042
1278.00,0.0042
1277.00,0.0041
1276.00,0.0040
1275.00,0.0039
1274.00,0.0038
1273.00,0.0037
1272.00,0.0036
1271.00,0.0036
1270.00,0.0035
1269.00,0.0034
1268.00,0.0034
1267.00,0.0033
1266.00,0.0033
1265.00,0.0032
1264.00,0.0032
1263.00,0.0032
1262.00,0.0032
1261.00,0.0032
1260.00,0.0032
1259.00,0.0033
1258.00,0.0033
1257.00,0.0033
1256.00,0.0033
1255.00,0.0033
1254.00,0.0033
1253.00,0.0033
1252.00,0.0033
1251.00,0.0033
1250.00,0.0033
1249.00,0.0033
1248.00,0.0033
1247.00,0.0033
1246.00,0.0034
1245.00,0.0034
1244.00,0.0033
1243.00,0.0033
1242.00,0.0033
1241.00,0.0033
1240.00,0.0033
1239.00,0.0033
1238.00,0.0033
1237.00,0.0033
1236.00,0.0033
1235.00,0.0033
1234.00,0.0033
1233.00,0.0033
1232.00,0.0033
1231.00,0.0033
1230.00,0.0033
1229.00,0.0034
1228.00,0.0033
1227.00,0.0033
1226.00,0.0033
1225.00,0.0033
1224.00,0.0033
1223.00,0.0033
1222.00,0.0033
1221.00,0.0033
1220.00,0.0033
1219.00,0.0033
1218.00,0.0033
1217.00,0.0034
1216.00,0.0034
1215.00,0.0034
1214.00,0.0034
1213.00,0.0035
1212.00,0.0036
1211.00,0.0036
1210.00,0.0037
1209.00,0.0038
1208.00,0.0039
1207.00,0.0039
1206.00,0.0040
1205.00,0.0041
1204.00,0.0042
1203.00,0.0043
1202.00,0.0044
1201.00,0.0046
1200.00,0.0047
1199.00,0.0048
1198.00,0.0048
1197.00,0.0049
1196.00,0.0049
1195.00,0.0050
1194.00,0.0051
1193.00,0.0051
1192.00,0.0052
1191.00,0.0052
1190.00,0.0053
1189.00,0.0054
1188.00,0.0055
1187.00,0.0057
1186.00,0.0060
1185.00,0.0063
1184.00,0.0066
1183.00,0.0069
1182.00,0.0070
1181.00,0.0071
1180.00,0.0069
1179.00,0.0066
1178.00,0.0062
1177.00,0.0057
1176.00,0.0053
1175.00,0.0049
1174.00,0.0046
1173.00,0.0045
1172.00,0.0043
1171.00,0.0043
1170.00,0.0042
1169.00,0.0042
1168.00,0.0042
1167.00,0.0042
1166.00,0.0042
1165.00,0.0043
1164.00,0.0044
1163.00,0.0045
1162.00,0.0047
1161.00,0.0051
1160.00,0.0055
1159.00,0.0059
1158.00,0.0064
1157.00,0.0068
1156.00,0.0071
1155.00,0.0073
1154.00,0.0072
1153.00,0.0070
1152.00,0.0065
1151.00,0.0059
1150.00,0.0053
1149.00,0.0048
1148.00,0.0044
1147.00,0.0041
1146.00,0.0039
1145.00,0.0037
1144.00,0.0035
1143.00,0.0034
1142.00,0.0033
1141.00,0.0032
1140.00,0.0031
1139.00,0.0031
1138.00,0.0030
1137.00,0.0029
1136.00,0.0029
1135.00,0.0029
1134.00,0.0029
1133.00,0.0029
1132.00,0.0029
1131.00,0.0029
1130.00,0.0030
1129.00,0.0030
1128.00,0.0030
1127.00,0.0030
1126.00,0.0030
1125.00,0.0030
1124.00,0.0030
1123.00,0.0031
1122.00,0.0032
1121.00,0.0033
1120.00,0.0034
1119.00,0.0035
1118.00,0.0036
1117.00,0.0037
1116.00,0.0038
1115.00,0.0039
1114.00,0.0039
1113.00,0.0040
1112.00,0.0040
1111.00,0.0040
1110.00,0.0040
1109.00,0.0040
1108.00,0.0040
1107.00,0.0040
1106.00,0.0040
1105.00,0.0040
1104.00,0.0040
1103.00,0.0041
1102.00,0.0041
1101.00,0.0042
1100.00,0.0042
1099.00,0.0042
1098.00,0.0043
1097.00,0.0044
1096.00,0.0045
1095.00,0.0046
1094.00,0.0047
1093.00,0.0048
1092.00,0.0049
1091.00,0.0049
1090.00,0.0050
1089.00,0.0051
1088.00,0.0052
1087.00,0.0054
1086.00,0.0055
1085.00,0.0057
1084.00,0.0059
1083.00,0.0061
1082.00,0.0063
1081.00,0.0066
1080.00,0.0068
1079.00,0.0070
1078.00,0.0073
1077.00,0.0076
1076.00,0.0079
1075.00,0.0083
1074.00,0.0086
1073.00,0.0090
1072.00,0.0093
1071.00,0.0095
1070.00,0.0097
1069.00,0.0097
1068.00,0.0097
1067.00,0.0095
1066.00,0.0093
1065.00,0.0090
1064.00,0.0086
1063.00,0.0083
1062.00,0.0080
1061.00,0.0077
1060.00,0.0074
1059.00,0.0071
1058.00,0.0069
1057.00,0.0067
1056.00,0.0065
1055.00,0.0063
1054.00,0.0061
1053.00,0.0059
1052.00,0.0057
1051.00,0.0055
1050.00,0.0054
1049.00,0.0052
1048.00,0.0051
1047.00,0.0050
1046.00,0.0049
1045.00,0.0049
1044.00,0.0049
1043.00,0.0049
1042.00,0.0049
1041.00,0.0050
1040.00,0.0052
1039.00,0.0056
1038.00,0.0061
1037.00,0.0068
1036.00,0.0077
1035.00,0.0088
1034.00,0.0101
1033.00,0.0116
1032.00,0.0130
1031.00,0.0142
1030.00,0.0152
1029.00,0.0157
1028.00,0.0158
1027.00,0.0155
1026.00,0.0147
1025.00,0.0138
1024.00,0.0127
1023.00,0.0118
1022.00,0.0110
1021.00,0.0103
1020.00,0.0097
1019.00,0.0092
1018.00,0.0088
1017.00,0.0084
1016.00,0.0081
1015.00,0.0078
1014.00,0.0075
1013.00,0.0073
1012.00,0.0071
1011.00,0.0069
1010.00,0.0068
1009.00,0.0068
1008.00,0.0068
1007.00,0.0070
1006.00,0.0071
1005.00,0.0073
1004.00,0.0074
1003.00,0.0073
1002.00,0.0071
1001.00,0.0068
1000.00,0.0064
999.00,0.0060
998.00,0.0057
997.00,0.0055
996.00,0.0054
995.00,0.0054
994.00,0.0054
993.00,0.0054
992.00,0.0054
991.00,0.0055
990.00,0.0055
989.00,0.0056
988.00,0.0057
987.00,0.0059
986.00,0.0060
985.00,0.0062
984.00,0.0064
983.00,0.0066
982.00,0.0067
981.00,0.0068
980.00,0.0068
979.00,0.0068
978.00,0.0067
977.00,0.0066
976.00,0.0065
975.00,0.0064
974.00,0.0063
973.00,0.0062
972.00,0.0063
971.00,0.0064
970.00,0.0065
969.00,0.0067
968.00,0.0069
967.00,0.0070
966.00,0.0072
965.00,0.0072
964.00,0.0072
963.00,0.0072
962.00,0.0070
961.00,0.0068
960.00,0.0066
959.00,0.0063
958.00,0.0060
957.00,0.0058
956.00,0.0056
955.00,0.0054
954.00,0.0053
953.00,0.0052
952.00,0.0052
951.00,0.0052
950.00,0.0052
949.00,0.0052
948.00,0.0053
947.00,0.0053
946.00,0.0054
945.00,0.0055
944.00,0.0056
943.00,0.0056
942.00,0.0055
941.00,0.0055
940.00,0.0054
939.00,0.0052
938.00,0.0051
937.00,0.0049
936.00,0.0047
935.00,0.0046
934.00,0.0044
933.00,0.0043
932.00,0.0042
931.00,0.0041
930.00,0.0041
929.00,0.0040
928.00,0.0040
927.00,0.0040
926.00,0.0041
925.00,0.0041
924.00,0.0042
923.00,0.0043
922.00,0.0044
921.00,0.0045
920.00,0.0046
919.00,0.0049
918.00,0.0051
917.00,0.0055
916.00,0.0059
915.00,0.0064
914.00,0.0069
913.00,0.0076
912.00,0.0082
911.00,0.0088
910.00,0.0094
909.00,0.0099
908.00,0.0103
907.00,0.0105
906.00,0.0106
905.00,0.0105
904.00,0.0101
903.00,0.0096
902.00,0.0089
901.00,0.0081
900.00,0.0074
899.00,0.0067
898.00,0.0061
897.00,0.0056
896.00,0.0052
895.00,0.0048
894.00,0.0046
893.00,0.0043
892.00,0.0041
891.00,0.0040
890.00,0.0038
889.00,0.0037
888.00,0.0036
887.00,0.0035
886.00,0.0034
885.00,0.0033
884.00,0.0032
883.00,0.0032
882.00,0.0031
881.00,0.0031
880.00,0.0031
879.00,0.0030
878.00,0.0030
877.00,0.0029
876.00,0.0028
875.00,0.0028
874.00,0.0027
873.00,0.0027
872.00,0.0027
871.00,0.0027
870.00,0.0027
869.00,0.0027
868.00,0.0027
867.00,0.0026
866.00,0.0026
865.00,0.0026
864.00,0.0026
863.00,0.0026
862.00,0.0026
861.00,0.0026
860.00,0.0026
859.00,0.0026
858.00,0.0027
857.00,0.0027
856.00,0.0028
855.00,0.0029
854.00,0.0030
853.00,0.0031
852.00,0.0033
851.00,0.0035
850.00,0.0038
849.00,0.0040
848.00,0.0043
847.00,0.0046
846.00,0.0049
845.00,0.0052
844.00,0.0054
843.00,0.0055
842.00,0.0056
841.00,0.0056
840.00,0.0054
839.00,0.0053
838.00,0.0050
837.00,0.0047
836.00,0.0043
835.00,0.0039
834.00,0.0036
833.00,0.0033
832.00,0.0030
831.00,0.0028
830.00,0.0027
829.00,0.0026
828.00,0.0025
827.00,0.0024
826.00,0.0024
825.00,0.0023
824.00,0.0023
823.00,0.0023
822.00,0.0023
821.00,0.0023
820.00,0.0023
819.00,0.0023
818.00,0.0023
817.00,0.0023
816.00,0.0023
815.00,0.0023
814.00,0.0023
813.00,0.0023
812.00,0.0023
811.00,0.0023
810.00,0.0023
809.00,0.0024
808.00,0.0024
807.00,0.0024
806.00,0.0024
805.00,0.0025
804.00,0.0025
803.00,0.0026
802.00,0.0026
801.00,0.0027
800.00,0.0028
799.00,0.0029
798.00,0.0031
797.00,0.0032
796.00,0.0033
795.00,0.0035
794.00,0.0038
793.00,0.0040
792.00,0.0043
791.00,0.0046
790.00,0.0048
789.00,0.0051
788.00,0.0054
787.00,0.0057
786.00,0.0061
785.00,0.0065
784.00,0.0069
783.00,0.0074
782.00,0.0080
781.00,0.0086
780.00,0.0093
779.00,0.0101
778.00,0.0109
777.00,0.0119
776.00,0.0131
775.00,0.0143
774.00,0.0156
773.00,0.0169
772.00,0.0184
771.00,0.0199
770.00,0.0215
769.00,0.0231
768.00,0.0246
767.00,0.0262
766.00,0.0277
765.00,0.0292
764.00,0.0308
763.00,0.0323
762.00,0.0339
761.00,0.0355
760.00,0.0370
759.00,0.0383
758.00,0.0395
757.00,0.0404
756.00,0.0410
755.00,0.0414
754.00,0.0415
753.00,0.0415
752.00,0.0414
751.00,0.0413
750.00,0.0411
749.00,0.0409
748.00,0.0405
747.00,0.0399
746.00,0.0389
745.00,0.0374
744.00,0.0355
743.00,0.0331
742.00,0.0306
741.00,0.0282
740.00,0.0258
739.00,0.0236
738.00,0.0215
737.00,0.0195
736.00,0.0175
735.00,0.0156
734.00,0.0138
733.00,0.0121
732.00,0.0106
731.00,0.0093
730.00,0.0083
729.00,0.0074
728.00,0.0067
727.00,0.0062
726.00,0.0058
725.00,0.0055
724.00,0.0052
723.00,0.0051
722.00,0.0049
721.00,0.0049
720.00,0.0049
719.00,0.0051
718.00,0.0053
717.00,0.0056
716.00,0.0061
715.00,0.0067
714.00,0.0077
713.00,0.0089
712.00,0.0106
711.00,0.0128
710.00,0.0156
709.00,0.0190
708.00,0.0232
707.00,0.0281
706.00,0.0336
705.00,0.0397
704.00,0.0464
703.00,0.0534
702.00,0.0608
701.00,0.0683
700.00,0.0758
699.00,0.0831
698.00,0.0901
697.00,0.0961
696.00,0.1003
695.00,0.1018
694.00,0.0999
693.00,0.0944
692.00,0.0862
691.00,0.0767
690.00,0.0671
689.00,0.0585
688.00,0.0512
687.00,0.0452
686.00,0.0405
685.00,0.0366
684.00,0.0335
683.00,0.0308
682.00,0.0286
681.00,0.0267
680.00,0.0251
679.00,0.0237
678.00,0.0225
677.00,0.0214
676.00,0.0205
675.00,0.0197
674.00,0.0190
673.00,0.0184
672.00,0.0178
671.00,0.0173
670.00,0.0168
669.00,0.0164
668.00,0.0157
667.00,0.0151
666.00,0.0145
665.00,0.0141
664.00,0.0137
663.00,0.0132
662.00,0.0127
661.00,0.0123
660.00,0.0118
659.00,0.0114
658.00,0.0110
657.00,0.0106
656.00,0.0102
655.00,0.0099
654.00,0.0097
653.00,0.0094
652.00,0.0091
651.00,0.0088
650.00,0.0085
649.00,0.0082
648.00,0.0080
647.00,0.0079
646.00,0.0078
645.00,0.0077
644.00,0.0075
643.00,0.0074
642.00,0.0073
641.00,0.0074
640.00,0.0074
639.00,0.0075
638.00,0.0075
637.00,0.0076
636.00,0.0077
635.00,0.0079
634.00,0.0082
633.00,0.0084
632.00,0.0085
631.00,0.0086
630.00,0.0087
629.00,0.0088
628.00,0.0089
627.00,0.0089
626.00,0.0091
625.00,0.0092
624.00,0.0094
623.00,0.0096
622.00,0.0098
621.00,0.0099
620.00,0.0097
619.00,0.0094
618.00,0.0092
617.00,0.0090
616.00,0.0088
615.00,0.0086
614.00,0.0084
613.00,0.0082
612.00,0.0080
611.00,0.0078
610.00,0.0077
609.00,0.0077
608.00,0.0078
607.00,0.0079
606.00,0.0079
605.00,0.0078
604.00,0.0077
603.00,0.0078
602.00,0.0078
601.00,0.0079
600.00,0.0080
599.00,0.0081
598.00,0.0082
597.00,0.0083
596.00,0.0084
595.00,0.0085
594.00,0.0086
593.00,0.0086
592.00,0.0087
591.00,0.0088
590.00,0.0090
589.00,0.0092
588.00,0.0094
587.00,0.0095
586.00,0.0096
585.00,0.0097
584.00,0.0099
583.00,0.0101
582.00,0.0104
581.00,0.0108
580.00,0.0111
579.00,0.0115
578.00,0.0119
577.00,0.0123
576.00,0.0127
575.00,0.0130
574.00,0.0134
573.00,0.0139
572.00,0.0144
571.00,0.0150
570.00,0.0156
569.00,0.0162
568.00,0.0168
567.00,0.0174
566.00,0.0179
565.00,0.0183
564.00,0.0187
563.00,0.0191
562.00,0.0195
561.00,0.0200
560.00,0.0206
559.00,0.0212
558.00,0.0218
557.00,0.0223
556.00,0.0228
555.00,0.0235
554.00,0.0242
553.00,0.0249
552.00,0.0258
551.00,0.0267
550.00,0.0276
549.00,0.0285
548.00,0.0295
547.00,0.0305
546.00,0.0316
545.00,0.0327
544.00,0.0340
543.00,0.0351
542.00,0.0360
541.00,0.0368
540.00,0.0374
539.00,0.0377
538.00,0.0378
537.00,0.0376
536.00,0.0371
535.00,0.0363
534.00,0.0350
533.00,0.0335
532.00,0.0318
531.00,0.0301
530.00,0.0284
529.00,0.0268
528.00,0.0253
527.00,0.0239
526.00,0.0225
525.00,0.0212
524.00,0.0200
523.00,0.0191
522.00,0.0183
521.00,0.0177
520.00,0.0170
519.00,0.0164
518.00,0.0158
517.00,0.0152
516.00,0.0147
515.00,0.0141
514.00,0.0136
513.00,0.0131
512.00,0.0128
511.00,0.0126
510.00,0.0125
509.00,0.0123
508.00,0.0121
507.00,0.0118
506.00,0.0115
505.00,0.0111
504.00,0.0107
503.00,0.0104
502.00,0.0101
501.00,0.0099
500.00,0.0098
499.00,0.0097
498.00,0.0095
497.00,0.0094
496.00,0.0092
495.00,0.0089
494.00,0.0086
493.00,0.0083
492.00,0.0080
491.00,0.0079
490.00,0.0079
489.00,0.0080
488.00,0.0082
487.00,0.0084
486.00,0.0083
485.00,0.0081
484.00,0.0079
483.00,0.0077
482.00,0.0077
481.00,0.0078
480.00,0.0078
479.00,0.0077
478.00,0.0075
477.00,0.0074
476.00,0.0074
475.00,0.0075
474.00,0.0076
473.00,0.0075
472.00,0.0074
471.00,0.0075
470.00,0.0077
469.00,0.0078
468.00,0.0078
467.00,0.0078
466.00,0.0078
465.00,0.0076
464.00,0.0073
463.00,0.0070
462.00,0.0069
461.00,0.0068
460.00,0.0066
459.00,0.0064
458.00,0.0062
457.00,0.0062
456.00,0.0062
455.00,0.0063
454.00,0.0065
453.00,0.0067
452.00,0.0068
451.00,0.0068
450.00,0.0067
449.00,0.0066
448.00,0.0064
447.00,0.0063
446.00,0.0062
445.00,0.0062
444.00,0.0062
443.00,0.0061
442.00,0.0061
441.00,0.0062
440.00,0.0064
439.00,0.0067
438.00,0.0067
437.00,0.0066
436.00,0.0063
435.00,0.0061
434.00,0.0060
433.00,0.0060
432.00,0.0058
431.00,0.0055
430.00,0.0053
429.00,0.0052
428.00,0.0053
427.00,0.0052
426.00,0.0052
425.00,0.0051
424.00,0.0049
423.00,0.0045
422.00,0.0043
421.00,0.0045
420.00,0.0052
419.00,0.0059
418.00,0.0062
417.00,0.0060
416.00,0.0057
415.00,0.0059
414.00,0.0062
413.00,0.0064
412.00,0.0064
411.00,0.0062
410.00,0.0062
409.00,0.0065
408.00,0.0068
407.00,0.0068
406.00,0.0064
405.00,0.0059
404.00,0.0054
403.00,0.0049
402.00,0.0043
401.00,0.0036
400.00,0.0033
