Created as New Dataset,Sample 080 By YargerLab Date Thursday, August 14 2025
cm-1,A
4000.00,0.0070
3999.00,0.0070
3998.00,0.0070
3997.00,0.0070
3996.00,0.0070
3995.00,0.0070
3994.00,0.0070
3993.00,0.0070
3992.00,0.0070
3991.00,0.0070
3990.00,0.0071
3989.00,0.0071
3988.00,0.0070
3987.00,0.0070
3986.00,0.0070
3985.00,0.0070
3984.00,0.0070
3983.00,0.0070
3982.00,0.0070
3981.00,0.0070
3980.00,0.0070
3979.00,0.0070
3978.00,0.0070
3977.00,0.0070
3976.00,0.0071
3975.00,0.0071
3974.00,0.0071
3973.00,0.0071
3972.00,0.0071
3971.00,0.0071
3970.00,0.0071
3969.00,0.0071
3968.00,0.0071
3967.00,0.0071
3966.00,0.0071
3965.00,0.0071
3964.00,0.0071
3963.00,0.0071
3962.00,0.0071
3961.00,0.0071
3960.00,0.0071
3959.00,0.0071
3958.00,0.0071
3957.00,0.0071
3956.00,0.0071
3955.00,0.0071
3954.00,0.0071
3953.00,0.0071
3952.00,0.0070
3951.00,0.0070
3950.00,0.0070
3949.00,0.0071
3948.00,0.0071
3947.00,0.0071
3946.00,0.0071
3945.00,0.0071
3944.00,0.0070
3943.00,0.0070
3942.00,0.0070
3941.00,0.0070
3940.00,0.0070
3939.00,0.0070
3938.00,0.0070
3937.00,0.0070
3936.00,0.0070
3935.00,0.0070
3934.00,0.0070
3933.00,0.0070
3932.00,0.0070
3931.00,0.0070
3930.00,0.0070
3929.00,0.0069
3928.00,0.0069
3927.00,0.0070
3926.00,0.0070
3925.00,0.0070
3924.00,0.0070
3923.00,0.0069
3922.00,0.0069
3921.00,0.0070
3920.00,0.0070
3919.00,0.0069
3918.00,0.0069
3917.00,0.0069
3916.00,0.0069
3915.00,0.0069
3914.00,0.0069
3913.00,0.0069
3912.00,0.0069
3911.00,0.0069
3910.00,0.0069
3909.00,0.0069
3908.00,0.0069
3907.00,0.0070
3906.00,0.0069
3905.00,0.0069
3904.00,0.0069
3903.00,0.0069
3902.00,0.0069
3901.00,0.0069
3900.00,0.0069
3899.00,0.0069
3898.00,0.0069
3897.00,0.0069
3896.00,0.0069
3895.00,0.0069
3894.00,0.0069
3893.00,0.0069
3892.00,0.0068
3891.00,0.0068
3890.00,0.0068
3889.00,0.0068
3888.00,0.0068
3887.00,0.0068
3886.00,0.0068
3885.00,0.0068
3884.00,0.0069
3883.00,0.0069
3882.00,0.0069
3881.00,0.0068
3880.00,0.0068
3879.00,0.0068
3878.00,0.0068
3877.00,0.0067
3876.00,0.0067
3875.00,0.0068
3874.00,0.0068
3873.00,0.0068
3872.00,0.0068
3871.00,0.0068
3870.00,0.0068
3869.00,0.0067
3868.00,0.0067
3867.00,0.0067
3866.00,0.0067
3865.00,0.0067
3864.00,0.0068
3863.00,0.0068
3862.00,0.0068
3861.00,0.0068
3860.00,0.0068
3859.00,0.0068
3858.00,0.0067
3857.00,0.0067
3856.00,0.0066
3855.00,0.0066
3854.00,0.0065
3853.00,0.0065
3852.00,0.0066
3851.00,0.0066
3850.00,0.0066
3849.00,0.0067
3848.00,0.0067
3847.00,0.0067
3846.00,0.0067
3845.00,0.0067
3844.00,0.0067
3843.00,0.0067
3842.00,0.0067
3841.00,0.0067
3840.00,0.0067
3839.00,0.0066
3838.00,0.0066
3837.00,0.0066
3836.00,0.0066
3835.00,0.0066
3834.00,0.0066
3833.00,0.0066
3832.00,0.0066
3831.00,0.0066
3830.00,0.0067
3829.00,0.0067
3828.00,0.0067
3827.00,0.0068
3826.00,0.0068
3825.00,0.0067
3824.00,0.0067
3823.00,0.0067
3822.00,0.0067
3821.00,0.0066
3820.00,0.0066
3819.00,0.0066
3818.00,0.0066
3817.00,0.0066
3816.00,0.0066
3815.00,0.0066
3814.00,0.0066
3813.00,0.0067
3812.00,0.0067
3811.00,0.0066
3810.00,0.0066
3809.00,0.0066
3808.00,0.0066
3807.00,0.0066
3806.00,0.0066
3805.00,0.0066
3804.00,0.0065
3803.00,0.0065
3802.00,0.0065
3801.00,0.0065
3800.00,0.0065
3799.00,0.0065
3798.00,0.0065
3797.00,0.0066
3796.00,0.0066
3795.00,0.0066
3794.00,0.0066
3793.00,0.0066
3792.00,0.0066
3791.00,0.0066
3790.00,0.0066
3789.00,0.0066
3788.00,0.0066
3787.00,0.0066
3786.00,0.0066
3785.00,0.0066
3784.00,0.0066
3783.00,0.0065
3782.00,0.0065
3781.00,0.0065
3780.00,0.0065
3779.00,0.0065
3778.00,0.0065
3777.00,0.0065
3776.00,0.0065
3775.00,0.0065
3774.00,0.0065
3773.00,0.0066
3772.00,0.0066
3771.00,0.0066
3770.00,0.0066
3769.00,0.0066
3768.00,0.0066
3767.00,0.0066
3766.00,0.0065
3765.00,0.0065
3764.00,0.0065
3763.00,0.0065
3762.00,0.0065
3761.00,0.0065
3760.00,0.0065
3759.00,0.0065
3758.00,0.0065
3757.00,0.0065
3756.00,0.0065
3755.00,0.0065
3754.00,0.0064
3753.00,0.0064
3752.00,0.0064
3751.00,0.0064
3750.00,0.0063
3749.00,0.0063
3748.00,0.0063
3747.00,0.0063
3746.00,0.0063
3745.00,0.0063
3744.00,0.0063
3743.00,0.0064
3742.00,0.0064
3741.00,0.0063
3740.00,0.0063
3739.00,0.0063
3738.00,0.0063
3737.00,0.0062
3736.00,0.0062
3735.00,0.0061
3734.00,0.0061
3733.00,0.0061
3732.00,0.0061
3731.00,0.0060
3730.00,0.0060
3729.00,0.0060
3728.00,0.0060
3727.00,0.0061
3726.00,0.0061
3725.00,0.0061
3724.00,0.0062
3723.00,0.0062
3722.00,0.0062
3721.00,0.0061
3720.00,0.0061
3719.00,0.0062
3718.00,0.0062
3717.00,0.0062
3716.00,0.0063
3715.00,0.0063
3714.00,0.0063
3713.00,0.0062
3712.00,0.0062
3711.00,0.0061
3710.00,0.0061
3709.00,0.0061
3708.00,0.0061
3707.00,0.0061
3706.00,0.0061
3705.00,0.0061
3704.00,0.0061
3703.00,0.0061
3702.00,0.0061
3701.00,0.0061
3700.00,0.0061
3699.00,0.0061
3698.00,0.0061
3697.00,0.0061
3696.00,0.0061
3695.00,0.0061
3694.00,0.0061
3693.00,0.0061
3692.00,0.0061
3691.00,0.0061
3690.00,0.0061
3689.00,0.0061
3688.00,0.0061
3687.00,0.0061
3686.00,0.0061
3685.00,0.0061
3684.00,0.0061
3683.00,0.0061
3682.00,0.0061
3681.00,0.0061
3680.00,0.0061
3679.00,0.0061
3678.00,0.0061
3677.00,0.0061
3676.00,0.0060
3675.00,0.0060
3674.00,0.0059
3673.00,0.0059
3672.00,0.0060
3671.00,0.0060
3670.00,0.0060
3669.00,0.0060
3668.00,0.0060
3667.00,0.0060
3666.00,0.0060
3665.00,0.0061
3664.00,0.0061
3663.00,0.0061
3662.00,0.0061
3661.00,0.0061
3660.00,0.0061
3659.00,0.0061
3658.00,0.0061
3657.00,0.0061
3656.00,0.0061
3655.00,0.0060
3654.00,0.0060
3653.00,0.0060
3652.00,0.0060
3651.00,0.0060
3650.00,0.0060
3649.00,0.0060
3648.00,0.0059
3647.00,0.0059
3646.00,0.0059
3645.00,0.0060
3644.00,0.0060
3643.00,0.0060
3642.00,0.0060
3641.00,0.0060
3640.00,0.0061
3639.00,0.0061
3638.00,0.0061
3637.00,0.0061
3636.00,0.0061
3635.00,0.0061
3634.00,0.0061
3633.00,0.0061
3632.00,0.0061
3631.00,0.0061
3630.00,0.0061
3629.00,0.0062
3628.00,0.0062
3627.00,0.0063
3626.00,0.0063
3625.00,0.0063
3624.00,0.0063
3623.00,0.0064
3622.00,0.0064
3621.00,0.0064
3620.00,0.0064
3619.00,0.0064
3618.00,0.0064
3617.00,0.0064
3616.00,0.0065
3615.00,0.0065
3614.00,0.0065
3613.00,0.0065
3612.00,0.0065
3611.00,0.0066
3610.00,0.0066
3609.00,0.0065
3608.00,0.0065
3607.00,0.0065
3606.00,0.0065
3605.00,0.0065
3604.00,0.0066
3603.00,0.0066
3602.00,0.0066
3601.00,0.0066
3600.00,0.0066
3599.00,0.0066
3598.00,0.0066
3597.00,0.0067
3596.00,0.0067
3595.00,0.0068
3594.00,0.0068
3593.00,0.0068
3592.00,0.0069
3591.00,0.0069
3590.00,0.0070
3589.00,0.0070
3588.00,0.0071
3587.00,0.0071
3586.00,0.0072
3585.00,0.0073
3584.00,0.0073
3583.00,0.0074
3582.00,0.0075
3581.00,0.0075
3580.00,0.0076
3579.00,0.0076
3578.00,0.0077
3577.00,0.0077
3576.00,0.0078
3575.00,0.0078
3574.00,0.0079
3573.00,0.0079
3572.00,0.0080
3571.00,0.0081
3570.00,0.0082
3569.00,0.0084
3568.00,0.0085
3567.00,0.0085
3566.00,0.0086
3565.00,0.0086
3564.00,0.0087
3563.00,0.0087
3562.00,0.0088
3561.00,0.0089
3560.00,0.0090
3559.00,0.0090
3558.00,0.0091
3557.00,0.0092
3556.00,0.0093
3555.00,0.0094
3554.00,0.0095
3553.00,0.0096
3552.00,0.0098
3551.00,0.0099
3550.00,0.0100
3549.00,0.0101
3548.00,0.0103
3547.00,0.0104
3546.00,0.0106
3545.00,0.0107
3544.00,0.0109
3543.00,0.0110
3542.00,0.0112
3541.00,0.0113
3540.00,0.0115
3539.00,0.0116
3538.00,0.0118
3537.00,0.0120
3536.00,0.0122
3535.00,0.0124
3534.00,0.0126
3533.00,0.0129
3532.00,0.0131
3531.00,0.0134
3530.00,0.0138
3529.00,0.0141
3528.00,0.0145
3527.00,0.0149
3526.00,0.0153
3525.00,0.0157
3524.00,0.0161
3523.00,0.0165
3522.00,0.0169
3521.00,0.0172
3520.00,0.0174
3519.00,0.0175
3518.00,0.0177
3517.00,0.0178
3516.00,0.0179
3515.00,0.0180
3514.00,0.0180
3513.00,0.0181
3512.00,0.0181
3511.00,0.0182
3510.00,0.0183
3509.00,0.0184
3508.00,0.0185
3507.00,0.0186
3506.00,0.0188
3505.00,0.0190
3504.00,0.0191
3503.00,0.0194
3502.00,0.0196
3501.00,0.0198
3500.00,0.0201
3499.00,0.0203
3498.00,0.0206
3497.00,0.0209
3496.00,0.0213
3495.00,0.0217
3494.00,0.0220
3493.00,0.0224
3492.00,0.0228
3491.00,0.0232
3490.00,0.0236
3489.00,0.0241
3488.00,0.0246
3487.00,0.0251
3486.00,0.0257
3485.00,0.0262
3484.00,0.0268
3483.00,0.0275
3482.00,0.0282
3481.00,0.0290
3480.00,0.0298
3479.00,0.0307
3478.00,0.0316
3477.00,0.0326
3476.00,0.0336
3475.00,0.0347
3474.00,0.0359
3473.00,0.0371
3472.00,0.0385
3471.00,0.0399
3470.00,0.0413
3469.00,0.0428
3468.00,0.0444
3467.00,0.0459
3466.00,0.0474
3465.00,0.0489
3464.00,0.0503
3463.00,0.0516
3462.00,0.0529
3461.00,0.0540
3460.00,0.0548
3459.00,0.0555
3458.00,0.0559
3457.00,0.0561
3456.00,0.0560
3455.00,0.0558
3454.00,0.0554
3453.00,0.0548
3452.00,0.0541
3451.00,0.0533
3450.00,0.0524
3449.00,0.0515
3448.00,0.0506
3447.00,0.0498
3446.00,0.0490
3445.00,0.0482
3444.00,0.0476
3443.00,0.0470
3442.00,0.0466
3441.00,0.0462
3440.00,0.0459
3439.00,0.0457
3438.00,0.0456
3437.00,0.0456
3436.00,0.0456
3435.00,0.0456
3434.00,0.0457
3433.00,0.0458
3432.00,0.0459
3431.00,0.0461
3430.00,0.0463
3429.00,0.0466
3428.00,0.0467
3427.00,0.0469
3426.00,0.0470
3425.00,0.0471
3424.00,0.0471
3423.00,0.0471
3422.00,0.0470
3421.00,0.0469
3420.00,0.0468
3419.00,0.0465
3418.00,0.0462
3417.00,0.0459
3416.00,0.0456
3415.00,0.0453
3414.00,0.0449
3413.00,0.0445
3412.00,0.0441
3411.00,0.0437
3410.00,0.0433
3409.00,0.0428
3408.00,0.0424
3407.00,0.0420
3406.00,0.0416
3405.00,0.0412
3404.00,0.0408
3403.00,0.0404
3402.00,0.0400
3401.00,0.0396
3400.00,0.0392
3399.00,0.0387
3398.00,0.0383
3397.00,0.0379
3396.00,0.0376
3395.00,0.0373
3394.00,0.0370
3393.00,0.0367
3392.00,0.0364
3391.00,0.0361
3390.00,0.0359
3389.00,0.0356
3388.00,0.0354
3387.00,0.0353
3386.00,0.0351
3385.00,0.0349
3384.00,0.0348
3383.00,0.0347
3382.00,0.0346
3381.00,0.0346
3380.00,0.0345
3379.00,0.0344
3378.00,0.0344
3377.00,0.0343
3376.00,0.0343
3375.00,0.0343
3374.00,0.0343
3373.00,0.0343
3372.00,0.0343
3371.00,0.0344
3370.00,0.0344
3369.00,0.0344
3368.00,0.0344
3367.00,0.0343
3366.00,0.0343
3365.00,0.0343
3364.00,0.0344
3363.00,0.0344
3362.00,0.0344
3361.00,0.0345
3360.00,0.0345
3359.00,0.0345
3358.00,0.0345
3357.00,0.0345
3356.00,0.0345
3355.00,0.0346
3354.00,0.0346
3353.00,0.0347
3352.00,0.0348
3351.00,0.0349
3350.00,0.0349
3349.00,0.0350
3348.00,0.0351
3347.00,0.0351
3346.00,0.0352
3345.00,0.0353
3344.00,0.0354
3343.00,0.0355
3342.00,0.0356
3341.00,0.0357
3340.00,0.0359
3339.00,0.0360
3338.00,0.0361
3337.00,0.0363
3336.00,0.0364
3335.00,0.0366
3334.00,0.0367
3333.00,0.0369
3332.00,0.0370
3331.00,0.0372
3330.00,0.0374
3329.00,0.0376
3328.00,0.0378
3327.00,0.0381
3326.00,0.0383
3325.00,0.0385
3324.00,0.0387
3323.00,0.0389
3322.00,0.0392
3321.00,0.0395
3320.00,0.0398
3319.00,0.0401
3318.00,0.0404
3317.00,0.0407
3316.00,0.0410
3315.00,0.0414
3314.00,0.0417
3313.00,0.0420
3312.00,0.0424
3311.00,0.0428
3310.00,0.0432
3309.00,0.0437
3308.00,0.0441
3307.00,0.0446
3306.00,0.0450
3305.00,0.0454
3304.00,0.0459
3303.00,0.0463
3302.00,0.0467
3301.00,0.0472
3300.00,0.0477
3299.00,0.0483
3298.00,0.0488
3297.00,0.0494
3296.00,0.0499
3295.00,0.0505
3294.00,0.0510
3293.00,0.0516
3292.00,0.0522
3291.00,0.0528
3290.00,0.0534
3289.00,0.0540
3288.00,0.0546
3287.00,0.0552
3286.00,0.0558
3285.00,0.0564
3284.00,0.0571
3283.00,0.0577
3282.00,0.0583
3281.00,0.0589
3280.00,0.0595
3279.00,0.0601
3278.00,0.0606
3277.00,0.0612
3276.00,0.0618
3275.00,0.0623
3274.00,0.0628
3273.00,0.0633
3272.00,0.0637
3271.00,0.0641
3270.00,0.0644
3269.00,0.0647
3268.00,0.0650
3267.00,0.0653
3266.00,0.0654
3265.00,0.0656
3264.00,0.0657
3263.00,0.0657
3262.00,0.0658
3261.00,0.0658
3260.00,0.0657
3259.00,0.0656
3258.00,0.0655
3257.00,0.0653
3256.00,0.0651
3255.00,0.0649
3254.00,0.0647
3253.00,0.0644
3252.00,0.0641
3251.00,0.0637
3250.00,0.0633
3249.00,0.0629
3248.00,0.0624
3247.00,0.0620
3246.00,0.0615
3245.00,0.0610
3244.00,0.0604
3243.00,0.0599
3242.00,0.0593
3241.00,0.0587
3240.00,0.0581
3239.00,0.0575
3238.00,0.0569
3237.00,0.0563
3236.00,0.0557
3235.00,0.0552
3234.00,0.0546
3233.00,0.0541
3232.00,0.0535
3231.00,0.0530
3230.00,0.0524
3229.00,0.0519
3228.00,0.0514
3227.00,0.0510
3226.00,0.0505
3225.00,0.0501
3224.00,0.0497
3223.00,0.0493
3222.00,0.0490
3221.00,0.0487
3220.00,0.0484
3219.00,0.0481
3218.00,0.0478
3217.00,0.0475
3216.00,0.0473
3215.00,0.0470
3214.00,0.0468
3213.00,0.0466
3212.00,0.0463
3211.00,0.0461
3210.00,0.0459
3209.00,0.0456
3208.00,0.0454
3207.00,0.0452
3206.00,0.0450
3205.00,0.0448
3204.00,0.0446
3203.00,0.0444
3202.00,0.0442
3201.00,0.0440
3200.00,0.0439
3199.00,0.0438
3198.00,0.0436
3197.00,0.0435
3196.00,0.0434
3195.00,0.0432
3194.00,0.0430
3193.00,0.0429
3192.00,0.0428
3191.00,0.0427
3190.00,0.0426
3189.00,0.0425
3188.00,0.0424
3187.00,0.0423
3186.00,0.0422
3185.00,0.0420
3184.00,0.0419
3183.00,0.0418
3182.00,0.0417
3181.00,0.0415
3180.00,0.0414
3179.00,0.0413
3178.00,0.0412
3177.00,0.0411
3176.00,0.0410
3175.00,0.0408
3174.00,0.0407
3173.00,0.0405
3172.00,0.0404
3171.00,0.0402
3170.00,0.0400
3169.00,0.0398
3168.00,0.0396
3167.00,0.0393
3166.00,0.0391
3165.00,0.0388
3164.00,0.0386
3163.00,0.0383
3162.00,0.0380
3161.00,0.0377
3160.00,0.0374
3159.00,0.0371
3158.00,0.0369
3157.00,0.0366
3156.00,0.0363
3155.00,0.0361
3154.00,0.0359
3153.00,0.0357
3152.00,0.0355
3151.00,0.0353
3150.00,0.0352
3149.00,0.0350
3148.00,0.0349
3147.00,0.0347
3146.00,0.0346
3145.00,0.0344
3144.00,0.0342
3143.00,0.0340
3142.00,0.0338
3141.00,0.0336
3140.00,0.0334
3139.00,0.0332
3138.00,0.0330
3137.00,0.0328
3136.00,0.0326
3135.00,0.0324
3134.00,0.0321
3133.00,0.0319
3132.00,0.0317
3131.00,0.0315
3130.00,0.0313
3129.00,0.0310
3128.00,0.0308
3127.00,0.0306
3126.00,0.0303
3125.00,0.0300
3124.00,0.0298
3123.00,0.0295
3122.00,0.0293
3121.00,0.0291
3120.00,0.0289
3119.00,0.0287
3118.00,0.0284
3117.00,0.0282
3116.00,0.0280
3115.00,0.0278
3114.00,0.0277
3113.00,0.0275
3112.00,0.0274
3111.00,0.0272
3110.00,0.0271
3109.00,0.0269
3108.00,0.0268
3107.00,0.0267
3106.00,0.0266
3105.00,0.0265
3104.00,0.0264
3103.00,0.0263
3102.00,0.0261
3101.00,0.0260
3100.00,0.0258
3099.00,0.0257
3098.00,0.0255
3097.00,0.0254
3096.00,0.0252
3095.00,0.0251
3094.00,0.0250
3093.00,0.0248
3092.00,0.0247
3091.00,0.0245
3090.00,0.0243
3089.00,0.0242
3088.00,0.0241
3087.00,0.0239
3086.00,0.0238
3085.00,0.0237
3084.00,0.0237
3083.00,0.0236
3082.00,0.0236
3081.00,0.0236
3080.00,0.0236
3079.00,0.0237
3078.00,0.0238
3077.00,0.0238
3076.00,0.0239
3075.00,0.0238
3074.00,0.0237
3073.00,0.0236
3072.00,0.0233
3071.00,0.0231
3070.00,0.0229
3069.00,0.0226
3068.00,0.0224
3067.00,0.0222
3066.00,0.0221
3065.00,0.0219
3064.00,0.0218
3063.00,0.0218
3062.00,0.0217
3061.00,0.0217
3060.00,0.0217
3059.00,0.0217
3058.00,0.0217
3057.00,0.0217
3056.00,0.0218
3055.00,0.0218
3054.00,0.0219
3053.00,0.0219
3052.00,0.0220
3051.00,0.0221
3050.00,0.0221
3049.00,0.0221
3048.00,0.0220
3047.00,0.0219
3046.00,0.0219
3045.00,0.0218
3044.00,0.0218
3043.00,0.0219
3042.00,0.0220
3041.00,0.0222
3040.00,0.0224
3039.00,0.0227
3038.00,0.0229
3037.00,0.0230
3036.00,0.0231
3035.00,0.0232
3034.00,0.0233
3033.00,0.0234
3032.00,0.0235
3031.00,0.0235
3030.00,0.0235
3029.00,0.0234
3028.00,0.0233
3027.00,0.0232
3026.00,0.0231
3025.00,0.0230
3024.00,0.0229
3023.00,0.0228
3022.00,0.0228
3021.00,0.0227
3020.00,0.0227
3019.00,0.0227
3018.00,0.0227
3017.00,0.0227
3016.00,0.0228
3015.00,0.0229
3014.00,0.0231
3013.00,0.0233
3012.00,0.0236
3011.00,0.0239
3010.00,0.0242
3009.00,0.0246
3008.00,0.0249
3007.00,0.0253
3006.00,0.0257
3005.00,0.0261
3004.00,0.0265
3003.00,0.0268
3002.00,0.0272
3001.00,0.0275
3000.00,0.0278
2999.00,0.0280
2998.00,0.0283
2997.00,0.0285
2996.00,0.0288
2995.00,0.0292
2994.00,0.0296
2993.00,0.0302
2992.00,0.0310
2991.00,0.0319
2990.00,0.0330
2989.00,0.0342
2988.00,0.0356
2987.00,0.0370
2986.00,0.0385
2985.00,0.0399
2984.00,0.0413
2983.00,0.0425
2982.00,0.0436
2981.00,0.0446
2980.00,0.0455
2979.00,0.0464
2978.00,0.0473
2977.00,0.0482
2976.00,0.0492
2975.00,0.0505
2974.00,0.0523
2973.00,0.0549
2972.00,0.0586
2971.00,0.0637
2970.00,0.0702
2969.00,0.0780
2968.00,0.0866
2967.00,0.0951
2966.00,0.1025
2965.00,0.1075
2964.00,0.1091
2963.00,0.1073
2962.00,0.1025
2961.00,0.0962
2960.00,0.0895
2959.00,0.0837
2958.00,0.0794
2957.00,0.0769
2956.00,0.0764
2955.00,0.0775
2954.00,0.0796
2953.00,0.0818
2952.00,0.0828
2951.00,0.0820
2950.00,0.0793
2949.00,0.0752
2948.00,0.0710
2947.00,0.0675
2946.00,0.0654
2945.00,0.0649
2944.00,0.0659
2943.00,0.0685
2942.00,0.0724
2941.00,0.0775
2940.00,0.0834
2939.00,0.0899
2938.00,0.0961
2937.00,0.1016
2936.00,0.1057
2935.00,0.1085
2934.00,0.1101
2933.00,0.1113
2932.00,0.1128
2931.00,0.1153
2930.00,0.1194
2929.00,0.1253
2928.00,0.1331
2927.00,0.1425
2926.00,0.1521
2925.00,0.1603
2924.00,0.1653
2923.00,0.1664
2922.00,0.1642
2921.00,0.1600
2920.00,0.1548
2919.00,0.1497
2918.00,0.1450
2917.00,0.1410
2916.00,0.1378
2915.00,0.1355
2914.00,0.1338
2913.00,0.1323
2912.00,0.1306
2911.00,0.1285
2910.00,0.1258
2909.00,0.1226
2908.00,0.1189
2907.00,0.1148
2906.00,0.1106
2905.00,0.1062
2904.00,0.1019
2903.00,0.0978
2902.00,0.0939
2901.00,0.0904
2900.00,0.0872
2899.00,0.0845
2898.00,0.0821
2897.00,0.0802
2896.00,0.0786
2895.00,0.0774
2894.00,0.0762
2893.00,0.0750
2892.00,0.0736
2891.00,0.0720
2890.00,0.0705
2889.00,0.0690
2888.00,0.0676
2887.00,0.0665
2886.00,0.0655
2885.00,0.0647
2884.00,0.0641
2883.00,0.0636
2882.00,0.0632
2881.00,0.0629
2880.00,0.0628
2879.00,0.0628
2878.00,0.0631
2877.00,0.0638
2876.00,0.0648
2875.00,0.0663
2874.00,0.0683
2873.00,0.0703
2872.00,0.0721
2871.00,0.0731
2870.00,0.0731
2869.00,0.0724
2868.00,0.0714
2867.00,0.0707
2866.00,0.0707
2865.00,0.0720
2864.00,0.0746
2863.00,0.0787
2862.00,0.0843
2861.00,0.0910
2860.00,0.0982
2859.00,0.1050
2858.00,0.1103
2857.00,0.1135
2856.00,0.1144
2855.00,0.1133
2854.00,0.1108
2853.00,0.1076
2852.00,0.1042
2851.00,0.1008
2850.00,0.0977
2849.00,0.0946
2848.00,0.0913
2847.00,0.0875
2846.00,0.0830
2845.00,0.0778
2844.00,0.0723
2843.00,0.0669
2842.00,0.0619
2841.00,0.0574
2840.00,0.0536
2839.00,0.0503
2838.00,0.0475
2837.00,0.0451
2836.00,0.0432
2835.00,0.0416
2834.00,0.0402
2833.00,0.0392
2832.00,0.0383
2831.00,0.0375
2830.00,0.0367
2829.00,0.0360
2828.00,0.0352
2827.00,0.0343
2826.00,0.0334
2825.00,0.0324
2824.00,0.0315
2823.00,0.0307
2822.00,0.0299
2821.00,0.0293
2820.00,0.0286
2819.00,0.0280
2818.00,0.0274
2817.00,0.0269
2816.00,0.0264
2815.00,0.0260
2814.00,0.0256
2813.00,0.0252
2812.00,0.0248
2811.00,0.0245
2810.00,0.0243
2809.00,0.0240
2808.00,0.0238
2807.00,0.0236
2806.00,0.0234
2805.00,0.0232
2804.00,0.0230
2803.00,0.0228
2802.00,0.0226
2801.00,0.0224
2800.00,0.0222
2799.00,0.0220
2798.00,0.0218
2797.00,0.0216
2796.00,0.0214
2795.00,0.0211
2794.00,0.0209
2793.00,0.0207
2792.00,0.0206
2791.00,0.0204
2790.00,0.0202
2789.00,0.0201
2788.00,0.0200
2787.00,0.0199
2786.00,0.0198
2785.00,0.0197
2784.00,0.0196
2783.00,0.0195
2782.00,0.0194
2781.00,0.0193
2780.00,0.0192
2779.00,0.0191
2778.00,0.0189
2777.00,0.0188
2776.00,0.0187
2775.00,0.0187
2774.00,0.0186
2773.00,0.0185
2772.00,0.0185
2771.00,0.0184
2770.00,0.0184
2769.00,0.0183
2768.00,0.0182
2767.00,0.0182
2766.00,0.0181
2765.00,0.0181
2764.00,0.0181
2763.00,0.0180
2762.00,0.0180
2761.00,0.0180
2760.00,0.0181
2759.00,0.0181
2758.00,0.0181
2757.00,0.0182
2756.00,0.0182
2755.00,0.0182
2754.00,0.0182
2753.00,0.0182
2752.00,0.0182
2751.00,0.0182
2750.00,0.0182
2749.00,0.0182
2748.00,0.0183
2747.00,0.0183
2746.00,0.0184
2745.00,0.0185
2744.00,0.0186
2743.00,0.0186
2742.00,0.0187
2741.00,0.0187
2740.00,0.0187
2739.00,0.0188
2738.00,0.0189
2737.00,0.0191
2736.00,0.0194
2735.00,0.0198
2734.00,0.0203
2733.00,0.0208
2732.00,0.0211
2731.00,0.0213
2730.00,0.0213
2729.00,0.0211
2728.00,0.0209
2727.00,0.0207
2726.00,0.0205
2725.00,0.0203
2724.00,0.0201
2723.00,0.0199
2722.00,0.0197
2721.00,0.0194
2720.00,0.0192
2719.00,0.0189
2718.00,0.0187
2717.00,0.0184
2716.00,0.0182
2715.00,0.0180
2714.00,0.0178
2713.00,0.0177
2712.00,0.0176
2711.00,0.0174
2710.00,0.0174
2709.00,0.0173
2708.00,0.0172
2707.00,0.0171
2706.00,0.0170
2705.00,0.0170
2704.00,0.0169
2703.00,0.0168
2702.00,0.0168
2701.00,0.0167
2700.00,0.0167
2699.00,0.0167
2698.00,0.0166
2697.00,0.0166
2696.00,0.0166
2695.00,0.0166
2694.00,0.0166
2693.00,0.0167
2692.00,0.0167
2691.00,0.0168
2690.00,0.0168
2689.00,0.0169
2688.00,0.0169
2687.00,0.0170
2686.00,0.0170
2685.00,0.0170
2684.00,0.0169
2683.00,0.0169
2682.00,0.0169
2681.00,0.0168
2680.00,0.0168
2679.00,0.0167
2678.00,0.0166
2677.00,0.0165
2676.00,0.0165
2675.00,0.0164
2674.00,0.0164
2673.00,0.0163
2672.00,0.0162
2671.00,0.0162
2670.00,0.0161
2669.00,0.0160
2668.00,0.0159
2667.00,0.0159
2666.00,0.0159
2665.00,0.0158
2664.00,0.0158
2663.00,0.0159
2662.00,0.0159
2661.00,0.0159
2660.00,0.0159
2659.00,0.0158
2658.00,0.0158
2657.00,0.0158
2656.00,0.0157
2655.00,0.0157
2654.00,0.0156
2653.00,0.0155
2652.00,0.0154
2651.00,0.0154
2650.00,0.0153
2649.00,0.0152
2648.00,0.0151
2647.00,0.0151
2646.00,0.0150
2645.00,0.0149
2644.00,0.0149
2643.00,0.0148
2642.00,0.0148
2641.00,0.0147
2640.00,0.0146
2639.00,0.0146
2638.00,0.0145
2637.00,0.0145
2636.00,0.0145
2635.00,0.0145
2634.00,0.0145
2633.00,0.0144
2632.00,0.0144
2631.00,0.0144
2630.00,0.0143
2629.00,0.0143
2628.00,0.0143
2627.00,0.0142
2626.00,0.0142
2625.00,0.0141
2624.00,0.0141
2623.00,0.0140
2622.00,0.0139
2621.00,0.0139
2620.00,0.0138
2619.00,0.0138
2618.00,0.0137
2617.00,0.0137
2616.00,0.0137
2615.00,0.0136
2614.00,0.0136
2613.00,0.0136
2612.00,0.0136
2611.00,0.0136
2610.00,0.0135
2609.00,0.0135
2608.00,0.0134
2607.00,0.0134
2606.00,0.0133
2605.00,0.0132
2604.00,0.0132
2603.00,0.0131
2602.00,0.0130
2601.00,0.0130
2600.00,0.0129
2599.00,0.0129
2598.00,0.0128
2597.00,0.0127
2596.00,0.0126
2595.00,0.0126
2594.00,0.0125
2593.00,0.0125
2592.00,0.0125
2591.00,0.0124
2590.00,0.0124
2589.00,0.0124
2588.00,0.0123
2587.00,0.0123
2586.00,0.0124
2585.00,0.0124
2584.00,0.0124
2583.00,0.0124
2582.00,0.0124
2581.00,0.0123
2580.00,0.0123
2579.00,0.0123
2578.00,0.0123
2577.00,0.0123
2576.00,0.0123
2575.00,0.0123
2574.00,0.0123
2573.00,0.0123
2572.00,0.0123
2571.00,0.0123
2570.00,0.0123
2569.00,0.0122
2568.00,0.0122
2567.00,0.0121
2566.00,0.0120
2565.00,0.0120
2564.00,0.0119
2563.00,0.0119
2562.00,0.0119
2561.00,0.0118
2560.00,0.0118
2559.00,0.0117
2558.00,0.0116
2557.00,0.0116
2556.00,0.0115
2555.00,0.0114
2554.00,0.0114
2553.00,0.0113
2552.00,0.0113
2551.00,0.0113
2550.00,0.0113
2549.00,0.0113
2548.00,0.0113
2547.00,0.0113
2546.00,0.0112
2545.00,0.0112
2544.00,0.0112
2543.00,0.0112
2542.00,0.0112
2541.00,0.0111
2540.00,0.0111
2539.00,0.0111
2538.00,0.0110
2537.00,0.0110
2536.00,0.0110
2535.00,0.0110
2534.00,0.0110
2533.00,0.0110
2532.00,0.0110
2531.00,0.0110
2530.00,0.0110
2529.00,0.0110
2528.00,0.0111
2527.00,0.0111
2526.00,0.0111
2525.00,0.0111
2524.00,0.0111
2523.00,0.0111
2522.00,0.0110
2521.00,0.0110
2520.00,0.0109
2519.00,0.0109
2518.00,0.0108
2517.00,0.0108
2516.00,0.0108
2515.00,0.0108
2514.00,0.0107
2513.00,0.0107
2512.00,0.0107
2511.00,0.0107
2510.00,0.0107
2509.00,0.0106
2508.00,0.0105
2507.00,0.0104
2506.00,0.0104
2505.00,0.0104
2504.00,0.0104
2503.00,0.0104
2502.00,0.0104
2501.00,0.0104
2500.00,0.0103
2499.00,0.0103
2498.00,0.0103
2497.00,0.0103
2496.00,0.0103
2495.00,0.0103
2494.00,0.0103
2493.00,0.0103
2492.00,0.0103
2491.00,0.0103
2490.00,0.0103
2489.00,0.0103
2488.00,0.0102
2487.00,0.0102
2486.00,0.0102
2485.00,0.0102
2484.00,0.0101
2483.00,0.0101
2482.00,0.0101
2481.00,0.0101
2480.00,0.0101
2479.00,0.0101
2478.00,0.0100
2477.00,0.0100
2476.00,0.0101
2475.00,0.0101
2474.00,0.0101
2473.00,0.0101
2472.00,0.0101
2471.00,0.0100
2470.00,0.0100
2469.00,0.0100
2468.00,0.0099
2467.00,0.0099
2466.00,0.0099
2465.00,0.0099
2464.00,0.0098
2463.00,0.0098
2462.00,0.0098
2461.00,0.0099
2460.00,0.0099
2459.00,0.0099
2458.00,0.0099
2457.00,0.0099
2456.00,0.0098
2455.00,0.0098
2454.00,0.0098
2453.00,0.0098
2452.00,0.0097
2451.00,0.0097
2450.00,0.0097
2449.00,0.0097
2448.00,0.0097
2447.00,0.0096
2446.00,0.0096
2445.00,0.0096
2444.00,0.0096
2443.00,0.0096
2442.00,0.0095
2441.00,0.0095
2440.00,0.0095
2439.00,0.0094
2438.00,0.0094
2437.00,0.0093
2436.00,0.0093
2435.00,0.0093
2434.00,0.0093
2433.00,0.0092
2432.00,0.0092
2431.00,0.0092
2430.00,0.0092
2429.00,0.0092
2428.00,0.0091
2427.00,0.0091
2426.00,0.0091
2425.00,0.0090
2424.00,0.0090
2423.00,0.0089
2422.00,0.0089
2421.00,0.0089
2420.00,0.0089
2419.00,0.0089
2418.00,0.0089
2417.00,0.0088
2416.00,0.0088
2415.00,0.0088
2414.00,0.0088
2413.00,0.0088
2412.00,0.0088
2411.00,0.0088
2410.00,0.0088
2409.00,0.0088
2408.00,0.0088
2407.00,0.0087
2406.00,0.0086
2405.00,0.0086
2404.00,0.0086
2403.00,0.0086
2402.00,0.0085
2401.00,0.0085
2400.00,0.0085
2399.00,0.0084
2398.00,0.0084
2397.00,0.0084
2396.00,0.0084
2395.00,0.0084
2394.00,0.0084
2393.00,0.0084
2392.00,0.0084
2391.00,0.0084
2390.00,0.0084
2389.00,0.0083
2388.00,0.0083
2387.00,0.0083
2386.00,0.0082
2385.00,0.0081
2384.00,0.0079
2383.00,0.0078
2382.00,0.0077
2381.00,0.0076
2380.00,0.0076
2379.00,0.0076
2378.00,0.0076
2377.00,0.0077
2376.00,0.0077
2375.00,0.0077
2374.00,0.0077
2373.00,0.0077
2372.00,0.0076
2371.00,0.0075
2370.00,0.0075
2369.00,0.0074
2368.00,0.0074
2367.00,0.0074
2366.00,0.0074
2365.00,0.0074
2364.00,0.0074
2363.00,0.0075
2362.00,0.0075
2361.00,0.0075
2360.00,0.0075
2359.00,0.0075
2358.00,0.0075
2357.00,0.0076
2356.00,0.0077
2355.00,0.0078
2354.00,0.0078
2353.00,0.0077
2352.00,0.0076
2351.00,0.0076
2350.00,0.0076
2349.00,0.0076
2348.00,0.0076
2347.00,0.0076
2346.00,0.0076
2345.00,0.0075
2344.00,0.0075
2343.00,0.0075
2342.00,0.0076
2341.00,0.0076
2340.00,0.0078
2339.00,0.0079
2338.00,0.0079
2337.00,0.0080
2336.00,0.0080
2335.00,0.0080
2334.00,0.0080
2333.00,0.0080
2332.00,0.0080
2331.00,0.0080
2330.00,0.0081
2329.00,0.0082
2328.00,0.0086
2327.00,0.0090
2326.00,0.0094
2325.00,0.0095
2324.00,0.0093
2323.00,0.0091
2322.00,0.0088
2321.00,0.0086
2320.00,0.0085
2319.00,0.0084
2318.00,0.0083
2317.00,0.0082
2316.00,0.0082
2315.00,0.0081
2314.00,0.0080
2313.00,0.0079
2312.00,0.0077
2311.00,0.0076
2310.00,0.0075
2309.00,0.0075
2308.00,0.0075
2307.00,0.0075
2306.00,0.0076
2305.00,0.0077
2304.00,0.0077
2303.00,0.0078
2302.00,0.0079
2301.00,0.0079
2300.00,0.0080
2299.00,0.0080
2298.00,0.0081
2297.00,0.0081
2296.00,0.0081
2295.00,0.0082
2294.00,0.0083
2293.00,0.0084
2292.00,0.0085
2291.00,0.0086
2290.00,0.0086
2289.00,0.0087
2288.00,0.0088
2287.00,0.0088
2286.00,0.0088
2285.00,0.0087
2284.00,0.0086
2283.00,0.0085
2282.00,0.0084
2281.00,0.0084
2280.00,0.0083
2279.00,0.0082
2278.00,0.0081
2277.00,0.0080
2276.00,0.0080
2275.00,0.0080
2274.00,0.0080
2273.00,0.0080
2272.00,0.0080
2271.00,0.0080
2270.00,0.0080
2269.00,0.0079
2268.00,0.0078
2267.00,0.0078
2266.00,0.0077
2265.00,0.0077
2264.00,0.0077
2263.00,0.0076
2262.00,0.0076
2261.00,0.0076
2260.00,0.0077
2259.00,0.0078
2258.00,0.0077
2257.00,0.0076
2256.00,0.0075
2255.00,0.0075
2254.00,0.0074
2253.00,0.0075
2252.00,0.0075
2251.00,0.0075
2250.00,0.0075
2249.00,0.0076
2248.00,0.0076
2247.00,0.0077
2246.00,0.0077
2245.00,0.0077
2244.00,0.0077
2243.00,0.0076
2242.00,0.0075
2241.00,0.0075
2240.00,0.0075
2239.00,0.0074
2238.00,0.0074
2237.00,0.0074
2236.00,0.0075
2235.00,0.0076
2234.00,0.0076
2233.00,0.0076
2232.00,0.0077
2231.00,0.0077
2230.00,0.0077
2229.00,0.0077
2228.00,0.0077
2227.00,0.0076
2226.00,0.0075
2225.00,0.0075
2224.00,0.0075
2223.00,0.0076
2222.00,0.0077
2221.00,0.0077
2220.00,0.0078
2219.00,0.0078
2218.00,0.0078
2217.00,0.0078
2216.00,0.0078
2215.00,0.0077
2214.00,0.0077
2213.00,0.0077
2212.00,0.0078
2211.00,0.0079
2210.00,0.0080
2209.00,0.0079
2208.00,0.0079
2207.00,0.0077
2206.00,0.0076
2205.00,0.0076
2204.00,0.0077
2203.00,0.0077
2202.00,0.0077
2201.00,0.0076
2200.00,0.0075
2199.00,0.0074
2198.00,0.0073
2197.00,0.0073
2196.00,0.0073
2195.00,0.0074
2194.00,0.0074
2193.00,0.0075
2192.00,0.0075
2191.00,0.0075
2190.00,0.0075
2189.00,0.0076
2188.00,0.0078
2187.00,0.0079
2186.00,0.0079
2185.00,0.0077
2184.00,0.0074
2183.00,0.0070
2182.00,0.0068
2181.00,0.0067
2180.00,0.0069
2179.00,0.0070
2178.00,0.0070
2177.00,0.0069
2176.00,0.0068
2175.00,0.0068
2174.00,0.0071
2173.00,0.0074
2172.00,0.0078
2171.00,0.0080
2170.00,0.0082
2169.00,0.0084
2168.00,0.0085
2167.00,0.0086
2166.00,0.0087
2165.00,0.0089
2164.00,0.0091
2163.00,0.0089
2162.00,0.0082
2161.00,0.0067
2160.00,0.0050
2159.00,0.0036
2158.00,0.0030
2157.00,0.0032
2156.00,0.0037
2155.00,0.0042
2154.00,0.0046
2153.00,0.0048
2152.00,0.0049
2151.00,0.0049
2150.00,0.0049
2149.00,0.0050
2148.00,0.0050
2147.00,0.0050
2146.00,0.0050
2145.00,0.0050
2144.00,0.0050
2143.00,0.0051
2142.00,0.0051
2141.00,0.0052
2140.00,0.0053
2139.00,0.0054
2138.00,0.0053
2137.00,0.0052
2136.00,0.0050
2135.00,0.0048
2134.00,0.0047
2133.00,0.0048
2132.00,0.0050
2131.00,0.0052
2130.00,0.0053
2129.00,0.0054
2128.00,0.0055
2127.00,0.0057
2126.00,0.0059
2125.00,0.0061
2124.00,0.0062
2123.00,0.0064
2122.00,0.0064
2121.00,0.0065
2120.00,0.0065
2119.00,0.0066
2118.00,0.0067
2117.00,0.0068
2116.00,0.0069
2115.00,0.0070
2114.00,0.0070
2113.00,0.0070
2112.00,0.0071
2111.00,0.0071
2110.00,0.0071
2109.00,0.0070
2108.00,0.0070
2107.00,0.0070
2106.00,0.0069
2105.00,0.0070
2104.00,0.0070
2103.00,0.0070
2102.00,0.0070
2101.00,0.0070
2100.00,0.0069
2099.00,0.0067
2098.00,0.0065
2097.00,0.0062
2096.00,0.0060
2095.00,0.0058
2094.00,0.0058
2093.00,0.0058
2092.00,0.0059
2091.00,0.0060
2090.00,0.0060
2089.00,0.0061
2088.00,0.0062
2087.00,0.0062
2086.00,0.0062
2085.00,0.0063
2084.00,0.0064
2083.00,0.0066
2082.00,0.0067
2081.00,0.0068
2080.00,0.0069
2079.00,0.0068
2078.00,0.0068
2077.00,0.0068
2076.00,0.0068
2075.00,0.0068
2074.00,0.0068
2073.00,0.0068
2072.00,0.0067
2071.00,0.0067
2070.00,0.0066
2069.00,0.0066
2068.00,0.0066
2067.00,0.0066
2066.00,0.0065
2065.00,0.0065
2064.00,0.0065
2063.00,0.0065
2062.00,0.0066
2061.00,0.0067
2060.00,0.0067
2059.00,0.0067
2058.00,0.0067
2057.00,0.0067
2056.00,0.0067
2055.00,0.0068
2054.00,0.0072
2053.00,0.0077
2052.00,0.0081
2051.00,0.0080
2050.00,0.0076
2049.00,0.0071
2048.00,0.0067
2047.00,0.0064
2046.00,0.0062
2045.00,0.0063
2044.00,0.0064
2043.00,0.0064
2042.00,0.0064
2041.00,0.0064
2040.00,0.0064
2039.00,0.0064
2038.00,0.0062
2037.00,0.0060
2036.00,0.0057
2035.00,0.0053
2034.00,0.0049
2033.00,0.0047
2032.00,0.0047
2031.00,0.0046
2030.00,0.0045
2029.00,0.0044
2028.00,0.0043
2027.00,0.0043
2026.00,0.0042
2025.00,0.0041
2024.00,0.0041
2023.00,0.0041
2022.00,0.0041
2021.00,0.0042
2020.00,0.0043
2019.00,0.0044
2018.00,0.0044
2017.00,0.0045
2016.00,0.0047
2015.00,0.0048
2014.00,0.0050
2013.00,0.0052
2012.00,0.0054
2011.00,0.0054
2010.00,0.0053
2009.00,0.0050
2008.00,0.0047
2007.00,0.0044
2006.00,0.0042
2005.00,0.0043
2004.00,0.0046
2003.00,0.0047
2002.00,0.0048
2001.00,0.0048
2000.00,0.0049
1999.00,0.0050
1998.00,0.0052
1997.00,0.0054
1996.00,0.0057
1995.00,0.0058
1994.00,0.0059
1993.00,0.0060
1992.00,0.0061
1991.00,0.0061
1990.00,0.0061
1989.00,0.0060
1988.00,0.0061
1987.00,0.0061
1986.00,0.0063
1985.00,0.0066
1984.00,0.0070
1983.00,0.0073
1982.00,0.0075
1981.00,0.0075
1980.00,0.0071
1979.00,0.0063
1978.00,0.0055
1977.00,0.0050
1976.00,0.0050
1975.00,0.0051
1974.00,0.0052
1973.00,0.0053
1972.00,0.0053
1971.00,0.0052
1970.00,0.0051
1969.00,0.0051
1968.00,0.0052
1967.00,0.0052
1966.00,0.0051
1965.00,0.0051
1964.00,0.0051
1963.00,0.0050
1962.00,0.0048
1961.00,0.0047
1960.00,0.0045
1959.00,0.0045
1958.00,0.0046
1957.00,0.0048
1956.00,0.0050
1955.00,0.0051
1954.00,0.0051
1953.00,0.0051
1952.00,0.0052
1951.00,0.0052
1950.00,0.0051
1949.00,0.0052
1948.00,0.0053
1947.00,0.0053
1946.00,0.0053
1945.00,0.0053
1944.00,0.0053
1943.00,0.0053
1942.00,0.0052
1941.00,0.0052
1940.00,0.0052
1939.00,0.0052
1938.00,0.0053
1937.00,0.0053
1936.00,0.0054
1935.00,0.0054
1934.00,0.0053
1933.00,0.0053
1932.00,0.0053
1931.00,0.0054
1930.00,0.0054
1929.00,0.0056
1928.00,0.0057
1927.00,0.0056
1926.00,0.0055
1925.00,0.0055
1924.00,0.0057
1923.00,0.0058
1922.00,0.0060
1921.00,0.0061
1920.00,0.0062
1919.00,0.0062
1918.00,0.0061
1917.00,0.0060
1916.00,0.0061
1915.00,0.0061
1914.00,0.0062
1913.00,0.0062
1912.00,0.0063
1911.00,0.0063
1910.00,0.0062
1909.00,0.0062
1908.00,0.0063
1907.00,0.0063
1906.00,0.0063
1905.00,0.0063
1904.00,0.0064
1903.00,0.0064
1902.00,0.0064
1901.00,0.0064
1900.00,0.0064
1899.00,0.0063
1898.00,0.0063
1897.00,0.0063
1896.00,0.0064
1895.00,0.0064
1894.00,0.0065
1893.00,0.0065
1892.00,0.0065
1891.00,0.0064
1890.00,0.0064
1889.00,0.0065
1888.00,0.0065
1887.00,0.0065
1886.00,0.0065
1885.00,0.0065
1884.00,0.0065
1883.00,0.0065
1882.00,0.0065
1881.00,0.0065
1880.00,0.0065
1879.00,0.0065
1878.00,0.0065
1877.00,0.0065
1876.00,0.0066
1875.00,0.0066
1874.00,0.0066
1873.00,0.0065
1872.00,0.0065
1871.00,0.0064
1870.00,0.0063
1869.00,0.0063
1868.00,0.0064
1867.00,0.0064
1866.00,0.0064
1865.00,0.0065
1864.00,0.0066
1863.00,0.0066
1862.00,0.0066
1861.00,0.0067
1860.00,0.0067
1859.00,0.0067
1858.00,0.0067
1857.00,0.0067
1856.00,0.0067
1855.00,0.0067
1854.00,0.0066
1853.00,0.0066
1852.00,0.0067
1851.00,0.0067
1850.00,0.0067
1849.00,0.0067
1848.00,0.0067
1847.00,0.0066
1846.00,0.0065
1845.00,0.0065
1844.00,0.0066
1843.00,0.0066
1842.00,0.0066
1841.00,0.0066
1840.00,0.0067
1839.00,0.0068
1838.00,0.0068
1837.00,0.0069
1836.00,0.0069
1835.00,0.0069
1834.00,0.0070
1833.00,0.0070
1832.00,0.0069
1831.00,0.0068
1830.00,0.0068
1829.00,0.0068
1828.00,0.0068
1827.00,0.0069
1826.00,0.0070
1825.00,0.0071
1824.00,0.0072
1823.00,0.0072
1822.00,0.0072
1821.00,0.0072
1820.00,0.0071
1819.00,0.0071
1818.00,0.0070
1817.00,0.0070
1816.00,0.0070
1815.00,0.0071
1814.00,0.0072
1813.00,0.0072
1812.00,0.0073
1811.00,0.0073
1810.00,0.0073
1809.00,0.0073
1808.00,0.0074
1807.00,0.0075
1806.00,0.0075
1805.00,0.0075
1804.00,0.0075
1803.00,0.0075
1802.00,0.0075
1801.00,0.0075
1800.00,0.0074
1799.00,0.0074
1798.00,0.0074
1797.00,0.0074
1796.00,0.0074
1795.00,0.0074
1794.00,0.0073
1793.00,0.0072
1792.00,0.0072
1791.00,0.0073
1790.00,0.0074
1789.00,0.0075
1788.00,0.0076
1787.00,0.0077
1786.00,0.0077
1785.00,0.0078
1784.00,0.0078
1783.00,0.0078
1782.00,0.0078
1781.00,0.0078
1780.00,0.0078
1779.00,0.0078
1778.00,0.0078
1777.00,0.0078
1776.00,0.0078
1775.00,0.0078
1774.00,0.0077
1773.00,0.0076
1772.00,0.0076
1771.00,0.0076
1770.00,0.0076
1769.00,0.0078
1768.00,0.0080
1767.00,0.0081
1766.00,0.0082
1765.00,0.0082
1764.00,0.0083
1763.00,0.0083
1762.00,0.0083
1761.00,0.0082
1760.00,0.0082
1759.00,0.0082
1758.00,0.0083
1757.00,0.0083
1756.00,0.0083
1755.00,0.0083
1754.00,0.0083
1753.00,0.0083
1752.00,0.0084
1751.00,0.0084
1750.00,0.0084
1749.00,0.0084
1748.00,0.0085
1747.00,0.0087
1746.00,0.0088
1745.00,0.0090
1744.00,0.0092
1743.00,0.0094
1742.00,0.0095
1741.00,0.0095
1740.00,0.0095
1739.00,0.0095
1738.00,0.0095
1737.00,0.0094
1736.00,0.0092
1735.00,0.0091
1734.00,0.0088
1733.00,0.0087
1732.00,0.0086
1731.00,0.0087
1730.00,0.0087
1729.00,0.0087
1728.00,0.0087
1727.00,0.0087
1726.00,0.0087
1725.00,0.0087
1724.00,0.0088
1723.00,0.0090
1722.00,0.0090
1721.00,0.0091
1720.00,0.0092
1719.00,0.0092
1718.00,0.0093
1717.00,0.0094
1716.00,0.0095
1715.00,0.0095
1714.00,0.0094
1713.00,0.0094
1712.00,0.0094
1711.00,0.0094
1710.00,0.0094
1709.00,0.0093
1708.00,0.0092
1707.00,0.0091
1706.00,0.0090
1705.00,0.0089
1704.00,0.0089
1703.00,0.0089
1702.00,0.0087
1701.00,0.0086
1700.00,0.0085
1699.00,0.0085
1698.00,0.0085
1697.00,0.0086
1696.00,0.0088
1695.00,0.0089
1694.00,0.0090
1693.00,0.0091
1692.00,0.0093
1691.00,0.0094
1690.00,0.0094
1689.00,0.0094
1688.00,0.0094
1687.00,0.0092
1686.00,0.0090
1685.00,0.0088
1684.00,0.0087
1683.00,0.0088
1682.00,0.0090
1681.00,0.0094
1680.00,0.0099
1679.00,0.0104
1678.00,0.0107
1677.00,0.0110
1676.00,0.0114
1675.00,0.0116
1674.00,0.0117
1673.00,0.0117
1672.00,0.0115
1671.00,0.0112
1670.00,0.0107
1669.00,0.0101
1668.00,0.0097
1667.00,0.0095
1666.00,0.0093
1665.00,0.0092
1664.00,0.0091
1663.00,0.0091
1662.00,0.0091
1661.00,0.0092
1660.00,0.0095
1659.00,0.0098
1658.00,0.0100
1657.00,0.0101
1656.00,0.0102
1655.00,0.0104
1654.00,0.0108
1653.00,0.0117
1652.00,0.0128
1651.00,0.0138
1650.00,0.0146
1649.00,0.0156
1648.00,0.0172
1647.00,0.0197
1646.00,0.0227
1645.00,0.0257
1644.00,0.0288
1643.00,0.0323
1642.00,0.0363
1641.00,0.0413
1640.00,0.0471
1639.00,0.0533
1638.00,0.0599
1637.00,0.0676
1636.00,0.0763
1635.00,0.0838
1634.00,0.0878
1633.00,0.0889
1632.00,0.0883
1631.00,0.0867
1630.00,0.0843
1629.00,0.0812
1628.00,0.0778
1627.00,0.0742
1626.00,0.0708
1625.00,0.0673
1624.00,0.0633
1623.00,0.0591
1622.00,0.0550
1621.00,0.0514
1620.00,0.0482
1619.00,0.0449
1618.00,0.0414
1617.00,0.0378
1616.00,0.0346
1615.00,0.0321
1614.00,0.0304
1613.00,0.0290
1612.00,0.0278
1611.00,0.0266
1610.00,0.0256
1609.00,0.0249
1608.00,0.0245
1607.00,0.0241
1606.00,0.0241
1605.00,0.0243
1604.00,0.0246
1603.00,0.0252
1602.00,0.0260
1601.00,0.0271
1600.00,0.0285
1599.00,0.0301
1598.00,0.0321
1597.00,0.0346
1596.00,0.0377
1595.00,0.0412
1594.00,0.0453
1593.00,0.0500
1592.00,0.0556
1591.00,0.0623
1590.00,0.0708
1589.00,0.0813
1588.00,0.0938
1587.00,0.1075
1586.00,0.1206
1585.00,0.1308
1584.00,0.1363
1583.00,0.1357
1582.00,0.1296
1581.00,0.1199
1580.00,0.1093
1579.00,0.0990
1578.00,0.0891
1577.00,0.0789
1576.00,0.0692
1575.00,0.0615
1574.00,0.0562
1573.00,0.0522
1572.00,0.0487
1571.00,0.0451
1570.00,0.0413
1569.00,0.0380
1568.00,0.0355
1567.00,0.0336
1566.00,0.0320
1565.00,0.0304
1564.00,0.0290
1563.00,0.0278
1562.00,0.0267
1561.00,0.0257
1560.00,0.0245
1559.00,0.0230
1558.00,0.0220
1557.00,0.0217
1556.00,0.0216
1555.00,0.0215
1554.00,0.0214
1553.00,0.0213
1552.00,0.0212
1551.00,0.0210
1550.00,0.0210
1549.00,0.0209
1548.00,0.0209
1547.00,0.0208
1546.00,0.0208
1545.00,0.0209
1544.00,0.0210
1543.00,0.0210
1542.00,0.0211
1541.00,0.0216
1540.00,0.0225
1539.00,0.0236
1538.00,0.0247
1537.00,0.0257
1536.00,0.0267
1535.00,0.0279
1534.00,0.0296
1533.00,0.0321
1532.00,0.0347
1531.00,0.0375
1530.00,0.0408
1529.00,0.0450
1528.00,0.0504
1527.00,0.0569
1526.00,0.0639
1525.00,0.0703
1524.00,0.0748
1523.00,0.0772
1522.00,0.0774
1521.00,0.0758
1520.00,0.0735
1519.00,0.0717
1518.00,0.0707
1517.00,0.0706
1516.00,0.0709
1515.00,0.0708
1514.00,0.0695
1513.00,0.0669
1512.00,0.0631
1511.00,0.0587
1510.00,0.0545
1509.00,0.0507
1508.00,0.0470
1507.00,0.0432
1506.00,0.0399
1505.00,0.0378
1504.00,0.0365
1503.00,0.0354
1502.00,0.0343
1501.00,0.0330
1500.00,0.0317
1499.00,0.0304
1498.00,0.0291
1497.00,0.0280
1496.00,0.0270
1495.00,0.0262
1494.00,0.0255
1493.00,0.0248
1492.00,0.0241
1491.00,0.0234
1490.00,0.0226
1489.00,0.0221
1488.00,0.0218
1487.00,0.0216
1486.00,0.0215
1485.00,0.0216
1484.00,0.0217
1483.00,0.0219
1482.00,0.0222
1481.00,0.0226
1480.00,0.0231
1479.00,0.0235
1478.00,0.0241
1477.00,0.0249
1476.00,0.0259
1475.00,0.0271
1474.00,0.0288
1473.00,0.0319
1472.00,0.0372
1471.00,0.0447
1470.00,0.0542
1469.00,0.0651
1468.00,0.0753
1467.00,0.0815
1466.00,0.0815
1465.00,0.0766
1464.00,0.0714
1463.00,0.0693
1462.00,0.0703
1461.00,0.0734
1460.00,0.0782
1459.00,0.0847
1458.00,0.0941
1457.00,0.1065
1456.00,0.1183
1455.00,0.1269
1454.00,0.1340
1453.00,0.1417
1452.00,0.1509
1451.00,0.1614
1450.00,0.1736
1449.00,0.1881
1448.00,0.2044
1447.00,0.2190
1446.00,0.2288
1445.00,0.2326
1444.00,0.2305
1443.00,0.2237
1442.00,0.2136
1441.00,0.2021
1440.00,0.1903
1439.00,0.1784
1438.00,0.1660
1437.00,0.1527
1436.00,0.1399
1435.00,0.1292
1434.00,0.1206
1433.00,0.1127
1432.00,0.1050
1431.00,0.0973
1430.00,0.0900
1429.00,0.0833
1428.00,0.0772
1427.00,0.0718
1426.00,0.0669
1425.00,0.0620
1424.00,0.0575
1423.00,0.0536
1422.00,0.0506
1421.00,0.0481
1420.00,0.0458
1419.00,0.0439
1418.00,0.0426
1417.00,0.0417
1416.00,0.0411
1415.00,0.0409
1414.00,0.0409
1413.00,0.0411
1412.00,0.0414
1411.00,0.0421
1410.00,0.0431
1409.00,0.0440
1408.00,0.0450
1407.00,0.0461
1406.00,0.0473
1405.00,0.0485
1404.00,0.0496
1403.00,0.0504
1402.00,0.0509
1401.00,0.0512
1400.00,0.0513
1399.00,0.0515
1398.00,0.0517
1397.00,0.0518
1396.00,0.0522
1395.00,0.0531
1394.00,0.0544
1393.00,0.0558
1392.00,0.0570
1391.00,0.0578
1390.00,0.0579
1389.00,0.0570
1388.00,0.0552
1387.00,0.0532
1386.00,0.0516
1385.00,0.0510
1384.00,0.0512
1383.00,0.0518
1382.00,0.0524
1381.00,0.0526
1380.00,0.0528
1379.00,0.0536
1378.00,0.0555
1377.00,0.0582
1376.00,0.0610
1375.00,0.0628
1374.00,0.0627
1373.00,0.0606
1372.00,0.0574
1371.00,0.0547
1370.00,0.0531
1369.00,0.0528
1368.00,0.0529
1367.00,0.0524
1366.00,0.0508
1365.00,0.0482
1364.00,0.0450
1363.00,0.0421
1362.00,0.0397
1361.00,0.0382
1360.00,0.0374
1359.00,0.0372
1358.00,0.0375
1357.00,0.0385
1356.00,0.0401
1355.00,0.0426
1354.00,0.0461
1353.00,0.0506
1352.00,0.0560
1351.00,0.0622
1350.00,0.0694
1349.00,0.0782
1348.00,0.0894
1347.00,0.1036
1346.00,0.1194
1345.00,0.1338
1344.00,0.1431
1343.00,0.1448
1342.00,0.1393
1341.00,0.1295
1340.00,0.1190
1339.00,0.1112
1338.00,0.1075
1337.00,0.1072
1336.00,0.1079
1335.00,0.1071
1334.00,0.1032
1333.00,0.0963
1332.00,0.0884
1331.00,0.0815
1330.00,0.0763
1329.00,0.0728
1328.00,0.0709
1327.00,0.0703
1326.00,0.0714
1325.00,0.0743
1324.00,0.0790
1323.00,0.0852
1322.00,0.0922
1321.00,0.0990
1320.00,0.1048
1319.00,0.1088
1318.00,0.1108
1317.00,0.1113
1316.00,0.1113
1315.00,0.1120
1314.00,0.1141
1313.00,0.1176
1312.00,0.1215
1311.00,0.1239
1310.00,0.1227
1309.00,0.1172
1308.00,0.1082
1307.00,0.0977
1306.00,0.0876
1305.00,0.0792
1304.00,0.0726
1303.00,0.0675
1302.00,0.0635
1301.00,0.0601
1300.00,0.0571
1299.00,0.0543
1298.00,0.0519
1297.00,0.0498
1296.00,0.0479
1295.00,0.0464
1294.00,0.0452
1293.00,0.0443
1292.00,0.0436
1291.00,0.0433
1290.00,0.0434
1289.00,0.0441
1288.00,0.0454
1287.00,0.0474
1286.00,0.0498
1285.00,0.0519
1284.00,0.0533
1283.00,0.0537
1282.00,0.0537
1281.00,0.0536
1280.00,0.0538
1279.00,0.0544
1278.00,0.0554
1277.00,0.0568
1276.00,0.0586
1275.00,0.0610
1274.00,0.0638
1273.00,0.0667
1272.00,0.0690
1271.00,0.0702
1270.00,0.0701
1269.00,0.0694
1268.00,0.0693
1267.00,0.0707
1266.00,0.0741
1265.00,0.0793
1264.00,0.0860
1263.00,0.0934
1262.00,0.1005
1261.00,0.1062
1260.00,0.1095
1259.00,0.1099
1258.00,0.1073
1257.00,0.1023
1256.00,0.0958
1255.00,0.0888
1254.00,0.0822
1253.00,0.0762
1252.00,0.0712
1251.00,0.0669
1250.00,0.0631
1249.00,0.0598
1248.00,0.0568
1247.00,0.0542
1246.00,0.0520
1245.00,0.0501
1244.00,0.0484
1243.00,0.0467
1242.00,0.0452
1241.00,0.0438
1240.00,0.0425
1239.00,0.0413
1238.00,0.0402
1237.00,0.0392
1236.00,0.0383
1235.00,0.0375
1234.00,0.0369
1233.00,0.0366
1232.00,0.0366
1231.00,0.0373
1230.00,0.0387
1229.00,0.0410
1228.00,0.0438
1227.00,0.0467
1226.00,0.0491
1225.00,0.0509
1224.00,0.0526
1223.00,0.0551
1222.00,0.0591
1221.00,0.0647
1220.00,0.0713
1219.00,0.0775
1218.00,0.0815
1217.00,0.0822
1216.00,0.0796
1215.00,0.0750
1214.00,0.0699
1213.00,0.0653
1212.00,0.0616
1211.00,0.0590
1210.00,0.0575
1209.00,0.0571
1208.00,0.0576
1207.00,0.0592
1206.00,0.0619
1205.00,0.0657
1204.00,0.0706
1203.00,0.0766
1202.00,0.0835
1201.00,0.0907
1200.00,0.0974
1199.00,0.1024
1198.00,0.1044
1197.00,0.1024
1196.00,0.0968
1195.00,0.0884
1194.00,0.0788
1193.00,0.0695
1192.00,0.0614
1191.00,0.0551
1190.00,0.0507
1189.00,0.0482
1188.00,0.0477
1187.00,0.0491
1186.00,0.0518
1185.00,0.0548
1184.00,0.0566
1183.00,0.0567
1182.00,0.0552
1181.00,0.0530
1180.00,0.0512
1179.00,0.0505
1178.00,0.0513
1177.00,0.0535
1176.00,0.0570
1175.00,0.0618
1174.00,0.0674
1173.00,0.0731
1172.00,0.0778
1171.00,0.0808
1170.00,0.0821
1169.00,0.0823
1168.00,0.0824
1167.00,0.0833
1166.00,0.0849
1165.00,0.0870
1164.00,0.0894
1163.00,0.0923
1162.00,0.0967
1161.00,0.1036
1160.00,0.1140
1159.00,0.1280
1158.00,0.1448
1157.00,0.1624
1156.00,0.1774
1155.00,0.1867
1154.00,0.1894
1153.00,0.1876
1152.00,0.1857
1151.00,0.1876
1150.00,0.1953
1149.00,0.2083
1148.00,0.2240
1147.00,0.2383
1146.00,0.2470
1145.00,0.2473
1144.00,0.2388
1143.00,0.2236
1142.00,0.2054
1141.00,0.1882
1140.00,0.1753
1139.00,0.1677
1138.00,0.1643
1137.00,0.1619
1136.00,0.1576
1135.00,0.1501
1134.00,0.1401
1133.00,0.1293
1132.00,0.1189
1131.00,0.1095
1130.00,0.1012
1129.00,0.0938
1128.00,0.0874
1127.00,0.0817
1126.00,0.0768
1125.00,0.0725
1124.00,0.0688
1123.00,0.0658
1122.00,0.0634
1121.00,0.0615
1120.00,0.0603
1119.00,0.0598
1118.00,0.0601
1117.00,0.0613
1116.00,0.0636
1115.00,0.0669
1114.00,0.0711
1113.00,0.0756
1112.00,0.0797
1111.00,0.0825
1110.00,0.0833
1109.00,0.0822
1108.00,0.0794
1107.00,0.0758
1106.00,0.0722
1105.00,0.0688
1104.00,0.0660
1103.00,0.0639
1102.00,0.0631
1101.00,0.0640
1100.00,0.0672
1099.00,0.0720
1098.00,0.0768
1097.00,0.0791
1096.00,0.0775
1095.00,0.0724
1094.00,0.0656
1093.00,0.0590
1092.00,0.0536
1091.00,0.0496
1090.00,0.0468
1089.00,0.0451
1088.00,0.0443
1087.00,0.0444
1086.00,0.0457
1085.00,0.0482
1084.00,0.0521
1083.00,0.0576
1082.00,0.0643
1081.00,0.0711
1080.00,0.0765
1079.00,0.0791
1078.00,0.0782
1077.00,0.0742
1076.00,0.0684
1075.00,0.0623
1074.00,0.0567
1073.00,0.0521
1072.00,0.0484
1071.00,0.0456
1070.00,0.0434
1069.00,0.0417
1068.00,0.0405
1067.00,0.0398
1066.00,0.0398
1065.00,0.0404
1064.00,0.0416
1063.00,0.0431
1062.00,0.0446
1061.00,0.0458
1060.00,0.0465
1059.00,0.0468
1058.00,0.0473
1057.00,0.0482
1056.00,0.0501
1055.00,0.0531
1054.00,0.0575
1053.00,0.0634
1052.00,0.0712
1051.00,0.0820
1050.00,0.0966
1049.00,0.1157
1048.00,0.1388
1047.00,0.1633
1046.00,0.1849
1045.00,0.1987
1044.00,0.2018
1043.00,0.1948
1042.00,0.1812
1041.00,0.1653
1040.00,0.1503
1039.00,0.1376
1038.00,0.1273
1037.00,0.1190
1036.00,0.1120
1035.00,0.1057
1034.00,0.0998
1033.00,0.0942
1032.00,0.0889
1031.00,0.0838
1030.00,0.0794
1029.00,0.0756
1028.00,0.0727
1027.00,0.0707
1026.00,0.0697
1025.00,0.0699
1024.00,0.0712
1023.00,0.0739
1022.00,0.0783
1021.00,0.0846
1020.00,0.0931
1019.00,0.1045
1018.00,0.1189
1017.00,0.1363
1016.00,0.1554
1015.00,0.1735
1014.00,0.1863
1013.00,0.1902
1012.00,0.1838
1011.00,0.1694
1010.00,0.1508
1009.00,0.1319
1008.00,0.1153
1007.00,0.1021
1006.00,0.0928
1005.00,0.0872
1004.00,0.0855
1003.00,0.0869
1002.00,0.0898
1001.00,0.0915
1000.00,0.0902
999.00,0.0857
998.00,0.0793
997.00,0.0726
996.00,0.0666
995.00,0.0617
994.00,0.0580
993.00,0.0555
992.00,0.0541
991.00,0.0537
990.00,0.0543
989.00,0.0556
988.00,0.0575
987.00,0.0600
986.00,0.0627
985.00,0.0657
984.00,0.0686
983.00,0.0710
982.00,0.0729
981.00,0.0737
980.00,0.0733
979.00,0.0716
978.00,0.0691
977.00,0.0663
976.00,0.0637
975.00,0.0618
974.00,0.0608
973.00,0.0610
972.00,0.0625
971.00,0.0654
970.00,0.0693
969.00,0.0730
968.00,0.0750
967.00,0.0741
966.00,0.0704
965.00,0.0651
964.00,0.0595
963.00,0.0544
962.00,0.0501
961.00,0.0466
960.00,0.0436
959.00,0.0409
958.00,0.0384
957.00,0.0363
956.00,0.0344
955.00,0.0328
954.00,0.0316
953.00,0.0306
952.00,0.0298
951.00,0.0292
950.00,0.0287
949.00,0.0282
948.00,0.0277
947.00,0.0272
946.00,0.0267
945.00,0.0263
944.00,0.0258
943.00,0.0254
942.00,0.0250
941.00,0.0247
940.00,0.0244
939.00,0.0241
938.00,0.0240
937.00,0.0239
936.00,0.0239
935.00,0.0239
934.00,0.0241
933.00,0.0243
932.00,0.0247
931.00,0.0252
930.00,0.0258
929.00,0.0266
928.00,0.0276
927.00,0.0290
926.00,0.0309
925.00,0.0336
924.00,0.0376
923.00,0.0435
922.00,0.0515
921.00,0.0613
920.00,0.0712
919.00,0.0786
918.00,0.0812
917.00,0.0784
916.00,0.0721
915.00,0.0648
914.00,0.0585
913.00,0.0544
912.00,0.0522
911.00,0.0517
910.00,0.0519
909.00,0.0524
908.00,0.0530
907.00,0.0540
906.00,0.0562
905.00,0.0600
904.00,0.0648
903.00,0.0694
902.00,0.0720
901.00,0.0717
900.00,0.0686
899.00,0.0641
898.00,0.0596
897.00,0.0557
896.00,0.0522
895.00,0.0490
894.00,0.0461
893.00,0.0436
892.00,0.0414
891.00,0.0398
890.00,0.0389
889.00,0.0387
888.00,0.0394
887.00,0.0410
886.00,0.0435
885.00,0.0469
884.00,0.0503
883.00,0.0531
882.00,0.0544
881.00,0.0539
880.00,0.0517
879.00,0.0484
878.00,0.0448
877.00,0.0414
876.00,0.0387
875.00,0.0367
874.00,0.0354
873.00,0.0349
872.00,0.0350
871.00,0.0355
870.00,0.0363
869.00,0.0373
868.00,0.0387
867.00,0.0408
866.00,0.0445
865.00,0.0511
864.00,0.0624
863.00,0.0803
862.00,0.1044
861.00,0.1296
860.00,0.1466
859.00,0.1476
858.00,0.1336
857.00,0.1127
856.00,0.0936
855.00,0.0807
854.00,0.0743
853.00,0.0734
852.00,0.0761
851.00,0.0798
850.00,0.0823
849.00,0.0824
848.00,0.0806
847.00,0.0785
846.00,0.0779
845.00,0.0796
844.00,0.0845
843.00,0.0931
842.00,0.1056
841.00,0.1208
840.00,0.1362
839.00,0.1477
838.00,0.1521
837.00,0.1484
836.00,0.1386
835.00,0.1253
834.00,0.1111
833.00,0.0978
832.00,0.0864
831.00,0.0774
830.00,0.0706
829.00,0.0657
828.00,0.0622
827.00,0.0595
826.00,0.0574
825.00,0.0554
824.00,0.0536
823.00,0.0520
822.00,0.0505
821.00,0.0490
820.00,0.0477
819.00,0.0464
818.00,0.0453
817.00,0.0445
816.00,0.0439
815.00,0.0435
814.00,0.0432
813.00,0.0431
812.00,0.0430
811.00,0.0432
810.00,0.0437
809.00,0.0446
808.00,0.0462
807.00,0.0487
806.00,0.0520
805.00,0.0560
804.00,0.0606
803.00,0.0654
802.00,0.0698
801.00,0.0726
800.00,0.0730
799.00,0.0709
798.00,0.0673
797.00,0.0635
796.00,0.0605
795.00,0.0584
794.00,0.0570
793.00,0.0556
792.00,0.0542
791.00,0.0529
790.00,0.0519
789.00,0.0515
788.00,0.0517
787.00,0.0525
786.00,0.0538
785.00,0.0558
784.00,0.0582
783.00,0.0609
782.00,0.0633
781.00,0.0649
780.00,0.0651
779.00,0.0639
778.00,0.0618
777.00,0.0595
776.00,0.0575
775.00,0.0561
774.00,0.0553
773.00,0.0553
772.00,0.0559
771.00,0.0573
770.00,0.0593
769.00,0.0616
768.00,0.0631
767.00,0.0633
766.00,0.0617
765.00,0.0591
764.00,0.0562
763.00,0.0537
762.00,0.0519
761.00,0.0506
760.00,0.0497
759.00,0.0492
758.00,0.0490
757.00,0.0491
756.00,0.0494
755.00,0.0499
754.00,0.0506
753.00,0.0516
752.00,0.0529
751.00,0.0544
750.00,0.0563
749.00,0.0582
748.00,0.0599
747.00,0.0608
746.00,0.0608
745.00,0.0601
744.00,0.0590
743.00,0.0578
742.00,0.0570
741.00,0.0567
740.00,0.0567
739.00,0.0573
738.00,0.0584
737.00,0.0601
736.00,0.0629
735.00,0.0673
734.00,0.0739
733.00,0.0826
732.00,0.0913
731.00,0.0968
730.00,0.0973
729.00,0.0938
728.00,0.0888
727.00,0.0844
726.00,0.0801
725.00,0.0746
724.00,0.0675
723.00,0.0597
722.00,0.0525
721.00,0.0470
720.00,0.0434
719.00,0.0412
718.00,0.0399
717.00,0.0390
716.00,0.0384
715.00,0.0379
714.00,0.0377
713.00,0.0375
712.00,0.0373
711.00,0.0373
710.00,0.0372
709.00,0.0371
708.00,0.0370
707.00,0.0368
706.00,0.0367
705.00,0.0366
704.00,0.0365
703.00,0.0364
702.00,0.0364
701.00,0.0363
700.00,0.0363
699.00,0.0363
698.00,0.0363
697.00,0.0363
696.00,0.0364
695.00,0.0365
694.00,0.0366
693.00,0.0368
692.00,0.0370
691.00,0.0371
690.00,0.0373
689.00,0.0375
688.00,0.0377
687.00,0.0380
686.00,0.0383
685.00,0.0385
684.00,0.0387
683.00,0.0389
682.00,0.0393
681.00,0.0396
680.00,0.0399
679.00,0.0402
678.00,0.0406
677.00,0.0409
676.00,0.0414
675.00,0.0418
674.00,0.0423
673.00,0.0426
672.00,0.0430
671.00,0.0435
670.00,0.0441
669.00,0.0448
668.00,0.0455
667.00,0.0458
666.00,0.0454
665.00,0.0448
664.00,0.0445
663.00,0.0448
662.00,0.0461
661.00,0.0490
660.00,0.0545
659.00,0.0631
658.00,0.0738
657.00,0.0838
656.00,0.0900
655.00,0.0907
654.00,0.0869
653.00,0.0816
652.00,0.0773
651.00,0.0746
650.00,0.0734
649.00,0.0730
648.00,0.0730
647.00,0.0733
646.00,0.0736
645.00,0.0739
644.00,0.0744
643.00,0.0749
642.00,0.0753
641.00,0.0756
640.00,0.0761
639.00,0.0767
638.00,0.0773
637.00,0.0779
636.00,0.0786
635.00,0.0793
634.00,0.0799
633.00,0.0803
632.00,0.0808
631.00,0.0813
630.00,0.0818
629.00,0.0823
628.00,0.0828
627.00,0.0832
626.00,0.0834
625.00,0.0834
624.00,0.0832
623.00,0.0828
622.00,0.0821
621.00,0.0811
620.00,0.0797
619.00,0.0780
618.00,0.0760
617.00,0.0739
616.00,0.0719
615.00,0.0703
614.00,0.0692
613.00,0.0689
612.00,0.0693
611.00,0.0702
610.00,0.0714
609.00,0.0727
608.00,0.0742
607.00,0.0758
606.00,0.0775
605.00,0.0793
604.00,0.0812
603.00,0.0832
602.00,0.0855
601.00,0.0883
600.00,0.0917
599.00,0.0956
598.00,0.1000
597.00,0.1050
596.00,0.1103
595.00,0.1151
594.00,0.1185
593.00,0.1201
592.00,0.1200
591.00,0.1187
590.00,0.1165
589.00,0.1130
588.00,0.1082
587.00,0.1024
586.00,0.0964
585.00,0.0914
584.00,0.0879
583.00,0.0863
582.00,0.0865
581.00,0.0885
580.00,0.0924
579.00,0.0974
578.00,0.1026
577.00,0.1068
576.00,0.1091
575.00,0.1094
574.00,0.1083
573.00,0.1065
572.00,0.1047
571.00,0.1030
570.00,0.1012
569.00,0.0994
568.00,0.0975
567.00,0.0955
566.00,0.0933
565.00,0.0912
564.00,0.0890
563.00,0.0869
562.00,0.0848
561.00,0.0828
560.00,0.0807
559.00,0.0787
558.00,0.0768
557.00,0.0750
556.00,0.0734
555.00,0.0719
554.00,0.0707
553.00,0.0696
552.00,0.0688
551.00,0.0681
550.00,0.0676
549.00,0.0673
548.00,0.0672
547.00,0.0674
546.00,0.0682
545.00,0.0693
544.00,0.0709
543.00,0.0731
542.00,0.0764
541.00,0.0812
540.00,0.0878
539.00,0.0962
538.00,0.1053
537.00,0.1138
536.00,0.1199
535.00,0.1226
534.00,0.1215
533.00,0.1176
532.00,0.1120
531.00,0.1058
530.00,0.1000
529.00,0.0951
528.00,0.0918
527.00,0.0902
526.00,0.0901
525.00,0.0908
524.00,0.0916
523.00,0.0918
522.00,0.0908
521.00,0.0883
520.00,0.0847
519.00,0.0803
518.00,0.0758
517.00,0.0718
516.00,0.0686
515.00,0.0660
514.00,0.0639
513.00,0.0623
512.00,0.0610
511.00,0.0601
510.00,0.0594
509.00,0.0589
508.00,0.0586
507.00,0.0584
506.00,0.0586
505.00,0.0590
504.00,0.0596
503.00,0.0603
502.00,0.0610
501.00,0.0616
500.00,0.0624
499.00,0.0631
498.00,0.0639
497.00,0.0646
496.00,0.0653
495.00,0.0662
494.00,0.0675
493.00,0.0694
492.00,0.0721
491.00,0.0754
490.00,0.0790
489.00,0.0821
488.00,0.0843
487.00,0.0850
486.00,0.0840
485.00,0.0817
484.00,0.0784
483.00,0.0750
482.00,0.0719
481.00,0.0693
480.00,0.0672
479.00,0.0655
478.00,0.0642
477.00,0.0632
476.00,0.0623
475.00,0.0617
474.00,0.0613
473.00,0.0612
472.00,0.0613
471.00,0.0618
470.00,0.0625
469.00,0.0632
468.00,0.0638
467.00,0.0642
466.00,0.0646
465.00,0.0650
464.00,0.0655
463.00,0.0661
462.00,0.0668
461.00,0.0676
460.00,0.0688
459.00,0.0708
458.00,0.0740
457.00,0.0786
456.00,0.0837
455.00,0.0883
454.00,0.0915
453.00,0.0929
452.00,0.0921
451.00,0.0899
450.00,0.0872
449.00,0.0846
448.00,0.0827
447.00,0.0813
446.00,0.0806
445.00,0.0804
444.00,0.0810
443.00,0.0828
442.00,0.0860
441.00,0.0901
440.00,0.0943
439.00,0.0982
438.00,0.1018
437.00,0.1053
436.00,0.1091
435.00,0.1125
434.00,0.1148
433.00,0.1158
432.00,0.1154
431.00,0.1141
430.00,0.1124
429.00,0.1109
428.00,0.1096
427.00,0.1083
426.00,0.1068
425.00,0.1054
424.00,0.1045
423.00,0.1037
422.00,0.1026
421.00,0.1011
420.00,0.0992
419.00,0.0968
418.00,0.0943
417.00,0.0924
416.00,0.0912
415.00,0.0906
414.00,0.0904
413.00,0.0904
412.00,0.0906
411.00,0.0907
410.00,0.0909
409.00,0.0915
408.00,0.0926
407.00,0.0938
406.00,0.0943
405.00,0.0941
404.00,0.0938
403.00,0.0937
402.00,0.0937
401.00,0.0941
400.00,0.0949
