Created as New Dataset,Sample 1044 By YargerLab Date Monday, August 04 2025
cm-1,A
4000.00,0.0069
3999.00,0.0069
3998.00,0.0069
3997.00,0.0069
3996.00,0.0069
3995.00,0.0069
3994.00,0.0069
3993.00,0.0069
3992.00,0.0069
3991.00,0.0069
3990.00,0.0069
3989.00,0.0069
3988.00,0.0069
3987.00,0.0069
3986.00,0.0069
3985.00,0.0069
3984.00,0.0069
3983.00,0.0069
3982.00,0.0070
3981.00,0.0070
3980.00,0.0069
3979.00,0.0069
3978.00,0.0069
3977.00,0.0068
3976.00,0.0068
3975.00,0.0068
3974.00,0.0068
3973.00,0.0069
3972.00,0.0069
3971.00,0.0069
3970.00,0.0069
3969.00,0.0069
3968.00,0.0069
3967.00,0.0069
3966.00,0.0069
3965.00,0.0069
3964.00,0.0069
3963.00,0.0069
3962.00,0.0069
3961.00,0.0069
3960.00,0.0069
3959.00,0.0069
3958.00,0.0069
3957.00,0.0069
3956.00,0.0069
3955.00,0.0069
3954.00,0.0069
3953.00,0.0069
3952.00,0.0069
3951.00,0.0069
3950.00,0.0069
3949.00,0.0069
3948.00,0.0069
3947.00,0.0069
3946.00,0.0069
3945.00,0.0069
3944.00,0.0069
3943.00,0.0069
3942.00,0.0069
3941.00,0.0069
3940.00,0.0069
3939.00,0.0069
3938.00,0.0069
3937.00,0.0069
3936.00,0.0069
3935.00,0.0069
3934.00,0.0069
3933.00,0.0069
3932.00,0.0069
3931.00,0.0069
3930.00,0.0069
3929.00,0.0069
3928.00,0.0069
3927.00,0.0069
3926.00,0.0069
3925.00,0.0069
3924.00,0.0069
3923.00,0.0069
3922.00,0.0069
3921.00,0.0068
3920.00,0.0068
3919.00,0.0068
3918.00,0.0068
3917.00,0.0069
3916.00,0.0069
3915.00,0.0069
3914.00,0.0069
3913.00,0.0069
3912.00,0.0069
3911.00,0.0069
3910.00,0.0069
3909.00,0.0070
3908.00,0.0070
3907.00,0.0070
3906.00,0.0070
3905.00,0.0070
3904.00,0.0070
3903.00,0.0070
3902.00,0.0069
3901.00,0.0069
3900.00,0.0069
3899.00,0.0069
3898.00,0.0069
3897.00,0.0069
3896.00,0.0069
3895.00,0.0069
3894.00,0.0069
3893.00,0.0069
3892.00,0.0069
3891.00,0.0069
3890.00,0.0069
3889.00,0.0069
3888.00,0.0069
3887.00,0.0069
3886.00,0.0069
3885.00,0.0069
3884.00,0.0069
3883.00,0.0069
3882.00,0.0069
3881.00,0.0069
3880.00,0.0069
3879.00,0.0069
3878.00,0.0069
3877.00,0.0069
3876.00,0.0069
3875.00,0.0069
3874.00,0.0069
3873.00,0.0069
3872.00,0.0069
3871.00,0.0069
3870.00,0.0068
3869.00,0.0068
3868.00,0.0068
3867.00,0.0068
3866.00,0.0068
3865.00,0.0069
3864.00,0.0069
3863.00,0.0069
3862.00,0.0068
3861.00,0.0068
3860.00,0.0068
3859.00,0.0068
3858.00,0.0068
3857.00,0.0069
3856.00,0.0069
3855.00,0.0069
3854.00,0.0070
3853.00,0.0070
3852.00,0.0070
3851.00,0.0069
3850.00,0.0069
3849.00,0.0069
3848.00,0.0069
3847.00,0.0069
3846.00,0.0069
3845.00,0.0069
3844.00,0.0069
3843.00,0.0069
3842.00,0.0069
3841.00,0.0069
3840.00,0.0069
3839.00,0.0069
3838.00,0.0069
3837.00,0.0069
3836.00,0.0069
3835.00,0.0069
3834.00,0.0069
3833.00,0.0069
3832.00,0.0069
3831.00,0.0069
3830.00,0.0069
3829.00,0.0069
3828.00,0.0069
3827.00,0.0069
3826.00,0.0069
3825.00,0.0068
3824.00,0.0068
3823.00,0.0068
3822.00,0.0068
3821.00,0.0069
3820.00,0.0069
3819.00,0.0069
3818.00,0.0069
3817.00,0.0069
3816.00,0.0069
3815.00,0.0069
3814.00,0.0069
3813.00,0.0069
3812.00,0.0069
3811.00,0.0069
3810.00,0.0069
3809.00,0.0069
3808.00,0.0069
3807.00,0.0070
3806.00,0.0070
3805.00,0.0070
3804.00,0.0070
3803.00,0.0070
3802.00,0.0069
3801.00,0.0069
3800.00,0.0069
3799.00,0.0069
3798.00,0.0068
3797.00,0.0069
3796.00,0.0068
3795.00,0.0068
3794.00,0.0068
3793.00,0.0068
3792.00,0.0069
3791.00,0.0069
3790.00,0.0069
3789.00,0.0068
3788.00,0.0068
3787.00,0.0068
3786.00,0.0068
3785.00,0.0068
3784.00,0.0068
3783.00,0.0069
3782.00,0.0069
3781.00,0.0069
3780.00,0.0069
3779.00,0.0069
3778.00,0.0069
3777.00,0.0069
3776.00,0.0069
3775.00,0.0069
3774.00,0.0069
3773.00,0.0069
3772.00,0.0069
3771.00,0.0069
3770.00,0.0069
3769.00,0.0069
3768.00,0.0069
3767.00,0.0069
3766.00,0.0068
3765.00,0.0068
3764.00,0.0069
3763.00,0.0069
3762.00,0.0069
3761.00,0.0069
3760.00,0.0069
3759.00,0.0069
3758.00,0.0069
3757.00,0.0069
3756.00,0.0069
3755.00,0.0069
3754.00,0.0069
3753.00,0.0069
3752.00,0.0069
3751.00,0.0069
3750.00,0.0069
3749.00,0.0069
3748.00,0.0069
3747.00,0.0069
3746.00,0.0068
3745.00,0.0068
3744.00,0.0068
3743.00,0.0068
3742.00,0.0068
3741.00,0.0068
3740.00,0.0068
3739.00,0.0068
3738.00,0.0068
3737.00,0.0068
3736.00,0.0068
3735.00,0.0068
3734.00,0.0068
3733.00,0.0068
3732.00,0.0068
3731.00,0.0068
3730.00,0.0068
3729.00,0.0068
3728.00,0.0068
3727.00,0.0068
3726.00,0.0068
3725.00,0.0067
3724.00,0.0067
3723.00,0.0067
3722.00,0.0067
3721.00,0.0067
3720.00,0.0067
3719.00,0.0067
3718.00,0.0068
3717.00,0.0068
3716.00,0.0068
3715.00,0.0068
3714.00,0.0068
3713.00,0.0068
3712.00,0.0068
3711.00,0.0068
3710.00,0.0067
3709.00,0.0067
3708.00,0.0067
3707.00,0.0067
3706.00,0.0067
3705.00,0.0067
3704.00,0.0067
3703.00,0.0067
3702.00,0.0067
3701.00,0.0067
3700.00,0.0067
3699.00,0.0067
3698.00,0.0067
3697.00,0.0067
3696.00,0.0067
3695.00,0.0067
3694.00,0.0067
3693.00,0.0068
3692.00,0.0068
3691.00,0.0068
3690.00,0.0068
3689.00,0.0068
3688.00,0.0068
3687.00,0.0068
3686.00,0.0068
3685.00,0.0068
3684.00,0.0068
3683.00,0.0068
3682.00,0.0068
3681.00,0.0068
3680.00,0.0068
3679.00,0.0068
3678.00,0.0069
3677.00,0.0069
3676.00,0.0069
3675.00,0.0069
3674.00,0.0069
3673.00,0.0068
3672.00,0.0068
3671.00,0.0068
3670.00,0.0068
3669.00,0.0069
3668.00,0.0069
3667.00,0.0069
3666.00,0.0069
3665.00,0.0069
3664.00,0.0070
3663.00,0.0070
3662.00,0.0070
3661.00,0.0070
3660.00,0.0070
3659.00,0.0070
3658.00,0.0070
3657.00,0.0070
3656.00,0.0070
3655.00,0.0070
3654.00,0.0071
3653.00,0.0071
3652.00,0.0071
3651.00,0.0072
3650.00,0.0072
3649.00,0.0072
3648.00,0.0073
3647.00,0.0073
3646.00,0.0073
3645.00,0.0073
3644.00,0.0073
3643.00,0.0073
3642.00,0.0073
3641.00,0.0073
3640.00,0.0073
3639.00,0.0074
3638.00,0.0074
3637.00,0.0075
3636.00,0.0075
3635.00,0.0075
3634.00,0.0075
3633.00,0.0076
3632.00,0.0076
3631.00,0.0076
3630.00,0.0077
3629.00,0.0077
3628.00,0.0078
3627.00,0.0078
3626.00,0.0079
3625.00,0.0079
3624.00,0.0079
3623.00,0.0079
3622.00,0.0079
3621.00,0.0080
3620.00,0.0080
3619.00,0.0081
3618.00,0.0081
3617.00,0.0082
3616.00,0.0082
3615.00,0.0082
3614.00,0.0083
3613.00,0.0083
3612.00,0.0084
3611.00,0.0084
3610.00,0.0085
3609.00,0.0085
3608.00,0.0086
3607.00,0.0086
3606.00,0.0087
3605.00,0.0087
3604.00,0.0087
3603.00,0.0088
3602.00,0.0088
3601.00,0.0088
3600.00,0.0089
3599.00,0.0089
3598.00,0.0089
3597.00,0.0090
3596.00,0.0091
3595.00,0.0091
3594.00,0.0092
3593.00,0.0093
3592.00,0.0093
3591.00,0.0094
3590.00,0.0094
3589.00,0.0095
3588.00,0.0096
3587.00,0.0096
3586.00,0.0097
3585.00,0.0097
3584.00,0.0098
3583.00,0.0099
3582.00,0.0099
3581.00,0.0100
3580.00,0.0100
3579.00,0.0101
3578.00,0.0102
3577.00,0.0102
3576.00,0.0103
3575.00,0.0104
3574.00,0.0105
3573.00,0.0105
3572.00,0.0106
3571.00,0.0107
3570.00,0.0107
3569.00,0.0108
3568.00,0.0109
3567.00,0.0110
3566.00,0.0111
3565.00,0.0111
3564.00,0.0112
3563.00,0.0113
3562.00,0.0114
3561.00,0.0114
3560.00,0.0115
3559.00,0.0116
3558.00,0.0117
3557.00,0.0117
3556.00,0.0118
3555.00,0.0119
3554.00,0.0119
3553.00,0.0120
3552.00,0.0121
3551.00,0.0121
3550.00,0.0122
3549.00,0.0123
3548.00,0.0123
3547.00,0.0124
3546.00,0.0125
3545.00,0.0126
3544.00,0.0127
3543.00,0.0127
3542.00,0.0128
3541.00,0.0128
3540.00,0.0129
3539.00,0.0130
3538.00,0.0130
3537.00,0.0131
3536.00,0.0132
3535.00,0.0132
3534.00,0.0133
3533.00,0.0133
3532.00,0.0134
3531.00,0.0135
3530.00,0.0135
3529.00,0.0136
3528.00,0.0136
3527.00,0.0137
3526.00,0.0138
3525.00,0.0138
3524.00,0.0139
3523.00,0.0140
3522.00,0.0140
3521.00,0.0141
3520.00,0.0141
3519.00,0.0141
3518.00,0.0142
3517.00,0.0142
3516.00,0.0143
3515.00,0.0143
3514.00,0.0144
3513.00,0.0144
3512.00,0.0144
3511.00,0.0145
3510.00,0.0145
3509.00,0.0146
3508.00,0.0146
3507.00,0.0147
3506.00,0.0147
3505.00,0.0148
3504.00,0.0148
3503.00,0.0149
3502.00,0.0149
3501.00,0.0150
3500.00,0.0150
3499.00,0.0151
3498.00,0.0151
3497.00,0.0151
3496.00,0.0151
3495.00,0.0152
3494.00,0.0152
3493.00,0.0153
3492.00,0.0153
3491.00,0.0154
3490.00,0.0154
3489.00,0.0155
3488.00,0.0155
3487.00,0.0156
3486.00,0.0156
3485.00,0.0157
3484.00,0.0157
3483.00,0.0158
3482.00,0.0158
3481.00,0.0159
3480.00,0.0159
3479.00,0.0160
3478.00,0.0160
3477.00,0.0161
3476.00,0.0162
3475.00,0.0162
3474.00,0.0163
3473.00,0.0164
3472.00,0.0164
3471.00,0.0165
3470.00,0.0166
3469.00,0.0166
3468.00,0.0167
3467.00,0.0168
3466.00,0.0168
3465.00,0.0169
3464.00,0.0170
3463.00,0.0170
3462.00,0.0171
3461.00,0.0172
3460.00,0.0173
3459.00,0.0173
3458.00,0.0173
3457.00,0.0174
3456.00,0.0174
3455.00,0.0175
3454.00,0.0176
3453.00,0.0177
3452.00,0.0178
3451.00,0.0178
3450.00,0.0179
3449.00,0.0179
3448.00,0.0180
3447.00,0.0181
3446.00,0.0182
3445.00,0.0182
3444.00,0.0183
3443.00,0.0184
3442.00,0.0184
3441.00,0.0185
3440.00,0.0186
3439.00,0.0187
3438.00,0.0188
3437.00,0.0188
3436.00,0.0189
3435.00,0.0190
3434.00,0.0191
3433.00,0.0192
3432.00,0.0193
3431.00,0.0194
3430.00,0.0195
3429.00,0.0195
3428.00,0.0196
3427.00,0.0197
3426.00,0.0198
3425.00,0.0199
3424.00,0.0200
3423.00,0.0201
3422.00,0.0202
3421.00,0.0203
3420.00,0.0204
3419.00,0.0205
3418.00,0.0206
3417.00,0.0207
3416.00,0.0208
3415.00,0.0209
3414.00,0.0210
3413.00,0.0210
3412.00,0.0211
3411.00,0.0212
3410.00,0.0212
3409.00,0.0213
3408.00,0.0213
3407.00,0.0214
3406.00,0.0214
3405.00,0.0214
3404.00,0.0215
3403.00,0.0215
3402.00,0.0215
3401.00,0.0216
3400.00,0.0216
3399.00,0.0216
3398.00,0.0215
3397.00,0.0215
3396.00,0.0215
3395.00,0.0214
3394.00,0.0214
3393.00,0.0214
3392.00,0.0214
3391.00,0.0213
3390.00,0.0213
3389.00,0.0212
3388.00,0.0211
3387.00,0.0211
3386.00,0.0210
3385.00,0.0210
3384.00,0.0209
3383.00,0.0208
3382.00,0.0207
3381.00,0.0207
3380.00,0.0206
3379.00,0.0205
3378.00,0.0204
3377.00,0.0203
3376.00,0.0202
3375.00,0.0202
3374.00,0.0201
3373.00,0.0200
3372.00,0.0199
3371.00,0.0199
3370.00,0.0198
3369.00,0.0197
3368.00,0.0196
3367.00,0.0196
3366.00,0.0195
3365.00,0.0195
3364.00,0.0195
3363.00,0.0194
3362.00,0.0193
3361.00,0.0193
3360.00,0.0192
3359.00,0.0191
3358.00,0.0191
3357.00,0.0190
3356.00,0.0190
3355.00,0.0189
3354.00,0.0189
3353.00,0.0188
3352.00,0.0187
3351.00,0.0187
3350.00,0.0187
3349.00,0.0187
3348.00,0.0187
3347.00,0.0187
3346.00,0.0186
3345.00,0.0186
3344.00,0.0185
3343.00,0.0184
3342.00,0.0184
3341.00,0.0184
3340.00,0.0183
3339.00,0.0183
3338.00,0.0183
3337.00,0.0183
3336.00,0.0183
3335.00,0.0183
3334.00,0.0183
3333.00,0.0183
3332.00,0.0183
3331.00,0.0183
3330.00,0.0183
3329.00,0.0183
3328.00,0.0182
3327.00,0.0182
3326.00,0.0182
3325.00,0.0182
3324.00,0.0182
3323.00,0.0182
3322.00,0.0182
3321.00,0.0183
3320.00,0.0183
3319.00,0.0183
3318.00,0.0183
3317.00,0.0183
3316.00,0.0183
3315.00,0.0183
3314.00,0.0183
3313.00,0.0183
3312.00,0.0183
3311.00,0.0182
3310.00,0.0181
3309.00,0.0181
3308.00,0.0180
3307.00,0.0180
3306.00,0.0181
3305.00,0.0182
3304.00,0.0183
3303.00,0.0184
3302.00,0.0185
3301.00,0.0185
3300.00,0.0185
3299.00,0.0185
3298.00,0.0185
3297.00,0.0184
3296.00,0.0184
3295.00,0.0184
3294.00,0.0185
3293.00,0.0185
3292.00,0.0185
3291.00,0.0186
3290.00,0.0187
3289.00,0.0188
3288.00,0.0188
3287.00,0.0188
3286.00,0.0188
3285.00,0.0189
3284.00,0.0189
3283.00,0.0189
3282.00,0.0189
3281.00,0.0189
3280.00,0.0189
3279.00,0.0190
3278.00,0.0189
3277.00,0.0189
3276.00,0.0189
3275.00,0.0189
3274.00,0.0189
3273.00,0.0189
3272.00,0.0189
3271.00,0.0189
3270.00,0.0189
3269.00,0.0189
3268.00,0.0190
3267.00,0.0190
3266.00,0.0191
3265.00,0.0191
3264.00,0.0191
3263.00,0.0191
3262.00,0.0192
3261.00,0.0192
3260.00,0.0192
3259.00,0.0192
3258.00,0.0191
3257.00,0.0191
3256.00,0.0192
3255.00,0.0192
3254.00,0.0192
3253.00,0.0192
3252.00,0.0193
3251.00,0.0192
3250.00,0.0192
3249.00,0.0192
3248.00,0.0191
3247.00,0.0192
3246.00,0.0192
3245.00,0.0192
3244.00,0.0192
3243.00,0.0192
3242.00,0.0192
3241.00,0.0192
3240.00,0.0192
3239.00,0.0191
3238.00,0.0191
3237.00,0.0190
3236.00,0.0190
3235.00,0.0189
3234.00,0.0189
3233.00,0.0189
3232.00,0.0189
3231.00,0.0189
3230.00,0.0189
3229.00,0.0188
3228.00,0.0188
3227.00,0.0188
3226.00,0.0187
3225.00,0.0187
3224.00,0.0186
3223.00,0.0186
3222.00,0.0185
3221.00,0.0185
3220.00,0.0184
3219.00,0.0184
3218.00,0.0183
3217.00,0.0183
3216.00,0.0182
3215.00,0.0182
3214.00,0.0181
3213.00,0.0180
3212.00,0.0180
3211.00,0.0179
3210.00,0.0178
3209.00,0.0178
3208.00,0.0177
3207.00,0.0176
3206.00,0.0175
3205.00,0.0174
3204.00,0.0174
3203.00,0.0173
3202.00,0.0172
3201.00,0.0171
3200.00,0.0171
3199.00,0.0170
3198.00,0.0169
3197.00,0.0168
3196.00,0.0167
3195.00,0.0166
3194.00,0.0165
3193.00,0.0165
3192.00,0.0164
3191.00,0.0163
3190.00,0.0162
3189.00,0.0161
3188.00,0.0160
3187.00,0.0160
3186.00,0.0159
3185.00,0.0158
3184.00,0.0158
3183.00,0.0157
3182.00,0.0156
3181.00,0.0155
3180.00,0.0154
3179.00,0.0154
3178.00,0.0153
3177.00,0.0152
3176.00,0.0152
3175.00,0.0151
3174.00,0.0150
3173.00,0.0149
3172.00,0.0148
3171.00,0.0148
3170.00,0.0147
3169.00,0.0147
3168.00,0.0146
3167.00,0.0145
3166.00,0.0144
3165.00,0.0143
3164.00,0.0142
3163.00,0.0141
3162.00,0.0141
3161.00,0.0140
3160.00,0.0139
3159.00,0.0138
3158.00,0.0137
3157.00,0.0136
3156.00,0.0135
3155.00,0.0135
3154.00,0.0134
3153.00,0.0134
3152.00,0.0133
3151.00,0.0133
3150.00,0.0132
3149.00,0.0131
3148.00,0.0130
3147.00,0.0130
3146.00,0.0129
3145.00,0.0129
3144.00,0.0128
3143.00,0.0127
3142.00,0.0126
3141.00,0.0126
3140.00,0.0125
3139.00,0.0124
3138.00,0.0124
3137.00,0.0123
3136.00,0.0123
3135.00,0.0123
3134.00,0.0122
3133.00,0.0122
3132.00,0.0121
3131.00,0.0121
3130.00,0.0120
3129.00,0.0120
3128.00,0.0120
3127.00,0.0119
3126.00,0.0119
3125.00,0.0118
3124.00,0.0118
3123.00,0.0118
3122.00,0.0117
3121.00,0.0117
3120.00,0.0116
3119.00,0.0116
3118.00,0.0115
3117.00,0.0115
3116.00,0.0114
3115.00,0.0114
3114.00,0.0114
3113.00,0.0113
3112.00,0.0113
3111.00,0.0112
3110.00,0.0112
3109.00,0.0112
3108.00,0.0112
3107.00,0.0111
3106.00,0.0111
3105.00,0.0110
3104.00,0.0110
3103.00,0.0109
3102.00,0.0109
3101.00,0.0108
3100.00,0.0108
3099.00,0.0108
3098.00,0.0107
3097.00,0.0107
3096.00,0.0107
3095.00,0.0107
3094.00,0.0107
3093.00,0.0107
3092.00,0.0107
3091.00,0.0107
3090.00,0.0107
3089.00,0.0107
3088.00,0.0107
3087.00,0.0107
3086.00,0.0108
3085.00,0.0108
3084.00,0.0108
3083.00,0.0107
3082.00,0.0107
3081.00,0.0107
3080.00,0.0107
3079.00,0.0107
3078.00,0.0107
3077.00,0.0106
3076.00,0.0106
3075.00,0.0106
3074.00,0.0106
3073.00,0.0106
3072.00,0.0105
3071.00,0.0105
3070.00,0.0105
3069.00,0.0104
3068.00,0.0104
3067.00,0.0104
3066.00,0.0103
3065.00,0.0103
3064.00,0.0103
3063.00,0.0103
3062.00,0.0103
3061.00,0.0103
3060.00,0.0103
3059.00,0.0103
3058.00,0.0103
3057.00,0.0103
3056.00,0.0103
3055.00,0.0103
3054.00,0.0103
3053.00,0.0103
3052.00,0.0103
3051.00,0.0103
3050.00,0.0103
3049.00,0.0103
3048.00,0.0103
3047.00,0.0102
3046.00,0.0102
3045.00,0.0102
3044.00,0.0102
3043.00,0.0102
3042.00,0.0102
3041.00,0.0102
3040.00,0.0103
3039.00,0.0103
3038.00,0.0104
3037.00,0.0104
3036.00,0.0105
3035.00,0.0105
3034.00,0.0105
3033.00,0.0105
3032.00,0.0105
3031.00,0.0105
3030.00,0.0105
3029.00,0.0104
3028.00,0.0104
3027.00,0.0103
3026.00,0.0103
3025.00,0.0102
3024.00,0.0102
3023.00,0.0102
3022.00,0.0101
3021.00,0.0101
3020.00,0.0101
3019.00,0.0100
3018.00,0.0100
3017.00,0.0100
3016.00,0.0100
3015.00,0.0100
3014.00,0.0101
3013.00,0.0101
3012.00,0.0101
3011.00,0.0102
3010.00,0.0102
3009.00,0.0103
3008.00,0.0104
3007.00,0.0105
3006.00,0.0106
3005.00,0.0108
3004.00,0.0109
3003.00,0.0111
3002.00,0.0113
3001.00,0.0115
3000.00,0.0117
2999.00,0.0120
2998.00,0.0122
2997.00,0.0126
2996.00,0.0129
2995.00,0.0132
2994.00,0.0135
2993.00,0.0138
2992.00,0.0140
2991.00,0.0143
2990.00,0.0146
2989.00,0.0148
2988.00,0.0151
2987.00,0.0154
2986.00,0.0158
2985.00,0.0161
2984.00,0.0164
2983.00,0.0167
2982.00,0.0171
2981.00,0.0176
2980.00,0.0180
2979.00,0.0184
2978.00,0.0187
2977.00,0.0190
2976.00,0.0192
2975.00,0.0195
2974.00,0.0198
2973.00,0.0203
2972.00,0.0208
2971.00,0.0213
2970.00,0.0217
2969.00,0.0221
2968.00,0.0224
2967.00,0.0227
2966.00,0.0230
2965.00,0.0233
2964.00,0.0237
2963.00,0.0240
2962.00,0.0243
2961.00,0.0245
2960.00,0.0247
2959.00,0.0247
2958.00,0.0246
2957.00,0.0245
2956.00,0.0242
2955.00,0.0238
2954.00,0.0235
2953.00,0.0231
2952.00,0.0229
2951.00,0.0226
2950.00,0.0224
2949.00,0.0223
2948.00,0.0222
2947.00,0.0222
2946.00,0.0223
2945.00,0.0225
2944.00,0.0227
2943.00,0.0230
2942.00,0.0234
2941.00,0.0238
2940.00,0.0242
2939.00,0.0247
2938.00,0.0253
2937.00,0.0260
2936.00,0.0267
2935.00,0.0275
2934.00,0.0284
2933.00,0.0293
2932.00,0.0301
2931.00,0.0309
2930.00,0.0316
2929.00,0.0322
2928.00,0.0325
2927.00,0.0326
2926.00,0.0324
2925.00,0.0320
2924.00,0.0315
2923.00,0.0308
2922.00,0.0300
2921.00,0.0292
2920.00,0.0283
2919.00,0.0275
2918.00,0.0266
2917.00,0.0258
2916.00,0.0251
2915.00,0.0245
2914.00,0.0240
2913.00,0.0236
2912.00,0.0233
2911.00,0.0229
2910.00,0.0226
2909.00,0.0223
2908.00,0.0220
2907.00,0.0217
2906.00,0.0213
2905.00,0.0210
2904.00,0.0207
2903.00,0.0205
2902.00,0.0203
2901.00,0.0201
2900.00,0.0199
2899.00,0.0197
2898.00,0.0195
2897.00,0.0194
2896.00,0.0192
2895.00,0.0191
2894.00,0.0190
2893.00,0.0189
2892.00,0.0188
2891.00,0.0187
2890.00,0.0186
2889.00,0.0185
2888.00,0.0184
2887.00,0.0184
2886.00,0.0183
2885.00,0.0182
2884.00,0.0182
2883.00,0.0182
2882.00,0.0182
2881.00,0.0183
2880.00,0.0185
2879.00,0.0187
2878.00,0.0190
2877.00,0.0193
2876.00,0.0196
2875.00,0.0198
2874.00,0.0201
2873.00,0.0203
2872.00,0.0204
2871.00,0.0204
2870.00,0.0203
2869.00,0.0203
2868.00,0.0202
2867.00,0.0202
2866.00,0.0203
2865.00,0.0204
2864.00,0.0207
2863.00,0.0211
2862.00,0.0216
2861.00,0.0221
2860.00,0.0227
2859.00,0.0232
2858.00,0.0236
2857.00,0.0238
2856.00,0.0238
2855.00,0.0237
2854.00,0.0234
2853.00,0.0229
2852.00,0.0222
2851.00,0.0214
2850.00,0.0205
2849.00,0.0196
2848.00,0.0188
2847.00,0.0181
2846.00,0.0175
2845.00,0.0169
2844.00,0.0164
2843.00,0.0160
2842.00,0.0155
2841.00,0.0151
2840.00,0.0147
2839.00,0.0143
2838.00,0.0141
2837.00,0.0138
2836.00,0.0136
2835.00,0.0134
2834.00,0.0132
2833.00,0.0130
2832.00,0.0129
2831.00,0.0127
2830.00,0.0126
2829.00,0.0124
2828.00,0.0122
2827.00,0.0121
2826.00,0.0119
2825.00,0.0118
2824.00,0.0117
2823.00,0.0115
2822.00,0.0114
2821.00,0.0113
2820.00,0.0112
2819.00,0.0111
2818.00,0.0111
2817.00,0.0110
2816.00,0.0109
2815.00,0.0108
2814.00,0.0108
2813.00,0.0107
2812.00,0.0107
2811.00,0.0106
2810.00,0.0106
2809.00,0.0105
2808.00,0.0105
2807.00,0.0104
2806.00,0.0104
2805.00,0.0103
2804.00,0.0103
2803.00,0.0103
2802.00,0.0103
2801.00,0.0102
2800.00,0.0102
2799.00,0.0101
2798.00,0.0101
2797.00,0.0101
2796.00,0.0100
2795.00,0.0100
2794.00,0.0100
2793.00,0.0100
2792.00,0.0099
2791.00,0.0099
2790.00,0.0098
2789.00,0.0098
2788.00,0.0098
2787.00,0.0097
2786.00,0.0097
2785.00,0.0097
2784.00,0.0097
2783.00,0.0097
2782.00,0.0097
2781.00,0.0097
2780.00,0.0096
2779.00,0.0096
2778.00,0.0096
2777.00,0.0095
2776.00,0.0095
2775.00,0.0095
2774.00,0.0095
2773.00,0.0094
2772.00,0.0094
2771.00,0.0094
2770.00,0.0094
2769.00,0.0094
2768.00,0.0094
2767.00,0.0094
2766.00,0.0094
2765.00,0.0094
2764.00,0.0093
2763.00,0.0093
2762.00,0.0093
2761.00,0.0093
2760.00,0.0093
2759.00,0.0093
2758.00,0.0093
2757.00,0.0093
2756.00,0.0094
2755.00,0.0094
2754.00,0.0093
2753.00,0.0093
2752.00,0.0093
2751.00,0.0093
2750.00,0.0093
2749.00,0.0093
2748.00,0.0093
2747.00,0.0093
2746.00,0.0093
2745.00,0.0093
2744.00,0.0093
2743.00,0.0094
2742.00,0.0094
2741.00,0.0094
2740.00,0.0094
2739.00,0.0094
2738.00,0.0094
2737.00,0.0094
2736.00,0.0094
2735.00,0.0095
2734.00,0.0095
2733.00,0.0095
2732.00,0.0095
2731.00,0.0096
2730.00,0.0096
2729.00,0.0096
2728.00,0.0096
2727.00,0.0095
2726.00,0.0095
2725.00,0.0095
2724.00,0.0095
2723.00,0.0094
2722.00,0.0094
2721.00,0.0094
2720.00,0.0095
2719.00,0.0094
2718.00,0.0094
2717.00,0.0094
2716.00,0.0094
2715.00,0.0093
2714.00,0.0093
2713.00,0.0093
2712.00,0.0093
2711.00,0.0093
2710.00,0.0093
2709.00,0.0093
2708.00,0.0092
2707.00,0.0092
2706.00,0.0092
2705.00,0.0092
2704.00,0.0092
2703.00,0.0092
2702.00,0.0092
2701.00,0.0092
2700.00,0.0091
2699.00,0.0091
2698.00,0.0091
2697.00,0.0091
2696.00,0.0091
2695.00,0.0091
2694.00,0.0091
2693.00,0.0091
2692.00,0.0091
2691.00,0.0090
2690.00,0.0090
2689.00,0.0090
2688.00,0.0090
2687.00,0.0090
2686.00,0.0090
2685.00,0.0090
2684.00,0.0090
2683.00,0.0090
2682.00,0.0089
2681.00,0.0089
2680.00,0.0089
2679.00,0.0089
2678.00,0.0089
2677.00,0.0089
2676.00,0.0089
2675.00,0.0089
2674.00,0.0089
2673.00,0.0089
2672.00,0.0089
2671.00,0.0090
2670.00,0.0090
2669.00,0.0090
2668.00,0.0090
2667.00,0.0091
2666.00,0.0091
2665.00,0.0092
2664.00,0.0092
2663.00,0.0092
2662.00,0.0093
2661.00,0.0093
2660.00,0.0093
2659.00,0.0093
2658.00,0.0094
2657.00,0.0094
2656.00,0.0094
2655.00,0.0094
2654.00,0.0094
2653.00,0.0094
2652.00,0.0094
2651.00,0.0094
2650.00,0.0094
2649.00,0.0094
2648.00,0.0094
2647.00,0.0094
2646.00,0.0094
2645.00,0.0094
2644.00,0.0094
2643.00,0.0094
2642.00,0.0094
2641.00,0.0094
2640.00,0.0094
2639.00,0.0094
2638.00,0.0093
2637.00,0.0093
2636.00,0.0093
2635.00,0.0093
2634.00,0.0093
2633.00,0.0093
2632.00,0.0093
2631.00,0.0092
2630.00,0.0092
2629.00,0.0092
2628.00,0.0091
2627.00,0.0091
2626.00,0.0091
2625.00,0.0091
2624.00,0.0091
2623.00,0.0091
2622.00,0.0091
2621.00,0.0090
2620.00,0.0090
2619.00,0.0090
2618.00,0.0090
2617.00,0.0090
2616.00,0.0090
2615.00,0.0090
2614.00,0.0089
2613.00,0.0089
2612.00,0.0089
2611.00,0.0089
2610.00,0.0090
2609.00,0.0090
2608.00,0.0090
2607.00,0.0090
2606.00,0.0090
2605.00,0.0089
2604.00,0.0089
2603.00,0.0090
2602.00,0.0090
2601.00,0.0090
2600.00,0.0090
2599.00,0.0090
2598.00,0.0090
2597.00,0.0090
2596.00,0.0090
2595.00,0.0091
2594.00,0.0091
2593.00,0.0090
2592.00,0.0090
2591.00,0.0090
2590.00,0.0090
2589.00,0.0090
2588.00,0.0090
2587.00,0.0090
2586.00,0.0090
2585.00,0.0090
2584.00,0.0090
2583.00,0.0090
2582.00,0.0090
2581.00,0.0090
2580.00,0.0090
2579.00,0.0090
2578.00,0.0090
2577.00,0.0090
2576.00,0.0090
2575.00,0.0090
2574.00,0.0090
2573.00,0.0089
2572.00,0.0089
2571.00,0.0089
2570.00,0.0089
2569.00,0.0089
2568.00,0.0089
2567.00,0.0089
2566.00,0.0089
2565.00,0.0089
2564.00,0.0089
2563.00,0.0088
2562.00,0.0088
2561.00,0.0088
2560.00,0.0088
2559.00,0.0088
2558.00,0.0087
2557.00,0.0087
2556.00,0.0087
2555.00,0.0087
2554.00,0.0087
2553.00,0.0087
2552.00,0.0087
2551.00,0.0087
2550.00,0.0087
2549.00,0.0086
2548.00,0.0086
2547.00,0.0086
2546.00,0.0086
2545.00,0.0086
2544.00,0.0086
2543.00,0.0086
2542.00,0.0086
2541.00,0.0086
2540.00,0.0085
2539.00,0.0085
2538.00,0.0085
2537.00,0.0085
2536.00,0.0086
2535.00,0.0086
2534.00,0.0086
2533.00,0.0086
2532.00,0.0086
2531.00,0.0085
2530.00,0.0085
2529.00,0.0085
2528.00,0.0085
2527.00,0.0085
2526.00,0.0085
2525.00,0.0085
2524.00,0.0085
2523.00,0.0085
2522.00,0.0084
2521.00,0.0084
2520.00,0.0084
2519.00,0.0083
2518.00,0.0083
2517.00,0.0083
2516.00,0.0083
2515.00,0.0083
2514.00,0.0083
2513.00,0.0083
2512.00,0.0083
2511.00,0.0083
2510.00,0.0083
2509.00,0.0083
2508.00,0.0083
2507.00,0.0083
2506.00,0.0082
2505.00,0.0082
2504.00,0.0082
2503.00,0.0082
2502.00,0.0082
2501.00,0.0082
2500.00,0.0082
2499.00,0.0081
2498.00,0.0081
2497.00,0.0081
2496.00,0.0081
2495.00,0.0081
2494.00,0.0081
2493.00,0.0082
2492.00,0.0082
2491.00,0.0082
2490.00,0.0082
2489.00,0.0082
2488.00,0.0081
2487.00,0.0081
2486.00,0.0081
2485.00,0.0081
2484.00,0.0081
2483.00,0.0081
2482.00,0.0081
2481.00,0.0081
2480.00,0.0080
2479.00,0.0080
2478.00,0.0080
2477.00,0.0080
2476.00,0.0080
2475.00,0.0081
2474.00,0.0081
2473.00,0.0081
2472.00,0.0081
2471.00,0.0081
2470.00,0.0081
2469.00,0.0081
2468.00,0.0081
2467.00,0.0081
2466.00,0.0081
2465.00,0.0081
2464.00,0.0081
2463.00,0.0081
2462.00,0.0081
2461.00,0.0081
2460.00,0.0082
2459.00,0.0082
2458.00,0.0082
2457.00,0.0082
2456.00,0.0082
2455.00,0.0082
2454.00,0.0082
2453.00,0.0082
2452.00,0.0082
2451.00,0.0082
2450.00,0.0082
2449.00,0.0082
2448.00,0.0082
2447.00,0.0082
2446.00,0.0081
2445.00,0.0081
2444.00,0.0081
2443.00,0.0081
2442.00,0.0081
2441.00,0.0081
2440.00,0.0081
2439.00,0.0080
2438.00,0.0080
2437.00,0.0080
2436.00,0.0080
2435.00,0.0080
2434.00,0.0080
2433.00,0.0080
2432.00,0.0080
2431.00,0.0080
2430.00,0.0080
2429.00,0.0080
2428.00,0.0080
2427.00,0.0079
2426.00,0.0079
2425.00,0.0079
2424.00,0.0079
2423.00,0.0079
2422.00,0.0079
2421.00,0.0079
2420.00,0.0079
2419.00,0.0079
2418.00,0.0079
2417.00,0.0079
2416.00,0.0079
2415.00,0.0079
2414.00,0.0079
2413.00,0.0079
2412.00,0.0079
2411.00,0.0080
2410.00,0.0079
2409.00,0.0079
2408.00,0.0079
2407.00,0.0078
2406.00,0.0078
2405.00,0.0078
2404.00,0.0078
2403.00,0.0078
2402.00,0.0078
2401.00,0.0078
2400.00,0.0078
2399.00,0.0078
2398.00,0.0078
2397.00,0.0078
2396.00,0.0078
2395.00,0.0078
2394.00,0.0078
2393.00,0.0078
2392.00,0.0078
2391.00,0.0078
2390.00,0.0077
2389.00,0.0077
2388.00,0.0076
2387.00,0.0076
2386.00,0.0075
2385.00,0.0075
2384.00,0.0074
2383.00,0.0074
2382.00,0.0073
2381.00,0.0073
2380.00,0.0072
2379.00,0.0072
2378.00,0.0072
2377.00,0.0072
2376.00,0.0072
2375.00,0.0073
2374.00,0.0073
2373.00,0.0073
2372.00,0.0072
2371.00,0.0072
2370.00,0.0071
2369.00,0.0070
2368.00,0.0070
2367.00,0.0070
2366.00,0.0070
2365.00,0.0071
2364.00,0.0072
2363.00,0.0072
2362.00,0.0072
2361.00,0.0072
2360.00,0.0072
2359.00,0.0072
2358.00,0.0072
2357.00,0.0072
2356.00,0.0072
2355.00,0.0072
2354.00,0.0072
2353.00,0.0072
2352.00,0.0072
2351.00,0.0072
2350.00,0.0072
2349.00,0.0073
2348.00,0.0074
2347.00,0.0076
2346.00,0.0078
2345.00,0.0078
2344.00,0.0077
2343.00,0.0076
2342.00,0.0076
2341.00,0.0076
2340.00,0.0076
2339.00,0.0076
2338.00,0.0075
2337.00,0.0075
2336.00,0.0075
2335.00,0.0076
2334.00,0.0076
2333.00,0.0076
2332.00,0.0076
2331.00,0.0076
2330.00,0.0076
2329.00,0.0077
2328.00,0.0080
2327.00,0.0083
2326.00,0.0085
2325.00,0.0087
2324.00,0.0086
2323.00,0.0084
2322.00,0.0082
2321.00,0.0080
2320.00,0.0079
2319.00,0.0078
2318.00,0.0078
2317.00,0.0078
2316.00,0.0078
2315.00,0.0078
2314.00,0.0077
2313.00,0.0077
2312.00,0.0076
2311.00,0.0075
2310.00,0.0075
2309.00,0.0075
2308.00,0.0076
2307.00,0.0077
2306.00,0.0077
2305.00,0.0078
2304.00,0.0078
2303.00,0.0078
2302.00,0.0078
2301.00,0.0079
2300.00,0.0079
2299.00,0.0080
2298.00,0.0081
2297.00,0.0081
2296.00,0.0082
2295.00,0.0083
2294.00,0.0084
2293.00,0.0084
2292.00,0.0085
2291.00,0.0086
2290.00,0.0087
2289.00,0.0088
2288.00,0.0089
2287.00,0.0089
2286.00,0.0089
2285.00,0.0089
2284.00,0.0088
2283.00,0.0087
2282.00,0.0087
2281.00,0.0086
2280.00,0.0086
2279.00,0.0086
2278.00,0.0086
2277.00,0.0086
2276.00,0.0086
2275.00,0.0085
2274.00,0.0084
2273.00,0.0083
2272.00,0.0083
2271.00,0.0082
2270.00,0.0082
2269.00,0.0082
2268.00,0.0081
2267.00,0.0081
2266.00,0.0081
2265.00,0.0080
2264.00,0.0081
2263.00,0.0081
2262.00,0.0082
2261.00,0.0082
2260.00,0.0083
2259.00,0.0083
2258.00,0.0082
2257.00,0.0082
2256.00,0.0081
2255.00,0.0080
2254.00,0.0080
2253.00,0.0080
2252.00,0.0080
2251.00,0.0080
2250.00,0.0080
2249.00,0.0080
2248.00,0.0080
2247.00,0.0080
2246.00,0.0080
2245.00,0.0081
2244.00,0.0081
2243.00,0.0081
2242.00,0.0081
2241.00,0.0080
2240.00,0.0080
2239.00,0.0081
2238.00,0.0081
2237.00,0.0082
2236.00,0.0082
2235.00,0.0082
2234.00,0.0081
2233.00,0.0081
2232.00,0.0081
2231.00,0.0081
2230.00,0.0080
2229.00,0.0080
2228.00,0.0079
2227.00,0.0079
2226.00,0.0080
2225.00,0.0080
2224.00,0.0081
2223.00,0.0081
2222.00,0.0081
2221.00,0.0081
2220.00,0.0081
2219.00,0.0080
2218.00,0.0079
2217.00,0.0078
2216.00,0.0078
2215.00,0.0079
2214.00,0.0080
2213.00,0.0080
2212.00,0.0081
2211.00,0.0081
2210.00,0.0081
2209.00,0.0081
2208.00,0.0081
2207.00,0.0080
2206.00,0.0080
2205.00,0.0080
2204.00,0.0080
2203.00,0.0080
2202.00,0.0079
2201.00,0.0079
2200.00,0.0079
2199.00,0.0080
2198.00,0.0080
2197.00,0.0081
2196.00,0.0082
2195.00,0.0083
2194.00,0.0083
2193.00,0.0082
2192.00,0.0083
2191.00,0.0083
2190.00,0.0083
2189.00,0.0084
2188.00,0.0084
2187.00,0.0085
2186.00,0.0085
2185.00,0.0084
2184.00,0.0081
2183.00,0.0078
2182.00,0.0076
2181.00,0.0076
2180.00,0.0078
2179.00,0.0080
2178.00,0.0080
2177.00,0.0078
2176.00,0.0076
2175.00,0.0075
2174.00,0.0075
2173.00,0.0076
2172.00,0.0079
2171.00,0.0081
2170.00,0.0083
2169.00,0.0085
2168.00,0.0086
2167.00,0.0087
2166.00,0.0088
2165.00,0.0090
2164.00,0.0092
2163.00,0.0092
2162.00,0.0087
2161.00,0.0077
2160.00,0.0064
2159.00,0.0053
2158.00,0.0049
2157.00,0.0050
2156.00,0.0053
2155.00,0.0055
2154.00,0.0058
2153.00,0.0061
2152.00,0.0064
2151.00,0.0066
2150.00,0.0067
2149.00,0.0067
2148.00,0.0066
2147.00,0.0065
2146.00,0.0064
2145.00,0.0064
2144.00,0.0065
2143.00,0.0065
2142.00,0.0065
2141.00,0.0066
2140.00,0.0066
2139.00,0.0066
2138.00,0.0065
2137.00,0.0065
2136.00,0.0064
2135.00,0.0063
2134.00,0.0063
2133.00,0.0063
2132.00,0.0064
2131.00,0.0064
2130.00,0.0065
2129.00,0.0066
2128.00,0.0067
2127.00,0.0068
2126.00,0.0069
2125.00,0.0070
2124.00,0.0071
2123.00,0.0072
2122.00,0.0073
2121.00,0.0074
2120.00,0.0075
2119.00,0.0076
2118.00,0.0076
2117.00,0.0077
2116.00,0.0078
2115.00,0.0079
2114.00,0.0079
2113.00,0.0079
2112.00,0.0079
2111.00,0.0078
2110.00,0.0077
2109.00,0.0077
2108.00,0.0077
2107.00,0.0077
2106.00,0.0077
2105.00,0.0077
2104.00,0.0077
2103.00,0.0077
2102.00,0.0077
2101.00,0.0076
2100.00,0.0076
2099.00,0.0075
2098.00,0.0074
2097.00,0.0073
2096.00,0.0072
2095.00,0.0072
2094.00,0.0072
2093.00,0.0073
2092.00,0.0074
2091.00,0.0075
2090.00,0.0075
2089.00,0.0075
2088.00,0.0075
2087.00,0.0076
2086.00,0.0076
2085.00,0.0077
2084.00,0.0078
2083.00,0.0078
2082.00,0.0078
2081.00,0.0078
2080.00,0.0079
2079.00,0.0078
2078.00,0.0078
2077.00,0.0077
2076.00,0.0077
2075.00,0.0077
2074.00,0.0077
2073.00,0.0077
2072.00,0.0077
2071.00,0.0077
2070.00,0.0077
2069.00,0.0077
2068.00,0.0077
2067.00,0.0077
2066.00,0.0076
2065.00,0.0076
2064.00,0.0076
2063.00,0.0075
2062.00,0.0075
2061.00,0.0074
2060.00,0.0074
2059.00,0.0074
2058.00,0.0074
2057.00,0.0074
2056.00,0.0074
2055.00,0.0075
2054.00,0.0077
2053.00,0.0080
2052.00,0.0084
2051.00,0.0085
2050.00,0.0084
2049.00,0.0081
2048.00,0.0078
2047.00,0.0076
2046.00,0.0074
2045.00,0.0074
2044.00,0.0075
2043.00,0.0076
2042.00,0.0077
2041.00,0.0077
2040.00,0.0077
2039.00,0.0077
2038.00,0.0077
2037.00,0.0075
2036.00,0.0074
2035.00,0.0072
2034.00,0.0070
2033.00,0.0069
2032.00,0.0069
2031.00,0.0069
2030.00,0.0068
2029.00,0.0068
2028.00,0.0068
2027.00,0.0068
2026.00,0.0068
2025.00,0.0067
2024.00,0.0067
2023.00,0.0066
2022.00,0.0065
2021.00,0.0066
2020.00,0.0067
2019.00,0.0069
2018.00,0.0069
2017.00,0.0070
2016.00,0.0070
2015.00,0.0069
2014.00,0.0068
2013.00,0.0067
2012.00,0.0066
2011.00,0.0066
2010.00,0.0064
2009.00,0.0063
2008.00,0.0062
2007.00,0.0060
2006.00,0.0059
2005.00,0.0059
2004.00,0.0060
2003.00,0.0061
2002.00,0.0063
2001.00,0.0065
2000.00,0.0068
1999.00,0.0070
1998.00,0.0070
1997.00,0.0070
1996.00,0.0070
1995.00,0.0070
1994.00,0.0071
1993.00,0.0073
1992.00,0.0074
1991.00,0.0075
1990.00,0.0075
1989.00,0.0074
1988.00,0.0073
1987.00,0.0072
1986.00,0.0071
1985.00,0.0071
1984.00,0.0073
1983.00,0.0075
1982.00,0.0077
1981.00,0.0078
1980.00,0.0075
1979.00,0.0070
1978.00,0.0064
1977.00,0.0061
1976.00,0.0061
1975.00,0.0062
1974.00,0.0063
1973.00,0.0064
1972.00,0.0064
1971.00,0.0062
1970.00,0.0061
1969.00,0.0060
1968.00,0.0060
1967.00,0.0060
1966.00,0.0060
1965.00,0.0061
1964.00,0.0062
1963.00,0.0062
1962.00,0.0061
1961.00,0.0059
1960.00,0.0058
1959.00,0.0058
1958.00,0.0058
1957.00,0.0059
1956.00,0.0061
1955.00,0.0063
1954.00,0.0064
1953.00,0.0064
1952.00,0.0065
1951.00,0.0065
1950.00,0.0065
1949.00,0.0066
1948.00,0.0066
1947.00,0.0065
1946.00,0.0065
1945.00,0.0064
1944.00,0.0065
1943.00,0.0065
1942.00,0.0066
1941.00,0.0066
1940.00,0.0066
1939.00,0.0065
1938.00,0.0064
1937.00,0.0063
1936.00,0.0063
1935.00,0.0063
1934.00,0.0063
1933.00,0.0063
1932.00,0.0064
1931.00,0.0065
1930.00,0.0065
1929.00,0.0066
1928.00,0.0066
1927.00,0.0066
1926.00,0.0066
1925.00,0.0066
1924.00,0.0066
1923.00,0.0067
1922.00,0.0067
1921.00,0.0067
1920.00,0.0067
1919.00,0.0066
1918.00,0.0067
1917.00,0.0067
1916.00,0.0068
1915.00,0.0069
1914.00,0.0069
1913.00,0.0070
1912.00,0.0070
1911.00,0.0071
1910.00,0.0072
1909.00,0.0073
1908.00,0.0073
1907.00,0.0072
1906.00,0.0071
1905.00,0.0070
1904.00,0.0069
1903.00,0.0069
1902.00,0.0069
1901.00,0.0069
1900.00,0.0069
1899.00,0.0070
1898.00,0.0070
1897.00,0.0070
1896.00,0.0071
1895.00,0.0071
1894.00,0.0072
1893.00,0.0071
1892.00,0.0071
1891.00,0.0070
1890.00,0.0070
1889.00,0.0069
1888.00,0.0069
1887.00,0.0069
1886.00,0.0068
1885.00,0.0068
1884.00,0.0068
1883.00,0.0068
1882.00,0.0068
1881.00,0.0068
1880.00,0.0069
1879.00,0.0069
1878.00,0.0069
1877.00,0.0069
1876.00,0.0068
1875.00,0.0068
1874.00,0.0068
1873.00,0.0068
1872.00,0.0068
1871.00,0.0069
1870.00,0.0069
1869.00,0.0070
1868.00,0.0070
1867.00,0.0069
1866.00,0.0068
1865.00,0.0068
1864.00,0.0068
1863.00,0.0068
1862.00,0.0068
1861.00,0.0069
1860.00,0.0069
1859.00,0.0070
1858.00,0.0069
1857.00,0.0069
1856.00,0.0069
1855.00,0.0069
1854.00,0.0069
1853.00,0.0069
1852.00,0.0069
1851.00,0.0069
1850.00,0.0069
1849.00,0.0070
1848.00,0.0070
1847.00,0.0071
1846.00,0.0071
1845.00,0.0071
1844.00,0.0070
1843.00,0.0070
1842.00,0.0069
1841.00,0.0068
1840.00,0.0069
1839.00,0.0069
1838.00,0.0069
1837.00,0.0069
1836.00,0.0069
1835.00,0.0069
1834.00,0.0069
1833.00,0.0069
1832.00,0.0069
1831.00,0.0069
1830.00,0.0069
1829.00,0.0069
1828.00,0.0069
1827.00,0.0068
1826.00,0.0068
1825.00,0.0068
1824.00,0.0069
1823.00,0.0068
1822.00,0.0068
1821.00,0.0067
1820.00,0.0067
1819.00,0.0066
1818.00,0.0066
1817.00,0.0065
1816.00,0.0066
1815.00,0.0066
1814.00,0.0067
1813.00,0.0067
1812.00,0.0068
1811.00,0.0068
1810.00,0.0068
1809.00,0.0068
1808.00,0.0068
1807.00,0.0068
1806.00,0.0068
1805.00,0.0068
1804.00,0.0068
1803.00,0.0068
1802.00,0.0068
1801.00,0.0069
1800.00,0.0069
1799.00,0.0069
1798.00,0.0068
1797.00,0.0069
1796.00,0.0069
1795.00,0.0070
1794.00,0.0070
1793.00,0.0069
1792.00,0.0069
1791.00,0.0069
1790.00,0.0068
1789.00,0.0068
1788.00,0.0069
1787.00,0.0069
1786.00,0.0069
1785.00,0.0069
1784.00,0.0069
1783.00,0.0069
1782.00,0.0069
1781.00,0.0069
1780.00,0.0069
1779.00,0.0070
1778.00,0.0070
1777.00,0.0070
1776.00,0.0070
1775.00,0.0070
1774.00,0.0070
1773.00,0.0070
1772.00,0.0070
1771.00,0.0070
1770.00,0.0069
1769.00,0.0069
1768.00,0.0070
1767.00,0.0070
1766.00,0.0070
1765.00,0.0070
1764.00,0.0070
1763.00,0.0071
1762.00,0.0071
1761.00,0.0071
1760.00,0.0071
1759.00,0.0071
1758.00,0.0071
1757.00,0.0072
1756.00,0.0072
1755.00,0.0072
1754.00,0.0072
1753.00,0.0072
1752.00,0.0072
1751.00,0.0072
1750.00,0.0073
1749.00,0.0073
1748.00,0.0074
1747.00,0.0074
1746.00,0.0074
1745.00,0.0074
1744.00,0.0075
1743.00,0.0075
1742.00,0.0075
1741.00,0.0074
1740.00,0.0074
1739.00,0.0074
1738.00,0.0073
1737.00,0.0073
1736.00,0.0074
1735.00,0.0075
1734.00,0.0075
1733.00,0.0075
1732.00,0.0076
1731.00,0.0077
1730.00,0.0079
1729.00,0.0079
1728.00,0.0080
1727.00,0.0080
1726.00,0.0081
1725.00,0.0082
1724.00,0.0083
1723.00,0.0084
1722.00,0.0085
1721.00,0.0085
1720.00,0.0086
1719.00,0.0087
1718.00,0.0088
1717.00,0.0090
1716.00,0.0092
1715.00,0.0094
1714.00,0.0094
1713.00,0.0096
1712.00,0.0098
1711.00,0.0101
1710.00,0.0104
1709.00,0.0106
1708.00,0.0110
1707.00,0.0113
1706.00,0.0117
1705.00,0.0123
1704.00,0.0128
1703.00,0.0132
1702.00,0.0136
1701.00,0.0144
1700.00,0.0154
1699.00,0.0165
1698.00,0.0175
1697.00,0.0188
1696.00,0.0207
1695.00,0.0225
1694.00,0.0240
1693.00,0.0253
1692.00,0.0268
1691.00,0.0286
1690.00,0.0306
1689.00,0.0326
1688.00,0.0344
1687.00,0.0359
1686.00,0.0375
1685.00,0.0398
1684.00,0.0429
1683.00,0.0457
1682.00,0.0476
1681.00,0.0493
1680.00,0.0512
1679.00,0.0529
1678.00,0.0545
1677.00,0.0560
1676.00,0.0579
1675.00,0.0602
1674.00,0.0622
1673.00,0.0638
1672.00,0.0652
1671.00,0.0668
1670.00,0.0688
1669.00,0.0709
1668.00,0.0729
1667.00,0.0743
1666.00,0.0754
1665.00,0.0763
1664.00,0.0775
1663.00,0.0790
1662.00,0.0806
1661.00,0.0818
1660.00,0.0828
1659.00,0.0835
1658.00,0.0840
1657.00,0.0841
1656.00,0.0840
1655.00,0.0837
1654.00,0.0840
1653.00,0.0853
1652.00,0.0862
1651.00,0.0858
1650.00,0.0849
1649.00,0.0836
1648.00,0.0824
1647.00,0.0815
1646.00,0.0805
1645.00,0.0792
1644.00,0.0777
1643.00,0.0760
1642.00,0.0742
1641.00,0.0723
1640.00,0.0704
1639.00,0.0684
1638.00,0.0663
1637.00,0.0642
1636.00,0.0622
1635.00,0.0605
1634.00,0.0590
1633.00,0.0577
1632.00,0.0567
1631.00,0.0560
1630.00,0.0556
1629.00,0.0558
1628.00,0.0566
1627.00,0.0575
1626.00,0.0584
1625.00,0.0591
1624.00,0.0597
1623.00,0.0602
1622.00,0.0602
1621.00,0.0596
1620.00,0.0584
1619.00,0.0568
1618.00,0.0546
1617.00,0.0522
1616.00,0.0500
1615.00,0.0484
1614.00,0.0473
1613.00,0.0465
1612.00,0.0460
1611.00,0.0454
1610.00,0.0445
1609.00,0.0433
1608.00,0.0417
1607.00,0.0399
1606.00,0.0381
1605.00,0.0362
1604.00,0.0344
1603.00,0.0328
1602.00,0.0313
1601.00,0.0300
1600.00,0.0289
1599.00,0.0280
1598.00,0.0273
1597.00,0.0268
1596.00,0.0264
1595.00,0.0263
1594.00,0.0265
1593.00,0.0269
1592.00,0.0276
1591.00,0.0287
1590.00,0.0300
1589.00,0.0314
1588.00,0.0328
1587.00,0.0340
1586.00,0.0349
1585.00,0.0353
1584.00,0.0354
1583.00,0.0351
1582.00,0.0344
1581.00,0.0335
1580.00,0.0326
1579.00,0.0315
1578.00,0.0304
1577.00,0.0292
1576.00,0.0280
1575.00,0.0269
1574.00,0.0259
1573.00,0.0252
1572.00,0.0246
1571.00,0.0241
1570.00,0.0236
1569.00,0.0232
1568.00,0.0228
1567.00,0.0223
1566.00,0.0217
1565.00,0.0211
1564.00,0.0204
1563.00,0.0197
1562.00,0.0190
1561.00,0.0184
1560.00,0.0176
1559.00,0.0170
1558.00,0.0166
1557.00,0.0162
1556.00,0.0160
1555.00,0.0160
1554.00,0.0159
1553.00,0.0158
1552.00,0.0157
1551.00,0.0156
1550.00,0.0155
1549.00,0.0154
1548.00,0.0153
1547.00,0.0150
1546.00,0.0149
1545.00,0.0147
1544.00,0.0145
1543.00,0.0144
1542.00,0.0141
1541.00,0.0138
1540.00,0.0137
1539.00,0.0137
1538.00,0.0136
1537.00,0.0136
1536.00,0.0137
1535.00,0.0137
1534.00,0.0137
1533.00,0.0136
1532.00,0.0136
1531.00,0.0135
1530.00,0.0136
1529.00,0.0136
1528.00,0.0136
1527.00,0.0137
1526.00,0.0137
1525.00,0.0137
1524.00,0.0137
1523.00,0.0137
1522.00,0.0138
1521.00,0.0140
1520.00,0.0141
1519.00,0.0142
1518.00,0.0144
1517.00,0.0148
1516.00,0.0151
1515.00,0.0154
1514.00,0.0156
1513.00,0.0158
1512.00,0.0161
1511.00,0.0164
1510.00,0.0166
1509.00,0.0169
1508.00,0.0172
1507.00,0.0178
1506.00,0.0184
1505.00,0.0187
1504.00,0.0192
1503.00,0.0200
1502.00,0.0210
1501.00,0.0223
1500.00,0.0238
1499.00,0.0256
1498.00,0.0275
1497.00,0.0294
1496.00,0.0307
1495.00,0.0311
1494.00,0.0307
1493.00,0.0299
1492.00,0.0288
1491.00,0.0275
1490.00,0.0261
1489.00,0.0248
1488.00,0.0235
1487.00,0.0223
1486.00,0.0211
1485.00,0.0202
1484.00,0.0194
1483.00,0.0187
1482.00,0.0182
1481.00,0.0178
1480.00,0.0176
1479.00,0.0175
1478.00,0.0175
1477.00,0.0177
1476.00,0.0180
1475.00,0.0184
1474.00,0.0192
1473.00,0.0205
1472.00,0.0224
1471.00,0.0245
1470.00,0.0267
1469.00,0.0292
1468.00,0.0317
1467.00,0.0343
1466.00,0.0367
1465.00,0.0390
1464.00,0.0409
1463.00,0.0422
1462.00,0.0429
1461.00,0.0432
1460.00,0.0431
1459.00,0.0426
1458.00,0.0415
1457.00,0.0401
1456.00,0.0385
1455.00,0.0370
1454.00,0.0359
1453.00,0.0351
1452.00,0.0346
1451.00,0.0344
1450.00,0.0346
1449.00,0.0352
1448.00,0.0363
1447.00,0.0376
1446.00,0.0391
1445.00,0.0409
1444.00,0.0428
1443.00,0.0447
1442.00,0.0466
1441.00,0.0484
1440.00,0.0498
1439.00,0.0510
1438.00,0.0520
1437.00,0.0532
1436.00,0.0544
1435.00,0.0553
1434.00,0.0559
1433.00,0.0564
1432.00,0.0569
1431.00,0.0575
1430.00,0.0582
1429.00,0.0592
1428.00,0.0602
1427.00,0.0612
1426.00,0.0621
1425.00,0.0632
1424.00,0.0641
1423.00,0.0646
1422.00,0.0644
1421.00,0.0635
1420.00,0.0619
1419.00,0.0598
1418.00,0.0572
1417.00,0.0546
1416.00,0.0518
1415.00,0.0491
1414.00,0.0465
1413.00,0.0443
1412.00,0.0424
1411.00,0.0408
1410.00,0.0398
1409.00,0.0391
1408.00,0.0388
1407.00,0.0389
1406.00,0.0393
1405.00,0.0400
1404.00,0.0407
1403.00,0.0412
1402.00,0.0415
1401.00,0.0414
1400.00,0.0410
1399.00,0.0402
1398.00,0.0391
1397.00,0.0377
1396.00,0.0361
1395.00,0.0344
1394.00,0.0327
1393.00,0.0314
1392.00,0.0303
1391.00,0.0296
1390.00,0.0293
1389.00,0.0295
1388.00,0.0302
1387.00,0.0310
1386.00,0.0315
1385.00,0.0315
1384.00,0.0314
1383.00,0.0313
1382.00,0.0316
1381.00,0.0320
1380.00,0.0325
1379.00,0.0329
1378.00,0.0331
1377.00,0.0331
1376.00,0.0328
1375.00,0.0323
1374.00,0.0317
1373.00,0.0311
1372.00,0.0307
1371.00,0.0304
1370.00,0.0305
1369.00,0.0310
1368.00,0.0317
1367.00,0.0325
1366.00,0.0332
1365.00,0.0336
1364.00,0.0338
1363.00,0.0340
1362.00,0.0346
1361.00,0.0351
1360.00,0.0352
1359.00,0.0345
1358.00,0.0332
1357.00,0.0317
1356.00,0.0302
1355.00,0.0291
1354.00,0.0283
1353.00,0.0277
1352.00,0.0272
1351.00,0.0270
1350.00,0.0268
1349.00,0.0267
1348.00,0.0266
1347.00,0.0264
1346.00,0.0262
1345.00,0.0259
1344.00,0.0254
1343.00,0.0250
1342.00,0.0246
1341.00,0.0242
1340.00,0.0238
1339.00,0.0235
1338.00,0.0233
1337.00,0.0231
1336.00,0.0231
1335.00,0.0233
1334.00,0.0235
1333.00,0.0239
1332.00,0.0243
1331.00,0.0248
1330.00,0.0252
1329.00,0.0257
1328.00,0.0261
1327.00,0.0265
1326.00,0.0270
1325.00,0.0275
1324.00,0.0280
1323.00,0.0286
1322.00,0.0293
1321.00,0.0299
1320.00,0.0304
1319.00,0.0308
1318.00,0.0310
1317.00,0.0310
1316.00,0.0308
1315.00,0.0304
1314.00,0.0300
1313.00,0.0296
1312.00,0.0292
1311.00,0.0288
1310.00,0.0287
1309.00,0.0287
1308.00,0.0290
1307.00,0.0294
1306.00,0.0302
1305.00,0.0313
1304.00,0.0327
1303.00,0.0343
1302.00,0.0359
1301.00,0.0375
1300.00,0.0390
1299.00,0.0405
1298.00,0.0423
1297.00,0.0444
1296.00,0.0470
1295.00,0.0500
1294.00,0.0530
1293.00,0.0561
1292.00,0.0589
1291.00,0.0615
1290.00,0.0637
1289.00,0.0657
1288.00,0.0673
1287.00,0.0686
1286.00,0.0695
1285.00,0.0698
1284.00,0.0696
1283.00,0.0689
1282.00,0.0677
1281.00,0.0663
1280.00,0.0648
1279.00,0.0635
1278.00,0.0625
1277.00,0.0618
1276.00,0.0615
1275.00,0.0614
1274.00,0.0613
1273.00,0.0612
1272.00,0.0610
1271.00,0.0604
1270.00,0.0596
1269.00,0.0585
1268.00,0.0572
1267.00,0.0556
1266.00,0.0539
1265.00,0.0521
1264.00,0.0502
1263.00,0.0484
1262.00,0.0465
1261.00,0.0447
1260.00,0.0430
1259.00,0.0414
1258.00,0.0400
1257.00,0.0387
1256.00,0.0375
1255.00,0.0365
1254.00,0.0356
1253.00,0.0349
1252.00,0.0344
1251.00,0.0341
1250.00,0.0339
1249.00,0.0340
1248.00,0.0343
1247.00,0.0348
1246.00,0.0354
1245.00,0.0360
1244.00,0.0366
1243.00,0.0371
1242.00,0.0375
1241.00,0.0380
1240.00,0.0386
1239.00,0.0393
1238.00,0.0403
1237.00,0.0414
1236.00,0.0425
1235.00,0.0434
1234.00,0.0441
1233.00,0.0445
1232.00,0.0445
1231.00,0.0441
1230.00,0.0435
1229.00,0.0427
1228.00,0.0420
1227.00,0.0413
1226.00,0.0406
1225.00,0.0401
1224.00,0.0396
1223.00,0.0393
1222.00,0.0390
1221.00,0.0389
1220.00,0.0389
1219.00,0.0391
1218.00,0.0393
1217.00,0.0396
1216.00,0.0398
1215.00,0.0398
1214.00,0.0397
1213.00,0.0392
1212.00,0.0384
1211.00,0.0374
1210.00,0.0362
1209.00,0.0352
1208.00,0.0342
1207.00,0.0335
1206.00,0.0330
1205.00,0.0327
1204.00,0.0327
1203.00,0.0330
1202.00,0.0336
1201.00,0.0343
1200.00,0.0353
1199.00,0.0364
1198.00,0.0376
1197.00,0.0388
1196.00,0.0398
1195.00,0.0404
1194.00,0.0405
1193.00,0.0400
1192.00,0.0391
1191.00,0.0378
1190.00,0.0364
1189.00,0.0349
1188.00,0.0335
1187.00,0.0322
1186.00,0.0310
1185.00,0.0300
1184.00,0.0292
1183.00,0.0285
1182.00,0.0280
1181.00,0.0276
1180.00,0.0274
1179.00,0.0272
1178.00,0.0272
1177.00,0.0272
1176.00,0.0273
1175.00,0.0274
1174.00,0.0276
1173.00,0.0278
1172.00,0.0279
1171.00,0.0281
1170.00,0.0281
1169.00,0.0282
1168.00,0.0282
1167.00,0.0282
1166.00,0.0282
1165.00,0.0283
1164.00,0.0284
1163.00,0.0287
1162.00,0.0291
1161.00,0.0299
1160.00,0.0310
1159.00,0.0326
1158.00,0.0345
1157.00,0.0365
1156.00,0.0382
1155.00,0.0391
1154.00,0.0390
1153.00,0.0377
1152.00,0.0355
1151.00,0.0330
1150.00,0.0306
1149.00,0.0285
1148.00,0.0270
1147.00,0.0258
1146.00,0.0250
1145.00,0.0243
1144.00,0.0239
1143.00,0.0235
1142.00,0.0233
1141.00,0.0232
1140.00,0.0231
1139.00,0.0232
1138.00,0.0235
1137.00,0.0240
1136.00,0.0248
1135.00,0.0261
1134.00,0.0278
1133.00,0.0301
1132.00,0.0328
1131.00,0.0355
1130.00,0.0378
1129.00,0.0392
1128.00,0.0396
1127.00,0.0390
1126.00,0.0378
1125.00,0.0361
1124.00,0.0341
1123.00,0.0322
1122.00,0.0303
1121.00,0.0286
1120.00,0.0273
1119.00,0.0264
1118.00,0.0258
1117.00,0.0254
1116.00,0.0252
1115.00,0.0251
1114.00,0.0250
1113.00,0.0249
1112.00,0.0246
1111.00,0.0243
1110.00,0.0241
1109.00,0.0239
1108.00,0.0238
1107.00,0.0239
1106.00,0.0242
1105.00,0.0247
1104.00,0.0256
1103.00,0.0268
1102.00,0.0282
1101.00,0.0295
1100.00,0.0304
1099.00,0.0305
1098.00,0.0300
1097.00,0.0289
1096.00,0.0276
1095.00,0.0262
1094.00,0.0249
1093.00,0.0239
1092.00,0.0231
1091.00,0.0225
1090.00,0.0221
1089.00,0.0218
1088.00,0.0215
1087.00,0.0213
1086.00,0.0212
1085.00,0.0211
1084.00,0.0210
1083.00,0.0210
1082.00,0.0211
1081.00,0.0211
1080.00,0.0212
1079.00,0.0213
1078.00,0.0215
1077.00,0.0216
1076.00,0.0218
1075.00,0.0219
1074.00,0.0221
1073.00,0.0222
1072.00,0.0224
1071.00,0.0226
1070.00,0.0228
1069.00,0.0231
1068.00,0.0235
1067.00,0.0240
1066.00,0.0245
1065.00,0.0251
1064.00,0.0260
1063.00,0.0271
1062.00,0.0285
1061.00,0.0303
1060.00,0.0325
1059.00,0.0351
1058.00,0.0381
1057.00,0.0412
1056.00,0.0441
1055.00,0.0463
1054.00,0.0477
1053.00,0.0484
1052.00,0.0487
1051.00,0.0487
1050.00,0.0483
1049.00,0.0476
1048.00,0.0464
1047.00,0.0446
1046.00,0.0424
1045.00,0.0400
1044.00,0.0376
1043.00,0.0353
1042.00,0.0333
1041.00,0.0317
1040.00,0.0305
1039.00,0.0296
1038.00,0.0292
1037.00,0.0290
1036.00,0.0291
1035.00,0.0294
1034.00,0.0299
1033.00,0.0307
1032.00,0.0319
1031.00,0.0338
1030.00,0.0362
1029.00,0.0389
1028.00,0.0412
1027.00,0.0427
1026.00,0.0427
1025.00,0.0415
1024.00,0.0394
1023.00,0.0370
1022.00,0.0348
1021.00,0.0329
1020.00,0.0314
1019.00,0.0301
1018.00,0.0291
1017.00,0.0282
1016.00,0.0273
1015.00,0.0266
1014.00,0.0258
1013.00,0.0252
1012.00,0.0247
1011.00,0.0244
1010.00,0.0244
1009.00,0.0247
1008.00,0.0252
1007.00,0.0260
1006.00,0.0270
1005.00,0.0279
1004.00,0.0287
1003.00,0.0291
1002.00,0.0291
1001.00,0.0287
1000.00,0.0282
999.00,0.0276
998.00,0.0270
997.00,0.0264
996.00,0.0259
995.00,0.0254
994.00,0.0251
993.00,0.0246
992.00,0.0241
991.00,0.0235
990.00,0.0229
989.00,0.0223
988.00,0.0218
987.00,0.0214
986.00,0.0210
985.00,0.0207
984.00,0.0204
983.00,0.0202
982.00,0.0200
981.00,0.0199
980.00,0.0198
979.00,0.0197
978.00,0.0196
977.00,0.0196
976.00,0.0195
975.00,0.0194
974.00,0.0193
973.00,0.0192
972.00,0.0192
971.00,0.0191
970.00,0.0190
969.00,0.0189
968.00,0.0189
967.00,0.0188
966.00,0.0188
965.00,0.0189
964.00,0.0190
963.00,0.0191
962.00,0.0191
961.00,0.0190
960.00,0.0188
959.00,0.0185
958.00,0.0181
957.00,0.0178
956.00,0.0175
955.00,0.0173
954.00,0.0171
953.00,0.0170
952.00,0.0169
951.00,0.0169
950.00,0.0170
949.00,0.0171
948.00,0.0172
947.00,0.0172
946.00,0.0172
945.00,0.0173
944.00,0.0175
943.00,0.0177
942.00,0.0181
941.00,0.0186
940.00,0.0190
939.00,0.0195
938.00,0.0200
937.00,0.0205
936.00,0.0210
935.00,0.0214
934.00,0.0217
933.00,0.0219
932.00,0.0219
931.00,0.0217
930.00,0.0215
929.00,0.0212
928.00,0.0210
927.00,0.0209
926.00,0.0209
925.00,0.0211
924.00,0.0213
923.00,0.0215
922.00,0.0216
921.00,0.0215
920.00,0.0211
919.00,0.0206
918.00,0.0200
917.00,0.0195
916.00,0.0191
915.00,0.0187
914.00,0.0185
913.00,0.0183
912.00,0.0181
911.00,0.0181
910.00,0.0181
909.00,0.0181
908.00,0.0181
907.00,0.0182
906.00,0.0185
905.00,0.0188
904.00,0.0193
903.00,0.0200
902.00,0.0208
901.00,0.0217
900.00,0.0224
899.00,0.0228
898.00,0.0228
897.00,0.0226
896.00,0.0221
895.00,0.0217
894.00,0.0215
893.00,0.0216
892.00,0.0220
891.00,0.0224
890.00,0.0226
889.00,0.0222
888.00,0.0214
887.00,0.0204
886.00,0.0196
885.00,0.0192
884.00,0.0189
883.00,0.0188
882.00,0.0189
881.00,0.0191
880.00,0.0194
879.00,0.0199
878.00,0.0206
877.00,0.0217
876.00,0.0230
875.00,0.0247
874.00,0.0266
873.00,0.0286
872.00,0.0305
871.00,0.0319
870.00,0.0327
869.00,0.0327
868.00,0.0320
867.00,0.0308
866.00,0.0296
865.00,0.0285
864.00,0.0275
863.00,0.0266
862.00,0.0257
861.00,0.0251
860.00,0.0246
859.00,0.0245
858.00,0.0248
857.00,0.0255
856.00,0.0265
855.00,0.0277
854.00,0.0289
853.00,0.0301
852.00,0.0312
851.00,0.0324
850.00,0.0334
849.00,0.0341
848.00,0.0342
847.00,0.0338
846.00,0.0331
845.00,0.0323
844.00,0.0316
843.00,0.0309
842.00,0.0305
841.00,0.0302
840.00,0.0302
839.00,0.0305
838.00,0.0310
837.00,0.0319
836.00,0.0328
835.00,0.0335
834.00,0.0339
833.00,0.0339
832.00,0.0335
831.00,0.0326
830.00,0.0313
829.00,0.0297
828.00,0.0281
827.00,0.0268
826.00,0.0258
825.00,0.0255
824.00,0.0260
823.00,0.0277
822.00,0.0304
821.00,0.0331
820.00,0.0349
819.00,0.0359
818.00,0.0366
817.00,0.0376
816.00,0.0382
815.00,0.0375
814.00,0.0352
813.00,0.0320
812.00,0.0289
811.00,0.0266
810.00,0.0250
809.00,0.0237
808.00,0.0228
807.00,0.0220
806.00,0.0214
805.00,0.0209
804.00,0.0206
803.00,0.0203
802.00,0.0201
801.00,0.0200
800.00,0.0199
799.00,0.0199
798.00,0.0199
797.00,0.0199
796.00,0.0199
795.00,0.0199
794.00,0.0199
793.00,0.0199
792.00,0.0199
791.00,0.0199
790.00,0.0200
789.00,0.0200
788.00,0.0201
787.00,0.0201
786.00,0.0202
785.00,0.0202
784.00,0.0203
783.00,0.0204
782.00,0.0205
781.00,0.0206
780.00,0.0208
779.00,0.0210
778.00,0.0214
777.00,0.0219
776.00,0.0225
775.00,0.0230
774.00,0.0233
773.00,0.0233
772.00,0.0231
771.00,0.0228
770.00,0.0226
769.00,0.0225
768.00,0.0225
767.00,0.0226
766.00,0.0227
765.00,0.0229
764.00,0.0232
763.00,0.0236
762.00,0.0241
761.00,0.0245
760.00,0.0250
759.00,0.0254
758.00,0.0256
757.00,0.0258
756.00,0.0259
755.00,0.0260
754.00,0.0262
753.00,0.0265
752.00,0.0268
751.00,0.0271
750.00,0.0274
749.00,0.0278
748.00,0.0281
747.00,0.0284
746.00,0.0288
745.00,0.0292
744.00,0.0296
743.00,0.0302
742.00,0.0308
741.00,0.0315
740.00,0.0324
739.00,0.0335
738.00,0.0349
737.00,0.0364
736.00,0.0379
735.00,0.0389
734.00,0.0391
733.00,0.0388
732.00,0.0381
731.00,0.0376
730.00,0.0373
729.00,0.0371
728.00,0.0367
727.00,0.0360
726.00,0.0350
725.00,0.0338
724.00,0.0327
723.00,0.0318
722.00,0.0311
721.00,0.0307
720.00,0.0305
719.00,0.0305
718.00,0.0309
717.00,0.0313
716.00,0.0318
715.00,0.0320
714.00,0.0321
713.00,0.0319
712.00,0.0317
711.00,0.0314
710.00,0.0312
709.00,0.0310
708.00,0.0309
707.00,0.0309
706.00,0.0309
705.00,0.0311
704.00,0.0313
703.00,0.0316
702.00,0.0319
701.00,0.0323
700.00,0.0327
699.00,0.0331
698.00,0.0334
697.00,0.0336
696.00,0.0336
695.00,0.0336
694.00,0.0337
693.00,0.0338
692.00,0.0341
691.00,0.0346
690.00,0.0352
689.00,0.0358
688.00,0.0363
687.00,0.0365
686.00,0.0364
685.00,0.0363
684.00,0.0362
683.00,0.0363
682.00,0.0365
681.00,0.0368
680.00,0.0371
679.00,0.0375
678.00,0.0380
677.00,0.0386
676.00,0.0392
675.00,0.0400
674.00,0.0407
673.00,0.0414
672.00,0.0420
671.00,0.0423
670.00,0.0425
669.00,0.0427
668.00,0.0431
667.00,0.0437
666.00,0.0442
665.00,0.0448
664.00,0.0454
663.00,0.0461
662.00,0.0467
661.00,0.0473
660.00,0.0477
659.00,0.0480
658.00,0.0482
657.00,0.0486
656.00,0.0489
655.00,0.0493
654.00,0.0497
653.00,0.0500
652.00,0.0504
651.00,0.0509
650.00,0.0512
649.00,0.0515
648.00,0.0517
647.00,0.0517
646.00,0.0517
645.00,0.0515
644.00,0.0513
643.00,0.0509
642.00,0.0505
641.00,0.0501
640.00,0.0497
639.00,0.0493
638.00,0.0489
637.00,0.0485
636.00,0.0482
635.00,0.0479
634.00,0.0476
633.00,0.0474
632.00,0.0473
631.00,0.0471
630.00,0.0470
629.00,0.0468
628.00,0.0467
627.00,0.0467
626.00,0.0468
625.00,0.0470
624.00,0.0473
623.00,0.0475
622.00,0.0477
621.00,0.0479
620.00,0.0480
619.00,0.0481
618.00,0.0480
617.00,0.0477
616.00,0.0473
615.00,0.0469
614.00,0.0464
613.00,0.0462
612.00,0.0460
611.00,0.0460
610.00,0.0462
609.00,0.0466
608.00,0.0473
607.00,0.0483
606.00,0.0493
605.00,0.0503
604.00,0.0512
603.00,0.0519
602.00,0.0523
601.00,0.0525
600.00,0.0527
599.00,0.0529
598.00,0.0531
597.00,0.0532
596.00,0.0533
595.00,0.0534
594.00,0.0536
593.00,0.0537
592.00,0.0539
591.00,0.0541
590.00,0.0543
589.00,0.0545
588.00,0.0547
587.00,0.0551
586.00,0.0556
585.00,0.0561
584.00,0.0568
583.00,0.0575
582.00,0.0583
581.00,0.0591
580.00,0.0599
579.00,0.0608
578.00,0.0617
577.00,0.0626
576.00,0.0632
575.00,0.0633
574.00,0.0629
573.00,0.0624
572.00,0.0619
571.00,0.0615
570.00,0.0611
569.00,0.0607
568.00,0.0603
567.00,0.0601
566.00,0.0600
565.00,0.0600
564.00,0.0601
563.00,0.0603
562.00,0.0606
561.00,0.0609
560.00,0.0611
559.00,0.0611
558.00,0.0607
557.00,0.0602
556.00,0.0595
555.00,0.0588
554.00,0.0582
553.00,0.0577
552.00,0.0575
551.00,0.0576
550.00,0.0579
549.00,0.0583
548.00,0.0589
547.00,0.0593
546.00,0.0595
545.00,0.0594
544.00,0.0590
543.00,0.0584
542.00,0.0578
541.00,0.0571
540.00,0.0567
539.00,0.0563
538.00,0.0561
537.00,0.0560
536.00,0.0560
535.00,0.0562
534.00,0.0566
533.00,0.0573
532.00,0.0578
531.00,0.0582
530.00,0.0581
529.00,0.0576
528.00,0.0571
527.00,0.0565
526.00,0.0560
525.00,0.0556
524.00,0.0553
523.00,0.0550
522.00,0.0547
521.00,0.0544
520.00,0.0542
519.00,0.0540
518.00,0.0538
517.00,0.0535
516.00,0.0532
515.00,0.0530
514.00,0.0529
513.00,0.0529
512.00,0.0529
511.00,0.0530
510.00,0.0531
509.00,0.0533
508.00,0.0536
507.00,0.0538
506.00,0.0540
505.00,0.0541
504.00,0.0541
503.00,0.0540
502.00,0.0539
501.00,0.0536
500.00,0.0532
499.00,0.0529
498.00,0.0526
497.00,0.0526
496.00,0.0529
495.00,0.0532
494.00,0.0536
493.00,0.0538
492.00,0.0539
491.00,0.0539
490.00,0.0538
489.00,0.0536
488.00,0.0535
487.00,0.0535
486.00,0.0537
485.00,0.0539
484.00,0.0540
483.00,0.0538
482.00,0.0535
481.00,0.0533
480.00,0.0533
479.00,0.0533
478.00,0.0533
477.00,0.0533
476.00,0.0534
475.00,0.0535
474.00,0.0535
473.00,0.0533
472.00,0.0532
471.00,0.0531
470.00,0.0531
469.00,0.0531
468.00,0.0533
467.00,0.0534
466.00,0.0534
465.00,0.0531
464.00,0.0528
463.00,0.0526
462.00,0.0525
461.00,0.0525
460.00,0.0523
459.00,0.0520
458.00,0.0517
457.00,0.0515
456.00,0.0516
455.00,0.0518
454.00,0.0520
453.00,0.0522
452.00,0.0522
451.00,0.0519
450.00,0.0515
449.00,0.0512
448.00,0.0511
447.00,0.0509
446.00,0.0508
445.00,0.0507
444.00,0.0505
443.00,0.0503
442.00,0.0500
441.00,0.0500
440.00,0.0500
439.00,0.0501
438.00,0.0499
437.00,0.0495
436.00,0.0491
435.00,0.0487
434.00,0.0486
433.00,0.0485
432.00,0.0484
431.00,0.0482
430.00,0.0481
429.00,0.0480
428.00,0.0480
427.00,0.0480
426.00,0.0480
425.00,0.0479
424.00,0.0479
423.00,0.0479
422.00,0.0480
421.00,0.0479
420.00,0.0480
419.00,0.0483
418.00,0.0485
417.00,0.0483
416.00,0.0477
415.00,0.0470
414.00,0.0464
413.00,0.0463
412.00,0.0468
411.00,0.0474
410.00,0.0479
409.00,0.0481
408.00,0.0477
407.00,0.0469
406.00,0.0463
405.00,0.0462
404.00,0.0464
403.00,0.0466
402.00,0.0465
401.00,0.0469
400.00,0.0480
