Created as New Dataset,Sample 873 By YargerLab Date Monday, July 21 2025
cm-1,A
4000.00,0.0025
3999.00,0.0025
3998.00,0.0025
3997.00,0.0026
3996.00,0.0025
3995.00,0.0026
3994.00,0.0026
3993.00,0.0026
3992.00,0.0026
3991.00,0.0025
3990.00,0.0025
3989.00,0.0025
3988.00,0.0025
3987.00,0.0025
3986.00,0.0025
3985.00,0.0025
3984.00,0.0025
3983.00,0.0025
3982.00,0.0025
3981.00,0.0025
3980.00,0.0025
3979.00,0.0025
3978.00,0.0026
3977.00,0.0026
3976.00,0.0026
3975.00,0.0026
3974.00,0.0025
3973.00,0.0025
3972.00,0.0025
3971.00,0.0026
3970.00,0.0026
3969.00,0.0026
3968.00,0.0026
3967.00,0.0026
3966.00,0.0026
3965.00,0.0026
3964.00,0.0026
3963.00,0.0026
3962.00,0.0026
3961.00,0.0026
3960.00,0.0026
3959.00,0.0026
3958.00,0.0026
3957.00,0.0026
3956.00,0.0026
3955.00,0.0026
3954.00,0.0026
3953.00,0.0026
3952.00,0.0026
3951.00,0.0025
3950.00,0.0025
3949.00,0.0026
3948.00,0.0026
3947.00,0.0026
3946.00,0.0026
3945.00,0.0025
3944.00,0.0025
3943.00,0.0025
3942.00,0.0025
3941.00,0.0025
3940.00,0.0025
3939.00,0.0025
3938.00,0.0025
3937.00,0.0025
3936.00,0.0026
3935.00,0.0026
3934.00,0.0026
3933.00,0.0026
3932.00,0.0026
3931.00,0.0026
3930.00,0.0026
3929.00,0.0026
3928.00,0.0026
3927.00,0.0026
3926.00,0.0026
3925.00,0.0026
3924.00,0.0026
3923.00,0.0026
3922.00,0.0026
3921.00,0.0026
3920.00,0.0026
3919.00,0.0026
3918.00,0.0026
3917.00,0.0026
3916.00,0.0026
3915.00,0.0026
3914.00,0.0026
3913.00,0.0026
3912.00,0.0026
3911.00,0.0026
3910.00,0.0026
3909.00,0.0026
3908.00,0.0026
3907.00,0.0026
3906.00,0.0025
3905.00,0.0025
3904.00,0.0025
3903.00,0.0025
3902.00,0.0025
3901.00,0.0025
3900.00,0.0024
3899.00,0.0024
3898.00,0.0024
3897.00,0.0025
3896.00,0.0025
3895.00,0.0025
3894.00,0.0025
3893.00,0.0025
3892.00,0.0025
3891.00,0.0025
3890.00,0.0025
3889.00,0.0025
3888.00,0.0025
3887.00,0.0025
3886.00,0.0025
3885.00,0.0025
3884.00,0.0025
3883.00,0.0024
3882.00,0.0024
3881.00,0.0024
3880.00,0.0024
3879.00,0.0025
3878.00,0.0025
3877.00,0.0025
3876.00,0.0025
3875.00,0.0024
3874.00,0.0024
3873.00,0.0024
3872.00,0.0024
3871.00,0.0024
3870.00,0.0024
3869.00,0.0024
3868.00,0.0025
3867.00,0.0025
3866.00,0.0024
3865.00,0.0024
3864.00,0.0024
3863.00,0.0024
3862.00,0.0024
3861.00,0.0024
3860.00,0.0024
3859.00,0.0025
3858.00,0.0024
3857.00,0.0024
3856.00,0.0024
3855.00,0.0023
3854.00,0.0023
3853.00,0.0023
3852.00,0.0023
3851.00,0.0023
3850.00,0.0023
3849.00,0.0024
3848.00,0.0024
3847.00,0.0024
3846.00,0.0025
3845.00,0.0025
3844.00,0.0025
3843.00,0.0025
3842.00,0.0025
3841.00,0.0025
3840.00,0.0024
3839.00,0.0024
3838.00,0.0024
3837.00,0.0024
3836.00,0.0024
3835.00,0.0023
3834.00,0.0024
3833.00,0.0024
3832.00,0.0024
3831.00,0.0024
3830.00,0.0024
3829.00,0.0024
3828.00,0.0024
3827.00,0.0025
3826.00,0.0025
3825.00,0.0024
3824.00,0.0024
3823.00,0.0024
3822.00,0.0024
3821.00,0.0023
3820.00,0.0023
3819.00,0.0023
3818.00,0.0023
3817.00,0.0023
3816.00,0.0024
3815.00,0.0024
3814.00,0.0025
3813.00,0.0024
3812.00,0.0024
3811.00,0.0024
3810.00,0.0025
3809.00,0.0025
3808.00,0.0025
3807.00,0.0025
3806.00,0.0025
3805.00,0.0025
3804.00,0.0024
3803.00,0.0024
3802.00,0.0024
3801.00,0.0024
3800.00,0.0024
3799.00,0.0025
3798.00,0.0025
3797.00,0.0025
3796.00,0.0025
3795.00,0.0025
3794.00,0.0025
3793.00,0.0025
3792.00,0.0025
3791.00,0.0024
3790.00,0.0024
3789.00,0.0024
3788.00,0.0024
3787.00,0.0025
3786.00,0.0025
3785.00,0.0025
3784.00,0.0025
3783.00,0.0025
3782.00,0.0024
3781.00,0.0024
3780.00,0.0024
3779.00,0.0025
3778.00,0.0025
3777.00,0.0025
3776.00,0.0025
3775.00,0.0025
3774.00,0.0025
3773.00,0.0025
3772.00,0.0025
3771.00,0.0025
3770.00,0.0025
3769.00,0.0025
3768.00,0.0025
3767.00,0.0025
3766.00,0.0025
3765.00,0.0025
3764.00,0.0025
3763.00,0.0025
3762.00,0.0025
3761.00,0.0024
3760.00,0.0024
3759.00,0.0024
3758.00,0.0024
3757.00,0.0024
3756.00,0.0024
3755.00,0.0024
3754.00,0.0024
3753.00,0.0024
3752.00,0.0024
3751.00,0.0024
3750.00,0.0024
3749.00,0.0024
3748.00,0.0024
3747.00,0.0024
3746.00,0.0024
3745.00,0.0024
3744.00,0.0024
3743.00,0.0024
3742.00,0.0024
3741.00,0.0024
3740.00,0.0024
3739.00,0.0024
3738.00,0.0024
3737.00,0.0024
3736.00,0.0024
3735.00,0.0024
3734.00,0.0024
3733.00,0.0024
3732.00,0.0023
3731.00,0.0023
3730.00,0.0023
3729.00,0.0023
3728.00,0.0023
3727.00,0.0023
3726.00,0.0023
3725.00,0.0023
3724.00,0.0023
3723.00,0.0022
3722.00,0.0022
3721.00,0.0022
3720.00,0.0022
3719.00,0.0022
3718.00,0.0023
3717.00,0.0023
3716.00,0.0023
3715.00,0.0024
3714.00,0.0024
3713.00,0.0024
3712.00,0.0024
3711.00,0.0024
3710.00,0.0024
3709.00,0.0024
3708.00,0.0023
3707.00,0.0023
3706.00,0.0023
3705.00,0.0023
3704.00,0.0023
3703.00,0.0022
3702.00,0.0022
3701.00,0.0022
3700.00,0.0022
3699.00,0.0022
3698.00,0.0023
3697.00,0.0023
3696.00,0.0023
3695.00,0.0023
3694.00,0.0023
3693.00,0.0023
3692.00,0.0023
3691.00,0.0023
3690.00,0.0023
3689.00,0.0023
3688.00,0.0023
3687.00,0.0023
3686.00,0.0023
3685.00,0.0024
3684.00,0.0024
3683.00,0.0025
3682.00,0.0025
3681.00,0.0025
3680.00,0.0025
3679.00,0.0025
3678.00,0.0025
3677.00,0.0025
3676.00,0.0024
3675.00,0.0024
3674.00,0.0024
3673.00,0.0023
3672.00,0.0023
3671.00,0.0024
3670.00,0.0025
3669.00,0.0025
3668.00,0.0025
3667.00,0.0025
3666.00,0.0025
3665.00,0.0025
3664.00,0.0025
3663.00,0.0025
3662.00,0.0026
3661.00,0.0026
3660.00,0.0026
3659.00,0.0026
3658.00,0.0026
3657.00,0.0026
3656.00,0.0026
3655.00,0.0027
3654.00,0.0027
3653.00,0.0027
3652.00,0.0027
3651.00,0.0027
3650.00,0.0028
3649.00,0.0028
3648.00,0.0029
3647.00,0.0029
3646.00,0.0029
3645.00,0.0029
3644.00,0.0028
3643.00,0.0028
3642.00,0.0028
3641.00,0.0029
3640.00,0.0029
3639.00,0.0029
3638.00,0.0029
3637.00,0.0030
3636.00,0.0030
3635.00,0.0030
3634.00,0.0030
3633.00,0.0030
3632.00,0.0030
3631.00,0.0030
3630.00,0.0031
3629.00,0.0031
3628.00,0.0032
3627.00,0.0032
3626.00,0.0033
3625.00,0.0033
3624.00,0.0033
3623.00,0.0033
3622.00,0.0034
3621.00,0.0034
3620.00,0.0034
3619.00,0.0034
3618.00,0.0035
3617.00,0.0035
3616.00,0.0036
3615.00,0.0036
3614.00,0.0037
3613.00,0.0037
3612.00,0.0038
3611.00,0.0039
3610.00,0.0039
3609.00,0.0039
3608.00,0.0040
3607.00,0.0040
3606.00,0.0041
3605.00,0.0041
3604.00,0.0041
3603.00,0.0042
3602.00,0.0042
3601.00,0.0043
3600.00,0.0044
3599.00,0.0044
3598.00,0.0045
3597.00,0.0045
3596.00,0.0045
3595.00,0.0046
3594.00,0.0046
3593.00,0.0046
3592.00,0.0047
3591.00,0.0048
3590.00,0.0048
3589.00,0.0048
3588.00,0.0049
3587.00,0.0050
3586.00,0.0050
3585.00,0.0051
3584.00,0.0052
3583.00,0.0052
3582.00,0.0053
3581.00,0.0054
3580.00,0.0055
3579.00,0.0055
3578.00,0.0056
3577.00,0.0057
3576.00,0.0058
3575.00,0.0059
3574.00,0.0059
3573.00,0.0060
3572.00,0.0060
3571.00,0.0061
3570.00,0.0061
3569.00,0.0062
3568.00,0.0063
3567.00,0.0064
3566.00,0.0065
3565.00,0.0066
3564.00,0.0067
3563.00,0.0068
3562.00,0.0069
3561.00,0.0070
3560.00,0.0071
3559.00,0.0072
3558.00,0.0073
3557.00,0.0074
3556.00,0.0075
3555.00,0.0076
3554.00,0.0077
3553.00,0.0079
3552.00,0.0080
3551.00,0.0082
3550.00,0.0083
3549.00,0.0084
3548.00,0.0085
3547.00,0.0087
3546.00,0.0088
3545.00,0.0090
3544.00,0.0092
3543.00,0.0095
3542.00,0.0097
3541.00,0.0099
3540.00,0.0102
3539.00,0.0104
3538.00,0.0107
3537.00,0.0111
3536.00,0.0115
3535.00,0.0119
3534.00,0.0124
3533.00,0.0129
3532.00,0.0135
3531.00,0.0142
3530.00,0.0151
3529.00,0.0161
3528.00,0.0172
3527.00,0.0184
3526.00,0.0197
3525.00,0.0209
3524.00,0.0221
3523.00,0.0232
3522.00,0.0242
3521.00,0.0249
3520.00,0.0254
3519.00,0.0256
3518.00,0.0256
3517.00,0.0254
3516.00,0.0250
3515.00,0.0244
3514.00,0.0238
3513.00,0.0230
3512.00,0.0223
3511.00,0.0215
3510.00,0.0208
3509.00,0.0201
3508.00,0.0194
3507.00,0.0189
3506.00,0.0184
3505.00,0.0179
3504.00,0.0175
3503.00,0.0172
3502.00,0.0169
3501.00,0.0167
3500.00,0.0166
3499.00,0.0164
3498.00,0.0163
3497.00,0.0163
3496.00,0.0162
3495.00,0.0162
3494.00,0.0162
3493.00,0.0163
3492.00,0.0163
3491.00,0.0163
3490.00,0.0164
3489.00,0.0165
3488.00,0.0166
3487.00,0.0167
3486.00,0.0168
3485.00,0.0169
3484.00,0.0170
3483.00,0.0172
3482.00,0.0173
3481.00,0.0175
3480.00,0.0177
3479.00,0.0179
3478.00,0.0180
3477.00,0.0182
3476.00,0.0184
3475.00,0.0186
3474.00,0.0188
3473.00,0.0191
3472.00,0.0193
3471.00,0.0195
3470.00,0.0198
3469.00,0.0200
3468.00,0.0203
3467.00,0.0206
3466.00,0.0208
3465.00,0.0211
3464.00,0.0213
3463.00,0.0216
3462.00,0.0219
3461.00,0.0222
3460.00,0.0224
3459.00,0.0227
3458.00,0.0230
3457.00,0.0232
3456.00,0.0235
3455.00,0.0238
3454.00,0.0241
3453.00,0.0244
3452.00,0.0246
3451.00,0.0249
3450.00,0.0252
3449.00,0.0255
3448.00,0.0257
3447.00,0.0260
3446.00,0.0262
3445.00,0.0265
3444.00,0.0267
3443.00,0.0270
3442.00,0.0272
3441.00,0.0274
3440.00,0.0277
3439.00,0.0279
3438.00,0.0282
3437.00,0.0285
3436.00,0.0287
3435.00,0.0290
3434.00,0.0292
3433.00,0.0294
3432.00,0.0296
3431.00,0.0298
3430.00,0.0300
3429.00,0.0303
3428.00,0.0305
3427.00,0.0307
3426.00,0.0310
3425.00,0.0312
3424.00,0.0315
3423.00,0.0318
3422.00,0.0321
3421.00,0.0324
3420.00,0.0328
3419.00,0.0331
3418.00,0.0335
3417.00,0.0338
3416.00,0.0342
3415.00,0.0346
3414.00,0.0350
3413.00,0.0354
3412.00,0.0357
3411.00,0.0360
3410.00,0.0362
3409.00,0.0364
3408.00,0.0365
3407.00,0.0365
3406.00,0.0365
3405.00,0.0363
3404.00,0.0361
3403.00,0.0358
3402.00,0.0353
3401.00,0.0348
3400.00,0.0342
3399.00,0.0335
3398.00,0.0328
3397.00,0.0320
3396.00,0.0312
3395.00,0.0304
3394.00,0.0296
3393.00,0.0288
3392.00,0.0281
3391.00,0.0273
3390.00,0.0266
3389.00,0.0260
3388.00,0.0253
3387.00,0.0247
3386.00,0.0242
3385.00,0.0236
3384.00,0.0231
3383.00,0.0227
3382.00,0.0222
3381.00,0.0218
3380.00,0.0214
3379.00,0.0210
3378.00,0.0206
3377.00,0.0203
3376.00,0.0199
3375.00,0.0196
3374.00,0.0193
3373.00,0.0190
3372.00,0.0187
3371.00,0.0184
3370.00,0.0181
3369.00,0.0179
3368.00,0.0176
3367.00,0.0174
3366.00,0.0171
3365.00,0.0169
3364.00,0.0167
3363.00,0.0165
3362.00,0.0163
3361.00,0.0161
3360.00,0.0159
3359.00,0.0157
3358.00,0.0155
3357.00,0.0153
3356.00,0.0151
3355.00,0.0149
3354.00,0.0147
3353.00,0.0145
3352.00,0.0143
3351.00,0.0142
3350.00,0.0140
3349.00,0.0139
3348.00,0.0138
3347.00,0.0137
3346.00,0.0135
3345.00,0.0133
3344.00,0.0132
3343.00,0.0130
3342.00,0.0129
3341.00,0.0128
3340.00,0.0126
3339.00,0.0125
3338.00,0.0125
3337.00,0.0124
3336.00,0.0123
3335.00,0.0123
3334.00,0.0122
3333.00,0.0121
3332.00,0.0120
3331.00,0.0119
3330.00,0.0118
3329.00,0.0117
3328.00,0.0116
3327.00,0.0115
3326.00,0.0114
3325.00,0.0113
3324.00,0.0113
3323.00,0.0112
3322.00,0.0112
3321.00,0.0111
3320.00,0.0111
3319.00,0.0110
3318.00,0.0109
3317.00,0.0109
3316.00,0.0108
3315.00,0.0107
3314.00,0.0107
3313.00,0.0106
3312.00,0.0105
3311.00,0.0104
3310.00,0.0102
3309.00,0.0101
3308.00,0.0100
3307.00,0.0099
3306.00,0.0099
3305.00,0.0099
3304.00,0.0099
3303.00,0.0099
3302.00,0.0099
3301.00,0.0099
3300.00,0.0099
3299.00,0.0098
3298.00,0.0097
3297.00,0.0096
3296.00,0.0095
3295.00,0.0095
3294.00,0.0094
3293.00,0.0093
3292.00,0.0093
3291.00,0.0093
3290.00,0.0093
3289.00,0.0093
3288.00,0.0093
3287.00,0.0093
3286.00,0.0093
3285.00,0.0092
3284.00,0.0091
3283.00,0.0091
3282.00,0.0090
3281.00,0.0090
3280.00,0.0090
3279.00,0.0089
3278.00,0.0088
3277.00,0.0087
3276.00,0.0086
3275.00,0.0085
3274.00,0.0084
3273.00,0.0083
3272.00,0.0083
3271.00,0.0083
3270.00,0.0083
3269.00,0.0084
3268.00,0.0084
3267.00,0.0084
3266.00,0.0084
3265.00,0.0084
3264.00,0.0083
3263.00,0.0083
3262.00,0.0083
3261.00,0.0082
3260.00,0.0082
3259.00,0.0081
3258.00,0.0080
3257.00,0.0079
3256.00,0.0079
3255.00,0.0078
3254.00,0.0078
3253.00,0.0078
3252.00,0.0077
3251.00,0.0077
3250.00,0.0076
3249.00,0.0075
3248.00,0.0074
3247.00,0.0074
3246.00,0.0074
3245.00,0.0074
3244.00,0.0074
3243.00,0.0074
3242.00,0.0073
3241.00,0.0073
3240.00,0.0072
3239.00,0.0072
3238.00,0.0071
3237.00,0.0070
3236.00,0.0070
3235.00,0.0069
3234.00,0.0068
3233.00,0.0068
3232.00,0.0068
3231.00,0.0068
3230.00,0.0067
3229.00,0.0067
3228.00,0.0067
3227.00,0.0067
3226.00,0.0066
3225.00,0.0066
3224.00,0.0065
3223.00,0.0065
3222.00,0.0065
3221.00,0.0065
3220.00,0.0065
3219.00,0.0064
3218.00,0.0064
3217.00,0.0063
3216.00,0.0063
3215.00,0.0062
3214.00,0.0062
3213.00,0.0061
3212.00,0.0061
3211.00,0.0061
3210.00,0.0061
3209.00,0.0061
3208.00,0.0060
3207.00,0.0060
3206.00,0.0059
3205.00,0.0059
3204.00,0.0058
3203.00,0.0058
3202.00,0.0058
3201.00,0.0058
3200.00,0.0058
3199.00,0.0058
3198.00,0.0058
3197.00,0.0057
3196.00,0.0056
3195.00,0.0056
3194.00,0.0055
3193.00,0.0055
3192.00,0.0055
3191.00,0.0055
3190.00,0.0054
3189.00,0.0054
3188.00,0.0054
3187.00,0.0054
3186.00,0.0053
3185.00,0.0053
3184.00,0.0053
3183.00,0.0053
3182.00,0.0052
3181.00,0.0052
3180.00,0.0052
3179.00,0.0053
3178.00,0.0053
3177.00,0.0053
3176.00,0.0053
3175.00,0.0052
3174.00,0.0052
3173.00,0.0052
3172.00,0.0051
3171.00,0.0051
3170.00,0.0051
3169.00,0.0051
3168.00,0.0051
3167.00,0.0051
3166.00,0.0051
3165.00,0.0051
3164.00,0.0051
3163.00,0.0051
3162.00,0.0050
3161.00,0.0050
3160.00,0.0050
3159.00,0.0049
3158.00,0.0049
3157.00,0.0049
3156.00,0.0048
3155.00,0.0048
3154.00,0.0047
3153.00,0.0047
3152.00,0.0046
3151.00,0.0046
3150.00,0.0046
3149.00,0.0046
3148.00,0.0046
3147.00,0.0046
3146.00,0.0046
3145.00,0.0046
3144.00,0.0046
3143.00,0.0046
3142.00,0.0045
3141.00,0.0045
3140.00,0.0045
3139.00,0.0044
3138.00,0.0044
3137.00,0.0044
3136.00,0.0044
3135.00,0.0044
3134.00,0.0044
3133.00,0.0044
3132.00,0.0044
3131.00,0.0044
3130.00,0.0044
3129.00,0.0044
3128.00,0.0044
3127.00,0.0043
3126.00,0.0043
3125.00,0.0043
3124.00,0.0043
3123.00,0.0043
3122.00,0.0043
3121.00,0.0043
3120.00,0.0043
3119.00,0.0042
3118.00,0.0042
3117.00,0.0042
3116.00,0.0042
3115.00,0.0042
3114.00,0.0042
3113.00,0.0042
3112.00,0.0041
3111.00,0.0041
3110.00,0.0041
3109.00,0.0041
3108.00,0.0041
3107.00,0.0041
3106.00,0.0041
3105.00,0.0042
3104.00,0.0042
3103.00,0.0042
3102.00,0.0042
3101.00,0.0042
3100.00,0.0042
3099.00,0.0042
3098.00,0.0042
3097.00,0.0042
3096.00,0.0042
3095.00,0.0043
3094.00,0.0043
3093.00,0.0043
3092.00,0.0043
3091.00,0.0043
3090.00,0.0043
3089.00,0.0043
3088.00,0.0044
3087.00,0.0045
3086.00,0.0046
3085.00,0.0047
3084.00,0.0048
3083.00,0.0050
3082.00,0.0052
3081.00,0.0055
3080.00,0.0059
3079.00,0.0064
3078.00,0.0069
3077.00,0.0074
3076.00,0.0077
3075.00,0.0078
3074.00,0.0077
3073.00,0.0074
3072.00,0.0070
3071.00,0.0066
3070.00,0.0061
3069.00,0.0057
3068.00,0.0054
3067.00,0.0051
3066.00,0.0050
3065.00,0.0048
3064.00,0.0047
3063.00,0.0046
3062.00,0.0046
3061.00,0.0045
3060.00,0.0045
3059.00,0.0045
3058.00,0.0044
3057.00,0.0043
3056.00,0.0043
3055.00,0.0043
3054.00,0.0043
3053.00,0.0043
3052.00,0.0043
3051.00,0.0043
3050.00,0.0043
3049.00,0.0044
3048.00,0.0044
3047.00,0.0045
3046.00,0.0045
3045.00,0.0046
3044.00,0.0046
3043.00,0.0046
3042.00,0.0047
3041.00,0.0047
3040.00,0.0048
3039.00,0.0049
3038.00,0.0050
3037.00,0.0051
3036.00,0.0051
3035.00,0.0052
3034.00,0.0053
3033.00,0.0053
3032.00,0.0053
3031.00,0.0053
3030.00,0.0052
3029.00,0.0052
3028.00,0.0051
3027.00,0.0050
3026.00,0.0050
3025.00,0.0049
3024.00,0.0049
3023.00,0.0049
3022.00,0.0049
3021.00,0.0048
3020.00,0.0048
3019.00,0.0048
3018.00,0.0049
3017.00,0.0049
3016.00,0.0050
3015.00,0.0050
3014.00,0.0051
3013.00,0.0052
3012.00,0.0053
3011.00,0.0054
3010.00,0.0055
3009.00,0.0056
3008.00,0.0058
3007.00,0.0059
3006.00,0.0060
3005.00,0.0061
3004.00,0.0062
3003.00,0.0064
3002.00,0.0065
3001.00,0.0066
3000.00,0.0068
2999.00,0.0070
2998.00,0.0072
2997.00,0.0074
2996.00,0.0076
2995.00,0.0078
2994.00,0.0080
2993.00,0.0082
2992.00,0.0085
2991.00,0.0088
2990.00,0.0090
2989.00,0.0093
2988.00,0.0095
2987.00,0.0097
2986.00,0.0099
2985.00,0.0101
2984.00,0.0104
2983.00,0.0107
2982.00,0.0110
2981.00,0.0114
2980.00,0.0119
2979.00,0.0124
2978.00,0.0130
2977.00,0.0137
2976.00,0.0145
2975.00,0.0153
2974.00,0.0162
2973.00,0.0172
2972.00,0.0182
2971.00,0.0192
2970.00,0.0202
2969.00,0.0211
2968.00,0.0219
2967.00,0.0226
2966.00,0.0230
2965.00,0.0233
2964.00,0.0234
2963.00,0.0233
2962.00,0.0232
2961.00,0.0230
2960.00,0.0228
2959.00,0.0224
2958.00,0.0221
2957.00,0.0217
2956.00,0.0212
2955.00,0.0208
2954.00,0.0205
2953.00,0.0202
2952.00,0.0200
2951.00,0.0199
2950.00,0.0199
2949.00,0.0201
2948.00,0.0205
2947.00,0.0211
2946.00,0.0217
2945.00,0.0225
2944.00,0.0232
2943.00,0.0240
2942.00,0.0246
2941.00,0.0252
2940.00,0.0259
2939.00,0.0265
2938.00,0.0272
2937.00,0.0280
2936.00,0.0288
2935.00,0.0297
2934.00,0.0306
2933.00,0.0316
2932.00,0.0325
2931.00,0.0333
2930.00,0.0342
2929.00,0.0350
2928.00,0.0358
2927.00,0.0364
2926.00,0.0369
2925.00,0.0372
2924.00,0.0372
2923.00,0.0371
2922.00,0.0369
2921.00,0.0366
2920.00,0.0363
2919.00,0.0361
2918.00,0.0358
2917.00,0.0355
2916.00,0.0351
2915.00,0.0347
2914.00,0.0342
2913.00,0.0335
2912.00,0.0327
2911.00,0.0319
2910.00,0.0309
2909.00,0.0300
2908.00,0.0291
2907.00,0.0282
2906.00,0.0274
2905.00,0.0267
2904.00,0.0260
2903.00,0.0255
2902.00,0.0250
2901.00,0.0245
2900.00,0.0240
2899.00,0.0235
2898.00,0.0230
2897.00,0.0225
2896.00,0.0220
2895.00,0.0215
2894.00,0.0210
2893.00,0.0206
2892.00,0.0202
2891.00,0.0199
2890.00,0.0197
2889.00,0.0195
2888.00,0.0193
2887.00,0.0192
2886.00,0.0191
2885.00,0.0191
2884.00,0.0190
2883.00,0.0190
2882.00,0.0190
2881.00,0.0191
2880.00,0.0192
2879.00,0.0193
2878.00,0.0194
2877.00,0.0195
2876.00,0.0197
2875.00,0.0199
2874.00,0.0201
2873.00,0.0203
2872.00,0.0204
2871.00,0.0205
2870.00,0.0204
2869.00,0.0202
2868.00,0.0200
2867.00,0.0198
2866.00,0.0198
2865.00,0.0200
2864.00,0.0204
2863.00,0.0210
2862.00,0.0218
2861.00,0.0229
2860.00,0.0242
2859.00,0.0255
2858.00,0.0267
2857.00,0.0275
2856.00,0.0279
2855.00,0.0277
2854.00,0.0269
2853.00,0.0257
2852.00,0.0242
2851.00,0.0227
2850.00,0.0211
2849.00,0.0196
2848.00,0.0182
2847.00,0.0170
2846.00,0.0159
2845.00,0.0149
2844.00,0.0141
2843.00,0.0134
2842.00,0.0128
2841.00,0.0123
2840.00,0.0120
2839.00,0.0118
2838.00,0.0117
2837.00,0.0117
2836.00,0.0119
2835.00,0.0123
2834.00,0.0129
2833.00,0.0136
2832.00,0.0143
2831.00,0.0150
2830.00,0.0154
2829.00,0.0155
2828.00,0.0151
2827.00,0.0143
2826.00,0.0133
2825.00,0.0123
2824.00,0.0112
2823.00,0.0104
2822.00,0.0097
2821.00,0.0091
2820.00,0.0086
2819.00,0.0083
2818.00,0.0080
2817.00,0.0077
2816.00,0.0075
2815.00,0.0073
2814.00,0.0071
2813.00,0.0069
2812.00,0.0068
2811.00,0.0067
2810.00,0.0066
2809.00,0.0065
2808.00,0.0064
2807.00,0.0063
2806.00,0.0062
2805.00,0.0061
2804.00,0.0060
2803.00,0.0059
2802.00,0.0058
2801.00,0.0058
2800.00,0.0057
2799.00,0.0056
2798.00,0.0056
2797.00,0.0055
2796.00,0.0055
2795.00,0.0054
2794.00,0.0054
2793.00,0.0053
2792.00,0.0053
2791.00,0.0052
2790.00,0.0052
2789.00,0.0051
2788.00,0.0051
2787.00,0.0051
2786.00,0.0051
2785.00,0.0050
2784.00,0.0050
2783.00,0.0050
2782.00,0.0049
2781.00,0.0049
2780.00,0.0048
2779.00,0.0048
2778.00,0.0047
2777.00,0.0047
2776.00,0.0047
2775.00,0.0047
2774.00,0.0047
2773.00,0.0046
2772.00,0.0046
2771.00,0.0046
2770.00,0.0045
2769.00,0.0045
2768.00,0.0045
2767.00,0.0045
2766.00,0.0045
2765.00,0.0045
2764.00,0.0045
2763.00,0.0044
2762.00,0.0044
2761.00,0.0044
2760.00,0.0044
2759.00,0.0044
2758.00,0.0044
2757.00,0.0043
2756.00,0.0043
2755.00,0.0044
2754.00,0.0044
2753.00,0.0044
2752.00,0.0043
2751.00,0.0043
2750.00,0.0043
2749.00,0.0043
2748.00,0.0043
2747.00,0.0043
2746.00,0.0044
2745.00,0.0044
2744.00,0.0044
2743.00,0.0044
2742.00,0.0044
2741.00,0.0044
2740.00,0.0045
2739.00,0.0045
2738.00,0.0045
2737.00,0.0046
2736.00,0.0046
2735.00,0.0046
2734.00,0.0047
2733.00,0.0048
2732.00,0.0049
2731.00,0.0049
2730.00,0.0050
2729.00,0.0050
2728.00,0.0050
2727.00,0.0050
2726.00,0.0049
2725.00,0.0048
2724.00,0.0048
2723.00,0.0047
2722.00,0.0046
2721.00,0.0046
2720.00,0.0045
2719.00,0.0045
2718.00,0.0044
2717.00,0.0044
2716.00,0.0043
2715.00,0.0043
2714.00,0.0042
2713.00,0.0042
2712.00,0.0042
2711.00,0.0042
2710.00,0.0041
2709.00,0.0041
2708.00,0.0041
2707.00,0.0041
2706.00,0.0041
2705.00,0.0041
2704.00,0.0040
2703.00,0.0040
2702.00,0.0040
2701.00,0.0040
2700.00,0.0040
2699.00,0.0040
2698.00,0.0040
2697.00,0.0040
2696.00,0.0040
2695.00,0.0040
2694.00,0.0040
2693.00,0.0039
2692.00,0.0039
2691.00,0.0039
2690.00,0.0040
2689.00,0.0040
2688.00,0.0040
2687.00,0.0040
2686.00,0.0040
2685.00,0.0040
2684.00,0.0040
2683.00,0.0040
2682.00,0.0041
2681.00,0.0041
2680.00,0.0041
2679.00,0.0041
2678.00,0.0041
2677.00,0.0041
2676.00,0.0042
2675.00,0.0042
2674.00,0.0042
2673.00,0.0042
2672.00,0.0042
2671.00,0.0042
2670.00,0.0042
2669.00,0.0042
2668.00,0.0043
2667.00,0.0043
2666.00,0.0043
2665.00,0.0044
2664.00,0.0044
2663.00,0.0045
2662.00,0.0045
2661.00,0.0045
2660.00,0.0045
2659.00,0.0046
2658.00,0.0046
2657.00,0.0046
2656.00,0.0046
2655.00,0.0047
2654.00,0.0047
2653.00,0.0046
2652.00,0.0046
2651.00,0.0046
2650.00,0.0046
2649.00,0.0046
2648.00,0.0046
2647.00,0.0045
2646.00,0.0045
2645.00,0.0045
2644.00,0.0045
2643.00,0.0045
2642.00,0.0045
2641.00,0.0045
2640.00,0.0045
2639.00,0.0045
2638.00,0.0045
2637.00,0.0045
2636.00,0.0045
2635.00,0.0045
2634.00,0.0044
2633.00,0.0045
2632.00,0.0045
2631.00,0.0045
2630.00,0.0045
2629.00,0.0045
2628.00,0.0045
2627.00,0.0044
2626.00,0.0044
2625.00,0.0044
2624.00,0.0044
2623.00,0.0044
2622.00,0.0044
2621.00,0.0044
2620.00,0.0044
2619.00,0.0044
2618.00,0.0044
2617.00,0.0044
2616.00,0.0043
2615.00,0.0043
2614.00,0.0043
2613.00,0.0043
2612.00,0.0042
2611.00,0.0042
2610.00,0.0042
2609.00,0.0042
2608.00,0.0042
2607.00,0.0042
2606.00,0.0042
2605.00,0.0042
2604.00,0.0042
2603.00,0.0042
2602.00,0.0042
2601.00,0.0041
2600.00,0.0042
2599.00,0.0042
2598.00,0.0042
2597.00,0.0042
2596.00,0.0042
2595.00,0.0042
2594.00,0.0042
2593.00,0.0041
2592.00,0.0041
2591.00,0.0041
2590.00,0.0041
2589.00,0.0041
2588.00,0.0041
2587.00,0.0041
2586.00,0.0041
2585.00,0.0041
2584.00,0.0040
2583.00,0.0040
2582.00,0.0040
2581.00,0.0041
2580.00,0.0041
2579.00,0.0041
2578.00,0.0041
2577.00,0.0040
2576.00,0.0040
2575.00,0.0040
2574.00,0.0040
2573.00,0.0040
2572.00,0.0040
2571.00,0.0040
2570.00,0.0040
2569.00,0.0040
2568.00,0.0040
2567.00,0.0040
2566.00,0.0040
2565.00,0.0040
2564.00,0.0040
2563.00,0.0040
2562.00,0.0040
2561.00,0.0040
2560.00,0.0040
2559.00,0.0040
2558.00,0.0039
2557.00,0.0039
2556.00,0.0039
2555.00,0.0039
2554.00,0.0039
2553.00,0.0039
2552.00,0.0039
2551.00,0.0038
2550.00,0.0038
2549.00,0.0039
2548.00,0.0039
2547.00,0.0039
2546.00,0.0039
2545.00,0.0039
2544.00,0.0038
2543.00,0.0038
2542.00,0.0038
2541.00,0.0038
2540.00,0.0038
2539.00,0.0038
2538.00,0.0038
2537.00,0.0038
2536.00,0.0038
2535.00,0.0037
2534.00,0.0037
2533.00,0.0037
2532.00,0.0037
2531.00,0.0037
2530.00,0.0037
2529.00,0.0037
2528.00,0.0037
2527.00,0.0037
2526.00,0.0037
2525.00,0.0038
2524.00,0.0038
2523.00,0.0038
2522.00,0.0038
2521.00,0.0037
2520.00,0.0037
2519.00,0.0037
2518.00,0.0037
2517.00,0.0037
2516.00,0.0037
2515.00,0.0037
2514.00,0.0036
2513.00,0.0036
2512.00,0.0036
2511.00,0.0036
2510.00,0.0036
2509.00,0.0037
2508.00,0.0037
2507.00,0.0037
2506.00,0.0037
2505.00,0.0037
2504.00,0.0037
2503.00,0.0037
2502.00,0.0037
2501.00,0.0036
2500.00,0.0036
2499.00,0.0036
2498.00,0.0036
2497.00,0.0036
2496.00,0.0036
2495.00,0.0036
2494.00,0.0036
2493.00,0.0036
2492.00,0.0036
2491.00,0.0036
2490.00,0.0036
2489.00,0.0036
2488.00,0.0037
2487.00,0.0036
2486.00,0.0036
2485.00,0.0036
2484.00,0.0036
2483.00,0.0036
2482.00,0.0036
2481.00,0.0036
2480.00,0.0036
2479.00,0.0036
2478.00,0.0036
2477.00,0.0037
2476.00,0.0037
2475.00,0.0037
2474.00,0.0037
2473.00,0.0037
2472.00,0.0037
2471.00,0.0037
2470.00,0.0037
2469.00,0.0037
2468.00,0.0037
2467.00,0.0037
2466.00,0.0037
2465.00,0.0037
2464.00,0.0037
2463.00,0.0037
2462.00,0.0038
2461.00,0.0038
2460.00,0.0038
2459.00,0.0038
2458.00,0.0038
2457.00,0.0038
2456.00,0.0038
2455.00,0.0039
2454.00,0.0039
2453.00,0.0039
2452.00,0.0039
2451.00,0.0039
2450.00,0.0038
2449.00,0.0038
2448.00,0.0038
2447.00,0.0037
2446.00,0.0037
2445.00,0.0036
2444.00,0.0036
2443.00,0.0036
2442.00,0.0035
2441.00,0.0035
2440.00,0.0035
2439.00,0.0035
2438.00,0.0035
2437.00,0.0035
2436.00,0.0034
2435.00,0.0034
2434.00,0.0033
2433.00,0.0033
2432.00,0.0033
2431.00,0.0033
2430.00,0.0033
2429.00,0.0033
2428.00,0.0032
2427.00,0.0032
2426.00,0.0032
2425.00,0.0032
2424.00,0.0032
2423.00,0.0032
2422.00,0.0032
2421.00,0.0032
2420.00,0.0031
2419.00,0.0031
2418.00,0.0031
2417.00,0.0031
2416.00,0.0032
2415.00,0.0032
2414.00,0.0032
2413.00,0.0032
2412.00,0.0032
2411.00,0.0032
2410.00,0.0032
2409.00,0.0031
2408.00,0.0030
2407.00,0.0030
2406.00,0.0030
2405.00,0.0030
2404.00,0.0030
2403.00,0.0030
2402.00,0.0030
2401.00,0.0030
2400.00,0.0030
2399.00,0.0030
2398.00,0.0030
2397.00,0.0029
2396.00,0.0029
2395.00,0.0029
2394.00,0.0030
2393.00,0.0030
2392.00,0.0030
2391.00,0.0030
2390.00,0.0030
2389.00,0.0029
2388.00,0.0029
2387.00,0.0028
2386.00,0.0028
2385.00,0.0028
2384.00,0.0027
2383.00,0.0027
2382.00,0.0026
2381.00,0.0025
2380.00,0.0025
2379.00,0.0025
2378.00,0.0025
2377.00,0.0025
2376.00,0.0025
2375.00,0.0025
2374.00,0.0025
2373.00,0.0025
2372.00,0.0025
2371.00,0.0025
2370.00,0.0024
2369.00,0.0023
2368.00,0.0023
2367.00,0.0022
2366.00,0.0023
2365.00,0.0023
2364.00,0.0024
2363.00,0.0025
2362.00,0.0025
2361.00,0.0025
2360.00,0.0025
2359.00,0.0025
2358.00,0.0025
2357.00,0.0025
2356.00,0.0026
2355.00,0.0026
2354.00,0.0026
2353.00,0.0026
2352.00,0.0025
2351.00,0.0024
2350.00,0.0025
2349.00,0.0026
2348.00,0.0028
2347.00,0.0030
2346.00,0.0030
2345.00,0.0030
2344.00,0.0029
2343.00,0.0028
2342.00,0.0028
2341.00,0.0028
2340.00,0.0029
2339.00,0.0030
2338.00,0.0030
2337.00,0.0029
2336.00,0.0029
2335.00,0.0029
2334.00,0.0029
2333.00,0.0029
2332.00,0.0029
2331.00,0.0028
2330.00,0.0028
2329.00,0.0030
2328.00,0.0033
2327.00,0.0038
2326.00,0.0042
2325.00,0.0043
2324.00,0.0043
2323.00,0.0041
2322.00,0.0038
2321.00,0.0036
2320.00,0.0035
2319.00,0.0035
2318.00,0.0034
2317.00,0.0035
2316.00,0.0035
2315.00,0.0035
2314.00,0.0035
2313.00,0.0034
2312.00,0.0033
2311.00,0.0032
2310.00,0.0032
2309.00,0.0032
2308.00,0.0032
2307.00,0.0032
2306.00,0.0032
2305.00,0.0033
2304.00,0.0033
2303.00,0.0033
2302.00,0.0033
2301.00,0.0034
2300.00,0.0034
2299.00,0.0035
2298.00,0.0035
2297.00,0.0036
2296.00,0.0036
2295.00,0.0037
2294.00,0.0038
2293.00,0.0039
2292.00,0.0040
2291.00,0.0041
2290.00,0.0042
2289.00,0.0042
2288.00,0.0043
2287.00,0.0043
2286.00,0.0042
2285.00,0.0042
2284.00,0.0041
2283.00,0.0041
2282.00,0.0040
2281.00,0.0040
2280.00,0.0040
2279.00,0.0040
2278.00,0.0039
2277.00,0.0039
2276.00,0.0038
2275.00,0.0037
2274.00,0.0037
2273.00,0.0036
2272.00,0.0036
2271.00,0.0036
2270.00,0.0036
2269.00,0.0035
2268.00,0.0035
2267.00,0.0035
2266.00,0.0034
2265.00,0.0034
2264.00,0.0034
2263.00,0.0035
2262.00,0.0036
2261.00,0.0036
2260.00,0.0036
2259.00,0.0036
2258.00,0.0035
2257.00,0.0034
2256.00,0.0033
2255.00,0.0032
2254.00,0.0031
2253.00,0.0031
2252.00,0.0032
2251.00,0.0033
2250.00,0.0033
2249.00,0.0034
2248.00,0.0034
2247.00,0.0034
2246.00,0.0034
2245.00,0.0035
2244.00,0.0035
2243.00,0.0035
2242.00,0.0035
2241.00,0.0035
2240.00,0.0035
2239.00,0.0035
2238.00,0.0034
2237.00,0.0034
2236.00,0.0033
2235.00,0.0033
2234.00,0.0033
2233.00,0.0033
2232.00,0.0033
2231.00,0.0033
2230.00,0.0033
2229.00,0.0033
2228.00,0.0033
2227.00,0.0034
2226.00,0.0034
2225.00,0.0033
2224.00,0.0033
2223.00,0.0034
2222.00,0.0034
2221.00,0.0034
2220.00,0.0034
2219.00,0.0034
2218.00,0.0033
2217.00,0.0033
2216.00,0.0033
2215.00,0.0032
2214.00,0.0032
2213.00,0.0032
2212.00,0.0031
2211.00,0.0031
2210.00,0.0030
2209.00,0.0030
2208.00,0.0030
2207.00,0.0030
2206.00,0.0031
2205.00,0.0031
2204.00,0.0032
2203.00,0.0033
2202.00,0.0034
2201.00,0.0034
2200.00,0.0035
2199.00,0.0036
2198.00,0.0036
2197.00,0.0036
2196.00,0.0037
2195.00,0.0036
2194.00,0.0036
2193.00,0.0035
2192.00,0.0035
2191.00,0.0036
2190.00,0.0037
2189.00,0.0038
2188.00,0.0038
2187.00,0.0038
2186.00,0.0037
2185.00,0.0035
2184.00,0.0032
2183.00,0.0031
2182.00,0.0030
2181.00,0.0030
2180.00,0.0031
2179.00,0.0031
2178.00,0.0029
2177.00,0.0028
2176.00,0.0028
2175.00,0.0029
2174.00,0.0030
2173.00,0.0032
2172.00,0.0034
2171.00,0.0036
2170.00,0.0039
2169.00,0.0042
2168.00,0.0044
2167.00,0.0046
2166.00,0.0048
2165.00,0.0050
2164.00,0.0052
2163.00,0.0050
2162.00,0.0042
2161.00,0.0028
2160.00,0.0013
2159.00,0.0001
2158.00,-0.0003
2157.00,-0.0002
2156.00,0.0001
2155.00,0.0005
2154.00,0.0007
2153.00,0.0010
2152.00,0.0013
2151.00,0.0015
2150.00,0.0015
2149.00,0.0013
2148.00,0.0011
2147.00,0.0010
2146.00,0.0009
2145.00,0.0010
2144.00,0.0012
2143.00,0.0013
2142.00,0.0014
2141.00,0.0014
2140.00,0.0014
2139.00,0.0014
2138.00,0.0013
2137.00,0.0011
2136.00,0.0009
2135.00,0.0007
2134.00,0.0007
2133.00,0.0008
2132.00,0.0010
2131.00,0.0013
2130.00,0.0015
2129.00,0.0017
2128.00,0.0018
2127.00,0.0019
2126.00,0.0020
2125.00,0.0021
2124.00,0.0022
2123.00,0.0023
2122.00,0.0024
2121.00,0.0025
2120.00,0.0026
2119.00,0.0027
2118.00,0.0028
2117.00,0.0029
2116.00,0.0030
2115.00,0.0031
2114.00,0.0031
2113.00,0.0031
2112.00,0.0030
2111.00,0.0029
2110.00,0.0028
2109.00,0.0027
2108.00,0.0027
2107.00,0.0027
2106.00,0.0028
2105.00,0.0028
2104.00,0.0029
2103.00,0.0029
2102.00,0.0029
2101.00,0.0029
2100.00,0.0028
2099.00,0.0028
2098.00,0.0026
2097.00,0.0024
2096.00,0.0022
2095.00,0.0021
2094.00,0.0021
2093.00,0.0023
2092.00,0.0025
2091.00,0.0027
2090.00,0.0028
2089.00,0.0029
2088.00,0.0029
2087.00,0.0029
2086.00,0.0029
2085.00,0.0029
2084.00,0.0029
2083.00,0.0030
2082.00,0.0030
2081.00,0.0031
2080.00,0.0031
2079.00,0.0031
2078.00,0.0030
2077.00,0.0029
2076.00,0.0028
2075.00,0.0027
2074.00,0.0026
2073.00,0.0026
2072.00,0.0026
2071.00,0.0027
2070.00,0.0027
2069.00,0.0027
2068.00,0.0027
2067.00,0.0027
2066.00,0.0026
2065.00,0.0025
2064.00,0.0024
2063.00,0.0023
2062.00,0.0023
2061.00,0.0024
2060.00,0.0024
2059.00,0.0025
2058.00,0.0026
2057.00,0.0027
2056.00,0.0027
2055.00,0.0028
2054.00,0.0030
2053.00,0.0034
2052.00,0.0037
2051.00,0.0037
2050.00,0.0033
2049.00,0.0029
2048.00,0.0027
2047.00,0.0025
2046.00,0.0025
2045.00,0.0024
2044.00,0.0025
2043.00,0.0025
2042.00,0.0025
2041.00,0.0024
2040.00,0.0023
2039.00,0.0023
2038.00,0.0022
2037.00,0.0022
2036.00,0.0021
2035.00,0.0019
2034.00,0.0016
2033.00,0.0015
2032.00,0.0015
2031.00,0.0016
2030.00,0.0017
2029.00,0.0017
2028.00,0.0017
2027.00,0.0016
2026.00,0.0016
2025.00,0.0015
2024.00,0.0016
2023.00,0.0016
2022.00,0.0017
2021.00,0.0017
2020.00,0.0018
2019.00,0.0018
2018.00,0.0017
2017.00,0.0016
2016.00,0.0016
2015.00,0.0015
2014.00,0.0014
2013.00,0.0012
2012.00,0.0012
2011.00,0.0012
2010.00,0.0013
2009.00,0.0012
2008.00,0.0010
2007.00,0.0009
2006.00,0.0008
2005.00,0.0009
2004.00,0.0010
2003.00,0.0012
2002.00,0.0014
2001.00,0.0016
2000.00,0.0017
1999.00,0.0018
1998.00,0.0019
1997.00,0.0019
1996.00,0.0019
1995.00,0.0020
1994.00,0.0021
1993.00,0.0022
1992.00,0.0023
1991.00,0.0024
1990.00,0.0025
1989.00,0.0025
1988.00,0.0027
1987.00,0.0028
1986.00,0.0028
1985.00,0.0029
1984.00,0.0031
1983.00,0.0033
1982.00,0.0036
1981.00,0.0037
1980.00,0.0035
1979.00,0.0030
1978.00,0.0024
1977.00,0.0019
1976.00,0.0016
1975.00,0.0013
1974.00,0.0011
1973.00,0.0009
1972.00,0.0009
1971.00,0.0009
1970.00,0.0010
1969.00,0.0011
1968.00,0.0012
1967.00,0.0012
1966.00,0.0011
1965.00,0.0011
1964.00,0.0011
1963.00,0.0010
1962.00,0.0008
1961.00,0.0006
1960.00,0.0006
1959.00,0.0006
1958.00,0.0007
1957.00,0.0009
1956.00,0.0011
1955.00,0.0012
1954.00,0.0012
1953.00,0.0012
1952.00,0.0013
1951.00,0.0012
1950.00,0.0012
1949.00,0.0012
1948.00,0.0013
1947.00,0.0014
1946.00,0.0014
1945.00,0.0015
1944.00,0.0016
1943.00,0.0016
1942.00,0.0016
1941.00,0.0015
1940.00,0.0015
1939.00,0.0015
1938.00,0.0015
1937.00,0.0015
1936.00,0.0016
1935.00,0.0016
1934.00,0.0016
1933.00,0.0016
1932.00,0.0016
1931.00,0.0016
1930.00,0.0015
1929.00,0.0015
1928.00,0.0016
1927.00,0.0016
1926.00,0.0017
1925.00,0.0017
1924.00,0.0018
1923.00,0.0019
1922.00,0.0020
1921.00,0.0020
1920.00,0.0020
1919.00,0.0019
1918.00,0.0019
1917.00,0.0019
1916.00,0.0019
1915.00,0.0019
1914.00,0.0019
1913.00,0.0019
1912.00,0.0020
1911.00,0.0020
1910.00,0.0020
1909.00,0.0021
1908.00,0.0021
1907.00,0.0021
1906.00,0.0021
1905.00,0.0021
1904.00,0.0021
1903.00,0.0021
1902.00,0.0020
1901.00,0.0020
1900.00,0.0020
1899.00,0.0019
1898.00,0.0019
1897.00,0.0019
1896.00,0.0020
1895.00,0.0021
1894.00,0.0021
1893.00,0.0021
1892.00,0.0020
1891.00,0.0021
1890.00,0.0021
1889.00,0.0021
1888.00,0.0022
1887.00,0.0022
1886.00,0.0022
1885.00,0.0022
1884.00,0.0023
1883.00,0.0023
1882.00,0.0023
1881.00,0.0023
1880.00,0.0023
1879.00,0.0023
1878.00,0.0023
1877.00,0.0023
1876.00,0.0023
1875.00,0.0023
1874.00,0.0023
1873.00,0.0022
1872.00,0.0022
1871.00,0.0022
1870.00,0.0022
1869.00,0.0023
1868.00,0.0023
1867.00,0.0023
1866.00,0.0023
1865.00,0.0023
1864.00,0.0023
1863.00,0.0023
1862.00,0.0023
1861.00,0.0023
1860.00,0.0024
1859.00,0.0024
1858.00,0.0024
1857.00,0.0024
1856.00,0.0024
1855.00,0.0024
1854.00,0.0024
1853.00,0.0023
1852.00,0.0023
1851.00,0.0023
1850.00,0.0023
1849.00,0.0024
1848.00,0.0025
1847.00,0.0025
1846.00,0.0025
1845.00,0.0024
1844.00,0.0024
1843.00,0.0024
1842.00,0.0023
1841.00,0.0023
1840.00,0.0024
1839.00,0.0024
1838.00,0.0025
1837.00,0.0025
1836.00,0.0025
1835.00,0.0025
1834.00,0.0025
1833.00,0.0025
1832.00,0.0025
1831.00,0.0025
1830.00,0.0026
1829.00,0.0026
1828.00,0.0026
1827.00,0.0026
1826.00,0.0025
1825.00,0.0026
1824.00,0.0026
1823.00,0.0026
1822.00,0.0026
1821.00,0.0026
1820.00,0.0025
1819.00,0.0024
1818.00,0.0023
1817.00,0.0023
1816.00,0.0023
1815.00,0.0024
1814.00,0.0025
1813.00,0.0025
1812.00,0.0026
1811.00,0.0028
1810.00,0.0028
1809.00,0.0029
1808.00,0.0030
1807.00,0.0030
1806.00,0.0030
1805.00,0.0030
1804.00,0.0030
1803.00,0.0030
1802.00,0.0030
1801.00,0.0030
1800.00,0.0030
1799.00,0.0031
1798.00,0.0031
1797.00,0.0031
1796.00,0.0031
1795.00,0.0031
1794.00,0.0030
1793.00,0.0030
1792.00,0.0030
1791.00,0.0030
1790.00,0.0029
1789.00,0.0029
1788.00,0.0029
1787.00,0.0029
1786.00,0.0029
1785.00,0.0029
1784.00,0.0029
1783.00,0.0029
1782.00,0.0030
1781.00,0.0030
1780.00,0.0031
1779.00,0.0031
1778.00,0.0031
1777.00,0.0031
1776.00,0.0032
1775.00,0.0033
1774.00,0.0033
1773.00,0.0034
1772.00,0.0035
1771.00,0.0035
1770.00,0.0035
1769.00,0.0034
1768.00,0.0034
1767.00,0.0033
1766.00,0.0033
1765.00,0.0033
1764.00,0.0033
1763.00,0.0032
1762.00,0.0032
1761.00,0.0032
1760.00,0.0032
1759.00,0.0032
1758.00,0.0032
1757.00,0.0032
1756.00,0.0032
1755.00,0.0032
1754.00,0.0032
1753.00,0.0033
1752.00,0.0033
1751.00,0.0034
1750.00,0.0034
1749.00,0.0034
1748.00,0.0035
1747.00,0.0035
1746.00,0.0035
1745.00,0.0035
1744.00,0.0035
1743.00,0.0035
1742.00,0.0035
1741.00,0.0035
1740.00,0.0035
1739.00,0.0036
1738.00,0.0036
1737.00,0.0037
1736.00,0.0038
1735.00,0.0038
1734.00,0.0039
1733.00,0.0039
1732.00,0.0039
1731.00,0.0039
1730.00,0.0040
1729.00,0.0040
1728.00,0.0041
1727.00,0.0041
1726.00,0.0041
1725.00,0.0042
1724.00,0.0043
1723.00,0.0044
1722.00,0.0045
1721.00,0.0045
1720.00,0.0047
1719.00,0.0048
1718.00,0.0050
1717.00,0.0052
1716.00,0.0053
1715.00,0.0054
1714.00,0.0056
1713.00,0.0057
1712.00,0.0059
1711.00,0.0061
1710.00,0.0063
1709.00,0.0065
1708.00,0.0067
1707.00,0.0071
1706.00,0.0075
1705.00,0.0079
1704.00,0.0084
1703.00,0.0087
1702.00,0.0091
1701.00,0.0097
1700.00,0.0106
1699.00,0.0113
1698.00,0.0119
1697.00,0.0125
1696.00,0.0134
1695.00,0.0143
1694.00,0.0150
1693.00,0.0155
1692.00,0.0162
1691.00,0.0170
1690.00,0.0180
1689.00,0.0190
1688.00,0.0199
1687.00,0.0206
1686.00,0.0214
1685.00,0.0227
1684.00,0.0246
1683.00,0.0262
1682.00,0.0271
1681.00,0.0280
1680.00,0.0289
1679.00,0.0299
1678.00,0.0307
1677.00,0.0317
1676.00,0.0330
1675.00,0.0344
1674.00,0.0357
1673.00,0.0365
1672.00,0.0373
1671.00,0.0383
1670.00,0.0395
1669.00,0.0408
1668.00,0.0420
1667.00,0.0427
1666.00,0.0433
1665.00,0.0438
1664.00,0.0446
1663.00,0.0457
1662.00,0.0467
1661.00,0.0475
1660.00,0.0480
1659.00,0.0485
1658.00,0.0490
1657.00,0.0493
1656.00,0.0497
1655.00,0.0502
1654.00,0.0516
1653.00,0.0538
1652.00,0.0552
1651.00,0.0556
1650.00,0.0558
1649.00,0.0564
1648.00,0.0579
1647.00,0.0605
1646.00,0.0630
1645.00,0.0645
1644.00,0.0648
1643.00,0.0643
1642.00,0.0631
1641.00,0.0616
1640.00,0.0602
1639.00,0.0590
1638.00,0.0583
1637.00,0.0583
1636.00,0.0593
1635.00,0.0606
1634.00,0.0615
1633.00,0.0618
1632.00,0.0617
1631.00,0.0615
1630.00,0.0611
1629.00,0.0608
1628.00,0.0606
1627.00,0.0607
1626.00,0.0609
1625.00,0.0610
1624.00,0.0610
1623.00,0.0603
1622.00,0.0587
1621.00,0.0562
1620.00,0.0532
1619.00,0.0500
1618.00,0.0464
1617.00,0.0426
1616.00,0.0392
1615.00,0.0364
1614.00,0.0343
1613.00,0.0324
1612.00,0.0307
1611.00,0.0291
1610.00,0.0277
1609.00,0.0265
1608.00,0.0254
1607.00,0.0244
1606.00,0.0235
1605.00,0.0228
1604.00,0.0222
1603.00,0.0217
1602.00,0.0213
1601.00,0.0210
1600.00,0.0208
1599.00,0.0208
1598.00,0.0209
1597.00,0.0212
1596.00,0.0216
1595.00,0.0224
1594.00,0.0234
1593.00,0.0249
1592.00,0.0267
1591.00,0.0291
1590.00,0.0318
1589.00,0.0348
1588.00,0.0378
1587.00,0.0406
1586.00,0.0431
1585.00,0.0453
1584.00,0.0470
1583.00,0.0482
1582.00,0.0487
1581.00,0.0482
1580.00,0.0470
1579.00,0.0453
1578.00,0.0428
1577.00,0.0395
1576.00,0.0358
1575.00,0.0324
1574.00,0.0298
1573.00,0.0278
1572.00,0.0259
1571.00,0.0241
1570.00,0.0221
1569.00,0.0203
1568.00,0.0188
1567.00,0.0176
1566.00,0.0165
1565.00,0.0156
1564.00,0.0148
1563.00,0.0142
1562.00,0.0137
1561.00,0.0132
1560.00,0.0127
1559.00,0.0124
1558.00,0.0120
1557.00,0.0117
1556.00,0.0114
1555.00,0.0111
1554.00,0.0109
1553.00,0.0107
1552.00,0.0105
1551.00,0.0103
1550.00,0.0102
1549.00,0.0100
1548.00,0.0099
1547.00,0.0097
1546.00,0.0096
1545.00,0.0096
1544.00,0.0096
1543.00,0.0096
1542.00,0.0096
1541.00,0.0096
1540.00,0.0096
1539.00,0.0095
1538.00,0.0093
1537.00,0.0092
1536.00,0.0091
1535.00,0.0090
1534.00,0.0090
1533.00,0.0091
1532.00,0.0090
1531.00,0.0090
1530.00,0.0090
1529.00,0.0090
1528.00,0.0090
1527.00,0.0092
1526.00,0.0093
1525.00,0.0095
1524.00,0.0098
1523.00,0.0101
1522.00,0.0107
1521.00,0.0115
1520.00,0.0122
1519.00,0.0128
1518.00,0.0136
1517.00,0.0144
1516.00,0.0151
1515.00,0.0154
1514.00,0.0155
1513.00,0.0153
1512.00,0.0150
1511.00,0.0145
1510.00,0.0141
1509.00,0.0138
1508.00,0.0136
1507.00,0.0136
1506.00,0.0137
1505.00,0.0138
1504.00,0.0139
1503.00,0.0142
1502.00,0.0145
1501.00,0.0149
1500.00,0.0153
1499.00,0.0158
1498.00,0.0162
1497.00,0.0166
1496.00,0.0169
1495.00,0.0169
1494.00,0.0169
1493.00,0.0167
1492.00,0.0165
1491.00,0.0161
1490.00,0.0157
1489.00,0.0152
1488.00,0.0146
1487.00,0.0139
1486.00,0.0133
1485.00,0.0127
1484.00,0.0123
1483.00,0.0119
1482.00,0.0116
1481.00,0.0114
1480.00,0.0114
1479.00,0.0114
1478.00,0.0115
1477.00,0.0118
1476.00,0.0123
1475.00,0.0129
1474.00,0.0138
1473.00,0.0152
1472.00,0.0171
1471.00,0.0191
1470.00,0.0212
1469.00,0.0235
1468.00,0.0258
1467.00,0.0282
1466.00,0.0305
1465.00,0.0327
1464.00,0.0347
1463.00,0.0362
1462.00,0.0372
1461.00,0.0380
1460.00,0.0384
1459.00,0.0385
1458.00,0.0385
1457.00,0.0384
1456.00,0.0385
1455.00,0.0386
1454.00,0.0392
1453.00,0.0404
1452.00,0.0422
1451.00,0.0445
1450.00,0.0474
1449.00,0.0509
1448.00,0.0550
1447.00,0.0589
1446.00,0.0624
1445.00,0.0652
1444.00,0.0674
1443.00,0.0689
1442.00,0.0700
1441.00,0.0707
1440.00,0.0711
1439.00,0.0711
1438.00,0.0708
1437.00,0.0703
1436.00,0.0693
1435.00,0.0679
1434.00,0.0664
1433.00,0.0647
1432.00,0.0630
1431.00,0.0611
1430.00,0.0592
1429.00,0.0571
1428.00,0.0550
1427.00,0.0530
1426.00,0.0513
1425.00,0.0499
1424.00,0.0487
1423.00,0.0476
1422.00,0.0466
1421.00,0.0454
1420.00,0.0439
1419.00,0.0421
1418.00,0.0399
1417.00,0.0377
1416.00,0.0354
1415.00,0.0331
1414.00,0.0309
1413.00,0.0287
1412.00,0.0267
1411.00,0.0248
1410.00,0.0232
1409.00,0.0218
1408.00,0.0206
1407.00,0.0195
1406.00,0.0186
1405.00,0.0178
1404.00,0.0171
1403.00,0.0165
1402.00,0.0160
1401.00,0.0155
1400.00,0.0151
1399.00,0.0148
1398.00,0.0146
1397.00,0.0144
1396.00,0.0141
1395.00,0.0140
1394.00,0.0139
1393.00,0.0138
1392.00,0.0138
1391.00,0.0138
1390.00,0.0139
1389.00,0.0142
1388.00,0.0145
1387.00,0.0150
1386.00,0.0156
1385.00,0.0163
1384.00,0.0171
1383.00,0.0182
1382.00,0.0197
1381.00,0.0215
1380.00,0.0237
1379.00,0.0262
1378.00,0.0289
1377.00,0.0314
1376.00,0.0332
1375.00,0.0342
1374.00,0.0341
1373.00,0.0331
1372.00,0.0317
1371.00,0.0302
1370.00,0.0288
1369.00,0.0274
1368.00,0.0261
1367.00,0.0250
1366.00,0.0239
1365.00,0.0229
1364.00,0.0219
1363.00,0.0209
1362.00,0.0200
1361.00,0.0193
1360.00,0.0186
1359.00,0.0181
1358.00,0.0177
1357.00,0.0174
1356.00,0.0171
1355.00,0.0169
1354.00,0.0168
1353.00,0.0167
1352.00,0.0166
1351.00,0.0166
1350.00,0.0167
1349.00,0.0169
1348.00,0.0170
1347.00,0.0173
1346.00,0.0176
1345.00,0.0179
1344.00,0.0181
1343.00,0.0183
1342.00,0.0184
1341.00,0.0184
1340.00,0.0183
1339.00,0.0180
1338.00,0.0176
1337.00,0.0174
1336.00,0.0173
1335.00,0.0174
1334.00,0.0177
1333.00,0.0182
1332.00,0.0189
1331.00,0.0196
1330.00,0.0205
1329.00,0.0213
1328.00,0.0222
1327.00,0.0231
1326.00,0.0241
1325.00,0.0250
1324.00,0.0257
1323.00,0.0262
1322.00,0.0263
1321.00,0.0263
1320.00,0.0262
1319.00,0.0264
1318.00,0.0268
1317.00,0.0276
1316.00,0.0288
1315.00,0.0301
1314.00,0.0316
1313.00,0.0328
1312.00,0.0335
1311.00,0.0337
1310.00,0.0332
1309.00,0.0325
1308.00,0.0318
1307.00,0.0314
1306.00,0.0314
1305.00,0.0318
1304.00,0.0324
1303.00,0.0333
1302.00,0.0342
1301.00,0.0351
1300.00,0.0360
1299.00,0.0371
1298.00,0.0384
1297.00,0.0397
1296.00,0.0411
1295.00,0.0426
1294.00,0.0441
1293.00,0.0456
1292.00,0.0470
1291.00,0.0483
1290.00,0.0496
1289.00,0.0507
1288.00,0.0518
1287.00,0.0528
1286.00,0.0537
1285.00,0.0545
1284.00,0.0552
1283.00,0.0556
1282.00,0.0558
1281.00,0.0559
1280.00,0.0559
1279.00,0.0558
1278.00,0.0558
1277.00,0.0556
1276.00,0.0554
1275.00,0.0551
1274.00,0.0545
1273.00,0.0537
1272.00,0.0526
1271.00,0.0512
1270.00,0.0497
1269.00,0.0479
1268.00,0.0461
1267.00,0.0443
1266.00,0.0425
1265.00,0.0408
1264.00,0.0391
1263.00,0.0374
1262.00,0.0359
1261.00,0.0344
1260.00,0.0330
1259.00,0.0318
1258.00,0.0306
1257.00,0.0297
1256.00,0.0288
1255.00,0.0281
1254.00,0.0277
1253.00,0.0274
1252.00,0.0273
1251.00,0.0274
1250.00,0.0276
1249.00,0.0278
1248.00,0.0279
1247.00,0.0279
1246.00,0.0281
1245.00,0.0285
1244.00,0.0293
1243.00,0.0305
1242.00,0.0323
1241.00,0.0343
1240.00,0.0366
1239.00,0.0388
1238.00,0.0407
1237.00,0.0419
1236.00,0.0426
1235.00,0.0427
1234.00,0.0426
1233.00,0.0422
1232.00,0.0416
1231.00,0.0408
1230.00,0.0403
1229.00,0.0403
1228.00,0.0408
1227.00,0.0419
1226.00,0.0435
1225.00,0.0453
1224.00,0.0472
1223.00,0.0492
1222.00,0.0515
1221.00,0.0542
1220.00,0.0574
1219.00,0.0611
1218.00,0.0650
1217.00,0.0688
1216.00,0.0718
1215.00,0.0736
1214.00,0.0739
1213.00,0.0729
1212.00,0.0707
1211.00,0.0677
1210.00,0.0642
1209.00,0.0607
1208.00,0.0574
1207.00,0.0543
1206.00,0.0516
1205.00,0.0489
1204.00,0.0463
1203.00,0.0436
1202.00,0.0410
1201.00,0.0384
1200.00,0.0360
1199.00,0.0338
1198.00,0.0319
1197.00,0.0303
1196.00,0.0290
1195.00,0.0281
1194.00,0.0274
1193.00,0.0270
1192.00,0.0268
1191.00,0.0269
1190.00,0.0271
1189.00,0.0274
1188.00,0.0277
1187.00,0.0281
1186.00,0.0285
1185.00,0.0289
1184.00,0.0294
1183.00,0.0298
1182.00,0.0301
1181.00,0.0305
1180.00,0.0307
1179.00,0.0311
1178.00,0.0314
1177.00,0.0318
1176.00,0.0322
1175.00,0.0329
1174.00,0.0339
1173.00,0.0350
1172.00,0.0356
1171.00,0.0353
1170.00,0.0339
1169.00,0.0319
1168.00,0.0297
1167.00,0.0277
1166.00,0.0260
1165.00,0.0247
1164.00,0.0235
1163.00,0.0226
1162.00,0.0219
1161.00,0.0214
1160.00,0.0209
1159.00,0.0207
1158.00,0.0207
1157.00,0.0211
1156.00,0.0218
1155.00,0.0232
1154.00,0.0253
1153.00,0.0280
1152.00,0.0307
1151.00,0.0326
1150.00,0.0328
1149.00,0.0313
1148.00,0.0285
1147.00,0.0254
1146.00,0.0226
1145.00,0.0205
1144.00,0.0189
1143.00,0.0179
1142.00,0.0172
1141.00,0.0168
1140.00,0.0165
1139.00,0.0165
1138.00,0.0166
1137.00,0.0167
1136.00,0.0169
1135.00,0.0169
1134.00,0.0169
1133.00,0.0167
1132.00,0.0163
1131.00,0.0159
1130.00,0.0155
1129.00,0.0151
1128.00,0.0148
1127.00,0.0145
1126.00,0.0143
1125.00,0.0142
1124.00,0.0140
1123.00,0.0139
1122.00,0.0138
1121.00,0.0138
1120.00,0.0138
1119.00,0.0138
1118.00,0.0139
1117.00,0.0140
1116.00,0.0141
1115.00,0.0142
1114.00,0.0143
1113.00,0.0145
1112.00,0.0147
1111.00,0.0148
1110.00,0.0151
1109.00,0.0154
1108.00,0.0157
1107.00,0.0161
1106.00,0.0165
1105.00,0.0170
1104.00,0.0174
1103.00,0.0179
1102.00,0.0186
1101.00,0.0192
1100.00,0.0198
1099.00,0.0201
1098.00,0.0200
1097.00,0.0196
1096.00,0.0189
1095.00,0.0181
1094.00,0.0175
1093.00,0.0170
1092.00,0.0165
1091.00,0.0162
1090.00,0.0160
1089.00,0.0158
1088.00,0.0157
1087.00,0.0157
1086.00,0.0160
1085.00,0.0165
1084.00,0.0171
1083.00,0.0180
1082.00,0.0190
1081.00,0.0199
1080.00,0.0205
1079.00,0.0207
1078.00,0.0206
1077.00,0.0201
1076.00,0.0194
1075.00,0.0187
1074.00,0.0181
1073.00,0.0176
1072.00,0.0172
1071.00,0.0168
1070.00,0.0165
1069.00,0.0162
1068.00,0.0160
1067.00,0.0158
1066.00,0.0158
1065.00,0.0159
1064.00,0.0160
1063.00,0.0161
1062.00,0.0165
1061.00,0.0170
1060.00,0.0176
1059.00,0.0187
1058.00,0.0202
1057.00,0.0224
1056.00,0.0250
1055.00,0.0280
1054.00,0.0309
1053.00,0.0331
1052.00,0.0344
1051.00,0.0346
1050.00,0.0340
1049.00,0.0325
1048.00,0.0304
1047.00,0.0280
1046.00,0.0258
1045.00,0.0241
1044.00,0.0230
1043.00,0.0226
1042.00,0.0226
1041.00,0.0230
1040.00,0.0236
1039.00,0.0244
1038.00,0.0257
1037.00,0.0275
1036.00,0.0297
1035.00,0.0323
1034.00,0.0350
1033.00,0.0371
1032.00,0.0382
1031.00,0.0382
1030.00,0.0374
1029.00,0.0360
1028.00,0.0346
1027.00,0.0337
1026.00,0.0334
1025.00,0.0340
1024.00,0.0355
1023.00,0.0378
1022.00,0.0408
1021.00,0.0439
1020.00,0.0465
1019.00,0.0479
1018.00,0.0478
1017.00,0.0464
1016.00,0.0440
1015.00,0.0411
1014.00,0.0383
1013.00,0.0357
1012.00,0.0335
1011.00,0.0318
1010.00,0.0309
1009.00,0.0305
1008.00,0.0307
1007.00,0.0312
1006.00,0.0323
1005.00,0.0335
1004.00,0.0347
1003.00,0.0356
1002.00,0.0360
1001.00,0.0356
1000.00,0.0344
999.00,0.0325
998.00,0.0303
997.00,0.0279
996.00,0.0258
995.00,0.0241
994.00,0.0229
993.00,0.0220
992.00,0.0215
991.00,0.0214
990.00,0.0215
989.00,0.0218
988.00,0.0221
987.00,0.0225
986.00,0.0227
985.00,0.0227
984.00,0.0224
983.00,0.0218
982.00,0.0210
981.00,0.0202
980.00,0.0194
979.00,0.0188
978.00,0.0184
977.00,0.0182
976.00,0.0179
975.00,0.0176
974.00,0.0174
973.00,0.0173
972.00,0.0173
971.00,0.0175
970.00,0.0179
969.00,0.0184
968.00,0.0190
967.00,0.0196
966.00,0.0203
965.00,0.0212
964.00,0.0222
963.00,0.0232
962.00,0.0240
961.00,0.0243
960.00,0.0239
959.00,0.0229
958.00,0.0215
957.00,0.0201
956.00,0.0188
955.00,0.0177
954.00,0.0168
953.00,0.0161
952.00,0.0155
951.00,0.0150
950.00,0.0147
949.00,0.0144
948.00,0.0142
947.00,0.0140
946.00,0.0138
945.00,0.0136
944.00,0.0135
943.00,0.0134
942.00,0.0134
941.00,0.0135
940.00,0.0135
939.00,0.0137
938.00,0.0139
937.00,0.0142
936.00,0.0144
935.00,0.0146
934.00,0.0148
933.00,0.0150
932.00,0.0151
931.00,0.0151
930.00,0.0151
929.00,0.0151
928.00,0.0149
927.00,0.0148
926.00,0.0147
925.00,0.0146
924.00,0.0145
923.00,0.0144
922.00,0.0144
921.00,0.0144
920.00,0.0145
919.00,0.0147
918.00,0.0150
917.00,0.0154
916.00,0.0157
915.00,0.0158
914.00,0.0159
913.00,0.0158
912.00,0.0156
911.00,0.0156
910.00,0.0159
909.00,0.0164
908.00,0.0171
907.00,0.0181
906.00,0.0195
905.00,0.0210
904.00,0.0227
903.00,0.0246
902.00,0.0269
901.00,0.0297
900.00,0.0330
899.00,0.0365
898.00,0.0397
897.00,0.0418
896.00,0.0421
895.00,0.0407
894.00,0.0383
893.00,0.0355
892.00,0.0329
891.00,0.0308
890.00,0.0297
889.00,0.0297
888.00,0.0309
887.00,0.0337
886.00,0.0377
885.00,0.0422
884.00,0.0458
883.00,0.0474
882.00,0.0463
881.00,0.0430
880.00,0.0386
879.00,0.0342
878.00,0.0305
877.00,0.0278
876.00,0.0259
875.00,0.0248
874.00,0.0244
873.00,0.0246
872.00,0.0251
871.00,0.0258
870.00,0.0263
869.00,0.0264
868.00,0.0261
867.00,0.0260
866.00,0.0264
865.00,0.0274
864.00,0.0289
863.00,0.0305
862.00,0.0319
861.00,0.0326
860.00,0.0328
859.00,0.0328
858.00,0.0330
857.00,0.0336
856.00,0.0345
855.00,0.0356
854.00,0.0367
853.00,0.0376
852.00,0.0383
851.00,0.0388
850.00,0.0389
849.00,0.0386
848.00,0.0378
847.00,0.0369
846.00,0.0361
845.00,0.0356
844.00,0.0352
843.00,0.0349
842.00,0.0344
841.00,0.0339
840.00,0.0332
839.00,0.0327
838.00,0.0325
837.00,0.0325
836.00,0.0327
835.00,0.0331
834.00,0.0337
833.00,0.0344
832.00,0.0352
831.00,0.0360
830.00,0.0367
829.00,0.0373
828.00,0.0376
827.00,0.0374
826.00,0.0368
825.00,0.0357
824.00,0.0341
823.00,0.0323
822.00,0.0305
821.00,0.0286
820.00,0.0267
819.00,0.0250
818.00,0.0238
817.00,0.0227
816.00,0.0219
815.00,0.0213
814.00,0.0208
813.00,0.0204
812.00,0.0201
811.00,0.0201
810.00,0.0205
809.00,0.0215
808.00,0.0233
807.00,0.0258
806.00,0.0285
805.00,0.0305
804.00,0.0310
803.00,0.0302
802.00,0.0284
801.00,0.0264
800.00,0.0245
799.00,0.0230
798.00,0.0219
797.00,0.0212
796.00,0.0206
795.00,0.0202
794.00,0.0200
793.00,0.0200
792.00,0.0199
791.00,0.0198
790.00,0.0198
789.00,0.0197
788.00,0.0197
787.00,0.0198
786.00,0.0199
785.00,0.0199
784.00,0.0197
783.00,0.0194
782.00,0.0191
781.00,0.0189
780.00,0.0188
779.00,0.0188
778.00,0.0189
777.00,0.0189
776.00,0.0188
775.00,0.0188
774.00,0.0189
773.00,0.0190
772.00,0.0192
771.00,0.0193
770.00,0.0195
769.00,0.0196
768.00,0.0195
767.00,0.0192
766.00,0.0190
765.00,0.0188
764.00,0.0187
763.00,0.0187
762.00,0.0189
761.00,0.0191
760.00,0.0193
759.00,0.0196
758.00,0.0200
757.00,0.0205
756.00,0.0211
755.00,0.0219
754.00,0.0230
753.00,0.0240
752.00,0.0249
751.00,0.0256
750.00,0.0263
749.00,0.0267
748.00,0.0268
747.00,0.0265
746.00,0.0261
745.00,0.0255
744.00,0.0250
743.00,0.0246
742.00,0.0244
741.00,0.0244
740.00,0.0244
739.00,0.0246
738.00,0.0249
737.00,0.0253
736.00,0.0257
735.00,0.0262
734.00,0.0270
733.00,0.0279
732.00,0.0286
731.00,0.0289
730.00,0.0288
729.00,0.0282
728.00,0.0273
727.00,0.0265
726.00,0.0260
725.00,0.0256
724.00,0.0252
723.00,0.0249
722.00,0.0246
721.00,0.0243
720.00,0.0240
719.00,0.0236
718.00,0.0234
717.00,0.0231
716.00,0.0227
715.00,0.0225
714.00,0.0224
713.00,0.0224
712.00,0.0224
711.00,0.0224
710.00,0.0224
709.00,0.0224
708.00,0.0222
707.00,0.0220
706.00,0.0220
705.00,0.0220
704.00,0.0219
703.00,0.0220
702.00,0.0221
701.00,0.0221
700.00,0.0222
699.00,0.0223
698.00,0.0225
697.00,0.0227
696.00,0.0228
695.00,0.0229
694.00,0.0230
693.00,0.0232
692.00,0.0234
691.00,0.0235
690.00,0.0238
689.00,0.0240
688.00,0.0242
687.00,0.0244
686.00,0.0247
685.00,0.0250
684.00,0.0252
683.00,0.0255
682.00,0.0258
681.00,0.0261
680.00,0.0264
679.00,0.0267
678.00,0.0271
677.00,0.0275
676.00,0.0279
675.00,0.0284
674.00,0.0290
673.00,0.0298
672.00,0.0304
671.00,0.0311
670.00,0.0318
669.00,0.0326
668.00,0.0334
667.00,0.0342
666.00,0.0349
665.00,0.0354
664.00,0.0359
663.00,0.0364
662.00,0.0369
661.00,0.0374
660.00,0.0378
659.00,0.0382
658.00,0.0387
657.00,0.0392
656.00,0.0395
655.00,0.0399
654.00,0.0405
653.00,0.0411
652.00,0.0417
651.00,0.0424
650.00,0.0432
649.00,0.0438
648.00,0.0440
647.00,0.0438
646.00,0.0433
645.00,0.0427
644.00,0.0419
643.00,0.0410
642.00,0.0403
641.00,0.0398
640.00,0.0392
639.00,0.0388
638.00,0.0386
637.00,0.0385
636.00,0.0383
635.00,0.0381
634.00,0.0381
633.00,0.0381
632.00,0.0381
631.00,0.0382
630.00,0.0384
629.00,0.0386
628.00,0.0386
627.00,0.0388
626.00,0.0390
625.00,0.0392
624.00,0.0391
623.00,0.0390
622.00,0.0388
621.00,0.0385
620.00,0.0378
619.00,0.0371
618.00,0.0366
617.00,0.0362
616.00,0.0361
615.00,0.0367
614.00,0.0378
613.00,0.0392
612.00,0.0405
611.00,0.0413
610.00,0.0415
609.00,0.0413
608.00,0.0408
607.00,0.0404
606.00,0.0404
605.00,0.0407
604.00,0.0410
603.00,0.0414
602.00,0.0420
601.00,0.0427
600.00,0.0432
599.00,0.0437
598.00,0.0441
597.00,0.0443
596.00,0.0443
595.00,0.0444
594.00,0.0449
593.00,0.0457
592.00,0.0466
591.00,0.0477
590.00,0.0490
589.00,0.0503
588.00,0.0513
587.00,0.0520
586.00,0.0525
585.00,0.0526
584.00,0.0522
583.00,0.0516
582.00,0.0511
581.00,0.0507
580.00,0.0503
579.00,0.0501
578.00,0.0502
577.00,0.0504
576.00,0.0505
575.00,0.0508
574.00,0.0514
573.00,0.0518
572.00,0.0520
571.00,0.0522
570.00,0.0525
569.00,0.0526
568.00,0.0525
567.00,0.0523
566.00,0.0523
565.00,0.0523
564.00,0.0522
563.00,0.0522
562.00,0.0522
561.00,0.0521
560.00,0.0518
559.00,0.0514
558.00,0.0511
557.00,0.0509
556.00,0.0506
555.00,0.0505
554.00,0.0507
553.00,0.0509
552.00,0.0511
551.00,0.0515
550.00,0.0520
549.00,0.0525
548.00,0.0528
547.00,0.0530
546.00,0.0535
545.00,0.0539
544.00,0.0539
543.00,0.0539
542.00,0.0543
541.00,0.0548
540.00,0.0555
539.00,0.0566
538.00,0.0583
537.00,0.0599
536.00,0.0609
535.00,0.0612
534.00,0.0611
533.00,0.0605
532.00,0.0596
531.00,0.0588
530.00,0.0583
529.00,0.0581
528.00,0.0582
527.00,0.0589
526.00,0.0605
525.00,0.0623
524.00,0.0641
523.00,0.0657
522.00,0.0668
521.00,0.0666
520.00,0.0648
519.00,0.0621
518.00,0.0594
517.00,0.0571
516.00,0.0552
515.00,0.0539
514.00,0.0533
513.00,0.0531
512.00,0.0530
511.00,0.0532
510.00,0.0540
509.00,0.0548
508.00,0.0555
507.00,0.0562
506.00,0.0573
505.00,0.0585
504.00,0.0596
503.00,0.0610
502.00,0.0629
501.00,0.0646
500.00,0.0658
499.00,0.0667
498.00,0.0678
497.00,0.0687
496.00,0.0691
495.00,0.0694
494.00,0.0697
493.00,0.0695
492.00,0.0689
491.00,0.0684
490.00,0.0684
489.00,0.0686
488.00,0.0686
487.00,0.0686
486.00,0.0688
485.00,0.0689
484.00,0.0685
483.00,0.0681
482.00,0.0678
481.00,0.0670
480.00,0.0656
479.00,0.0643
478.00,0.0637
477.00,0.0633
476.00,0.0630
475.00,0.0631
474.00,0.0638
473.00,0.0646
472.00,0.0650
471.00,0.0653
470.00,0.0660
469.00,0.0665
468.00,0.0664
467.00,0.0662
466.00,0.0661
465.00,0.0661
464.00,0.0659
463.00,0.0657
462.00,0.0660
461.00,0.0661
460.00,0.0656
459.00,0.0651
458.00,0.0651
457.00,0.0648
456.00,0.0638
455.00,0.0630
454.00,0.0628
453.00,0.0627
452.00,0.0622
451.00,0.0615
450.00,0.0612
449.00,0.0609
448.00,0.0603
447.00,0.0598
446.00,0.0598
445.00,0.0598
444.00,0.0591
443.00,0.0586
442.00,0.0586
441.00,0.0587
440.00,0.0582
439.00,0.0580
438.00,0.0583
437.00,0.0586
436.00,0.0582
435.00,0.0578
434.00,0.0579
433.00,0.0582
432.00,0.0582
431.00,0.0586
430.00,0.0599
429.00,0.0613
428.00,0.0623
427.00,0.0635
426.00,0.0652
425.00,0.0664
424.00,0.0664
423.00,0.0662
422.00,0.0665
421.00,0.0662
420.00,0.0645
419.00,0.0628
418.00,0.0630
417.00,0.0635
416.00,0.0628
415.00,0.0620
414.00,0.0622
413.00,0.0626
412.00,0.0625
411.00,0.0629
410.00,0.0643
409.00,0.0655
408.00,0.0656
407.00,0.0659
406.00,0.0673
405.00,0.0684
404.00,0.0677
403.00,0.0667
402.00,0.0675
401.00,0.0691
400.00,0.0703
