Created as New Dataset,Sample 1034 By YargerLab Date Thursday, September 17 2026
cm-1,A
4000.00,0.0126
3999.00,0.0126
3998.00,0.0126
3997.00,0.0126
3996.00,0.0126
3995.00,0.0126
3994.00,0.0126
3993.00,0.0126
3992.00,0.0126
3991.00,0.0126
3990.00,0.0126
3989.00,0.0126
3988.00,0.0126
3987.00,0.0126
3986.00,0.0126
3985.00,0.0126
3984.00,0.0126
3983.00,0.0126
3982.00,0.0126
3981.00,0.0126
3980.00,0.0126
3979.00,0.0126
3978.00,0.0126
3977.00,0.0126
3976.00,0.0126
3975.00,0.0126
3974.00,0.0126
3973.00,0.0126
3972.00,0.0126
3971.00,0.0126
3970.00,0.0126
3969.00,0.0126
3968.00,0.0126
3967.00,0.0126
3966.00,0.0126
3965.00,0.0126
3964.00,0.0126
3963.00,0.0126
3962.00,0.0126
3961.00,0.0126
3960.00,0.0126
3959.00,0.0126
3958.00,0.0126
3957.00,0.0126
3956.00,0.0126
3955.00,0.0126
3954.00,0.0126
3953.00,0.0125
3952.00,0.0125
3951.00,0.0125
3950.00,0.0126
3949.00,0.0126
3948.00,0.0126
3947.00,0.0126
3946.00,0.0126
3945.00,0.0126
3944.00,0.0126
3943.00,0.0126
3942.00,0.0126
3941.00,0.0126
3940.00,0.0125
3939.00,0.0125
3938.00,0.0125
3937.00,0.0125
3936.00,0.0126
3935.00,0.0126
3934.00,0.0126
3933.00,0.0125
3932.00,0.0125
3931.00,0.0125
3930.00,0.0125
3929.00,0.0125
3928.00,0.0125
3927.00,0.0125
3926.00,0.0125
3925.00,0.0125
3924.00,0.0125
3923.00,0.0125
3922.00,0.0125
3921.00,0.0125
3920.00,0.0125
3919.00,0.0125
3918.00,0.0125
3917.00,0.0125
3916.00,0.0125
3915.00,0.0125
3914.00,0.0125
3913.00,0.0125
3912.00,0.0125
3911.00,0.0125
3910.00,0.0125
3909.00,0.0125
3908.00,0.0125
3907.00,0.0125
3906.00,0.0125
3905.00,0.0125
3904.00,0.0124
3903.00,0.0124
3902.00,0.0124
3901.00,0.0124
3900.00,0.0124
3899.00,0.0124
3898.00,0.0124
3897.00,0.0124
3896.00,0.0124
3895.00,0.0124
3894.00,0.0124
3893.00,0.0124
3892.00,0.0124
3891.00,0.0124
3890.00,0.0124
3889.00,0.0124
3888.00,0.0124
3887.00,0.0123
3886.00,0.0123
3885.00,0.0123
3884.00,0.0124
3883.00,0.0124
3882.00,0.0123
3881.00,0.0123
3880.00,0.0123
3879.00,0.0123
3878.00,0.0123
3877.00,0.0123
3876.00,0.0123
3875.00,0.0123
3874.00,0.0123
3873.00,0.0123
3872.00,0.0123
3871.00,0.0123
3870.00,0.0123
3869.00,0.0123
3868.00,0.0123
3867.00,0.0123
3866.00,0.0123
3865.00,0.0123
3864.00,0.0123
3863.00,0.0123
3862.00,0.0123
3861.00,0.0123
3860.00,0.0122
3859.00,0.0122
3858.00,0.0123
3857.00,0.0123
3856.00,0.0123
3855.00,0.0123
3854.00,0.0123
3853.00,0.0123
3852.00,0.0123
3851.00,0.0123
3850.00,0.0122
3849.00,0.0122
3848.00,0.0122
3847.00,0.0122
3846.00,0.0122
3845.00,0.0122
3844.00,0.0122
3843.00,0.0122
3842.00,0.0122
3841.00,0.0122
3840.00,0.0122
3839.00,0.0122
3838.00,0.0122
3837.00,0.0122
3836.00,0.0122
3835.00,0.0121
3834.00,0.0121
3833.00,0.0121
3832.00,0.0121
3831.00,0.0121
3830.00,0.0121
3829.00,0.0121
3828.00,0.0121
3827.00,0.0121
3826.00,0.0121
3825.00,0.0121
3824.00,0.0121
3823.00,0.0121
3822.00,0.0121
3821.00,0.0121
3820.00,0.0121
3819.00,0.0121
3818.00,0.0121
3817.00,0.0121
3816.00,0.0120
3815.00,0.0121
3814.00,0.0121
3813.00,0.0121
3812.00,0.0120
3811.00,0.0120
3810.00,0.0120
3809.00,0.0120
3808.00,0.0120
3807.00,0.0120
3806.00,0.0120
3805.00,0.0120
3804.00,0.0120
3803.00,0.0120
3802.00,0.0120
3801.00,0.0120
3800.00,0.0120
3799.00,0.0120
3798.00,0.0120
3797.00,0.0120
3796.00,0.0120
3795.00,0.0120
3794.00,0.0120
3793.00,0.0120
3792.00,0.0120
3791.00,0.0120
3790.00,0.0120
3789.00,0.0120
3788.00,0.0120
3787.00,0.0120
3786.00,0.0120
3785.00,0.0120
3784.00,0.0120
3783.00,0.0119
3782.00,0.0119
3781.00,0.0119
3780.00,0.0119
3779.00,0.0119
3778.00,0.0120
3777.00,0.0120
3776.00,0.0120
3775.00,0.0119
3774.00,0.0119
3773.00,0.0119
3772.00,0.0119
3771.00,0.0119
3770.00,0.0119
3769.00,0.0119
3768.00,0.0119
3767.00,0.0119
3766.00,0.0119
3765.00,0.0119
3764.00,0.0119
3763.00,0.0119
3762.00,0.0119
3761.00,0.0118
3760.00,0.0118
3759.00,0.0118
3758.00,0.0118
3757.00,0.0118
3756.00,0.0118
3755.00,0.0119
3754.00,0.0119
3753.00,0.0119
3752.00,0.0118
3751.00,0.0118
3750.00,0.0118
3749.00,0.0118
3748.00,0.0118
3747.00,0.0118
3746.00,0.0118
3745.00,0.0117
3744.00,0.0117
3743.00,0.0117
3742.00,0.0117
3741.00,0.0117
3740.00,0.0117
3739.00,0.0116
3738.00,0.0116
3737.00,0.0117
3736.00,0.0117
3735.00,0.0117
3734.00,0.0116
3733.00,0.0116
3732.00,0.0116
3731.00,0.0116
3730.00,0.0116
3729.00,0.0116
3728.00,0.0116
3727.00,0.0116
3726.00,0.0115
3725.00,0.0115
3724.00,0.0115
3723.00,0.0116
3722.00,0.0116
3721.00,0.0116
3720.00,0.0116
3719.00,0.0116
3718.00,0.0116
3717.00,0.0116
3716.00,0.0116
3715.00,0.0115
3714.00,0.0115
3713.00,0.0115
3712.00,0.0115
3711.00,0.0115
3710.00,0.0115
3709.00,0.0115
3708.00,0.0115
3707.00,0.0115
3706.00,0.0114
3705.00,0.0114
3704.00,0.0114
3703.00,0.0114
3702.00,0.0114
3701.00,0.0114
3700.00,0.0114
3699.00,0.0114
3698.00,0.0114
3697.00,0.0114
3696.00,0.0114
3695.00,0.0114
3694.00,0.0114
3693.00,0.0114
3692.00,0.0114
3691.00,0.0114
3690.00,0.0114
3689.00,0.0114
3688.00,0.0114
3687.00,0.0114
3686.00,0.0113
3685.00,0.0113
3684.00,0.0113
3683.00,0.0113
3682.00,0.0113
3681.00,0.0113
3680.00,0.0112
3679.00,0.0112
3678.00,0.0112
3677.00,0.0111
3676.00,0.0111
3675.00,0.0111
3674.00,0.0111
3673.00,0.0111
3672.00,0.0111
3671.00,0.0111
3670.00,0.0111
3669.00,0.0111
3668.00,0.0111
3667.00,0.0111
3666.00,0.0111
3665.00,0.0111
3664.00,0.0112
3663.00,0.0112
3662.00,0.0112
3661.00,0.0112
3660.00,0.0112
3659.00,0.0113
3658.00,0.0113
3657.00,0.0114
3656.00,0.0114
3655.00,0.0114
3654.00,0.0115
3653.00,0.0115
3652.00,0.0115
3651.00,0.0116
3650.00,0.0116
3649.00,0.0117
3648.00,0.0117
3647.00,0.0117
3646.00,0.0118
3645.00,0.0118
3644.00,0.0118
3643.00,0.0119
3642.00,0.0119
3641.00,0.0120
3640.00,0.0120
3639.00,0.0121
3638.00,0.0121
3637.00,0.0122
3636.00,0.0123
3635.00,0.0124
3634.00,0.0125
3633.00,0.0126
3632.00,0.0127
3631.00,0.0127
3630.00,0.0128
3629.00,0.0128
3628.00,0.0129
3627.00,0.0130
3626.00,0.0130
3625.00,0.0131
3624.00,0.0132
3623.00,0.0132
3622.00,0.0133
3621.00,0.0133
3620.00,0.0134
3619.00,0.0134
3618.00,0.0135
3617.00,0.0135
3616.00,0.0136
3615.00,0.0136
3614.00,0.0137
3613.00,0.0137
3612.00,0.0138
3611.00,0.0139
3610.00,0.0139
3609.00,0.0139
3608.00,0.0140
3607.00,0.0140
3606.00,0.0141
3605.00,0.0142
3604.00,0.0143
3603.00,0.0144
3602.00,0.0144
3601.00,0.0145
3600.00,0.0145
3599.00,0.0146
3598.00,0.0146
3597.00,0.0147
3596.00,0.0148
3595.00,0.0148
3594.00,0.0149
3593.00,0.0150
3592.00,0.0151
3591.00,0.0151
3590.00,0.0152
3589.00,0.0152
3588.00,0.0153
3587.00,0.0153
3586.00,0.0154
3585.00,0.0155
3584.00,0.0155
3583.00,0.0156
3582.00,0.0157
3581.00,0.0158
3580.00,0.0158
3579.00,0.0159
3578.00,0.0160
3577.00,0.0160
3576.00,0.0161
3575.00,0.0162
3574.00,0.0163
3573.00,0.0164
3572.00,0.0164
3571.00,0.0165
3570.00,0.0166
3569.00,0.0166
3568.00,0.0167
3567.00,0.0168
3566.00,0.0169
3565.00,0.0169
3564.00,0.0170
3563.00,0.0171
3562.00,0.0172
3561.00,0.0172
3560.00,0.0173
3559.00,0.0174
3558.00,0.0175
3557.00,0.0176
3556.00,0.0176
3555.00,0.0177
3554.00,0.0178
3553.00,0.0179
3552.00,0.0180
3551.00,0.0181
3550.00,0.0181
3549.00,0.0182
3548.00,0.0183
3547.00,0.0184
3546.00,0.0185
3545.00,0.0186
3544.00,0.0187
3543.00,0.0187
3542.00,0.0188
3541.00,0.0189
3540.00,0.0189
3539.00,0.0190
3538.00,0.0191
3537.00,0.0192
3536.00,0.0193
3535.00,0.0194
3534.00,0.0194
3533.00,0.0195
3532.00,0.0196
3531.00,0.0197
3530.00,0.0198
3529.00,0.0198
3528.00,0.0199
3527.00,0.0200
3526.00,0.0201
3525.00,0.0202
3524.00,0.0203
3523.00,0.0203
3522.00,0.0204
3521.00,0.0205
3520.00,0.0206
3519.00,0.0207
3518.00,0.0207
3517.00,0.0208
3516.00,0.0209
3515.00,0.0210
3514.00,0.0210
3513.00,0.0211
3512.00,0.0212
3511.00,0.0213
3510.00,0.0213
3509.00,0.0214
3508.00,0.0215
3507.00,0.0216
3506.00,0.0217
3505.00,0.0218
3504.00,0.0218
3503.00,0.0219
3502.00,0.0220
3501.00,0.0221
3500.00,0.0222
3499.00,0.0222
3498.00,0.0223
3497.00,0.0224
3496.00,0.0225
3495.00,0.0226
3494.00,0.0226
3493.00,0.0227
3492.00,0.0227
3491.00,0.0228
3490.00,0.0229
3489.00,0.0229
3488.00,0.0230
3487.00,0.0231
3486.00,0.0232
3485.00,0.0233
3484.00,0.0234
3483.00,0.0234
3482.00,0.0235
3481.00,0.0236
3480.00,0.0237
3479.00,0.0238
3478.00,0.0239
3477.00,0.0239
3476.00,0.0240
3475.00,0.0241
3474.00,0.0241
3473.00,0.0242
3472.00,0.0243
3471.00,0.0244
3470.00,0.0245
3469.00,0.0245
3468.00,0.0246
3467.00,0.0247
3466.00,0.0248
3465.00,0.0248
3464.00,0.0249
3463.00,0.0250
3462.00,0.0250
3461.00,0.0251
3460.00,0.0252
3459.00,0.0252
3458.00,0.0253
3457.00,0.0253
3456.00,0.0254
3455.00,0.0255
3454.00,0.0256
3453.00,0.0256
3452.00,0.0257
3451.00,0.0258
3450.00,0.0259
3449.00,0.0259
3448.00,0.0260
3447.00,0.0261
3446.00,0.0262
3445.00,0.0263
3444.00,0.0264
3443.00,0.0265
3442.00,0.0265
3441.00,0.0266
3440.00,0.0267
3439.00,0.0268
3438.00,0.0269
3437.00,0.0270
3436.00,0.0271
3435.00,0.0272
3434.00,0.0273
3433.00,0.0274
3432.00,0.0275
3431.00,0.0276
3430.00,0.0277
3429.00,0.0278
3428.00,0.0278
3427.00,0.0279
3426.00,0.0280
3425.00,0.0281
3424.00,0.0282
3423.00,0.0283
3422.00,0.0284
3421.00,0.0285
3420.00,0.0286
3419.00,0.0287
3418.00,0.0288
3417.00,0.0289
3416.00,0.0290
3415.00,0.0291
3414.00,0.0292
3413.00,0.0293
3412.00,0.0294
3411.00,0.0295
3410.00,0.0296
3409.00,0.0297
3408.00,0.0298
3407.00,0.0299
3406.00,0.0300
3405.00,0.0301
3404.00,0.0302
3403.00,0.0303
3402.00,0.0304
3401.00,0.0305
3400.00,0.0306
3399.00,0.0307
3398.00,0.0308
3397.00,0.0309
3396.00,0.0310
3395.00,0.0311
3394.00,0.0312
3393.00,0.0313
3392.00,0.0314
3391.00,0.0316
3390.00,0.0317
3389.00,0.0318
3388.00,0.0319
3387.00,0.0321
3386.00,0.0322
3385.00,0.0324
3384.00,0.0325
3383.00,0.0326
3382.00,0.0327
3381.00,0.0329
3380.00,0.0330
3379.00,0.0331
3378.00,0.0333
3377.00,0.0335
3376.00,0.0336
3375.00,0.0338
3374.00,0.0339
3373.00,0.0341
3372.00,0.0342
3371.00,0.0343
3370.00,0.0345
3369.00,0.0346
3368.00,0.0348
3367.00,0.0350
3366.00,0.0352
3365.00,0.0354
3364.00,0.0356
3363.00,0.0358
3362.00,0.0360
3361.00,0.0361
3360.00,0.0363
3359.00,0.0365
3358.00,0.0367
3357.00,0.0369
3356.00,0.0370
3355.00,0.0372
3354.00,0.0373
3353.00,0.0375
3352.00,0.0376
3351.00,0.0378
3350.00,0.0381
3349.00,0.0383
3348.00,0.0385
3347.00,0.0387
3346.00,0.0389
3345.00,0.0391
3344.00,0.0393
3343.00,0.0394
3342.00,0.0396
3341.00,0.0398
3340.00,0.0400
3339.00,0.0402
3338.00,0.0404
3337.00,0.0406
3336.00,0.0409
3335.00,0.0411
3334.00,0.0414
3333.00,0.0416
3332.00,0.0418
3331.00,0.0420
3330.00,0.0422
3329.00,0.0424
3328.00,0.0426
3327.00,0.0428
3326.00,0.0429
3325.00,0.0432
3324.00,0.0434
3323.00,0.0437
3322.00,0.0439
3321.00,0.0442
3320.00,0.0444
3319.00,0.0446
3318.00,0.0449
3317.00,0.0451
3316.00,0.0453
3315.00,0.0456
3314.00,0.0458
3313.00,0.0460
3312.00,0.0462
3311.00,0.0463
3310.00,0.0465
3309.00,0.0466
3308.00,0.0467
3307.00,0.0469
3306.00,0.0472
3305.00,0.0474
3304.00,0.0477
3303.00,0.0480
3302.00,0.0483
3301.00,0.0486
3300.00,0.0488
3299.00,0.0489
3298.00,0.0490
3297.00,0.0491
3296.00,0.0492
3295.00,0.0493
3294.00,0.0495
3293.00,0.0497
3292.00,0.0498
3291.00,0.0501
3290.00,0.0503
3289.00,0.0505
3288.00,0.0506
3287.00,0.0507
3286.00,0.0508
3285.00,0.0509
3284.00,0.0510
3283.00,0.0510
3282.00,0.0510
3281.00,0.0511
3280.00,0.0511
3279.00,0.0511
3278.00,0.0510
3277.00,0.0509
3276.00,0.0508
3275.00,0.0507
3274.00,0.0506
3273.00,0.0505
3272.00,0.0503
3271.00,0.0502
3270.00,0.0502
3269.00,0.0501
3268.00,0.0501
3267.00,0.0500
3266.00,0.0499
3265.00,0.0497
3264.00,0.0495
3263.00,0.0494
3262.00,0.0492
3261.00,0.0490
3260.00,0.0487
3259.00,0.0485
3258.00,0.0482
3257.00,0.0479
3256.00,0.0477
3255.00,0.0475
3254.00,0.0473
3253.00,0.0471
3252.00,0.0468
3251.00,0.0466
3250.00,0.0463
3249.00,0.0460
3248.00,0.0457
3247.00,0.0454
3246.00,0.0452
3245.00,0.0450
3244.00,0.0448
3243.00,0.0446
3242.00,0.0444
3241.00,0.0442
3240.00,0.0439
3239.00,0.0437
3238.00,0.0435
3237.00,0.0433
3236.00,0.0430
3235.00,0.0428
3234.00,0.0426
3233.00,0.0424
3232.00,0.0423
3231.00,0.0422
3230.00,0.0421
3229.00,0.0420
3228.00,0.0419
3227.00,0.0417
3226.00,0.0416
3225.00,0.0415
3224.00,0.0413
3223.00,0.0412
3222.00,0.0411
3221.00,0.0410
3220.00,0.0409
3219.00,0.0408
3218.00,0.0407
3217.00,0.0406
3216.00,0.0405
3215.00,0.0404
3214.00,0.0403
3213.00,0.0402
3212.00,0.0401
3211.00,0.0400
3210.00,0.0399
3209.00,0.0398
3208.00,0.0398
3207.00,0.0397
3206.00,0.0396
3205.00,0.0395
3204.00,0.0394
3203.00,0.0393
3202.00,0.0392
3201.00,0.0391
3200.00,0.0390
3199.00,0.0389
3198.00,0.0388
3197.00,0.0388
3196.00,0.0387
3195.00,0.0386
3194.00,0.0385
3193.00,0.0384
3192.00,0.0383
3191.00,0.0381
3190.00,0.0380
3189.00,0.0379
3188.00,0.0378
3187.00,0.0377
3186.00,0.0376
3185.00,0.0375
3184.00,0.0374
3183.00,0.0372
3182.00,0.0371
3181.00,0.0370
3180.00,0.0369
3179.00,0.0368
3178.00,0.0366
3177.00,0.0365
3176.00,0.0364
3175.00,0.0363
3174.00,0.0362
3173.00,0.0360
3172.00,0.0359
3171.00,0.0358
3170.00,0.0357
3169.00,0.0355
3168.00,0.0354
3167.00,0.0353
3166.00,0.0351
3165.00,0.0350
3164.00,0.0349
3163.00,0.0348
3162.00,0.0347
3161.00,0.0346
3160.00,0.0344
3159.00,0.0343
3158.00,0.0342
3157.00,0.0341
3156.00,0.0339
3155.00,0.0337
3154.00,0.0336
3153.00,0.0334
3152.00,0.0333
3151.00,0.0332
3150.00,0.0332
3149.00,0.0331
3148.00,0.0330
3147.00,0.0329
3146.00,0.0328
3145.00,0.0327
3144.00,0.0326
3143.00,0.0325
3142.00,0.0323
3141.00,0.0322
3140.00,0.0321
3139.00,0.0320
3138.00,0.0319
3137.00,0.0319
3136.00,0.0318
3135.00,0.0318
3134.00,0.0317
3133.00,0.0316
3132.00,0.0316
3131.00,0.0315
3130.00,0.0314
3129.00,0.0313
3128.00,0.0313
3127.00,0.0312
3126.00,0.0312
3125.00,0.0311
3124.00,0.0310
3123.00,0.0309
3122.00,0.0308
3121.00,0.0307
3120.00,0.0306
3119.00,0.0305
3118.00,0.0305
3117.00,0.0305
3116.00,0.0305
3115.00,0.0305
3114.00,0.0305
3113.00,0.0305
3112.00,0.0305
3111.00,0.0305
3110.00,0.0305
3109.00,0.0304
3108.00,0.0305
3107.00,0.0305
3106.00,0.0306
3105.00,0.0306
3104.00,0.0306
3103.00,0.0305
3102.00,0.0305
3101.00,0.0305
3100.00,0.0305
3099.00,0.0306
3098.00,0.0307
3097.00,0.0307
3096.00,0.0308
3095.00,0.0308
3094.00,0.0308
3093.00,0.0308
3092.00,0.0307
3091.00,0.0307
3090.00,0.0307
3089.00,0.0308
3088.00,0.0308
3087.00,0.0308
3086.00,0.0308
3085.00,0.0308
3084.00,0.0308
3083.00,0.0308
3082.00,0.0308
3081.00,0.0308
3080.00,0.0309
3079.00,0.0309
3078.00,0.0310
3077.00,0.0311
3076.00,0.0312
3075.00,0.0313
3074.00,0.0314
3073.00,0.0314
3072.00,0.0315
3071.00,0.0314
3070.00,0.0314
3069.00,0.0313
3068.00,0.0313
3067.00,0.0313
3066.00,0.0313
3065.00,0.0314
3064.00,0.0314
3063.00,0.0314
3062.00,0.0315
3061.00,0.0314
3060.00,0.0314
3059.00,0.0313
3058.00,0.0313
3057.00,0.0312
3056.00,0.0311
3055.00,0.0311
3054.00,0.0310
3053.00,0.0309
3052.00,0.0308
3051.00,0.0308
3050.00,0.0307
3049.00,0.0307
3048.00,0.0306
3047.00,0.0305
3046.00,0.0303
3045.00,0.0302
3044.00,0.0301
3043.00,0.0301
3042.00,0.0300
3041.00,0.0300
3040.00,0.0300
3039.00,0.0299
3038.00,0.0299
3037.00,0.0297
3036.00,0.0296
3035.00,0.0295
3034.00,0.0294
3033.00,0.0293
3032.00,0.0293
3031.00,0.0293
3030.00,0.0292
3029.00,0.0292
3028.00,0.0291
3027.00,0.0289
3026.00,0.0288
3025.00,0.0287
3024.00,0.0286
3023.00,0.0285
3022.00,0.0284
3021.00,0.0282
3020.00,0.0280
3019.00,0.0279
3018.00,0.0277
3017.00,0.0275
3016.00,0.0273
3015.00,0.0271
3014.00,0.0269
3013.00,0.0268
3012.00,0.0266
3011.00,0.0265
3010.00,0.0264
3009.00,0.0262
3008.00,0.0260
3007.00,0.0258
3006.00,0.0256
3005.00,0.0253
3004.00,0.0251
3003.00,0.0248
3002.00,0.0246
3001.00,0.0243
3000.00,0.0241
2999.00,0.0239
2998.00,0.0237
2997.00,0.0236
2996.00,0.0236
2995.00,0.0235
2994.00,0.0234
2993.00,0.0234
2992.00,0.0234
2991.00,0.0234
2990.00,0.0235
2989.00,0.0235
2988.00,0.0236
2987.00,0.0236
2986.00,0.0235
2985.00,0.0232
2984.00,0.0227
2983.00,0.0223
2982.00,0.0220
2981.00,0.0220
2980.00,0.0224
2979.00,0.0229
2978.00,0.0235
2977.00,0.0241
2976.00,0.0246
2975.00,0.0249
2974.00,0.0252
2973.00,0.0254
2972.00,0.0256
2971.00,0.0259
2970.00,0.0263
2969.00,0.0268
2968.00,0.0273
2967.00,0.0277
2966.00,0.0281
2965.00,0.0284
2964.00,0.0287
2963.00,0.0289
2962.00,0.0291
2961.00,0.0292
2960.00,0.0294
2959.00,0.0295
2958.00,0.0295
2957.00,0.0295
2956.00,0.0295
2955.00,0.0295
2954.00,0.0294
2953.00,0.0293
2952.00,0.0293
2951.00,0.0293
2950.00,0.0292
2949.00,0.0293
2948.00,0.0293
2947.00,0.0294
2946.00,0.0295
2945.00,0.0296
2944.00,0.0298
2943.00,0.0300
2942.00,0.0302
2941.00,0.0303
2940.00,0.0305
2939.00,0.0306
2938.00,0.0307
2937.00,0.0308
2936.00,0.0309
2935.00,0.0310
2934.00,0.0310
2933.00,0.0309
2932.00,0.0309
2931.00,0.0308
2930.00,0.0307
2929.00,0.0307
2928.00,0.0307
2927.00,0.0306
2926.00,0.0306
2925.00,0.0305
2924.00,0.0304
2923.00,0.0303
2922.00,0.0302
2921.00,0.0300
2920.00,0.0299
2919.00,0.0297
2918.00,0.0295
2917.00,0.0293
2916.00,0.0292
2915.00,0.0290
2914.00,0.0288
2913.00,0.0286
2912.00,0.0285
2911.00,0.0283
2910.00,0.0281
2909.00,0.0279
2908.00,0.0277
2907.00,0.0275
2906.00,0.0273
2905.00,0.0271
2904.00,0.0270
2903.00,0.0268
2902.00,0.0267
2901.00,0.0266
2900.00,0.0264
2899.00,0.0263
2898.00,0.0261
2897.00,0.0260
2896.00,0.0259
2895.00,0.0258
2894.00,0.0256
2893.00,0.0255
2892.00,0.0254
2891.00,0.0254
2890.00,0.0253
2889.00,0.0252
2888.00,0.0252
2887.00,0.0252
2886.00,0.0253
2885.00,0.0253
2884.00,0.0255
2883.00,0.0256
2882.00,0.0258
2881.00,0.0260
2880.00,0.0262
2879.00,0.0264
2878.00,0.0266
2877.00,0.0267
2876.00,0.0268
2875.00,0.0268
2874.00,0.0269
2873.00,0.0269
2872.00,0.0269
2871.00,0.0268
2870.00,0.0268
2869.00,0.0267
2868.00,0.0266
2867.00,0.0264
2866.00,0.0263
2865.00,0.0261
2864.00,0.0260
2863.00,0.0258
2862.00,0.0257
2861.00,0.0256
2860.00,0.0255
2859.00,0.0254
2858.00,0.0253
2857.00,0.0252
2856.00,0.0252
2855.00,0.0251
2854.00,0.0250
2853.00,0.0249
2852.00,0.0248
2851.00,0.0248
2850.00,0.0247
2849.00,0.0246
2848.00,0.0245
2847.00,0.0244
2846.00,0.0243
2845.00,0.0243
2844.00,0.0242
2843.00,0.0241
2842.00,0.0240
2841.00,0.0240
2840.00,0.0239
2839.00,0.0238
2838.00,0.0238
2837.00,0.0237
2836.00,0.0237
2835.00,0.0237
2834.00,0.0236
2833.00,0.0236
2832.00,0.0236
2831.00,0.0235
2830.00,0.0235
2829.00,0.0235
2828.00,0.0235
2827.00,0.0234
2826.00,0.0234
2825.00,0.0234
2824.00,0.0233
2823.00,0.0233
2822.00,0.0232
2821.00,0.0232
2820.00,0.0232
2819.00,0.0231
2818.00,0.0231
2817.00,0.0231
2816.00,0.0231
2815.00,0.0230
2814.00,0.0230
2813.00,0.0229
2812.00,0.0229
2811.00,0.0229
2810.00,0.0228
2809.00,0.0228
2808.00,0.0228
2807.00,0.0228
2806.00,0.0228
2805.00,0.0227
2804.00,0.0227
2803.00,0.0226
2802.00,0.0226
2801.00,0.0225
2800.00,0.0225
2799.00,0.0224
2798.00,0.0224
2797.00,0.0223
2796.00,0.0223
2795.00,0.0223
2794.00,0.0222
2793.00,0.0222
2792.00,0.0222
2791.00,0.0221
2790.00,0.0221
2789.00,0.0220
2788.00,0.0220
2787.00,0.0220
2786.00,0.0219
2785.00,0.0219
2784.00,0.0219
2783.00,0.0218
2782.00,0.0218
2781.00,0.0218
2780.00,0.0217
2779.00,0.0217
2778.00,0.0217
2777.00,0.0216
2776.00,0.0215
2775.00,0.0215
2774.00,0.0215
2773.00,0.0214
2772.00,0.0214
2771.00,0.0214
2770.00,0.0214
2769.00,0.0213
2768.00,0.0213
2767.00,0.0212
2766.00,0.0212
2765.00,0.0212
2764.00,0.0211
2763.00,0.0211
2762.00,0.0211
2761.00,0.0210
2760.00,0.0210
2759.00,0.0210
2758.00,0.0209
2757.00,0.0209
2756.00,0.0209
2755.00,0.0208
2754.00,0.0208
2753.00,0.0208
2752.00,0.0207
2751.00,0.0207
2750.00,0.0207
2749.00,0.0206
2748.00,0.0206
2747.00,0.0206
2746.00,0.0206
2745.00,0.0205
2744.00,0.0205
2743.00,0.0205
2742.00,0.0205
2741.00,0.0204
2740.00,0.0204
2739.00,0.0204
2738.00,0.0204
2737.00,0.0203
2736.00,0.0203
2735.00,0.0202
2734.00,0.0202
2733.00,0.0201
2732.00,0.0201
2731.00,0.0201
2730.00,0.0201
2729.00,0.0200
2728.00,0.0200
2727.00,0.0199
2726.00,0.0199
2725.00,0.0199
2724.00,0.0198
2723.00,0.0198
2722.00,0.0198
2721.00,0.0198
2720.00,0.0198
2719.00,0.0197
2718.00,0.0197
2717.00,0.0197
2716.00,0.0197
2715.00,0.0196
2714.00,0.0196
2713.00,0.0195
2712.00,0.0195
2711.00,0.0195
2710.00,0.0195
2709.00,0.0195
2708.00,0.0195
2707.00,0.0194
2706.00,0.0194
2705.00,0.0193
2704.00,0.0193
2703.00,0.0193
2702.00,0.0193
2701.00,0.0192
2700.00,0.0192
2699.00,0.0192
2698.00,0.0192
2697.00,0.0192
2696.00,0.0192
2695.00,0.0192
2694.00,0.0191
2693.00,0.0191
2692.00,0.0191
2691.00,0.0191
2690.00,0.0191
2689.00,0.0190
2688.00,0.0190
2687.00,0.0190
2686.00,0.0190
2685.00,0.0189
2684.00,0.0189
2683.00,0.0189
2682.00,0.0189
2681.00,0.0188
2680.00,0.0188
2679.00,0.0188
2678.00,0.0188
2677.00,0.0188
2676.00,0.0188
2675.00,0.0188
2674.00,0.0187
2673.00,0.0187
2672.00,0.0187
2671.00,0.0187
2670.00,0.0187
2669.00,0.0187
2668.00,0.0187
2667.00,0.0187
2666.00,0.0187
2665.00,0.0187
2664.00,0.0187
2663.00,0.0187
2662.00,0.0187
2661.00,0.0188
2660.00,0.0188
2659.00,0.0188
2658.00,0.0188
2657.00,0.0188
2656.00,0.0188
2655.00,0.0187
2654.00,0.0187
2653.00,0.0187
2652.00,0.0187
2651.00,0.0187
2650.00,0.0187
2649.00,0.0187
2648.00,0.0186
2647.00,0.0186
2646.00,0.0186
2645.00,0.0186
2644.00,0.0186
2643.00,0.0185
2642.00,0.0185
2641.00,0.0185
2640.00,0.0185
2639.00,0.0184
2638.00,0.0184
2637.00,0.0184
2636.00,0.0184
2635.00,0.0184
2634.00,0.0184
2633.00,0.0183
2632.00,0.0183
2631.00,0.0183
2630.00,0.0183
2629.00,0.0183
2628.00,0.0183
2627.00,0.0183
2626.00,0.0182
2625.00,0.0182
2624.00,0.0182
2623.00,0.0182
2622.00,0.0182
2621.00,0.0181
2620.00,0.0181
2619.00,0.0181
2618.00,0.0181
2617.00,0.0181
2616.00,0.0181
2615.00,0.0180
2614.00,0.0180
2613.00,0.0180
2612.00,0.0180
2611.00,0.0180
2610.00,0.0179
2609.00,0.0179
2608.00,0.0179
2607.00,0.0178
2606.00,0.0178
2605.00,0.0178
2604.00,0.0177
2603.00,0.0177
2602.00,0.0177
2601.00,0.0177
2600.00,0.0177
2599.00,0.0177
2598.00,0.0176
2597.00,0.0176
2596.00,0.0176
2595.00,0.0176
2594.00,0.0175
2593.00,0.0175
2592.00,0.0175
2591.00,0.0175
2590.00,0.0174
2589.00,0.0174
2588.00,0.0174
2587.00,0.0173
2586.00,0.0173
2585.00,0.0173
2584.00,0.0173
2583.00,0.0173
2582.00,0.0173
2581.00,0.0173
2580.00,0.0172
2579.00,0.0172
2578.00,0.0172
2577.00,0.0172
2576.00,0.0172
2575.00,0.0172
2574.00,0.0171
2573.00,0.0171
2572.00,0.0170
2571.00,0.0170
2570.00,0.0170
2569.00,0.0170
2568.00,0.0169
2567.00,0.0169
2566.00,0.0169
2565.00,0.0169
2564.00,0.0169
2563.00,0.0169
2562.00,0.0169
2561.00,0.0169
2560.00,0.0169
2559.00,0.0168
2558.00,0.0168
2557.00,0.0168
2556.00,0.0168
2555.00,0.0168
2554.00,0.0167
2553.00,0.0167
2552.00,0.0167
2551.00,0.0167
2550.00,0.0166
2549.00,0.0166
2548.00,0.0166
2547.00,0.0166
2546.00,0.0166
2545.00,0.0166
2544.00,0.0166
2543.00,0.0166
2542.00,0.0166
2541.00,0.0165
2540.00,0.0165
2539.00,0.0164
2538.00,0.0164
2537.00,0.0164
2536.00,0.0164
2535.00,0.0164
2534.00,0.0164
2533.00,0.0164
2532.00,0.0164
2531.00,0.0164
2530.00,0.0163
2529.00,0.0163
2528.00,0.0163
2527.00,0.0163
2526.00,0.0163
2525.00,0.0162
2524.00,0.0162
2523.00,0.0162
2522.00,0.0162
2521.00,0.0162
2520.00,0.0163
2519.00,0.0163
2518.00,0.0162
2517.00,0.0162
2516.00,0.0162
2515.00,0.0162
2514.00,0.0162
2513.00,0.0161
2512.00,0.0161
2511.00,0.0161
2510.00,0.0161
2509.00,0.0161
2508.00,0.0161
2507.00,0.0161
2506.00,0.0161
2505.00,0.0161
2504.00,0.0161
2503.00,0.0160
2502.00,0.0160
2501.00,0.0160
2500.00,0.0160
2499.00,0.0160
2498.00,0.0160
2497.00,0.0160
2496.00,0.0159
2495.00,0.0159
2494.00,0.0159
2493.00,0.0159
2492.00,0.0159
2491.00,0.0158
2490.00,0.0158
2489.00,0.0158
2488.00,0.0158
2487.00,0.0158
2486.00,0.0157
2485.00,0.0157
2484.00,0.0157
2483.00,0.0157
2482.00,0.0157
2481.00,0.0157
2480.00,0.0157
2479.00,0.0157
2478.00,0.0157
2477.00,0.0157
2476.00,0.0157
2475.00,0.0157
2474.00,0.0156
2473.00,0.0156
2472.00,0.0156
2471.00,0.0156
2470.00,0.0156
2469.00,0.0156
2468.00,0.0156
2467.00,0.0156
2466.00,0.0156
2465.00,0.0156
2464.00,0.0156
2463.00,0.0156
2462.00,0.0156
2461.00,0.0156
2460.00,0.0156
2459.00,0.0156
2458.00,0.0156
2457.00,0.0155
2456.00,0.0155
2455.00,0.0155
2454.00,0.0155
2453.00,0.0155
2452.00,0.0155
2451.00,0.0154
2450.00,0.0154
2449.00,0.0154
2448.00,0.0154
2447.00,0.0154
2446.00,0.0154
2445.00,0.0154
2444.00,0.0153
2443.00,0.0153
2442.00,0.0152
2441.00,0.0152
2440.00,0.0152
2439.00,0.0152
2438.00,0.0152
2437.00,0.0152
2436.00,0.0151
2435.00,0.0151
2434.00,0.0151
2433.00,0.0151
2432.00,0.0150
2431.00,0.0150
2430.00,0.0150
2429.00,0.0150
2428.00,0.0150
2427.00,0.0150
2426.00,0.0149
2425.00,0.0149
2424.00,0.0149
2423.00,0.0148
2422.00,0.0148
2421.00,0.0148
2420.00,0.0148
2419.00,0.0148
2418.00,0.0148
2417.00,0.0148
2416.00,0.0148
2415.00,0.0148
2414.00,0.0147
2413.00,0.0147
2412.00,0.0147
2411.00,0.0147
2410.00,0.0147
2409.00,0.0147
2408.00,0.0146
2407.00,0.0146
2406.00,0.0145
2405.00,0.0145
2404.00,0.0145
2403.00,0.0145
2402.00,0.0145
2401.00,0.0145
2400.00,0.0145
2399.00,0.0145
2398.00,0.0144
2397.00,0.0144
2396.00,0.0144
2395.00,0.0144
2394.00,0.0144
2393.00,0.0144
2392.00,0.0144
2391.00,0.0144
2390.00,0.0143
2389.00,0.0143
2388.00,0.0143
2387.00,0.0142
2386.00,0.0142
2385.00,0.0141
2384.00,0.0141
2383.00,0.0141
2382.00,0.0140
2381.00,0.0140
2380.00,0.0140
2379.00,0.0140
2378.00,0.0140
2377.00,0.0140
2376.00,0.0140
2375.00,0.0140
2374.00,0.0140
2373.00,0.0140
2372.00,0.0140
2371.00,0.0139
2370.00,0.0139
2369.00,0.0139
2368.00,0.0139
2367.00,0.0139
2366.00,0.0139
2365.00,0.0139
2364.00,0.0139
2363.00,0.0139
2362.00,0.0139
2361.00,0.0140
2360.00,0.0140
2359.00,0.0140
2358.00,0.0140
2357.00,0.0140
2356.00,0.0140
2355.00,0.0140
2354.00,0.0140
2353.00,0.0139
2352.00,0.0139
2351.00,0.0140
2350.00,0.0140
2349.00,0.0140
2348.00,0.0141
2347.00,0.0141
2346.00,0.0141
2345.00,0.0141
2344.00,0.0141
2343.00,0.0141
2342.00,0.0141
2341.00,0.0142
2340.00,0.0142
2339.00,0.0142
2338.00,0.0142
2337.00,0.0142
2336.00,0.0142
2335.00,0.0142
2334.00,0.0141
2333.00,0.0141
2332.00,0.0141
2331.00,0.0141
2330.00,0.0141
2329.00,0.0143
2328.00,0.0146
2327.00,0.0149
2326.00,0.0152
2325.00,0.0153
2324.00,0.0152
2323.00,0.0150
2322.00,0.0148
2321.00,0.0147
2320.00,0.0146
2319.00,0.0145
2318.00,0.0145
2317.00,0.0144
2316.00,0.0144
2315.00,0.0143
2314.00,0.0143
2313.00,0.0142
2312.00,0.0141
2311.00,0.0141
2310.00,0.0141
2309.00,0.0141
2308.00,0.0142
2307.00,0.0142
2306.00,0.0142
2305.00,0.0142
2304.00,0.0142
2303.00,0.0142
2302.00,0.0142
2301.00,0.0142
2300.00,0.0142
2299.00,0.0142
2298.00,0.0142
2297.00,0.0143
2296.00,0.0143
2295.00,0.0144
2294.00,0.0144
2293.00,0.0145
2292.00,0.0146
2291.00,0.0146
2290.00,0.0146
2289.00,0.0147
2288.00,0.0147
2287.00,0.0147
2286.00,0.0147
2285.00,0.0146
2284.00,0.0146
2283.00,0.0145
2282.00,0.0145
2281.00,0.0144
2280.00,0.0144
2279.00,0.0144
2278.00,0.0143
2277.00,0.0143
2276.00,0.0143
2275.00,0.0142
2274.00,0.0142
2273.00,0.0141
2272.00,0.0141
2271.00,0.0141
2270.00,0.0140
2269.00,0.0140
2268.00,0.0139
2267.00,0.0139
2266.00,0.0138
2265.00,0.0138
2264.00,0.0138
2263.00,0.0139
2262.00,0.0140
2261.00,0.0140
2260.00,0.0141
2259.00,0.0141
2258.00,0.0140
2257.00,0.0139
2256.00,0.0138
2255.00,0.0137
2254.00,0.0136
2253.00,0.0137
2252.00,0.0137
2251.00,0.0137
2250.00,0.0137
2249.00,0.0137
2248.00,0.0137
2247.00,0.0137
2246.00,0.0137
2245.00,0.0136
2244.00,0.0136
2243.00,0.0136
2242.00,0.0136
2241.00,0.0136
2240.00,0.0136
2239.00,0.0136
2238.00,0.0136
2237.00,0.0136
2236.00,0.0136
2235.00,0.0136
2234.00,0.0136
2233.00,0.0136
2232.00,0.0136
2231.00,0.0135
2230.00,0.0135
2229.00,0.0135
2228.00,0.0135
2227.00,0.0135
2226.00,0.0135
2225.00,0.0135
2224.00,0.0136
2223.00,0.0136
2222.00,0.0135
2221.00,0.0135
2220.00,0.0135
2219.00,0.0135
2218.00,0.0135
2217.00,0.0135
2216.00,0.0135
2215.00,0.0134
2214.00,0.0134
2213.00,0.0134
2212.00,0.0134
2211.00,0.0134
2210.00,0.0133
2209.00,0.0133
2208.00,0.0133
2207.00,0.0133
2206.00,0.0133
2205.00,0.0133
2204.00,0.0133
2203.00,0.0133
2202.00,0.0133
2201.00,0.0133
2200.00,0.0133
2199.00,0.0134
2198.00,0.0134
2197.00,0.0135
2196.00,0.0135
2195.00,0.0135
2194.00,0.0135
2193.00,0.0135
2192.00,0.0136
2191.00,0.0135
2190.00,0.0135
2189.00,0.0135
2188.00,0.0136
2187.00,0.0136
2186.00,0.0135
2185.00,0.0134
2184.00,0.0132
2183.00,0.0130
2182.00,0.0129
2181.00,0.0129
2180.00,0.0130
2179.00,0.0130
2178.00,0.0130
2177.00,0.0129
2176.00,0.0128
2175.00,0.0128
2174.00,0.0128
2173.00,0.0130
2172.00,0.0133
2171.00,0.0135
2170.00,0.0137
2169.00,0.0138
2168.00,0.0138
2167.00,0.0139
2166.00,0.0139
2165.00,0.0140
2164.00,0.0141
2163.00,0.0140
2162.00,0.0136
2161.00,0.0127
2160.00,0.0116
2159.00,0.0105
2158.00,0.0099
2157.00,0.0099
2156.00,0.0102
2155.00,0.0105
2154.00,0.0108
2153.00,0.0110
2152.00,0.0111
2151.00,0.0112
2150.00,0.0112
2149.00,0.0113
2148.00,0.0114
2147.00,0.0115
2146.00,0.0115
2145.00,0.0116
2144.00,0.0115
2143.00,0.0115
2142.00,0.0114
2141.00,0.0114
2140.00,0.0114
2139.00,0.0114
2138.00,0.0113
2137.00,0.0112
2136.00,0.0110
2135.00,0.0109
2134.00,0.0109
2133.00,0.0110
2132.00,0.0111
2131.00,0.0113
2130.00,0.0114
2129.00,0.0116
2128.00,0.0117
2127.00,0.0118
2126.00,0.0118
2125.00,0.0119
2124.00,0.0120
2123.00,0.0121
2122.00,0.0121
2121.00,0.0122
2120.00,0.0123
2119.00,0.0124
2118.00,0.0125
2117.00,0.0127
2116.00,0.0128
2115.00,0.0128
2114.00,0.0128
2113.00,0.0127
2112.00,0.0127
2111.00,0.0127
2110.00,0.0126
2109.00,0.0126
2108.00,0.0126
2107.00,0.0126
2106.00,0.0127
2105.00,0.0127
2104.00,0.0127
2103.00,0.0127
2102.00,0.0126
2101.00,0.0126
2100.00,0.0126
2099.00,0.0125
2098.00,0.0124
2097.00,0.0123
2096.00,0.0121
2095.00,0.0120
2094.00,0.0120
2093.00,0.0121
2092.00,0.0122
2091.00,0.0123
2090.00,0.0124
2089.00,0.0124
2088.00,0.0125
2087.00,0.0125
2086.00,0.0125
2085.00,0.0126
2084.00,0.0125
2083.00,0.0125
2082.00,0.0124
2081.00,0.0124
2080.00,0.0125
2079.00,0.0125
2078.00,0.0125
2077.00,0.0126
2076.00,0.0126
2075.00,0.0126
2074.00,0.0125
2073.00,0.0125
2072.00,0.0124
2071.00,0.0124
2070.00,0.0123
2069.00,0.0122
2068.00,0.0122
2067.00,0.0121
2066.00,0.0120
2065.00,0.0120
2064.00,0.0120
2063.00,0.0120
2062.00,0.0120
2061.00,0.0120
2060.00,0.0120
2059.00,0.0121
2058.00,0.0121
2057.00,0.0122
2056.00,0.0122
2055.00,0.0123
2054.00,0.0125
2053.00,0.0129
2052.00,0.0131
2051.00,0.0131
2050.00,0.0129
2049.00,0.0126
2048.00,0.0123
2047.00,0.0121
2046.00,0.0120
2045.00,0.0120
2044.00,0.0120
2043.00,0.0120
2042.00,0.0120
2041.00,0.0119
2040.00,0.0119
2039.00,0.0118
2038.00,0.0118
2037.00,0.0118
2036.00,0.0117
2035.00,0.0114
2034.00,0.0111
2033.00,0.0109
2032.00,0.0109
2031.00,0.0110
2030.00,0.0110
2029.00,0.0111
2028.00,0.0111
2027.00,0.0111
2026.00,0.0111
2025.00,0.0111
2024.00,0.0111
2023.00,0.0110
2022.00,0.0109
2021.00,0.0108
2020.00,0.0108
2019.00,0.0108
2018.00,0.0108
2017.00,0.0108
2016.00,0.0109
2015.00,0.0110
2014.00,0.0110
2013.00,0.0110
2012.00,0.0110
2011.00,0.0111
2010.00,0.0110
2009.00,0.0109
2008.00,0.0107
2007.00,0.0104
2006.00,0.0101
2005.00,0.0102
2004.00,0.0103
2003.00,0.0105
2002.00,0.0106
2001.00,0.0107
2000.00,0.0109
1999.00,0.0109
1998.00,0.0109
1997.00,0.0109
1996.00,0.0110
1995.00,0.0111
1994.00,0.0111
1993.00,0.0112
1992.00,0.0112
1991.00,0.0112
1990.00,0.0112
1989.00,0.0113
1988.00,0.0114
1987.00,0.0115
1986.00,0.0115
1985.00,0.0115
1984.00,0.0116
1983.00,0.0118
1982.00,0.0120
1981.00,0.0121
1980.00,0.0120
1979.00,0.0115
1978.00,0.0109
1977.00,0.0104
1976.00,0.0102
1975.00,0.0101
1974.00,0.0100
1973.00,0.0100
1972.00,0.0101
1971.00,0.0102
1970.00,0.0102
1969.00,0.0103
1968.00,0.0103
1967.00,0.0102
1966.00,0.0100
1965.00,0.0099
1964.00,0.0099
1963.00,0.0098
1962.00,0.0097
1961.00,0.0096
1960.00,0.0096
1959.00,0.0095
1958.00,0.0095
1957.00,0.0096
1956.00,0.0097
1955.00,0.0099
1954.00,0.0099
1953.00,0.0099
1952.00,0.0100
1951.00,0.0100
1950.00,0.0100
1949.00,0.0100
1948.00,0.0100
1947.00,0.0100
1946.00,0.0099
1945.00,0.0099
1944.00,0.0100
1943.00,0.0100
1942.00,0.0100
1941.00,0.0099
1940.00,0.0099
1939.00,0.0099
1938.00,0.0099
1937.00,0.0099
1936.00,0.0099
1935.00,0.0099
1934.00,0.0099
1933.00,0.0099
1932.00,0.0099
1931.00,0.0099
1930.00,0.0099
1929.00,0.0099
1928.00,0.0099
1927.00,0.0099
1926.00,0.0099
1925.00,0.0099
1924.00,0.0099
1923.00,0.0099
1922.00,0.0099
1921.00,0.0100
1920.00,0.0100
1919.00,0.0100
1918.00,0.0100
1917.00,0.0100
1916.00,0.0100
1915.00,0.0100
1914.00,0.0099
1913.00,0.0099
1912.00,0.0099
1911.00,0.0099
1910.00,0.0099
1909.00,0.0099
1908.00,0.0100
1907.00,0.0100
1906.00,0.0100
1905.00,0.0100
1904.00,0.0099
1903.00,0.0099
1902.00,0.0098
1901.00,0.0098
1900.00,0.0098
1899.00,0.0097
1898.00,0.0097
1897.00,0.0098
1896.00,0.0098
1895.00,0.0098
1894.00,0.0097
1893.00,0.0097
1892.00,0.0097
1891.00,0.0097
1890.00,0.0097
1889.00,0.0097
1888.00,0.0097
1887.00,0.0097
1886.00,0.0097
1885.00,0.0097
1884.00,0.0097
1883.00,0.0097
1882.00,0.0097
1881.00,0.0097
1880.00,0.0097
1879.00,0.0097
1878.00,0.0096
1877.00,0.0096
1876.00,0.0096
1875.00,0.0096
1874.00,0.0095
1873.00,0.0095
1872.00,0.0096
1871.00,0.0096
1870.00,0.0095
1869.00,0.0095
1868.00,0.0095
1867.00,0.0095
1866.00,0.0095
1865.00,0.0095
1864.00,0.0095
1863.00,0.0095
1862.00,0.0095
1861.00,0.0094
1860.00,0.0094
1859.00,0.0094
1858.00,0.0094
1857.00,0.0094
1856.00,0.0094
1855.00,0.0094
1854.00,0.0094
1853.00,0.0093
1852.00,0.0093
1851.00,0.0093
1850.00,0.0093
1849.00,0.0093
1848.00,0.0093
1847.00,0.0093
1846.00,0.0092
1845.00,0.0092
1844.00,0.0093
1843.00,0.0093
1842.00,0.0092
1841.00,0.0092
1840.00,0.0092
1839.00,0.0092
1838.00,0.0092
1837.00,0.0092
1836.00,0.0092
1835.00,0.0092
1834.00,0.0092
1833.00,0.0092
1832.00,0.0091
1831.00,0.0091
1830.00,0.0091
1829.00,0.0091
1828.00,0.0091
1827.00,0.0091
1826.00,0.0091
1825.00,0.0091
1824.00,0.0091
1823.00,0.0091
1822.00,0.0091
1821.00,0.0090
1820.00,0.0090
1819.00,0.0089
1818.00,0.0088
1817.00,0.0087
1816.00,0.0088
1815.00,0.0088
1814.00,0.0088
1813.00,0.0089
1812.00,0.0089
1811.00,0.0089
1810.00,0.0089
1809.00,0.0089
1808.00,0.0089
1807.00,0.0089
1806.00,0.0089
1805.00,0.0089
1804.00,0.0089
1803.00,0.0089
1802.00,0.0089
1801.00,0.0089
1800.00,0.0089
1799.00,0.0089
1798.00,0.0089
1797.00,0.0089
1796.00,0.0089
1795.00,0.0088
1794.00,0.0088
1793.00,0.0088
1792.00,0.0088
1791.00,0.0088
1790.00,0.0087
1789.00,0.0087
1788.00,0.0088
1787.00,0.0088
1786.00,0.0088
1785.00,0.0088
1784.00,0.0088
1783.00,0.0088
1782.00,0.0088
1781.00,0.0087
1780.00,0.0087
1779.00,0.0087
1778.00,0.0086
1777.00,0.0086
1776.00,0.0086
1775.00,0.0086
1774.00,0.0085
1773.00,0.0085
1772.00,0.0085
1771.00,0.0085
1770.00,0.0085
1769.00,0.0085
1768.00,0.0085
1767.00,0.0085
1766.00,0.0085
1765.00,0.0085
1764.00,0.0086
1763.00,0.0086
1762.00,0.0086
1761.00,0.0086
1760.00,0.0086
1759.00,0.0086
1758.00,0.0086
1757.00,0.0086
1756.00,0.0086
1755.00,0.0086
1754.00,0.0086
1753.00,0.0086
1752.00,0.0086
1751.00,0.0087
1750.00,0.0087
1749.00,0.0087
1748.00,0.0088
1747.00,0.0088
1746.00,0.0088
1745.00,0.0088
1744.00,0.0088
1743.00,0.0089
1742.00,0.0089
1741.00,0.0089
1740.00,0.0089
1739.00,0.0090
1738.00,0.0090
1737.00,0.0090
1736.00,0.0090
1735.00,0.0091
1734.00,0.0091
1733.00,0.0091
1732.00,0.0093
1731.00,0.0094
1730.00,0.0094
1729.00,0.0095
1728.00,0.0096
1727.00,0.0096
1726.00,0.0097
1725.00,0.0098
1724.00,0.0099
1723.00,0.0100
1722.00,0.0101
1721.00,0.0103
1720.00,0.0104
1719.00,0.0106
1718.00,0.0107
1717.00,0.0109
1716.00,0.0113
1715.00,0.0117
1714.00,0.0120
1713.00,0.0125
1712.00,0.0130
1711.00,0.0135
1710.00,0.0140
1709.00,0.0146
1708.00,0.0154
1707.00,0.0163
1706.00,0.0172
1705.00,0.0183
1704.00,0.0194
1703.00,0.0203
1702.00,0.0213
1701.00,0.0228
1700.00,0.0248
1699.00,0.0265
1698.00,0.0277
1697.00,0.0291
1696.00,0.0310
1695.00,0.0331
1694.00,0.0348
1693.00,0.0363
1692.00,0.0378
1691.00,0.0394
1690.00,0.0412
1689.00,0.0431
1688.00,0.0447
1687.00,0.0461
1686.00,0.0477
1685.00,0.0498
1684.00,0.0526
1683.00,0.0550
1682.00,0.0567
1681.00,0.0582
1680.00,0.0598
1679.00,0.0614
1678.00,0.0628
1677.00,0.0644
1676.00,0.0664
1675.00,0.0686
1674.00,0.0706
1673.00,0.0723
1672.00,0.0740
1671.00,0.0760
1670.00,0.0784
1669.00,0.0810
1668.00,0.0836
1667.00,0.0857
1666.00,0.0877
1665.00,0.0898
1664.00,0.0924
1663.00,0.0957
1662.00,0.0991
1661.00,0.1024
1660.00,0.1056
1659.00,0.1088
1658.00,0.1118
1657.00,0.1146
1656.00,0.1171
1655.00,0.1199
1654.00,0.1239
1653.00,0.1293
1652.00,0.1334
1651.00,0.1352
1650.00,0.1360
1649.00,0.1367
1648.00,0.1377
1647.00,0.1387
1646.00,0.1394
1645.00,0.1394
1644.00,0.1391
1643.00,0.1386
1642.00,0.1379
1641.00,0.1370
1640.00,0.1361
1639.00,0.1350
1638.00,0.1339
1637.00,0.1326
1636.00,0.1312
1635.00,0.1297
1634.00,0.1281
1633.00,0.1266
1632.00,0.1250
1631.00,0.1233
1630.00,0.1214
1629.00,0.1193
1628.00,0.1171
1627.00,0.1148
1626.00,0.1126
1625.00,0.1104
1624.00,0.1079
1623.00,0.1053
1622.00,0.1028
1621.00,0.1005
1620.00,0.0984
1619.00,0.0964
1618.00,0.0941
1617.00,0.0915
1616.00,0.0890
1615.00,0.0867
1614.00,0.0848
1613.00,0.0829
1612.00,0.0809
1611.00,0.0789
1610.00,0.0769
1609.00,0.0750
1608.00,0.0732
1607.00,0.0715
1606.00,0.0700
1605.00,0.0687
1604.00,0.0674
1603.00,0.0663
1602.00,0.0653
1601.00,0.0644
1600.00,0.0636
1599.00,0.0629
1598.00,0.0623
1597.00,0.0618
1596.00,0.0612
1595.00,0.0607
1594.00,0.0603
1593.00,0.0600
1592.00,0.0596
1591.00,0.0592
1590.00,0.0590
1589.00,0.0588
1588.00,0.0587
1587.00,0.0585
1586.00,0.0585
1585.00,0.0586
1584.00,0.0586
1583.00,0.0587
1582.00,0.0588
1581.00,0.0590
1580.00,0.0591
1579.00,0.0592
1578.00,0.0594
1577.00,0.0598
1576.00,0.0603
1575.00,0.0608
1574.00,0.0613
1573.00,0.0617
1572.00,0.0620
1571.00,0.0625
1570.00,0.0633
1569.00,0.0643
1568.00,0.0651
1567.00,0.0659
1566.00,0.0669
1565.00,0.0680
1564.00,0.0692
1563.00,0.0702
1562.00,0.0712
1561.00,0.0724
1560.00,0.0744
1559.00,0.0780
1558.00,0.0817
1557.00,0.0842
1556.00,0.0861
1555.00,0.0883
1554.00,0.0909
1553.00,0.0935
1552.00,0.0959
1551.00,0.0982
1550.00,0.1008
1549.00,0.1032
1548.00,0.1052
1547.00,0.1068
1546.00,0.1084
1545.00,0.1101
1544.00,0.1115
1543.00,0.1127
1542.00,0.1136
1541.00,0.1147
1540.00,0.1159
1539.00,0.1170
1538.00,0.1175
1537.00,0.1176
1536.00,0.1175
1535.00,0.1174
1534.00,0.1174
1533.00,0.1175
1532.00,0.1173
1531.00,0.1170
1530.00,0.1166
1529.00,0.1161
1528.00,0.1156
1527.00,0.1151
1526.00,0.1145
1525.00,0.1140
1524.00,0.1134
1523.00,0.1130
1522.00,0.1127
1521.00,0.1128
1520.00,0.1129
1519.00,0.1130
1518.00,0.1131
1517.00,0.1131
1516.00,0.1129
1515.00,0.1123
1514.00,0.1114
1513.00,0.1101
1512.00,0.1085
1511.00,0.1069
1510.00,0.1052
1509.00,0.1034
1508.00,0.1013
1507.00,0.0987
1506.00,0.0960
1505.00,0.0939
1504.00,0.0921
1503.00,0.0904
1502.00,0.0886
1501.00,0.0866
1500.00,0.0846
1499.00,0.0826
1498.00,0.0805
1497.00,0.0783
1496.00,0.0760
1495.00,0.0739
1494.00,0.0720
1493.00,0.0702
1492.00,0.0684
1491.00,0.0664
1490.00,0.0644
1489.00,0.0625
1488.00,0.0607
1487.00,0.0592
1486.00,0.0578
1485.00,0.0566
1484.00,0.0555
1483.00,0.0545
1482.00,0.0536
1481.00,0.0528
1480.00,0.0522
1479.00,0.0518
1478.00,0.0515
1477.00,0.0513
1476.00,0.0513
1475.00,0.0515
1474.00,0.0517
1473.00,0.0523
1472.00,0.0530
1471.00,0.0537
1470.00,0.0541
1469.00,0.0543
1468.00,0.0544
1467.00,0.0545
1466.00,0.0545
1465.00,0.0545
1464.00,0.0546
1463.00,0.0548
1462.00,0.0549
1461.00,0.0550
1460.00,0.0552
1459.00,0.0555
1458.00,0.0561
1457.00,0.0569
1456.00,0.0577
1455.00,0.0582
1454.00,0.0584
1453.00,0.0585
1452.00,0.0585
1451.00,0.0585
1450.00,0.0585
1449.00,0.0585
1448.00,0.0585
1447.00,0.0585
1446.00,0.0584
1445.00,0.0581
1444.00,0.0579
1443.00,0.0576
1442.00,0.0573
1441.00,0.0570
1440.00,0.0566
1439.00,0.0562
1438.00,0.0557
1437.00,0.0551
1436.00,0.0545
1435.00,0.0540
1434.00,0.0534
1433.00,0.0529
1432.00,0.0524
1431.00,0.0520
1430.00,0.0517
1429.00,0.0514
1428.00,0.0513
1427.00,0.0513
1426.00,0.0514
1425.00,0.0515
1424.00,0.0518
1423.00,0.0520
1422.00,0.0522
1421.00,0.0525
1420.00,0.0528
1419.00,0.0533
1418.00,0.0538
1417.00,0.0542
1416.00,0.0544
1415.00,0.0547
1414.00,0.0549
1413.00,0.0551
1412.00,0.0554
1411.00,0.0557
1410.00,0.0560
1409.00,0.0563
1408.00,0.0566
1407.00,0.0570
1406.00,0.0574
1405.00,0.0578
1404.00,0.0582
1403.00,0.0586
1402.00,0.0589
1401.00,0.0592
1400.00,0.0595
1399.00,0.0599
1398.00,0.0603
1397.00,0.0605
1396.00,0.0608
1395.00,0.0611
1394.00,0.0613
1393.00,0.0614
1392.00,0.0615
1391.00,0.0615
1390.00,0.0615
1389.00,0.0614
1388.00,0.0613
1387.00,0.0611
1386.00,0.0607
1385.00,0.0602
1384.00,0.0597
1383.00,0.0590
1382.00,0.0583
1381.00,0.0576
1380.00,0.0569
1379.00,0.0562
1378.00,0.0555
1377.00,0.0549
1376.00,0.0543
1375.00,0.0538
1374.00,0.0533
1373.00,0.0529
1372.00,0.0526
1371.00,0.0523
1370.00,0.0520
1369.00,0.0517
1368.00,0.0514
1367.00,0.0510
1366.00,0.0505
1365.00,0.0500
1364.00,0.0495
1363.00,0.0490
1362.00,0.0486
1361.00,0.0483
1360.00,0.0480
1359.00,0.0477
1358.00,0.0474
1357.00,0.0472
1356.00,0.0470
1355.00,0.0469
1354.00,0.0468
1353.00,0.0467
1352.00,0.0467
1351.00,0.0467
1350.00,0.0467
1349.00,0.0467
1348.00,0.0467
1347.00,0.0468
1346.00,0.0468
1345.00,0.0469
1344.00,0.0470
1343.00,0.0471
1342.00,0.0473
1341.00,0.0474
1340.00,0.0475
1339.00,0.0477
1338.00,0.0478
1337.00,0.0479
1336.00,0.0479
1335.00,0.0480
1334.00,0.0480
1333.00,0.0481
1332.00,0.0482
1331.00,0.0483
1330.00,0.0484
1329.00,0.0486
1328.00,0.0487
1327.00,0.0489
1326.00,0.0491
1325.00,0.0494
1324.00,0.0496
1323.00,0.0499
1322.00,0.0502
1321.00,0.0506
1320.00,0.0509
1319.00,0.0513
1318.00,0.0516
1317.00,0.0519
1316.00,0.0522
1315.00,0.0525
1314.00,0.0527
1313.00,0.0530
1312.00,0.0532
1311.00,0.0534
1310.00,0.0535
1309.00,0.0537
1308.00,0.0538
1307.00,0.0540
1306.00,0.0542
1305.00,0.0544
1304.00,0.0546
1303.00,0.0548
1302.00,0.0549
1301.00,0.0551
1300.00,0.0553
1299.00,0.0554
1298.00,0.0555
1297.00,0.0556
1296.00,0.0557
1295.00,0.0557
1294.00,0.0558
1293.00,0.0558
1292.00,0.0558
1291.00,0.0559
1290.00,0.0559
1289.00,0.0559
1288.00,0.0558
1287.00,0.0558
1286.00,0.0558
1285.00,0.0557
1284.00,0.0557
1283.00,0.0556
1282.00,0.0556
1281.00,0.0555
1280.00,0.0555
1279.00,0.0555
1278.00,0.0554
1277.00,0.0554
1276.00,0.0554
1275.00,0.0554
1274.00,0.0554
1273.00,0.0554
1272.00,0.0554
1271.00,0.0554
1270.00,0.0554
1269.00,0.0553
1268.00,0.0552
1267.00,0.0552
1266.00,0.0551
1265.00,0.0551
1264.00,0.0550
1263.00,0.0550
1262.00,0.0550
1261.00,0.0551
1260.00,0.0551
1259.00,0.0552
1258.00,0.0553
1257.00,0.0555
1256.00,0.0556
1255.00,0.0557
1254.00,0.0559
1253.00,0.0560
1252.00,0.0562
1251.00,0.0564
1250.00,0.0566
1249.00,0.0569
1248.00,0.0572
1247.00,0.0574
1246.00,0.0577
1245.00,0.0579
1244.00,0.0580
1243.00,0.0581
1242.00,0.0582
1241.00,0.0582
1240.00,0.0583
1239.00,0.0583
1238.00,0.0582
1237.00,0.0581
1236.00,0.0580
1235.00,0.0579
1234.00,0.0577
1233.00,0.0575
1232.00,0.0573
1231.00,0.0570
1230.00,0.0568
1229.00,0.0564
1228.00,0.0561
1227.00,0.0557
1226.00,0.0553
1225.00,0.0549
1224.00,0.0545
1223.00,0.0540
1222.00,0.0534
1221.00,0.0528
1220.00,0.0522
1219.00,0.0516
1218.00,0.0511
1217.00,0.0505
1216.00,0.0499
1215.00,0.0493
1214.00,0.0488
1213.00,0.0483
1212.00,0.0479
1211.00,0.0474
1210.00,0.0470
1209.00,0.0466
1208.00,0.0461
1207.00,0.0457
1206.00,0.0453
1205.00,0.0449
1204.00,0.0445
1203.00,0.0441
1202.00,0.0437
1201.00,0.0433
1200.00,0.0429
1199.00,0.0426
1198.00,0.0422
1197.00,0.0419
1196.00,0.0416
1195.00,0.0413
1194.00,0.0410
1193.00,0.0408
1192.00,0.0405
1191.00,0.0403
1190.00,0.0401
1189.00,0.0398
1188.00,0.0396
1187.00,0.0394
1186.00,0.0392
1185.00,0.0390
1184.00,0.0389
1183.00,0.0388
1182.00,0.0388
1181.00,0.0389
1180.00,0.0390
1179.00,0.0392
1178.00,0.0394
1177.00,0.0397
1176.00,0.0401
1175.00,0.0404
1174.00,0.0406
1173.00,0.0408
1172.00,0.0409
1171.00,0.0409
1170.00,0.0408
1169.00,0.0407
1168.00,0.0405
1167.00,0.0404
1166.00,0.0402
1165.00,0.0400
1164.00,0.0399
1163.00,0.0398
1162.00,0.0397
1161.00,0.0396
1160.00,0.0396
1159.00,0.0395
1158.00,0.0395
1157.00,0.0394
1156.00,0.0394
1155.00,0.0393
1154.00,0.0393
1153.00,0.0391
1152.00,0.0390
1151.00,0.0387
1150.00,0.0385
1149.00,0.0382
1148.00,0.0380
1147.00,0.0377
1146.00,0.0374
1145.00,0.0372
1144.00,0.0369
1143.00,0.0368
1142.00,0.0367
1141.00,0.0366
1140.00,0.0366
1139.00,0.0367
1138.00,0.0369
1137.00,0.0371
1136.00,0.0374
1135.00,0.0377
1134.00,0.0380
1133.00,0.0384
1132.00,0.0387
1131.00,0.0390
1130.00,0.0393
1129.00,0.0396
1128.00,0.0398
1127.00,0.0399
1126.00,0.0400
1125.00,0.0401
1124.00,0.0401
1123.00,0.0401
1122.00,0.0401
1121.00,0.0400
1120.00,0.0400
1119.00,0.0400
1118.00,0.0400
1117.00,0.0400
1116.00,0.0400
1115.00,0.0400
1114.00,0.0400
1113.00,0.0400
1112.00,0.0400
1111.00,0.0400
1110.00,0.0400
1109.00,0.0400
1108.00,0.0400
1107.00,0.0400
1106.00,0.0400
1105.00,0.0400
1104.00,0.0400
1103.00,0.0400
1102.00,0.0400
1101.00,0.0399
1100.00,0.0398
1099.00,0.0398
1098.00,0.0397
1097.00,0.0397
1096.00,0.0397
1095.00,0.0397
1094.00,0.0398
1093.00,0.0399
1092.00,0.0400
1091.00,0.0401
1090.00,0.0402
1089.00,0.0404
1088.00,0.0405
1087.00,0.0407
1086.00,0.0410
1085.00,0.0412
1084.00,0.0414
1083.00,0.0415
1082.00,0.0417
1081.00,0.0418
1080.00,0.0419
1079.00,0.0420
1078.00,0.0420
1077.00,0.0419
1076.00,0.0418
1075.00,0.0417
1074.00,0.0416
1073.00,0.0414
1072.00,0.0412
1071.00,0.0410
1070.00,0.0409
1069.00,0.0407
1068.00,0.0406
1067.00,0.0405
1066.00,0.0403
1065.00,0.0401
1064.00,0.0398
1063.00,0.0397
1062.00,0.0395
1061.00,0.0393
1060.00,0.0392
1059.00,0.0390
1058.00,0.0389
1057.00,0.0388
1056.00,0.0387
1055.00,0.0386
1054.00,0.0385
1053.00,0.0384
1052.00,0.0384
1051.00,0.0382
1050.00,0.0381
1049.00,0.0379
1048.00,0.0378
1047.00,0.0376
1046.00,0.0374
1045.00,0.0372
1044.00,0.0370
1043.00,0.0367
1042.00,0.0365
1041.00,0.0362
1040.00,0.0359
1039.00,0.0358
1038.00,0.0356
1037.00,0.0354
1036.00,0.0353
1035.00,0.0351
1034.00,0.0351
1033.00,0.0350
1032.00,0.0350
1031.00,0.0349
1030.00,0.0348
1029.00,0.0347
1028.00,0.0346
1027.00,0.0344
1026.00,0.0342
1025.00,0.0340
1024.00,0.0338
1023.00,0.0335
1022.00,0.0333
1021.00,0.0330
1020.00,0.0327
1019.00,0.0325
1018.00,0.0322
1017.00,0.0320
1016.00,0.0318
1015.00,0.0315
1014.00,0.0312
1013.00,0.0309
1012.00,0.0306
1011.00,0.0304
1010.00,0.0301
1009.00,0.0299
1008.00,0.0297
1007.00,0.0294
1006.00,0.0292
1005.00,0.0290
1004.00,0.0288
1003.00,0.0287
1002.00,0.0285
1001.00,0.0284
1000.00,0.0283
999.00,0.0281
998.00,0.0280
997.00,0.0279
996.00,0.0279
995.00,0.0278
994.00,0.0278
993.00,0.0277
992.00,0.0276
991.00,0.0276
990.00,0.0275
989.00,0.0274
988.00,0.0273
987.00,0.0272
986.00,0.0271
985.00,0.0270
984.00,0.0269
983.00,0.0268
982.00,0.0267
981.00,0.0266
980.00,0.0265
979.00,0.0263
978.00,0.0262
977.00,0.0261
976.00,0.0259
975.00,0.0258
974.00,0.0256
973.00,0.0254
972.00,0.0251
971.00,0.0249
970.00,0.0247
969.00,0.0245
968.00,0.0244
967.00,0.0243
966.00,0.0243
965.00,0.0242
964.00,0.0242
963.00,0.0242
962.00,0.0242
961.00,0.0242
960.00,0.0241
959.00,0.0240
958.00,0.0239
957.00,0.0238
956.00,0.0238
955.00,0.0238
954.00,0.0238
953.00,0.0238
952.00,0.0239
951.00,0.0240
950.00,0.0241
949.00,0.0243
948.00,0.0244
947.00,0.0245
946.00,0.0247
945.00,0.0248
944.00,0.0250
943.00,0.0252
942.00,0.0255
941.00,0.0258
940.00,0.0260
939.00,0.0263
938.00,0.0265
937.00,0.0267
936.00,0.0270
935.00,0.0272
934.00,0.0273
933.00,0.0274
932.00,0.0275
931.00,0.0276
930.00,0.0276
929.00,0.0276
928.00,0.0275
927.00,0.0275
926.00,0.0274
925.00,0.0274
924.00,0.0274
923.00,0.0273
922.00,0.0273
921.00,0.0272
920.00,0.0271
919.00,0.0270
918.00,0.0269
917.00,0.0268
916.00,0.0267
915.00,0.0266
914.00,0.0265
913.00,0.0265
912.00,0.0264
911.00,0.0264
910.00,0.0264
909.00,0.0264
908.00,0.0264
907.00,0.0264
906.00,0.0265
905.00,0.0266
904.00,0.0266
903.00,0.0266
902.00,0.0267
901.00,0.0267
900.00,0.0268
899.00,0.0268
898.00,0.0269
897.00,0.0269
896.00,0.0270
895.00,0.0270
894.00,0.0270
893.00,0.0271
892.00,0.0271
891.00,0.0271
890.00,0.0271
889.00,0.0270
888.00,0.0270
887.00,0.0270
886.00,0.0270
885.00,0.0270
884.00,0.0269
883.00,0.0269
882.00,0.0269
881.00,0.0269
880.00,0.0269
879.00,0.0269
878.00,0.0268
877.00,0.0268
876.00,0.0268
875.00,0.0268
874.00,0.0268
873.00,0.0268
872.00,0.0268
871.00,0.0268
870.00,0.0268
869.00,0.0268
868.00,0.0269
867.00,0.0269
866.00,0.0270
865.00,0.0271
864.00,0.0272
863.00,0.0273
862.00,0.0274
861.00,0.0276
860.00,0.0277
859.00,0.0278
858.00,0.0279
857.00,0.0281
856.00,0.0283
855.00,0.0286
854.00,0.0288
853.00,0.0290
852.00,0.0292
851.00,0.0293
850.00,0.0295
849.00,0.0295
848.00,0.0296
847.00,0.0297
846.00,0.0297
845.00,0.0298
844.00,0.0299
843.00,0.0301
842.00,0.0303
841.00,0.0305
840.00,0.0308
839.00,0.0310
838.00,0.0313
837.00,0.0315
836.00,0.0318
835.00,0.0320
834.00,0.0322
833.00,0.0324
832.00,0.0325
831.00,0.0327
830.00,0.0328
829.00,0.0329
828.00,0.0329
827.00,0.0329
826.00,0.0329
825.00,0.0329
824.00,0.0329
823.00,0.0330
822.00,0.0330
821.00,0.0331
820.00,0.0332
819.00,0.0333
818.00,0.0334
817.00,0.0336
816.00,0.0337
815.00,0.0339
814.00,0.0341
813.00,0.0342
812.00,0.0344
811.00,0.0346
810.00,0.0347
809.00,0.0349
808.00,0.0351
807.00,0.0352
806.00,0.0354
805.00,0.0355
804.00,0.0356
803.00,0.0358
802.00,0.0359
801.00,0.0361
800.00,0.0362
799.00,0.0364
798.00,0.0365
797.00,0.0367
796.00,0.0369
795.00,0.0371
794.00,0.0373
793.00,0.0376
792.00,0.0378
791.00,0.0380
790.00,0.0383
789.00,0.0385
788.00,0.0388
787.00,0.0390
786.00,0.0392
785.00,0.0395
784.00,0.0397
783.00,0.0399
782.00,0.0402
781.00,0.0404
780.00,0.0407
779.00,0.0408
778.00,0.0410
777.00,0.0412
776.00,0.0415
775.00,0.0417
774.00,0.0419
773.00,0.0421
772.00,0.0423
771.00,0.0425
770.00,0.0427
769.00,0.0430
768.00,0.0432
767.00,0.0434
766.00,0.0436
765.00,0.0438
764.00,0.0440
763.00,0.0442
762.00,0.0444
761.00,0.0446
760.00,0.0448
759.00,0.0451
758.00,0.0453
757.00,0.0456
756.00,0.0459
755.00,0.0462
754.00,0.0465
753.00,0.0468
752.00,0.0470
751.00,0.0473
750.00,0.0475
749.00,0.0477
748.00,0.0479
747.00,0.0481
746.00,0.0483
745.00,0.0485
744.00,0.0487
743.00,0.0489
742.00,0.0491
741.00,0.0493
740.00,0.0495
739.00,0.0496
738.00,0.0498
737.00,0.0499
736.00,0.0501
735.00,0.0504
734.00,0.0506
733.00,0.0508
732.00,0.0511
731.00,0.0513
730.00,0.0516
729.00,0.0518
728.00,0.0521
727.00,0.0525
726.00,0.0528
725.00,0.0531
724.00,0.0535
723.00,0.0539
722.00,0.0543
721.00,0.0548
720.00,0.0553
719.00,0.0558
718.00,0.0563
717.00,0.0567
716.00,0.0572
715.00,0.0576
714.00,0.0581
713.00,0.0586
712.00,0.0592
711.00,0.0598
710.00,0.0604
709.00,0.0610
708.00,0.0616
707.00,0.0622
706.00,0.0629
705.00,0.0635
704.00,0.0641
703.00,0.0647
702.00,0.0652
701.00,0.0655
700.00,0.0658
699.00,0.0660
698.00,0.0662
697.00,0.0662
696.00,0.0663
695.00,0.0663
694.00,0.0662
693.00,0.0663
692.00,0.0663
691.00,0.0665
690.00,0.0666
689.00,0.0668
688.00,0.0671
687.00,0.0675
686.00,0.0679
685.00,0.0682
684.00,0.0686
683.00,0.0689
682.00,0.0693
681.00,0.0697
680.00,0.0701
679.00,0.0706
678.00,0.0710
677.00,0.0715
676.00,0.0719
675.00,0.0724
674.00,0.0727
673.00,0.0731
672.00,0.0735
671.00,0.0740
670.00,0.0745
669.00,0.0751
668.00,0.0760
667.00,0.0765
666.00,0.0767
665.00,0.0769
664.00,0.0771
663.00,0.0773
662.00,0.0776
661.00,0.0778
660.00,0.0780
659.00,0.0783
658.00,0.0784
657.00,0.0786
656.00,0.0788
655.00,0.0789
654.00,0.0790
653.00,0.0790
652.00,0.0791
651.00,0.0792
650.00,0.0793
649.00,0.0795
648.00,0.0797
647.00,0.0799
646.00,0.0801
645.00,0.0803
644.00,0.0805
643.00,0.0808
642.00,0.0810
641.00,0.0812
640.00,0.0815
639.00,0.0818
638.00,0.0821
637.00,0.0825
636.00,0.0828
635.00,0.0831
634.00,0.0835
633.00,0.0838
632.00,0.0843
631.00,0.0847
630.00,0.0850
629.00,0.0853
628.00,0.0857
627.00,0.0861
626.00,0.0864
625.00,0.0868
624.00,0.0871
623.00,0.0875
622.00,0.0877
621.00,0.0880
620.00,0.0883
619.00,0.0885
618.00,0.0886
617.00,0.0888
616.00,0.0889
615.00,0.0891
614.00,0.0892
613.00,0.0892
612.00,0.0893
611.00,0.0894
610.00,0.0895
609.00,0.0897
608.00,0.0898
607.00,0.0900
606.00,0.0900
605.00,0.0902
604.00,0.0904
603.00,0.0906
602.00,0.0907
601.00,0.0907
600.00,0.0908
599.00,0.0909
598.00,0.0910
597.00,0.0911
596.00,0.0913
595.00,0.0914
594.00,0.0915
593.00,0.0916
592.00,0.0917
591.00,0.0919
590.00,0.0920
589.00,0.0921
588.00,0.0923
587.00,0.0924
586.00,0.0925
585.00,0.0927
584.00,0.0928
583.00,0.0930
582.00,0.0932
581.00,0.0934
580.00,0.0937
579.00,0.0939
578.00,0.0941
577.00,0.0942
576.00,0.0944
575.00,0.0946
574.00,0.0947
573.00,0.0948
572.00,0.0951
571.00,0.0953
570.00,0.0954
569.00,0.0955
568.00,0.0956
567.00,0.0958
566.00,0.0960
565.00,0.0961
564.00,0.0963
563.00,0.0964
562.00,0.0964
561.00,0.0965
560.00,0.0966
559.00,0.0968
558.00,0.0969
557.00,0.0970
556.00,0.0972
555.00,0.0974
554.00,0.0976
553.00,0.0978
552.00,0.0980
551.00,0.0981
550.00,0.0982
549.00,0.0983
548.00,0.0984
547.00,0.0986
546.00,0.0986
545.00,0.0986
544.00,0.0988
543.00,0.0989
542.00,0.0990
541.00,0.0991
540.00,0.0991
539.00,0.0991
538.00,0.0991
537.00,0.0991
536.00,0.0991
535.00,0.0991
534.00,0.0990
533.00,0.0989
532.00,0.0989
531.00,0.0990
530.00,0.0990
529.00,0.0991
528.00,0.0993
527.00,0.0994
526.00,0.0994
525.00,0.0993
524.00,0.0993
523.00,0.0993
522.00,0.0993
521.00,0.0993
520.00,0.0993
519.00,0.0993
518.00,0.0992
517.00,0.0991
516.00,0.0990
515.00,0.0987
514.00,0.0981
513.00,0.0975
512.00,0.0971
511.00,0.0969
510.00,0.0967
509.00,0.0964
508.00,0.0961
507.00,0.0958
506.00,0.0954
505.00,0.0952
504.00,0.0950
503.00,0.0947
502.00,0.0944
501.00,0.0942
500.00,0.0941
499.00,0.0940
498.00,0.0939
497.00,0.0938
496.00,0.0939
495.00,0.0940
494.00,0.0940
493.00,0.0941
492.00,0.0942
491.00,0.0942
490.00,0.0941
489.00,0.0940
488.00,0.0941
487.00,0.0941
486.00,0.0941
485.00,0.0941
484.00,0.0941
483.00,0.0941
482.00,0.0940
481.00,0.0939
480.00,0.0939
479.00,0.0939
478.00,0.0939
477.00,0.0939
476.00,0.0941
475.00,0.0941
474.00,0.0939
473.00,0.0938
472.00,0.0940
471.00,0.0942
470.00,0.0943
469.00,0.0944
468.00,0.0947
467.00,0.0949
466.00,0.0951
465.00,0.0951
464.00,0.0952
463.00,0.0952
462.00,0.0950
461.00,0.0949
460.00,0.0948
459.00,0.0946
458.00,0.0942
457.00,0.0938
456.00,0.0936
455.00,0.0934
454.00,0.0931
453.00,0.0928
452.00,0.0924
451.00,0.0918
450.00,0.0912
449.00,0.0907
448.00,0.0904
447.00,0.0900
446.00,0.0895
445.00,0.0889
444.00,0.0885
443.00,0.0881
442.00,0.0874
441.00,0.0870
440.00,0.0868
439.00,0.0867
438.00,0.0865
437.00,0.0863
436.00,0.0864
435.00,0.0865
434.00,0.0865
433.00,0.0865
432.00,0.0866
431.00,0.0866
430.00,0.0866
429.00,0.0867
428.00,0.0870
427.00,0.0872
426.00,0.0871
425.00,0.0871
424.00,0.0873
423.00,0.0877
422.00,0.0880
421.00,0.0886
420.00,0.0895
419.00,0.0899
418.00,0.0892
417.00,0.0881
416.00,0.0876
415.00,0.0876
414.00,0.0877
413.00,0.0878
412.00,0.0881
411.00,0.0882
410.00,0.0879
409.00,0.0875
408.00,0.0873
407.00,0.0869
406.00,0.0861
405.00,0.0850
404.00,0.0842
403.00,0.0836
402.00,0.0832
401.00,0.0832
400.00,0.0837
