Created as New Dataset,Sample 758 By YargerLab Date Tuesday, July 01 2025
cm-1,A
4000.00,0.0004
3999.00,0.0005
3998.00,0.0005
3997.00,0.0005
3996.00,0.0005
3995.00,0.0005
3994.00,0.0005
3993.00,0.0005
3992.00,0.0005
3991.00,0.0005
3990.00,0.0005
3989.00,0.0005
3988.00,0.0005
3987.00,0.0005
3986.00,0.0005
3985.00,0.0005
3984.00,0.0005
3983.00,0.0005
3982.00,0.0005
3981.00,0.0005
3980.00,0.0005
3979.00,0.0005
3978.00,0.0005
3977.00,0.0005
3976.00,0.0005
3975.00,0.0005
3974.00,0.0005
3973.00,0.0005
3972.00,0.0005
3971.00,0.0005
3970.00,0.0005
3969.00,0.0005
3968.00,0.0005
3967.00,0.0005
3966.00,0.0006
3965.00,0.0006
3964.00,0.0006
3963.00,0.0006
3962.00,0.0006
3961.00,0.0005
3960.00,0.0005
3959.00,0.0005
3958.00,0.0005
3957.00,0.0005
3956.00,0.0005
3955.00,0.0005
3954.00,0.0005
3953.00,0.0005
3952.00,0.0005
3951.00,0.0005
3950.00,0.0006
3949.00,0.0007
3948.00,0.0008
3947.00,0.0008
3946.00,0.0008
3945.00,0.0007
3944.00,0.0007
3943.00,0.0006
3942.00,0.0006
3941.00,0.0006
3940.00,0.0006
3939.00,0.0006
3938.00,0.0006
3937.00,0.0006
3936.00,0.0006
3935.00,0.0007
3934.00,0.0008
3933.00,0.0008
3932.00,0.0008
3931.00,0.0007
3930.00,0.0006
3929.00,0.0006
3928.00,0.0006
3927.00,0.0005
3926.00,0.0005
3925.00,0.0005
3924.00,0.0005
3923.00,0.0006
3922.00,0.0007
3921.00,0.0008
3920.00,0.0008
3919.00,0.0009
3918.00,0.0009
3917.00,0.0008
3916.00,0.0007
3915.00,0.0007
3914.00,0.0006
3913.00,0.0006
3912.00,0.0005
3911.00,0.0005
3910.00,0.0005
3909.00,0.0005
3908.00,0.0005
3907.00,0.0005
3906.00,0.0006
3905.00,0.0007
3904.00,0.0009
3903.00,0.0011
3902.00,0.0013
3901.00,0.0012
3900.00,0.0011
3899.00,0.0010
3898.00,0.0008
3897.00,0.0008
3896.00,0.0008
3895.00,0.0007
3894.00,0.0007
3893.00,0.0006
3892.00,0.0006
3891.00,0.0006
3890.00,0.0007
3889.00,0.0008
3888.00,0.0009
3887.00,0.0010
3886.00,0.0010
3885.00,0.0009
3884.00,0.0008
3883.00,0.0008
3882.00,0.0009
3881.00,0.0009
3880.00,0.0008
3879.00,0.0008
3878.00,0.0008
3877.00,0.0009
3876.00,0.0009
3875.00,0.0008
3874.00,0.0007
3873.00,0.0007
3872.00,0.0008
3871.00,0.0010
3870.00,0.0010
3869.00,0.0009
3868.00,0.0009
3867.00,0.0010
3866.00,0.0011
3865.00,0.0010
3864.00,0.0009
3863.00,0.0009
3862.00,0.0009
3861.00,0.0010
3860.00,0.0010
3859.00,0.0009
3858.00,0.0007
3857.00,0.0006
3856.00,0.0005
3855.00,0.0005
3854.00,0.0005
3853.00,0.0006
3852.00,0.0007
3851.00,0.0007
3850.00,0.0008
3849.00,0.0009
3848.00,0.0009
3847.00,0.0009
3846.00,0.0009
3845.00,0.0009
3844.00,0.0009
3843.00,0.0008
3842.00,0.0009
3841.00,0.0009
3840.00,0.0008
3839.00,0.0008
3838.00,0.0008
3837.00,0.0007
3836.00,0.0007
3835.00,0.0008
3834.00,0.0008
3833.00,0.0009
3832.00,0.0009
3831.00,0.0008
3830.00,0.0008
3829.00,0.0008
3828.00,0.0008
3827.00,0.0008
3826.00,0.0008
3825.00,0.0008
3824.00,0.0009
3823.00,0.0010
3822.00,0.0010
3821.00,0.0009
3820.00,0.0008
3819.00,0.0008
3818.00,0.0009
3817.00,0.0010
3816.00,0.0009
3815.00,0.0007
3814.00,0.0006
3813.00,0.0006
3812.00,0.0006
3811.00,0.0006
3810.00,0.0006
3809.00,0.0006
3808.00,0.0007
3807.00,0.0007
3806.00,0.0007
3805.00,0.0007
3804.00,0.0008
3803.00,0.0008
3802.00,0.0008
3801.00,0.0007
3800.00,0.0006
3799.00,0.0007
3798.00,0.0008
3797.00,0.0008
3796.00,0.0008
3795.00,0.0008
3794.00,0.0007
3793.00,0.0006
3792.00,0.0006
3791.00,0.0005
3790.00,0.0005
3789.00,0.0005
3788.00,0.0005
3787.00,0.0005
3786.00,0.0005
3785.00,0.0005
3784.00,0.0005
3783.00,0.0006
3782.00,0.0006
3781.00,0.0006
3780.00,0.0006
3779.00,0.0006
3778.00,0.0006
3777.00,0.0006
3776.00,0.0006
3775.00,0.0006
3774.00,0.0006
3773.00,0.0006
3772.00,0.0007
3771.00,0.0007
3770.00,0.0008
3769.00,0.0008
3768.00,0.0008
3767.00,0.0009
3766.00,0.0009
3765.00,0.0008
3764.00,0.0008
3763.00,0.0008
3762.00,0.0009
3761.00,0.0009
3760.00,0.0009
3759.00,0.0009
3758.00,0.0009
3757.00,0.0010
3756.00,0.0010
3755.00,0.0010
3754.00,0.0011
3753.00,0.0012
3752.00,0.0013
3751.00,0.0014
3750.00,0.0015
3749.00,0.0015
3748.00,0.0015
3747.00,0.0015
3746.00,0.0015
3745.00,0.0015
3744.00,0.0014
3743.00,0.0013
3742.00,0.0013
3741.00,0.0014
3740.00,0.0015
3739.00,0.0016
3738.00,0.0017
3737.00,0.0017
3736.00,0.0016
3735.00,0.0016
3734.00,0.0016
3733.00,0.0016
3732.00,0.0015
3731.00,0.0014
3730.00,0.0013
3729.00,0.0012
3728.00,0.0012
3727.00,0.0012
3726.00,0.0012
3725.00,0.0011
3724.00,0.0012
3723.00,0.0012
3722.00,0.0011
3721.00,0.0011
3720.00,0.0010
3719.00,0.0010
3718.00,0.0009
3717.00,0.0009
3716.00,0.0008
3715.00,0.0009
3714.00,0.0010
3713.00,0.0010
3712.00,0.0010
3711.00,0.0010
3710.00,0.0010
3709.00,0.0010
3708.00,0.0010
3707.00,0.0009
3706.00,0.0009
3705.00,0.0008
3704.00,0.0008
3703.00,0.0007
3702.00,0.0007
3701.00,0.0007
3700.00,0.0007
3699.00,0.0007
3698.00,0.0007
3697.00,0.0007
3696.00,0.0007
3695.00,0.0007
3694.00,0.0007
3693.00,0.0007
3692.00,0.0006
3691.00,0.0005
3690.00,0.0005
3689.00,0.0006
3688.00,0.0006
3687.00,0.0006
3686.00,0.0005
3685.00,0.0004
3684.00,0.0004
3683.00,0.0003
3682.00,0.0003
3681.00,0.0002
3680.00,0.0001
3679.00,0.0000
3678.00,0.0000
3677.00,0.0001
3676.00,0.0000
3675.00,-0.0000
3674.00,-0.0001
3673.00,-0.0001
3672.00,-0.0001
3671.00,-0.0001
3670.00,-0.0003
3669.00,-0.0005
3668.00,-0.0005
3667.00,-0.0006
3666.00,-0.0007
3665.00,-0.0007
3664.00,-0.0008
3663.00,-0.0009
3662.00,-0.0009
3661.00,-0.0009
3660.00,-0.0009
3659.00,-0.0008
3658.00,-0.0008
3657.00,-0.0008
3656.00,-0.0007
3655.00,-0.0007
3654.00,-0.0006
3653.00,-0.0004
3652.00,-0.0003
3651.00,-0.0002
3650.00,-0.0001
3649.00,-0.0000
3648.00,0.0001
3647.00,0.0001
3646.00,0.0000
3645.00,-0.0001
3644.00,-0.0001
3643.00,-0.0002
3642.00,-0.0002
3641.00,-0.0003
3640.00,-0.0003
3639.00,-0.0003
3638.00,-0.0003
3637.00,-0.0002
3636.00,-0.0001
3635.00,0.0001
3634.00,0.0003
3633.00,0.0005
3632.00,0.0007
3631.00,0.0009
3630.00,0.0010
3629.00,0.0011
3628.00,0.0011
3627.00,0.0011
3626.00,0.0011
3625.00,0.0011
3624.00,0.0011
3623.00,0.0011
3622.00,0.0011
3621.00,0.0010
3620.00,0.0010
3619.00,0.0011
3618.00,0.0012
3617.00,0.0013
3616.00,0.0014
3615.00,0.0014
3614.00,0.0014
3613.00,0.0015
3612.00,0.0015
3611.00,0.0016
3610.00,0.0017
3609.00,0.0017
3608.00,0.0015
3607.00,0.0014
3606.00,0.0013
3605.00,0.0013
3604.00,0.0013
3603.00,0.0013
3602.00,0.0012
3601.00,0.0012
3600.00,0.0012
3599.00,0.0013
3598.00,0.0013
3597.00,0.0013
3596.00,0.0013
3595.00,0.0013
3594.00,0.0013
3593.00,0.0013
3592.00,0.0014
3591.00,0.0015
3590.00,0.0016
3589.00,0.0017
3588.00,0.0016
3587.00,0.0015
3586.00,0.0015
3585.00,0.0015
3584.00,0.0014
3583.00,0.0014
3582.00,0.0014
3581.00,0.0013
3580.00,0.0013
3579.00,0.0013
3578.00,0.0012
3577.00,0.0012
3576.00,0.0012
3575.00,0.0012
3574.00,0.0012
3573.00,0.0013
3572.00,0.0014
3571.00,0.0015
3570.00,0.0016
3569.00,0.0017
3568.00,0.0018
3567.00,0.0018
3566.00,0.0018
3565.00,0.0017
3564.00,0.0017
3563.00,0.0017
3562.00,0.0016
3561.00,0.0016
3560.00,0.0015
3559.00,0.0015
3558.00,0.0015
3557.00,0.0014
3556.00,0.0014
3555.00,0.0015
3554.00,0.0015
3553.00,0.0015
3552.00,0.0015
3551.00,0.0016
3550.00,0.0016
3549.00,0.0018
3548.00,0.0018
3547.00,0.0019
3546.00,0.0019
3545.00,0.0019
3544.00,0.0018
3543.00,0.0018
3542.00,0.0017
3541.00,0.0017
3540.00,0.0017
3539.00,0.0017
3538.00,0.0017
3537.00,0.0017
3536.00,0.0017
3535.00,0.0017
3534.00,0.0017
3533.00,0.0017
3532.00,0.0018
3531.00,0.0018
3530.00,0.0018
3529.00,0.0018
3528.00,0.0019
3527.00,0.0020
3526.00,0.0020
3525.00,0.0021
3524.00,0.0020
3523.00,0.0020
3522.00,0.0020
3521.00,0.0019
3520.00,0.0019
3519.00,0.0019
3518.00,0.0018
3517.00,0.0018
3516.00,0.0019
3515.00,0.0019
3514.00,0.0019
3513.00,0.0019
3512.00,0.0019
3511.00,0.0020
3510.00,0.0020
3509.00,0.0020
3508.00,0.0021
3507.00,0.0021
3506.00,0.0021
3505.00,0.0022
3504.00,0.0022
3503.00,0.0022
3502.00,0.0022
3501.00,0.0022
3500.00,0.0022
3499.00,0.0022
3498.00,0.0021
3497.00,0.0021
3496.00,0.0021
3495.00,0.0022
3494.00,0.0022
3493.00,0.0022
3492.00,0.0022
3491.00,0.0022
3490.00,0.0022
3489.00,0.0022
3488.00,0.0022
3487.00,0.0022
3486.00,0.0022
3485.00,0.0023
3484.00,0.0023
3483.00,0.0023
3482.00,0.0023
3481.00,0.0023
3480.00,0.0024
3479.00,0.0024
3478.00,0.0024
3477.00,0.0024
3476.00,0.0024
3475.00,0.0024
3474.00,0.0023
3473.00,0.0024
3472.00,0.0024
3471.00,0.0024
3470.00,0.0025
3469.00,0.0025
3468.00,0.0025
3467.00,0.0025
3466.00,0.0025
3465.00,0.0025
3464.00,0.0025
3463.00,0.0025
3462.00,0.0026
3461.00,0.0026
3460.00,0.0026
3459.00,0.0026
3458.00,0.0026
3457.00,0.0026
3456.00,0.0026
3455.00,0.0026
3454.00,0.0026
3453.00,0.0026
3452.00,0.0026
3451.00,0.0026
3450.00,0.0027
3449.00,0.0027
3448.00,0.0027
3447.00,0.0027
3446.00,0.0028
3445.00,0.0028
3444.00,0.0028
3443.00,0.0028
3442.00,0.0028
3441.00,0.0028
3440.00,0.0028
3439.00,0.0028
3438.00,0.0029
3437.00,0.0029
3436.00,0.0029
3435.00,0.0029
3434.00,0.0029
3433.00,0.0029
3432.00,0.0029
3431.00,0.0029
3430.00,0.0029
3429.00,0.0030
3428.00,0.0030
3427.00,0.0030
3426.00,0.0030
3425.00,0.0030
3424.00,0.0030
3423.00,0.0030
3422.00,0.0030
3421.00,0.0030
3420.00,0.0030
3419.00,0.0030
3418.00,0.0031
3417.00,0.0031
3416.00,0.0031
3415.00,0.0031
3414.00,0.0031
3413.00,0.0032
3412.00,0.0032
3411.00,0.0032
3410.00,0.0032
3409.00,0.0032
3408.00,0.0032
3407.00,0.0032
3406.00,0.0032
3405.00,0.0032
3404.00,0.0032
3403.00,0.0032
3402.00,0.0033
3401.00,0.0033
3400.00,0.0033
3399.00,0.0033
3398.00,0.0033
3397.00,0.0034
3396.00,0.0034
3395.00,0.0034
3394.00,0.0033
3393.00,0.0033
3392.00,0.0033
3391.00,0.0034
3390.00,0.0034
3389.00,0.0034
3388.00,0.0034
3387.00,0.0034
3386.00,0.0034
3385.00,0.0034
3384.00,0.0034
3383.00,0.0034
3382.00,0.0034
3381.00,0.0034
3380.00,0.0034
3379.00,0.0034
3378.00,0.0034
3377.00,0.0034
3376.00,0.0035
3375.00,0.0035
3374.00,0.0035
3373.00,0.0036
3372.00,0.0036
3371.00,0.0036
3370.00,0.0036
3369.00,0.0036
3368.00,0.0036
3367.00,0.0036
3366.00,0.0036
3365.00,0.0036
3364.00,0.0036
3363.00,0.0037
3362.00,0.0037
3361.00,0.0037
3360.00,0.0037
3359.00,0.0036
3358.00,0.0036
3357.00,0.0036
3356.00,0.0037
3355.00,0.0037
3354.00,0.0037
3353.00,0.0038
3352.00,0.0038
3351.00,0.0038
3350.00,0.0038
3349.00,0.0038
3348.00,0.0038
3347.00,0.0038
3346.00,0.0038
3345.00,0.0038
3344.00,0.0038
3343.00,0.0038
3342.00,0.0038
3341.00,0.0038
3340.00,0.0038
3339.00,0.0039
3338.00,0.0038
3337.00,0.0038
3336.00,0.0038
3335.00,0.0038
3334.00,0.0038
3333.00,0.0038
3332.00,0.0038
3331.00,0.0038
3330.00,0.0038
3329.00,0.0038
3328.00,0.0038
3327.00,0.0038
3326.00,0.0038
3325.00,0.0038
3324.00,0.0037
3323.00,0.0037
3322.00,0.0037
3321.00,0.0037
3320.00,0.0037
3319.00,0.0037
3318.00,0.0037
3317.00,0.0037
3316.00,0.0037
3315.00,0.0037
3314.00,0.0037
3313.00,0.0038
3312.00,0.0038
3311.00,0.0038
3310.00,0.0038
3309.00,0.0038
3308.00,0.0038
3307.00,0.0038
3306.00,0.0038
3305.00,0.0038
3304.00,0.0038
3303.00,0.0038
3302.00,0.0037
3301.00,0.0037
3300.00,0.0037
3299.00,0.0037
3298.00,0.0037
3297.00,0.0038
3296.00,0.0038
3295.00,0.0038
3294.00,0.0038
3293.00,0.0038
3292.00,0.0038
3291.00,0.0038
3290.00,0.0038
3289.00,0.0037
3288.00,0.0037
3287.00,0.0037
3286.00,0.0037
3285.00,0.0037
3284.00,0.0037
3283.00,0.0037
3282.00,0.0037
3281.00,0.0037
3280.00,0.0037
3279.00,0.0037
3278.00,0.0037
3277.00,0.0037
3276.00,0.0037
3275.00,0.0037
3274.00,0.0037
3273.00,0.0037
3272.00,0.0036
3271.00,0.0036
3270.00,0.0036
3269.00,0.0035
3268.00,0.0035
3267.00,0.0035
3266.00,0.0034
3265.00,0.0034
3264.00,0.0034
3263.00,0.0034
3262.00,0.0034
3261.00,0.0034
3260.00,0.0033
3259.00,0.0033
3258.00,0.0033
3257.00,0.0033
3256.00,0.0033
3255.00,0.0033
3254.00,0.0033
3253.00,0.0032
3252.00,0.0032
3251.00,0.0032
3250.00,0.0032
3249.00,0.0032
3248.00,0.0032
3247.00,0.0032
3246.00,0.0032
3245.00,0.0031
3244.00,0.0031
3243.00,0.0031
3242.00,0.0030
3241.00,0.0030
3240.00,0.0030
3239.00,0.0029
3238.00,0.0029
3237.00,0.0030
3236.00,0.0030
3235.00,0.0030
3234.00,0.0029
3233.00,0.0029
3232.00,0.0029
3231.00,0.0029
3230.00,0.0028
3229.00,0.0028
3228.00,0.0028
3227.00,0.0028
3226.00,0.0028
3225.00,0.0028
3224.00,0.0028
3223.00,0.0028
3222.00,0.0027
3221.00,0.0027
3220.00,0.0027
3219.00,0.0027
3218.00,0.0027
3217.00,0.0027
3216.00,0.0026
3215.00,0.0026
3214.00,0.0026
3213.00,0.0026
3212.00,0.0026
3211.00,0.0026
3210.00,0.0025
3209.00,0.0025
3208.00,0.0025
3207.00,0.0025
3206.00,0.0025
3205.00,0.0025
3204.00,0.0025
3203.00,0.0025
3202.00,0.0024
3201.00,0.0024
3200.00,0.0024
3199.00,0.0024
3198.00,0.0024
3197.00,0.0024
3196.00,0.0024
3195.00,0.0024
3194.00,0.0024
3193.00,0.0023
3192.00,0.0023
3191.00,0.0023
3190.00,0.0023
3189.00,0.0023
3188.00,0.0023
3187.00,0.0023
3186.00,0.0023
3185.00,0.0022
3184.00,0.0022
3183.00,0.0022
3182.00,0.0022
3181.00,0.0022
3180.00,0.0022
3179.00,0.0022
3178.00,0.0022
3177.00,0.0022
3176.00,0.0022
3175.00,0.0022
3174.00,0.0021
3173.00,0.0021
3172.00,0.0021
3171.00,0.0021
3170.00,0.0021
3169.00,0.0021
3168.00,0.0021
3167.00,0.0021
3166.00,0.0021
3165.00,0.0021
3164.00,0.0021
3163.00,0.0021
3162.00,0.0021
3161.00,0.0021
3160.00,0.0021
3159.00,0.0021
3158.00,0.0021
3157.00,0.0021
3156.00,0.0021
3155.00,0.0021
3154.00,0.0021
3153.00,0.0021
3152.00,0.0021
3151.00,0.0021
3150.00,0.0020
3149.00,0.0020
3148.00,0.0020
3147.00,0.0020
3146.00,0.0020
3145.00,0.0020
3144.00,0.0020
3143.00,0.0020
3142.00,0.0020
3141.00,0.0020
3140.00,0.0020
3139.00,0.0020
3138.00,0.0020
3137.00,0.0019
3136.00,0.0019
3135.00,0.0019
3134.00,0.0019
3133.00,0.0019
3132.00,0.0019
3131.00,0.0019
3130.00,0.0019
3129.00,0.0019
3128.00,0.0019
3127.00,0.0019
3126.00,0.0019
3125.00,0.0019
3124.00,0.0020
3123.00,0.0020
3122.00,0.0020
3121.00,0.0020
3120.00,0.0020
3119.00,0.0020
3118.00,0.0020
3117.00,0.0020
3116.00,0.0020
3115.00,0.0020
3114.00,0.0021
3113.00,0.0021
3112.00,0.0021
3111.00,0.0022
3110.00,0.0023
3109.00,0.0024
3108.00,0.0024
3107.00,0.0025
3106.00,0.0025
3105.00,0.0026
3104.00,0.0027
3103.00,0.0027
3102.00,0.0027
3101.00,0.0027
3100.00,0.0027
3099.00,0.0026
3098.00,0.0026
3097.00,0.0026
3096.00,0.0025
3095.00,0.0026
3094.00,0.0026
3093.00,0.0027
3092.00,0.0028
3091.00,0.0030
3090.00,0.0031
3089.00,0.0033
3088.00,0.0036
3087.00,0.0038
3086.00,0.0041
3085.00,0.0044
3084.00,0.0046
3083.00,0.0048
3082.00,0.0049
3081.00,0.0049
3080.00,0.0048
3079.00,0.0046
3078.00,0.0044
3077.00,0.0042
3076.00,0.0040
3075.00,0.0039
3074.00,0.0038
3073.00,0.0037
3072.00,0.0037
3071.00,0.0038
3070.00,0.0039
3069.00,0.0041
3068.00,0.0042
3067.00,0.0044
3066.00,0.0047
3065.00,0.0050
3064.00,0.0053
3063.00,0.0056
3062.00,0.0058
3061.00,0.0060
3060.00,0.0061
3059.00,0.0061
3058.00,0.0060
3057.00,0.0059
3056.00,0.0056
3055.00,0.0053
3054.00,0.0050
3053.00,0.0048
3052.00,0.0045
3051.00,0.0042
3050.00,0.0040
3049.00,0.0038
3048.00,0.0037
3047.00,0.0036
3046.00,0.0035
3045.00,0.0035
3044.00,0.0035
3043.00,0.0035
3042.00,0.0036
3041.00,0.0037
3040.00,0.0038
3039.00,0.0040
3038.00,0.0042
3037.00,0.0045
3036.00,0.0048
3035.00,0.0052
3034.00,0.0057
3033.00,0.0063
3032.00,0.0069
3031.00,0.0076
3030.00,0.0083
3029.00,0.0090
3028.00,0.0096
3027.00,0.0102
3026.00,0.0106
3025.00,0.0107
3024.00,0.0105
3023.00,0.0101
3022.00,0.0095
3021.00,0.0086
3020.00,0.0077
3019.00,0.0068
3018.00,0.0058
3017.00,0.0050
3016.00,0.0042
3015.00,0.0036
3014.00,0.0030
3013.00,0.0024
3012.00,0.0019
3011.00,0.0014
3010.00,0.0009
3009.00,0.0005
3008.00,0.0001
3007.00,-0.0003
3006.00,-0.0007
3005.00,-0.0011
3004.00,-0.0015
3003.00,-0.0019
3002.00,-0.0023
3001.00,-0.0027
3000.00,-0.0032
2999.00,-0.0037
2998.00,-0.0042
2997.00,-0.0047
2996.00,-0.0052
2995.00,-0.0056
2994.00,-0.0060
2993.00,-0.0064
2992.00,-0.0067
2991.00,-0.0070
2990.00,-0.0073
2989.00,-0.0076
2988.00,-0.0079
2987.00,-0.0083
2986.00,-0.0090
2985.00,-0.0101
2984.00,-0.0114
2983.00,-0.0128
2982.00,-0.0139
2981.00,-0.0142
2980.00,-0.0139
2979.00,-0.0132
2978.00,-0.0124
2977.00,-0.0116
2976.00,-0.0111
2975.00,-0.0108
2974.00,-0.0107
2973.00,-0.0109
2972.00,-0.0110
2971.00,-0.0109
2970.00,-0.0104
2969.00,-0.0098
2968.00,-0.0091
2967.00,-0.0085
2966.00,-0.0080
2965.00,-0.0075
2964.00,-0.0071
2963.00,-0.0067
2962.00,-0.0063
2961.00,-0.0059
2960.00,-0.0056
2959.00,-0.0052
2958.00,-0.0049
2957.00,-0.0046
2956.00,-0.0042
2955.00,-0.0038
2954.00,-0.0034
2953.00,-0.0030
2952.00,-0.0025
2951.00,-0.0021
2950.00,-0.0017
2949.00,-0.0013
2948.00,-0.0009
2947.00,-0.0004
2946.00,0.0000
2945.00,0.0005
2944.00,0.0010
2943.00,0.0014
2942.00,0.0018
2941.00,0.0021
2940.00,0.0025
2939.00,0.0029
2938.00,0.0033
2937.00,0.0037
2936.00,0.0041
2935.00,0.0044
2934.00,0.0048
2933.00,0.0051
2932.00,0.0055
2931.00,0.0060
2930.00,0.0064
2929.00,0.0068
2928.00,0.0072
2927.00,0.0076
2926.00,0.0079
2925.00,0.0081
2924.00,0.0083
2923.00,0.0084
2922.00,0.0084
2921.00,0.0084
2920.00,0.0084
2919.00,0.0084
2918.00,0.0083
2917.00,0.0081
2916.00,0.0080
2915.00,0.0078
2914.00,0.0076
2913.00,0.0074
2912.00,0.0071
2911.00,0.0069
2910.00,0.0066
2909.00,0.0062
2908.00,0.0059
2907.00,0.0055
2906.00,0.0052
2905.00,0.0049
2904.00,0.0045
2903.00,0.0042
2902.00,0.0039
2901.00,0.0036
2900.00,0.0033
2899.00,0.0030
2898.00,0.0027
2897.00,0.0024
2896.00,0.0021
2895.00,0.0017
2894.00,0.0014
2893.00,0.0011
2892.00,0.0009
2891.00,0.0006
2890.00,0.0004
2889.00,0.0003
2888.00,0.0002
2887.00,0.0001
2886.00,0.0000
2885.00,-0.0001
2884.00,-0.0001
2883.00,-0.0001
2882.00,-0.0000
2881.00,0.0002
2880.00,0.0004
2879.00,0.0005
2878.00,0.0006
2877.00,0.0007
2876.00,0.0008
2875.00,0.0008
2874.00,0.0008
2873.00,0.0009
2872.00,0.0009
2871.00,0.0009
2870.00,0.0010
2869.00,0.0010
2868.00,0.0011
2867.00,0.0013
2866.00,0.0014
2865.00,0.0016
2864.00,0.0017
2863.00,0.0019
2862.00,0.0020
2861.00,0.0022
2860.00,0.0024
2859.00,0.0027
2858.00,0.0029
2857.00,0.0031
2856.00,0.0033
2855.00,0.0035
2854.00,0.0037
2853.00,0.0038
2852.00,0.0040
2851.00,0.0042
2850.00,0.0043
2849.00,0.0044
2848.00,0.0045
2847.00,0.0046
2846.00,0.0046
2845.00,0.0045
2844.00,0.0044
2843.00,0.0042
2842.00,0.0039
2841.00,0.0037
2840.00,0.0034
2839.00,0.0032
2838.00,0.0029
2837.00,0.0027
2836.00,0.0024
2835.00,0.0022
2834.00,0.0021
2833.00,0.0019
2832.00,0.0017
2831.00,0.0016
2830.00,0.0016
2829.00,0.0015
2828.00,0.0015
2827.00,0.0014
2826.00,0.0014
2825.00,0.0014
2824.00,0.0013
2823.00,0.0013
2822.00,0.0013
2821.00,0.0013
2820.00,0.0013
2819.00,0.0013
2818.00,0.0013
2817.00,0.0013
2816.00,0.0013
2815.00,0.0013
2814.00,0.0013
2813.00,0.0013
2812.00,0.0013
2811.00,0.0013
2810.00,0.0013
2809.00,0.0012
2808.00,0.0012
2807.00,0.0012
2806.00,0.0012
2805.00,0.0012
2804.00,0.0012
2803.00,0.0012
2802.00,0.0012
2801.00,0.0012
2800.00,0.0012
2799.00,0.0012
2798.00,0.0012
2797.00,0.0012
2796.00,0.0012
2795.00,0.0012
2794.00,0.0011
2793.00,0.0011
2792.00,0.0011
2791.00,0.0011
2790.00,0.0011
2789.00,0.0011
2788.00,0.0011
2787.00,0.0011
2786.00,0.0011
2785.00,0.0011
2784.00,0.0011
2783.00,0.0011
2782.00,0.0011
2781.00,0.0011
2780.00,0.0011
2779.00,0.0011
2778.00,0.0011
2777.00,0.0011
2776.00,0.0011
2775.00,0.0011
2774.00,0.0011
2773.00,0.0011
2772.00,0.0011
2771.00,0.0010
2770.00,0.0010
2769.00,0.0010
2768.00,0.0010
2767.00,0.0010
2766.00,0.0010
2765.00,0.0010
2764.00,0.0010
2763.00,0.0010
2762.00,0.0010
2761.00,0.0010
2760.00,0.0010
2759.00,0.0010
2758.00,0.0011
2757.00,0.0011
2756.00,0.0011
2755.00,0.0010
2754.00,0.0010
2753.00,0.0010
2752.00,0.0010
2751.00,0.0010
2750.00,0.0010
2749.00,0.0010
2748.00,0.0010
2747.00,0.0010
2746.00,0.0010
2745.00,0.0011
2744.00,0.0010
2743.00,0.0011
2742.00,0.0011
2741.00,0.0011
2740.00,0.0011
2739.00,0.0011
2738.00,0.0011
2737.00,0.0011
2736.00,0.0011
2735.00,0.0011
2734.00,0.0011
2733.00,0.0011
2732.00,0.0011
2731.00,0.0010
2730.00,0.0011
2729.00,0.0011
2728.00,0.0011
2727.00,0.0011
2726.00,0.0011
2725.00,0.0011
2724.00,0.0011
2723.00,0.0011
2722.00,0.0011
2721.00,0.0011
2720.00,0.0011
2719.00,0.0011
2718.00,0.0011
2717.00,0.0011
2716.00,0.0011
2715.00,0.0011
2714.00,0.0011
2713.00,0.0011
2712.00,0.0011
2711.00,0.0011
2710.00,0.0011
2709.00,0.0011
2708.00,0.0011
2707.00,0.0011
2706.00,0.0011
2705.00,0.0012
2704.00,0.0011
2703.00,0.0011
2702.00,0.0011
2701.00,0.0011
2700.00,0.0011
2699.00,0.0011
2698.00,0.0011
2697.00,0.0011
2696.00,0.0011
2695.00,0.0011
2694.00,0.0011
2693.00,0.0011
2692.00,0.0011
2691.00,0.0011
2690.00,0.0011
2689.00,0.0011
2688.00,0.0011
2687.00,0.0011
2686.00,0.0011
2685.00,0.0011
2684.00,0.0011
2683.00,0.0011
2682.00,0.0010
2681.00,0.0010
2680.00,0.0010
2679.00,0.0010
2678.00,0.0010
2677.00,0.0010
2676.00,0.0010
2675.00,0.0010
2674.00,0.0010
2673.00,0.0010
2672.00,0.0010
2671.00,0.0010
2670.00,0.0010
2669.00,0.0009
2668.00,0.0009
2667.00,0.0009
2666.00,0.0009
2665.00,0.0010
2664.00,0.0010
2663.00,0.0011
2662.00,0.0011
2661.00,0.0011
2660.00,0.0012
2659.00,0.0012
2658.00,0.0012
2657.00,0.0012
2656.00,0.0012
2655.00,0.0012
2654.00,0.0012
2653.00,0.0012
2652.00,0.0012
2651.00,0.0012
2650.00,0.0012
2649.00,0.0012
2648.00,0.0012
2647.00,0.0012
2646.00,0.0012
2645.00,0.0012
2644.00,0.0012
2643.00,0.0012
2642.00,0.0012
2641.00,0.0013
2640.00,0.0013
2639.00,0.0013
2638.00,0.0013
2637.00,0.0013
2636.00,0.0013
2635.00,0.0013
2634.00,0.0013
2633.00,0.0013
2632.00,0.0013
2631.00,0.0013
2630.00,0.0013
2629.00,0.0013
2628.00,0.0013
2627.00,0.0013
2626.00,0.0013
2625.00,0.0012
2624.00,0.0012
2623.00,0.0012
2622.00,0.0012
2621.00,0.0012
2620.00,0.0012
2619.00,0.0012
2618.00,0.0012
2617.00,0.0012
2616.00,0.0012
2615.00,0.0012
2614.00,0.0012
2613.00,0.0012
2612.00,0.0012
2611.00,0.0011
2610.00,0.0011
2609.00,0.0011
2608.00,0.0012
2607.00,0.0012
2606.00,0.0013
2605.00,0.0013
2604.00,0.0013
2603.00,0.0012
2602.00,0.0012
2601.00,0.0012
2600.00,0.0012
2599.00,0.0012
2598.00,0.0012
2597.00,0.0011
2596.00,0.0011
2595.00,0.0011
2594.00,0.0011
2593.00,0.0011
2592.00,0.0011
2591.00,0.0011
2590.00,0.0011
2589.00,0.0011
2588.00,0.0011
2587.00,0.0011
2586.00,0.0011
2585.00,0.0011
2584.00,0.0011
2583.00,0.0012
2582.00,0.0012
2581.00,0.0012
2580.00,0.0012
2579.00,0.0012
2578.00,0.0012
2577.00,0.0013
2576.00,0.0013
2575.00,0.0012
2574.00,0.0012
2573.00,0.0011
2572.00,0.0011
2571.00,0.0010
2570.00,0.0010
2569.00,0.0010
2568.00,0.0010
2567.00,0.0010
2566.00,0.0010
2565.00,0.0010
2564.00,0.0010
2563.00,0.0010
2562.00,0.0011
2561.00,0.0011
2560.00,0.0011
2559.00,0.0011
2558.00,0.0011
2557.00,0.0011
2556.00,0.0010
2555.00,0.0010
2554.00,0.0011
2553.00,0.0010
2552.00,0.0010
2551.00,0.0010
2550.00,0.0010
2549.00,0.0010
2548.00,0.0010
2547.00,0.0010
2546.00,0.0010
2545.00,0.0010
2544.00,0.0010
2543.00,0.0010
2542.00,0.0010
2541.00,0.0010
2540.00,0.0010
2539.00,0.0010
2538.00,0.0010
2537.00,0.0010
2536.00,0.0010
2535.00,0.0010
2534.00,0.0010
2533.00,0.0010
2532.00,0.0010
2531.00,0.0010
2530.00,0.0010
2529.00,0.0010
2528.00,0.0009
2527.00,0.0009
2526.00,0.0009
2525.00,0.0009
2524.00,0.0009
2523.00,0.0009
2522.00,0.0008
2521.00,0.0009
2520.00,0.0009
2519.00,0.0009
2518.00,0.0009
2517.00,0.0009
2516.00,0.0008
2515.00,0.0009
2514.00,0.0009
2513.00,0.0009
2512.00,0.0009
2511.00,0.0010
2510.00,0.0010
2509.00,0.0009
2508.00,0.0009
2507.00,0.0009
2506.00,0.0009
2505.00,0.0009
2504.00,0.0009
2503.00,0.0009
2502.00,0.0009
2501.00,0.0009
2500.00,0.0009
2499.00,0.0009
2498.00,0.0009
2497.00,0.0009
2496.00,0.0010
2495.00,0.0010
2494.00,0.0010
2493.00,0.0010
2492.00,0.0010
2491.00,0.0009
2490.00,0.0009
2489.00,0.0009
2488.00,0.0009
2487.00,0.0009
2486.00,0.0009
2485.00,0.0009
2484.00,0.0009
2483.00,0.0009
2482.00,0.0009
2481.00,0.0009
2480.00,0.0008
2479.00,0.0008
2478.00,0.0008
2477.00,0.0008
2476.00,0.0008
2475.00,0.0008
2474.00,0.0008
2473.00,0.0008
2472.00,0.0008
2471.00,0.0008
2470.00,0.0008
2469.00,0.0009
2468.00,0.0009
2467.00,0.0009
2466.00,0.0009
2465.00,0.0008
2464.00,0.0008
2463.00,0.0008
2462.00,0.0009
2461.00,0.0009
2460.00,0.0009
2459.00,0.0010
2458.00,0.0010
2457.00,0.0010
2456.00,0.0010
2455.00,0.0009
2454.00,0.0009
2453.00,0.0009
2452.00,0.0009
2451.00,0.0009
2450.00,0.0009
2449.00,0.0009
2448.00,0.0009
2447.00,0.0009
2446.00,0.0009
2445.00,0.0008
2444.00,0.0008
2443.00,0.0008
2442.00,0.0008
2441.00,0.0008
2440.00,0.0008
2439.00,0.0008
2438.00,0.0008
2437.00,0.0008
2436.00,0.0008
2435.00,0.0008
2434.00,0.0008
2433.00,0.0008
2432.00,0.0008
2431.00,0.0008
2430.00,0.0007
2429.00,0.0007
2428.00,0.0007
2427.00,0.0008
2426.00,0.0008
2425.00,0.0008
2424.00,0.0007
2423.00,0.0007
2422.00,0.0006
2421.00,0.0006
2420.00,0.0006
2419.00,0.0006
2418.00,0.0007
2417.00,0.0007
2416.00,0.0007
2415.00,0.0007
2414.00,0.0007
2413.00,0.0007
2412.00,0.0007
2411.00,0.0007
2410.00,0.0007
2409.00,0.0007
2408.00,0.0006
2407.00,0.0006
2406.00,0.0007
2405.00,0.0007
2404.00,0.0007
2403.00,0.0007
2402.00,0.0007
2401.00,0.0007
2400.00,0.0006
2399.00,0.0006
2398.00,0.0006
2397.00,0.0006
2396.00,0.0006
2395.00,0.0006
2394.00,0.0006
2393.00,0.0006
2392.00,0.0006
2391.00,0.0007
2390.00,0.0007
2389.00,0.0007
2388.00,0.0007
2387.00,0.0007
2386.00,0.0007
2385.00,0.0007
2384.00,0.0007
2383.00,0.0007
2382.00,0.0007
2381.00,0.0007
2380.00,0.0007
2379.00,0.0007
2378.00,0.0007
2377.00,0.0007
2376.00,0.0007
2375.00,0.0007
2374.00,0.0007
2373.00,0.0008
2372.00,0.0008
2371.00,0.0008
2370.00,0.0007
2369.00,0.0007
2368.00,0.0007
2367.00,0.0007
2366.00,0.0008
2365.00,0.0008
2364.00,0.0009
2363.00,0.0010
2362.00,0.0010
2361.00,0.0010
2360.00,0.0010
2359.00,0.0009
2358.00,0.0009
2357.00,0.0009
2356.00,0.0009
2355.00,0.0009
2354.00,0.0009
2353.00,0.0009
2352.00,0.0009
2351.00,0.0009
2350.00,0.0009
2349.00,0.0010
2348.00,0.0010
2347.00,0.0011
2346.00,0.0011
2345.00,0.0011
2344.00,0.0011
2343.00,0.0011
2342.00,0.0011
2341.00,0.0011
2340.00,0.0011
2339.00,0.0010
2338.00,0.0010
2337.00,0.0010
2336.00,0.0010
2335.00,0.0010
2334.00,0.0010
2333.00,0.0010
2332.00,0.0010
2331.00,0.0010
2330.00,0.0010
2329.00,0.0012
2328.00,0.0014
2327.00,0.0017
2326.00,0.0019
2325.00,0.0020
2324.00,0.0019
2323.00,0.0018
2322.00,0.0016
2321.00,0.0015
2320.00,0.0015
2319.00,0.0015
2318.00,0.0015
2317.00,0.0015
2316.00,0.0015
2315.00,0.0015
2314.00,0.0015
2313.00,0.0015
2312.00,0.0014
2311.00,0.0014
2310.00,0.0014
2309.00,0.0014
2308.00,0.0014
2307.00,0.0014
2306.00,0.0014
2305.00,0.0014
2304.00,0.0014
2303.00,0.0014
2302.00,0.0014
2301.00,0.0014
2300.00,0.0014
2299.00,0.0014
2298.00,0.0014
2297.00,0.0014
2296.00,0.0014
2295.00,0.0014
2294.00,0.0014
2293.00,0.0015
2292.00,0.0015
2291.00,0.0016
2290.00,0.0016
2289.00,0.0016
2288.00,0.0016
2287.00,0.0016
2286.00,0.0016
2285.00,0.0015
2284.00,0.0015
2283.00,0.0014
2282.00,0.0014
2281.00,0.0014
2280.00,0.0014
2279.00,0.0014
2278.00,0.0014
2277.00,0.0014
2276.00,0.0014
2275.00,0.0013
2274.00,0.0013
2273.00,0.0012
2272.00,0.0011
2271.00,0.0011
2270.00,0.0012
2269.00,0.0012
2268.00,0.0012
2267.00,0.0012
2266.00,0.0012
2265.00,0.0012
2264.00,0.0012
2263.00,0.0012
2262.00,0.0013
2261.00,0.0013
2260.00,0.0014
2259.00,0.0013
2258.00,0.0013
2257.00,0.0012
2256.00,0.0011
2255.00,0.0010
2254.00,0.0009
2253.00,0.0009
2252.00,0.0009
2251.00,0.0010
2250.00,0.0010
2249.00,0.0010
2248.00,0.0010
2247.00,0.0011
2246.00,0.0011
2245.00,0.0011
2244.00,0.0011
2243.00,0.0011
2242.00,0.0011
2241.00,0.0011
2240.00,0.0011
2239.00,0.0010
2238.00,0.0011
2237.00,0.0011
2236.00,0.0011
2235.00,0.0010
2234.00,0.0010
2233.00,0.0009
2232.00,0.0009
2231.00,0.0008
2230.00,0.0009
2229.00,0.0008
2228.00,0.0008
2227.00,0.0008
2226.00,0.0008
2225.00,0.0008
2224.00,0.0008
2223.00,0.0009
2222.00,0.0009
2221.00,0.0009
2220.00,0.0009
2219.00,0.0008
2218.00,0.0008
2217.00,0.0008
2216.00,0.0009
2215.00,0.0009
2214.00,0.0009
2213.00,0.0008
2212.00,0.0007
2211.00,0.0007
2210.00,0.0006
2209.00,0.0006
2208.00,0.0006
2207.00,0.0007
2206.00,0.0007
2205.00,0.0008
2204.00,0.0008
2203.00,0.0008
2202.00,0.0008
2201.00,0.0009
2200.00,0.0009
2199.00,0.0010
2198.00,0.0010
2197.00,0.0010
2196.00,0.0010
2195.00,0.0009
2194.00,0.0008
2193.00,0.0008
2192.00,0.0008
2191.00,0.0009
2190.00,0.0010
2189.00,0.0011
2188.00,0.0011
2187.00,0.0011
2186.00,0.0010
2185.00,0.0008
2184.00,0.0006
2183.00,0.0004
2182.00,0.0004
2181.00,0.0004
2180.00,0.0006
2179.00,0.0007
2178.00,0.0007
2177.00,0.0007
2176.00,0.0006
2175.00,0.0006
2174.00,0.0006
2173.00,0.0007
2172.00,0.0008
2171.00,0.0011
2170.00,0.0014
2169.00,0.0016
2168.00,0.0018
2167.00,0.0017
2166.00,0.0017
2165.00,0.0017
2164.00,0.0016
2163.00,0.0015
2162.00,0.0012
2161.00,0.0005
2160.00,-0.0003
2159.00,-0.0011
2158.00,-0.0015
2157.00,-0.0014
2156.00,-0.0011
2155.00,-0.0007
2154.00,-0.0004
2153.00,-0.0002
2152.00,-0.0001
2151.00,0.0000
2150.00,0.0001
2149.00,0.0000
2148.00,-0.0001
2147.00,-0.0002
2146.00,-0.0003
2145.00,-0.0003
2144.00,-0.0003
2143.00,-0.0002
2142.00,-0.0002
2141.00,-0.0002
2140.00,-0.0003
2139.00,-0.0002
2138.00,-0.0002
2137.00,-0.0003
2136.00,-0.0004
2135.00,-0.0005
2134.00,-0.0005
2133.00,-0.0005
2132.00,-0.0005
2131.00,-0.0004
2130.00,-0.0003
2129.00,-0.0002
2128.00,-0.0001
2127.00,0.0000
2126.00,0.0001
2125.00,0.0002
2124.00,0.0002
2123.00,0.0002
2122.00,0.0002
2121.00,0.0003
2120.00,0.0004
2119.00,0.0004
2118.00,0.0004
2117.00,0.0005
2116.00,0.0006
2115.00,0.0007
2114.00,0.0008
2113.00,0.0008
2112.00,0.0008
2111.00,0.0008
2110.00,0.0008
2109.00,0.0007
2108.00,0.0007
2107.00,0.0006
2106.00,0.0006
2105.00,0.0006
2104.00,0.0006
2103.00,0.0006
2102.00,0.0006
2101.00,0.0006
2100.00,0.0006
2099.00,0.0005
2098.00,0.0005
2097.00,0.0004
2096.00,0.0004
2095.00,0.0004
2094.00,0.0004
2093.00,0.0005
2092.00,0.0004
2091.00,0.0004
2090.00,0.0005
2089.00,0.0005
2088.00,0.0006
2087.00,0.0006
2086.00,0.0006
2085.00,0.0007
2084.00,0.0007
2083.00,0.0007
2082.00,0.0007
2081.00,0.0007
2080.00,0.0007
2079.00,0.0007
2078.00,0.0007
2077.00,0.0007
2076.00,0.0007
2075.00,0.0007
2074.00,0.0008
2073.00,0.0009
2072.00,0.0009
2071.00,0.0009
2070.00,0.0008
2069.00,0.0008
2068.00,0.0007
2067.00,0.0006
2066.00,0.0006
2065.00,0.0006
2064.00,0.0006
2063.00,0.0005
2062.00,0.0005
2061.00,0.0005
2060.00,0.0006
2059.00,0.0007
2058.00,0.0008
2057.00,0.0009
2056.00,0.0008
2055.00,0.0008
2054.00,0.0009
2053.00,0.0011
2052.00,0.0014
2051.00,0.0015
2050.00,0.0014
2049.00,0.0012
2048.00,0.0009
2047.00,0.0007
2046.00,0.0006
2045.00,0.0007
2044.00,0.0007
2043.00,0.0007
2042.00,0.0008
2041.00,0.0008
2040.00,0.0009
2039.00,0.0009
2038.00,0.0010
2037.00,0.0010
2036.00,0.0008
2035.00,0.0007
2034.00,0.0006
2033.00,0.0006
2032.00,0.0005
2031.00,0.0003
2030.00,0.0001
2029.00,-0.0000
2028.00,-0.0001
2027.00,-0.0000
2026.00,-0.0000
2025.00,0.0000
2024.00,0.0000
2023.00,-0.0000
2022.00,-0.0001
2021.00,-0.0002
2020.00,-0.0003
2019.00,-0.0002
2018.00,-0.0001
2017.00,-0.0001
2016.00,-0.0001
2015.00,-0.0001
2014.00,-0.0000
2013.00,0.0001
2012.00,0.0002
2011.00,0.0002
2010.00,0.0002
2009.00,0.0001
2008.00,0.0001
2007.00,0.0000
2006.00,-0.0001
2005.00,-0.0001
2004.00,-0.0001
2003.00,-0.0000
2002.00,0.0001
2001.00,0.0002
2000.00,0.0002
1999.00,0.0001
1998.00,0.0001
1997.00,0.0002
1996.00,0.0003
1995.00,0.0004
1994.00,0.0006
1993.00,0.0007
1992.00,0.0009
1991.00,0.0010
1990.00,0.0010
1989.00,0.0011
1988.00,0.0010
1987.00,0.0010
1986.00,0.0010
1985.00,0.0010
1984.00,0.0011
1983.00,0.0013
1982.00,0.0015
1981.00,0.0016
1980.00,0.0014
1979.00,0.0009
1978.00,0.0004
1977.00,0.0001
1976.00,-0.0001
1975.00,-0.0001
1974.00,0.0000
1973.00,0.0001
1972.00,0.0001
1971.00,0.0001
1970.00,0.0002
1969.00,0.0003
1968.00,0.0005
1967.00,0.0006
1966.00,0.0007
1965.00,0.0007
1964.00,0.0007
1963.00,0.0007
1962.00,0.0007
1961.00,0.0006
1960.00,0.0005
1959.00,0.0004
1958.00,0.0005
1957.00,0.0006
1956.00,0.0007
1955.00,0.0008
1954.00,0.0008
1953.00,0.0009
1952.00,0.0009
1951.00,0.0009
1950.00,0.0010
1949.00,0.0010
1948.00,0.0011
1947.00,0.0013
1946.00,0.0014
1945.00,0.0016
1944.00,0.0017
1943.00,0.0018
1942.00,0.0018
1941.00,0.0018
1940.00,0.0017
1939.00,0.0016
1938.00,0.0015
1937.00,0.0015
1936.00,0.0014
1935.00,0.0013
1934.00,0.0011
1933.00,0.0010
1932.00,0.0009
1931.00,0.0008
1930.00,0.0008
1929.00,0.0007
1928.00,0.0006
1927.00,0.0006
1926.00,0.0006
1925.00,0.0005
1924.00,0.0005
1923.00,0.0006
1922.00,0.0007
1921.00,0.0008
1920.00,0.0008
1919.00,0.0008
1918.00,0.0008
1917.00,0.0007
1916.00,0.0006
1915.00,0.0006
1914.00,0.0006
1913.00,0.0006
1912.00,0.0006
1911.00,0.0006
1910.00,0.0006
1909.00,0.0006
1908.00,0.0005
1907.00,0.0005
1906.00,0.0005
1905.00,0.0005
1904.00,0.0005
1903.00,0.0005
1902.00,0.0005
1901.00,0.0006
1900.00,0.0006
1899.00,0.0007
1898.00,0.0007
1897.00,0.0008
1896.00,0.0008
1895.00,0.0008
1894.00,0.0008
1893.00,0.0008
1892.00,0.0009
1891.00,0.0009
1890.00,0.0010
1889.00,0.0010
1888.00,0.0010
1887.00,0.0011
1886.00,0.0012
1885.00,0.0012
1884.00,0.0012
1883.00,0.0013
1882.00,0.0014
1881.00,0.0014
1880.00,0.0013
1879.00,0.0013
1878.00,0.0014
1877.00,0.0014
1876.00,0.0015
1875.00,0.0015
1874.00,0.0016
1873.00,0.0016
1872.00,0.0016
1871.00,0.0017
1870.00,0.0017
1869.00,0.0017
1868.00,0.0016
1867.00,0.0016
1866.00,0.0015
1865.00,0.0015
1864.00,0.0014
1863.00,0.0013
1862.00,0.0013
1861.00,0.0012
1860.00,0.0011
1859.00,0.0011
1858.00,0.0010
1857.00,0.0009
1856.00,0.0008
1855.00,0.0008
1854.00,0.0007
1853.00,0.0007
1852.00,0.0006
1851.00,0.0006
1850.00,0.0006
1849.00,0.0006
1848.00,0.0007
1847.00,0.0007
1846.00,0.0008
1845.00,0.0008
1844.00,0.0008
1843.00,0.0008
1842.00,0.0008
1841.00,0.0008
1840.00,0.0007
1839.00,0.0007
1838.00,0.0007
1837.00,0.0007
1836.00,0.0007
1835.00,0.0007
1834.00,0.0007
1833.00,0.0007
1832.00,0.0007
1831.00,0.0007
1830.00,0.0007
1829.00,0.0008
1828.00,0.0009
1827.00,0.0009
1826.00,0.0010
1825.00,0.0010
1824.00,0.0011
1823.00,0.0011
1822.00,0.0011
1821.00,0.0011
1820.00,0.0011
1819.00,0.0010
1818.00,0.0010
1817.00,0.0010
1816.00,0.0011
1815.00,0.0011
1814.00,0.0012
1813.00,0.0014
1812.00,0.0014
1811.00,0.0015
1810.00,0.0015
1809.00,0.0016
1808.00,0.0017
1807.00,0.0017
1806.00,0.0018
1805.00,0.0018
1804.00,0.0018
1803.00,0.0018
1802.00,0.0019
1801.00,0.0020
1800.00,0.0020
1799.00,0.0020
1798.00,0.0020
1797.00,0.0020
1796.00,0.0019
1795.00,0.0018
1794.00,0.0018
1793.00,0.0017
1792.00,0.0016
1791.00,0.0015
1790.00,0.0015
1789.00,0.0014
1788.00,0.0013
1787.00,0.0012
1786.00,0.0012
1785.00,0.0011
1784.00,0.0011
1783.00,0.0011
1782.00,0.0011
1781.00,0.0011
1780.00,0.0011
1779.00,0.0011
1778.00,0.0011
1777.00,0.0011
1776.00,0.0011
1775.00,0.0011
1774.00,0.0011
1773.00,0.0011
1772.00,0.0011
1771.00,0.0012
1770.00,0.0013
1769.00,0.0013
1768.00,0.0013
1767.00,0.0013
1766.00,0.0012
1765.00,0.0012
1764.00,0.0011
1763.00,0.0011
1762.00,0.0011
1761.00,0.0013
1760.00,0.0014
1759.00,0.0014
1758.00,0.0015
1757.00,0.0016
1756.00,0.0017
1755.00,0.0018
1754.00,0.0019
1753.00,0.0021
1752.00,0.0023
1751.00,0.0025
1750.00,0.0025
1749.00,0.0025
1748.00,0.0025
1747.00,0.0025
1746.00,0.0024
1745.00,0.0024
1744.00,0.0024
1743.00,0.0023
1742.00,0.0023
1741.00,0.0024
1740.00,0.0024
1739.00,0.0024
1738.00,0.0024
1737.00,0.0025
1736.00,0.0027
1735.00,0.0028
1734.00,0.0028
1733.00,0.0027
1732.00,0.0026
1731.00,0.0025
1730.00,0.0024
1729.00,0.0023
1728.00,0.0022
1727.00,0.0022
1726.00,0.0021
1725.00,0.0021
1724.00,0.0022
1723.00,0.0022
1722.00,0.0022
1721.00,0.0022
1720.00,0.0022
1719.00,0.0022
1718.00,0.0022
1717.00,0.0023
1716.00,0.0023
1715.00,0.0023
1714.00,0.0023
1713.00,0.0023
1712.00,0.0021
1711.00,0.0021
1710.00,0.0021
1709.00,0.0021
1708.00,0.0021
1707.00,0.0020
1706.00,0.0020
1705.00,0.0020
1704.00,0.0020
1703.00,0.0021
1702.00,0.0024
1701.00,0.0027
1700.00,0.0027
1699.00,0.0026
1698.00,0.0026
1697.00,0.0026
1696.00,0.0025
1695.00,0.0024
1694.00,0.0024
1693.00,0.0024
1692.00,0.0025
1691.00,0.0025
1690.00,0.0026
1689.00,0.0026
1688.00,0.0027
1687.00,0.0027
1686.00,0.0028
1685.00,0.0028
1684.00,0.0028
1683.00,0.0029
1682.00,0.0029
1681.00,0.0030
1680.00,0.0030
1679.00,0.0031
1678.00,0.0031
1677.00,0.0032
1676.00,0.0033
1675.00,0.0034
1674.00,0.0034
1673.00,0.0035
1672.00,0.0036
1671.00,0.0036
1670.00,0.0037
1669.00,0.0037
1668.00,0.0037
1667.00,0.0037
1666.00,0.0037
1665.00,0.0037
1664.00,0.0038
1663.00,0.0038
1662.00,0.0039
1661.00,0.0039
1660.00,0.0039
1659.00,0.0039
1658.00,0.0039
1657.00,0.0038
1656.00,0.0038
1655.00,0.0038
1654.00,0.0038
1653.00,0.0037
1652.00,0.0038
1651.00,0.0038
1650.00,0.0038
1649.00,0.0038
1648.00,0.0038
1647.00,0.0038
1646.00,0.0038
1645.00,0.0037
1644.00,0.0036
1643.00,0.0036
1642.00,0.0035
1641.00,0.0035
1640.00,0.0034
1639.00,0.0034
1638.00,0.0035
1637.00,0.0035
1636.00,0.0035
1635.00,0.0035
1634.00,0.0034
1633.00,0.0033
1632.00,0.0032
1631.00,0.0032
1630.00,0.0032
1629.00,0.0031
1628.00,0.0031
1627.00,0.0031
1626.00,0.0031
1625.00,0.0031
1624.00,0.0031
1623.00,0.0032
1622.00,0.0031
1621.00,0.0031
1620.00,0.0031
1619.00,0.0031
1618.00,0.0031
1617.00,0.0031
1616.00,0.0032
1615.00,0.0033
1614.00,0.0034
1613.00,0.0035
1612.00,0.0037
1611.00,0.0041
1610.00,0.0044
1609.00,0.0049
1608.00,0.0056
1607.00,0.0064
1606.00,0.0074
1605.00,0.0085
1604.00,0.0097
1603.00,0.0108
1602.00,0.0115
1601.00,0.0118
1600.00,0.0116
1599.00,0.0110
1598.00,0.0100
1597.00,0.0088
1596.00,0.0078
1595.00,0.0069
1594.00,0.0061
1593.00,0.0055
1592.00,0.0051
1591.00,0.0047
1590.00,0.0045
1589.00,0.0043
1588.00,0.0043
1587.00,0.0045
1586.00,0.0048
1585.00,0.0051
1584.00,0.0054
1583.00,0.0056
1582.00,0.0054
1581.00,0.0049
1580.00,0.0044
1579.00,0.0039
1578.00,0.0035
1577.00,0.0031
1576.00,0.0028
1575.00,0.0027
1574.00,0.0025
1573.00,0.0024
1572.00,0.0024
1571.00,0.0024
1570.00,0.0023
1569.00,0.0023
1568.00,0.0023
1567.00,0.0024
1566.00,0.0023
1565.00,0.0022
1564.00,0.0022
1563.00,0.0022
1562.00,0.0021
1561.00,0.0021
1560.00,0.0022
1559.00,0.0025
1558.00,0.0027
1557.00,0.0026
1556.00,0.0026
1555.00,0.0026
1554.00,0.0027
1553.00,0.0027
1552.00,0.0027
1551.00,0.0028
1550.00,0.0028
1549.00,0.0029
1548.00,0.0030
1547.00,0.0031
1546.00,0.0032
1545.00,0.0033
1544.00,0.0033
1543.00,0.0033
1542.00,0.0034
1541.00,0.0034
1540.00,0.0033
1539.00,0.0033
1538.00,0.0032
1537.00,0.0031
1536.00,0.0030
1535.00,0.0030
1534.00,0.0030
1533.00,0.0029
1532.00,0.0028
1531.00,0.0027
1530.00,0.0027
1529.00,0.0027
1528.00,0.0027
1527.00,0.0027
1526.00,0.0027
1525.00,0.0028
1524.00,0.0028
1523.00,0.0028
1522.00,0.0029
1521.00,0.0029
1520.00,0.0029
1519.00,0.0029
1518.00,0.0030
1517.00,0.0031
1516.00,0.0032
1515.00,0.0032
1514.00,0.0033
1513.00,0.0033
1512.00,0.0033
1511.00,0.0033
1510.00,0.0034
1509.00,0.0036
1508.00,0.0037
1507.00,0.0038
1506.00,0.0038
1505.00,0.0039
1504.00,0.0039
1503.00,0.0041
1502.00,0.0044
1501.00,0.0049
1500.00,0.0056
1499.00,0.0068
1498.00,0.0088
1497.00,0.0119
1496.00,0.0160
1495.00,0.0203
1494.00,0.0241
1493.00,0.0268
1492.00,0.0275
1491.00,0.0257
1490.00,0.0218
1489.00,0.0172
1488.00,0.0134
1487.00,0.0107
1486.00,0.0088
1485.00,0.0074
1484.00,0.0063
1483.00,0.0055
1482.00,0.0048
1481.00,0.0043
1480.00,0.0039
1479.00,0.0036
1478.00,0.0034
1477.00,0.0032
1476.00,0.0030
1475.00,0.0028
1474.00,0.0027
1473.00,0.0027
1472.00,0.0028
1471.00,0.0029
1470.00,0.0030
1469.00,0.0032
1468.00,0.0033
1467.00,0.0033
1466.00,0.0033
1465.00,0.0033
1464.00,0.0034
1463.00,0.0035
1462.00,0.0038
1461.00,0.0043
1460.00,0.0049
1459.00,0.0059
1458.00,0.0078
1457.00,0.0111
1456.00,0.0153
1455.00,0.0193
1454.00,0.0229
1453.00,0.0258
1452.00,0.0275
1451.00,0.0276
1450.00,0.0265
1449.00,0.0246
1448.00,0.0224
1447.00,0.0203
1446.00,0.0186
1445.00,0.0173
1444.00,0.0161
1443.00,0.0149
1442.00,0.0138
1441.00,0.0128
1440.00,0.0120
1439.00,0.0114
1438.00,0.0107
1437.00,0.0098
1436.00,0.0089
1435.00,0.0080
1434.00,0.0074
1433.00,0.0069
1432.00,0.0065
1431.00,0.0060
1430.00,0.0056
1429.00,0.0053
1428.00,0.0050
1427.00,0.0048
1426.00,0.0046
1425.00,0.0045
1424.00,0.0044
1423.00,0.0043
1422.00,0.0041
1421.00,0.0040
1420.00,0.0039
1419.00,0.0037
1418.00,0.0035
1417.00,0.0034
1416.00,0.0032
1415.00,0.0030
1414.00,0.0027
1413.00,0.0025
1412.00,0.0023
1411.00,0.0021
1410.00,0.0019
1409.00,0.0018
1408.00,0.0016
1407.00,0.0015
1406.00,0.0013
1405.00,0.0011
1404.00,0.0009
1403.00,0.0006
1402.00,0.0003
1401.00,0.0001
1400.00,-0.0001
1399.00,-0.0004
1398.00,-0.0006
1397.00,-0.0008
1396.00,-0.0010
1395.00,-0.0012
1394.00,-0.0014
1393.00,-0.0014
1392.00,-0.0012
1391.00,-0.0011
1390.00,-0.0010
1389.00,-0.0008
1388.00,-0.0006
1387.00,-0.0004
1386.00,-0.0003
1385.00,-0.0002
1384.00,-0.0001
1383.00,0.0000
1382.00,0.0002
1381.00,0.0004
1380.00,0.0007
1379.00,0.0012
1378.00,0.0016
1377.00,0.0020
1376.00,0.0024
1375.00,0.0028
1374.00,0.0031
1373.00,0.0033
1372.00,0.0036
1371.00,0.0039
1370.00,0.0041
1369.00,0.0043
1368.00,0.0044
1367.00,0.0046
1366.00,0.0047
1365.00,0.0048
1364.00,0.0048
1363.00,0.0049
1362.00,0.0050
1361.00,0.0050
1360.00,0.0050
1359.00,0.0049
1358.00,0.0049
1357.00,0.0048
1356.00,0.0048
1355.00,0.0049
1354.00,0.0049
1353.00,0.0049
1352.00,0.0050
1351.00,0.0050
1350.00,0.0051
1349.00,0.0051
1348.00,0.0051
1347.00,0.0051
1346.00,0.0051
1345.00,0.0051
1344.00,0.0051
1343.00,0.0050
1342.00,0.0051
1341.00,0.0051
1340.00,0.0051
1339.00,0.0052
1338.00,0.0052
1337.00,0.0053
1336.00,0.0054
1335.00,0.0055
1334.00,0.0056
1333.00,0.0058
1332.00,0.0059
1331.00,0.0061
1330.00,0.0062
1329.00,0.0063
1328.00,0.0064
1327.00,0.0064
1326.00,0.0064
1325.00,0.0064
1324.00,0.0064
1323.00,0.0064
1322.00,0.0065
1321.00,0.0065
1320.00,0.0066
1319.00,0.0067
1318.00,0.0068
1317.00,0.0069
1316.00,0.0070
1315.00,0.0070
1314.00,0.0071
1313.00,0.0071
1312.00,0.0071
1311.00,0.0071
1310.00,0.0070
1309.00,0.0069
1308.00,0.0068
1307.00,0.0066
1306.00,0.0065
1305.00,0.0064
1304.00,0.0063
1303.00,0.0062
1302.00,0.0061
1301.00,0.0060
1300.00,0.0059
1299.00,0.0058
1298.00,0.0057
1297.00,0.0057
1296.00,0.0057
1295.00,0.0058
1294.00,0.0058
1293.00,0.0057
1292.00,0.0057
1291.00,0.0057
1290.00,0.0056
1289.00,0.0055
1288.00,0.0054
1287.00,0.0054
1286.00,0.0053
1285.00,0.0052
1284.00,0.0052
1283.00,0.0051
1282.00,0.0051
1281.00,0.0050
1280.00,0.0049
1279.00,0.0048
1278.00,0.0047
1277.00,0.0045
1276.00,0.0044
1275.00,0.0041
1274.00,0.0039
1273.00,0.0037
1272.00,0.0035
1271.00,0.0032
1270.00,0.0030
1269.00,0.0028
1268.00,0.0027
1267.00,0.0025
1266.00,0.0023
1265.00,0.0022
1264.00,0.0020
1263.00,0.0020
1262.00,0.0019
1261.00,0.0019
1260.00,0.0018
1259.00,0.0017
1258.00,0.0016
1257.00,0.0015
1256.00,0.0014
1255.00,0.0013
1254.00,0.0012
1253.00,0.0011
1252.00,0.0011
1251.00,0.0011
1250.00,0.0012
1249.00,0.0014
1248.00,0.0015
1247.00,0.0017
1246.00,0.0018
1245.00,0.0019
1244.00,0.0020
1243.00,0.0020
1242.00,0.0019
1241.00,0.0019
1240.00,0.0019
1239.00,0.0019
1238.00,0.0019
1237.00,0.0020
1236.00,0.0021
1235.00,0.0022
1234.00,0.0023
1233.00,0.0024
1232.00,0.0025
1231.00,0.0027
1230.00,0.0028
1229.00,0.0029
1228.00,0.0030
1227.00,0.0032
1226.00,0.0033
1225.00,0.0034
1224.00,0.0034
1223.00,0.0035
1222.00,0.0036
1221.00,0.0036
1220.00,0.0037
1219.00,0.0038
1218.00,0.0038
1217.00,0.0039
1216.00,0.0040
1215.00,0.0040
1214.00,0.0041
1213.00,0.0042
1212.00,0.0043
1211.00,0.0044
1210.00,0.0045
1209.00,0.0046
1208.00,0.0047
1207.00,0.0048
1206.00,0.0050
1205.00,0.0051
1204.00,0.0052
1203.00,0.0053
1202.00,0.0054
1201.00,0.0055
1200.00,0.0055
1199.00,0.0055
1198.00,0.0055
1197.00,0.0055
1196.00,0.0054
1195.00,0.0054
1194.00,0.0053
1193.00,0.0052
1192.00,0.0051
1191.00,0.0050
1190.00,0.0049
1189.00,0.0049
1188.00,0.0048
1187.00,0.0049
1186.00,0.0050
1185.00,0.0051
1184.00,0.0052
1183.00,0.0054
1182.00,0.0054
1181.00,0.0054
1180.00,0.0051
1179.00,0.0048
1178.00,0.0043
1177.00,0.0037
1176.00,0.0033
1175.00,0.0029
1174.00,0.0026
1173.00,0.0023
1172.00,0.0022
1171.00,0.0020
1170.00,0.0019
1169.00,0.0018
1168.00,0.0018
1167.00,0.0017
1166.00,0.0017
1165.00,0.0017
1164.00,0.0017
1163.00,0.0018
1162.00,0.0020
1161.00,0.0021
1160.00,0.0023
1159.00,0.0026
1158.00,0.0029
1157.00,0.0032
1156.00,0.0035
1155.00,0.0037
1154.00,0.0036
1153.00,0.0034
1152.00,0.0029
1151.00,0.0024
1150.00,0.0019
1149.00,0.0016
1148.00,0.0013
1147.00,0.0011
1146.00,0.0010
1145.00,0.0010
1144.00,0.0009
1143.00,0.0009
1142.00,0.0009
1141.00,0.0009
1140.00,0.0009
1139.00,0.0009
1138.00,0.0009
1137.00,0.0010
1136.00,0.0011
1135.00,0.0013
1134.00,0.0014
1133.00,0.0015
1132.00,0.0016
1131.00,0.0017
1130.00,0.0019
1129.00,0.0021
1128.00,0.0023
1127.00,0.0025
1126.00,0.0027
1125.00,0.0029
1124.00,0.0031
1123.00,0.0033
1122.00,0.0034
1121.00,0.0036
1120.00,0.0039
1119.00,0.0042
1118.00,0.0045
1117.00,0.0048
1116.00,0.0051
1115.00,0.0055
1114.00,0.0057
1113.00,0.0060
1112.00,0.0062
1111.00,0.0063
1110.00,0.0064
1109.00,0.0064
1108.00,0.0064
1107.00,0.0064
1106.00,0.0064
1105.00,0.0064
1104.00,0.0064
1103.00,0.0064
1102.00,0.0064
1101.00,0.0063
1100.00,0.0063
1099.00,0.0062
1098.00,0.0061
1097.00,0.0061
1096.00,0.0060
1095.00,0.0059
1094.00,0.0058
1093.00,0.0057
1092.00,0.0057
1091.00,0.0056
1090.00,0.0056
1089.00,0.0056
1088.00,0.0056
1087.00,0.0056
1086.00,0.0058
1085.00,0.0059
1084.00,0.0061
1083.00,0.0063
1082.00,0.0065
1081.00,0.0067
1080.00,0.0070
1079.00,0.0072
1078.00,0.0075
1077.00,0.0078
1076.00,0.0081
1075.00,0.0084
1074.00,0.0088
1073.00,0.0092
1072.00,0.0096
1071.00,0.0100
1070.00,0.0103
1069.00,0.0106
1068.00,0.0108
1067.00,0.0110
1066.00,0.0110
1065.00,0.0111
1064.00,0.0110
1063.00,0.0109
1062.00,0.0108
1061.00,0.0107
1060.00,0.0106
1059.00,0.0106
1058.00,0.0106
1057.00,0.0106
1056.00,0.0106
1055.00,0.0107
1054.00,0.0107
1053.00,0.0107
1052.00,0.0107
1051.00,0.0107
1050.00,0.0107
1049.00,0.0107
1048.00,0.0107
1047.00,0.0107
1046.00,0.0108
1045.00,0.0108
1044.00,0.0108
1043.00,0.0109
1042.00,0.0109
1041.00,0.0111
1040.00,0.0113
1039.00,0.0116
1038.00,0.0121
1037.00,0.0128
1036.00,0.0137
1035.00,0.0148
1034.00,0.0161
1033.00,0.0176
1032.00,0.0192
1031.00,0.0206
1030.00,0.0218
1029.00,0.0226
1028.00,0.0229
1027.00,0.0227
1026.00,0.0220
1025.00,0.0210
1024.00,0.0199
1023.00,0.0189
1022.00,0.0179
1021.00,0.0172
1020.00,0.0165
1019.00,0.0159
1018.00,0.0153
1017.00,0.0149
1016.00,0.0144
1015.00,0.0141
1014.00,0.0138
1013.00,0.0135
1012.00,0.0133
1011.00,0.0132
1010.00,0.0130
1009.00,0.0130
1008.00,0.0130
1007.00,0.0130
1006.00,0.0132
1005.00,0.0133
1004.00,0.0134
1003.00,0.0134
1002.00,0.0132
1001.00,0.0129
1000.00,0.0125
999.00,0.0121
998.00,0.0117
997.00,0.0115
996.00,0.0113
995.00,0.0112
994.00,0.0111
993.00,0.0110
992.00,0.0110
991.00,0.0110
990.00,0.0110
989.00,0.0110
988.00,0.0111
987.00,0.0112
986.00,0.0113
985.00,0.0114
984.00,0.0115
983.00,0.0115
982.00,0.0115
981.00,0.0113
980.00,0.0111
979.00,0.0107
978.00,0.0103
977.00,0.0098
976.00,0.0092
975.00,0.0087
974.00,0.0081
973.00,0.0076
972.00,0.0073
971.00,0.0070
970.00,0.0068
969.00,0.0066
968.00,0.0066
967.00,0.0065
966.00,0.0066
965.00,0.0066
964.00,0.0066
963.00,0.0065
962.00,0.0063
961.00,0.0059
960.00,0.0054
959.00,0.0048
958.00,0.0042
957.00,0.0038
956.00,0.0035
955.00,0.0033
954.00,0.0031
953.00,0.0030
952.00,0.0030
951.00,0.0031
950.00,0.0033
949.00,0.0035
948.00,0.0036
947.00,0.0038
946.00,0.0039
945.00,0.0040
944.00,0.0041
943.00,0.0042
942.00,0.0042
941.00,0.0043
940.00,0.0043
939.00,0.0043
938.00,0.0043
937.00,0.0043
936.00,0.0044
935.00,0.0045
934.00,0.0046
933.00,0.0046
932.00,0.0047
931.00,0.0047
930.00,0.0048
929.00,0.0050
928.00,0.0051
927.00,0.0053
926.00,0.0054
925.00,0.0055
924.00,0.0057
923.00,0.0059
922.00,0.0061
921.00,0.0063
920.00,0.0065
919.00,0.0068
918.00,0.0071
917.00,0.0075
916.00,0.0079
915.00,0.0084
914.00,0.0090
913.00,0.0097
912.00,0.0105
911.00,0.0112
910.00,0.0120
909.00,0.0126
908.00,0.0131
907.00,0.0134
906.00,0.0134
905.00,0.0133
904.00,0.0129
903.00,0.0123
902.00,0.0115
901.00,0.0108
900.00,0.0100
899.00,0.0093
898.00,0.0087
897.00,0.0081
896.00,0.0077
895.00,0.0073
894.00,0.0071
893.00,0.0069
892.00,0.0067
891.00,0.0066
890.00,0.0064
889.00,0.0062
888.00,0.0061
887.00,0.0059
886.00,0.0058
885.00,0.0057
884.00,0.0056
883.00,0.0055
882.00,0.0055
881.00,0.0054
880.00,0.0054
879.00,0.0053
878.00,0.0054
877.00,0.0054
876.00,0.0054
875.00,0.0053
874.00,0.0053
873.00,0.0052
872.00,0.0051
871.00,0.0050
870.00,0.0050
869.00,0.0050
868.00,0.0050
867.00,0.0050
866.00,0.0049
865.00,0.0049
864.00,0.0048
863.00,0.0048
862.00,0.0048
861.00,0.0048
860.00,0.0048
859.00,0.0048
858.00,0.0049
857.00,0.0049
856.00,0.0050
855.00,0.0050
854.00,0.0050
853.00,0.0051
852.00,0.0053
851.00,0.0055
850.00,0.0057
849.00,0.0060
848.00,0.0063
847.00,0.0066
846.00,0.0069
845.00,0.0071
844.00,0.0073
843.00,0.0074
842.00,0.0075
841.00,0.0074
840.00,0.0073
839.00,0.0071
838.00,0.0068
837.00,0.0064
836.00,0.0060
835.00,0.0056
834.00,0.0052
833.00,0.0049
832.00,0.0045
831.00,0.0043
830.00,0.0041
829.00,0.0040
828.00,0.0040
827.00,0.0039
826.00,0.0039
825.00,0.0040
824.00,0.0040
823.00,0.0040
822.00,0.0040
821.00,0.0039
820.00,0.0039
819.00,0.0039
818.00,0.0038
817.00,0.0038
816.00,0.0038
815.00,0.0038
814.00,0.0039
813.00,0.0039
812.00,0.0040
811.00,0.0040
810.00,0.0041
809.00,0.0042
808.00,0.0043
807.00,0.0043
806.00,0.0043
805.00,0.0044
804.00,0.0044
803.00,0.0045
802.00,0.0047
801.00,0.0048
800.00,0.0049
799.00,0.0051
798.00,0.0052
797.00,0.0054
796.00,0.0056
795.00,0.0057
794.00,0.0059
793.00,0.0062
792.00,0.0065
791.00,0.0069
790.00,0.0073
789.00,0.0077
788.00,0.0080
787.00,0.0084
786.00,0.0088
785.00,0.0092
784.00,0.0097
783.00,0.0101
782.00,0.0106
781.00,0.0112
780.00,0.0119
779.00,0.0128
778.00,0.0137
777.00,0.0148
776.00,0.0159
775.00,0.0171
774.00,0.0184
773.00,0.0199
772.00,0.0214
771.00,0.0231
770.00,0.0248
769.00,0.0266
768.00,0.0283
767.00,0.0300
766.00,0.0316
765.00,0.0333
764.00,0.0351
763.00,0.0369
762.00,0.0387
761.00,0.0405
760.00,0.0423
759.00,0.0439
758.00,0.0453
757.00,0.0464
756.00,0.0471
755.00,0.0475
754.00,0.0476
753.00,0.0475
752.00,0.0473
751.00,0.0472
750.00,0.0471
749.00,0.0470
748.00,0.0467
747.00,0.0461
746.00,0.0450
745.00,0.0432
744.00,0.0408
743.00,0.0380
742.00,0.0350
741.00,0.0320
740.00,0.0293
739.00,0.0267
738.00,0.0244
737.00,0.0222
736.00,0.0201
735.00,0.0181
734.00,0.0162
733.00,0.0145
732.00,0.0129
731.00,0.0117
730.00,0.0108
729.00,0.0101
728.00,0.0095
727.00,0.0091
726.00,0.0088
725.00,0.0087
724.00,0.0086
723.00,0.0086
722.00,0.0086
721.00,0.0087
720.00,0.0088
719.00,0.0090
718.00,0.0092
717.00,0.0095
716.00,0.0099
715.00,0.0104
714.00,0.0112
713.00,0.0122
712.00,0.0137
711.00,0.0156
710.00,0.0183
709.00,0.0218
708.00,0.0263
707.00,0.0318
706.00,0.0384
705.00,0.0460
704.00,0.0547
703.00,0.0642
702.00,0.0745
701.00,0.0851
700.00,0.0959
699.00,0.1066
698.00,0.1168
697.00,0.1259
696.00,0.1328
695.00,0.1360
694.00,0.1343
693.00,0.1275
692.00,0.1165
691.00,0.1035
690.00,0.0905
689.00,0.0788
688.00,0.0689
687.00,0.0608
686.00,0.0544
685.00,0.0493
684.00,0.0452
683.00,0.0417
682.00,0.0388
681.00,0.0362
680.00,0.0340
679.00,0.0321
678.00,0.0304
677.00,0.0289
676.00,0.0277
675.00,0.0267
674.00,0.0258
673.00,0.0252
672.00,0.0246
671.00,0.0240
670.00,0.0235
669.00,0.0228
668.00,0.0218
667.00,0.0210
666.00,0.0205
665.00,0.0201
664.00,0.0197
663.00,0.0192
662.00,0.0185
661.00,0.0179
660.00,0.0172
659.00,0.0167
658.00,0.0162
657.00,0.0157
656.00,0.0151
655.00,0.0146
654.00,0.0142
653.00,0.0139
652.00,0.0136
651.00,0.0133
650.00,0.0131
649.00,0.0128
648.00,0.0125
647.00,0.0122
646.00,0.0120
645.00,0.0118
644.00,0.0117
643.00,0.0117
642.00,0.0117
641.00,0.0117
640.00,0.0117
639.00,0.0118
638.00,0.0119
637.00,0.0120
636.00,0.0122
635.00,0.0124
634.00,0.0127
633.00,0.0130
632.00,0.0132
631.00,0.0133
630.00,0.0135
629.00,0.0136
628.00,0.0137
627.00,0.0139
626.00,0.0141
625.00,0.0143
624.00,0.0145
623.00,0.0147
622.00,0.0149
621.00,0.0152
620.00,0.0153
619.00,0.0152
618.00,0.0149
617.00,0.0146
616.00,0.0144
615.00,0.0142
614.00,0.0140
613.00,0.0138
612.00,0.0136
611.00,0.0134
610.00,0.0133
609.00,0.0132
608.00,0.0131
607.00,0.0131
606.00,0.0131
605.00,0.0131
604.00,0.0132
603.00,0.0133
602.00,0.0133
601.00,0.0134
600.00,0.0135
599.00,0.0136
598.00,0.0137
597.00,0.0138
596.00,0.0139
595.00,0.0140
594.00,0.0142
593.00,0.0144
592.00,0.0145
591.00,0.0146
590.00,0.0147
589.00,0.0148
588.00,0.0150
587.00,0.0152
586.00,0.0154
585.00,0.0156
584.00,0.0157
583.00,0.0160
582.00,0.0163
581.00,0.0167
580.00,0.0172
579.00,0.0177
578.00,0.0182
577.00,0.0188
576.00,0.0194
575.00,0.0200
574.00,0.0206
573.00,0.0213
572.00,0.0220
571.00,0.0228
570.00,0.0234
569.00,0.0241
568.00,0.0248
567.00,0.0255
566.00,0.0261
565.00,0.0268
564.00,0.0275
563.00,0.0282
562.00,0.0289
561.00,0.0296
560.00,0.0304
559.00,0.0311
558.00,0.0317
557.00,0.0324
556.00,0.0330
555.00,0.0337
554.00,0.0344
553.00,0.0352
552.00,0.0361
551.00,0.0370
550.00,0.0379
549.00,0.0389
548.00,0.0401
547.00,0.0415
546.00,0.0429
545.00,0.0445
544.00,0.0460
543.00,0.0476
542.00,0.0491
541.00,0.0507
540.00,0.0521
539.00,0.0531
538.00,0.0535
537.00,0.0532
536.00,0.0523
535.00,0.0509
534.00,0.0491
533.00,0.0470
532.00,0.0448
531.00,0.0425
530.00,0.0400
529.00,0.0377
528.00,0.0357
527.00,0.0338
526.00,0.0321
525.00,0.0304
524.00,0.0289
523.00,0.0275
522.00,0.0263
521.00,0.0253
520.00,0.0245
519.00,0.0238
518.00,0.0232
517.00,0.0226
516.00,0.0220
515.00,0.0214
514.00,0.0208
513.00,0.0203
512.00,0.0197
511.00,0.0193
510.00,0.0189
509.00,0.0185
508.00,0.0181
507.00,0.0176
506.00,0.0172
505.00,0.0170
504.00,0.0168
503.00,0.0166
502.00,0.0163
501.00,0.0159
500.00,0.0154
499.00,0.0151
498.00,0.0148
497.00,0.0146
496.00,0.0143
495.00,0.0140
494.00,0.0138
493.00,0.0137
492.00,0.0136
491.00,0.0136
490.00,0.0136
489.00,0.0135
488.00,0.0134
487.00,0.0132
486.00,0.0130
485.00,0.0130
484.00,0.0129
483.00,0.0129
482.00,0.0129
481.00,0.0128
480.00,0.0126
479.00,0.0123
478.00,0.0119
477.00,0.0117
476.00,0.0117
475.00,0.0119
474.00,0.0123
473.00,0.0125
472.00,0.0126
471.00,0.0124
470.00,0.0122
469.00,0.0120
468.00,0.0120
467.00,0.0119
466.00,0.0119
465.00,0.0116
464.00,0.0113
463.00,0.0111
462.00,0.0111
461.00,0.0112
460.00,0.0113
459.00,0.0113
458.00,0.0114
457.00,0.0115
456.00,0.0116
455.00,0.0114
454.00,0.0112
453.00,0.0110
452.00,0.0109
451.00,0.0107
450.00,0.0107
449.00,0.0109
448.00,0.0112
447.00,0.0115
446.00,0.0115
445.00,0.0114
444.00,0.0111
443.00,0.0111
442.00,0.0112
441.00,0.0115
440.00,0.0115
439.00,0.0114
438.00,0.0112
437.00,0.0110
436.00,0.0109
435.00,0.0108
434.00,0.0105
433.00,0.0101
432.00,0.0097
431.00,0.0095
430.00,0.0095
429.00,0.0096
428.00,0.0095
427.00,0.0092
426.00,0.0090
425.00,0.0090
424.00,0.0091
423.00,0.0094
422.00,0.0097
421.00,0.0101
420.00,0.0108
419.00,0.0113
418.00,0.0110
417.00,0.0101
416.00,0.0092
415.00,0.0086
414.00,0.0082
413.00,0.0078
412.00,0.0074
411.00,0.0074
410.00,0.0079
409.00,0.0084
408.00,0.0086
407.00,0.0084
406.00,0.0083
405.00,0.0085
404.00,0.0091
403.00,0.0098
402.00,0.0101
401.00,0.0098
400.00,0.0091
