725.263,657.000,649.000,657.000,650.000,649.000
727.055,641.000,651.000,648.000,647.000,651.000
728.848,648.000,650.000,651.000,655.000,658.000
730.639,651.000,653.000,654.000,654.000,649.000
732.432,648.000,651.000,651.000,661.000,650.000
734.222,653.000,652.000,653.000,650.000,656.000
736.014,645.000,651.000,653.000,652.000,657.000
737.804,651.000,649.000,651.000,647.000,656.000
739.595,652.000,653.000,655.000,657.000,644.000
741.384,657.000,653.000,643.000,647.000,648.000
743.175,656.000,651.000,658.000,642.000,663.000
744.963,648.000,657.000,645.000,654.000,648.000
746.753,653.000,649.000,656.000,654.000,652.000
748.541,658.000,649.000,657.000,654.000,643.000
750.330,655.000,651.000,659.000,658.000,657.000
752.117,656.000,653.000,650.000,658.000,651.000
753.905,661.000,653.000,652.000,657.000,654.000
755.692,652.000,659.000,654.000,656.000,652.000
757.477,657.000,652.000,651.000,651.000,651.000
759.265,647.000,654.000,646.000,654.000,647.000
761.050,644.000,653.000,653.000,644.000,650.000
762.837,657.000,648.000,650.000,654.000,657.000
764.621,647.000,647.000,651.000,654.000,660.000
766.407,655.000,654.000,649.000,650.000,653.000
768.191,662.000,652.000,653.000,658.000,647.000
769.976,659.000,654.000,651.000,657.000,659.000
771.759,654.000,657.000,650.000,653.000,654.000
773.544,650.000,649.000,653.000,648.000,656.000
775.326,659.000,657.000,651.000,655.000,650.000
777.110,648.000,653.000,657.000,650.000,652.000
778.891,653.000,655.000,646.000,650.000,651.000
780.674,658.000,655.000,659.000,648.000,651.000
782.455,650.000,659.000,651.000,654.000,643.000
784.238,655.000,651.000,662.000,651.000,660.000
786.018,652.000,649.000,655.000,645.000,658.000
787.798,651.000,656.000,652.000,654.000,652.000
789.579,650.000,657.000,658.000,654.000,657.000
791.358,651.000,653.000,651.000,647.000,658.000
793.139,650.000,653.000,643.000,656.000,657.000
794.917,667.000,658.000,652.000,658.000,655.000
796.697,651.000,657.000,665.000,654.000,651.000
798.475,656.000,658.000,657.000,661.000,655.000
800.254,660.000,658.000,667.000,666.000,656.000
802.031,653.000,661.000,657.000,659.000,661.000
803.810,669.000,665.000,668.000,663.000,667.000
805.586,665.000,663.000,667.000,658.000,668.000
807.364,663.000,672.000,668.000,663.000,668.000
809.140,664.000,658.000,658.000,666.000,663.000
810.917,663.000,663.000,656.000,664.000,670.000
812.692,659.000,661.000,662.000,660.000,658.000
814.468,661.000,656.000,659.000,663.000,655.000
816.243,656.000,656.000,658.000,652.000,655.000
818.016,656.000,657.000,658.000,662.000,656.000
819.792,656.000,660.000,648.000,660.000,656.000
821.565,660.000,653.000,658.000,659.000,650.000
823.340,654.000,658.000,659.000,663.000,657.000
825.112,659.000,662.000,650.000,655.000,653.000
826.886,656.000,656.000,659.000,651.000,658.000
828.658,659.000,660.000,657.000,656.000,655.000
830.431,654.000,645.000,651.000,664.000,660.000
832.202,656.000,656.000,653.000,661.000,660.000
833.975,662.000,658.000,663.000,665.000,654.000
835.745,655.000,662.000,665.000,658.000,654.000
837.517,665.000,660.000,666.000,665.000,665.000
839.287,660.000,664.000,669.000,664.000,661.000
841.058,658.000,660.000,661.000,663.000,664.000
842.827,668.000,661.000,671.000,663.000,660.000
844.598,666.000,666.000,672.000,668.000,671.000
846.366,676.000,661.000,672.000,673.000,670.000
848.136,680.000,667.000,673.000,670.000,670.000
849.903,670.000,669.000,672.000,675.000,679.000
851.671,685.000,680.000,679.000,678.000,676.000
853.439,683.000,684.000,675.000,680.000,684.000
855.206,680.000,684.000,677.000,679.000,686.000
856.974,668.000,673.000,681.000,680.000,680.000
858.740,675.000,677.000,672.000,674.000,671.000
860.507,664.000,670.000,671.000,667.000,668.000
862.272,658.000,665.000,667.000,663.000,669.000
864.039,659.000,660.000,663.000,656.000,668.000
865.803,662.000,663.000,665.000,659.000,660.000
867.569,664.000,654.000,660.000,656.000,674.000
869.333,659.000,659.000,662.000,659.000,662.000
871.099,661.000,654.000,660.000,655.000,659.000
872.862,660.000,659.000,656.000,657.000,656.000
874.626,651.000,654.000,660.000,654.000,657.000
876.389,663.000,656.000,659.000,657.000,659.000
878.152,654.000,654.000,662.000,659.000,662.000
879.914,658.000,652.000,658.000,650.000,659.000
881.675,652.000,651.000,652.000,663.000,657.000
883.438,653.000,658.000,654.000,658.000,653.000
885.199,651.000,659.000,654.000,654.000,657.000
886.961,651.000,651.000,652.000,655.000,656.000
888.721,653.000,651.000,657.000,654.000,654.000
890.483,664.000,654.000,663.000,650.000,649.000
892.242,652.000,654.000,653.000,650.000,646.000
894.003,659.000,658.000,649.000,661.000,652.000
895.761,655.000,655.000,655.000,655.000,663.000
897.521,662.000,652.000,659.000,659.000,659.000
899.279,655.000,653.000,653.000,651.000,660.000
901.038,658.000,661.000,658.000,659.000,652.000
902.796,654.000,655.000,653.000,656.000,657.000
904.554,656.000,659.000,665.000,667.000,653.000
906.311,649.000,657.000,648.000,660.000,654.000
908.069,651.000,665.000,659.000,655.000,654.000
909.825,652.000,651.000,659.000,654.000,660.000
911.580,656.000,655.000,655.000,669.000,662.000
913.337,656.000,658.000,651.000,657.000,647.000
915.092,654.000,657.000,651.000,651.000,653.000
916.848,660.000,651.000,654.000,655.000,663.000
918.602,657.000,665.000,648.000,655.000,650.000
920.358,657.000,656.000,658.000,656.000,657.000
922.111,653.000,658.000,655.000,662.000,660.000
923.866,653.000,657.000,667.000,655.000,660.000
925.619,651.000,656.000,653.000,659.000,667.000
927.373,656.000,653.000,657.000,654.000,654.000
929.125,658.000,659.000,664.000,658.000,661.000
930.879,643.000,658.000,658.000,654.000,657.000
932.630,661.000,659.000,656.000,651.000,660.000
934.383,663.000,654.000,653.000,660.000,653.000
936.133,656.000,659.000,650.000,664.000,654.000
937.886,660.000,657.000,657.000,655.000,657.000
939.636,656.000,655.000,654.000,654.000,655.000
941.385,663.000,664.000,663.000,662.000,663.000
943.136,654.000,665.000,657.000,661.000,654.000
944.885,662.000,661.000,659.000,662.000,654.000
946.636,660.000,657.000,660.000,661.000,668.000
948.384,664.000,663.000,659.000,660.000,667.000
950.134,657.000,666.000,660.000,652.000,662.000
951.881,660.000,659.000,656.000,662.000,670.000
953.630,661.000,659.000,665.000,666.000,657.000
955.377,655.000,671.000,668.000,662.000,667.000
957.126,664.000,669.000,671.000,657.000,664.000
958.872,666.000,672.000,656.000,659.000,670.000
960.619,671.000,675.000,665.000,672.000,659.000
962.365,663.000,667.000,665.000,663.000,670.000
964.112,672.000,668.000,667.000,674.000,672.000
965.857,686.000,673.000,679.000,677.000,672.000
967.603,685.000,683.000,682.000,679.000,679.000
969.347,684.000,682.000,686.000,693.000,672.000
971.091,698.000,686.000,695.000,699.000,695.000
972.836,698.000,703.000,707.000,699.000,701.000
974.579,721.000,722.000,717.000,713.000,715.000
976.324,734.000,743.000,740.000,741.000,750.000
978.066,777.000,787.000,784.000,778.000,773.000
979.810,846.000,855.000,858.000,837.000,822.000
981.552,955.000,944.000,969.000,958.000,966.000
983.295,1017.000,1012.000,995.000,1004.000,1019.000
985.036,1174.000,1166.000,1162.000,1155.000,1155.000
986.779,1289.000,1297.000,1312.000,1284.000,1297.000
988.519,1235.000,1221.000,1213.000,1197.000,1242.000
990.261,1595.000,1583.000,1529.000,1595.000,1573.000
992.001,2822.000,2843.000,2847.000,2923.000,2915.000
993.742,6095.000,6079.000,6048.000,6016.000,6172.000
995.481,7092.000,7071.000,7110.000,7141.000,7052.000
997.222,3883.000,3796.000,3810.000,3953.000,3783.000
998.960,2027.000,1962.000,1965.000,2029.000,2060.000
1000.700,1487.000,1544.000,1527.000,1529.000,1545.000
1002.438,1204.000,1203.000,1234.000,1192.000,1197.000
1004.175,943.000,942.000,933.000,947.000,941.000
1005.914,817.000,832.000,813.000,830.000,823.000
1007.650,802.000,776.000,789.000,799.000,797.000
1009.389,788.000,794.000,777.000,777.000,767.000
1011.125,739.000,724.000,740.000,749.000,742.000
1012.862,702.000,703.000,698.000,716.000,705.000
1014.597,698.000,687.000,700.000,698.000,690.000
1016.334,692.000,680.000,690.000,687.000,684.000
1018.069,687.000,677.000,690.000,688.000,695.000
1019.805,685.000,682.000,679.000,678.000,677.000
1021.539,675.000,685.000,680.000,677.000,678.000
1023.274,679.000,674.000,671.000,666.000,676.000
1025.008,670.000,669.000,681.000,677.000,673.000
1026.742,674.000,676.000,672.000,675.000,675.000
1028.475,674.000,670.000,674.000,670.000,672.000
1030.209,674.000,676.000,676.000,671.000,675.000
1031.941,662.000,671.000,671.000,671.000,678.000
1033.672,670.000,670.000,673.000,670.000,660.000
1035.406,661.000,671.000,672.000,663.000,673.000
1037.136,672.000,669.000,676.000,659.000,670.000
1038.869,667.000,661.000,662.000,671.000,670.000
1040.599,663.000,668.000,661.000,665.000,668.000
1042.331,664.000,672.000,667.000,658.000,658.000
1044.060,664.000,659.000,663.000,667.000,662.000
1045.791,663.000,658.000,667.000,664.000,661.000
1047.520,662.000,661.000,658.000,666.000,663.000
1049.251,661.000,662.000,667.000,667.000,659.000
1050.979,668.000,663.000,659.000,664.000,670.000
1052.709,661.000,656.000,662.000,667.000,666.000
1054.436,665.000,662.000,656.000,662.000,657.000
1056.165,666.000,660.000,653.000,650.000,665.000
1057.892,658.000,665.000,666.000,660.000,663.000
1059.620,657.000,667.000,657.000,659.000,659.000
1061.346,664.000,661.000,667.000,662.000,663.000
1063.072,661.000,661.000,656.000,667.000,649.000
1064.800,665.000,662.000,658.000,658.000,660.000
1066.525,663.000,656.000,663.000,658.000,665.000
1068.252,661.000,656.000,662.000,659.000,654.000
1069.976,659.000,663.000,659.000,668.000,660.000
1071.702,666.000,659.000,656.000,660.000,653.000
1073.426,671.000,667.000,658.000,659.000,665.000
1075.151,661.000,663.000,664.000,658.000,664.000
1076.874,661.000,653.000,659.000,657.000,659.000
1078.599,668.000,660.000,662.000,659.000,657.000
1080.321,659.000,661.000,659.000,658.000,666.000
1082.045,668.000,658.000,653.000,657.000,663.000
1083.767,660.000,661.000,654.000,664.000,664.000
1085.491,663.000,651.000,650.000,657.000,659.000
1087.212,658.000,659.000,661.000,661.000,663.000
1088.934,656.000,661.000,657.000,658.000,659.000
1090.655,657.000,660.000,651.000,662.000,654.000
1092.375,660.000,663.000,656.000,660.000,657.000
1094.097,653.000,650.000,658.000,664.000,660.000
1095.816,652.000,656.000,661.000,655.000,656.000
1097.537,665.000,659.000,664.000,650.000,658.000
1099.256,658.000,660.000,657.000,659.000,660.000
1100.976,657.000,651.000,650.000,656.000,665.000
1102.694,658.000,652.000,657.000,658.000,659.000
1104.414,659.000,663.000,648.000,661.000,652.000
1106.131,663.000,654.000,665.000,656.000,664.000
1107.850,653.000,651.000,651.000,656.000,653.000
1109.567,657.000,656.000,654.000,658.000,646.000
1111.286,659.000,652.000,664.000,659.000,652.000
1113.002,662.000,657.000,655.000,661.000,663.000
1114.719,660.000,657.000,659.000,655.000,653.000
1116.435,656.000,657.000,653.000,662.000,655.000
1118.152,664.000,665.000,654.000,660.000,656.000
1119.867,652.000,658.000,662.000,654.000,664.000
1121.581,655.000,664.000,664.000,661.000,658.000
1123.297,660.000,658.000,658.000,665.000,664.000
1125.011,661.000,665.000,659.000,654.000,659.000
1126.726,667.000,659.000,664.000,661.000,662.000
1128.439,665.000,656.000,658.000,667.000,662.000
1130.154,661.000,658.000,657.000,657.000,663.000
1131.866,659.000,656.000,660.000,664.000,661.000
1133.580,663.000,658.000,661.000,660.000,659.000
1135.292,661.000,665.000,660.000,654.000,657.000
1137.005,664.000,662.000,664.000,663.000,671.000
1138.717,661.000,659.000,670.000,670.000,650.000
1140.429,668.000,664.000,663.000,666.000,666.000
1142.140,673.000,668.000,670.000,667.000,671.000
1143.852,673.000,672.000,668.000,675.000,666.000
1145.561,669.000,666.000,667.000,675.000,667.000
1147.273,670.000,672.000,673.000,677.000,664.000
1148.982,667.000,672.000,679.000,677.000,672.000
1150.693,680.000,673.000,665.000,673.000,674.000
1152.401,683.000,679.000,681.000,673.000,677.000
1154.109,682.000,674.000,679.000,667.000,678.000
1155.819,678.000,672.000,678.000,678.000,686.000
1157.526,685.000,689.000,679.000,678.000,672.000
1159.235,683.000,680.000,686.000,686.000,675.000
1160.942,686.000,692.000,686.000,679.000,679.000
1162.651,693.000,683.000,683.000,696.000,683.000
1164.357,693.000,693.000,696.000,690.000,691.000
1166.064,691.000,699.000,707.000,699.000,704.000
1167.770,703.000,710.000,705.000,696.000,713.000
1169.477,733.000,715.000,731.000,736.000,727.000
1171.182,764.000,749.000,758.000,758.000,759.000
1172.888,782.000,781.000,781.000,785.000,779.000
1174.592,807.000,814.000,800.000,819.000,803.000
1176.298,831.000,833.000,847.000,851.000,848.000
1178.002,836.000,853.000,837.000,819.000,839.000
1179.707,826.000,816.000,823.000,813.000,820.000
1181.410,801.000,788.000,805.000,799.000,800.000
1183.112,786.000,781.000,767.000,783.000,771.000
1184.816,737.000,736.000,764.000,741.000,755.000
1186.518,734.000,717.000,720.000,729.000,715.000
1188.221,706.000,721.000,709.000,715.000,708.000
1189.923,704.000,682.000,689.000,704.000,700.000
1191.625,701.000,687.000,700.000,699.000,689.000
1193.326,693.000,684.000,673.000,688.000,694.000
1195.028,692.000,677.000,683.000,677.000,677.000
1196.728,675.000,682.000,672.000,677.000,675.000
1198.429,669.000,680.000,676.000,680.000,668.000
1200.129,674.000,670.000,679.000,676.000,676.000
1201.829,675.000,664.000,660.000,667.000,665.000
1203.528,675.000,663.000,668.000,669.000,673.000
1205.228,665.000,659.000,668.000,668.000,662.000
1206.926,674.000,662.000,669.000,659.000,668.000
1208.626,670.000,666.000,665.000,662.000,666.000
1210.323,675.000,663.000,671.000,669.000,665.000
1212.020,658.000,666.000,667.000,666.000,672.000
1213.718,673.000,657.000,671.000,667.000,665.000
1215.415,659.000,673.000,670.000,659.000,672.000
1217.112,668.000,667.000,660.000,664.000,667.000
1218.808,663.000,662.000,656.000,664.000,664.000
1220.505,660.000,660.000,659.000,661.000,664.000
1222.200,663.000,658.000,666.000,656.000,662.000
1223.897,660.000,659.000,653.000,660.000,659.000
1225.591,664.000,659.000,658.000,652.000,662.000
1227.287,656.000,660.000,660.000,661.000,654.000
1228.981,656.000,651.000,653.000,662.000,655.000
1230.676,663.000,665.000,661.000,657.000,649.000
1232.369,663.000,655.000,653.000,652.000,659.000
1234.063,650.000,662.000,656.000,658.000,651.000
1235.756,656.000,661.000,656.000,642.000,660.000
1237.450,653.000,652.000,652.000,659.000,652.000
1239.141,659.000,663.000,662.000,658.000,653.000
1240.833,658.000,650.000,661.000,653.000,655.000
1242.526,656.000,654.000,655.000,659.000,659.000
1244.216,652.000,657.000,656.000,654.000,658.000
1245.909,655.000,655.000,661.000,653.000,652.000
1247.599,653.000,659.000,645.000,660.000,656.000
1249.290,654.000,655.000,651.000,660.000,659.000
1250.980,660.000,651.000,660.000,660.000,657.000
1252.671,654.000,662.000,655.000,650.000,659.000
1254.359,656.000,654.000,653.000,658.000,652.000
1256.050,654.000,661.000,652.000,651.000,657.000
1257.738,662.000,653.000,656.000,662.000,659.000
1259.428,657.000,659.000,647.000,661.000,654.000
1261.115,657.000,653.000,650.000,648.000,654.000
1262.804,655.000,655.000,656.000,657.000,655.000
1264.491,650.000,650.000,655.000,657.000,648.000
1266.179,658.000,659.000,652.000,655.000,651.000
1267.865,650.000,657.000,657.000,658.000,645.000
1269.551,654.000,653.000,652.000,661.000,655.000
1271.239,656.000,649.000,649.000,655.000,650.000
1272.924,655.000,663.000,648.000,651.000,653.000
1274.611,651.000,655.000,656.000,659.000,658.000
1276.295,648.000,650.000,658.000,656.000,658.000
1277.981,658.000,653.000,661.000,654.000,656.000
1279.665,657.000,649.000,654.000,656.000,653.000
1281.351,661.000,651.000,660.000,655.000,657.000
1283.034,655.000,653.000,657.000,651.000,659.000
1284.719,652.000,655.000,660.000,652.000,664.000
1286.401,658.000,658.000,659.000,654.000,653.000
1288.085,660.000,650.000,656.000,653.000,654.000
1289.767,658.000,657.000,660.000,663.000,654.000
1291.451,656.000,654.000,654.000,660.000,653.000
1293.132,652.000,653.000,655.000,659.000,651.000
1294.815,657.000,657.000,655.000,653.000,656.000
1296.496,651.000,651.000,653.000,653.000,661.000
1298.178,654.000,659.000,650.000,654.000,657.000
1299.858,659.000,649.000,653.000,653.000,658.000
1301.538,654.000,659.000,651.000,656.000,654.000
1303.219,661.000,648.000,650.000,659.000,654.000
1304.898,657.000,661.000,647.000,652.000,652.000
1306.579,653.000,652.000,653.000,655.000,650.000
1308.257,653.000,653.000,659.000,654.000,648.000
1309.937,660.000,658.000,652.000,653.000,653.000
1311.615,654.000,654.000,653.000,650.000,661.000
1313.294,658.000,664.000,659.000,658.000,658.000
1314.971,654.000,658.000,652.000,652.000,659.000
1316.650,662.000,659.000,656.000,653.000,656.000
1318.326,653.000,656.000,656.000,656.000,657.000
1320.004,661.000,656.000,654.000,663.000,653.000
1321.680,658.000,653.000,656.000,648.000,651.000
1323.358,659.000,655.000,651.000,652.000,657.000
1325.033,657.000,650.000,656.000,654.000,648.000
1326.708,656.000,655.000,662.000,655.000,649.000
1328.384,650.000,653.000,655.000,663.000,657.000
1330.058,659.000,655.000,659.000,645.000,656.000
1331.734,648.000,655.000,651.000,652.000,653.000
1333.408,654.000,648.000,658.000,655.000,657.000
1335.083,658.000,657.000,654.000,656.000,656.000
1336.756,660.000,663.000,661.000,652.000,656.000
1338.430,654.000,651.000,667.000,657.000,657.000
1340.102,660.000,656.000,658.000,654.000,653.000
1341.776,658.000,656.000,651.000,662.000,661.000
1343.448,651.000,656.000,651.000,657.000,651.000
1345.121,658.000,650.000,648.000,652.000,654.000
1346.792,656.000,658.000,657.000,661.000,663.000
1348.465,656.000,651.000,659.000,659.000,655.000
1350.135,650.000,661.000,657.000,654.000,659.000
1351.807,654.000,649.000,660.000,657.000,654.000
1353.477,656.000,663.000,659.000,659.000,654.000
1355.148,656.000,657.000,652.000,657.000,660.000
1356.817,658.000,651.000,660.000,660.000,652.000
1358.486,655.000,656.000,658.000,653.000,658.000
1360.156,659.000,659.000,655.000,662.000,659.000
1361.824,658.000,658.000,655.000,658.000,659.000
1363.494,657.000,659.000,659.000,658.000,665.000
1365.162,649.000,654.000,661.000,657.000,655.000
1366.831,661.000,659.000,656.000,655.000,659.000
1368.498,667.000,657.000,655.000,659.000,662.000
1370.166,654.000,652.000,659.000,655.000,664.000
1371.832,646.000,649.000,650.000,647.000,663.000
1373.500,660.000,652.000,655.000,654.000,659.000
1375.166,657.000,653.000,658.000,659.000,652.000
1376.833,661.000,656.000,651.000,654.000,659.000
1378.498,660.000,654.000,651.000,648.000,655.000
1380.164,655.000,653.000,651.000,656.000,654.000
1381.828,652.000,654.000,664.000,653.000,652.000
1383.494,654.000,653.000,660.000,661.000,651.000
1385.158,653.000,650.000,646.000,658.000,655.000
1386.821,653.000,654.000,654.000,649.000,656.000
1388.486,662.000,654.000,653.000,657.000,663.000
1390.149,650.000,654.000,651.000,662.000,652.000
1391.813,660.000,652.000,660.000,657.000,648.000
1393.475,653.000,660.000,648.000,651.000,659.000
1395.139,659.000,658.000,665.000,654.000,657.000
1396.800,658.000,663.000,656.000,658.000,657.000
1398.463,660.000,658.000,661.000,661.000,656.000
1400.124,662.000,663.000,666.000,666.000,665.000
1401.787,684.000,664.000,662.000,674.000,673.000
1403.447,683.000,684.000,682.000,668.000,686.000
1405.108,678.000,674.000,669.000,677.000,666.000
1406.768,669.000,670.000,674.000,671.000,665.000
1408.429,662.000,665.000,666.000,664.000,672.000
1410.088,660.000,656.000,663.000,657.000,664.000
1411.748,657.000,660.000,657.000,656.000,660.000
1413.407,658.000,658.000,658.000,651.000,664.000
1415.065,651.000,654.000,655.000,654.000,652.000
1416.724,663.000,658.000,664.000,658.000,655.000
1418.382,660.000,656.000,647.000,655.000,651.000
1420.040,654.000,651.000,653.000,651.000,650.000
1421.697,653.000,652.000,654.000,654.000,652.000
1423.355,655.000,658.000,657.000,659.000,653.000
1425.011,653.000,656.000,660.000,656.000,660.000
1426.669,655.000,649.000,657.000,650.000,658.000
1428.324,653.000,657.000,659.000,656.000,659.000
1429.981,651.000,651.000,649.000,657.000,658.000
1431.636,662.000,661.000,657.000,656.000,661.000
1433.293,657.000,649.000,657.000,649.000,653.000
1434.947,657.000,660.000,655.000,657.000,661.000
1436.602,654.000,657.000,651.000,660.000,655.000
1438.256,654.000,652.000,652.000,655.000,654.000
1439.911,651.000,653.000,648.000,659.000,653.000
1441.564,653.000,657.000,657.000,650.000,655.000
1443.218,651.000,651.000,654.000,647.000,651.000
1444.871,652.000,656.000,653.000,657.000,649.000
1446.523,651.000,657.000,657.000,656.000,649.000
1448.176,654.000,652.000,657.000,653.000,658.000
1449.828,650.000,656.000,655.000,649.000,658.000
1451.480,657.000,657.000,655.000,655.000,652.000
1453.131,654.000,661.000,657.000,657.000,656.000
1454.783,653.000,652.000,660.000,655.000,659.000
1456.433,663.000,660.000,656.000,657.000,656.000
1458.085,659.000,654.000,648.000,658.000,655.000
1459.735,656.000,656.000,658.000,656.000,646.000
1461.386,657.000,651.000,654.000,656.000,654.000
1463.034,654.000,656.000,653.000,652.000,650.000
1464.685,665.000,644.000,657.000,651.000,656.000
1466.333,657.000,661.000,655.000,656.000,653.000
1467.983,656.000,659.000,657.000,655.000,659.000
1469.630,664.000,661.000,654.000,654.000,659.000
1471.277,654.000,658.000,663.000,651.000,658.000
1472.926,666.000,657.000,660.000,658.000,663.000
1474.573,652.000,658.000,659.000,655.000,658.000
1476.221,657.000,656.000,662.000,653.000,663.000
1477.867,664.000,661.000,653.000,657.000,664.000
1479.515,653.000,660.000,653.000,660.000,657.000
1481.160,653.000,659.000,655.000,651.000,662.000
1482.807,659.000,650.000,663.000,656.000,656.000
1484.452,651.000,650.000,660.000,651.000,656.000
1486.098,664.000,654.000,658.000,658.000,651.000
1487.742,650.000,655.000,652.000,648.000,654.000
1489.388,656.000,656.000,660.000,657.000,651.000
1491.031,658.000,658.000,652.000,656.000,659.000
1492.676,660.000,655.000,656.000,645.000,652.000
1494.319,653.000,657.000,658.000,657.000,656.000
1495.964,662.000,654.000,653.000,652.000,653.000
1497.606,653.000,655.000,663.000,658.000,657.000
1499.250,659.000,663.000,652.000,656.000,656.000
1500.891,646.000,652.000,654.000,655.000,659.000
1502.533,655.000,658.000,651.000,655.000,654.000
1504.175,662.000,647.000,654.000,653.000,659.000
1505.816,654.000,660.000,649.000,651.000,653.000
1507.458,655.000,658.000,654.000,657.000,654.000
1509.098,655.000,643.000,666.000,658.000,661.000
1510.740,650.000,649.000,659.000,655.000,654.000
1512.379,652.000,660.000,650.000,648.000,653.000
1514.020,654.000,652.000,661.000,658.000,657.000
1515.659,658.000,661.000,656.000,655.000,655.000
1517.300,651.000,659.000,662.000,660.000,654.000
1518.938,659.000,651.000,655.000,659.000,658.000
1520.578,649.000,657.000,655.000,655.000,660.000
1522.215,655.000,650.000,656.000,651.000,651.000
1523.854,656.000,660.000,653.000,649.000,646.000
1525.491,651.000,651.000,656.000,664.000,652.000
1527.130,663.000,651.000,653.000,660.000,654.000
1528.766,655.000,654.000,662.000,658.000,657.000
1530.402,653.000,656.000,657.000,655.000,660.000
1532.040,660.000,658.000,656.000,662.000,651.000
1533.675,663.000,656.000,656.000,656.000,652.000
1535.312,658.000,656.000,660.000,661.000,659.000
1536.947,660.000,660.000,654.000,652.000,669.000
1538.583,658.000,665.000,652.000,658.000,652.000
1540.217,660.000,658.000,654.000,666.000,664.000
1541.853,659.000,660.000,664.000,666.000,663.000
1543.487,662.000,666.000,654.000,659.000,668.000
1545.122,652.000,674.000,659.000,663.000,664.000
1546.755,664.000,662.000,667.000,667.000,655.000
1548.389,658.000,659.000,665.000,667.000,667.000
1550.021,670.000,666.000,663.000,662.000,659.000
1551.655,670.000,666.000,662.000,663.000,663.000
1553.287,666.000,674.000,664.000,666.000,666.000
1554.920,664.000,663.000,659.000,670.000,669.000
1556.551,668.000,664.000,671.000,666.000,669.000
1558.182,673.000,668.000,663.000,671.000,669.000
1559.814,668.000,673.000,676.000,674.000,669.000
1561.444,669.000,669.000,675.000,673.000,671.000
1563.076,684.000,673.000,665.000,684.000,674.000
1564.706,677.000,680.000,683.000,680.000,680.000
1566.337,675.000,678.000,698.000,679.000,683.000
1567.966,678.000,688.000,683.000,700.000,693.000
1569.596,690.000,688.000,686.000,687.000,689.000
1571.224,695.000,703.000,697.000,696.000,709.000
1572.854,725.000,710.000,701.000,712.000,713.000
1574.482,707.000,720.000,718.000,710.000,720.000
1576.111,724.000,730.000,732.000,730.000,732.000
1577.738,749.000,731.000,745.000,734.000,747.000
1579.367,770.000,767.000,777.000,761.000,766.000
1580.993,782.000,785.000,790.000,778.000,766.000
1582.621,809.000,812.000,809.000,815.000,794.000
1584.247,810.000,803.000,798.000,790.000,804.000
1585.873,790.000,788.000,787.000,787.000,792.000
1587.500,759.000,768.000,768.000,766.000,770.000
1589.125,759.000,748.000,750.000,742.000,753.000
1590.751,744.000,736.000,738.000,730.000,736.000
1592.375,716.000,715.000,723.000,731.000,717.000
1594.001,718.000,722.000,727.000,717.000,726.000
1595.625,718.000,719.000,721.000,720.000,719.000
1597.250,719.000,735.000,734.000,729.000,724.000
1598.873,722.000,737.000,741.000,727.000,731.000
1600.498,761.000,756.000,738.000,753.000,744.000
1602.120,761.000,774.000,762.000,763.000,765.000
1603.744,749.000,769.000,759.000,754.000,768.000
1605.366,773.000,758.000,744.000,757.000,762.000
1606.989,732.000,722.000,733.000,746.000,736.000
1608.611,721.000,724.000,725.000,725.000,717.000
1610.233,724.000,711.000,709.000,714.000,709.000
1611.854,695.000,701.000,700.000,694.000,694.000
1613.474,705.000,682.000,704.000,690.000,689.000
1615.096,695.000,685.000,695.000,687.000,691.000
1616.716,679.000,677.000,686.000,678.000,680.000
1618.337,681.000,678.000,679.000,680.000,675.000
1619.956,677.000,681.000,681.000,682.000,676.000
1621.577,677.000,679.000,678.000,671.000,672.000
1623.195,676.000,672.000,668.000,679.000,671.000
1624.815,665.000,668.000,671.000,668.000,674.000
1626.433,674.000,662.000,669.000,666.000,667.000
1628.053,672.000,671.000,665.000,667.000,668.000
1629.670,662.000,658.000,662.000,666.000,668.000
1631.289,672.000,667.000,664.000,665.000,664.000
1632.905,661.000,670.000,663.000,663.000,661.000
1634.523,668.000,662.000,663.000,663.000,663.000
1636.140,664.000,663.000,666.000,673.000,662.000
1637.757,666.000,657.000,660.000,658.000,661.000
1639.373,664.000,659.000,657.000,664.000,661.000
1640.990,661.000,666.000,658.000,653.000,668.000
1642.604,667.000,660.000,666.000,664.000,660.000
1644.219,661.000,658.000,669.000,653.000,664.000
1645.835,661.000,655.000,662.000,656.000,661.000
1647.449,662.000,659.000,661.000,654.000,653.000
1649.064,657.000,661.000,657.000,666.000,663.000
1650.678,658.000,661.000,657.000,655.000,651.000
1652.292,649.000,655.000,661.000,658.000,656.000
1653.905,655.000,666.000,660.000,659.000,655.000
1655.519,656.000,652.000,661.000,654.000,659.000
1657.131,652.000,662.000,653.000,654.000,661.000
1658.745,657.000,652.000,656.000,657.000,662.000
1660.357,659.000,657.000,652.000,654.000,657.000
1661.970,652.000,659.000,655.000,652.000,651.000
1663.580,654.000,656.000,658.000,656.000,662.000
1665.193,657.000,653.000,655.000,659.000,662.000
1666.803,649.000,654.000,650.000,658.000,656.000
1668.413,660.000,649.000,653.000,651.000,657.000
1670.025,659.000,654.000,660.000,653.000,651.000
1671.634,654.000,654.000,647.000,659.000,658.000
1673.245,656.000,666.000,662.000,658.000,657.000
1674.854,654.000,656.000,653.000,651.000,645.000
1676.464,651.000,651.000,657.000,652.000,661.000
1678.072,656.000,653.000,654.000,658.000,659.000
1679.682,653.000,654.000,656.000,658.000,659.000
1681.289,648.000,658.000,656.000,659.000,653.000
1682.898,664.000,660.000,658.000,655.000,662.000
1684.505,656.000,657.000,657.000,650.000,659.000
1686.114,664.000,654.000,660.000,655.000,657.000
1687.720,655.000,652.000,652.000,658.000,663.000
1689.328,658.000,653.000,657.000,659.000,651.000
1690.934,663.000,662.000,647.000,663.000,663.000
1692.541,659.000,658.000,658.000,659.000,656.000
1694.146,658.000,659.000,662.000,657.000,661.000
1695.753,662.000,658.000,664.000,659.000,662.000
1697.357,655.000,661.000,657.000,653.000,662.000
1698.962,659.000,656.000,661.000,658.000,658.000
1700.567,663.000,660.000,664.000,660.000,652.000
1702.171,653.000,658.000,663.000,660.000,658.000
1703.776,661.000,665.000,659.000,655.000,661.000
1705.379,658.000,661.000,656.000,649.000,663.000
1706.984,663.000,656.000,660.000,656.000,658.000
1708.586,657.000,644.000,648.000,655.000,652.000
1710.190,654.000,655.000,653.000,652.000,651.000
1711.792,656.000,653.000,653.000,653.000,654.000
1713.395,652.000,647.000,661.000,659.000,653.000
1714.997,646.000,658.000,657.000,659.000,652.000
1716.599,659.000,658.000,655.000,649.000,652.000
1718.200,648.000,658.000,652.000,656.000,655.000
1719.802,653.000,644.000,648.000,650.000,659.000
1721.402,662.000,657.000,652.000,654.000,658.000
1723.004,652.000,648.000,656.000,651.000,655.000
1724.603,657.000,658.000,653.000,644.000,648.000
1726.204,648.000,642.000,655.000,647.000,651.000
1727.803,657.000,654.000,652.000,658.000,653.000
1729.401,659.000,654.000,654.000,652.000,650.000
1731.001,659.000,656.000,646.000,660.000,655.000
1732.599,648.000,656.000,645.000,653.000,649.000
1734.199,655.000,647.000,653.000,652.000,649.000
1735.796,654.000,656.000,649.000,659.000,659.000
1737.395,649.000,656.000,647.000,658.000,649.000
1738.992,659.000,651.000,648.000,653.000,653.000
1740.590,657.000,651.000,655.000,650.000,657.000
1742.186,661.000,655.000,656.000,654.000,659.000
1743.784,656.000,657.000,653.000,650.000,658.000
1745.379,651.000,652.000,650.000,654.000,653.000
1746.976,656.000,654.000,652.000,656.000,653.000
1748.571,652.000,652.000,663.000,654.000,654.000
1750.168,652.000,656.000,653.000,657.000,656.000
1751.762,660.000,658.000,652.000,656.000,660.000
1753.356,653.000,656.000,652.000,658.000,648.000
1754.952,649.000,653.000,662.000,648.000,649.000
1756.545,657.000,652.000,652.000,654.000,659.000
1758.140,653.000,651.000,655.000,653.000,648.000
1759.733,659.000,656.000,654.000,654.000,652.000
1761.327,656.000,651.000,655.000,644.000,652.000
1762.919,651.000,659.000,655.000,658.000,652.000
1764.513,657.000,653.000,658.000,657.000,647.000
1766.105,654.000,656.000,659.000,648.000,658.000
1767.698,650.000,646.000,654.000,653.000,655.000
1769.289,654.000,655.000,651.000,644.000,656.000
1770.882,649.000,656.000,650.000,658.000,654.000
1772.472,648.000,653.000,659.000,648.000,658.000
1774.064,646.000,651.000,660.000,657.000,649.000
1775.654,647.000,659.000,652.000,654.000,659.000
1777.245,651.000,655.000,652.000,649.000,656.000
1778.835,654.000,658.000,661.000,658.000,659.000
1780.425,655.000,657.000,661.000,652.000,659.000
1782.014,656.000,656.000,658.000,648.000,650.000
1783.603,657.000,651.000,655.000,651.000,653.000
1785.192,649.000,657.000,651.000,655.000,655.000
1786.780,649.000,652.000,657.000,652.000,648.000
1788.370,652.000,651.000,647.000,651.000,653.000
1789.957,651.000,652.000,662.000,650.000,647.000
1791.545,654.000,654.000,658.000,654.000,657.000
1793.132,652.000,651.000,651.000,652.000,650.000
1794.720,652.000,653.000,650.000,648.000,645.000
1796.306,650.000,651.000,659.000,660.000,655.000
1797.894,651.000,655.000,647.000,654.000,653.000
1799.479,653.000,652.000,652.000,656.000,656.000
1801.066,660.000,652.000,652.000,644.000,653.000
1802.651,655.000,656.000,649.000,654.000,654.000
1804.237,649.000,654.000,655.000,649.000,651.000
1805.821,659.000,653.000,654.000,649.000,654.000
1807.405,654.000,653.000,651.000,650.000,656.000
1808.991,657.000,659.000,657.000,655.000,652.000
1810.574,660.000,651.000,650.000,649.000,653.000
1812.159,649.000,653.000,651.000,653.000,658.000
1813.742,652.000,651.000,658.000,653.000,650.000
1815.326,656.000,657.000,658.000,658.000,661.000
1816.908,648.000,657.000,658.000,652.000,649.000
1818.492,661.000,652.000,658.000,655.000,655.000
1820.074,651.000,646.000,664.000,649.000,653.000
1821.657,656.000,654.000,653.000,657.000,660.000
1823.238,649.000,652.000,658.000,644.000,655.000
1824.820,651.000,651.000,652.000,651.000,656.000
1826.401,658.000,654.000,659.000,661.000,660.000
1827.982,657.000,652.000,654.000,652.000,650.000
1829.562,659.000,653.000,649.000,648.000,646.000
1831.144,654.000,658.000,652.000,652.000,651.000
1832.723,655.000,656.000,647.000,659.000,656.000
1834.304,657.000,652.000,650.000,652.000,650.000
1835.882,658.000,653.000,653.000,648.000,646.000
1837.461,654.000,654.000,658.000,656.000,655.000
1839.040,653.000,661.000,651.000,655.000,649.000
1840.618,657.000,650.000,665.000,654.000,654.000
1842.197,648.000,657.000,649.000,653.000,651.000
1843.775,652.000,659.000,652.000,650.000,652.000
1845.353,657.000,654.000,652.000,655.000,650.000
1846.930,649.000,654.000,657.000,655.000,650.000
1848.508,649.000,663.000,655.000,655.000,646.000
1850.084,658.000,653.000,659.000,653.000,656.000
1851.661,650.000,658.000,659.000,651.000,644.000
1853.237,658.000,655.000,649.000,649.000,650.000
1854.814,650.000,646.000,659.000,656.000,653.000
1856.389,659.000,656.000,654.000,659.000,659.000
1857.965,662.000,655.000,655.000,648.000,659.000
1859.539,651.000,661.000,648.000,656.000,656.000
1861.113,655.000,649.000,649.000,654.000,647.000
1862.689,650.000,658.000,654.000,652.000,651.000
1864.262,651.000,644.000,643.000,658.000,649.000
1865.837,650.000,654.000,655.000,659.000,655.000
1867.410,649.000,654.000,655.000,659.000,649.000
1868.984,652.000,651.000,654.000,652.000,651.000
1870.556,656.000,656.000,655.000,661.000,652.000
1872.130,656.000,651.000,659.000,660.000,646.000
1873.701,646.000,647.000,656.000,652.000,652.000
1875.274,656.000,660.000,653.000,654.000,651.000
1876.845,655.000,659.000,658.000,649.000,656.000
1878.418,658.000,653.000,653.000,653.000,652.000
1879.988,646.000,649.000,647.000,662.000,652.000
1881.560,654.000,655.000,652.000,649.000,650.000
1883.130,646.000,653.000,652.000,663.000,652.000
1884.702,655.000,653.000,657.000,655.000,646.000
1886.271,663.000,663.000,653.000,652.000,652.000
1887.842,648.000,654.000,658.000,652.000,659.000
1889.410,651.000,650.000,658.000,654.000,656.000
1890.979,651.000,656.000,651.000,659.000,650.000
1892.549,655.000,659.000,656.000,646.000,656.000
1894.116,651.000,650.000,659.000,654.000,648.000
1895.686,655.000,651.000,650.000,651.000,649.000
1897.253,644.000,654.000,655.000,648.000,656.000
1898.822,654.000,656.000,664.000,654.000,650.000
1900.388,653.000,656.000,659.000,652.000,646.000
1901.957,650.000,656.000,652.000,656.000,657.000
1903.523,650.000,654.000,652.000,650.000,653.000
1905.090,655.000,657.000,648.000,649.000,648.000
1906.656,654.000,653.000,659.000,653.000,658.000
1908.223,657.000,657.000,652.000,660.000,661.000
1909.788,653.000,646.000,652.000,654.000,654.000
1911.354,652.000,655.000,654.000,654.000,649.000
1912.918,656.000,655.000,658.000,658.000,649.000
1914.484,657.000,650.000,656.000,660.000,658.000
1916.048,651.000,664.000,653.000,658.000,659.000
1917.613,655.000,654.000,659.000,653.000,650.000
1919.176,648.000,650.000,658.000,651.000,661.000
1920.739,662.000,664.000,651.000,662.000,646.000
1922.304,654.000,656.000,657.000,656.000,647.000
1923.866,653.000,656.000,659.000,658.000,660.000
1925.430,663.000,655.000,659.000,655.000,657.000
1926.991,654.000,664.000,652.000,652.000,652.000
1928.555,654.000,663.000,662.000,661.000,661.000
1930.116,652.000,667.000,659.000,659.000,662.000
1931.678,659.000,655.000,660.000,653.000,655.000
1933.239,660.000,659.000,650.000,656.000,661.000
1934.801,652.000,661.000,649.000,651.000,651.000
1936.361,657.000,660.000,666.000,662.000,654.000
1937.922,663.000,656.000,657.000,663.000,654.000
1939.482,662.000,652.000,662.000,656.000,656.000
1941.043,664.000,656.000,655.000,656.000,652.000
1942.602,652.000,653.000,651.000,658.000,656.000
1944.160,654.000,654.000,653.000,656.000,654.000
1945.720,651.000,649.000,657.000,659.000,660.000
1947.278,663.000,657.000,648.000,653.000,653.000
1948.838,652.000,644.000,658.000,661.000,656.000
1950.395,652.000,656.000,650.000,658.000,660.000
1951.954,659.000,653.000,654.000,655.000,655.000
1953.511,653.000,654.000,652.000,657.000,665.000
1955.069,652.000,654.000,655.000,648.000,650.000
1956.625,662.000,651.000,651.000,656.000,659.000
1958.183,646.000,654.000,650.000,655.000,654.000
1959.739,656.000,650.000,652.000,661.000,657.000
1961.296,658.000,649.000,651.000,655.000,653.000
1962.851,657.000,653.000,660.000,658.000,649.000
1964.407,651.000,655.000,658.000,656.000,661.000
1965.962,651.000,655.000,652.000,660.000,655.000
1967.518,650.000,654.000,652.000,652.000,653.000
1969.072,659.000,654.000,656.000,655.000,650.000
1970.627,659.000,651.000,653.000,653.000,656.000
1972.181,666.000,650.000,657.000,664.000,658.000
1973.734,644.000,656.000,656.000,657.000,651.000
1975.288,653.000,648.000,659.000,660.000,654.000
1976.841,649.000,659.000,654.000,651.000,653.000
1978.395,661.000,656.000,653.000,662.000,646.000
1979.947,661.000,653.000,655.000,658.000,660.000
1981.500,659.000,663.000,659.000,650.000,650.000
1983.052,660.000,659.000,656.000,659.000,660.000
1984.604,655.000,662.000,654.000,659.000,656.000
1986.155,660.000,659.000,657.000,656.000,663.000
1987.707,650.000,658.000,651.000,656.000,651.000
1989.258,654.000,662.000,654.000,655.000,657.000
1990.809,654.000,655.000,652.000,654.000,652.000
1992.359,656.000,656.000,651.000,653.000,651.000
1993.910,656.000,656.000,656.000,659.000,663.000
1995.459,655.000,658.000,655.000,649.000,652.000
1997.008,649.000,653.000,650.000,666.000,651.000
1998.558,656.000,657.000,656.000,650.000,655.000
2000.107,661.000,658.000,663.000,653.000,654.000
2001.656,657.000,651.000,656.000,657.000,659.000
2003.204,652.000,655.000,651.000,651.000,658.000
2004.753,646.000,648.000,645.000,656.000,651.000
2006.300,659.000,663.000,655.000,656.000,658.000
2007.849,651.000,655.000,655.000,652.000,657.000
2009.395,651.000,648.000,659.000,660.000,651.000
2010.943,656.000,657.000,656.000,648.000,655.000
2012.489,651.000,660.000,655.000,660.000,650.000
2014.036,654.000,651.000,654.000,656.000,661.000
2015.582,654.000,662.000,657.000,657.000,657.000
2017.129,651.000,664.000,662.000,656.000,663.000
2018.673,652.000,658.000,657.000,662.000,659.000
2020.220,651.000,654.000,659.000,653.000,653.000
2021.764,662.000,660.000,658.000,654.000,654.000
2023.310,651.000,652.000,652.000,659.000,645.000
2024.853,650.000,651.000,653.000,659.000,657.000
2026.397,656.000,653.000,652.000,654.000,657.000
2027.942,652.000,655.000,652.000,654.000,648.000
2029.484,656.000,647.000,647.000,653.000,657.000
2031.029,653.000,657.000,655.000,649.000,650.000
2032.571,657.000,654.000,658.000,656.000,655.000
2034.115,656.000,658.000,650.000,651.000,651.000
2035.656,652.000,652.000,653.000,656.000,657.000
2037.199,656.000,653.000,650.000,654.000,655.000
2038.740,651.000,651.000,661.000,657.000,654.000
2040.283,650.000,657.000,645.000,652.000,658.000
2041.824,652.000,657.000,651.000,645.000,651.000
2043.366,654.000,653.000,648.000,658.000,658.000
2044.906,653.000,654.000,657.000,655.000,656.000
2046.447,658.000,647.000,648.000,651.000,658.000
2047.986,656.000,651.000,656.000,654.000,651.000
2049.527,660.000,654.000,654.000,655.000,657.000
2051.066,656.000,651.000,651.000,650.000,653.000
2052.606,655.000,659.000,657.000,652.000,648.000
2054.145,653.000,660.000,654.000,664.000,655.000
2055.683,654.000,650.000,655.000,649.000,656.000
2057.222,658.000,648.000,655.000,657.000,652.000
2058.760,650.000,661.000,661.000,645.000,659.000
2060.298,653.000,650.000,655.000,648.000,656.000
2061.835,650.000,662.000,652.000,651.000,662.000
2063.374,653.000,647.000,656.000,654.000,651.000
2064.910,655.000,656.000,657.000,657.000,657.000
2066.448,658.000,649.000,649.000,651.000,648.000
2067.983,657.000,654.000,655.000,653.000,652.000
2069.521,654.000,658.000,652.000,651.000,651.000
2071.056,661.000,662.000,648.000,658.000,651.000
2072.592,649.000,649.000,651.000,656.000,654.000
2074.127,659.000,658.000,656.000,657.000,654.000
2075.663,644.000,657.000,660.000,654.000,650.000
2077.197,660.000,656.000,662.000,648.000,658.000
2078.731,649.000,652.000,648.000,657.000,645.000
2080.266,654.000,659.000,655.000,655.000,659.000
2081.799,657.000,653.000,653.000,656.000,651.000
2083.334,652.000,652.000,654.000,652.000,647.000
2084.867,655.000,656.000,653.000,651.000,649.000
2086.401,652.000,652.000,655.000,655.000,649.000
2087.933,662.000,655.000,650.000,657.000,651.000
2089.466,655.000,652.000,650.000,651.000,651.000
2090.998,651.000,655.000,654.000,661.000,653.000
2092.531,655.000,647.000,660.000,651.000,646.000
2094.062,652.000,657.000,650.000,651.000,655.000
2095.594,659.000,656.000,654.000,657.000,651.000
2097.124,651.000,654.000,647.000,651.000,658.000
2098.656,656.000,661.000,657.000,657.000,657.000
2100.186,652.000,660.000,657.000,660.000,654.000
2101.717,659.000,652.000,648.000,641.000,651.000
2103.247,658.000,652.000,651.000,656.000,657.000
2104.777,650.000,655.000,662.000,656.000,644.000
2106.306,651.000,654.000,659.000,648.000,650.000
2107.835,648.000,651.000,650.000,659.000,660.000
2109.364,658.000,657.000,656.000,652.000,656.000
2110.892,660.000,657.000,650.000,646.000,654.000
2112.422,657.000,654.000,656.000,652.000,645.000
2113.949,660.000,656.000,654.000,653.000,656.000
2115.478,651.000,653.000,654.000,658.000,658.000
2117.004,649.000,654.000,652.000,647.000,652.000
2118.533,652.000,655.000,650.000,660.000,650.000
2120.059,659.000,657.000,657.000,653.000,656.000
2121.586,655.000,655.000,656.000,656.000,658.000
2123.112,651.000,649.000,657.000,658.000,659.000
2124.639,651.000,661.000,657.000,660.000,654.000
2126.164,658.000,656.000,649.000,655.000,649.000
2127.691,648.000,658.000,653.000,658.000,655.000
2129.215,647.000,659.000,654.000,659.000,656.000
2130.739,654.000,660.000,654.000,647.000,659.000
2132.265,658.000,652.000,653.000,654.000,653.000
2133.789,655.000,657.000,653.000,653.000,657.000
2135.314,655.000,651.000,651.000,652.000,648.000
2136.837,655.000,655.000,652.000,650.000,648.000
2138.362,652.000,658.000,654.000,654.000,650.000
2139.884,652.000,650.000,654.000,657.000,648.000
2141.408,657.000,649.000,653.000,654.000,662.000
2142.930,656.000,660.000,656.000,651.000,650.000
2144.454,655.000,653.000,653.000,657.000,657.000
2145.975,659.000,660.000,648.000,659.000,649.000
2147.498,658.000,654.000,642.000,654.000,656.000
2149.019,655.000,659.000,650.000,660.000,658.000
2150.541,653.000,654.000,654.000,652.000,658.000
2152.062,652.000,648.000,655.000,652.000,654.000
2153.583,645.000,656.000,651.000,655.000,650.000
2155.103,650.000,653.000,659.000,647.000,658.000
2156.624,655.000,656.000,657.000,649.000,657.000
2158.144,652.000,650.000,660.000,654.000,652.000
2159.663,653.000,647.000,655.000,648.000,655.000
2161.183,653.000,662.000,658.000,657.000,654.000
2162.701,655.000,652.000,662.000,654.000,663.000
2164.221,650.000,657.000,651.000,661.000,652.000
2165.739,651.000,656.000,650.000,653.000,659.000
2167.258,650.000,651.000,649.000,656.000,659.000
2168.776,652.000,654.000,659.000,661.000,646.000
2170.294,657.000,661.000,650.000,658.000,655.000
2171.811,660.000,655.000,656.000,651.000,655.000
2173.329,652.000,650.000,652.000,649.000,647.000
2174.845,667.000,654.000,656.000,653.000,660.000
2176.363,653.000,647.000,654.000,655.000,648.000
2177.879,653.000,659.000,665.000,656.000,653.000
2179.396,658.000,651.000,661.000,654.000,662.000
2180.911,660.000,652.000,663.000,650.000,660.000
2182.427,667.000,652.000,663.000,662.000,655.000
2183.942,653.000,662.000,657.000,664.000,661.000
2185.458,657.000,664.000,658.000,661.000,666.000
2186.972,660.000,653.000,665.000,654.000,655.000
2188.485,656.000,656.000,655.000,653.000,650.000
2190.000,655.000,648.000,652.000,664.000,659.000
2191.514,654.000,658.000,655.000,657.000,660.000
2193.028,651.000,661.000,658.000,657.000,661.000
2194.541,657.000,656.000,646.000,645.000,648.000
2196.055,653.000,651.000,659.000,660.000,652.000
2197.567,658.000,653.000,659.000,652.000,652.000
2199.080,651.000,659.000,651.000,656.000,657.000
2200.592,655.000,656.000,658.000,659.000,656.000
2202.105,658.000,658.000,656.000,649.000,661.000
2203.616,658.000,653.000,652.000,660.000,654.000
2205.128,652.000,652.000,656.000,654.000,650.000
2206.638,659.000,656.000,651.000,658.000,656.000
2208.150,653.000,662.000,660.000,661.000,654.000
2209.660,658.000,658.000,666.000,657.000,662.000
2211.170,659.000,659.000,651.000,655.000,654.000
2212.681,648.000,660.000,653.000,653.000,660.000
2214.190,664.000,655.000,665.000,658.000,653.000
2215.700,657.000,658.000,656.000,654.000,653.000
2217.208,657.000,659.000,653.000,658.000,656.000
2218.718,655.000,655.000,658.000,661.000,657.000
2220.226,655.000,662.000,653.000,647.000,656.000
2221.736,651.000,653.000,661.000,652.000,659.000
2223.243,650.000,660.000,650.000,653.000,653.000
2224.752,654.000,650.000,652.000,653.000,650.000
2226.259,654.000,648.000,659.000,653.000,660.000
2227.767,647.000,649.000,657.000,657.000,652.000
2229.273,653.000,660.000,652.000,662.000,657.000
2230.781,663.000,656.000,658.000,659.000,651.000
2232.286,653.000,657.000,656.000,655.000,654.000
2233.794,653.000,655.000,657.000,661.000,659.000
2235.299,652.000,651.000,646.000,654.000,655.000
2236.805,659.000,655.000,654.000,656.000,656.000
2238.310,650.000,658.000,652.000,648.000,648.000
2239.814,648.000,660.000,651.000,660.000,651.000
2241.320,657.000,655.000,654.000,645.000,656.000
2242.824,653.000,654.000,660.000,650.000,649.000
2244.329,652.000,657.000,653.000,664.000,654.000
2245.832,657.000,651.000,660.000,648.000,655.000
2247.337,649.000,654.000,659.000,664.000,651.000
2248.840,654.000,653.000,651.000,655.000,654.000
2250.344,661.000,655.000,661.000,651.000,650.000
2251.846,658.000,653.000,657.000,655.000,660.000
2253.350,656.000,652.000,661.000,653.000,653.000
2254.851,656.000,653.000,651.000,657.000,660.000
2256.354,660.000,657.000,657.000,651.000,654.000
2257.855,658.000,653.000,653.000,657.000,655.000
2259.358,658.000,655.000,651.000,651.000,665.000
2260.858,654.000,647.000,658.000,662.000,653.000
2262.359,656.000,654.000,656.000,648.000,651.000
2263.860,649.000,655.000,656.000,658.000,653.000
2265.360,650.000,653.000,646.000,656.000,651.000
2266.861,659.000,665.000,657.000,658.000,656.000
2268.360,660.000,658.000,659.000,648.000,657.000
2269.861,651.000,660.000,654.000,663.000,657.000
2271.360,656.000,657.000,654.000,655.000,656.000
2272.860,649.000,655.000,663.000,655.000,659.000
2274.358,653.000,657.000,659.000,652.000,653.000
2275.857,656.000,652.000,654.000,659.000,652.000
2277.355,657.000,652.000,651.000,657.000,656.000
2278.854,666.000,659.000,654.000,652.000,649.000
2280.351,653.000,651.000,657.000,657.000,658.000
2281.849,658.000,657.000,658.000,649.000,651.000
2283.345,659.000,663.000,658.000,658.000,655.000
2284.843,655.000,653.000,657.000,657.000,655.000
2286.339,663.000,658.000,668.000,655.000,651.000
2287.837,662.000,663.000,665.000,661.000,667.000
2289.332,666.000,665.000,667.000,669.000,664.000
2290.827,666.000,669.000,665.000,659.000,673.000
2292.324,662.000,668.000,656.000,659.000,664.000
2293.818,667.000,666.000,654.000,652.000,660.000
2295.314,655.000,650.000,664.000,659.000,654.000
2296.808,664.000,656.000,650.000,656.000,653.000
2298.303,659.000,664.000,657.000,654.000,651.000
2299.797,659.000,656.000,653.000,653.000,655.000
2301.292,659.000,653.000,655.000,659.000,647.000
2302.785,659.000,659.000,662.000,656.000,660.000
2304.279,656.000,647.000,647.000,656.000,650.000
2305.772,651.000,659.000,653.000,652.000,666.000
2307.265,661.000,655.000,657.000,655.000,651.000
2308.757,651.000,648.000,651.000,655.000,652.000
2310.250,654.000,655.000,656.000,653.000,660.000
2311.742,650.000,650.000,660.000,660.000,655.000
2313.233,659.000,647.000,657.000,654.000,656.000
2314.725,656.000,655.000,660.000,662.000,649.000
2316.217,651.000,656.000,658.000,653.000,658.000
2317.708,659.000,657.000,660.000,657.000,656.000
2319.198,652.000,660.000,658.000,654.000,649.000
2320.689,656.000,656.000,655.000,651.000,660.000
2322.178,658.000,654.000,656.000,648.000,656.000
2323.669,655.000,660.000,654.000,652.000,656.000
2325.158,664.000,652.000,657.000,657.000,658.000
2326.648,652.000,654.000,652.000,654.000,647.000
2328.137,662.000,659.000,654.000,659.000,657.000
2329.626,660.000,651.000,658.000,659.000,656.000
2331.114,654.000,659.000,660.000,660.000,661.000
2332.603,651.000,658.000,659.000,658.000,652.000
2334.091,661.000,658.000,661.000,659.000,662.000
2335.579,663.000,658.000,665.000,656.000,652.000
2337.066,657.000,658.000,657.000,650.000,657.000
2338.554,649.000,647.000,646.000,659.000,658.000
2340.040,655.000,662.000,657.000,650.000,653.000
2341.526,660.000,649.000,664.000,660.000,648.000
2343.014,660.000,658.000,655.000,654.000,658.000
2344.499,663.000,663.000,657.000,657.000,651.000
2345.986,659.000,661.000,654.000,658.000,657.000
2347.471,658.000,659.000,657.000,660.000,658.000
2348.957,657.000,658.000,655.000,653.000,661.000
2350.441,663.000,657.000,659.000,663.000,656.000
2351.927,662.000,658.000,660.000,653.000,662.000
2353.411,656.000,662.000,662.000,663.000,659.000
2354.896,655.000,656.000,648.000,657.000,658.000
2356.379,654.000,661.000,662.000,657.000,656.000
2357.864,662.000,655.000,659.000,662.000,659.000
2359.347,656.000,652.000,654.000,662.000,667.000
2360.831,662.000,665.000,655.000,661.000,660.000
2362.313,661.000,662.000,659.000,664.000,661.000
2363.796,662.000,661.000,654.000,659.000,660.000
2365.278,661.000,659.000,659.000,654.000,661.000
2366.761,665.000,652.000,660.000,657.000,661.000
2368.242,658.000,663.000,669.000,660.000,655.000
2369.723,661.000,659.000,660.000,667.000,658.000
2371.205,660.000,667.000,659.000,659.000,656.000
2372.686,670.000,660.000,656.000,660.000,658.000
2374.167,657.000,656.000,661.000,670.000,656.000
2375.647,664.000,663.000,659.000,667.000,661.000
2377.128,661.000,662.000,668.000,664.000,663.000
2378.607,663.000,653.000,660.000,666.000,668.000
2380.088,664.000,661.000,659.000,668.000,666.000
2381.567,668.000,662.000,653.000,661.000,660.000
2383.047,654.000,661.000,659.000,673.000,657.000
2384.525,663.000,662.000,660.000,656.000,663.000
2386.005,660.000,668.000,657.000,663.000,655.000
2387.482,669.000,657.000,654.000,659.000,667.000
2388.961,662.000,653.000,659.000,662.000,657.000
2390.438,666.000,656.000,655.000,658.000,655.000
