Created as New Dataset,Sample 536 By YargerLab Date Thursday, February 19 2026
cm-1,A
4000.00,0.0035
3999.00,0.0035
3998.00,0.0035
3997.00,0.0035
3996.00,0.0035
3995.00,0.0035
3994.00,0.0035
3993.00,0.0035
3992.00,0.0035
3991.00,0.0035
3990.00,0.0035
3989.00,0.0035
3988.00,0.0035
3987.00,0.0035
3986.00,0.0035
3985.00,0.0035
3984.00,0.0035
3983.00,0.0035
3982.00,0.0035
3981.00,0.0035
3980.00,0.0035
3979.00,0.0035
3978.00,0.0034
3977.00,0.0035
3976.00,0.0035
3975.00,0.0035
3974.00,0.0035
3973.00,0.0035
3972.00,0.0035
3971.00,0.0035
3970.00,0.0035
3969.00,0.0035
3968.00,0.0035
3967.00,0.0034
3966.00,0.0034
3965.00,0.0034
3964.00,0.0034
3963.00,0.0034
3962.00,0.0034
3961.00,0.0034
3960.00,0.0035
3959.00,0.0035
3958.00,0.0035
3957.00,0.0035
3956.00,0.0034
3955.00,0.0034
3954.00,0.0034
3953.00,0.0034
3952.00,0.0035
3951.00,0.0035
3950.00,0.0035
3949.00,0.0035
3948.00,0.0035
3947.00,0.0035
3946.00,0.0035
3945.00,0.0035
3944.00,0.0035
3943.00,0.0035
3942.00,0.0035
3941.00,0.0035
3940.00,0.0035
3939.00,0.0035
3938.00,0.0035
3937.00,0.0035
3936.00,0.0035
3935.00,0.0035
3934.00,0.0035
3933.00,0.0035
3932.00,0.0035
3931.00,0.0035
3930.00,0.0035
3929.00,0.0035
3928.00,0.0034
3927.00,0.0034
3926.00,0.0034
3925.00,0.0034
3924.00,0.0035
3923.00,0.0035
3922.00,0.0035
3921.00,0.0035
3920.00,0.0035
3919.00,0.0035
3918.00,0.0035
3917.00,0.0035
3916.00,0.0035
3915.00,0.0035
3914.00,0.0035
3913.00,0.0035
3912.00,0.0034
3911.00,0.0034
3910.00,0.0034
3909.00,0.0034
3908.00,0.0034
3907.00,0.0035
3906.00,0.0035
3905.00,0.0036
3904.00,0.0036
3903.00,0.0036
3902.00,0.0036
3901.00,0.0036
3900.00,0.0036
3899.00,0.0036
3898.00,0.0035
3897.00,0.0035
3896.00,0.0035
3895.00,0.0035
3894.00,0.0035
3893.00,0.0035
3892.00,0.0035
3891.00,0.0035
3890.00,0.0035
3889.00,0.0036
3888.00,0.0036
3887.00,0.0036
3886.00,0.0036
3885.00,0.0035
3884.00,0.0035
3883.00,0.0036
3882.00,0.0036
3881.00,0.0036
3880.00,0.0036
3879.00,0.0035
3878.00,0.0035
3877.00,0.0035
3876.00,0.0035
3875.00,0.0035
3874.00,0.0035
3873.00,0.0036
3872.00,0.0036
3871.00,0.0036
3870.00,0.0036
3869.00,0.0036
3868.00,0.0036
3867.00,0.0036
3866.00,0.0035
3865.00,0.0035
3864.00,0.0035
3863.00,0.0035
3862.00,0.0035
3861.00,0.0035
3860.00,0.0035
3859.00,0.0035
3858.00,0.0036
3857.00,0.0036
3856.00,0.0036
3855.00,0.0037
3854.00,0.0036
3853.00,0.0036
3852.00,0.0036
3851.00,0.0036
3850.00,0.0036
3849.00,0.0036
3848.00,0.0035
3847.00,0.0035
3846.00,0.0035
3845.00,0.0035
3844.00,0.0035
3843.00,0.0035
3842.00,0.0036
3841.00,0.0036
3840.00,0.0036
3839.00,0.0036
3838.00,0.0036
3837.00,0.0036
3836.00,0.0036
3835.00,0.0036
3834.00,0.0036
3833.00,0.0036
3832.00,0.0036
3831.00,0.0035
3830.00,0.0035
3829.00,0.0036
3828.00,0.0036
3827.00,0.0036
3826.00,0.0036
3825.00,0.0036
3824.00,0.0036
3823.00,0.0036
3822.00,0.0036
3821.00,0.0036
3820.00,0.0036
3819.00,0.0036
3818.00,0.0036
3817.00,0.0036
3816.00,0.0036
3815.00,0.0035
3814.00,0.0035
3813.00,0.0035
3812.00,0.0035
3811.00,0.0035
3810.00,0.0035
3809.00,0.0035
3808.00,0.0035
3807.00,0.0035
3806.00,0.0035
3805.00,0.0035
3804.00,0.0036
3803.00,0.0036
3802.00,0.0036
3801.00,0.0036
3800.00,0.0036
3799.00,0.0036
3798.00,0.0036
3797.00,0.0036
3796.00,0.0035
3795.00,0.0035
3794.00,0.0035
3793.00,0.0035
3792.00,0.0035
3791.00,0.0035
3790.00,0.0034
3789.00,0.0034
3788.00,0.0034
3787.00,0.0035
3786.00,0.0035
3785.00,0.0035
3784.00,0.0035
3783.00,0.0035
3782.00,0.0035
3781.00,0.0035
3780.00,0.0035
3779.00,0.0035
3778.00,0.0035
3777.00,0.0035
3776.00,0.0035
3775.00,0.0035
3774.00,0.0035
3773.00,0.0035
3772.00,0.0035
3771.00,0.0035
3770.00,0.0035
3769.00,0.0035
3768.00,0.0035
3767.00,0.0035
3766.00,0.0035
3765.00,0.0035
3764.00,0.0035
3763.00,0.0035
3762.00,0.0035
3761.00,0.0035
3760.00,0.0035
3759.00,0.0035
3758.00,0.0035
3757.00,0.0035
3756.00,0.0036
3755.00,0.0036
3754.00,0.0037
3753.00,0.0037
3752.00,0.0037
3751.00,0.0037
3750.00,0.0036
3749.00,0.0037
3748.00,0.0037
3747.00,0.0037
3746.00,0.0037
3745.00,0.0036
3744.00,0.0036
3743.00,0.0036
3742.00,0.0036
3741.00,0.0036
3740.00,0.0035
3739.00,0.0035
3738.00,0.0035
3737.00,0.0035
3736.00,0.0035
3735.00,0.0035
3734.00,0.0035
3733.00,0.0035
3732.00,0.0035
3731.00,0.0035
3730.00,0.0035
3729.00,0.0035
3728.00,0.0035
3727.00,0.0035
3726.00,0.0035
3725.00,0.0034
3724.00,0.0034
3723.00,0.0034
3722.00,0.0034
3721.00,0.0034
3720.00,0.0034
3719.00,0.0034
3718.00,0.0034
3717.00,0.0034
3716.00,0.0034
3715.00,0.0034
3714.00,0.0035
3713.00,0.0035
3712.00,0.0035
3711.00,0.0035
3710.00,0.0035
3709.00,0.0034
3708.00,0.0034
3707.00,0.0034
3706.00,0.0034
3705.00,0.0034
3704.00,0.0034
3703.00,0.0034
3702.00,0.0033
3701.00,0.0033
3700.00,0.0033
3699.00,0.0033
3698.00,0.0033
3697.00,0.0033
3696.00,0.0033
3695.00,0.0034
3694.00,0.0034
3693.00,0.0035
3692.00,0.0035
3691.00,0.0035
3690.00,0.0035
3689.00,0.0035
3688.00,0.0035
3687.00,0.0035
3686.00,0.0035
3685.00,0.0035
3684.00,0.0035
3683.00,0.0035
3682.00,0.0035
3681.00,0.0035
3680.00,0.0036
3679.00,0.0037
3678.00,0.0037
3677.00,0.0038
3676.00,0.0038
3675.00,0.0038
3674.00,0.0038
3673.00,0.0039
3672.00,0.0039
3671.00,0.0038
3670.00,0.0038
3669.00,0.0038
3668.00,0.0037
3667.00,0.0037
3666.00,0.0037
3665.00,0.0037
3664.00,0.0037
3663.00,0.0037
3662.00,0.0037
3661.00,0.0037
3660.00,0.0038
3659.00,0.0038
3658.00,0.0038
3657.00,0.0038
3656.00,0.0038
3655.00,0.0039
3654.00,0.0039
3653.00,0.0040
3652.00,0.0040
3651.00,0.0040
3650.00,0.0041
3649.00,0.0041
3648.00,0.0041
3647.00,0.0041
3646.00,0.0041
3645.00,0.0041
3644.00,0.0040
3643.00,0.0040
3642.00,0.0039
3641.00,0.0039
3640.00,0.0039
3639.00,0.0040
3638.00,0.0040
3637.00,0.0041
3636.00,0.0041
3635.00,0.0041
3634.00,0.0041
3633.00,0.0041
3632.00,0.0042
3631.00,0.0042
3630.00,0.0042
3629.00,0.0042
3628.00,0.0043
3627.00,0.0043
3626.00,0.0043
3625.00,0.0043
3624.00,0.0043
3623.00,0.0043
3622.00,0.0044
3621.00,0.0044
3620.00,0.0044
3619.00,0.0044
3618.00,0.0045
3617.00,0.0045
3616.00,0.0046
3615.00,0.0046
3614.00,0.0047
3613.00,0.0047
3612.00,0.0048
3611.00,0.0048
3610.00,0.0048
3609.00,0.0048
3608.00,0.0048
3607.00,0.0048
3606.00,0.0049
3605.00,0.0049
3604.00,0.0049
3603.00,0.0049
3602.00,0.0050
3601.00,0.0050
3600.00,0.0051
3599.00,0.0051
3598.00,0.0051
3597.00,0.0052
3596.00,0.0052
3595.00,0.0053
3594.00,0.0053
3593.00,0.0053
3592.00,0.0054
3591.00,0.0054
3590.00,0.0055
3589.00,0.0055
3588.00,0.0055
3587.00,0.0056
3586.00,0.0056
3585.00,0.0056
3584.00,0.0057
3583.00,0.0057
3582.00,0.0058
3581.00,0.0059
3580.00,0.0059
3579.00,0.0060
3578.00,0.0060
3577.00,0.0060
3576.00,0.0061
3575.00,0.0061
3574.00,0.0061
3573.00,0.0062
3572.00,0.0063
3571.00,0.0063
3570.00,0.0064
3569.00,0.0065
3568.00,0.0066
3567.00,0.0066
3566.00,0.0066
3565.00,0.0066
3564.00,0.0067
3563.00,0.0067
3562.00,0.0068
3561.00,0.0068
3560.00,0.0069
3559.00,0.0069
3558.00,0.0069
3557.00,0.0070
3556.00,0.0071
3555.00,0.0071
3554.00,0.0072
3553.00,0.0072
3552.00,0.0073
3551.00,0.0073
3550.00,0.0074
3549.00,0.0075
3548.00,0.0075
3547.00,0.0076
3546.00,0.0076
3545.00,0.0076
3544.00,0.0077
3543.00,0.0077
3542.00,0.0078
3541.00,0.0078
3540.00,0.0079
3539.00,0.0079
3538.00,0.0080
3537.00,0.0081
3536.00,0.0081
3535.00,0.0082
3534.00,0.0082
3533.00,0.0082
3532.00,0.0083
3531.00,0.0083
3530.00,0.0084
3529.00,0.0084
3528.00,0.0085
3527.00,0.0085
3526.00,0.0086
3525.00,0.0086
3524.00,0.0087
3523.00,0.0087
3522.00,0.0088
3521.00,0.0088
3520.00,0.0089
3519.00,0.0089
3518.00,0.0090
3517.00,0.0091
3516.00,0.0091
3515.00,0.0092
3514.00,0.0092
3513.00,0.0093
3512.00,0.0093
3511.00,0.0094
3510.00,0.0095
3509.00,0.0095
3508.00,0.0096
3507.00,0.0096
3506.00,0.0097
3505.00,0.0098
3504.00,0.0099
3503.00,0.0099
3502.00,0.0100
3501.00,0.0100
3500.00,0.0101
3499.00,0.0102
3498.00,0.0102
3497.00,0.0103
3496.00,0.0104
3495.00,0.0105
3494.00,0.0105
3493.00,0.0106
3492.00,0.0107
3491.00,0.0108
3490.00,0.0108
3489.00,0.0109
3488.00,0.0110
3487.00,0.0110
3486.00,0.0111
3485.00,0.0112
3484.00,0.0113
3483.00,0.0113
3482.00,0.0114
3481.00,0.0115
3480.00,0.0116
3479.00,0.0116
3478.00,0.0117
3477.00,0.0118
3476.00,0.0118
3475.00,0.0119
3474.00,0.0120
3473.00,0.0120
3472.00,0.0121
3471.00,0.0122
3470.00,0.0123
3469.00,0.0123
3468.00,0.0124
3467.00,0.0125
3466.00,0.0125
3465.00,0.0126
3464.00,0.0127
3463.00,0.0127
3462.00,0.0128
3461.00,0.0128
3460.00,0.0128
3459.00,0.0129
3458.00,0.0130
3457.00,0.0131
3456.00,0.0131
3455.00,0.0132
3454.00,0.0132
3453.00,0.0133
3452.00,0.0133
3451.00,0.0134
3450.00,0.0134
3449.00,0.0135
3448.00,0.0136
3447.00,0.0136
3446.00,0.0137
3445.00,0.0137
3444.00,0.0138
3443.00,0.0138
3442.00,0.0138
3441.00,0.0139
3440.00,0.0139
3439.00,0.0139
3438.00,0.0140
3437.00,0.0140
3436.00,0.0140
3435.00,0.0141
3434.00,0.0141
3433.00,0.0142
3432.00,0.0142
3431.00,0.0143
3430.00,0.0143
3429.00,0.0144
3428.00,0.0144
3427.00,0.0145
3426.00,0.0145
3425.00,0.0146
3424.00,0.0146
3423.00,0.0146
3422.00,0.0147
3421.00,0.0148
3420.00,0.0148
3419.00,0.0148
3418.00,0.0148
3417.00,0.0149
3416.00,0.0149
3415.00,0.0149
3414.00,0.0150
3413.00,0.0150
3412.00,0.0151
3411.00,0.0151
3410.00,0.0151
3409.00,0.0152
3408.00,0.0152
3407.00,0.0153
3406.00,0.0153
3405.00,0.0154
3404.00,0.0154
3403.00,0.0154
3402.00,0.0154
3401.00,0.0154
3400.00,0.0154
3399.00,0.0155
3398.00,0.0155
3397.00,0.0156
3396.00,0.0157
3395.00,0.0158
3394.00,0.0158
3393.00,0.0158
3392.00,0.0158
3391.00,0.0158
3390.00,0.0159
3389.00,0.0159
3388.00,0.0159
3387.00,0.0160
3386.00,0.0160
3385.00,0.0161
3384.00,0.0161
3383.00,0.0162
3382.00,0.0162
3381.00,0.0162
3380.00,0.0163
3379.00,0.0163
3378.00,0.0163
3377.00,0.0164
3376.00,0.0164
3375.00,0.0165
3374.00,0.0165
3373.00,0.0165
3372.00,0.0165
3371.00,0.0165
3370.00,0.0165
3369.00,0.0165
3368.00,0.0165
3367.00,0.0166
3366.00,0.0166
3365.00,0.0167
3364.00,0.0168
3363.00,0.0168
3362.00,0.0169
3361.00,0.0169
3360.00,0.0169
3359.00,0.0170
3358.00,0.0170
3357.00,0.0171
3356.00,0.0171
3355.00,0.0172
3354.00,0.0172
3353.00,0.0171
3352.00,0.0171
3351.00,0.0171
3350.00,0.0171
3349.00,0.0172
3348.00,0.0172
3347.00,0.0173
3346.00,0.0173
3345.00,0.0173
3344.00,0.0173
3343.00,0.0173
3342.00,0.0173
3341.00,0.0173
3340.00,0.0173
3339.00,0.0173
3338.00,0.0174
3337.00,0.0175
3336.00,0.0175
3335.00,0.0176
3334.00,0.0176
3333.00,0.0176
3332.00,0.0176
3331.00,0.0176
3330.00,0.0176
3329.00,0.0176
3328.00,0.0176
3327.00,0.0176
3326.00,0.0176
3325.00,0.0175
3324.00,0.0176
3323.00,0.0176
3322.00,0.0176
3321.00,0.0177
3320.00,0.0177
3319.00,0.0177
3318.00,0.0177
3317.00,0.0178
3316.00,0.0178
3315.00,0.0178
3314.00,0.0178
3313.00,0.0178
3312.00,0.0178
3311.00,0.0177
3310.00,0.0176
3309.00,0.0175
3308.00,0.0174
3307.00,0.0174
3306.00,0.0175
3305.00,0.0175
3304.00,0.0177
3303.00,0.0178
3302.00,0.0178
3301.00,0.0178
3300.00,0.0178
3299.00,0.0178
3298.00,0.0178
3297.00,0.0178
3296.00,0.0177
3295.00,0.0177
3294.00,0.0177
3293.00,0.0177
3292.00,0.0177
3291.00,0.0178
3290.00,0.0178
3289.00,0.0179
3288.00,0.0179
3287.00,0.0179
3286.00,0.0179
3285.00,0.0179
3284.00,0.0178
3283.00,0.0178
3282.00,0.0178
3281.00,0.0178
3280.00,0.0178
3279.00,0.0178
3278.00,0.0178
3277.00,0.0178
3276.00,0.0177
3275.00,0.0177
3274.00,0.0177
3273.00,0.0176
3272.00,0.0176
3271.00,0.0176
3270.00,0.0176
3269.00,0.0176
3268.00,0.0177
3267.00,0.0177
3266.00,0.0177
3265.00,0.0177
3264.00,0.0176
3263.00,0.0176
3262.00,0.0176
3261.00,0.0176
3260.00,0.0176
3259.00,0.0176
3258.00,0.0175
3257.00,0.0175
3256.00,0.0175
3255.00,0.0175
3254.00,0.0174
3253.00,0.0174
3252.00,0.0174
3251.00,0.0174
3250.00,0.0174
3249.00,0.0174
3248.00,0.0174
3247.00,0.0174
3246.00,0.0174
3245.00,0.0173
3244.00,0.0173
3243.00,0.0173
3242.00,0.0173
3241.00,0.0173
3240.00,0.0173
3239.00,0.0173
3238.00,0.0172
3237.00,0.0172
3236.00,0.0172
3235.00,0.0171
3234.00,0.0171
3233.00,0.0171
3232.00,0.0171
3231.00,0.0171
3230.00,0.0171
3229.00,0.0170
3228.00,0.0170
3227.00,0.0169
3226.00,0.0169
3225.00,0.0169
3224.00,0.0168
3223.00,0.0168
3222.00,0.0168
3221.00,0.0167
3220.00,0.0167
3219.00,0.0166
3218.00,0.0166
3217.00,0.0166
3216.00,0.0166
3215.00,0.0166
3214.00,0.0165
3213.00,0.0165
3212.00,0.0165
3211.00,0.0164
3210.00,0.0164
3209.00,0.0164
3208.00,0.0164
3207.00,0.0164
3206.00,0.0164
3205.00,0.0164
3204.00,0.0163
3203.00,0.0163
3202.00,0.0163
3201.00,0.0163
3200.00,0.0162
3199.00,0.0162
3198.00,0.0161
3197.00,0.0161
3196.00,0.0161
3195.00,0.0160
3194.00,0.0160
3193.00,0.0159
3192.00,0.0159
3191.00,0.0159
3190.00,0.0159
3189.00,0.0159
3188.00,0.0158
3187.00,0.0158
3186.00,0.0158
3185.00,0.0157
3184.00,0.0157
3183.00,0.0156
3182.00,0.0156
3181.00,0.0155
3180.00,0.0155
3179.00,0.0154
3178.00,0.0154
3177.00,0.0153
3176.00,0.0153
3175.00,0.0152
3174.00,0.0152
3173.00,0.0152
3172.00,0.0151
3171.00,0.0151
3170.00,0.0150
3169.00,0.0150
3168.00,0.0149
3167.00,0.0148
3166.00,0.0147
3165.00,0.0147
3164.00,0.0147
3163.00,0.0146
3162.00,0.0146
3161.00,0.0145
3160.00,0.0145
3159.00,0.0144
3158.00,0.0144
3157.00,0.0143
3156.00,0.0143
3155.00,0.0142
3154.00,0.0142
3153.00,0.0141
3152.00,0.0141
3151.00,0.0140
3150.00,0.0140
3149.00,0.0139
3148.00,0.0139
3147.00,0.0138
3146.00,0.0138
3145.00,0.0137
3144.00,0.0137
3143.00,0.0136
3142.00,0.0136
3141.00,0.0136
3140.00,0.0135
3139.00,0.0135
3138.00,0.0134
3137.00,0.0134
3136.00,0.0133
3135.00,0.0133
3134.00,0.0133
3133.00,0.0132
3132.00,0.0132
3131.00,0.0132
3130.00,0.0131
3129.00,0.0131
3128.00,0.0130
3127.00,0.0130
3126.00,0.0130
3125.00,0.0129
3124.00,0.0129
3123.00,0.0128
3122.00,0.0128
3121.00,0.0127
3120.00,0.0127
3119.00,0.0126
3118.00,0.0126
3117.00,0.0125
3116.00,0.0125
3115.00,0.0125
3114.00,0.0125
3113.00,0.0124
3112.00,0.0124
3111.00,0.0124
3110.00,0.0123
3109.00,0.0123
3108.00,0.0122
3107.00,0.0121
3106.00,0.0121
3105.00,0.0120
3104.00,0.0119
3103.00,0.0119
3102.00,0.0119
3101.00,0.0118
3100.00,0.0118
3099.00,0.0117
3098.00,0.0117
3097.00,0.0117
3096.00,0.0116
3095.00,0.0116
3094.00,0.0116
3093.00,0.0115
3092.00,0.0115
3091.00,0.0114
3090.00,0.0114
3089.00,0.0113
3088.00,0.0113
3087.00,0.0113
3086.00,0.0113
3085.00,0.0113
3084.00,0.0113
3083.00,0.0113
3082.00,0.0113
3081.00,0.0113
3080.00,0.0113
3079.00,0.0112
3078.00,0.0112
3077.00,0.0112
3076.00,0.0112
3075.00,0.0112
3074.00,0.0112
3073.00,0.0112
3072.00,0.0112
3071.00,0.0111
3070.00,0.0111
3069.00,0.0110
3068.00,0.0110
3067.00,0.0109
3066.00,0.0108
3065.00,0.0108
3064.00,0.0107
3063.00,0.0107
3062.00,0.0106
3061.00,0.0105
3060.00,0.0104
3059.00,0.0104
3058.00,0.0103
3057.00,0.0102
3056.00,0.0102
3055.00,0.0102
3054.00,0.0101
3053.00,0.0101
3052.00,0.0100
3051.00,0.0100
3050.00,0.0100
3049.00,0.0099
3048.00,0.0099
3047.00,0.0099
3046.00,0.0098
3045.00,0.0098
3044.00,0.0098
3043.00,0.0097
3042.00,0.0097
3041.00,0.0097
3040.00,0.0097
3039.00,0.0097
3038.00,0.0096
3037.00,0.0096
3036.00,0.0096
3035.00,0.0096
3034.00,0.0096
3033.00,0.0096
3032.00,0.0096
3031.00,0.0096
3030.00,0.0096
3029.00,0.0096
3028.00,0.0096
3027.00,0.0096
3026.00,0.0096
3025.00,0.0096
3024.00,0.0097
3023.00,0.0097
3022.00,0.0097
3021.00,0.0098
3020.00,0.0098
3019.00,0.0098
3018.00,0.0099
3017.00,0.0100
3016.00,0.0101
3015.00,0.0102
3014.00,0.0102
3013.00,0.0103
3012.00,0.0105
3011.00,0.0106
3010.00,0.0108
3009.00,0.0110
3008.00,0.0112
3007.00,0.0114
3006.00,0.0116
3005.00,0.0119
3004.00,0.0121
3003.00,0.0124
3002.00,0.0126
3001.00,0.0129
3000.00,0.0132
2999.00,0.0135
2998.00,0.0138
2997.00,0.0142
2996.00,0.0145
2995.00,0.0149
2994.00,0.0152
2993.00,0.0156
2992.00,0.0160
2991.00,0.0165
2990.00,0.0169
2989.00,0.0174
2988.00,0.0178
2987.00,0.0183
2986.00,0.0188
2985.00,0.0193
2984.00,0.0198
2983.00,0.0204
2982.00,0.0209
2981.00,0.0213
2980.00,0.0217
2979.00,0.0220
2978.00,0.0223
2977.00,0.0227
2976.00,0.0230
2975.00,0.0234
2974.00,0.0239
2973.00,0.0243
2972.00,0.0248
2971.00,0.0252
2970.00,0.0256
2969.00,0.0260
2968.00,0.0265
2967.00,0.0269
2966.00,0.0273
2965.00,0.0277
2964.00,0.0281
2963.00,0.0285
2962.00,0.0289
2961.00,0.0292
2960.00,0.0296
2959.00,0.0298
2958.00,0.0301
2957.00,0.0303
2956.00,0.0304
2955.00,0.0305
2954.00,0.0306
2953.00,0.0306
2952.00,0.0305
2951.00,0.0304
2950.00,0.0303
2949.00,0.0302
2948.00,0.0301
2947.00,0.0300
2946.00,0.0299
2945.00,0.0298
2944.00,0.0298
2943.00,0.0298
2942.00,0.0298
2941.00,0.0300
2940.00,0.0301
2939.00,0.0304
2938.00,0.0307
2937.00,0.0310
2936.00,0.0314
2935.00,0.0318
2934.00,0.0322
2933.00,0.0326
2932.00,0.0331
2931.00,0.0335
2930.00,0.0339
2929.00,0.0343
2928.00,0.0347
2927.00,0.0350
2926.00,0.0352
2925.00,0.0354
2924.00,0.0356
2923.00,0.0357
2922.00,0.0358
2921.00,0.0357
2920.00,0.0356
2919.00,0.0355
2918.00,0.0352
2917.00,0.0349
2916.00,0.0345
2915.00,0.0341
2914.00,0.0337
2913.00,0.0332
2912.00,0.0327
2911.00,0.0322
2910.00,0.0317
2909.00,0.0312
2908.00,0.0307
2907.00,0.0303
2906.00,0.0299
2905.00,0.0295
2904.00,0.0291
2903.00,0.0288
2902.00,0.0285
2901.00,0.0283
2900.00,0.0281
2899.00,0.0279
2898.00,0.0278
2897.00,0.0277
2896.00,0.0276
2895.00,0.0275
2894.00,0.0274
2893.00,0.0273
2892.00,0.0271
2891.00,0.0270
2890.00,0.0269
2889.00,0.0268
2888.00,0.0267
2887.00,0.0266
2886.00,0.0265
2885.00,0.0265
2884.00,0.0264
2883.00,0.0264
2882.00,0.0263
2881.00,0.0262
2880.00,0.0262
2879.00,0.0261
2878.00,0.0261
2877.00,0.0260
2876.00,0.0260
2875.00,0.0260
2874.00,0.0260
2873.00,0.0260
2872.00,0.0260
2871.00,0.0260
2870.00,0.0259
2869.00,0.0258
2868.00,0.0257
2867.00,0.0255
2866.00,0.0254
2865.00,0.0253
2864.00,0.0253
2863.00,0.0253
2862.00,0.0253
2861.00,0.0253
2860.00,0.0254
2859.00,0.0255
2858.00,0.0256
2857.00,0.0256
2856.00,0.0255
2855.00,0.0254
2854.00,0.0251
2853.00,0.0248
2852.00,0.0243
2851.00,0.0238
2850.00,0.0232
2849.00,0.0225
2848.00,0.0218
2847.00,0.0211
2846.00,0.0204
2845.00,0.0197
2844.00,0.0191
2843.00,0.0185
2842.00,0.0180
2841.00,0.0175
2840.00,0.0171
2839.00,0.0168
2838.00,0.0166
2837.00,0.0164
2836.00,0.0162
2835.00,0.0161
2834.00,0.0160
2833.00,0.0159
2832.00,0.0158
2831.00,0.0157
2830.00,0.0156
2829.00,0.0154
2828.00,0.0153
2827.00,0.0150
2826.00,0.0148
2825.00,0.0145
2824.00,0.0143
2823.00,0.0140
2822.00,0.0137
2821.00,0.0134
2820.00,0.0131
2819.00,0.0129
2818.00,0.0126
2817.00,0.0123
2816.00,0.0121
2815.00,0.0119
2814.00,0.0116
2813.00,0.0114
2812.00,0.0113
2811.00,0.0111
2810.00,0.0109
2809.00,0.0108
2808.00,0.0106
2807.00,0.0105
2806.00,0.0103
2805.00,0.0102
2804.00,0.0101
2803.00,0.0099
2802.00,0.0098
2801.00,0.0097
2800.00,0.0096
2799.00,0.0095
2798.00,0.0094
2797.00,0.0093
2796.00,0.0092
2795.00,0.0092
2794.00,0.0091
2793.00,0.0090
2792.00,0.0090
2791.00,0.0089
2790.00,0.0088
2789.00,0.0088
2788.00,0.0087
2787.00,0.0087
2786.00,0.0086
2785.00,0.0086
2784.00,0.0086
2783.00,0.0085
2782.00,0.0084
2781.00,0.0084
2780.00,0.0084
2779.00,0.0083
2778.00,0.0082
2777.00,0.0082
2776.00,0.0081
2775.00,0.0081
2774.00,0.0081
2773.00,0.0080
2772.00,0.0080
2771.00,0.0080
2770.00,0.0079
2769.00,0.0079
2768.00,0.0078
2767.00,0.0078
2766.00,0.0078
2765.00,0.0077
2764.00,0.0077
2763.00,0.0077
2762.00,0.0077
2761.00,0.0076
2760.00,0.0076
2759.00,0.0076
2758.00,0.0076
2757.00,0.0076
2756.00,0.0076
2755.00,0.0075
2754.00,0.0075
2753.00,0.0076
2752.00,0.0076
2751.00,0.0075
2750.00,0.0075
2749.00,0.0075
2748.00,0.0075
2747.00,0.0075
2746.00,0.0075
2745.00,0.0075
2744.00,0.0075
2743.00,0.0075
2742.00,0.0075
2741.00,0.0075
2740.00,0.0075
2739.00,0.0075
2738.00,0.0075
2737.00,0.0075
2736.00,0.0075
2735.00,0.0075
2734.00,0.0075
2733.00,0.0075
2732.00,0.0076
2731.00,0.0076
2730.00,0.0076
2729.00,0.0076
2728.00,0.0076
2727.00,0.0076
2726.00,0.0076
2725.00,0.0076
2724.00,0.0076
2723.00,0.0075
2722.00,0.0075
2721.00,0.0075
2720.00,0.0075
2719.00,0.0075
2718.00,0.0075
2717.00,0.0074
2716.00,0.0074
2715.00,0.0074
2714.00,0.0074
2713.00,0.0074
2712.00,0.0074
2711.00,0.0073
2710.00,0.0073
2709.00,0.0073
2708.00,0.0073
2707.00,0.0072
2706.00,0.0072
2705.00,0.0072
2704.00,0.0072
2703.00,0.0072
2702.00,0.0072
2701.00,0.0071
2700.00,0.0071
2699.00,0.0071
2698.00,0.0071
2697.00,0.0071
2696.00,0.0071
2695.00,0.0071
2694.00,0.0071
2693.00,0.0071
2692.00,0.0071
2691.00,0.0071
2690.00,0.0071
2689.00,0.0071
2688.00,0.0071
2687.00,0.0071
2686.00,0.0071
2685.00,0.0070
2684.00,0.0070
2683.00,0.0070
2682.00,0.0070
2681.00,0.0070
2680.00,0.0070
2679.00,0.0070
2678.00,0.0070
2677.00,0.0070
2676.00,0.0070
2675.00,0.0070
2674.00,0.0070
2673.00,0.0070
2672.00,0.0070
2671.00,0.0070
2670.00,0.0070
2669.00,0.0070
2668.00,0.0070
2667.00,0.0070
2666.00,0.0071
2665.00,0.0071
2664.00,0.0071
2663.00,0.0072
2662.00,0.0072
2661.00,0.0072
2660.00,0.0072
2659.00,0.0072
2658.00,0.0072
2657.00,0.0072
2656.00,0.0072
2655.00,0.0072
2654.00,0.0072
2653.00,0.0072
2652.00,0.0072
2651.00,0.0072
2650.00,0.0071
2649.00,0.0071
2648.00,0.0071
2647.00,0.0071
2646.00,0.0071
2645.00,0.0070
2644.00,0.0070
2643.00,0.0070
2642.00,0.0070
2641.00,0.0070
2640.00,0.0069
2639.00,0.0069
2638.00,0.0069
2637.00,0.0068
2636.00,0.0068
2635.00,0.0068
2634.00,0.0068
2633.00,0.0068
2632.00,0.0068
2631.00,0.0068
2630.00,0.0068
2629.00,0.0068
2628.00,0.0068
2627.00,0.0068
2626.00,0.0067
2625.00,0.0067
2624.00,0.0067
2623.00,0.0066
2622.00,0.0066
2621.00,0.0066
2620.00,0.0065
2619.00,0.0065
2618.00,0.0065
2617.00,0.0065
2616.00,0.0065
2615.00,0.0065
2614.00,0.0065
2613.00,0.0065
2612.00,0.0065
2611.00,0.0064
2610.00,0.0064
2609.00,0.0064
2608.00,0.0064
2607.00,0.0064
2606.00,0.0064
2605.00,0.0064
2604.00,0.0064
2603.00,0.0064
2602.00,0.0063
2601.00,0.0063
2600.00,0.0063
2599.00,0.0063
2598.00,0.0063
2597.00,0.0063
2596.00,0.0063
2595.00,0.0063
2594.00,0.0063
2593.00,0.0063
2592.00,0.0063
2591.00,0.0063
2590.00,0.0062
2589.00,0.0062
2588.00,0.0062
2587.00,0.0063
2586.00,0.0063
2585.00,0.0063
2584.00,0.0063
2583.00,0.0063
2582.00,0.0063
2581.00,0.0063
2580.00,0.0062
2579.00,0.0062
2578.00,0.0062
2577.00,0.0062
2576.00,0.0062
2575.00,0.0062
2574.00,0.0062
2573.00,0.0062
2572.00,0.0061
2571.00,0.0061
2570.00,0.0061
2569.00,0.0061
2568.00,0.0061
2567.00,0.0061
2566.00,0.0061
2565.00,0.0061
2564.00,0.0061
2563.00,0.0060
2562.00,0.0060
2561.00,0.0059
2560.00,0.0059
2559.00,0.0059
2558.00,0.0059
2557.00,0.0059
2556.00,0.0059
2555.00,0.0059
2554.00,0.0059
2553.00,0.0059
2552.00,0.0059
2551.00,0.0059
2550.00,0.0060
2549.00,0.0059
2548.00,0.0059
2547.00,0.0059
2546.00,0.0059
2545.00,0.0058
2544.00,0.0058
2543.00,0.0058
2542.00,0.0058
2541.00,0.0058
2540.00,0.0058
2539.00,0.0057
2538.00,0.0057
2537.00,0.0057
2536.00,0.0057
2535.00,0.0057
2534.00,0.0057
2533.00,0.0057
2532.00,0.0057
2531.00,0.0057
2530.00,0.0057
2529.00,0.0057
2528.00,0.0057
2527.00,0.0057
2526.00,0.0057
2525.00,0.0056
2524.00,0.0056
2523.00,0.0056
2522.00,0.0056
2521.00,0.0056
2520.00,0.0056
2519.00,0.0056
2518.00,0.0056
2517.00,0.0056
2516.00,0.0056
2515.00,0.0056
2514.00,0.0055
2513.00,0.0055
2512.00,0.0055
2511.00,0.0055
2510.00,0.0055
2509.00,0.0055
2508.00,0.0055
2507.00,0.0055
2506.00,0.0055
2505.00,0.0055
2504.00,0.0055
2503.00,0.0054
2502.00,0.0054
2501.00,0.0054
2500.00,0.0054
2499.00,0.0054
2498.00,0.0054
2497.00,0.0054
2496.00,0.0054
2495.00,0.0054
2494.00,0.0053
2493.00,0.0053
2492.00,0.0053
2491.00,0.0053
2490.00,0.0053
2489.00,0.0053
2488.00,0.0053
2487.00,0.0053
2486.00,0.0053
2485.00,0.0052
2484.00,0.0052
2483.00,0.0052
2482.00,0.0052
2481.00,0.0052
2480.00,0.0052
2479.00,0.0052
2478.00,0.0052
2477.00,0.0052
2476.00,0.0052
2475.00,0.0052
2474.00,0.0052
2473.00,0.0052
2472.00,0.0051
2471.00,0.0051
2470.00,0.0051
2469.00,0.0051
2468.00,0.0051
2467.00,0.0051
2466.00,0.0051
2465.00,0.0051
2464.00,0.0051
2463.00,0.0052
2462.00,0.0052
2461.00,0.0052
2460.00,0.0053
2459.00,0.0053
2458.00,0.0053
2457.00,0.0053
2456.00,0.0053
2455.00,0.0052
2454.00,0.0052
2453.00,0.0051
2452.00,0.0051
2451.00,0.0051
2450.00,0.0051
2449.00,0.0051
2448.00,0.0051
2447.00,0.0051
2446.00,0.0050
2445.00,0.0050
2444.00,0.0050
2443.00,0.0050
2442.00,0.0050
2441.00,0.0050
2440.00,0.0050
2439.00,0.0050
2438.00,0.0050
2437.00,0.0050
2436.00,0.0050
2435.00,0.0050
2434.00,0.0050
2433.00,0.0050
2432.00,0.0050
2431.00,0.0049
2430.00,0.0049
2429.00,0.0049
2428.00,0.0049
2427.00,0.0049
2426.00,0.0048
2425.00,0.0048
2424.00,0.0048
2423.00,0.0048
2422.00,0.0048
2421.00,0.0049
2420.00,0.0049
2419.00,0.0049
2418.00,0.0049
2417.00,0.0049
2416.00,0.0049
2415.00,0.0049
2414.00,0.0049
2413.00,0.0049
2412.00,0.0049
2411.00,0.0049
2410.00,0.0049
2409.00,0.0049
2408.00,0.0048
2407.00,0.0048
2406.00,0.0048
2405.00,0.0047
2404.00,0.0047
2403.00,0.0047
2402.00,0.0047
2401.00,0.0047
2400.00,0.0047
2399.00,0.0047
2398.00,0.0047
2397.00,0.0047
2396.00,0.0047
2395.00,0.0047
2394.00,0.0047
2393.00,0.0047
2392.00,0.0047
2391.00,0.0047
2390.00,0.0047
2389.00,0.0047
2388.00,0.0047
2387.00,0.0046
2386.00,0.0046
2385.00,0.0046
2384.00,0.0046
2383.00,0.0045
2382.00,0.0045
2381.00,0.0045
2380.00,0.0044
2379.00,0.0045
2378.00,0.0045
2377.00,0.0045
2376.00,0.0045
2375.00,0.0045
2374.00,0.0045
2373.00,0.0044
2372.00,0.0044
2371.00,0.0044
2370.00,0.0043
2369.00,0.0043
2368.00,0.0044
2367.00,0.0044
2366.00,0.0044
2365.00,0.0044
2364.00,0.0044
2363.00,0.0045
2362.00,0.0045
2361.00,0.0045
2360.00,0.0045
2359.00,0.0045
2358.00,0.0045
2357.00,0.0045
2356.00,0.0045
2355.00,0.0046
2354.00,0.0046
2353.00,0.0046
2352.00,0.0046
2351.00,0.0045
2350.00,0.0046
2349.00,0.0046
2348.00,0.0046
2347.00,0.0047
2346.00,0.0048
2345.00,0.0048
2344.00,0.0048
2343.00,0.0048
2342.00,0.0047
2341.00,0.0047
2340.00,0.0048
2339.00,0.0048
2338.00,0.0049
2337.00,0.0049
2336.00,0.0049
2335.00,0.0049
2334.00,0.0049
2333.00,0.0049
2332.00,0.0049
2331.00,0.0049
2330.00,0.0049
2329.00,0.0051
2328.00,0.0053
2327.00,0.0056
2326.00,0.0059
2325.00,0.0059
2324.00,0.0059
2323.00,0.0057
2322.00,0.0056
2321.00,0.0054
2320.00,0.0054
2319.00,0.0053
2318.00,0.0052
2317.00,0.0052
2316.00,0.0052
2315.00,0.0052
2314.00,0.0052
2313.00,0.0051
2312.00,0.0051
2311.00,0.0050
2310.00,0.0050
2309.00,0.0050
2308.00,0.0050
2307.00,0.0050
2306.00,0.0049
2305.00,0.0049
2304.00,0.0049
2303.00,0.0049
2302.00,0.0050
2301.00,0.0050
2300.00,0.0050
2299.00,0.0050
2298.00,0.0051
2297.00,0.0051
2296.00,0.0051
2295.00,0.0052
2294.00,0.0052
2293.00,0.0053
2292.00,0.0054
2291.00,0.0055
2290.00,0.0056
2289.00,0.0057
2288.00,0.0057
2287.00,0.0057
2286.00,0.0057
2285.00,0.0056
2284.00,0.0056
2283.00,0.0055
2282.00,0.0055
2281.00,0.0054
2280.00,0.0053
2279.00,0.0052
2278.00,0.0052
2277.00,0.0051
2276.00,0.0051
2275.00,0.0052
2274.00,0.0052
2273.00,0.0052
2272.00,0.0052
2271.00,0.0052
2270.00,0.0052
2269.00,0.0052
2268.00,0.0051
2267.00,0.0050
2266.00,0.0050
2265.00,0.0049
2264.00,0.0050
2263.00,0.0050
2262.00,0.0051
2261.00,0.0051
2260.00,0.0051
2259.00,0.0051
2258.00,0.0049
2257.00,0.0048
2256.00,0.0047
2255.00,0.0047
2254.00,0.0047
2253.00,0.0049
2252.00,0.0050
2251.00,0.0050
2250.00,0.0050
2249.00,0.0050
2248.00,0.0049
2247.00,0.0049
2246.00,0.0050
2245.00,0.0050
2244.00,0.0050
2243.00,0.0050
2242.00,0.0050
2241.00,0.0050
2240.00,0.0050
2239.00,0.0049
2238.00,0.0049
2237.00,0.0048
2236.00,0.0048
2235.00,0.0049
2234.00,0.0048
2233.00,0.0048
2232.00,0.0049
2231.00,0.0049
2230.00,0.0049
2229.00,0.0049
2228.00,0.0048
2227.00,0.0047
2226.00,0.0046
2225.00,0.0046
2224.00,0.0046
2223.00,0.0046
2222.00,0.0047
2221.00,0.0048
2220.00,0.0049
2219.00,0.0049
2218.00,0.0049
2217.00,0.0048
2216.00,0.0047
2215.00,0.0048
2214.00,0.0048
2213.00,0.0049
2212.00,0.0050
2211.00,0.0050
2210.00,0.0049
2209.00,0.0049
2208.00,0.0048
2207.00,0.0048
2206.00,0.0047
2205.00,0.0047
2204.00,0.0048
2203.00,0.0049
2202.00,0.0050
2201.00,0.0050
2200.00,0.0050
2199.00,0.0050
2198.00,0.0049
2197.00,0.0048
2196.00,0.0047
2195.00,0.0047
2194.00,0.0048
2193.00,0.0049
2192.00,0.0050
2191.00,0.0049
2190.00,0.0048
2189.00,0.0048
2188.00,0.0049
2187.00,0.0049
2186.00,0.0049
2185.00,0.0048
2184.00,0.0047
2183.00,0.0046
2182.00,0.0045
2181.00,0.0045
2180.00,0.0046
2179.00,0.0046
2178.00,0.0046
2177.00,0.0045
2176.00,0.0044
2175.00,0.0043
2174.00,0.0044
2173.00,0.0045
2172.00,0.0049
2171.00,0.0052
2170.00,0.0055
2169.00,0.0056
2168.00,0.0057
2167.00,0.0058
2166.00,0.0058
2165.00,0.0058
2164.00,0.0058
2163.00,0.0057
2162.00,0.0054
2161.00,0.0046
2160.00,0.0035
2159.00,0.0025
2158.00,0.0021
2157.00,0.0021
2156.00,0.0022
2155.00,0.0024
2154.00,0.0025
2153.00,0.0027
2152.00,0.0029
2151.00,0.0030
2150.00,0.0030
2149.00,0.0030
2148.00,0.0031
2147.00,0.0032
2146.00,0.0032
2145.00,0.0032
2144.00,0.0032
2143.00,0.0032
2142.00,0.0032
2141.00,0.0032
2140.00,0.0032
2139.00,0.0031
2138.00,0.0031
2137.00,0.0030
2136.00,0.0029
2135.00,0.0027
2134.00,0.0027
2133.00,0.0028
2132.00,0.0030
2131.00,0.0032
2130.00,0.0033
2129.00,0.0034
2128.00,0.0035
2127.00,0.0036
2126.00,0.0036
2125.00,0.0036
2124.00,0.0037
2123.00,0.0039
2122.00,0.0040
2121.00,0.0041
2120.00,0.0042
2119.00,0.0042
2118.00,0.0043
2117.00,0.0043
2116.00,0.0044
2115.00,0.0045
2114.00,0.0045
2113.00,0.0045
2112.00,0.0045
2111.00,0.0044
2110.00,0.0044
2109.00,0.0043
2108.00,0.0043
2107.00,0.0043
2106.00,0.0043
2105.00,0.0043
2104.00,0.0043
2103.00,0.0043
2102.00,0.0043
2101.00,0.0043
2100.00,0.0043
2099.00,0.0043
2098.00,0.0041
2097.00,0.0040
2096.00,0.0039
2095.00,0.0038
2094.00,0.0037
2093.00,0.0037
2092.00,0.0039
2091.00,0.0040
2090.00,0.0041
2089.00,0.0041
2088.00,0.0041
2087.00,0.0042
2086.00,0.0042
2085.00,0.0043
2084.00,0.0044
2083.00,0.0045
2082.00,0.0045
2081.00,0.0044
2080.00,0.0044
2079.00,0.0044
2078.00,0.0044
2077.00,0.0044
2076.00,0.0044
2075.00,0.0044
2074.00,0.0044
2073.00,0.0044
2072.00,0.0043
2071.00,0.0042
2070.00,0.0041
2069.00,0.0040
2068.00,0.0040
2067.00,0.0041
2066.00,0.0041
2065.00,0.0041
2064.00,0.0041
2063.00,0.0041
2062.00,0.0040
2061.00,0.0040
2060.00,0.0041
2059.00,0.0042
2058.00,0.0043
2057.00,0.0044
2056.00,0.0044
2055.00,0.0045
2054.00,0.0047
2053.00,0.0050
2052.00,0.0053
2051.00,0.0054
2050.00,0.0051
2049.00,0.0046
2048.00,0.0044
2047.00,0.0043
2046.00,0.0043
2045.00,0.0044
2044.00,0.0045
2043.00,0.0045
2042.00,0.0044
2041.00,0.0044
2040.00,0.0045
2039.00,0.0046
2038.00,0.0046
2037.00,0.0046
2036.00,0.0045
2035.00,0.0044
2034.00,0.0042
2033.00,0.0040
2032.00,0.0038
2031.00,0.0036
2030.00,0.0034
2029.00,0.0033
2028.00,0.0034
2027.00,0.0035
2026.00,0.0036
2025.00,0.0038
2024.00,0.0039
2023.00,0.0038
2022.00,0.0036
2021.00,0.0035
2020.00,0.0035
2019.00,0.0036
2018.00,0.0036
2017.00,0.0036
2016.00,0.0036
2015.00,0.0036
2014.00,0.0035
2013.00,0.0035
2012.00,0.0036
2011.00,0.0037
2010.00,0.0038
2009.00,0.0037
2008.00,0.0037
2007.00,0.0036
2006.00,0.0035
2005.00,0.0036
2004.00,0.0038
2003.00,0.0037
2002.00,0.0036
2001.00,0.0034
2000.00,0.0033
1999.00,0.0033
1998.00,0.0032
1997.00,0.0032
1996.00,0.0033
1995.00,0.0035
1994.00,0.0036
1993.00,0.0038
1992.00,0.0039
1991.00,0.0040
1990.00,0.0040
1989.00,0.0040
1988.00,0.0041
1987.00,0.0042
1986.00,0.0044
1985.00,0.0045
1984.00,0.0047
1983.00,0.0050
1982.00,0.0052
1981.00,0.0053
1980.00,0.0051
1979.00,0.0047
1978.00,0.0041
1977.00,0.0037
1976.00,0.0035
1975.00,0.0035
1974.00,0.0035
1973.00,0.0034
1972.00,0.0033
1971.00,0.0031
1970.00,0.0029
1969.00,0.0029
1968.00,0.0029
1967.00,0.0030
1966.00,0.0031
1965.00,0.0031
1964.00,0.0030
1963.00,0.0029
1962.00,0.0028
1961.00,0.0026
1960.00,0.0026
1959.00,0.0026
1958.00,0.0026
1957.00,0.0028
1956.00,0.0030
1955.00,0.0032
1954.00,0.0032
1953.00,0.0033
1952.00,0.0034
1951.00,0.0034
1950.00,0.0034
1949.00,0.0034
1948.00,0.0035
1947.00,0.0035
1946.00,0.0034
1945.00,0.0034
1944.00,0.0034
1943.00,0.0034
1942.00,0.0034
1941.00,0.0034
1940.00,0.0034
1939.00,0.0035
1938.00,0.0035
1937.00,0.0035
1936.00,0.0035
1935.00,0.0034
1934.00,0.0033
1933.00,0.0033
1932.00,0.0034
1931.00,0.0034
1930.00,0.0034
1929.00,0.0034
1928.00,0.0034
1927.00,0.0034
1926.00,0.0035
1925.00,0.0035
1924.00,0.0035
1923.00,0.0035
1922.00,0.0035
1921.00,0.0035
1920.00,0.0036
1919.00,0.0036
1918.00,0.0036
1917.00,0.0036
1916.00,0.0036
1915.00,0.0036
1914.00,0.0036
1913.00,0.0036
1912.00,0.0036
1911.00,0.0037
1910.00,0.0037
1909.00,0.0037
1908.00,0.0037
1907.00,0.0037
1906.00,0.0038
1905.00,0.0038
1904.00,0.0038
1903.00,0.0038
1902.00,0.0037
1901.00,0.0036
1900.00,0.0036
1899.00,0.0037
1898.00,0.0037
1897.00,0.0037
1896.00,0.0037
1895.00,0.0037
1894.00,0.0036
1893.00,0.0036
1892.00,0.0036
1891.00,0.0037
1890.00,0.0037
1889.00,0.0038
1888.00,0.0038
1887.00,0.0038
1886.00,0.0038
1885.00,0.0037
1884.00,0.0037
1883.00,0.0037
1882.00,0.0037
1881.00,0.0037
1880.00,0.0038
1879.00,0.0038
1878.00,0.0038
1877.00,0.0038
1876.00,0.0038
1875.00,0.0038
1874.00,0.0038
1873.00,0.0037
1872.00,0.0037
1871.00,0.0037
1870.00,0.0036
1869.00,0.0037
1868.00,0.0038
1867.00,0.0038
1866.00,0.0038
1865.00,0.0038
1864.00,0.0038
1863.00,0.0039
1862.00,0.0038
1861.00,0.0038
1860.00,0.0038
1859.00,0.0038
1858.00,0.0038
1857.00,0.0038
1856.00,0.0038
1855.00,0.0038
1854.00,0.0037
1853.00,0.0037
1852.00,0.0038
1851.00,0.0038
1850.00,0.0038
1849.00,0.0038
1848.00,0.0038
1847.00,0.0038
1846.00,0.0038
1845.00,0.0037
1844.00,0.0037
1843.00,0.0037
1842.00,0.0037
1841.00,0.0038
1840.00,0.0038
1839.00,0.0039
1838.00,0.0039
1837.00,0.0039
1836.00,0.0039
1835.00,0.0039
1834.00,0.0039
1833.00,0.0039
1832.00,0.0039
1831.00,0.0039
1830.00,0.0038
1829.00,0.0038
1828.00,0.0038
1827.00,0.0038
1826.00,0.0038
1825.00,0.0038
1824.00,0.0039
1823.00,0.0039
1822.00,0.0038
1821.00,0.0038
1820.00,0.0037
1819.00,0.0036
1818.00,0.0036
1817.00,0.0036
1816.00,0.0036
1815.00,0.0037
1814.00,0.0037
1813.00,0.0037
1812.00,0.0038
1811.00,0.0038
1810.00,0.0039
1809.00,0.0039
1808.00,0.0039
1807.00,0.0039
1806.00,0.0039
1805.00,0.0039
1804.00,0.0039
1803.00,0.0039
1802.00,0.0039
1801.00,0.0039
1800.00,0.0039
1799.00,0.0040
1798.00,0.0040
1797.00,0.0040
1796.00,0.0040
1795.00,0.0040
1794.00,0.0039
1793.00,0.0039
1792.00,0.0039
1791.00,0.0040
1790.00,0.0040
1789.00,0.0040
1788.00,0.0040
1787.00,0.0041
1786.00,0.0041
1785.00,0.0040
1784.00,0.0041
1783.00,0.0041
1782.00,0.0041
1781.00,0.0042
1780.00,0.0042
1779.00,0.0043
1778.00,0.0042
1777.00,0.0042
1776.00,0.0042
1775.00,0.0042
1774.00,0.0042
1773.00,0.0043
1772.00,0.0044
1771.00,0.0044
1770.00,0.0044
1769.00,0.0044
1768.00,0.0044
1767.00,0.0045
1766.00,0.0045
1765.00,0.0045
1764.00,0.0046
1763.00,0.0046
1762.00,0.0046
1761.00,0.0047
1760.00,0.0047
1759.00,0.0048
1758.00,0.0048
1757.00,0.0048
1756.00,0.0049
1755.00,0.0050
1754.00,0.0051
1753.00,0.0052
1752.00,0.0053
1751.00,0.0054
1750.00,0.0055
1749.00,0.0056
1748.00,0.0057
1747.00,0.0058
1746.00,0.0058
1745.00,0.0058
1744.00,0.0058
1743.00,0.0059
1742.00,0.0058
1741.00,0.0058
1740.00,0.0059
1739.00,0.0060
1738.00,0.0060
1737.00,0.0060
1736.00,0.0061
1735.00,0.0061
1734.00,0.0061
1733.00,0.0063
1732.00,0.0065
1731.00,0.0067
1730.00,0.0069
1729.00,0.0070
1728.00,0.0072
1727.00,0.0074
1726.00,0.0075
1725.00,0.0077
1724.00,0.0080
1723.00,0.0082
1722.00,0.0084
1721.00,0.0085
1720.00,0.0087
1719.00,0.0090
1718.00,0.0093
1717.00,0.0097
1716.00,0.0102
1715.00,0.0107
1714.00,0.0112
1713.00,0.0117
1712.00,0.0124
1711.00,0.0131
1710.00,0.0139
1709.00,0.0147
1708.00,0.0158
1707.00,0.0169
1706.00,0.0182
1705.00,0.0198
1704.00,0.0214
1703.00,0.0230
1702.00,0.0247
1701.00,0.0270
1700.00,0.0301
1699.00,0.0333
1698.00,0.0362
1697.00,0.0395
1696.00,0.0434
1695.00,0.0476
1694.00,0.0516
1693.00,0.0553
1692.00,0.0593
1691.00,0.0635
1690.00,0.0677
1689.00,0.0720
1688.00,0.0761
1687.00,0.0800
1686.00,0.0838
1685.00,0.0876
1684.00,0.0913
1683.00,0.0946
1682.00,0.0974
1681.00,0.1003
1680.00,0.1032
1679.00,0.1059
1678.00,0.1082
1677.00,0.1103
1676.00,0.1120
1675.00,0.1133
1674.00,0.1145
1673.00,0.1159
1672.00,0.1177
1671.00,0.1192
1670.00,0.1203
1669.00,0.1211
1668.00,0.1222
1667.00,0.1237
1666.00,0.1256
1665.00,0.1276
1664.00,0.1294
1663.00,0.1309
1662.00,0.1320
1661.00,0.1332
1660.00,0.1345
1659.00,0.1359
1658.00,0.1372
1657.00,0.1385
1656.00,0.1398
1655.00,0.1407
1654.00,0.1395
1653.00,0.1360
1652.00,0.1325
1651.00,0.1309
1650.00,0.1305
1649.00,0.1298
1648.00,0.1276
1647.00,0.1235
1646.00,0.1183
1645.00,0.1135
1644.00,0.1095
1643.00,0.1059
1642.00,0.1021
1641.00,0.0980
1640.00,0.0938
1639.00,0.0898
1638.00,0.0858
1637.00,0.0813
1636.00,0.0760
1635.00,0.0707
1634.00,0.0665
1633.00,0.0636
1632.00,0.0613
1631.00,0.0592
1630.00,0.0572
1629.00,0.0552
1628.00,0.0534
1627.00,0.0519
1626.00,0.0507
1625.00,0.0497
1624.00,0.0488
1623.00,0.0480
1622.00,0.0473
1621.00,0.0468
1620.00,0.0464
1619.00,0.0460
1618.00,0.0454
1617.00,0.0443
1616.00,0.0431
1615.00,0.0419
1614.00,0.0407
1613.00,0.0395
1612.00,0.0381
1611.00,0.0366
1610.00,0.0351
1609.00,0.0336
1608.00,0.0323
1607.00,0.0311
1606.00,0.0301
1605.00,0.0293
1604.00,0.0287
1603.00,0.0284
1602.00,0.0283
1601.00,0.0285
1600.00,0.0289
1599.00,0.0295
1598.00,0.0302
1597.00,0.0309
1596.00,0.0316
1595.00,0.0323
1594.00,0.0327
1593.00,0.0330
1592.00,0.0330
1591.00,0.0329
1590.00,0.0326
1589.00,0.0322
1588.00,0.0317
1587.00,0.0311
1586.00,0.0304
1585.00,0.0297
1584.00,0.0288
1583.00,0.0279
1582.00,0.0270
1581.00,0.0260
1580.00,0.0251
1579.00,0.0243
1578.00,0.0234
1577.00,0.0224
1576.00,0.0214
1575.00,0.0206
1574.00,0.0199
1573.00,0.0194
1572.00,0.0189
1571.00,0.0184
1570.00,0.0179
1569.00,0.0174
1568.00,0.0170
1567.00,0.0166
1566.00,0.0163
1565.00,0.0161
1564.00,0.0158
1563.00,0.0155
1562.00,0.0152
1561.00,0.0149
1560.00,0.0144
1559.00,0.0142
1558.00,0.0141
1557.00,0.0140
1556.00,0.0139
1555.00,0.0139
1554.00,0.0138
1553.00,0.0138
1552.00,0.0137
1551.00,0.0136
1550.00,0.0136
1549.00,0.0135
1548.00,0.0134
1547.00,0.0134
1546.00,0.0133
1545.00,0.0133
1544.00,0.0132
1543.00,0.0132
1542.00,0.0131
1541.00,0.0131
1540.00,0.0131
1539.00,0.0131
1538.00,0.0130
1537.00,0.0131
1536.00,0.0131
1535.00,0.0131
1534.00,0.0131
1533.00,0.0130
1532.00,0.0130
1531.00,0.0130
1530.00,0.0130
1529.00,0.0130
1528.00,0.0130
1527.00,0.0131
1526.00,0.0131
1525.00,0.0131
1524.00,0.0131
1523.00,0.0131
1522.00,0.0132
1521.00,0.0132
1520.00,0.0132
1519.00,0.0133
1518.00,0.0134
1517.00,0.0135
1516.00,0.0136
1515.00,0.0136
1514.00,0.0136
1513.00,0.0137
1512.00,0.0139
1511.00,0.0141
1510.00,0.0143
1509.00,0.0146
1508.00,0.0150
1507.00,0.0157
1506.00,0.0164
1505.00,0.0171
1504.00,0.0180
1503.00,0.0191
1502.00,0.0203
1501.00,0.0216
1500.00,0.0229
1499.00,0.0244
1498.00,0.0259
1497.00,0.0274
1496.00,0.0287
1495.00,0.0296
1494.00,0.0303
1493.00,0.0306
1492.00,0.0305
1491.00,0.0299
1490.00,0.0289
1489.00,0.0276
1488.00,0.0261
1487.00,0.0247
1486.00,0.0233
1485.00,0.0221
1484.00,0.0211
1483.00,0.0202
1482.00,0.0195
1481.00,0.0190
1480.00,0.0187
1479.00,0.0186
1478.00,0.0187
1477.00,0.0190
1476.00,0.0196
1475.00,0.0204
1474.00,0.0215
1473.00,0.0231
1472.00,0.0252
1471.00,0.0276
1470.00,0.0302
1469.00,0.0330
1468.00,0.0362
1467.00,0.0395
1466.00,0.0432
1465.00,0.0471
1464.00,0.0509
1463.00,0.0539
1462.00,0.0562
1461.00,0.0578
1460.00,0.0586
1459.00,0.0585
1458.00,0.0570
1457.00,0.0545
1456.00,0.0517
1455.00,0.0496
1454.00,0.0483
1453.00,0.0475
1452.00,0.0470
1451.00,0.0468
1450.00,0.0471
1449.00,0.0479
1448.00,0.0493
1447.00,0.0511
1446.00,0.0531
1445.00,0.0555
1444.00,0.0581
1443.00,0.0607
1442.00,0.0633
1441.00,0.0659
1440.00,0.0684
1439.00,0.0706
1438.00,0.0727
1437.00,0.0747
1436.00,0.0766
1435.00,0.0784
1434.00,0.0804
1433.00,0.0825
1432.00,0.0848
1431.00,0.0870
1430.00,0.0891
1429.00,0.0913
1428.00,0.0935
1427.00,0.0955
1426.00,0.0975
1425.00,0.0994
1424.00,0.1011
1423.00,0.1023
1422.00,0.1028
1421.00,0.1025
1420.00,0.1004
1419.00,0.0964
1418.00,0.0912
1417.00,0.0859
1416.00,0.0807
1415.00,0.0753
1414.00,0.0700
1413.00,0.0649
1412.00,0.0601
1411.00,0.0558
1410.00,0.0522
1409.00,0.0492
1408.00,0.0467
1407.00,0.0445
1406.00,0.0426
1405.00,0.0411
1404.00,0.0397
1403.00,0.0386
1402.00,0.0378
1401.00,0.0372
1400.00,0.0365
1399.00,0.0359
1398.00,0.0355
1397.00,0.0352
1396.00,0.0348
1395.00,0.0346
1394.00,0.0344
1393.00,0.0343
1392.00,0.0344
1391.00,0.0345
1390.00,0.0347
1389.00,0.0349
1388.00,0.0353
1387.00,0.0358
1386.00,0.0364
1385.00,0.0372
1384.00,0.0382
1383.00,0.0392
1382.00,0.0405
1381.00,0.0419
1380.00,0.0433
1379.00,0.0447
1378.00,0.0460
1377.00,0.0472
1376.00,0.0480
1375.00,0.0485
1374.00,0.0485
1373.00,0.0482
1372.00,0.0476
1371.00,0.0469
1370.00,0.0461
1369.00,0.0451
1368.00,0.0441
1367.00,0.0430
1366.00,0.0419
1365.00,0.0408
1364.00,0.0395
1363.00,0.0382
1362.00,0.0369
1361.00,0.0357
1360.00,0.0346
1359.00,0.0336
1358.00,0.0328
1357.00,0.0320
1356.00,0.0313
1355.00,0.0307
1354.00,0.0301
1353.00,0.0296
1352.00,0.0291
1351.00,0.0286
1350.00,0.0282
1349.00,0.0279
1348.00,0.0276
1347.00,0.0273
1346.00,0.0271
1345.00,0.0269
1344.00,0.0267
1343.00,0.0266
1342.00,0.0265
1341.00,0.0264
1340.00,0.0264
1339.00,0.0264
1338.00,0.0264
1337.00,0.0265
1336.00,0.0266
1335.00,0.0268
1334.00,0.0271
1333.00,0.0274
1332.00,0.0278
1331.00,0.0282
1330.00,0.0288
1329.00,0.0295
1328.00,0.0303
1327.00,0.0313
1326.00,0.0323
1325.00,0.0335
1324.00,0.0348
1323.00,0.0361
1322.00,0.0373
1321.00,0.0386
1320.00,0.0396
1319.00,0.0405
1318.00,0.0411
1317.00,0.0414
1316.00,0.0414
1315.00,0.0411
1314.00,0.0406
1313.00,0.0399
1312.00,0.0392
1311.00,0.0384
1310.00,0.0377
1309.00,0.0371
1308.00,0.0367
1307.00,0.0365
1306.00,0.0365
1305.00,0.0367
1304.00,0.0372
1303.00,0.0381
1302.00,0.0394
1301.00,0.0412
1300.00,0.0436
1299.00,0.0467
1298.00,0.0504
1297.00,0.0548
1296.00,0.0598
1295.00,0.0653
1294.00,0.0710
1293.00,0.0767
1292.00,0.0824
1291.00,0.0876
1290.00,0.0923
1289.00,0.0964
1288.00,0.0996
1287.00,0.1019
1286.00,0.1031
1285.00,0.1033
1284.00,0.1026
1283.00,0.1009
1282.00,0.0988
1281.00,0.0964
1280.00,0.0941
1279.00,0.0923
1278.00,0.0910
1277.00,0.0905
1276.00,0.0906
1275.00,0.0911
1274.00,0.0919
1273.00,0.0926
1272.00,0.0930
1271.00,0.0930
1270.00,0.0924
1269.00,0.0912
1268.00,0.0893
1267.00,0.0869
1266.00,0.0841
1265.00,0.0811
1264.00,0.0780
1263.00,0.0750
1262.00,0.0722
1261.00,0.0697
1260.00,0.0676
1259.00,0.0658
1258.00,0.0645
1257.00,0.0635
1256.00,0.0629
1255.00,0.0623
1254.00,0.0619
1253.00,0.0615
1252.00,0.0611
1251.00,0.0606
1250.00,0.0600
1249.00,0.0593
1248.00,0.0586
1247.00,0.0578
1246.00,0.0569
1245.00,0.0561
1244.00,0.0552
1243.00,0.0542
1242.00,0.0534
1241.00,0.0526
1240.00,0.0518
1239.00,0.0513
1238.00,0.0508
1237.00,0.0506
1236.00,0.0504
1235.00,0.0504
1234.00,0.0504
1233.00,0.0505
1232.00,0.0506
1231.00,0.0507
1230.00,0.0507
1229.00,0.0507
1228.00,0.0506
1227.00,0.0505
1226.00,0.0503
1225.00,0.0500
1224.00,0.0497
1223.00,0.0494
1222.00,0.0489
1221.00,0.0484
1220.00,0.0479
1219.00,0.0473
1218.00,0.0467
1217.00,0.0460
1216.00,0.0452
1215.00,0.0444
1214.00,0.0435
1213.00,0.0426
1212.00,0.0417
1211.00,0.0407
1210.00,0.0398
1209.00,0.0390
1208.00,0.0383
1207.00,0.0376
1206.00,0.0371
1205.00,0.0367
1204.00,0.0363
1203.00,0.0358
1202.00,0.0354
1201.00,0.0350
1200.00,0.0346
1199.00,0.0341
1198.00,0.0337
1197.00,0.0333
1196.00,0.0330
1195.00,0.0327
1194.00,0.0325
1193.00,0.0324
1192.00,0.0324
1191.00,0.0323
1190.00,0.0323
1189.00,0.0323
1188.00,0.0322
1187.00,0.0320
1186.00,0.0318
1185.00,0.0316
1184.00,0.0314
1183.00,0.0312
1182.00,0.0311
1181.00,0.0310
1180.00,0.0312
1179.00,0.0315
1178.00,0.0319
1177.00,0.0325
1176.00,0.0332
1175.00,0.0340
1174.00,0.0348
1173.00,0.0356
1172.00,0.0363
1171.00,0.0367
1170.00,0.0369
1169.00,0.0369
1168.00,0.0367
1167.00,0.0364
1166.00,0.0359
1165.00,0.0354
1164.00,0.0348
1163.00,0.0342
1162.00,0.0337
1161.00,0.0334
1160.00,0.0331
1159.00,0.0331
1158.00,0.0333
1157.00,0.0337
1156.00,0.0343
1155.00,0.0348
1154.00,0.0351
1153.00,0.0351
1152.00,0.0347
1151.00,0.0339
1150.00,0.0328
1149.00,0.0315
1148.00,0.0302
1147.00,0.0289
1146.00,0.0277
1145.00,0.0266
1144.00,0.0256
1143.00,0.0248
1142.00,0.0242
1141.00,0.0237
1140.00,0.0234
1139.00,0.0232
1138.00,0.0231
1137.00,0.0231
1136.00,0.0231
1135.00,0.0231
1134.00,0.0231
1133.00,0.0232
1132.00,0.0231
1131.00,0.0231
1130.00,0.0230
1129.00,0.0229
1128.00,0.0228
1127.00,0.0227
1126.00,0.0226
1125.00,0.0224
1124.00,0.0223
1123.00,0.0222
1122.00,0.0222
1121.00,0.0222
1120.00,0.0223
1119.00,0.0223
1118.00,0.0224
1117.00,0.0225
1116.00,0.0226
1115.00,0.0228
1114.00,0.0230
1113.00,0.0233
1112.00,0.0235
1111.00,0.0236
1110.00,0.0238
1109.00,0.0239
1108.00,0.0240
1107.00,0.0241
1106.00,0.0242
1105.00,0.0243
1104.00,0.0243
1103.00,0.0244
1102.00,0.0245
1101.00,0.0247
1100.00,0.0248
1099.00,0.0249
1098.00,0.0250
1097.00,0.0251
1096.00,0.0250
1095.00,0.0249
1094.00,0.0247
1093.00,0.0245
1092.00,0.0242
1091.00,0.0238
1090.00,0.0235
1089.00,0.0233
1088.00,0.0231
1087.00,0.0229
1086.00,0.0229
1085.00,0.0229
1084.00,0.0230
1083.00,0.0231
1082.00,0.0234
1081.00,0.0237
1080.00,0.0240
1079.00,0.0244
1078.00,0.0247
1077.00,0.0250
1076.00,0.0252
1075.00,0.0253
1074.00,0.0253
1073.00,0.0252
1072.00,0.0249
1071.00,0.0246
1070.00,0.0243
1069.00,0.0241
1068.00,0.0240
1067.00,0.0239
1066.00,0.0240
1065.00,0.0243
1064.00,0.0248
1063.00,0.0255
1062.00,0.0265
1061.00,0.0279
1060.00,0.0296
1059.00,0.0315
1058.00,0.0334
1057.00,0.0351
1056.00,0.0361
1055.00,0.0364
1054.00,0.0359
1053.00,0.0349
1052.00,0.0335
1051.00,0.0321
1050.00,0.0310
1049.00,0.0304
1048.00,0.0303
1047.00,0.0307
1046.00,0.0315
1045.00,0.0326
1044.00,0.0340
1043.00,0.0356
1042.00,0.0373
1041.00,0.0391
1040.00,0.0410
1039.00,0.0431
1038.00,0.0452
1037.00,0.0475
1036.00,0.0498
1035.00,0.0520
1034.00,0.0540
1033.00,0.0556
1032.00,0.0566
1031.00,0.0570
1030.00,0.0567
1029.00,0.0558
1028.00,0.0543
1027.00,0.0524
1026.00,0.0504
1025.00,0.0483
1024.00,0.0464
1023.00,0.0447
1022.00,0.0434
1021.00,0.0424
1020.00,0.0415
1019.00,0.0407
1018.00,0.0399
1017.00,0.0390
1016.00,0.0378
1015.00,0.0365
1014.00,0.0350
1013.00,0.0335
1012.00,0.0320
1011.00,0.0306
1010.00,0.0295
1009.00,0.0286
1008.00,0.0281
1007.00,0.0278
1006.00,0.0278
1005.00,0.0279
1004.00,0.0281
1003.00,0.0282
1002.00,0.0283
1001.00,0.0281
1000.00,0.0278
999.00,0.0273
998.00,0.0267
997.00,0.0260
996.00,0.0254
995.00,0.0247
994.00,0.0241
993.00,0.0236
992.00,0.0232
991.00,0.0229
990.00,0.0227
989.00,0.0225
988.00,0.0223
987.00,0.0221
986.00,0.0219
985.00,0.0216
984.00,0.0212
983.00,0.0209
982.00,0.0205
981.00,0.0202
980.00,0.0199
979.00,0.0196
978.00,0.0195
977.00,0.0194
976.00,0.0193
975.00,0.0192
974.00,0.0191
973.00,0.0191
972.00,0.0191
971.00,0.0191
970.00,0.0191
969.00,0.0191
968.00,0.0191
967.00,0.0192
966.00,0.0192
965.00,0.0193
964.00,0.0194
963.00,0.0195
962.00,0.0196
961.00,0.0198
960.00,0.0201
959.00,0.0203
958.00,0.0205
957.00,0.0207
956.00,0.0207
955.00,0.0206
954.00,0.0203
953.00,0.0200
952.00,0.0195
951.00,0.0189
950.00,0.0184
949.00,0.0178
948.00,0.0173
947.00,0.0169
946.00,0.0165
945.00,0.0162
944.00,0.0160
943.00,0.0159
942.00,0.0159
941.00,0.0161
940.00,0.0164
939.00,0.0167
938.00,0.0173
937.00,0.0179
936.00,0.0186
935.00,0.0193
934.00,0.0199
933.00,0.0202
932.00,0.0203
931.00,0.0200
930.00,0.0196
929.00,0.0190
928.00,0.0185
927.00,0.0181
926.00,0.0178
925.00,0.0175
924.00,0.0173
923.00,0.0171
922.00,0.0169
921.00,0.0168
920.00,0.0167
919.00,0.0166
918.00,0.0165
917.00,0.0165
916.00,0.0165
915.00,0.0166
914.00,0.0167
913.00,0.0167
912.00,0.0168
911.00,0.0169
910.00,0.0171
909.00,0.0174
908.00,0.0177
907.00,0.0181
906.00,0.0186
905.00,0.0192
904.00,0.0198
903.00,0.0206
902.00,0.0213
901.00,0.0220
900.00,0.0227
899.00,0.0233
898.00,0.0238
897.00,0.0242
896.00,0.0246
895.00,0.0249
894.00,0.0251
893.00,0.0253
892.00,0.0254
891.00,0.0255
890.00,0.0257
889.00,0.0258
888.00,0.0259
887.00,0.0260
886.00,0.0261
885.00,0.0262
884.00,0.0263
883.00,0.0264
882.00,0.0264
881.00,0.0263
880.00,0.0261
879.00,0.0259
878.00,0.0255
877.00,0.0252
876.00,0.0248
875.00,0.0244
874.00,0.0239
873.00,0.0236
872.00,0.0232
871.00,0.0230
870.00,0.0228
869.00,0.0227
868.00,0.0227
867.00,0.0227
866.00,0.0228
865.00,0.0231
864.00,0.0234
863.00,0.0237
862.00,0.0241
861.00,0.0247
860.00,0.0253
859.00,0.0260
858.00,0.0268
857.00,0.0277
856.00,0.0287
855.00,0.0296
854.00,0.0306
853.00,0.0314
852.00,0.0323
851.00,0.0331
850.00,0.0338
849.00,0.0345
848.00,0.0351
847.00,0.0355
846.00,0.0359
845.00,0.0361
844.00,0.0363
843.00,0.0363
842.00,0.0363
841.00,0.0362
840.00,0.0361
839.00,0.0360
838.00,0.0358
837.00,0.0357
836.00,0.0356
835.00,0.0355
834.00,0.0355
833.00,0.0355
832.00,0.0354
831.00,0.0353
830.00,0.0350
829.00,0.0347
828.00,0.0342
827.00,0.0336
826.00,0.0329
825.00,0.0321
824.00,0.0313
823.00,0.0305
822.00,0.0298
821.00,0.0291
820.00,0.0285
819.00,0.0279
818.00,0.0274
817.00,0.0268
816.00,0.0261
815.00,0.0256
814.00,0.0251
813.00,0.0247
812.00,0.0243
811.00,0.0240
810.00,0.0238
809.00,0.0237
808.00,0.0237
807.00,0.0237
806.00,0.0238
805.00,0.0238
804.00,0.0237
803.00,0.0234
802.00,0.0231
801.00,0.0227
800.00,0.0224
799.00,0.0222
798.00,0.0221
797.00,0.0222
796.00,0.0223
795.00,0.0225
794.00,0.0227
793.00,0.0228
792.00,0.0228
791.00,0.0227
790.00,0.0226
789.00,0.0225
788.00,0.0223
787.00,0.0221
786.00,0.0219
785.00,0.0218
784.00,0.0217
783.00,0.0216
782.00,0.0217
781.00,0.0218
780.00,0.0220
779.00,0.0222
778.00,0.0225
777.00,0.0229
776.00,0.0233
775.00,0.0236
774.00,0.0239
773.00,0.0242
772.00,0.0244
771.00,0.0245
770.00,0.0247
769.00,0.0248
768.00,0.0250
767.00,0.0252
766.00,0.0255
765.00,0.0258
764.00,0.0262
763.00,0.0266
762.00,0.0271
761.00,0.0277
760.00,0.0282
759.00,0.0287
758.00,0.0292
757.00,0.0296
756.00,0.0299
755.00,0.0301
754.00,0.0302
753.00,0.0303
752.00,0.0303
751.00,0.0304
750.00,0.0307
749.00,0.0309
748.00,0.0313
747.00,0.0317
746.00,0.0321
745.00,0.0325
744.00,0.0330
743.00,0.0335
742.00,0.0340
741.00,0.0346
740.00,0.0353
739.00,0.0359
738.00,0.0365
737.00,0.0369
736.00,0.0373
735.00,0.0377
734.00,0.0379
733.00,0.0380
732.00,0.0379
731.00,0.0376
730.00,0.0371
729.00,0.0364
728.00,0.0357
727.00,0.0350
726.00,0.0343
725.00,0.0335
724.00,0.0329
723.00,0.0322
722.00,0.0316
721.00,0.0310
720.00,0.0306
719.00,0.0303
718.00,0.0300
717.00,0.0297
716.00,0.0295
715.00,0.0293
714.00,0.0292
713.00,0.0291
712.00,0.0291
711.00,0.0290
710.00,0.0290
709.00,0.0289
708.00,0.0289
707.00,0.0289
706.00,0.0290
705.00,0.0291
704.00,0.0292
703.00,0.0294
702.00,0.0295
701.00,0.0296
700.00,0.0298
699.00,0.0299
698.00,0.0302
697.00,0.0304
696.00,0.0307
695.00,0.0310
694.00,0.0312
693.00,0.0315
692.00,0.0318
691.00,0.0322
690.00,0.0325
689.00,0.0329
688.00,0.0333
687.00,0.0337
686.00,0.0341
685.00,0.0345
684.00,0.0349
683.00,0.0354
682.00,0.0358
681.00,0.0362
680.00,0.0367
679.00,0.0371
678.00,0.0375
677.00,0.0380
676.00,0.0384
675.00,0.0388
674.00,0.0391
673.00,0.0394
672.00,0.0397
671.00,0.0401
670.00,0.0406
669.00,0.0413
668.00,0.0421
667.00,0.0429
666.00,0.0435
665.00,0.0440
664.00,0.0446
663.00,0.0453
662.00,0.0462
661.00,0.0471
660.00,0.0480
659.00,0.0490
658.00,0.0501
657.00,0.0513
656.00,0.0524
655.00,0.0535
654.00,0.0546
653.00,0.0556
652.00,0.0566
651.00,0.0574
650.00,0.0579
649.00,0.0583
648.00,0.0585
647.00,0.0584
646.00,0.0582
645.00,0.0577
644.00,0.0571
643.00,0.0563
642.00,0.0553
641.00,0.0543
640.00,0.0531
639.00,0.0520
638.00,0.0510
637.00,0.0501
636.00,0.0491
635.00,0.0483
634.00,0.0474
633.00,0.0466
632.00,0.0458
631.00,0.0450
630.00,0.0443
629.00,0.0438
628.00,0.0433
627.00,0.0428
626.00,0.0424
625.00,0.0420
624.00,0.0417
623.00,0.0414
622.00,0.0412
621.00,0.0410
620.00,0.0407
619.00,0.0406
618.00,0.0404
617.00,0.0404
616.00,0.0404
615.00,0.0405
614.00,0.0405
613.00,0.0406
612.00,0.0408
611.00,0.0410
610.00,0.0411
609.00,0.0412
608.00,0.0411
607.00,0.0411
606.00,0.0411
605.00,0.0412
604.00,0.0412
603.00,0.0412
602.00,0.0413
601.00,0.0414
600.00,0.0415
599.00,0.0416
598.00,0.0418
597.00,0.0419
596.00,0.0422
595.00,0.0424
594.00,0.0427
593.00,0.0430
592.00,0.0434
591.00,0.0438
590.00,0.0443
589.00,0.0449
588.00,0.0455
587.00,0.0462
586.00,0.0471
585.00,0.0481
584.00,0.0492
583.00,0.0503
582.00,0.0514
581.00,0.0525
580.00,0.0535
579.00,0.0544
578.00,0.0552
577.00,0.0558
576.00,0.0562
575.00,0.0565
574.00,0.0567
573.00,0.0567
572.00,0.0567
571.00,0.0565
570.00,0.0563
569.00,0.0559
568.00,0.0555
567.00,0.0550
566.00,0.0544
565.00,0.0537
564.00,0.0529
563.00,0.0521
562.00,0.0513
561.00,0.0506
560.00,0.0500
559.00,0.0495
558.00,0.0490
557.00,0.0486
556.00,0.0485
555.00,0.0484
554.00,0.0484
553.00,0.0482
552.00,0.0479
551.00,0.0476
550.00,0.0472
549.00,0.0468
548.00,0.0463
547.00,0.0458
546.00,0.0452
545.00,0.0446
544.00,0.0439
543.00,0.0434
542.00,0.0429
541.00,0.0425
540.00,0.0421
539.00,0.0418
538.00,0.0416
537.00,0.0415
536.00,0.0416
535.00,0.0417
534.00,0.0416
533.00,0.0416
532.00,0.0415
531.00,0.0414
530.00,0.0415
529.00,0.0416
528.00,0.0419
527.00,0.0423
526.00,0.0427
525.00,0.0430
524.00,0.0431
523.00,0.0430
522.00,0.0428
521.00,0.0425
520.00,0.0420
519.00,0.0414
518.00,0.0408
517.00,0.0402
516.00,0.0398
515.00,0.0395
514.00,0.0392
513.00,0.0390
512.00,0.0388
511.00,0.0386
510.00,0.0385
509.00,0.0383
508.00,0.0382
507.00,0.0380
506.00,0.0378
505.00,0.0377
504.00,0.0376
503.00,0.0375
502.00,0.0375
501.00,0.0376
500.00,0.0376
499.00,0.0376
498.00,0.0377
497.00,0.0379
496.00,0.0381
495.00,0.0383
494.00,0.0386
493.00,0.0391
492.00,0.0394
491.00,0.0397
490.00,0.0399
489.00,0.0401
488.00,0.0403
487.00,0.0406
486.00,0.0408
485.00,0.0410
484.00,0.0413
483.00,0.0414
482.00,0.0414
481.00,0.0411
480.00,0.0408
479.00,0.0406
478.00,0.0408
477.00,0.0412
476.00,0.0417
475.00,0.0421
474.00,0.0423
473.00,0.0424
472.00,0.0422
471.00,0.0421
470.00,0.0420
469.00,0.0419
468.00,0.0417
467.00,0.0415
466.00,0.0413
465.00,0.0410
464.00,0.0408
463.00,0.0405
462.00,0.0403
461.00,0.0401
460.00,0.0398
459.00,0.0393
458.00,0.0388
457.00,0.0383
456.00,0.0380
455.00,0.0380
454.00,0.0383
453.00,0.0386
452.00,0.0388
451.00,0.0386
450.00,0.0381
449.00,0.0376
448.00,0.0373
447.00,0.0372
446.00,0.0372
445.00,0.0372
444.00,0.0370
443.00,0.0368
442.00,0.0366
441.00,0.0365
440.00,0.0362
439.00,0.0359
438.00,0.0358
437.00,0.0359
436.00,0.0363
435.00,0.0367
434.00,0.0370
433.00,0.0369
432.00,0.0364
431.00,0.0359
430.00,0.0357
429.00,0.0360
428.00,0.0362
427.00,0.0362
426.00,0.0362
425.00,0.0363
424.00,0.0364
423.00,0.0361
422.00,0.0356
421.00,0.0352
420.00,0.0352
419.00,0.0353
418.00,0.0353
417.00,0.0353
416.00,0.0355
415.00,0.0358
414.00,0.0359
413.00,0.0360
412.00,0.0361
411.00,0.0365
410.00,0.0370
409.00,0.0371
408.00,0.0369
407.00,0.0363
406.00,0.0357
405.00,0.0354
404.00,0.0354
403.00,0.0359
402.00,0.0368
401.00,0.0371
400.00,0.0361
