Created as New Dataset,Sample 540 By YargerLab Date Thursday, February 19 2026
cm-1,A
4000.00,0.0053
3999.00,0.0053
3998.00,0.0053
3997.00,0.0053
3996.00,0.0053
3995.00,0.0053
3994.00,0.0054
3993.00,0.0054
3992.00,0.0054
3991.00,0.0054
3990.00,0.0053
3989.00,0.0053
3988.00,0.0053
3987.00,0.0053
3986.00,0.0053
3985.00,0.0053
3984.00,0.0053
3983.00,0.0053
3982.00,0.0053
3981.00,0.0053
3980.00,0.0053
3979.00,0.0053
3978.00,0.0053
3977.00,0.0053
3976.00,0.0053
3975.00,0.0053
3974.00,0.0053
3973.00,0.0053
3972.00,0.0053
3971.00,0.0053
3970.00,0.0053
3969.00,0.0053
3968.00,0.0053
3967.00,0.0053
3966.00,0.0053
3965.00,0.0054
3964.00,0.0054
3963.00,0.0053
3962.00,0.0053
3961.00,0.0053
3960.00,0.0053
3959.00,0.0053
3958.00,0.0053
3957.00,0.0053
3956.00,0.0053
3955.00,0.0053
3954.00,0.0053
3953.00,0.0053
3952.00,0.0053
3951.00,0.0053
3950.00,0.0053
3949.00,0.0053
3948.00,0.0053
3947.00,0.0053
3946.00,0.0053
3945.00,0.0053
3944.00,0.0053
3943.00,0.0053
3942.00,0.0053
3941.00,0.0053
3940.00,0.0053
3939.00,0.0053
3938.00,0.0053
3937.00,0.0053
3936.00,0.0053
3935.00,0.0053
3934.00,0.0053
3933.00,0.0053
3932.00,0.0053
3931.00,0.0053
3930.00,0.0053
3929.00,0.0053
3928.00,0.0053
3927.00,0.0053
3926.00,0.0053
3925.00,0.0053
3924.00,0.0053
3923.00,0.0053
3922.00,0.0053
3921.00,0.0053
3920.00,0.0053
3919.00,0.0053
3918.00,0.0053
3917.00,0.0053
3916.00,0.0053
3915.00,0.0053
3914.00,0.0053
3913.00,0.0053
3912.00,0.0053
3911.00,0.0053
3910.00,0.0053
3909.00,0.0053
3908.00,0.0053
3907.00,0.0053
3906.00,0.0053
3905.00,0.0053
3904.00,0.0053
3903.00,0.0053
3902.00,0.0053
3901.00,0.0053
3900.00,0.0053
3899.00,0.0053
3898.00,0.0053
3897.00,0.0053
3896.00,0.0053
3895.00,0.0053
3894.00,0.0053
3893.00,0.0053
3892.00,0.0053
3891.00,0.0053
3890.00,0.0053
3889.00,0.0053
3888.00,0.0052
3887.00,0.0053
3886.00,0.0053
3885.00,0.0053
3884.00,0.0052
3883.00,0.0052
3882.00,0.0052
3881.00,0.0052
3880.00,0.0052
3879.00,0.0052
3878.00,0.0052
3877.00,0.0052
3876.00,0.0052
3875.00,0.0052
3874.00,0.0052
3873.00,0.0052
3872.00,0.0052
3871.00,0.0052
3870.00,0.0052
3869.00,0.0052
3868.00,0.0052
3867.00,0.0052
3866.00,0.0052
3865.00,0.0052
3864.00,0.0052
3863.00,0.0052
3862.00,0.0052
3861.00,0.0052
3860.00,0.0052
3859.00,0.0051
3858.00,0.0051
3857.00,0.0051
3856.00,0.0051
3855.00,0.0051
3854.00,0.0051
3853.00,0.0051
3852.00,0.0051
3851.00,0.0051
3850.00,0.0052
3849.00,0.0052
3848.00,0.0052
3847.00,0.0052
3846.00,0.0052
3845.00,0.0052
3844.00,0.0052
3843.00,0.0052
3842.00,0.0052
3841.00,0.0052
3840.00,0.0052
3839.00,0.0052
3838.00,0.0051
3837.00,0.0052
3836.00,0.0052
3835.00,0.0052
3834.00,0.0052
3833.00,0.0052
3832.00,0.0052
3831.00,0.0053
3830.00,0.0053
3829.00,0.0053
3828.00,0.0053
3827.00,0.0053
3826.00,0.0053
3825.00,0.0053
3824.00,0.0053
3823.00,0.0053
3822.00,0.0053
3821.00,0.0053
3820.00,0.0052
3819.00,0.0052
3818.00,0.0052
3817.00,0.0052
3816.00,0.0052
3815.00,0.0052
3814.00,0.0052
3813.00,0.0053
3812.00,0.0053
3811.00,0.0053
3810.00,0.0053
3809.00,0.0053
3808.00,0.0053
3807.00,0.0052
3806.00,0.0052
3805.00,0.0052
3804.00,0.0052
3803.00,0.0052
3802.00,0.0052
3801.00,0.0052
3800.00,0.0052
3799.00,0.0052
3798.00,0.0052
3797.00,0.0052
3796.00,0.0052
3795.00,0.0053
3794.00,0.0053
3793.00,0.0053
3792.00,0.0053
3791.00,0.0053
3790.00,0.0053
3789.00,0.0053
3788.00,0.0053
3787.00,0.0053
3786.00,0.0053
3785.00,0.0053
3784.00,0.0053
3783.00,0.0053
3782.00,0.0053
3781.00,0.0053
3780.00,0.0053
3779.00,0.0053
3778.00,0.0053
3777.00,0.0053
3776.00,0.0053
3775.00,0.0053
3774.00,0.0053
3773.00,0.0053
3772.00,0.0052
3771.00,0.0052
3770.00,0.0052
3769.00,0.0052
3768.00,0.0052
3767.00,0.0053
3766.00,0.0053
3765.00,0.0053
3764.00,0.0053
3763.00,0.0053
3762.00,0.0053
3761.00,0.0053
3760.00,0.0052
3759.00,0.0052
3758.00,0.0052
3757.00,0.0052
3756.00,0.0052
3755.00,0.0052
3754.00,0.0051
3753.00,0.0051
3752.00,0.0051
3751.00,0.0051
3750.00,0.0051
3749.00,0.0050
3748.00,0.0050
3747.00,0.0050
3746.00,0.0050
3745.00,0.0050
3744.00,0.0050
3743.00,0.0050
3742.00,0.0050
3741.00,0.0051
3740.00,0.0051
3739.00,0.0051
3738.00,0.0051
3737.00,0.0051
3736.00,0.0051
3735.00,0.0051
3734.00,0.0051
3733.00,0.0051
3732.00,0.0051
3731.00,0.0051
3730.00,0.0051
3729.00,0.0051
3728.00,0.0051
3727.00,0.0051
3726.00,0.0051
3725.00,0.0051
3724.00,0.0051
3723.00,0.0051
3722.00,0.0051
3721.00,0.0051
3720.00,0.0051
3719.00,0.0051
3718.00,0.0052
3717.00,0.0052
3716.00,0.0052
3715.00,0.0051
3714.00,0.0051
3713.00,0.0051
3712.00,0.0050
3711.00,0.0050
3710.00,0.0050
3709.00,0.0050
3708.00,0.0050
3707.00,0.0051
3706.00,0.0051
3705.00,0.0051
3704.00,0.0051
3703.00,0.0051
3702.00,0.0051
3701.00,0.0051
3700.00,0.0051
3699.00,0.0051
3698.00,0.0051
3697.00,0.0051
3696.00,0.0051
3695.00,0.0051
3694.00,0.0051
3693.00,0.0051
3692.00,0.0051
3691.00,0.0051
3690.00,0.0051
3689.00,0.0051
3688.00,0.0051
3687.00,0.0052
3686.00,0.0053
3685.00,0.0053
3684.00,0.0054
3683.00,0.0054
3682.00,0.0054
3681.00,0.0055
3680.00,0.0055
3679.00,0.0054
3678.00,0.0054
3677.00,0.0054
3676.00,0.0054
3675.00,0.0054
3674.00,0.0054
3673.00,0.0054
3672.00,0.0054
3671.00,0.0054
3670.00,0.0054
3669.00,0.0054
3668.00,0.0054
3667.00,0.0054
3666.00,0.0054
3665.00,0.0055
3664.00,0.0055
3663.00,0.0055
3662.00,0.0056
3661.00,0.0056
3660.00,0.0056
3659.00,0.0056
3658.00,0.0056
3657.00,0.0056
3656.00,0.0056
3655.00,0.0056
3654.00,0.0056
3653.00,0.0056
3652.00,0.0056
3651.00,0.0056
3650.00,0.0057
3649.00,0.0057
3648.00,0.0058
3647.00,0.0058
3646.00,0.0058
3645.00,0.0058
3644.00,0.0059
3643.00,0.0059
3642.00,0.0060
3641.00,0.0060
3640.00,0.0060
3639.00,0.0060
3638.00,0.0061
3637.00,0.0061
3636.00,0.0061
3635.00,0.0061
3634.00,0.0062
3633.00,0.0062
3632.00,0.0062
3631.00,0.0062
3630.00,0.0063
3629.00,0.0063
3628.00,0.0063
3627.00,0.0063
3626.00,0.0064
3625.00,0.0065
3624.00,0.0065
3623.00,0.0066
3622.00,0.0067
3621.00,0.0067
3620.00,0.0068
3619.00,0.0068
3618.00,0.0068
3617.00,0.0069
3616.00,0.0069
3615.00,0.0069
3614.00,0.0070
3613.00,0.0070
3612.00,0.0071
3611.00,0.0071
3610.00,0.0072
3609.00,0.0072
3608.00,0.0073
3607.00,0.0073
3606.00,0.0074
3605.00,0.0075
3604.00,0.0075
3603.00,0.0076
3602.00,0.0076
3601.00,0.0076
3600.00,0.0077
3599.00,0.0077
3598.00,0.0078
3597.00,0.0078
3596.00,0.0079
3595.00,0.0080
3594.00,0.0081
3593.00,0.0081
3592.00,0.0081
3591.00,0.0082
3590.00,0.0082
3589.00,0.0083
3588.00,0.0084
3587.00,0.0085
3586.00,0.0085
3585.00,0.0086
3584.00,0.0087
3583.00,0.0088
3582.00,0.0088
3581.00,0.0089
3580.00,0.0089
3579.00,0.0090
3578.00,0.0091
3577.00,0.0091
3576.00,0.0092
3575.00,0.0093
3574.00,0.0094
3573.00,0.0095
3572.00,0.0095
3571.00,0.0096
3570.00,0.0096
3569.00,0.0097
3568.00,0.0098
3567.00,0.0099
3566.00,0.0099
3565.00,0.0100
3564.00,0.0101
3563.00,0.0102
3562.00,0.0102
3561.00,0.0103
3560.00,0.0104
3559.00,0.0105
3558.00,0.0105
3557.00,0.0106
3556.00,0.0106
3555.00,0.0107
3554.00,0.0107
3553.00,0.0108
3552.00,0.0109
3551.00,0.0110
3550.00,0.0110
3549.00,0.0111
3548.00,0.0111
3547.00,0.0112
3546.00,0.0112
3545.00,0.0113
3544.00,0.0114
3543.00,0.0114
3542.00,0.0115
3541.00,0.0115
3540.00,0.0116
3539.00,0.0116
3538.00,0.0117
3537.00,0.0118
3536.00,0.0118
3535.00,0.0119
3534.00,0.0119
3533.00,0.0120
3532.00,0.0120
3531.00,0.0121
3530.00,0.0121
3529.00,0.0122
3528.00,0.0122
3527.00,0.0123
3526.00,0.0123
3525.00,0.0124
3524.00,0.0125
3523.00,0.0125
3522.00,0.0126
3521.00,0.0126
3520.00,0.0127
3519.00,0.0127
3518.00,0.0128
3517.00,0.0129
3516.00,0.0129
3515.00,0.0130
3514.00,0.0130
3513.00,0.0131
3512.00,0.0131
3511.00,0.0132
3510.00,0.0132
3509.00,0.0133
3508.00,0.0134
3507.00,0.0134
3506.00,0.0135
3505.00,0.0136
3504.00,0.0136
3503.00,0.0137
3502.00,0.0138
3501.00,0.0139
3500.00,0.0139
3499.00,0.0140
3498.00,0.0141
3497.00,0.0141
3496.00,0.0142
3495.00,0.0142
3494.00,0.0143
3493.00,0.0143
3492.00,0.0144
3491.00,0.0145
3490.00,0.0146
3489.00,0.0147
3488.00,0.0147
3487.00,0.0148
3486.00,0.0149
3485.00,0.0149
3484.00,0.0150
3483.00,0.0151
3482.00,0.0151
3481.00,0.0152
3480.00,0.0152
3479.00,0.0153
3478.00,0.0153
3477.00,0.0154
3476.00,0.0155
3475.00,0.0156
3474.00,0.0156
3473.00,0.0157
3472.00,0.0157
3471.00,0.0158
3470.00,0.0159
3469.00,0.0160
3468.00,0.0161
3467.00,0.0161
3466.00,0.0161
3465.00,0.0162
3464.00,0.0162
3463.00,0.0163
3462.00,0.0163
3461.00,0.0164
3460.00,0.0164
3459.00,0.0165
3458.00,0.0166
3457.00,0.0166
3456.00,0.0167
3455.00,0.0167
3454.00,0.0168
3453.00,0.0168
3452.00,0.0168
3451.00,0.0168
3450.00,0.0169
3449.00,0.0169
3448.00,0.0170
3447.00,0.0171
3446.00,0.0171
3445.00,0.0172
3444.00,0.0172
3443.00,0.0173
3442.00,0.0173
3441.00,0.0174
3440.00,0.0174
3439.00,0.0174
3438.00,0.0174
3437.00,0.0175
3436.00,0.0175
3435.00,0.0176
3434.00,0.0176
3433.00,0.0176
3432.00,0.0177
3431.00,0.0177
3430.00,0.0177
3429.00,0.0177
3428.00,0.0178
3427.00,0.0178
3426.00,0.0178
3425.00,0.0179
3424.00,0.0179
3423.00,0.0179
3422.00,0.0179
3421.00,0.0179
3420.00,0.0180
3419.00,0.0180
3418.00,0.0181
3417.00,0.0181
3416.00,0.0181
3415.00,0.0181
3414.00,0.0182
3413.00,0.0182
3412.00,0.0183
3411.00,0.0183
3410.00,0.0184
3409.00,0.0184
3408.00,0.0184
3407.00,0.0185
3406.00,0.0185
3405.00,0.0185
3404.00,0.0185
3403.00,0.0185
3402.00,0.0185
3401.00,0.0186
3400.00,0.0186
3399.00,0.0186
3398.00,0.0187
3397.00,0.0187
3396.00,0.0187
3395.00,0.0187
3394.00,0.0187
3393.00,0.0187
3392.00,0.0187
3391.00,0.0188
3390.00,0.0189
3389.00,0.0190
3388.00,0.0190
3387.00,0.0191
3386.00,0.0192
3385.00,0.0192
3384.00,0.0192
3383.00,0.0192
3382.00,0.0192
3381.00,0.0192
3380.00,0.0193
3379.00,0.0193
3378.00,0.0193
3377.00,0.0194
3376.00,0.0194
3375.00,0.0194
3374.00,0.0195
3373.00,0.0194
3372.00,0.0194
3371.00,0.0194
3370.00,0.0194
3369.00,0.0194
3368.00,0.0195
3367.00,0.0196
3366.00,0.0197
3365.00,0.0198
3364.00,0.0199
3363.00,0.0199
3362.00,0.0199
3361.00,0.0199
3360.00,0.0200
3359.00,0.0200
3358.00,0.0201
3357.00,0.0201
3356.00,0.0202
3355.00,0.0202
3354.00,0.0201
3353.00,0.0201
3352.00,0.0200
3351.00,0.0201
3350.00,0.0201
3349.00,0.0203
3348.00,0.0204
3347.00,0.0204
3346.00,0.0205
3345.00,0.0204
3344.00,0.0204
3343.00,0.0204
3342.00,0.0204
3341.00,0.0203
3340.00,0.0203
3339.00,0.0203
3338.00,0.0204
3337.00,0.0205
3336.00,0.0206
3335.00,0.0206
3334.00,0.0207
3333.00,0.0207
3332.00,0.0207
3331.00,0.0207
3330.00,0.0207
3329.00,0.0207
3328.00,0.0206
3327.00,0.0206
3326.00,0.0206
3325.00,0.0206
3324.00,0.0207
3323.00,0.0207
3322.00,0.0208
3321.00,0.0208
3320.00,0.0209
3319.00,0.0209
3318.00,0.0209
3317.00,0.0209
3316.00,0.0210
3315.00,0.0210
3314.00,0.0209
3313.00,0.0209
3312.00,0.0209
3311.00,0.0208
3310.00,0.0207
3309.00,0.0206
3308.00,0.0205
3307.00,0.0205
3306.00,0.0205
3305.00,0.0206
3304.00,0.0207
3303.00,0.0209
3302.00,0.0210
3301.00,0.0211
3300.00,0.0211
3299.00,0.0210
3298.00,0.0210
3297.00,0.0209
3296.00,0.0209
3295.00,0.0209
3294.00,0.0208
3293.00,0.0209
3292.00,0.0209
3291.00,0.0210
3290.00,0.0210
3289.00,0.0211
3288.00,0.0211
3287.00,0.0211
3286.00,0.0211
3285.00,0.0211
3284.00,0.0211
3283.00,0.0211
3282.00,0.0211
3281.00,0.0211
3280.00,0.0210
3279.00,0.0210
3278.00,0.0210
3277.00,0.0210
3276.00,0.0209
3275.00,0.0209
3274.00,0.0208
3273.00,0.0208
3272.00,0.0207
3271.00,0.0207
3270.00,0.0208
3269.00,0.0208
3268.00,0.0208
3267.00,0.0209
3266.00,0.0208
3265.00,0.0208
3264.00,0.0208
3263.00,0.0208
3262.00,0.0208
3261.00,0.0207
3260.00,0.0207
3259.00,0.0207
3258.00,0.0207
3257.00,0.0207
3256.00,0.0207
3255.00,0.0207
3254.00,0.0206
3253.00,0.0206
3252.00,0.0206
3251.00,0.0205
3250.00,0.0205
3249.00,0.0204
3248.00,0.0204
3247.00,0.0204
3246.00,0.0204
3245.00,0.0204
3244.00,0.0205
3243.00,0.0205
3242.00,0.0204
3241.00,0.0204
3240.00,0.0204
3239.00,0.0204
3238.00,0.0203
3237.00,0.0203
3236.00,0.0203
3235.00,0.0202
3234.00,0.0202
3233.00,0.0202
3232.00,0.0202
3231.00,0.0202
3230.00,0.0201
3229.00,0.0201
3228.00,0.0201
3227.00,0.0200
3226.00,0.0200
3225.00,0.0200
3224.00,0.0199
3223.00,0.0199
3222.00,0.0199
3221.00,0.0198
3220.00,0.0198
3219.00,0.0198
3218.00,0.0197
3217.00,0.0197
3216.00,0.0197
3215.00,0.0196
3214.00,0.0196
3213.00,0.0195
3212.00,0.0195
3211.00,0.0195
3210.00,0.0195
3209.00,0.0195
3208.00,0.0195
3207.00,0.0195
3206.00,0.0195
3205.00,0.0194
3204.00,0.0194
3203.00,0.0194
3202.00,0.0194
3201.00,0.0193
3200.00,0.0193
3199.00,0.0193
3198.00,0.0192
3197.00,0.0192
3196.00,0.0192
3195.00,0.0192
3194.00,0.0192
3193.00,0.0191
3192.00,0.0191
3191.00,0.0190
3190.00,0.0190
3189.00,0.0190
3188.00,0.0189
3187.00,0.0189
3186.00,0.0189
3185.00,0.0188
3184.00,0.0188
3183.00,0.0187
3182.00,0.0187
3181.00,0.0187
3180.00,0.0186
3179.00,0.0186
3178.00,0.0185
3177.00,0.0185
3176.00,0.0184
3175.00,0.0184
3174.00,0.0183
3173.00,0.0183
3172.00,0.0183
3171.00,0.0182
3170.00,0.0182
3169.00,0.0181
3168.00,0.0181
3167.00,0.0180
3166.00,0.0180
3165.00,0.0179
3164.00,0.0179
3163.00,0.0178
3162.00,0.0177
3161.00,0.0177
3160.00,0.0177
3159.00,0.0176
3158.00,0.0176
3157.00,0.0175
3156.00,0.0175
3155.00,0.0174
3154.00,0.0173
3153.00,0.0172
3152.00,0.0172
3151.00,0.0172
3150.00,0.0172
3149.00,0.0172
3148.00,0.0171
3147.00,0.0170
3146.00,0.0170
3145.00,0.0169
3144.00,0.0168
3143.00,0.0168
3142.00,0.0167
3141.00,0.0167
3140.00,0.0166
3139.00,0.0166
3138.00,0.0166
3137.00,0.0165
3136.00,0.0165
3135.00,0.0165
3134.00,0.0165
3133.00,0.0164
3132.00,0.0164
3131.00,0.0164
3130.00,0.0163
3129.00,0.0163
3128.00,0.0163
3127.00,0.0162
3126.00,0.0162
3125.00,0.0161
3124.00,0.0161
3123.00,0.0160
3122.00,0.0160
3121.00,0.0159
3120.00,0.0159
3119.00,0.0159
3118.00,0.0159
3117.00,0.0158
3116.00,0.0158
3115.00,0.0157
3114.00,0.0157
3113.00,0.0156
3112.00,0.0155
3111.00,0.0155
3110.00,0.0154
3109.00,0.0154
3108.00,0.0154
3107.00,0.0153
3106.00,0.0153
3105.00,0.0152
3104.00,0.0152
3103.00,0.0152
3102.00,0.0151
3101.00,0.0150
3100.00,0.0150
3099.00,0.0149
3098.00,0.0149
3097.00,0.0148
3096.00,0.0148
3095.00,0.0147
3094.00,0.0147
3093.00,0.0147
3092.00,0.0146
3091.00,0.0146
3090.00,0.0146
3089.00,0.0145
3088.00,0.0145
3087.00,0.0145
3086.00,0.0145
3085.00,0.0145
3084.00,0.0144
3083.00,0.0144
3082.00,0.0144
3081.00,0.0144
3080.00,0.0144
3079.00,0.0144
3078.00,0.0144
3077.00,0.0144
3076.00,0.0144
3075.00,0.0144
3074.00,0.0143
3073.00,0.0143
3072.00,0.0143
3071.00,0.0143
3070.00,0.0142
3069.00,0.0142
3068.00,0.0141
3067.00,0.0141
3066.00,0.0140
3065.00,0.0139
3064.00,0.0139
3063.00,0.0138
3062.00,0.0137
3061.00,0.0136
3060.00,0.0135
3059.00,0.0134
3058.00,0.0134
3057.00,0.0133
3056.00,0.0133
3055.00,0.0133
3054.00,0.0132
3053.00,0.0132
3052.00,0.0131
3051.00,0.0131
3050.00,0.0131
3049.00,0.0130
3048.00,0.0130
3047.00,0.0129
3046.00,0.0129
3045.00,0.0129
3044.00,0.0129
3043.00,0.0129
3042.00,0.0128
3041.00,0.0128
3040.00,0.0128
3039.00,0.0128
3038.00,0.0127
3037.00,0.0127
3036.00,0.0126
3035.00,0.0126
3034.00,0.0126
3033.00,0.0126
3032.00,0.0126
3031.00,0.0126
3030.00,0.0126
3029.00,0.0126
3028.00,0.0126
3027.00,0.0126
3026.00,0.0126
3025.00,0.0126
3024.00,0.0126
3023.00,0.0126
3022.00,0.0127
3021.00,0.0127
3020.00,0.0127
3019.00,0.0128
3018.00,0.0128
3017.00,0.0129
3016.00,0.0130
3015.00,0.0131
3014.00,0.0132
3013.00,0.0133
3012.00,0.0134
3011.00,0.0135
3010.00,0.0137
3009.00,0.0138
3008.00,0.0140
3007.00,0.0142
3006.00,0.0144
3005.00,0.0146
3004.00,0.0148
3003.00,0.0151
3002.00,0.0154
3001.00,0.0156
3000.00,0.0159
2999.00,0.0163
2998.00,0.0166
2997.00,0.0170
2996.00,0.0174
2995.00,0.0178
2994.00,0.0183
2993.00,0.0187
2992.00,0.0192
2991.00,0.0197
2990.00,0.0202
2989.00,0.0207
2988.00,0.0212
2987.00,0.0217
2986.00,0.0222
2985.00,0.0227
2984.00,0.0231
2983.00,0.0236
2982.00,0.0240
2981.00,0.0245
2980.00,0.0250
2979.00,0.0254
2978.00,0.0259
2977.00,0.0264
2976.00,0.0268
2975.00,0.0272
2974.00,0.0277
2973.00,0.0282
2972.00,0.0287
2971.00,0.0292
2970.00,0.0297
2969.00,0.0303
2968.00,0.0308
2967.00,0.0313
2966.00,0.0319
2965.00,0.0324
2964.00,0.0330
2963.00,0.0335
2962.00,0.0339
2961.00,0.0344
2960.00,0.0348
2959.00,0.0352
2958.00,0.0355
2957.00,0.0357
2956.00,0.0359
2955.00,0.0361
2954.00,0.0362
2953.00,0.0362
2952.00,0.0362
2951.00,0.0362
2950.00,0.0361
2949.00,0.0359
2948.00,0.0358
2947.00,0.0357
2946.00,0.0355
2945.00,0.0354
2944.00,0.0354
2943.00,0.0354
2942.00,0.0355
2941.00,0.0355
2940.00,0.0357
2939.00,0.0359
2938.00,0.0362
2937.00,0.0365
2936.00,0.0368
2935.00,0.0372
2934.00,0.0377
2933.00,0.0381
2932.00,0.0385
2931.00,0.0390
2930.00,0.0394
2929.00,0.0398
2928.00,0.0401
2927.00,0.0405
2926.00,0.0408
2925.00,0.0410
2924.00,0.0412
2923.00,0.0413
2922.00,0.0413
2921.00,0.0413
2920.00,0.0412
2919.00,0.0410
2918.00,0.0407
2917.00,0.0403
2916.00,0.0399
2915.00,0.0394
2914.00,0.0388
2913.00,0.0383
2912.00,0.0377
2911.00,0.0372
2910.00,0.0366
2909.00,0.0360
2908.00,0.0355
2907.00,0.0350
2906.00,0.0345
2905.00,0.0340
2904.00,0.0337
2903.00,0.0333
2902.00,0.0330
2901.00,0.0328
2900.00,0.0326
2899.00,0.0325
2898.00,0.0324
2897.00,0.0323
2896.00,0.0322
2895.00,0.0321
2894.00,0.0320
2893.00,0.0319
2892.00,0.0318
2891.00,0.0317
2890.00,0.0316
2889.00,0.0315
2888.00,0.0315
2887.00,0.0314
2886.00,0.0313
2885.00,0.0313
2884.00,0.0312
2883.00,0.0312
2882.00,0.0312
2881.00,0.0312
2880.00,0.0312
2879.00,0.0312
2878.00,0.0312
2877.00,0.0312
2876.00,0.0312
2875.00,0.0312
2874.00,0.0312
2873.00,0.0312
2872.00,0.0312
2871.00,0.0312
2870.00,0.0311
2869.00,0.0310
2868.00,0.0308
2867.00,0.0307
2866.00,0.0306
2865.00,0.0305
2864.00,0.0304
2863.00,0.0305
2862.00,0.0305
2861.00,0.0306
2860.00,0.0306
2859.00,0.0307
2858.00,0.0307
2857.00,0.0306
2856.00,0.0304
2855.00,0.0302
2854.00,0.0298
2853.00,0.0294
2852.00,0.0288
2851.00,0.0282
2850.00,0.0275
2849.00,0.0268
2848.00,0.0261
2847.00,0.0253
2846.00,0.0246
2845.00,0.0239
2844.00,0.0233
2843.00,0.0226
2842.00,0.0221
2841.00,0.0215
2840.00,0.0211
2839.00,0.0207
2838.00,0.0204
2837.00,0.0202
2836.00,0.0200
2835.00,0.0198
2834.00,0.0196
2833.00,0.0195
2832.00,0.0193
2831.00,0.0191
2830.00,0.0189
2829.00,0.0187
2828.00,0.0184
2827.00,0.0181
2826.00,0.0178
2825.00,0.0175
2824.00,0.0171
2823.00,0.0168
2822.00,0.0165
2821.00,0.0162
2820.00,0.0159
2819.00,0.0156
2818.00,0.0153
2817.00,0.0151
2816.00,0.0149
2815.00,0.0146
2814.00,0.0144
2813.00,0.0142
2812.00,0.0141
2811.00,0.0139
2810.00,0.0137
2809.00,0.0136
2808.00,0.0134
2807.00,0.0133
2806.00,0.0132
2805.00,0.0131
2804.00,0.0130
2803.00,0.0128
2802.00,0.0127
2801.00,0.0126
2800.00,0.0125
2799.00,0.0124
2798.00,0.0123
2797.00,0.0122
2796.00,0.0122
2795.00,0.0121
2794.00,0.0120
2793.00,0.0119
2792.00,0.0119
2791.00,0.0118
2790.00,0.0117
2789.00,0.0117
2788.00,0.0116
2787.00,0.0116
2786.00,0.0115
2785.00,0.0115
2784.00,0.0114
2783.00,0.0114
2782.00,0.0113
2781.00,0.0113
2780.00,0.0113
2779.00,0.0112
2778.00,0.0112
2777.00,0.0111
2776.00,0.0111
2775.00,0.0111
2774.00,0.0110
2773.00,0.0110
2772.00,0.0109
2771.00,0.0109
2770.00,0.0108
2769.00,0.0108
2768.00,0.0108
2767.00,0.0108
2766.00,0.0107
2765.00,0.0107
2764.00,0.0107
2763.00,0.0106
2762.00,0.0106
2761.00,0.0105
2760.00,0.0105
2759.00,0.0105
2758.00,0.0105
2757.00,0.0105
2756.00,0.0105
2755.00,0.0105
2754.00,0.0105
2753.00,0.0105
2752.00,0.0105
2751.00,0.0105
2750.00,0.0105
2749.00,0.0104
2748.00,0.0104
2747.00,0.0104
2746.00,0.0104
2745.00,0.0104
2744.00,0.0105
2743.00,0.0105
2742.00,0.0105
2741.00,0.0105
2740.00,0.0105
2739.00,0.0105
2738.00,0.0104
2737.00,0.0104
2736.00,0.0105
2735.00,0.0105
2734.00,0.0105
2733.00,0.0105
2732.00,0.0105
2731.00,0.0105
2730.00,0.0105
2729.00,0.0105
2728.00,0.0105
2727.00,0.0105
2726.00,0.0105
2725.00,0.0105
2724.00,0.0105
2723.00,0.0105
2722.00,0.0105
2721.00,0.0104
2720.00,0.0104
2719.00,0.0104
2718.00,0.0104
2717.00,0.0104
2716.00,0.0104
2715.00,0.0103
2714.00,0.0103
2713.00,0.0103
2712.00,0.0102
2711.00,0.0102
2710.00,0.0102
2709.00,0.0102
2708.00,0.0101
2707.00,0.0101
2706.00,0.0101
2705.00,0.0101
2704.00,0.0101
2703.00,0.0101
2702.00,0.0101
2701.00,0.0100
2700.00,0.0100
2699.00,0.0100
2698.00,0.0100
2697.00,0.0100
2696.00,0.0100
2695.00,0.0100
2694.00,0.0100
2693.00,0.0100
2692.00,0.0100
2691.00,0.0100
2690.00,0.0099
2689.00,0.0099
2688.00,0.0099
2687.00,0.0099
2686.00,0.0099
2685.00,0.0099
2684.00,0.0099
2683.00,0.0098
2682.00,0.0098
2681.00,0.0098
2680.00,0.0098
2679.00,0.0098
2678.00,0.0098
2677.00,0.0098
2676.00,0.0098
2675.00,0.0098
2674.00,0.0097
2673.00,0.0097
2672.00,0.0097
2671.00,0.0097
2670.00,0.0097
2669.00,0.0097
2668.00,0.0097
2667.00,0.0098
2666.00,0.0098
2665.00,0.0098
2664.00,0.0098
2663.00,0.0099
2662.00,0.0099
2661.00,0.0099
2660.00,0.0099
2659.00,0.0099
2658.00,0.0099
2657.00,0.0099
2656.00,0.0099
2655.00,0.0099
2654.00,0.0099
2653.00,0.0099
2652.00,0.0099
2651.00,0.0099
2650.00,0.0099
2649.00,0.0098
2648.00,0.0098
2647.00,0.0098
2646.00,0.0098
2645.00,0.0097
2644.00,0.0097
2643.00,0.0097
2642.00,0.0097
2641.00,0.0097
2640.00,0.0097
2639.00,0.0096
2638.00,0.0096
2637.00,0.0096
2636.00,0.0096
2635.00,0.0096
2634.00,0.0096
2633.00,0.0095
2632.00,0.0095
2631.00,0.0095
2630.00,0.0095
2629.00,0.0095
2628.00,0.0094
2627.00,0.0094
2626.00,0.0094
2625.00,0.0094
2624.00,0.0093
2623.00,0.0093
2622.00,0.0093
2621.00,0.0092
2620.00,0.0092
2619.00,0.0092
2618.00,0.0092
2617.00,0.0092
2616.00,0.0092
2615.00,0.0092
2614.00,0.0092
2613.00,0.0091
2612.00,0.0091
2611.00,0.0091
2610.00,0.0091
2609.00,0.0091
2608.00,0.0091
2607.00,0.0091
2606.00,0.0091
2605.00,0.0090
2604.00,0.0090
2603.00,0.0090
2602.00,0.0090
2601.00,0.0090
2600.00,0.0090
2599.00,0.0089
2598.00,0.0089
2597.00,0.0089
2596.00,0.0090
2595.00,0.0090
2594.00,0.0089
2593.00,0.0089
2592.00,0.0089
2591.00,0.0089
2590.00,0.0089
2589.00,0.0089
2588.00,0.0089
2587.00,0.0089
2586.00,0.0088
2585.00,0.0088
2584.00,0.0089
2583.00,0.0089
2582.00,0.0089
2581.00,0.0089
2580.00,0.0089
2579.00,0.0088
2578.00,0.0088
2577.00,0.0088
2576.00,0.0088
2575.00,0.0088
2574.00,0.0088
2573.00,0.0088
2572.00,0.0088
2571.00,0.0088
2570.00,0.0088
2569.00,0.0088
2568.00,0.0088
2567.00,0.0087
2566.00,0.0087
2565.00,0.0086
2564.00,0.0086
2563.00,0.0086
2562.00,0.0086
2561.00,0.0086
2560.00,0.0086
2559.00,0.0086
2558.00,0.0086
2557.00,0.0086
2556.00,0.0085
2555.00,0.0085
2554.00,0.0084
2553.00,0.0084
2552.00,0.0084
2551.00,0.0084
2550.00,0.0084
2549.00,0.0084
2548.00,0.0084
2547.00,0.0084
2546.00,0.0084
2545.00,0.0084
2544.00,0.0084
2543.00,0.0084
2542.00,0.0083
2541.00,0.0083
2540.00,0.0084
2539.00,0.0084
2538.00,0.0084
2537.00,0.0083
2536.00,0.0083
2535.00,0.0083
2534.00,0.0083
2533.00,0.0083
2532.00,0.0083
2531.00,0.0083
2530.00,0.0083
2529.00,0.0083
2528.00,0.0082
2527.00,0.0082
2526.00,0.0082
2525.00,0.0081
2524.00,0.0081
2523.00,0.0081
2522.00,0.0081
2521.00,0.0081
2520.00,0.0081
2519.00,0.0081
2518.00,0.0080
2517.00,0.0080
2516.00,0.0080
2515.00,0.0080
2514.00,0.0080
2513.00,0.0080
2512.00,0.0080
2511.00,0.0080
2510.00,0.0080
2509.00,0.0079
2508.00,0.0079
2507.00,0.0079
2506.00,0.0078
2505.00,0.0078
2504.00,0.0078
2503.00,0.0078
2502.00,0.0078
2501.00,0.0078
2500.00,0.0078
2499.00,0.0078
2498.00,0.0078
2497.00,0.0078
2496.00,0.0078
2495.00,0.0077
2494.00,0.0077
2493.00,0.0077
2492.00,0.0078
2491.00,0.0078
2490.00,0.0077
2489.00,0.0077
2488.00,0.0077
2487.00,0.0078
2486.00,0.0078
2485.00,0.0077
2484.00,0.0077
2483.00,0.0077
2482.00,0.0077
2481.00,0.0077
2480.00,0.0077
2479.00,0.0077
2478.00,0.0077
2477.00,0.0077
2476.00,0.0076
2475.00,0.0076
2474.00,0.0076
2473.00,0.0076
2472.00,0.0076
2471.00,0.0076
2470.00,0.0076
2469.00,0.0076
2468.00,0.0076
2467.00,0.0076
2466.00,0.0076
2465.00,0.0076
2464.00,0.0077
2463.00,0.0077
2462.00,0.0077
2461.00,0.0076
2460.00,0.0076
2459.00,0.0076
2458.00,0.0076
2457.00,0.0076
2456.00,0.0076
2455.00,0.0076
2454.00,0.0076
2453.00,0.0076
2452.00,0.0076
2451.00,0.0077
2450.00,0.0077
2449.00,0.0077
2448.00,0.0077
2447.00,0.0076
2446.00,0.0076
2445.00,0.0075
2444.00,0.0075
2443.00,0.0075
2442.00,0.0075
2441.00,0.0075
2440.00,0.0075
2439.00,0.0075
2438.00,0.0075
2437.00,0.0075
2436.00,0.0075
2435.00,0.0075
2434.00,0.0074
2433.00,0.0074
2432.00,0.0074
2431.00,0.0074
2430.00,0.0074
2429.00,0.0074
2428.00,0.0074
2427.00,0.0074
2426.00,0.0074
2425.00,0.0074
2424.00,0.0074
2423.00,0.0074
2422.00,0.0073
2421.00,0.0073
2420.00,0.0073
2419.00,0.0073
2418.00,0.0073
2417.00,0.0073
2416.00,0.0073
2415.00,0.0073
2414.00,0.0073
2413.00,0.0073
2412.00,0.0073
2411.00,0.0073
2410.00,0.0073
2409.00,0.0072
2408.00,0.0072
2407.00,0.0071
2406.00,0.0071
2405.00,0.0071
2404.00,0.0071
2403.00,0.0072
2402.00,0.0072
2401.00,0.0072
2400.00,0.0072
2399.00,0.0072
2398.00,0.0072
2397.00,0.0072
2396.00,0.0071
2395.00,0.0071
2394.00,0.0071
2393.00,0.0071
2392.00,0.0071
2391.00,0.0071
2390.00,0.0070
2389.00,0.0070
2388.00,0.0070
2387.00,0.0070
2386.00,0.0069
2385.00,0.0068
2384.00,0.0067
2383.00,0.0066
2382.00,0.0065
2381.00,0.0065
2380.00,0.0065
2379.00,0.0065
2378.00,0.0065
2377.00,0.0065
2376.00,0.0065
2375.00,0.0065
2374.00,0.0065
2373.00,0.0065
2372.00,0.0065
2371.00,0.0065
2370.00,0.0064
2369.00,0.0063
2368.00,0.0063
2367.00,0.0062
2366.00,0.0062
2365.00,0.0062
2364.00,0.0063
2363.00,0.0064
2362.00,0.0064
2361.00,0.0065
2360.00,0.0065
2359.00,0.0065
2358.00,0.0065
2357.00,0.0065
2356.00,0.0066
2355.00,0.0066
2354.00,0.0065
2353.00,0.0065
2352.00,0.0065
2351.00,0.0065
2350.00,0.0066
2349.00,0.0066
2348.00,0.0067
2347.00,0.0066
2346.00,0.0066
2345.00,0.0066
2344.00,0.0067
2343.00,0.0068
2342.00,0.0068
2341.00,0.0069
2340.00,0.0069
2339.00,0.0069
2338.00,0.0069
2337.00,0.0070
2336.00,0.0070
2335.00,0.0070
2334.00,0.0070
2333.00,0.0069
2332.00,0.0069
2331.00,0.0069
2330.00,0.0070
2329.00,0.0072
2328.00,0.0076
2327.00,0.0080
2326.00,0.0082
2325.00,0.0083
2324.00,0.0082
2323.00,0.0080
2322.00,0.0078
2321.00,0.0077
2320.00,0.0076
2319.00,0.0076
2318.00,0.0075
2317.00,0.0075
2316.00,0.0075
2315.00,0.0074
2314.00,0.0074
2313.00,0.0073
2312.00,0.0073
2311.00,0.0072
2310.00,0.0072
2309.00,0.0073
2308.00,0.0073
2307.00,0.0074
2306.00,0.0074
2305.00,0.0074
2304.00,0.0074
2303.00,0.0074
2302.00,0.0074
2301.00,0.0074
2300.00,0.0075
2299.00,0.0075
2298.00,0.0075
2297.00,0.0076
2296.00,0.0077
2295.00,0.0078
2294.00,0.0079
2293.00,0.0080
2292.00,0.0081
2291.00,0.0081
2290.00,0.0081
2289.00,0.0081
2288.00,0.0082
2287.00,0.0082
2286.00,0.0082
2285.00,0.0081
2284.00,0.0081
2283.00,0.0080
2282.00,0.0078
2281.00,0.0078
2280.00,0.0077
2279.00,0.0077
2278.00,0.0077
2277.00,0.0077
2276.00,0.0077
2275.00,0.0077
2274.00,0.0077
2273.00,0.0076
2272.00,0.0076
2271.00,0.0076
2270.00,0.0076
2269.00,0.0075
2268.00,0.0075
2267.00,0.0074
2266.00,0.0073
2265.00,0.0073
2264.00,0.0074
2263.00,0.0074
2262.00,0.0075
2261.00,0.0075
2260.00,0.0076
2259.00,0.0075
2258.00,0.0075
2257.00,0.0074
2256.00,0.0073
2255.00,0.0072
2254.00,0.0072
2253.00,0.0072
2252.00,0.0072
2251.00,0.0072
2250.00,0.0072
2249.00,0.0072
2248.00,0.0073
2247.00,0.0073
2246.00,0.0073
2245.00,0.0074
2244.00,0.0074
2243.00,0.0075
2242.00,0.0075
2241.00,0.0075
2240.00,0.0075
2239.00,0.0075
2238.00,0.0074
2237.00,0.0074
2236.00,0.0073
2235.00,0.0073
2234.00,0.0074
2233.00,0.0074
2232.00,0.0075
2231.00,0.0074
2230.00,0.0074
2229.00,0.0073
2228.00,0.0073
2227.00,0.0072
2226.00,0.0071
2225.00,0.0072
2224.00,0.0072
2223.00,0.0072
2222.00,0.0072
2221.00,0.0072
2220.00,0.0072
2219.00,0.0073
2218.00,0.0073
2217.00,0.0072
2216.00,0.0071
2215.00,0.0071
2214.00,0.0070
2213.00,0.0070
2212.00,0.0071
2211.00,0.0071
2210.00,0.0071
2209.00,0.0071
2208.00,0.0072
2207.00,0.0072
2206.00,0.0072
2205.00,0.0072
2204.00,0.0072
2203.00,0.0072
2202.00,0.0072
2201.00,0.0072
2200.00,0.0073
2199.00,0.0073
2198.00,0.0073
2197.00,0.0072
2196.00,0.0072
2195.00,0.0073
2194.00,0.0074
2193.00,0.0075
2192.00,0.0076
2191.00,0.0077
2190.00,0.0077
2189.00,0.0077
2188.00,0.0077
2187.00,0.0078
2186.00,0.0078
2185.00,0.0076
2184.00,0.0074
2183.00,0.0071
2182.00,0.0068
2181.00,0.0067
2180.00,0.0067
2179.00,0.0067
2178.00,0.0067
2177.00,0.0067
2176.00,0.0068
2175.00,0.0069
2174.00,0.0071
2173.00,0.0073
2172.00,0.0075
2171.00,0.0077
2170.00,0.0078
2169.00,0.0078
2168.00,0.0079
2167.00,0.0080
2166.00,0.0081
2165.00,0.0083
2164.00,0.0085
2163.00,0.0084
2162.00,0.0079
2161.00,0.0067
2160.00,0.0054
2159.00,0.0043
2158.00,0.0037
2157.00,0.0038
2156.00,0.0041
2155.00,0.0044
2154.00,0.0046
2153.00,0.0049
2152.00,0.0053
2151.00,0.0054
2150.00,0.0054
2149.00,0.0053
2148.00,0.0052
2147.00,0.0051
2146.00,0.0052
2145.00,0.0053
2144.00,0.0054
2143.00,0.0054
2142.00,0.0053
2141.00,0.0054
2140.00,0.0054
2139.00,0.0054
2138.00,0.0052
2137.00,0.0050
2136.00,0.0048
2135.00,0.0048
2134.00,0.0048
2133.00,0.0050
2132.00,0.0052
2131.00,0.0054
2130.00,0.0054
2129.00,0.0056
2128.00,0.0058
2127.00,0.0059
2126.00,0.0061
2125.00,0.0062
2124.00,0.0063
2123.00,0.0064
2122.00,0.0064
2121.00,0.0065
2120.00,0.0065
2119.00,0.0066
2118.00,0.0067
2117.00,0.0068
2116.00,0.0069
2115.00,0.0069
2114.00,0.0069
2113.00,0.0068
2112.00,0.0068
2111.00,0.0068
2110.00,0.0068
2109.00,0.0068
2108.00,0.0068
2107.00,0.0069
2106.00,0.0069
2105.00,0.0069
2104.00,0.0070
2103.00,0.0070
2102.00,0.0069
2101.00,0.0068
2100.00,0.0068
2099.00,0.0066
2098.00,0.0064
2097.00,0.0062
2096.00,0.0061
2095.00,0.0061
2094.00,0.0061
2093.00,0.0063
2092.00,0.0064
2091.00,0.0065
2090.00,0.0066
2089.00,0.0066
2088.00,0.0067
2087.00,0.0067
2086.00,0.0068
2085.00,0.0069
2084.00,0.0070
2083.00,0.0070
2082.00,0.0069
2081.00,0.0069
2080.00,0.0069
2079.00,0.0069
2078.00,0.0069
2077.00,0.0069
2076.00,0.0068
2075.00,0.0068
2074.00,0.0067
2073.00,0.0067
2072.00,0.0066
2071.00,0.0066
2070.00,0.0065
2069.00,0.0065
2068.00,0.0066
2067.00,0.0066
2066.00,0.0066
2065.00,0.0067
2064.00,0.0067
2063.00,0.0067
2062.00,0.0066
2061.00,0.0065
2060.00,0.0065
2059.00,0.0065
2058.00,0.0065
2057.00,0.0066
2056.00,0.0066
2055.00,0.0067
2054.00,0.0069
2053.00,0.0073
2052.00,0.0076
2051.00,0.0075
2050.00,0.0072
2049.00,0.0069
2048.00,0.0067
2047.00,0.0066
2046.00,0.0065
2045.00,0.0065
2044.00,0.0067
2043.00,0.0068
2042.00,0.0068
2041.00,0.0068
2040.00,0.0068
2039.00,0.0066
2038.00,0.0064
2037.00,0.0063
2036.00,0.0062
2035.00,0.0061
2034.00,0.0060
2033.00,0.0060
2032.00,0.0061
2031.00,0.0060
2030.00,0.0057
2029.00,0.0055
2028.00,0.0055
2027.00,0.0055
2026.00,0.0056
2025.00,0.0057
2024.00,0.0059
2023.00,0.0060
2022.00,0.0060
2021.00,0.0060
2020.00,0.0062
2019.00,0.0063
2018.00,0.0062
2017.00,0.0061
2016.00,0.0060
2015.00,0.0059
2014.00,0.0057
2013.00,0.0056
2012.00,0.0055
2011.00,0.0056
2010.00,0.0056
2009.00,0.0056
2008.00,0.0056
2007.00,0.0055
2006.00,0.0054
2005.00,0.0053
2004.00,0.0054
2003.00,0.0056
2002.00,0.0056
2001.00,0.0056
2000.00,0.0057
1999.00,0.0057
1998.00,0.0058
1997.00,0.0060
1996.00,0.0063
1995.00,0.0066
1994.00,0.0067
1993.00,0.0067
1992.00,0.0067
1991.00,0.0065
1990.00,0.0063
1989.00,0.0063
1988.00,0.0064
1987.00,0.0065
1986.00,0.0065
1985.00,0.0065
1984.00,0.0067
1983.00,0.0070
1982.00,0.0073
1981.00,0.0076
1980.00,0.0075
1979.00,0.0070
1978.00,0.0061
1977.00,0.0054
1976.00,0.0052
1975.00,0.0052
1974.00,0.0052
1973.00,0.0052
1972.00,0.0054
1971.00,0.0055
1970.00,0.0055
1969.00,0.0056
1968.00,0.0057
1967.00,0.0057
1966.00,0.0056
1965.00,0.0054
1964.00,0.0054
1963.00,0.0053
1962.00,0.0052
1961.00,0.0051
1960.00,0.0050
1959.00,0.0051
1958.00,0.0051
1957.00,0.0052
1956.00,0.0054
1955.00,0.0054
1954.00,0.0054
1953.00,0.0054
1952.00,0.0055
1951.00,0.0055
1950.00,0.0055
1949.00,0.0054
1948.00,0.0054
1947.00,0.0054
1946.00,0.0054
1945.00,0.0055
1944.00,0.0056
1943.00,0.0057
1942.00,0.0057
1941.00,0.0057
1940.00,0.0056
1939.00,0.0055
1938.00,0.0054
1937.00,0.0054
1936.00,0.0055
1935.00,0.0055
1934.00,0.0055
1933.00,0.0056
1932.00,0.0057
1931.00,0.0058
1930.00,0.0058
1929.00,0.0058
1928.00,0.0058
1927.00,0.0058
1926.00,0.0057
1925.00,0.0057
1924.00,0.0058
1923.00,0.0058
1922.00,0.0059
1921.00,0.0060
1920.00,0.0061
1919.00,0.0061
1918.00,0.0060
1917.00,0.0060
1916.00,0.0060
1915.00,0.0060
1914.00,0.0059
1913.00,0.0059
1912.00,0.0060
1911.00,0.0060
1910.00,0.0060
1909.00,0.0060
1908.00,0.0060
1907.00,0.0060
1906.00,0.0059
1905.00,0.0059
1904.00,0.0059
1903.00,0.0059
1902.00,0.0059
1901.00,0.0058
1900.00,0.0059
1899.00,0.0058
1898.00,0.0058
1897.00,0.0059
1896.00,0.0059
1895.00,0.0060
1894.00,0.0059
1893.00,0.0059
1892.00,0.0059
1891.00,0.0060
1890.00,0.0060
1889.00,0.0060
1888.00,0.0061
1887.00,0.0061
1886.00,0.0060
1885.00,0.0059
1884.00,0.0059
1883.00,0.0060
1882.00,0.0059
1881.00,0.0060
1880.00,0.0060
1879.00,0.0060
1878.00,0.0060
1877.00,0.0060
1876.00,0.0061
1875.00,0.0061
1874.00,0.0061
1873.00,0.0061
1872.00,0.0061
1871.00,0.0061
1870.00,0.0060
1869.00,0.0060
1868.00,0.0060
1867.00,0.0060
1866.00,0.0060
1865.00,0.0059
1864.00,0.0060
1863.00,0.0060
1862.00,0.0059
1861.00,0.0059
1860.00,0.0060
1859.00,0.0060
1858.00,0.0060
1857.00,0.0060
1856.00,0.0060
1855.00,0.0060
1854.00,0.0060
1853.00,0.0060
1852.00,0.0060
1851.00,0.0060
1850.00,0.0060
1849.00,0.0060
1848.00,0.0061
1847.00,0.0061
1846.00,0.0061
1845.00,0.0061
1844.00,0.0061
1843.00,0.0061
1842.00,0.0060
1841.00,0.0060
1840.00,0.0060
1839.00,0.0060
1838.00,0.0060
1837.00,0.0060
1836.00,0.0061
1835.00,0.0061
1834.00,0.0061
1833.00,0.0062
1832.00,0.0062
1831.00,0.0061
1830.00,0.0060
1829.00,0.0060
1828.00,0.0060
1827.00,0.0060
1826.00,0.0060
1825.00,0.0060
1824.00,0.0060
1823.00,0.0061
1822.00,0.0060
1821.00,0.0060
1820.00,0.0059
1819.00,0.0058
1818.00,0.0057
1817.00,0.0056
1816.00,0.0057
1815.00,0.0058
1814.00,0.0059
1813.00,0.0059
1812.00,0.0060
1811.00,0.0060
1810.00,0.0059
1809.00,0.0059
1808.00,0.0059
1807.00,0.0060
1806.00,0.0060
1805.00,0.0060
1804.00,0.0061
1803.00,0.0061
1802.00,0.0060
1801.00,0.0060
1800.00,0.0060
1799.00,0.0060
1798.00,0.0060
1797.00,0.0060
1796.00,0.0061
1795.00,0.0061
1794.00,0.0061
1793.00,0.0061
1792.00,0.0061
1791.00,0.0061
1790.00,0.0061
1789.00,0.0061
1788.00,0.0062
1787.00,0.0062
1786.00,0.0062
1785.00,0.0062
1784.00,0.0062
1783.00,0.0062
1782.00,0.0062
1781.00,0.0062
1780.00,0.0062
1779.00,0.0062
1778.00,0.0062
1777.00,0.0062
1776.00,0.0063
1775.00,0.0064
1774.00,0.0064
1773.00,0.0064
1772.00,0.0064
1771.00,0.0065
1770.00,0.0065
1769.00,0.0065
1768.00,0.0066
1767.00,0.0066
1766.00,0.0065
1765.00,0.0065
1764.00,0.0066
1763.00,0.0066
1762.00,0.0065
1761.00,0.0065
1760.00,0.0066
1759.00,0.0067
1758.00,0.0068
1757.00,0.0068
1756.00,0.0069
1755.00,0.0070
1754.00,0.0070
1753.00,0.0071
1752.00,0.0072
1751.00,0.0072
1750.00,0.0072
1749.00,0.0072
1748.00,0.0073
1747.00,0.0073
1746.00,0.0074
1745.00,0.0074
1744.00,0.0075
1743.00,0.0076
1742.00,0.0076
1741.00,0.0076
1740.00,0.0077
1739.00,0.0078
1738.00,0.0079
1737.00,0.0081
1736.00,0.0084
1735.00,0.0085
1734.00,0.0086
1733.00,0.0086
1732.00,0.0087
1731.00,0.0088
1730.00,0.0089
1729.00,0.0090
1728.00,0.0093
1727.00,0.0095
1726.00,0.0097
1725.00,0.0100
1724.00,0.0103
1723.00,0.0106
1722.00,0.0108
1721.00,0.0110
1720.00,0.0115
1719.00,0.0119
1718.00,0.0123
1717.00,0.0128
1716.00,0.0133
1715.00,0.0139
1714.00,0.0144
1713.00,0.0151
1712.00,0.0160
1711.00,0.0169
1710.00,0.0178
1709.00,0.0189
1708.00,0.0202
1707.00,0.0217
1706.00,0.0234
1705.00,0.0255
1704.00,0.0275
1703.00,0.0295
1702.00,0.0317
1701.00,0.0351
1700.00,0.0396
1699.00,0.0439
1698.00,0.0473
1697.00,0.0513
1696.00,0.0565
1695.00,0.0623
1694.00,0.0674
1693.00,0.0718
1692.00,0.0763
1691.00,0.0813
1690.00,0.0867
1689.00,0.0921
1688.00,0.0970
1687.00,0.1013
1686.00,0.1056
1685.00,0.1112
1684.00,0.1181
1683.00,0.1239
1682.00,0.1278
1681.00,0.1308
1680.00,0.1337
1679.00,0.1364
1678.00,0.1386
1677.00,0.1408
1676.00,0.1433
1675.00,0.1461
1674.00,0.1483
1673.00,0.1497
1672.00,0.1508
1671.00,0.1520
1670.00,0.1538
1669.00,0.1559
1668.00,0.1579
1667.00,0.1593
1666.00,0.1603
1665.00,0.1613
1664.00,0.1627
1663.00,0.1647
1662.00,0.1667
1661.00,0.1683
1660.00,0.1694
1659.00,0.1701
1658.00,0.1704
1657.00,0.1704
1656.00,0.1699
1655.00,0.1693
1654.00,0.1690
1653.00,0.1691
1652.00,0.1685
1651.00,0.1664
1650.00,0.1633
1649.00,0.1596
1648.00,0.1556
1647.00,0.1513
1646.00,0.1468
1645.00,0.1420
1644.00,0.1370
1643.00,0.1318
1642.00,0.1264
1641.00,0.1209
1640.00,0.1155
1639.00,0.1102
1638.00,0.1051
1637.00,0.0999
1636.00,0.0947
1635.00,0.0900
1634.00,0.0860
1633.00,0.0824
1632.00,0.0791
1631.00,0.0760
1630.00,0.0732
1629.00,0.0708
1628.00,0.0688
1627.00,0.0671
1626.00,0.0657
1625.00,0.0645
1624.00,0.0635
1623.00,0.0629
1622.00,0.0624
1621.00,0.0619
1620.00,0.0613
1619.00,0.0606
1618.00,0.0598
1617.00,0.0588
1616.00,0.0575
1615.00,0.0560
1614.00,0.0544
1613.00,0.0526
1612.00,0.0508
1611.00,0.0490
1610.00,0.0472
1609.00,0.0455
1608.00,0.0439
1607.00,0.0424
1606.00,0.0411
1605.00,0.0399
1604.00,0.0390
1603.00,0.0383
1602.00,0.0379
1601.00,0.0378
1600.00,0.0379
1599.00,0.0383
1598.00,0.0388
1597.00,0.0393
1596.00,0.0399
1595.00,0.0403
1594.00,0.0408
1593.00,0.0410
1592.00,0.0411
1591.00,0.0411
1590.00,0.0411
1589.00,0.0409
1588.00,0.0406
1587.00,0.0402
1586.00,0.0397
1585.00,0.0389
1584.00,0.0381
1583.00,0.0370
1582.00,0.0359
1581.00,0.0348
1580.00,0.0336
1579.00,0.0325
1578.00,0.0315
1577.00,0.0304
1576.00,0.0293
1575.00,0.0283
1574.00,0.0274
1573.00,0.0266
1572.00,0.0259
1571.00,0.0252
1570.00,0.0246
1569.00,0.0241
1568.00,0.0236
1567.00,0.0232
1566.00,0.0227
1565.00,0.0223
1564.00,0.0220
1563.00,0.0217
1562.00,0.0215
1561.00,0.0212
1560.00,0.0209
1559.00,0.0205
1558.00,0.0203
1557.00,0.0202
1556.00,0.0200
1555.00,0.0198
1554.00,0.0196
1553.00,0.0194
1552.00,0.0193
1551.00,0.0192
1550.00,0.0191
1549.00,0.0189
1548.00,0.0188
1547.00,0.0188
1546.00,0.0187
1545.00,0.0187
1544.00,0.0186
1543.00,0.0186
1542.00,0.0186
1541.00,0.0185
1540.00,0.0185
1539.00,0.0185
1538.00,0.0184
1537.00,0.0183
1536.00,0.0181
1535.00,0.0180
1534.00,0.0179
1533.00,0.0179
1532.00,0.0178
1531.00,0.0178
1530.00,0.0178
1529.00,0.0178
1528.00,0.0178
1527.00,0.0179
1526.00,0.0179
1525.00,0.0180
1524.00,0.0180
1523.00,0.0181
1522.00,0.0182
1521.00,0.0183
1520.00,0.0183
1519.00,0.0184
1518.00,0.0185
1517.00,0.0185
1516.00,0.0186
1515.00,0.0187
1514.00,0.0188
1513.00,0.0190
1512.00,0.0192
1511.00,0.0194
1510.00,0.0197
1509.00,0.0201
1508.00,0.0206
1507.00,0.0213
1506.00,0.0222
1505.00,0.0233
1504.00,0.0242
1503.00,0.0253
1502.00,0.0265
1501.00,0.0280
1500.00,0.0297
1499.00,0.0316
1498.00,0.0336
1497.00,0.0356
1496.00,0.0373
1495.00,0.0385
1494.00,0.0392
1493.00,0.0393
1492.00,0.0390
1491.00,0.0382
1490.00,0.0369
1489.00,0.0354
1488.00,0.0336
1487.00,0.0317
1486.00,0.0300
1485.00,0.0284
1484.00,0.0270
1483.00,0.0259
1482.00,0.0249
1481.00,0.0242
1480.00,0.0238
1479.00,0.0236
1478.00,0.0237
1477.00,0.0241
1476.00,0.0248
1475.00,0.0257
1474.00,0.0270
1473.00,0.0290
1472.00,0.0317
1471.00,0.0346
1470.00,0.0376
1469.00,0.0409
1468.00,0.0445
1467.00,0.0485
1466.00,0.0531
1465.00,0.0581
1464.00,0.0628
1463.00,0.0665
1462.00,0.0690
1461.00,0.0706
1460.00,0.0712
1459.00,0.0709
1458.00,0.0694
1457.00,0.0670
1456.00,0.0642
1455.00,0.0617
1454.00,0.0596
1453.00,0.0580
1452.00,0.0569
1451.00,0.0565
1450.00,0.0567
1449.00,0.0577
1448.00,0.0594
1447.00,0.0616
1446.00,0.0641
1445.00,0.0668
1444.00,0.0698
1443.00,0.0730
1442.00,0.0762
1441.00,0.0793
1440.00,0.0822
1439.00,0.0848
1438.00,0.0876
1437.00,0.0909
1436.00,0.0942
1435.00,0.0970
1434.00,0.0991
1433.00,0.1011
1432.00,0.1034
1431.00,0.1058
1430.00,0.1085
1429.00,0.1113
1428.00,0.1140
1427.00,0.1165
1426.00,0.1189
1425.00,0.1216
1424.00,0.1241
1423.00,0.1258
1422.00,0.1264
1421.00,0.1257
1420.00,0.1235
1419.00,0.1194
1418.00,0.1139
1417.00,0.1076
1416.00,0.1009
1415.00,0.0940
1414.00,0.0873
1413.00,0.0810
1412.00,0.0753
1411.00,0.0702
1410.00,0.0659
1409.00,0.0623
1408.00,0.0592
1407.00,0.0567
1406.00,0.0546
1405.00,0.0528
1404.00,0.0512
1403.00,0.0500
1402.00,0.0489
1401.00,0.0480
1400.00,0.0470
1399.00,0.0461
1398.00,0.0453
1397.00,0.0447
1396.00,0.0440
1395.00,0.0434
1394.00,0.0429
1393.00,0.0426
1392.00,0.0423
1391.00,0.0422
1390.00,0.0423
1389.00,0.0425
1388.00,0.0429
1387.00,0.0435
1386.00,0.0443
1385.00,0.0452
1384.00,0.0462
1383.00,0.0474
1382.00,0.0489
1381.00,0.0505
1380.00,0.0521
1379.00,0.0538
1378.00,0.0552
1377.00,0.0565
1376.00,0.0574
1375.00,0.0579
1374.00,0.0581
1373.00,0.0578
1372.00,0.0572
1371.00,0.0564
1370.00,0.0554
1369.00,0.0544
1368.00,0.0532
1367.00,0.0520
1366.00,0.0509
1365.00,0.0497
1364.00,0.0484
1363.00,0.0471
1362.00,0.0459
1361.00,0.0447
1360.00,0.0435
1359.00,0.0424
1358.00,0.0413
1357.00,0.0403
1356.00,0.0394
1355.00,0.0384
1354.00,0.0376
1353.00,0.0368
1352.00,0.0361
1351.00,0.0355
1350.00,0.0350
1349.00,0.0346
1348.00,0.0342
1347.00,0.0338
1346.00,0.0336
1345.00,0.0333
1344.00,0.0331
1343.00,0.0330
1342.00,0.0329
1341.00,0.0329
1340.00,0.0329
1339.00,0.0329
1338.00,0.0330
1337.00,0.0331
1336.00,0.0333
1335.00,0.0335
1334.00,0.0338
1333.00,0.0342
1332.00,0.0346
1331.00,0.0352
1330.00,0.0359
1329.00,0.0368
1328.00,0.0377
1327.00,0.0389
1326.00,0.0402
1325.00,0.0416
1324.00,0.0431
1323.00,0.0446
1322.00,0.0461
1321.00,0.0475
1320.00,0.0488
1319.00,0.0498
1318.00,0.0505
1317.00,0.0509
1316.00,0.0509
1315.00,0.0505
1314.00,0.0499
1313.00,0.0491
1312.00,0.0482
1311.00,0.0472
1310.00,0.0464
1309.00,0.0457
1308.00,0.0452
1307.00,0.0450
1306.00,0.0450
1305.00,0.0453
1304.00,0.0460
1303.00,0.0471
1302.00,0.0487
1301.00,0.0509
1300.00,0.0538
1299.00,0.0574
1298.00,0.0619
1297.00,0.0672
1296.00,0.0733
1295.00,0.0800
1294.00,0.0870
1293.00,0.0942
1292.00,0.1013
1291.00,0.1080
1290.00,0.1141
1289.00,0.1194
1288.00,0.1237
1287.00,0.1269
1286.00,0.1287
1285.00,0.1291
1284.00,0.1283
1283.00,0.1264
1282.00,0.1238
1281.00,0.1209
1280.00,0.1180
1279.00,0.1157
1278.00,0.1142
1277.00,0.1135
1276.00,0.1136
1275.00,0.1142
1274.00,0.1152
1273.00,0.1161
1272.00,0.1167
1271.00,0.1167
1270.00,0.1160
1269.00,0.1145
1268.00,0.1122
1267.00,0.1093
1266.00,0.1059
1265.00,0.1022
1264.00,0.0984
1263.00,0.0946
1262.00,0.0911
1261.00,0.0879
1260.00,0.0850
1259.00,0.0826
1258.00,0.0807
1257.00,0.0790
1256.00,0.0777
1255.00,0.0766
1254.00,0.0758
1253.00,0.0749
1252.00,0.0741
1251.00,0.0733
1250.00,0.0725
1249.00,0.0716
1248.00,0.0707
1247.00,0.0699
1246.00,0.0691
1245.00,0.0683
1244.00,0.0674
1243.00,0.0667
1242.00,0.0660
1241.00,0.0654
1240.00,0.0648
1239.00,0.0644
1238.00,0.0642
1237.00,0.0642
1236.00,0.0642
1235.00,0.0643
1234.00,0.0644
1233.00,0.0646
1232.00,0.0648
1231.00,0.0649
1230.00,0.0649
1229.00,0.0649
1228.00,0.0648
1227.00,0.0646
1226.00,0.0644
1225.00,0.0641
1224.00,0.0637
1223.00,0.0633
1222.00,0.0628
1221.00,0.0623
1220.00,0.0617
1219.00,0.0610
1218.00,0.0603
1217.00,0.0595
1216.00,0.0586
1215.00,0.0576
1214.00,0.0565
1213.00,0.0554
1212.00,0.0542
1211.00,0.0530
1210.00,0.0519
1209.00,0.0509
1208.00,0.0499
1207.00,0.0491
1206.00,0.0485
1205.00,0.0479
1204.00,0.0474
1203.00,0.0469
1202.00,0.0464
1201.00,0.0460
1200.00,0.0456
1199.00,0.0453
1198.00,0.0450
1197.00,0.0448
1196.00,0.0446
1195.00,0.0444
1194.00,0.0443
1193.00,0.0442
1192.00,0.0440
1191.00,0.0437
1190.00,0.0435
1189.00,0.0431
1188.00,0.0428
1187.00,0.0424
1186.00,0.0420
1185.00,0.0417
1184.00,0.0413
1183.00,0.0410
1182.00,0.0408
1181.00,0.0407
1180.00,0.0408
1179.00,0.0410
1178.00,0.0415
1177.00,0.0420
1176.00,0.0427
1175.00,0.0436
1174.00,0.0445
1173.00,0.0453
1172.00,0.0460
1171.00,0.0465
1170.00,0.0468
1169.00,0.0469
1168.00,0.0468
1167.00,0.0464
1166.00,0.0460
1165.00,0.0455
1164.00,0.0450
1163.00,0.0445
1162.00,0.0441
1161.00,0.0438
1160.00,0.0437
1159.00,0.0438
1158.00,0.0441
1157.00,0.0445
1156.00,0.0450
1155.00,0.0454
1154.00,0.0455
1153.00,0.0453
1152.00,0.0445
1151.00,0.0435
1150.00,0.0421
1149.00,0.0407
1148.00,0.0391
1147.00,0.0376
1146.00,0.0363
1145.00,0.0350
1144.00,0.0340
1143.00,0.0331
1142.00,0.0324
1141.00,0.0319
1140.00,0.0315
1139.00,0.0313
1138.00,0.0313
1137.00,0.0313
1136.00,0.0313
1135.00,0.0315
1134.00,0.0317
1133.00,0.0320
1132.00,0.0322
1131.00,0.0325
1130.00,0.0327
1129.00,0.0328
1128.00,0.0327
1127.00,0.0324
1126.00,0.0321
1125.00,0.0317
1124.00,0.0313
1123.00,0.0310
1122.00,0.0308
1121.00,0.0306
1120.00,0.0305
1119.00,0.0305
1118.00,0.0305
1117.00,0.0306
1116.00,0.0307
1115.00,0.0309
1114.00,0.0311
1113.00,0.0313
1112.00,0.0314
1111.00,0.0316
1110.00,0.0318
1109.00,0.0320
1108.00,0.0321
1107.00,0.0322
1106.00,0.0323
1105.00,0.0325
1104.00,0.0326
1103.00,0.0328
1102.00,0.0331
1101.00,0.0333
1100.00,0.0335
1099.00,0.0337
1098.00,0.0337
1097.00,0.0336
1096.00,0.0334
1095.00,0.0331
1094.00,0.0329
1093.00,0.0325
1092.00,0.0322
1091.00,0.0318
1090.00,0.0315
1089.00,0.0311
1088.00,0.0309
1087.00,0.0307
1086.00,0.0307
1085.00,0.0307
1084.00,0.0308
1083.00,0.0310
1082.00,0.0313
1081.00,0.0317
1080.00,0.0321
1079.00,0.0325
1078.00,0.0330
1077.00,0.0334
1076.00,0.0337
1075.00,0.0339
1074.00,0.0340
1073.00,0.0339
1072.00,0.0338
1071.00,0.0336
1070.00,0.0336
1069.00,0.0335
1068.00,0.0335
1067.00,0.0336
1066.00,0.0340
1065.00,0.0345
1064.00,0.0353
1063.00,0.0363
1062.00,0.0377
1061.00,0.0395
1060.00,0.0415
1059.00,0.0436
1058.00,0.0457
1057.00,0.0472
1056.00,0.0480
1055.00,0.0478
1054.00,0.0469
1053.00,0.0453
1052.00,0.0433
1051.00,0.0414
1050.00,0.0398
1049.00,0.0387
1048.00,0.0381
1047.00,0.0380
1046.00,0.0383
1045.00,0.0390
1044.00,0.0399
1043.00,0.0410
1042.00,0.0424
1041.00,0.0441
1040.00,0.0458
1039.00,0.0477
1038.00,0.0498
1037.00,0.0520
1036.00,0.0542
1035.00,0.0564
1034.00,0.0584
1033.00,0.0599
1032.00,0.0609
1031.00,0.0613
1030.00,0.0611
1029.00,0.0602
1028.00,0.0587
1027.00,0.0569
1026.00,0.0550
1025.00,0.0532
1024.00,0.0515
1023.00,0.0502
1022.00,0.0493
1021.00,0.0487
1020.00,0.0481
1019.00,0.0475
1018.00,0.0469
1017.00,0.0462
1016.00,0.0452
1015.00,0.0441
1014.00,0.0427
1013.00,0.0413
1012.00,0.0397
1011.00,0.0384
1010.00,0.0373
1009.00,0.0366
1008.00,0.0361
1007.00,0.0360
1006.00,0.0362
1005.00,0.0365
1004.00,0.0368
1003.00,0.0371
1002.00,0.0372
1001.00,0.0371
1000.00,0.0367
999.00,0.0361
998.00,0.0355
997.00,0.0348
996.00,0.0340
995.00,0.0333
994.00,0.0327
993.00,0.0322
992.00,0.0317
991.00,0.0314
990.00,0.0311
989.00,0.0308
988.00,0.0305
987.00,0.0301
986.00,0.0298
985.00,0.0294
984.00,0.0289
983.00,0.0284
982.00,0.0281
981.00,0.0277
980.00,0.0274
979.00,0.0272
978.00,0.0270
977.00,0.0269
976.00,0.0268
975.00,0.0266
974.00,0.0265
973.00,0.0264
972.00,0.0262
971.00,0.0261
970.00,0.0260
969.00,0.0260
968.00,0.0259
967.00,0.0259
966.00,0.0259
965.00,0.0260
964.00,0.0260
963.00,0.0260
962.00,0.0261
961.00,0.0262
960.00,0.0264
959.00,0.0266
958.00,0.0269
957.00,0.0271
956.00,0.0271
955.00,0.0271
954.00,0.0270
953.00,0.0267
952.00,0.0263
951.00,0.0258
950.00,0.0253
949.00,0.0248
948.00,0.0242
947.00,0.0238
946.00,0.0234
945.00,0.0231
944.00,0.0228
943.00,0.0226
942.00,0.0227
941.00,0.0229
940.00,0.0233
939.00,0.0238
938.00,0.0245
937.00,0.0253
936.00,0.0261
935.00,0.0269
934.00,0.0276
933.00,0.0281
932.00,0.0281
931.00,0.0278
930.00,0.0273
929.00,0.0267
928.00,0.0262
927.00,0.0257
926.00,0.0254
925.00,0.0252
924.00,0.0249
923.00,0.0247
922.00,0.0245
921.00,0.0243
920.00,0.0241
919.00,0.0240
918.00,0.0240
917.00,0.0240
916.00,0.0239
915.00,0.0238
914.00,0.0238
913.00,0.0239
912.00,0.0239
911.00,0.0241
910.00,0.0243
909.00,0.0246
908.00,0.0249
907.00,0.0253
906.00,0.0258
905.00,0.0265
904.00,0.0272
903.00,0.0280
902.00,0.0288
901.00,0.0296
900.00,0.0303
899.00,0.0310
898.00,0.0316
897.00,0.0321
896.00,0.0325
895.00,0.0327
894.00,0.0330
893.00,0.0331
892.00,0.0332
891.00,0.0332
890.00,0.0331
889.00,0.0331
888.00,0.0331
887.00,0.0331
886.00,0.0333
885.00,0.0334
884.00,0.0334
883.00,0.0335
882.00,0.0335
881.00,0.0334
880.00,0.0333
879.00,0.0331
878.00,0.0330
877.00,0.0328
876.00,0.0325
875.00,0.0323
874.00,0.0321
873.00,0.0318
872.00,0.0316
871.00,0.0313
870.00,0.0312
869.00,0.0312
868.00,0.0311
867.00,0.0312
866.00,0.0314
865.00,0.0317
864.00,0.0319
863.00,0.0322
862.00,0.0327
861.00,0.0332
860.00,0.0339
859.00,0.0347
858.00,0.0357
857.00,0.0367
856.00,0.0377
855.00,0.0387
854.00,0.0399
853.00,0.0410
852.00,0.0420
851.00,0.0429
850.00,0.0438
849.00,0.0446
848.00,0.0453
847.00,0.0459
846.00,0.0465
845.00,0.0468
844.00,0.0470
843.00,0.0470
842.00,0.0470
841.00,0.0469
840.00,0.0467
839.00,0.0465
838.00,0.0463
837.00,0.0462
836.00,0.0461
835.00,0.0459
834.00,0.0458
833.00,0.0457
832.00,0.0455
831.00,0.0453
830.00,0.0450
829.00,0.0445
828.00,0.0439
827.00,0.0432
826.00,0.0425
825.00,0.0417
824.00,0.0408
823.00,0.0400
822.00,0.0393
821.00,0.0386
820.00,0.0380
819.00,0.0375
818.00,0.0370
817.00,0.0365
816.00,0.0360
815.00,0.0355
814.00,0.0351
813.00,0.0347
812.00,0.0343
811.00,0.0339
810.00,0.0336
809.00,0.0333
808.00,0.0329
807.00,0.0326
806.00,0.0323
805.00,0.0321
804.00,0.0317
803.00,0.0313
802.00,0.0309
801.00,0.0305
800.00,0.0302
799.00,0.0300
798.00,0.0301
797.00,0.0302
796.00,0.0302
795.00,0.0303
794.00,0.0304
793.00,0.0305
792.00,0.0305
791.00,0.0304
790.00,0.0303
789.00,0.0302
788.00,0.0300
787.00,0.0298
786.00,0.0297
785.00,0.0296
784.00,0.0296
783.00,0.0296
782.00,0.0297
781.00,0.0298
780.00,0.0300
779.00,0.0302
778.00,0.0305
777.00,0.0308
776.00,0.0311
775.00,0.0314
774.00,0.0316
773.00,0.0319
772.00,0.0320
771.00,0.0322
770.00,0.0324
769.00,0.0326
768.00,0.0328
767.00,0.0330
766.00,0.0333
765.00,0.0337
764.00,0.0342
763.00,0.0347
762.00,0.0353
761.00,0.0359
760.00,0.0364
759.00,0.0370
758.00,0.0376
757.00,0.0381
756.00,0.0384
755.00,0.0387
754.00,0.0390
753.00,0.0392
752.00,0.0394
751.00,0.0397
750.00,0.0400
749.00,0.0404
748.00,0.0408
747.00,0.0412
746.00,0.0418
745.00,0.0424
744.00,0.0430
743.00,0.0437
742.00,0.0444
741.00,0.0451
740.00,0.0458
739.00,0.0465
738.00,0.0472
737.00,0.0480
736.00,0.0485
735.00,0.0488
734.00,0.0491
733.00,0.0491
732.00,0.0488
731.00,0.0484
730.00,0.0478
729.00,0.0470
728.00,0.0461
727.00,0.0452
726.00,0.0443
725.00,0.0434
724.00,0.0425
723.00,0.0417
722.00,0.0410
721.00,0.0404
720.00,0.0399
719.00,0.0395
718.00,0.0392
717.00,0.0389
716.00,0.0385
715.00,0.0383
714.00,0.0381
713.00,0.0380
712.00,0.0379
711.00,0.0379
710.00,0.0379
709.00,0.0379
708.00,0.0379
707.00,0.0379
706.00,0.0380
705.00,0.0381
704.00,0.0381
703.00,0.0381
702.00,0.0382
701.00,0.0384
700.00,0.0385
699.00,0.0387
698.00,0.0390
697.00,0.0394
696.00,0.0397
695.00,0.0400
694.00,0.0404
693.00,0.0409
692.00,0.0412
691.00,0.0416
690.00,0.0421
689.00,0.0425
688.00,0.0429
687.00,0.0433
686.00,0.0438
685.00,0.0443
684.00,0.0446
683.00,0.0450
682.00,0.0455
681.00,0.0460
680.00,0.0465
679.00,0.0469
678.00,0.0474
677.00,0.0479
676.00,0.0482
675.00,0.0487
674.00,0.0492
673.00,0.0497
672.00,0.0502
671.00,0.0507
670.00,0.0514
669.00,0.0524
668.00,0.0536
667.00,0.0548
666.00,0.0555
665.00,0.0560
664.00,0.0567
663.00,0.0575
662.00,0.0586
661.00,0.0597
660.00,0.0608
659.00,0.0619
658.00,0.0632
657.00,0.0645
656.00,0.0658
655.00,0.0672
654.00,0.0687
653.00,0.0699
652.00,0.0710
651.00,0.0719
650.00,0.0726
649.00,0.0730
648.00,0.0732
647.00,0.0732
646.00,0.0730
645.00,0.0725
644.00,0.0717
643.00,0.0709
642.00,0.0699
641.00,0.0688
640.00,0.0676
639.00,0.0663
638.00,0.0652
637.00,0.0642
636.00,0.0630
635.00,0.0619
634.00,0.0610
633.00,0.0601
632.00,0.0592
631.00,0.0584
630.00,0.0577
629.00,0.0571
628.00,0.0564
627.00,0.0557
626.00,0.0553
625.00,0.0549
624.00,0.0544
623.00,0.0541
622.00,0.0540
621.00,0.0538
620.00,0.0535
619.00,0.0533
618.00,0.0532
617.00,0.0532
616.00,0.0532
615.00,0.0532
614.00,0.0533
613.00,0.0534
612.00,0.0533
611.00,0.0532
610.00,0.0533
609.00,0.0534
608.00,0.0534
607.00,0.0535
606.00,0.0536
605.00,0.0537
604.00,0.0537
603.00,0.0538
602.00,0.0540
601.00,0.0543
600.00,0.0544
599.00,0.0545
598.00,0.0548
597.00,0.0550
596.00,0.0552
595.00,0.0554
594.00,0.0559
593.00,0.0563
592.00,0.0566
591.00,0.0571
590.00,0.0578
589.00,0.0585
588.00,0.0593
587.00,0.0603
586.00,0.0616
585.00,0.0630
584.00,0.0643
583.00,0.0657
582.00,0.0672
581.00,0.0685
580.00,0.0696
579.00,0.0707
578.00,0.0717
577.00,0.0727
576.00,0.0732
575.00,0.0736
574.00,0.0739
573.00,0.0741
572.00,0.0740
571.00,0.0738
570.00,0.0736
569.00,0.0733
568.00,0.0728
567.00,0.0721
566.00,0.0714
565.00,0.0706
564.00,0.0696
563.00,0.0687
562.00,0.0680
561.00,0.0673
560.00,0.0666
559.00,0.0660
558.00,0.0656
557.00,0.0653
556.00,0.0648
555.00,0.0644
554.00,0.0642
553.00,0.0641
552.00,0.0637
551.00,0.0633
550.00,0.0629
549.00,0.0625
548.00,0.0619
547.00,0.0612
546.00,0.0607
545.00,0.0600
544.00,0.0591
543.00,0.0584
542.00,0.0580
541.00,0.0578
540.00,0.0574
539.00,0.0572
538.00,0.0572
537.00,0.0572
536.00,0.0572
535.00,0.0572
534.00,0.0573
533.00,0.0573
532.00,0.0571
531.00,0.0569
530.00,0.0570
529.00,0.0571
528.00,0.0570
527.00,0.0571
526.00,0.0576
525.00,0.0581
524.00,0.0581
523.00,0.0580
522.00,0.0578
521.00,0.0575
520.00,0.0570
519.00,0.0566
518.00,0.0564
517.00,0.0560
516.00,0.0555
515.00,0.0549
514.00,0.0546
513.00,0.0543
512.00,0.0540
511.00,0.0538
510.00,0.0539
509.00,0.0537
508.00,0.0532
507.00,0.0530
506.00,0.0532
505.00,0.0534
504.00,0.0533
503.00,0.0531
502.00,0.0532
501.00,0.0533
500.00,0.0533
499.00,0.0535
498.00,0.0539
497.00,0.0543
496.00,0.0543
495.00,0.0543
494.00,0.0546
493.00,0.0548
492.00,0.0549
491.00,0.0551
490.00,0.0556
489.00,0.0561
488.00,0.0564
487.00,0.0566
486.00,0.0571
485.00,0.0574
484.00,0.0573
483.00,0.0572
482.00,0.0574
481.00,0.0575
480.00,0.0574
479.00,0.0573
478.00,0.0576
477.00,0.0579
476.00,0.0577
475.00,0.0577
474.00,0.0584
473.00,0.0592
472.00,0.0595
471.00,0.0593
470.00,0.0591
469.00,0.0587
468.00,0.0580
467.00,0.0576
466.00,0.0578
465.00,0.0579
464.00,0.0577
463.00,0.0574
462.00,0.0574
461.00,0.0572
460.00,0.0565
459.00,0.0560
458.00,0.0559
457.00,0.0556
456.00,0.0548
455.00,0.0544
454.00,0.0545
453.00,0.0546
452.00,0.0542
451.00,0.0537
450.00,0.0536
449.00,0.0535
448.00,0.0530
447.00,0.0527
446.00,0.0530
445.00,0.0532
444.00,0.0530
443.00,0.0528
442.00,0.0531
441.00,0.0533
440.00,0.0530
439.00,0.0528
438.00,0.0532
437.00,0.0534
436.00,0.0528
435.00,0.0520
434.00,0.0519
433.00,0.0519
432.00,0.0516
431.00,0.0515
430.00,0.0520
429.00,0.0526
428.00,0.0525
427.00,0.0523
426.00,0.0524
425.00,0.0523
424.00,0.0516
423.00,0.0513
422.00,0.0519
421.00,0.0525
420.00,0.0520
419.00,0.0513
418.00,0.0515
417.00,0.0516
416.00,0.0512
415.00,0.0511
414.00,0.0518
413.00,0.0521
412.00,0.0511
411.00,0.0502
410.00,0.0505
409.00,0.0509
408.00,0.0503
407.00,0.0497
406.00,0.0498
405.00,0.0497
404.00,0.0491
403.00,0.0494
402.00,0.0512
401.00,0.0523
400.00,0.0512
