Created as New Dataset,Sample 547 By YargerLab Date Thursday, February 19 2026
cm-1,A
4000.00,0.0039
3999.00,0.0039
3998.00,0.0039
3997.00,0.0039
3996.00,0.0039
3995.00,0.0039
3994.00,0.0039
3993.00,0.0039
3992.00,0.0039
3991.00,0.0039
3990.00,0.0039
3989.00,0.0038
3988.00,0.0038
3987.00,0.0038
3986.00,0.0039
3985.00,0.0039
3984.00,0.0039
3983.00,0.0039
3982.00,0.0039
3981.00,0.0039
3980.00,0.0038
3979.00,0.0038
3978.00,0.0038
3977.00,0.0038
3976.00,0.0038
3975.00,0.0038
3974.00,0.0038
3973.00,0.0039
3972.00,0.0039
3971.00,0.0039
3970.00,0.0039
3969.00,0.0039
3968.00,0.0039
3967.00,0.0039
3966.00,0.0039
3965.00,0.0039
3964.00,0.0039
3963.00,0.0039
3962.00,0.0039
3961.00,0.0039
3960.00,0.0038
3959.00,0.0038
3958.00,0.0038
3957.00,0.0038
3956.00,0.0038
3955.00,0.0038
3954.00,0.0038
3953.00,0.0038
3952.00,0.0038
3951.00,0.0039
3950.00,0.0039
3949.00,0.0039
3948.00,0.0039
3947.00,0.0039
3946.00,0.0039
3945.00,0.0038
3944.00,0.0038
3943.00,0.0038
3942.00,0.0038
3941.00,0.0038
3940.00,0.0038
3939.00,0.0038
3938.00,0.0038
3937.00,0.0039
3936.00,0.0039
3935.00,0.0039
3934.00,0.0039
3933.00,0.0039
3932.00,0.0039
3931.00,0.0038
3930.00,0.0038
3929.00,0.0038
3928.00,0.0038
3927.00,0.0038
3926.00,0.0038
3925.00,0.0038
3924.00,0.0038
3923.00,0.0038
3922.00,0.0038
3921.00,0.0038
3920.00,0.0038
3919.00,0.0038
3918.00,0.0038
3917.00,0.0038
3916.00,0.0038
3915.00,0.0038
3914.00,0.0038
3913.00,0.0038
3912.00,0.0038
3911.00,0.0038
3910.00,0.0038
3909.00,0.0037
3908.00,0.0037
3907.00,0.0037
3906.00,0.0037
3905.00,0.0037
3904.00,0.0037
3903.00,0.0037
3902.00,0.0037
3901.00,0.0038
3900.00,0.0038
3899.00,0.0038
3898.00,0.0038
3897.00,0.0038
3896.00,0.0038
3895.00,0.0038
3894.00,0.0038
3893.00,0.0038
3892.00,0.0038
3891.00,0.0038
3890.00,0.0038
3889.00,0.0038
3888.00,0.0037
3887.00,0.0038
3886.00,0.0038
3885.00,0.0038
3884.00,0.0038
3883.00,0.0038
3882.00,0.0038
3881.00,0.0038
3880.00,0.0038
3879.00,0.0037
3878.00,0.0037
3877.00,0.0037
3876.00,0.0037
3875.00,0.0037
3874.00,0.0037
3873.00,0.0037
3872.00,0.0037
3871.00,0.0037
3870.00,0.0037
3869.00,0.0037
3868.00,0.0037
3867.00,0.0037
3866.00,0.0037
3865.00,0.0037
3864.00,0.0037
3863.00,0.0037
3862.00,0.0037
3861.00,0.0037
3860.00,0.0037
3859.00,0.0037
3858.00,0.0037
3857.00,0.0036
3856.00,0.0036
3855.00,0.0036
3854.00,0.0036
3853.00,0.0036
3852.00,0.0036
3851.00,0.0036
3850.00,0.0036
3849.00,0.0037
3848.00,0.0037
3847.00,0.0037
3846.00,0.0038
3845.00,0.0038
3844.00,0.0037
3843.00,0.0037
3842.00,0.0037
3841.00,0.0037
3840.00,0.0037
3839.00,0.0036
3838.00,0.0036
3837.00,0.0037
3836.00,0.0037
3835.00,0.0037
3834.00,0.0037
3833.00,0.0037
3832.00,0.0037
3831.00,0.0037
3830.00,0.0038
3829.00,0.0038
3828.00,0.0038
3827.00,0.0038
3826.00,0.0038
3825.00,0.0038
3824.00,0.0038
3823.00,0.0038
3822.00,0.0038
3821.00,0.0038
3820.00,0.0037
3819.00,0.0037
3818.00,0.0038
3817.00,0.0038
3816.00,0.0038
3815.00,0.0038
3814.00,0.0038
3813.00,0.0038
3812.00,0.0038
3811.00,0.0038
3810.00,0.0038
3809.00,0.0038
3808.00,0.0038
3807.00,0.0037
3806.00,0.0037
3805.00,0.0037
3804.00,0.0037
3803.00,0.0037
3802.00,0.0037
3801.00,0.0037
3800.00,0.0037
3799.00,0.0037
3798.00,0.0037
3797.00,0.0038
3796.00,0.0038
3795.00,0.0038
3794.00,0.0038
3793.00,0.0038
3792.00,0.0038
3791.00,0.0038
3790.00,0.0038
3789.00,0.0038
3788.00,0.0038
3787.00,0.0038
3786.00,0.0038
3785.00,0.0038
3784.00,0.0038
3783.00,0.0038
3782.00,0.0038
3781.00,0.0038
3780.00,0.0038
3779.00,0.0038
3778.00,0.0038
3777.00,0.0038
3776.00,0.0038
3775.00,0.0038
3774.00,0.0038
3773.00,0.0038
3772.00,0.0038
3771.00,0.0038
3770.00,0.0037
3769.00,0.0037
3768.00,0.0037
3767.00,0.0038
3766.00,0.0038
3765.00,0.0038
3764.00,0.0038
3763.00,0.0038
3762.00,0.0038
3761.00,0.0038
3760.00,0.0038
3759.00,0.0038
3758.00,0.0038
3757.00,0.0037
3756.00,0.0037
3755.00,0.0037
3754.00,0.0036
3753.00,0.0036
3752.00,0.0036
3751.00,0.0035
3750.00,0.0035
3749.00,0.0035
3748.00,0.0035
3747.00,0.0035
3746.00,0.0035
3745.00,0.0035
3744.00,0.0035
3743.00,0.0035
3742.00,0.0036
3741.00,0.0036
3740.00,0.0036
3739.00,0.0036
3738.00,0.0036
3737.00,0.0036
3736.00,0.0036
3735.00,0.0036
3734.00,0.0036
3733.00,0.0036
3732.00,0.0036
3731.00,0.0036
3730.00,0.0036
3729.00,0.0037
3728.00,0.0037
3727.00,0.0037
3726.00,0.0037
3725.00,0.0038
3724.00,0.0037
3723.00,0.0037
3722.00,0.0037
3721.00,0.0036
3720.00,0.0036
3719.00,0.0037
3718.00,0.0037
3717.00,0.0037
3716.00,0.0037
3715.00,0.0037
3714.00,0.0037
3713.00,0.0036
3712.00,0.0036
3711.00,0.0035
3710.00,0.0035
3709.00,0.0036
3708.00,0.0036
3707.00,0.0036
3706.00,0.0036
3705.00,0.0037
3704.00,0.0037
3703.00,0.0037
3702.00,0.0037
3701.00,0.0036
3700.00,0.0036
3699.00,0.0036
3698.00,0.0036
3697.00,0.0037
3696.00,0.0037
3695.00,0.0037
3694.00,0.0037
3693.00,0.0037
3692.00,0.0037
3691.00,0.0037
3690.00,0.0037
3689.00,0.0036
3688.00,0.0036
3687.00,0.0037
3686.00,0.0037
3685.00,0.0038
3684.00,0.0039
3683.00,0.0039
3682.00,0.0039
3681.00,0.0040
3680.00,0.0040
3679.00,0.0040
3678.00,0.0039
3677.00,0.0039
3676.00,0.0039
3675.00,0.0038
3674.00,0.0039
3673.00,0.0039
3672.00,0.0040
3671.00,0.0040
3670.00,0.0040
3669.00,0.0040
3668.00,0.0040
3667.00,0.0040
3666.00,0.0041
3665.00,0.0041
3664.00,0.0041
3663.00,0.0042
3662.00,0.0042
3661.00,0.0042
3660.00,0.0042
3659.00,0.0042
3658.00,0.0042
3657.00,0.0043
3656.00,0.0043
3655.00,0.0043
3654.00,0.0043
3653.00,0.0042
3652.00,0.0042
3651.00,0.0043
3650.00,0.0043
3649.00,0.0044
3648.00,0.0044
3647.00,0.0044
3646.00,0.0045
3645.00,0.0045
3644.00,0.0045
3643.00,0.0046
3642.00,0.0046
3641.00,0.0046
3640.00,0.0046
3639.00,0.0046
3638.00,0.0046
3637.00,0.0046
3636.00,0.0047
3635.00,0.0047
3634.00,0.0047
3633.00,0.0047
3632.00,0.0048
3631.00,0.0048
3630.00,0.0049
3629.00,0.0049
3628.00,0.0049
3627.00,0.0049
3626.00,0.0049
3625.00,0.0050
3624.00,0.0050
3623.00,0.0051
3622.00,0.0051
3621.00,0.0052
3620.00,0.0052
3619.00,0.0053
3618.00,0.0053
3617.00,0.0053
3616.00,0.0054
3615.00,0.0054
3614.00,0.0054
3613.00,0.0055
3612.00,0.0055
3611.00,0.0056
3610.00,0.0057
3609.00,0.0057
3608.00,0.0058
3607.00,0.0059
3606.00,0.0059
3605.00,0.0059
3604.00,0.0060
3603.00,0.0060
3602.00,0.0061
3601.00,0.0061
3600.00,0.0061
3599.00,0.0062
3598.00,0.0062
3597.00,0.0063
3596.00,0.0064
3595.00,0.0064
3594.00,0.0065
3593.00,0.0066
3592.00,0.0066
3591.00,0.0066
3590.00,0.0067
3589.00,0.0068
3588.00,0.0068
3587.00,0.0069
3586.00,0.0069
3585.00,0.0070
3584.00,0.0071
3583.00,0.0071
3582.00,0.0072
3581.00,0.0073
3580.00,0.0073
3579.00,0.0074
3578.00,0.0075
3577.00,0.0076
3576.00,0.0076
3575.00,0.0077
3574.00,0.0078
3573.00,0.0079
3572.00,0.0079
3571.00,0.0080
3570.00,0.0080
3569.00,0.0081
3568.00,0.0082
3567.00,0.0083
3566.00,0.0084
3565.00,0.0084
3564.00,0.0085
3563.00,0.0086
3562.00,0.0086
3561.00,0.0087
3560.00,0.0088
3559.00,0.0088
3558.00,0.0089
3557.00,0.0090
3556.00,0.0090
3555.00,0.0091
3554.00,0.0091
3553.00,0.0092
3552.00,0.0092
3551.00,0.0092
3550.00,0.0093
3549.00,0.0093
3548.00,0.0094
3547.00,0.0095
3546.00,0.0095
3545.00,0.0096
3544.00,0.0096
3543.00,0.0097
3542.00,0.0097
3541.00,0.0098
3540.00,0.0098
3539.00,0.0099
3538.00,0.0099
3537.00,0.0100
3536.00,0.0100
3535.00,0.0101
3534.00,0.0101
3533.00,0.0102
3532.00,0.0103
3531.00,0.0103
3530.00,0.0103
3529.00,0.0103
3528.00,0.0103
3527.00,0.0103
3526.00,0.0104
3525.00,0.0105
3524.00,0.0106
3523.00,0.0106
3522.00,0.0107
3521.00,0.0107
3520.00,0.0108
3519.00,0.0108
3518.00,0.0108
3517.00,0.0109
3516.00,0.0109
3515.00,0.0110
3514.00,0.0110
3513.00,0.0111
3512.00,0.0111
3511.00,0.0112
3510.00,0.0112
3509.00,0.0113
3508.00,0.0113
3507.00,0.0114
3506.00,0.0114
3505.00,0.0115
3504.00,0.0115
3503.00,0.0116
3502.00,0.0116
3501.00,0.0117
3500.00,0.0117
3499.00,0.0118
3498.00,0.0118
3497.00,0.0119
3496.00,0.0119
3495.00,0.0120
3494.00,0.0120
3493.00,0.0121
3492.00,0.0121
3491.00,0.0122
3490.00,0.0122
3489.00,0.0123
3488.00,0.0124
3487.00,0.0124
3486.00,0.0125
3485.00,0.0125
3484.00,0.0125
3483.00,0.0125
3482.00,0.0126
3481.00,0.0126
3480.00,0.0127
3479.00,0.0127
3478.00,0.0128
3477.00,0.0128
3476.00,0.0129
3475.00,0.0129
3474.00,0.0130
3473.00,0.0130
3472.00,0.0131
3471.00,0.0131
3470.00,0.0132
3469.00,0.0132
3468.00,0.0133
3467.00,0.0133
3466.00,0.0133
3465.00,0.0134
3464.00,0.0134
3463.00,0.0134
3462.00,0.0135
3461.00,0.0135
3460.00,0.0136
3459.00,0.0136
3458.00,0.0137
3457.00,0.0137
3456.00,0.0138
3455.00,0.0138
3454.00,0.0138
3453.00,0.0138
3452.00,0.0139
3451.00,0.0139
3450.00,0.0139
3449.00,0.0140
3448.00,0.0141
3447.00,0.0141
3446.00,0.0142
3445.00,0.0142
3444.00,0.0142
3443.00,0.0142
3442.00,0.0143
3441.00,0.0143
3440.00,0.0143
3439.00,0.0144
3438.00,0.0144
3437.00,0.0144
3436.00,0.0145
3435.00,0.0145
3434.00,0.0146
3433.00,0.0146
3432.00,0.0146
3431.00,0.0147
3430.00,0.0147
3429.00,0.0147
3428.00,0.0147
3427.00,0.0148
3426.00,0.0148
3425.00,0.0148
3424.00,0.0148
3423.00,0.0148
3422.00,0.0148
3421.00,0.0149
3420.00,0.0149
3419.00,0.0150
3418.00,0.0150
3417.00,0.0150
3416.00,0.0151
3415.00,0.0151
3414.00,0.0152
3413.00,0.0152
3412.00,0.0153
3411.00,0.0153
3410.00,0.0153
3409.00,0.0154
3408.00,0.0154
3407.00,0.0154
3406.00,0.0155
3405.00,0.0155
3404.00,0.0155
3403.00,0.0155
3402.00,0.0155
3401.00,0.0156
3400.00,0.0157
3399.00,0.0157
3398.00,0.0158
3397.00,0.0158
3396.00,0.0159
3395.00,0.0159
3394.00,0.0159
3393.00,0.0160
3392.00,0.0160
3391.00,0.0161
3390.00,0.0162
3389.00,0.0163
3388.00,0.0164
3387.00,0.0165
3386.00,0.0165
3385.00,0.0166
3384.00,0.0166
3383.00,0.0166
3382.00,0.0166
3381.00,0.0167
3380.00,0.0167
3379.00,0.0168
3378.00,0.0168
3377.00,0.0169
3376.00,0.0170
3375.00,0.0170
3374.00,0.0171
3373.00,0.0171
3372.00,0.0170
3371.00,0.0170
3370.00,0.0170
3369.00,0.0170
3368.00,0.0171
3367.00,0.0173
3366.00,0.0174
3365.00,0.0176
3364.00,0.0177
3363.00,0.0177
3362.00,0.0178
3361.00,0.0178
3360.00,0.0179
3359.00,0.0180
3358.00,0.0181
3357.00,0.0182
3356.00,0.0182
3355.00,0.0182
3354.00,0.0182
3353.00,0.0182
3352.00,0.0181
3351.00,0.0182
3350.00,0.0183
3349.00,0.0184
3348.00,0.0185
3347.00,0.0186
3346.00,0.0186
3345.00,0.0186
3344.00,0.0186
3343.00,0.0186
3342.00,0.0186
3341.00,0.0186
3340.00,0.0186
3339.00,0.0186
3338.00,0.0187
3337.00,0.0188
3336.00,0.0189
3335.00,0.0190
3334.00,0.0191
3333.00,0.0191
3332.00,0.0192
3331.00,0.0192
3330.00,0.0192
3329.00,0.0192
3328.00,0.0191
3327.00,0.0191
3326.00,0.0191
3325.00,0.0191
3324.00,0.0192
3323.00,0.0193
3322.00,0.0194
3321.00,0.0195
3320.00,0.0195
3319.00,0.0195
3318.00,0.0196
3317.00,0.0196
3316.00,0.0196
3315.00,0.0196
3314.00,0.0196
3313.00,0.0196
3312.00,0.0195
3311.00,0.0194
3310.00,0.0193
3309.00,0.0192
3308.00,0.0192
3307.00,0.0191
3306.00,0.0192
3305.00,0.0193
3304.00,0.0195
3303.00,0.0197
3302.00,0.0198
3301.00,0.0199
3300.00,0.0199
3299.00,0.0199
3298.00,0.0198
3297.00,0.0197
3296.00,0.0197
3295.00,0.0197
3294.00,0.0197
3293.00,0.0197
3292.00,0.0198
3291.00,0.0198
3290.00,0.0199
3289.00,0.0200
3288.00,0.0201
3287.00,0.0201
3286.00,0.0201
3285.00,0.0200
3284.00,0.0200
3283.00,0.0200
3282.00,0.0200
3281.00,0.0200
3280.00,0.0200
3279.00,0.0200
3278.00,0.0200
3277.00,0.0199
3276.00,0.0199
3275.00,0.0198
3274.00,0.0198
3273.00,0.0197
3272.00,0.0197
3271.00,0.0197
3270.00,0.0198
3269.00,0.0198
3268.00,0.0199
3267.00,0.0199
3266.00,0.0199
3265.00,0.0199
3264.00,0.0199
3263.00,0.0199
3262.00,0.0199
3261.00,0.0198
3260.00,0.0198
3259.00,0.0198
3258.00,0.0197
3257.00,0.0197
3256.00,0.0197
3255.00,0.0197
3254.00,0.0197
3253.00,0.0198
3252.00,0.0198
3251.00,0.0197
3250.00,0.0197
3249.00,0.0196
3248.00,0.0196
3247.00,0.0196
3246.00,0.0196
3245.00,0.0196
3244.00,0.0197
3243.00,0.0196
3242.00,0.0196
3241.00,0.0196
3240.00,0.0196
3239.00,0.0196
3238.00,0.0196
3237.00,0.0195
3236.00,0.0195
3235.00,0.0194
3234.00,0.0194
3233.00,0.0194
3232.00,0.0194
3231.00,0.0194
3230.00,0.0194
3229.00,0.0194
3228.00,0.0193
3227.00,0.0193
3226.00,0.0192
3225.00,0.0192
3224.00,0.0192
3223.00,0.0192
3222.00,0.0192
3221.00,0.0191
3220.00,0.0191
3219.00,0.0191
3218.00,0.0191
3217.00,0.0191
3216.00,0.0190
3215.00,0.0190
3214.00,0.0190
3213.00,0.0190
3212.00,0.0190
3211.00,0.0189
3210.00,0.0189
3209.00,0.0189
3208.00,0.0190
3207.00,0.0190
3206.00,0.0190
3205.00,0.0189
3204.00,0.0189
3203.00,0.0189
3202.00,0.0189
3201.00,0.0189
3200.00,0.0189
3199.00,0.0188
3198.00,0.0188
3197.00,0.0188
3196.00,0.0188
3195.00,0.0187
3194.00,0.0186
3193.00,0.0186
3192.00,0.0185
3191.00,0.0185
3190.00,0.0185
3189.00,0.0185
3188.00,0.0184
3187.00,0.0184
3186.00,0.0184
3185.00,0.0183
3184.00,0.0183
3183.00,0.0182
3182.00,0.0182
3181.00,0.0181
3180.00,0.0181
3179.00,0.0181
3178.00,0.0180
3177.00,0.0179
3176.00,0.0179
3175.00,0.0179
3174.00,0.0178
3173.00,0.0178
3172.00,0.0178
3171.00,0.0177
3170.00,0.0176
3169.00,0.0176
3168.00,0.0175
3167.00,0.0175
3166.00,0.0174
3165.00,0.0174
3164.00,0.0173
3163.00,0.0172
3162.00,0.0171
3161.00,0.0171
3160.00,0.0170
3159.00,0.0170
3158.00,0.0170
3157.00,0.0169
3156.00,0.0168
3155.00,0.0168
3154.00,0.0167
3153.00,0.0166
3152.00,0.0166
3151.00,0.0165
3150.00,0.0165
3149.00,0.0165
3148.00,0.0164
3147.00,0.0164
3146.00,0.0163
3145.00,0.0163
3144.00,0.0162
3143.00,0.0161
3142.00,0.0161
3141.00,0.0160
3140.00,0.0160
3139.00,0.0160
3138.00,0.0160
3137.00,0.0160
3136.00,0.0160
3135.00,0.0159
3134.00,0.0159
3133.00,0.0158
3132.00,0.0158
3131.00,0.0158
3130.00,0.0157
3129.00,0.0157
3128.00,0.0156
3127.00,0.0156
3126.00,0.0155
3125.00,0.0155
3124.00,0.0154
3123.00,0.0154
3122.00,0.0153
3121.00,0.0153
3120.00,0.0152
3119.00,0.0152
3118.00,0.0151
3117.00,0.0151
3116.00,0.0150
3115.00,0.0150
3114.00,0.0149
3113.00,0.0148
3112.00,0.0148
3111.00,0.0147
3110.00,0.0146
3109.00,0.0146
3108.00,0.0145
3107.00,0.0145
3106.00,0.0145
3105.00,0.0144
3104.00,0.0143
3103.00,0.0143
3102.00,0.0142
3101.00,0.0141
3100.00,0.0140
3099.00,0.0140
3098.00,0.0139
3097.00,0.0139
3096.00,0.0138
3095.00,0.0138
3094.00,0.0137
3093.00,0.0136
3092.00,0.0135
3091.00,0.0135
3090.00,0.0134
3089.00,0.0134
3088.00,0.0134
3087.00,0.0133
3086.00,0.0133
3085.00,0.0132
3084.00,0.0131
3083.00,0.0130
3082.00,0.0130
3081.00,0.0129
3080.00,0.0129
3079.00,0.0129
3078.00,0.0128
3077.00,0.0128
3076.00,0.0128
3075.00,0.0128
3074.00,0.0127
3073.00,0.0126
3072.00,0.0126
3071.00,0.0125
3070.00,0.0125
3069.00,0.0125
3068.00,0.0125
3067.00,0.0124
3066.00,0.0124
3065.00,0.0124
3064.00,0.0124
3063.00,0.0123
3062.00,0.0122
3061.00,0.0122
3060.00,0.0122
3059.00,0.0121
3058.00,0.0121
3057.00,0.0121
3056.00,0.0121
3055.00,0.0121
3054.00,0.0120
3053.00,0.0120
3052.00,0.0120
3051.00,0.0120
3050.00,0.0119
3049.00,0.0119
3048.00,0.0119
3047.00,0.0118
3046.00,0.0118
3045.00,0.0117
3044.00,0.0117
3043.00,0.0117
3042.00,0.0116
3041.00,0.0116
3040.00,0.0116
3039.00,0.0116
3038.00,0.0116
3037.00,0.0116
3036.00,0.0116
3035.00,0.0116
3034.00,0.0116
3033.00,0.0116
3032.00,0.0116
3031.00,0.0116
3030.00,0.0116
3029.00,0.0116
3028.00,0.0116
3027.00,0.0116
3026.00,0.0117
3025.00,0.0117
3024.00,0.0117
3023.00,0.0117
3022.00,0.0118
3021.00,0.0118
3020.00,0.0119
3019.00,0.0120
3018.00,0.0120
3017.00,0.0121
3016.00,0.0122
3015.00,0.0122
3014.00,0.0123
3013.00,0.0124
3012.00,0.0125
3011.00,0.0127
3010.00,0.0129
3009.00,0.0131
3008.00,0.0133
3007.00,0.0135
3006.00,0.0137
3005.00,0.0140
3004.00,0.0143
3003.00,0.0147
3002.00,0.0150
3001.00,0.0154
3000.00,0.0158
2999.00,0.0162
2998.00,0.0166
2997.00,0.0171
2996.00,0.0176
2995.00,0.0181
2994.00,0.0186
2993.00,0.0191
2992.00,0.0197
2991.00,0.0202
2990.00,0.0208
2989.00,0.0214
2988.00,0.0219
2987.00,0.0225
2986.00,0.0230
2985.00,0.0236
2984.00,0.0241
2983.00,0.0247
2982.00,0.0252
2981.00,0.0257
2980.00,0.0261
2979.00,0.0265
2978.00,0.0268
2977.00,0.0272
2976.00,0.0275
2975.00,0.0279
2974.00,0.0283
2973.00,0.0287
2972.00,0.0292
2971.00,0.0296
2970.00,0.0301
2969.00,0.0305
2968.00,0.0309
2967.00,0.0314
2966.00,0.0319
2965.00,0.0323
2964.00,0.0328
2963.00,0.0332
2962.00,0.0337
2961.00,0.0341
2960.00,0.0345
2959.00,0.0348
2958.00,0.0351
2957.00,0.0354
2956.00,0.0355
2955.00,0.0357
2954.00,0.0357
2953.00,0.0357
2952.00,0.0357
2951.00,0.0357
2950.00,0.0356
2949.00,0.0354
2948.00,0.0353
2947.00,0.0351
2946.00,0.0350
2945.00,0.0349
2944.00,0.0348
2943.00,0.0349
2942.00,0.0349
2941.00,0.0351
2940.00,0.0353
2939.00,0.0355
2938.00,0.0358
2937.00,0.0362
2936.00,0.0366
2935.00,0.0370
2934.00,0.0374
2933.00,0.0378
2932.00,0.0382
2931.00,0.0386
2930.00,0.0390
2929.00,0.0394
2928.00,0.0398
2927.00,0.0401
2926.00,0.0404
2925.00,0.0406
2924.00,0.0408
2923.00,0.0409
2922.00,0.0409
2921.00,0.0409
2920.00,0.0408
2919.00,0.0407
2918.00,0.0404
2917.00,0.0401
2916.00,0.0398
2915.00,0.0393
2914.00,0.0389
2913.00,0.0384
2912.00,0.0379
2911.00,0.0374
2910.00,0.0368
2909.00,0.0362
2908.00,0.0356
2907.00,0.0351
2906.00,0.0345
2905.00,0.0340
2904.00,0.0336
2903.00,0.0332
2902.00,0.0329
2901.00,0.0326
2900.00,0.0324
2899.00,0.0322
2898.00,0.0321
2897.00,0.0319
2896.00,0.0318
2895.00,0.0318
2894.00,0.0317
2893.00,0.0316
2892.00,0.0315
2891.00,0.0314
2890.00,0.0313
2889.00,0.0312
2888.00,0.0311
2887.00,0.0310
2886.00,0.0309
2885.00,0.0309
2884.00,0.0308
2883.00,0.0307
2882.00,0.0306
2881.00,0.0306
2880.00,0.0305
2879.00,0.0305
2878.00,0.0305
2877.00,0.0305
2876.00,0.0305
2875.00,0.0305
2874.00,0.0305
2873.00,0.0305
2872.00,0.0305
2871.00,0.0305
2870.00,0.0304
2869.00,0.0303
2868.00,0.0302
2867.00,0.0300
2866.00,0.0299
2865.00,0.0299
2864.00,0.0298
2863.00,0.0298
2862.00,0.0299
2861.00,0.0299
2860.00,0.0300
2859.00,0.0301
2858.00,0.0301
2857.00,0.0300
2856.00,0.0298
2855.00,0.0296
2854.00,0.0292
2853.00,0.0287
2852.00,0.0282
2851.00,0.0275
2850.00,0.0269
2849.00,0.0262
2848.00,0.0255
2847.00,0.0249
2846.00,0.0242
2845.00,0.0236
2844.00,0.0230
2843.00,0.0224
2842.00,0.0218
2841.00,0.0212
2840.00,0.0206
2839.00,0.0200
2838.00,0.0196
2837.00,0.0191
2836.00,0.0188
2835.00,0.0184
2834.00,0.0181
2833.00,0.0177
2832.00,0.0174
2831.00,0.0170
2830.00,0.0167
2829.00,0.0163
2828.00,0.0160
2827.00,0.0156
2826.00,0.0153
2825.00,0.0149
2824.00,0.0146
2823.00,0.0143
2822.00,0.0140
2821.00,0.0138
2820.00,0.0135
2819.00,0.0133
2818.00,0.0130
2817.00,0.0128
2816.00,0.0126
2815.00,0.0124
2814.00,0.0122
2813.00,0.0120
2812.00,0.0118
2811.00,0.0117
2810.00,0.0116
2809.00,0.0114
2808.00,0.0113
2807.00,0.0112
2806.00,0.0110
2805.00,0.0109
2804.00,0.0108
2803.00,0.0107
2802.00,0.0106
2801.00,0.0105
2800.00,0.0105
2799.00,0.0104
2798.00,0.0103
2797.00,0.0102
2796.00,0.0102
2795.00,0.0101
2794.00,0.0100
2793.00,0.0099
2792.00,0.0099
2791.00,0.0098
2790.00,0.0098
2789.00,0.0097
2788.00,0.0097
2787.00,0.0097
2786.00,0.0096
2785.00,0.0096
2784.00,0.0095
2783.00,0.0095
2782.00,0.0095
2781.00,0.0094
2780.00,0.0094
2779.00,0.0093
2778.00,0.0093
2777.00,0.0092
2776.00,0.0092
2775.00,0.0092
2774.00,0.0091
2773.00,0.0091
2772.00,0.0091
2771.00,0.0090
2770.00,0.0090
2769.00,0.0089
2768.00,0.0089
2767.00,0.0089
2766.00,0.0089
2765.00,0.0089
2764.00,0.0089
2763.00,0.0088
2762.00,0.0088
2761.00,0.0088
2760.00,0.0088
2759.00,0.0087
2758.00,0.0087
2757.00,0.0087
2756.00,0.0087
2755.00,0.0087
2754.00,0.0087
2753.00,0.0087
2752.00,0.0087
2751.00,0.0087
2750.00,0.0087
2749.00,0.0087
2748.00,0.0087
2747.00,0.0087
2746.00,0.0087
2745.00,0.0087
2744.00,0.0088
2743.00,0.0088
2742.00,0.0088
2741.00,0.0088
2740.00,0.0088
2739.00,0.0088
2738.00,0.0088
2737.00,0.0088
2736.00,0.0088
2735.00,0.0088
2734.00,0.0088
2733.00,0.0088
2732.00,0.0088
2731.00,0.0088
2730.00,0.0088
2729.00,0.0088
2728.00,0.0088
2727.00,0.0088
2726.00,0.0088
2725.00,0.0088
2724.00,0.0088
2723.00,0.0087
2722.00,0.0087
2721.00,0.0087
2720.00,0.0087
2719.00,0.0087
2718.00,0.0087
2717.00,0.0087
2716.00,0.0087
2715.00,0.0087
2714.00,0.0086
2713.00,0.0086
2712.00,0.0086
2711.00,0.0086
2710.00,0.0085
2709.00,0.0085
2708.00,0.0085
2707.00,0.0085
2706.00,0.0085
2705.00,0.0085
2704.00,0.0084
2703.00,0.0084
2702.00,0.0084
2701.00,0.0084
2700.00,0.0084
2699.00,0.0084
2698.00,0.0084
2697.00,0.0084
2696.00,0.0084
2695.00,0.0083
2694.00,0.0083
2693.00,0.0083
2692.00,0.0083
2691.00,0.0083
2690.00,0.0083
2689.00,0.0083
2688.00,0.0083
2687.00,0.0082
2686.00,0.0082
2685.00,0.0082
2684.00,0.0082
2683.00,0.0081
2682.00,0.0081
2681.00,0.0081
2680.00,0.0081
2679.00,0.0081
2678.00,0.0081
2677.00,0.0080
2676.00,0.0080
2675.00,0.0080
2674.00,0.0080
2673.00,0.0080
2672.00,0.0080
2671.00,0.0080
2670.00,0.0080
2669.00,0.0080
2668.00,0.0080
2667.00,0.0080
2666.00,0.0081
2665.00,0.0081
2664.00,0.0081
2663.00,0.0081
2662.00,0.0082
2661.00,0.0082
2660.00,0.0082
2659.00,0.0082
2658.00,0.0081
2657.00,0.0082
2656.00,0.0082
2655.00,0.0082
2654.00,0.0081
2653.00,0.0081
2652.00,0.0081
2651.00,0.0081
2650.00,0.0081
2649.00,0.0081
2648.00,0.0081
2647.00,0.0081
2646.00,0.0080
2645.00,0.0080
2644.00,0.0080
2643.00,0.0080
2642.00,0.0080
2641.00,0.0079
2640.00,0.0079
2639.00,0.0079
2638.00,0.0078
2637.00,0.0078
2636.00,0.0078
2635.00,0.0078
2634.00,0.0078
2633.00,0.0078
2632.00,0.0078
2631.00,0.0077
2630.00,0.0077
2629.00,0.0077
2628.00,0.0077
2627.00,0.0076
2626.00,0.0076
2625.00,0.0076
2624.00,0.0076
2623.00,0.0075
2622.00,0.0075
2621.00,0.0074
2620.00,0.0074
2619.00,0.0074
2618.00,0.0074
2617.00,0.0074
2616.00,0.0074
2615.00,0.0074
2614.00,0.0073
2613.00,0.0073
2612.00,0.0073
2611.00,0.0073
2610.00,0.0073
2609.00,0.0072
2608.00,0.0072
2607.00,0.0072
2606.00,0.0072
2605.00,0.0072
2604.00,0.0072
2603.00,0.0071
2602.00,0.0071
2601.00,0.0072
2600.00,0.0072
2599.00,0.0072
2598.00,0.0072
2597.00,0.0072
2596.00,0.0072
2595.00,0.0072
2594.00,0.0072
2593.00,0.0072
2592.00,0.0072
2591.00,0.0072
2590.00,0.0072
2589.00,0.0072
2588.00,0.0072
2587.00,0.0072
2586.00,0.0072
2585.00,0.0072
2584.00,0.0072
2583.00,0.0071
2582.00,0.0071
2581.00,0.0071
2580.00,0.0071
2579.00,0.0071
2578.00,0.0071
2577.00,0.0071
2576.00,0.0070
2575.00,0.0070
2574.00,0.0070
2573.00,0.0070
2572.00,0.0070
2571.00,0.0070
2570.00,0.0070
2569.00,0.0070
2568.00,0.0070
2567.00,0.0069
2566.00,0.0069
2565.00,0.0068
2564.00,0.0068
2563.00,0.0067
2562.00,0.0067
2561.00,0.0067
2560.00,0.0067
2559.00,0.0067
2558.00,0.0067
2557.00,0.0067
2556.00,0.0067
2555.00,0.0066
2554.00,0.0066
2553.00,0.0066
2552.00,0.0065
2551.00,0.0066
2550.00,0.0066
2549.00,0.0066
2548.00,0.0066
2547.00,0.0067
2546.00,0.0067
2545.00,0.0067
2544.00,0.0067
2543.00,0.0067
2542.00,0.0066
2541.00,0.0066
2540.00,0.0066
2539.00,0.0066
2538.00,0.0065
2537.00,0.0065
2536.00,0.0065
2535.00,0.0065
2534.00,0.0065
2533.00,0.0065
2532.00,0.0065
2531.00,0.0065
2530.00,0.0065
2529.00,0.0065
2528.00,0.0065
2527.00,0.0064
2526.00,0.0064
2525.00,0.0064
2524.00,0.0064
2523.00,0.0064
2522.00,0.0063
2521.00,0.0063
2520.00,0.0063
2519.00,0.0063
2518.00,0.0062
2517.00,0.0062
2516.00,0.0062
2515.00,0.0062
2514.00,0.0062
2513.00,0.0062
2512.00,0.0062
2511.00,0.0062
2510.00,0.0062
2509.00,0.0061
2508.00,0.0061
2507.00,0.0061
2506.00,0.0061
2505.00,0.0061
2504.00,0.0061
2503.00,0.0061
2502.00,0.0060
2501.00,0.0060
2500.00,0.0060
2499.00,0.0061
2498.00,0.0060
2497.00,0.0060
2496.00,0.0060
2495.00,0.0060
2494.00,0.0060
2493.00,0.0060
2492.00,0.0060
2491.00,0.0060
2490.00,0.0060
2489.00,0.0059
2488.00,0.0059
2487.00,0.0059
2486.00,0.0059
2485.00,0.0059
2484.00,0.0059
2483.00,0.0059
2482.00,0.0059
2481.00,0.0059
2480.00,0.0059
2479.00,0.0059
2478.00,0.0059
2477.00,0.0059
2476.00,0.0058
2475.00,0.0058
2474.00,0.0058
2473.00,0.0058
2472.00,0.0058
2471.00,0.0058
2470.00,0.0058
2469.00,0.0058
2468.00,0.0058
2467.00,0.0058
2466.00,0.0058
2465.00,0.0058
2464.00,0.0058
2463.00,0.0059
2462.00,0.0059
2461.00,0.0058
2460.00,0.0058
2459.00,0.0058
2458.00,0.0058
2457.00,0.0058
2456.00,0.0058
2455.00,0.0058
2454.00,0.0058
2453.00,0.0058
2452.00,0.0058
2451.00,0.0058
2450.00,0.0058
2449.00,0.0058
2448.00,0.0058
2447.00,0.0058
2446.00,0.0058
2445.00,0.0058
2444.00,0.0058
2443.00,0.0058
2442.00,0.0057
2441.00,0.0057
2440.00,0.0057
2439.00,0.0056
2438.00,0.0056
2437.00,0.0056
2436.00,0.0057
2435.00,0.0057
2434.00,0.0057
2433.00,0.0057
2432.00,0.0057
2431.00,0.0057
2430.00,0.0056
2429.00,0.0056
2428.00,0.0056
2427.00,0.0056
2426.00,0.0056
2425.00,0.0056
2424.00,0.0055
2423.00,0.0055
2422.00,0.0055
2421.00,0.0055
2420.00,0.0056
2419.00,0.0056
2418.00,0.0056
2417.00,0.0056
2416.00,0.0056
2415.00,0.0057
2414.00,0.0057
2413.00,0.0057
2412.00,0.0056
2411.00,0.0056
2410.00,0.0056
2409.00,0.0055
2408.00,0.0054
2407.00,0.0054
2406.00,0.0054
2405.00,0.0054
2404.00,0.0054
2403.00,0.0054
2402.00,0.0054
2401.00,0.0054
2400.00,0.0054
2399.00,0.0054
2398.00,0.0054
2397.00,0.0054
2396.00,0.0054
2395.00,0.0054
2394.00,0.0054
2393.00,0.0054
2392.00,0.0054
2391.00,0.0054
2390.00,0.0053
2389.00,0.0053
2388.00,0.0053
2387.00,0.0053
2386.00,0.0052
2385.00,0.0052
2384.00,0.0051
2383.00,0.0050
2382.00,0.0049
2381.00,0.0048
2380.00,0.0048
2379.00,0.0048
2378.00,0.0049
2377.00,0.0049
2376.00,0.0049
2375.00,0.0049
2374.00,0.0049
2373.00,0.0049
2372.00,0.0049
2371.00,0.0048
2370.00,0.0048
2369.00,0.0048
2368.00,0.0047
2367.00,0.0047
2366.00,0.0047
2365.00,0.0047
2364.00,0.0047
2363.00,0.0048
2362.00,0.0048
2361.00,0.0048
2360.00,0.0049
2359.00,0.0049
2358.00,0.0048
2357.00,0.0048
2356.00,0.0049
2355.00,0.0049
2354.00,0.0049
2353.00,0.0049
2352.00,0.0049
2351.00,0.0048
2350.00,0.0048
2349.00,0.0049
2348.00,0.0050
2347.00,0.0052
2346.00,0.0052
2345.00,0.0052
2344.00,0.0052
2343.00,0.0051
2342.00,0.0051
2341.00,0.0051
2340.00,0.0052
2339.00,0.0052
2338.00,0.0052
2337.00,0.0053
2336.00,0.0053
2335.00,0.0053
2334.00,0.0053
2333.00,0.0053
2332.00,0.0053
2331.00,0.0053
2330.00,0.0054
2329.00,0.0055
2328.00,0.0057
2327.00,0.0060
2326.00,0.0063
2325.00,0.0063
2324.00,0.0062
2323.00,0.0061
2322.00,0.0059
2321.00,0.0058
2320.00,0.0057
2319.00,0.0057
2318.00,0.0056
2317.00,0.0055
2316.00,0.0055
2315.00,0.0055
2314.00,0.0055
2313.00,0.0054
2312.00,0.0053
2311.00,0.0053
2310.00,0.0052
2309.00,0.0052
2308.00,0.0052
2307.00,0.0052
2306.00,0.0053
2305.00,0.0053
2304.00,0.0053
2303.00,0.0053
2302.00,0.0054
2301.00,0.0054
2300.00,0.0054
2299.00,0.0054
2298.00,0.0055
2297.00,0.0055
2296.00,0.0056
2295.00,0.0057
2294.00,0.0058
2293.00,0.0059
2292.00,0.0059
2291.00,0.0060
2290.00,0.0060
2289.00,0.0060
2288.00,0.0060
2287.00,0.0060
2286.00,0.0060
2285.00,0.0061
2284.00,0.0061
2283.00,0.0060
2282.00,0.0059
2281.00,0.0059
2280.00,0.0058
2279.00,0.0057
2278.00,0.0057
2277.00,0.0057
2276.00,0.0058
2275.00,0.0058
2274.00,0.0057
2273.00,0.0057
2272.00,0.0057
2271.00,0.0057
2270.00,0.0057
2269.00,0.0057
2268.00,0.0056
2267.00,0.0055
2266.00,0.0054
2265.00,0.0054
2264.00,0.0054
2263.00,0.0055
2262.00,0.0055
2261.00,0.0056
2260.00,0.0057
2259.00,0.0056
2258.00,0.0056
2257.00,0.0055
2256.00,0.0054
2255.00,0.0054
2254.00,0.0053
2253.00,0.0053
2252.00,0.0054
2251.00,0.0054
2250.00,0.0054
2249.00,0.0054
2248.00,0.0054
2247.00,0.0054
2246.00,0.0054
2245.00,0.0054
2244.00,0.0055
2243.00,0.0056
2242.00,0.0056
2241.00,0.0057
2240.00,0.0057
2239.00,0.0057
2238.00,0.0056
2237.00,0.0055
2236.00,0.0054
2235.00,0.0053
2234.00,0.0053
2233.00,0.0053
2232.00,0.0053
2231.00,0.0054
2230.00,0.0053
2229.00,0.0053
2228.00,0.0053
2227.00,0.0053
2226.00,0.0053
2225.00,0.0054
2224.00,0.0054
2223.00,0.0054
2222.00,0.0054
2221.00,0.0054
2220.00,0.0054
2219.00,0.0055
2218.00,0.0054
2217.00,0.0054
2216.00,0.0053
2215.00,0.0052
2214.00,0.0052
2213.00,0.0052
2212.00,0.0053
2211.00,0.0054
2210.00,0.0054
2209.00,0.0054
2208.00,0.0054
2207.00,0.0053
2206.00,0.0053
2205.00,0.0053
2204.00,0.0054
2203.00,0.0054
2202.00,0.0054
2201.00,0.0054
2200.00,0.0055
2199.00,0.0055
2198.00,0.0054
2197.00,0.0053
2196.00,0.0053
2195.00,0.0054
2194.00,0.0054
2193.00,0.0055
2192.00,0.0056
2191.00,0.0058
2190.00,0.0058
2189.00,0.0058
2188.00,0.0058
2187.00,0.0057
2186.00,0.0057
2185.00,0.0056
2184.00,0.0055
2183.00,0.0052
2182.00,0.0050
2181.00,0.0049
2180.00,0.0050
2179.00,0.0052
2178.00,0.0053
2177.00,0.0053
2176.00,0.0052
2175.00,0.0051
2174.00,0.0051
2173.00,0.0052
2172.00,0.0053
2171.00,0.0055
2170.00,0.0056
2169.00,0.0056
2168.00,0.0058
2167.00,0.0059
2166.00,0.0060
2165.00,0.0061
2164.00,0.0063
2163.00,0.0064
2162.00,0.0059
2161.00,0.0049
2160.00,0.0037
2159.00,0.0027
2158.00,0.0023
2157.00,0.0024
2156.00,0.0028
2155.00,0.0031
2154.00,0.0032
2153.00,0.0035
2152.00,0.0037
2151.00,0.0038
2150.00,0.0038
2149.00,0.0037
2148.00,0.0036
2147.00,0.0036
2146.00,0.0036
2145.00,0.0037
2144.00,0.0038
2143.00,0.0038
2142.00,0.0038
2141.00,0.0038
2140.00,0.0038
2139.00,0.0037
2138.00,0.0035
2137.00,0.0034
2136.00,0.0033
2135.00,0.0032
2134.00,0.0033
2133.00,0.0035
2132.00,0.0037
2131.00,0.0038
2130.00,0.0039
2129.00,0.0040
2128.00,0.0041
2127.00,0.0043
2126.00,0.0044
2125.00,0.0044
2124.00,0.0045
2123.00,0.0046
2122.00,0.0046
2121.00,0.0047
2120.00,0.0048
2119.00,0.0048
2118.00,0.0048
2117.00,0.0049
2116.00,0.0051
2115.00,0.0051
2114.00,0.0051
2113.00,0.0051
2112.00,0.0050
2111.00,0.0049
2110.00,0.0049
2109.00,0.0048
2108.00,0.0049
2107.00,0.0049
2106.00,0.0049
2105.00,0.0049
2104.00,0.0049
2103.00,0.0049
2102.00,0.0048
2101.00,0.0048
2100.00,0.0048
2099.00,0.0047
2098.00,0.0046
2097.00,0.0044
2096.00,0.0043
2095.00,0.0042
2094.00,0.0042
2093.00,0.0043
2092.00,0.0045
2091.00,0.0046
2090.00,0.0046
2089.00,0.0047
2088.00,0.0048
2087.00,0.0049
2086.00,0.0050
2085.00,0.0050
2084.00,0.0051
2083.00,0.0050
2082.00,0.0050
2081.00,0.0049
2080.00,0.0050
2079.00,0.0050
2078.00,0.0050
2077.00,0.0050
2076.00,0.0050
2075.00,0.0049
2074.00,0.0049
2073.00,0.0049
2072.00,0.0049
2071.00,0.0049
2070.00,0.0049
2069.00,0.0048
2068.00,0.0049
2067.00,0.0048
2066.00,0.0048
2065.00,0.0048
2064.00,0.0049
2063.00,0.0050
2062.00,0.0050
2061.00,0.0050
2060.00,0.0050
2059.00,0.0049
2058.00,0.0049
2057.00,0.0048
2056.00,0.0047
2055.00,0.0047
2054.00,0.0049
2053.00,0.0053
2052.00,0.0056
2051.00,0.0056
2050.00,0.0053
2049.00,0.0050
2048.00,0.0048
2047.00,0.0047
2046.00,0.0046
2045.00,0.0046
2044.00,0.0048
2043.00,0.0049
2042.00,0.0049
2041.00,0.0050
2040.00,0.0050
2039.00,0.0048
2038.00,0.0047
2037.00,0.0045
2036.00,0.0045
2035.00,0.0044
2034.00,0.0042
2033.00,0.0041
2032.00,0.0041
2031.00,0.0040
2030.00,0.0039
2029.00,0.0037
2028.00,0.0037
2027.00,0.0038
2026.00,0.0040
2025.00,0.0041
2024.00,0.0042
2023.00,0.0043
2022.00,0.0042
2021.00,0.0042
2020.00,0.0043
2019.00,0.0043
2018.00,0.0042
2017.00,0.0042
2016.00,0.0042
2015.00,0.0042
2014.00,0.0041
2013.00,0.0040
2012.00,0.0040
2011.00,0.0040
2010.00,0.0040
2009.00,0.0040
2008.00,0.0039
2007.00,0.0037
2006.00,0.0036
2005.00,0.0036
2004.00,0.0038
2003.00,0.0040
2002.00,0.0040
2001.00,0.0040
2000.00,0.0040
1999.00,0.0040
1998.00,0.0041
1997.00,0.0043
1996.00,0.0046
1995.00,0.0047
1994.00,0.0047
1993.00,0.0047
1992.00,0.0047
1991.00,0.0046
1990.00,0.0046
1989.00,0.0046
1988.00,0.0047
1987.00,0.0047
1986.00,0.0048
1985.00,0.0049
1984.00,0.0052
1983.00,0.0055
1982.00,0.0057
1981.00,0.0057
1980.00,0.0055
1979.00,0.0050
1978.00,0.0042
1977.00,0.0037
1976.00,0.0037
1975.00,0.0038
1974.00,0.0038
1973.00,0.0037
1972.00,0.0037
1971.00,0.0037
1970.00,0.0036
1969.00,0.0037
1968.00,0.0038
1967.00,0.0038
1966.00,0.0037
1965.00,0.0037
1964.00,0.0037
1963.00,0.0036
1962.00,0.0034
1961.00,0.0033
1960.00,0.0033
1959.00,0.0034
1958.00,0.0035
1957.00,0.0036
1956.00,0.0038
1955.00,0.0038
1954.00,0.0037
1953.00,0.0037
1952.00,0.0038
1951.00,0.0038
1950.00,0.0038
1949.00,0.0038
1948.00,0.0039
1947.00,0.0040
1946.00,0.0039
1945.00,0.0039
1944.00,0.0040
1943.00,0.0040
1942.00,0.0040
1941.00,0.0039
1940.00,0.0038
1939.00,0.0037
1938.00,0.0037
1937.00,0.0037
1936.00,0.0038
1935.00,0.0039
1934.00,0.0039
1933.00,0.0039
1932.00,0.0040
1931.00,0.0040
1930.00,0.0040
1929.00,0.0041
1928.00,0.0041
1927.00,0.0042
1926.00,0.0042
1925.00,0.0042
1924.00,0.0042
1923.00,0.0043
1922.00,0.0044
1921.00,0.0044
1920.00,0.0044
1919.00,0.0044
1918.00,0.0043
1917.00,0.0043
1916.00,0.0044
1915.00,0.0044
1914.00,0.0043
1913.00,0.0043
1912.00,0.0043
1911.00,0.0042
1910.00,0.0042
1909.00,0.0042
1908.00,0.0043
1907.00,0.0043
1906.00,0.0043
1905.00,0.0043
1904.00,0.0043
1903.00,0.0043
1902.00,0.0042
1901.00,0.0042
1900.00,0.0042
1899.00,0.0042
1898.00,0.0041
1897.00,0.0041
1896.00,0.0042
1895.00,0.0042
1894.00,0.0042
1893.00,0.0042
1892.00,0.0042
1891.00,0.0042
1890.00,0.0042
1889.00,0.0042
1888.00,0.0042
1887.00,0.0042
1886.00,0.0042
1885.00,0.0042
1884.00,0.0042
1883.00,0.0043
1882.00,0.0043
1881.00,0.0043
1880.00,0.0043
1879.00,0.0043
1878.00,0.0043
1877.00,0.0043
1876.00,0.0043
1875.00,0.0044
1874.00,0.0044
1873.00,0.0044
1872.00,0.0045
1871.00,0.0045
1870.00,0.0044
1869.00,0.0043
1868.00,0.0043
1867.00,0.0043
1866.00,0.0043
1865.00,0.0043
1864.00,0.0043
1863.00,0.0043
1862.00,0.0043
1861.00,0.0043
1860.00,0.0043
1859.00,0.0044
1858.00,0.0043
1857.00,0.0043
1856.00,0.0044
1855.00,0.0044
1854.00,0.0044
1853.00,0.0044
1852.00,0.0044
1851.00,0.0043
1850.00,0.0043
1849.00,0.0043
1848.00,0.0043
1847.00,0.0044
1846.00,0.0044
1845.00,0.0043
1844.00,0.0044
1843.00,0.0044
1842.00,0.0044
1841.00,0.0044
1840.00,0.0044
1839.00,0.0044
1838.00,0.0044
1837.00,0.0044
1836.00,0.0045
1835.00,0.0045
1834.00,0.0045
1833.00,0.0045
1832.00,0.0045
1831.00,0.0045
1830.00,0.0044
1829.00,0.0043
1828.00,0.0044
1827.00,0.0044
1826.00,0.0044
1825.00,0.0044
1824.00,0.0044
1823.00,0.0044
1822.00,0.0044
1821.00,0.0044
1820.00,0.0043
1819.00,0.0043
1818.00,0.0042
1817.00,0.0041
1816.00,0.0042
1815.00,0.0042
1814.00,0.0043
1813.00,0.0043
1812.00,0.0044
1811.00,0.0044
1810.00,0.0044
1809.00,0.0044
1808.00,0.0044
1807.00,0.0045
1806.00,0.0045
1805.00,0.0045
1804.00,0.0045
1803.00,0.0046
1802.00,0.0045
1801.00,0.0045
1800.00,0.0045
1799.00,0.0045
1798.00,0.0045
1797.00,0.0045
1796.00,0.0046
1795.00,0.0046
1794.00,0.0046
1793.00,0.0045
1792.00,0.0045
1791.00,0.0045
1790.00,0.0045
1789.00,0.0046
1788.00,0.0047
1787.00,0.0047
1786.00,0.0047
1785.00,0.0047
1784.00,0.0048
1783.00,0.0048
1782.00,0.0048
1781.00,0.0048
1780.00,0.0048
1779.00,0.0048
1778.00,0.0048
1777.00,0.0048
1776.00,0.0049
1775.00,0.0050
1774.00,0.0050
1773.00,0.0050
1772.00,0.0050
1771.00,0.0050
1770.00,0.0050
1769.00,0.0051
1768.00,0.0052
1767.00,0.0052
1766.00,0.0052
1765.00,0.0052
1764.00,0.0053
1763.00,0.0053
1762.00,0.0052
1761.00,0.0052
1760.00,0.0054
1759.00,0.0055
1758.00,0.0055
1757.00,0.0056
1756.00,0.0057
1755.00,0.0058
1754.00,0.0058
1753.00,0.0059
1752.00,0.0059
1751.00,0.0060
1750.00,0.0060
1749.00,0.0060
1748.00,0.0062
1747.00,0.0063
1746.00,0.0063
1745.00,0.0064
1744.00,0.0065
1743.00,0.0065
1742.00,0.0065
1741.00,0.0065
1740.00,0.0066
1739.00,0.0067
1738.00,0.0068
1737.00,0.0070
1736.00,0.0072
1735.00,0.0073
1734.00,0.0074
1733.00,0.0075
1732.00,0.0077
1731.00,0.0079
1730.00,0.0080
1729.00,0.0082
1728.00,0.0085
1727.00,0.0087
1726.00,0.0089
1725.00,0.0092
1724.00,0.0096
1723.00,0.0099
1722.00,0.0101
1721.00,0.0104
1720.00,0.0108
1719.00,0.0112
1718.00,0.0115
1717.00,0.0120
1716.00,0.0127
1715.00,0.0133
1714.00,0.0140
1713.00,0.0147
1712.00,0.0156
1711.00,0.0165
1710.00,0.0175
1709.00,0.0186
1708.00,0.0200
1707.00,0.0215
1706.00,0.0234
1705.00,0.0255
1704.00,0.0276
1703.00,0.0295
1702.00,0.0318
1701.00,0.0353
1700.00,0.0400
1699.00,0.0442
1698.00,0.0477
1697.00,0.0518
1696.00,0.0572
1695.00,0.0630
1694.00,0.0681
1693.00,0.0726
1692.00,0.0772
1691.00,0.0823
1690.00,0.0878
1689.00,0.0932
1688.00,0.0981
1687.00,0.1025
1686.00,0.1070
1685.00,0.1128
1684.00,0.1197
1683.00,0.1255
1682.00,0.1293
1681.00,0.1323
1680.00,0.1353
1679.00,0.1380
1678.00,0.1402
1677.00,0.1424
1676.00,0.1450
1675.00,0.1476
1674.00,0.1495
1673.00,0.1506
1672.00,0.1514
1671.00,0.1526
1670.00,0.1541
1669.00,0.1558
1668.00,0.1572
1667.00,0.1582
1666.00,0.1589
1665.00,0.1598
1664.00,0.1611
1663.00,0.1629
1662.00,0.1647
1661.00,0.1661
1660.00,0.1671
1659.00,0.1679
1658.00,0.1683
1657.00,0.1684
1656.00,0.1681
1655.00,0.1679
1654.00,0.1681
1653.00,0.1683
1652.00,0.1673
1651.00,0.1650
1650.00,0.1620
1649.00,0.1587
1648.00,0.1550
1647.00,0.1507
1646.00,0.1457
1645.00,0.1404
1644.00,0.1349
1643.00,0.1294
1642.00,0.1238
1641.00,0.1180
1640.00,0.1123
1639.00,0.1070
1638.00,0.1018
1637.00,0.0966
1636.00,0.0914
1635.00,0.0866
1634.00,0.0824
1633.00,0.0788
1632.00,0.0756
1631.00,0.0726
1630.00,0.0698
1629.00,0.0673
1628.00,0.0651
1627.00,0.0632
1626.00,0.0616
1625.00,0.0602
1624.00,0.0591
1623.00,0.0581
1622.00,0.0573
1621.00,0.0565
1620.00,0.0556
1619.00,0.0547
1618.00,0.0537
1617.00,0.0525
1616.00,0.0511
1615.00,0.0497
1614.00,0.0484
1613.00,0.0470
1612.00,0.0456
1611.00,0.0443
1610.00,0.0433
1609.00,0.0424
1608.00,0.0418
1607.00,0.0415
1606.00,0.0415
1605.00,0.0418
1604.00,0.0423
1603.00,0.0430
1602.00,0.0438
1601.00,0.0445
1600.00,0.0450
1599.00,0.0452
1598.00,0.0452
1597.00,0.0448
1596.00,0.0440
1595.00,0.0430
1594.00,0.0419
1593.00,0.0407
1592.00,0.0395
1591.00,0.0384
1590.00,0.0374
1589.00,0.0365
1588.00,0.0357
1587.00,0.0349
1586.00,0.0341
1585.00,0.0331
1584.00,0.0322
1583.00,0.0312
1582.00,0.0301
1581.00,0.0291
1580.00,0.0281
1579.00,0.0271
1578.00,0.0263
1577.00,0.0254
1576.00,0.0244
1575.00,0.0236
1574.00,0.0230
1573.00,0.0224
1572.00,0.0219
1571.00,0.0214
1570.00,0.0209
1569.00,0.0205
1568.00,0.0200
1567.00,0.0197
1566.00,0.0193
1565.00,0.0190
1564.00,0.0187
1563.00,0.0184
1562.00,0.0182
1561.00,0.0180
1560.00,0.0177
1559.00,0.0174
1558.00,0.0172
1557.00,0.0171
1556.00,0.0170
1555.00,0.0169
1554.00,0.0168
1553.00,0.0167
1552.00,0.0166
1551.00,0.0166
1550.00,0.0165
1549.00,0.0165
1548.00,0.0164
1547.00,0.0164
1546.00,0.0164
1545.00,0.0164
1544.00,0.0164
1543.00,0.0164
1542.00,0.0163
1541.00,0.0163
1540.00,0.0163
1539.00,0.0162
1538.00,0.0162
1537.00,0.0162
1536.00,0.0161
1535.00,0.0160
1534.00,0.0159
1533.00,0.0158
1532.00,0.0158
1531.00,0.0157
1530.00,0.0157
1529.00,0.0157
1528.00,0.0156
1527.00,0.0156
1526.00,0.0156
1525.00,0.0157
1524.00,0.0157
1523.00,0.0158
1522.00,0.0159
1521.00,0.0160
1520.00,0.0161
1519.00,0.0162
1518.00,0.0163
1517.00,0.0164
1516.00,0.0165
1515.00,0.0166
1514.00,0.0168
1513.00,0.0169
1512.00,0.0171
1511.00,0.0173
1510.00,0.0176
1509.00,0.0180
1508.00,0.0185
1507.00,0.0192
1506.00,0.0202
1505.00,0.0213
1504.00,0.0223
1503.00,0.0234
1502.00,0.0247
1501.00,0.0263
1500.00,0.0280
1499.00,0.0299
1498.00,0.0319
1497.00,0.0339
1496.00,0.0357
1495.00,0.0370
1494.00,0.0378
1493.00,0.0381
1492.00,0.0380
1491.00,0.0373
1490.00,0.0362
1489.00,0.0347
1488.00,0.0329
1487.00,0.0310
1486.00,0.0291
1485.00,0.0275
1484.00,0.0261
1483.00,0.0248
1482.00,0.0238
1481.00,0.0231
1480.00,0.0227
1479.00,0.0224
1478.00,0.0225
1477.00,0.0229
1476.00,0.0235
1475.00,0.0245
1474.00,0.0258
1473.00,0.0279
1472.00,0.0306
1471.00,0.0336
1470.00,0.0366
1469.00,0.0399
1468.00,0.0435
1467.00,0.0475
1466.00,0.0521
1465.00,0.0571
1464.00,0.0619
1463.00,0.0656
1462.00,0.0682
1461.00,0.0699
1460.00,0.0707
1459.00,0.0705
1458.00,0.0693
1457.00,0.0670
1456.00,0.0643
1455.00,0.0617
1454.00,0.0595
1453.00,0.0579
1452.00,0.0567
1451.00,0.0561
1450.00,0.0562
1449.00,0.0571
1448.00,0.0588
1447.00,0.0610
1446.00,0.0635
1445.00,0.0664
1444.00,0.0695
1443.00,0.0728
1442.00,0.0762
1441.00,0.0795
1440.00,0.0827
1439.00,0.0856
1438.00,0.0888
1437.00,0.0927
1436.00,0.0966
1435.00,0.0999
1434.00,0.1025
1433.00,0.1050
1432.00,0.1076
1431.00,0.1101
1430.00,0.1126
1429.00,0.1149
1428.00,0.1170
1427.00,0.1188
1426.00,0.1207
1425.00,0.1229
1424.00,0.1250
1423.00,0.1265
1422.00,0.1269
1421.00,0.1263
1420.00,0.1242
1419.00,0.1203
1418.00,0.1147
1417.00,0.1083
1416.00,0.1015
1415.00,0.0943
1414.00,0.0873
1413.00,0.0807
1412.00,0.0746
1411.00,0.0691
1410.00,0.0644
1409.00,0.0605
1408.00,0.0571
1407.00,0.0543
1406.00,0.0519
1405.00,0.0499
1404.00,0.0482
1403.00,0.0468
1402.00,0.0457
1401.00,0.0448
1400.00,0.0439
1399.00,0.0432
1398.00,0.0427
1397.00,0.0422
1396.00,0.0419
1395.00,0.0416
1394.00,0.0414
1393.00,0.0414
1392.00,0.0415
1391.00,0.0416
1390.00,0.0420
1389.00,0.0426
1388.00,0.0433
1387.00,0.0443
1386.00,0.0454
1385.00,0.0465
1384.00,0.0477
1383.00,0.0489
1382.00,0.0502
1381.00,0.0514
1380.00,0.0526
1379.00,0.0537
1378.00,0.0547
1377.00,0.0554
1376.00,0.0559
1375.00,0.0561
1374.00,0.0560
1373.00,0.0555
1372.00,0.0548
1371.00,0.0538
1370.00,0.0528
1369.00,0.0518
1368.00,0.0506
1367.00,0.0494
1366.00,0.0482
1365.00,0.0469
1364.00,0.0456
1363.00,0.0443
1362.00,0.0430
1361.00,0.0418
1360.00,0.0407
1359.00,0.0397
1358.00,0.0389
1357.00,0.0381
1356.00,0.0375
1355.00,0.0369
1354.00,0.0363
1353.00,0.0358
1352.00,0.0353
1351.00,0.0348
1350.00,0.0343
1349.00,0.0338
1348.00,0.0332
1347.00,0.0327
1346.00,0.0323
1345.00,0.0319
1344.00,0.0315
1343.00,0.0312
1342.00,0.0311
1341.00,0.0310
1340.00,0.0310
1339.00,0.0310
1338.00,0.0311
1337.00,0.0312
1336.00,0.0314
1335.00,0.0316
1334.00,0.0320
1333.00,0.0325
1332.00,0.0330
1331.00,0.0337
1330.00,0.0345
1329.00,0.0355
1328.00,0.0366
1327.00,0.0378
1326.00,0.0392
1325.00,0.0406
1324.00,0.0422
1323.00,0.0437
1322.00,0.0452
1321.00,0.0466
1320.00,0.0478
1319.00,0.0488
1318.00,0.0495
1317.00,0.0498
1316.00,0.0498
1315.00,0.0494
1314.00,0.0489
1313.00,0.0481
1312.00,0.0472
1311.00,0.0462
1310.00,0.0454
1309.00,0.0447
1308.00,0.0441
1307.00,0.0438
1306.00,0.0438
1305.00,0.0441
1304.00,0.0448
1303.00,0.0459
1302.00,0.0475
1301.00,0.0498
1300.00,0.0526
1299.00,0.0563
1298.00,0.0607
1297.00,0.0660
1296.00,0.0719
1295.00,0.0785
1294.00,0.0855
1293.00,0.0927
1292.00,0.0997
1291.00,0.1064
1290.00,0.1126
1289.00,0.1180
1288.00,0.1225
1287.00,0.1258
1286.00,0.1279
1285.00,0.1286
1284.00,0.1281
1283.00,0.1264
1282.00,0.1240
1281.00,0.1212
1280.00,0.1185
1279.00,0.1162
1278.00,0.1147
1277.00,0.1140
1276.00,0.1142
1275.00,0.1149
1274.00,0.1159
1273.00,0.1169
1272.00,0.1177
1271.00,0.1178
1270.00,0.1173
1269.00,0.1159
1268.00,0.1136
1267.00,0.1106
1266.00,0.1071
1265.00,0.1031
1264.00,0.0989
1263.00,0.0946
1262.00,0.0904
1261.00,0.0863
1260.00,0.0823
1259.00,0.0786
1258.00,0.0752
1257.00,0.0720
1256.00,0.0691
1255.00,0.0664
1254.00,0.0640
1253.00,0.0618
1252.00,0.0597
1251.00,0.0578
1250.00,0.0562
1249.00,0.0548
1248.00,0.0535
1247.00,0.0525
1246.00,0.0517
1245.00,0.0511
1244.00,0.0507
1243.00,0.0505
1242.00,0.0506
1241.00,0.0508
1240.00,0.0511
1239.00,0.0517
1238.00,0.0525
1237.00,0.0535
1236.00,0.0547
1235.00,0.0560
1234.00,0.0575
1233.00,0.0589
1232.00,0.0603
1231.00,0.0615
1230.00,0.0625
1229.00,0.0633
1228.00,0.0637
1227.00,0.0639
1226.00,0.0639
1225.00,0.0637
1224.00,0.0634
1223.00,0.0629
1222.00,0.0624
1221.00,0.0617
1220.00,0.0610
1219.00,0.0601
1218.00,0.0591
1217.00,0.0580
1216.00,0.0568
1215.00,0.0555
1214.00,0.0541
1213.00,0.0527
1212.00,0.0514
1211.00,0.0501
1210.00,0.0489
1209.00,0.0479
1208.00,0.0469
1207.00,0.0460
1206.00,0.0453
1205.00,0.0446
1204.00,0.0439
1203.00,0.0433
1202.00,0.0427
1201.00,0.0421
1200.00,0.0416
1199.00,0.0411
1198.00,0.0406
1197.00,0.0402
1196.00,0.0397
1195.00,0.0392
1194.00,0.0388
1193.00,0.0385
1192.00,0.0381
1191.00,0.0378
1190.00,0.0375
1189.00,0.0372
1188.00,0.0370
1187.00,0.0367
1186.00,0.0366
1185.00,0.0365
1184.00,0.0364
1183.00,0.0364
1182.00,0.0365
1181.00,0.0367
1180.00,0.0370
1179.00,0.0375
1178.00,0.0381
1177.00,0.0389
1176.00,0.0398
1175.00,0.0408
1174.00,0.0420
1173.00,0.0433
1172.00,0.0445
1171.00,0.0458
1170.00,0.0471
1169.00,0.0482
1168.00,0.0491
1167.00,0.0499
1166.00,0.0503
1165.00,0.0505
1164.00,0.0504
1163.00,0.0499
1162.00,0.0493
1161.00,0.0484
1160.00,0.0475
1159.00,0.0465
1158.00,0.0454
1157.00,0.0443
1156.00,0.0431
1155.00,0.0420
1154.00,0.0409
1153.00,0.0397
1152.00,0.0386
1151.00,0.0374
1150.00,0.0363
1149.00,0.0351
1148.00,0.0339
1147.00,0.0328
1146.00,0.0318
1145.00,0.0309
1144.00,0.0300
1143.00,0.0292
1142.00,0.0286
1141.00,0.0280
1140.00,0.0275
1139.00,0.0271
1138.00,0.0267
1137.00,0.0263
1136.00,0.0259
1135.00,0.0257
1134.00,0.0255
1133.00,0.0255
1132.00,0.0254
1131.00,0.0254
1130.00,0.0255
1129.00,0.0255
1128.00,0.0254
1127.00,0.0253
1126.00,0.0251
1125.00,0.0250
1124.00,0.0248
1123.00,0.0247
1122.00,0.0247
1121.00,0.0247
1120.00,0.0247
1119.00,0.0247
1118.00,0.0249
1117.00,0.0251
1116.00,0.0254
1115.00,0.0257
1114.00,0.0261
1113.00,0.0265
1112.00,0.0268
1111.00,0.0272
1110.00,0.0275
1109.00,0.0278
1108.00,0.0279
1107.00,0.0280
1106.00,0.0281
1105.00,0.0281
1104.00,0.0280
1103.00,0.0281
1102.00,0.0282
1101.00,0.0283
1100.00,0.0284
1099.00,0.0286
1098.00,0.0289
1097.00,0.0291
1096.00,0.0293
1095.00,0.0294
1094.00,0.0295
1093.00,0.0296
1092.00,0.0296
1091.00,0.0296
1090.00,0.0297
1089.00,0.0299
1088.00,0.0301
1087.00,0.0305
1086.00,0.0309
1085.00,0.0313
1084.00,0.0316
1083.00,0.0318
1082.00,0.0319
1081.00,0.0320
1080.00,0.0319
1079.00,0.0318
1078.00,0.0316
1077.00,0.0315
1076.00,0.0313
1075.00,0.0311
1074.00,0.0309
1073.00,0.0306
1072.00,0.0302
1071.00,0.0297
1070.00,0.0293
1069.00,0.0290
1068.00,0.0286
1067.00,0.0284
1066.00,0.0283
1065.00,0.0284
1064.00,0.0286
1063.00,0.0289
1062.00,0.0294
1061.00,0.0302
1060.00,0.0312
1059.00,0.0324
1058.00,0.0341
1057.00,0.0361
1056.00,0.0384
1055.00,0.0411
1054.00,0.0440
1053.00,0.0470
1052.00,0.0496
1051.00,0.0518
1050.00,0.0534
1049.00,0.0541
1048.00,0.0540
1047.00,0.0532
1046.00,0.0521
1045.00,0.0507
1044.00,0.0493
1043.00,0.0481
1042.00,0.0471
1041.00,0.0463
1040.00,0.0456
1039.00,0.0450
1038.00,0.0446
1037.00,0.0441
1036.00,0.0437
1035.00,0.0432
1034.00,0.0427
1033.00,0.0422
1032.00,0.0417
1031.00,0.0412
1030.00,0.0407
1029.00,0.0402
1028.00,0.0396
1027.00,0.0392
1026.00,0.0388
1025.00,0.0386
1024.00,0.0384
1023.00,0.0384
1022.00,0.0385
1021.00,0.0385
1020.00,0.0385
1019.00,0.0384
1018.00,0.0381
1017.00,0.0377
1016.00,0.0369
1015.00,0.0359
1014.00,0.0347
1013.00,0.0334
1012.00,0.0320
1011.00,0.0308
1010.00,0.0299
1009.00,0.0292
1008.00,0.0289
1007.00,0.0288
1006.00,0.0292
1005.00,0.0297
1004.00,0.0302
1003.00,0.0306
1002.00,0.0309
1001.00,0.0308
1000.00,0.0304
999.00,0.0298
998.00,0.0292
997.00,0.0285
996.00,0.0278
995.00,0.0273
994.00,0.0268
993.00,0.0264
992.00,0.0261
991.00,0.0258
990.00,0.0256
989.00,0.0255
988.00,0.0254
987.00,0.0253
986.00,0.0252
985.00,0.0250
984.00,0.0247
983.00,0.0243
982.00,0.0240
981.00,0.0237
980.00,0.0233
979.00,0.0230
978.00,0.0228
977.00,0.0226
976.00,0.0223
975.00,0.0221
974.00,0.0219
973.00,0.0217
972.00,0.0214
971.00,0.0211
970.00,0.0208
969.00,0.0206
968.00,0.0203
967.00,0.0201
966.00,0.0199
965.00,0.0197
964.00,0.0195
963.00,0.0193
962.00,0.0193
961.00,0.0192
960.00,0.0192
959.00,0.0192
958.00,0.0193
957.00,0.0193
956.00,0.0193
955.00,0.0192
954.00,0.0191
953.00,0.0190
952.00,0.0187
951.00,0.0185
950.00,0.0182
949.00,0.0180
948.00,0.0177
947.00,0.0175
946.00,0.0173
945.00,0.0172
944.00,0.0172
943.00,0.0172
942.00,0.0175
941.00,0.0178
940.00,0.0182
939.00,0.0187
938.00,0.0193
937.00,0.0200
936.00,0.0208
935.00,0.0215
934.00,0.0222
933.00,0.0226
932.00,0.0226
931.00,0.0223
930.00,0.0218
929.00,0.0212
928.00,0.0207
927.00,0.0204
926.00,0.0203
925.00,0.0203
924.00,0.0202
923.00,0.0201
922.00,0.0200
921.00,0.0199
920.00,0.0199
919.00,0.0199
918.00,0.0200
917.00,0.0200
916.00,0.0200
915.00,0.0201
914.00,0.0202
913.00,0.0203
912.00,0.0205
911.00,0.0206
910.00,0.0208
909.00,0.0210
908.00,0.0212
907.00,0.0213
906.00,0.0215
905.00,0.0216
904.00,0.0217
903.00,0.0218
902.00,0.0221
901.00,0.0224
900.00,0.0226
899.00,0.0229
898.00,0.0231
897.00,0.0233
896.00,0.0234
895.00,0.0234
894.00,0.0233
893.00,0.0232
892.00,0.0229
891.00,0.0226
890.00,0.0224
889.00,0.0221
888.00,0.0218
887.00,0.0215
886.00,0.0214
885.00,0.0213
884.00,0.0211
883.00,0.0211
882.00,0.0211
881.00,0.0212
880.00,0.0212
879.00,0.0212
878.00,0.0213
877.00,0.0215
876.00,0.0216
875.00,0.0218
874.00,0.0220
873.00,0.0222
872.00,0.0223
871.00,0.0225
870.00,0.0227
869.00,0.0229
868.00,0.0233
867.00,0.0237
866.00,0.0243
865.00,0.0249
864.00,0.0255
863.00,0.0261
862.00,0.0268
861.00,0.0276
860.00,0.0284
859.00,0.0293
858.00,0.0304
857.00,0.0315
856.00,0.0326
855.00,0.0337
854.00,0.0350
853.00,0.0362
852.00,0.0374
851.00,0.0386
850.00,0.0397
849.00,0.0408
848.00,0.0417
847.00,0.0425
846.00,0.0432
845.00,0.0437
844.00,0.0440
843.00,0.0443
842.00,0.0445
841.00,0.0446
840.00,0.0446
839.00,0.0446
838.00,0.0446
837.00,0.0445
836.00,0.0444
835.00,0.0443
834.00,0.0442
833.00,0.0440
832.00,0.0438
831.00,0.0435
830.00,0.0432
829.00,0.0427
828.00,0.0421
827.00,0.0414
826.00,0.0406
825.00,0.0398
824.00,0.0388
823.00,0.0377
822.00,0.0367
821.00,0.0356
820.00,0.0346
819.00,0.0337
818.00,0.0329
817.00,0.0321
816.00,0.0312
815.00,0.0305
814.00,0.0299
813.00,0.0293
812.00,0.0286
811.00,0.0281
810.00,0.0277
809.00,0.0272
808.00,0.0267
807.00,0.0263
806.00,0.0260
805.00,0.0257
804.00,0.0254
803.00,0.0251
802.00,0.0251
801.00,0.0251
800.00,0.0251
799.00,0.0252
798.00,0.0254
797.00,0.0256
796.00,0.0257
795.00,0.0258
794.00,0.0260
793.00,0.0261
792.00,0.0261
791.00,0.0261
790.00,0.0262
789.00,0.0263
788.00,0.0263
787.00,0.0263
786.00,0.0264
785.00,0.0266
784.00,0.0268
783.00,0.0269
782.00,0.0271
781.00,0.0273
780.00,0.0274
779.00,0.0275
778.00,0.0277
777.00,0.0279
776.00,0.0279
775.00,0.0280
774.00,0.0282
773.00,0.0283
772.00,0.0283
771.00,0.0284
770.00,0.0285
769.00,0.0287
768.00,0.0288
767.00,0.0290
766.00,0.0294
765.00,0.0298
764.00,0.0302
763.00,0.0306
762.00,0.0311
761.00,0.0317
760.00,0.0322
759.00,0.0327
758.00,0.0334
757.00,0.0340
756.00,0.0346
755.00,0.0353
754.00,0.0360
753.00,0.0368
752.00,0.0375
751.00,0.0382
750.00,0.0390
749.00,0.0397
748.00,0.0403
747.00,0.0409
746.00,0.0416
745.00,0.0423
744.00,0.0429
743.00,0.0435
742.00,0.0441
741.00,0.0447
740.00,0.0451
739.00,0.0456
738.00,0.0461
737.00,0.0465
736.00,0.0468
735.00,0.0469
734.00,0.0470
733.00,0.0468
732.00,0.0464
731.00,0.0457
730.00,0.0449
729.00,0.0440
728.00,0.0428
727.00,0.0417
726.00,0.0407
725.00,0.0397
724.00,0.0387
723.00,0.0378
722.00,0.0371
721.00,0.0364
720.00,0.0357
719.00,0.0352
718.00,0.0348
717.00,0.0345
716.00,0.0342
715.00,0.0340
714.00,0.0339
713.00,0.0338
712.00,0.0337
711.00,0.0336
710.00,0.0335
709.00,0.0335
708.00,0.0335
707.00,0.0336
706.00,0.0337
705.00,0.0338
704.00,0.0339
703.00,0.0340
702.00,0.0342
701.00,0.0343
700.00,0.0345
699.00,0.0347
698.00,0.0351
697.00,0.0354
696.00,0.0357
695.00,0.0360
694.00,0.0364
693.00,0.0367
692.00,0.0371
691.00,0.0374
690.00,0.0378
689.00,0.0382
688.00,0.0385
687.00,0.0389
686.00,0.0394
685.00,0.0399
684.00,0.0404
683.00,0.0408
682.00,0.0413
681.00,0.0418
680.00,0.0423
679.00,0.0428
678.00,0.0433
677.00,0.0437
676.00,0.0441
675.00,0.0445
674.00,0.0451
673.00,0.0457
672.00,0.0462
671.00,0.0467
670.00,0.0474
669.00,0.0484
668.00,0.0497
667.00,0.0509
666.00,0.0517
665.00,0.0524
664.00,0.0531
663.00,0.0541
662.00,0.0552
661.00,0.0564
660.00,0.0576
659.00,0.0588
658.00,0.0601
657.00,0.0613
656.00,0.0625
655.00,0.0638
654.00,0.0651
653.00,0.0663
652.00,0.0673
651.00,0.0681
650.00,0.0687
649.00,0.0690
648.00,0.0691
647.00,0.0690
646.00,0.0687
645.00,0.0681
644.00,0.0672
643.00,0.0662
642.00,0.0651
641.00,0.0640
640.00,0.0627
639.00,0.0614
638.00,0.0602
637.00,0.0590
636.00,0.0578
635.00,0.0567
634.00,0.0557
633.00,0.0548
632.00,0.0538
631.00,0.0530
630.00,0.0523
629.00,0.0516
628.00,0.0509
627.00,0.0502
626.00,0.0497
625.00,0.0492
624.00,0.0486
623.00,0.0481
622.00,0.0477
621.00,0.0474
620.00,0.0471
619.00,0.0470
618.00,0.0470
617.00,0.0470
616.00,0.0469
615.00,0.0468
614.00,0.0468
613.00,0.0467
612.00,0.0466
611.00,0.0466
610.00,0.0468
609.00,0.0470
608.00,0.0472
607.00,0.0473
606.00,0.0476
605.00,0.0479
604.00,0.0481
603.00,0.0483
602.00,0.0487
601.00,0.0491
600.00,0.0494
599.00,0.0497
598.00,0.0499
597.00,0.0502
596.00,0.0504
595.00,0.0508
594.00,0.0513
593.00,0.0519
592.00,0.0524
591.00,0.0530
590.00,0.0539
589.00,0.0547
588.00,0.0556
587.00,0.0566
586.00,0.0579
585.00,0.0592
584.00,0.0605
583.00,0.0618
582.00,0.0631
581.00,0.0644
580.00,0.0654
579.00,0.0664
578.00,0.0674
577.00,0.0683
576.00,0.0689
575.00,0.0693
574.00,0.0697
573.00,0.0699
572.00,0.0699
571.00,0.0698
570.00,0.0696
569.00,0.0693
568.00,0.0686
567.00,0.0679
566.00,0.0673
565.00,0.0664
564.00,0.0653
563.00,0.0641
562.00,0.0630
561.00,0.0618
560.00,0.0607
559.00,0.0597
558.00,0.0589
557.00,0.0580
556.00,0.0569
555.00,0.0559
554.00,0.0551
553.00,0.0545
552.00,0.0538
551.00,0.0533
550.00,0.0529
549.00,0.0525
548.00,0.0519
547.00,0.0514
546.00,0.0511
545.00,0.0507
544.00,0.0503
543.00,0.0498
542.00,0.0495
541.00,0.0492
540.00,0.0488
539.00,0.0485
538.00,0.0485
537.00,0.0485
536.00,0.0483
535.00,0.0480
534.00,0.0479
533.00,0.0479
532.00,0.0478
531.00,0.0478
530.00,0.0478
529.00,0.0477
528.00,0.0474
527.00,0.0471
526.00,0.0470
525.00,0.0471
524.00,0.0469
523.00,0.0468
522.00,0.0468
521.00,0.0468
520.00,0.0465
519.00,0.0463
518.00,0.0465
517.00,0.0465
516.00,0.0462
515.00,0.0458
514.00,0.0456
513.00,0.0454
512.00,0.0451
511.00,0.0449
510.00,0.0449
509.00,0.0448
508.00,0.0445
507.00,0.0444
506.00,0.0447
505.00,0.0449
504.00,0.0449
503.00,0.0449
502.00,0.0452
501.00,0.0454
500.00,0.0452
499.00,0.0451
498.00,0.0452
497.00,0.0455
496.00,0.0456
495.00,0.0457
494.00,0.0460
493.00,0.0462
492.00,0.0461
491.00,0.0461
490.00,0.0463
489.00,0.0466
488.00,0.0465
487.00,0.0466
486.00,0.0471
485.00,0.0475
484.00,0.0475
483.00,0.0474
482.00,0.0477
481.00,0.0478
480.00,0.0476
479.00,0.0474
478.00,0.0476
477.00,0.0479
476.00,0.0479
475.00,0.0481
474.00,0.0486
473.00,0.0492
472.00,0.0492
471.00,0.0489
470.00,0.0488
469.00,0.0488
468.00,0.0486
467.00,0.0486
466.00,0.0490
465.00,0.0492
464.00,0.0488
463.00,0.0486
462.00,0.0489
461.00,0.0491
460.00,0.0489
459.00,0.0486
458.00,0.0487
457.00,0.0486
456.00,0.0480
455.00,0.0475
454.00,0.0475
453.00,0.0476
452.00,0.0472
451.00,0.0469
450.00,0.0470
449.00,0.0470
448.00,0.0466
447.00,0.0462
446.00,0.0462
445.00,0.0461
444.00,0.0456
443.00,0.0452
442.00,0.0454
441.00,0.0455
440.00,0.0450
439.00,0.0446
438.00,0.0447
437.00,0.0448
436.00,0.0443
435.00,0.0437
434.00,0.0435
433.00,0.0435
432.00,0.0430
431.00,0.0427
430.00,0.0429
429.00,0.0429
428.00,0.0423
427.00,0.0419
426.00,0.0422
425.00,0.0425
424.00,0.0424
423.00,0.0426
422.00,0.0438
421.00,0.0447
420.00,0.0442
419.00,0.0430
418.00,0.0424
417.00,0.0420
416.00,0.0413
415.00,0.0412
414.00,0.0422
413.00,0.0431
412.00,0.0430
411.00,0.0428
410.00,0.0434
409.00,0.0435
408.00,0.0425
407.00,0.0416
406.00,0.0421
405.00,0.0426
404.00,0.0419
403.00,0.0416
402.00,0.0429
401.00,0.0441
400.00,0.0439
