Created as New Dataset,Sample 527 By YargerLab Date Thursday, February 19 2026
cm-1,A
4000.00,0.0061
3999.00,0.0061
3998.00,0.0061
3997.00,0.0061
3996.00,0.0061
3995.00,0.0061
3994.00,0.0061
3993.00,0.0061
3992.00,0.0061
3991.00,0.0061
3990.00,0.0061
3989.00,0.0061
3988.00,0.0061
3987.00,0.0061
3986.00,0.0061
3985.00,0.0061
3984.00,0.0061
3983.00,0.0061
3982.00,0.0061
3981.00,0.0061
3980.00,0.0061
3979.00,0.0061
3978.00,0.0061
3977.00,0.0061
3976.00,0.0061
3975.00,0.0061
3974.00,0.0061
3973.00,0.0061
3972.00,0.0061
3971.00,0.0061
3970.00,0.0061
3969.00,0.0061
3968.00,0.0061
3967.00,0.0061
3966.00,0.0061
3965.00,0.0061
3964.00,0.0061
3963.00,0.0061
3962.00,0.0061
3961.00,0.0061
3960.00,0.0061
3959.00,0.0061
3958.00,0.0061
3957.00,0.0061
3956.00,0.0061
3955.00,0.0061
3954.00,0.0061
3953.00,0.0061
3952.00,0.0061
3951.00,0.0061
3950.00,0.0061
3949.00,0.0061
3948.00,0.0061
3947.00,0.0061
3946.00,0.0061
3945.00,0.0061
3944.00,0.0061
3943.00,0.0061
3942.00,0.0061
3941.00,0.0061
3940.00,0.0061
3939.00,0.0061
3938.00,0.0061
3937.00,0.0061
3936.00,0.0061
3935.00,0.0061
3934.00,0.0061
3933.00,0.0061
3932.00,0.0061
3931.00,0.0061
3930.00,0.0061
3929.00,0.0061
3928.00,0.0061
3927.00,0.0061
3926.00,0.0062
3925.00,0.0062
3924.00,0.0062
3923.00,0.0062
3922.00,0.0062
3921.00,0.0062
3920.00,0.0062
3919.00,0.0061
3918.00,0.0061
3917.00,0.0061
3916.00,0.0061
3915.00,0.0061
3914.00,0.0061
3913.00,0.0061
3912.00,0.0060
3911.00,0.0060
3910.00,0.0060
3909.00,0.0061
3908.00,0.0061
3907.00,0.0061
3906.00,0.0061
3905.00,0.0062
3904.00,0.0062
3903.00,0.0062
3902.00,0.0062
3901.00,0.0061
3900.00,0.0061
3899.00,0.0061
3898.00,0.0061
3897.00,0.0061
3896.00,0.0061
3895.00,0.0061
3894.00,0.0061
3893.00,0.0061
3892.00,0.0061
3891.00,0.0061
3890.00,0.0061
3889.00,0.0061
3888.00,0.0061
3887.00,0.0061
3886.00,0.0061
3885.00,0.0061
3884.00,0.0062
3883.00,0.0062
3882.00,0.0062
3881.00,0.0061
3880.00,0.0061
3879.00,0.0061
3878.00,0.0061
3877.00,0.0061
3876.00,0.0061
3875.00,0.0061
3874.00,0.0061
3873.00,0.0061
3872.00,0.0062
3871.00,0.0061
3870.00,0.0061
3869.00,0.0061
3868.00,0.0061
3867.00,0.0061
3866.00,0.0061
3865.00,0.0061
3864.00,0.0061
3863.00,0.0061
3862.00,0.0061
3861.00,0.0060
3860.00,0.0060
3859.00,0.0061
3858.00,0.0061
3857.00,0.0062
3856.00,0.0062
3855.00,0.0062
3854.00,0.0062
3853.00,0.0062
3852.00,0.0062
3851.00,0.0062
3850.00,0.0062
3849.00,0.0061
3848.00,0.0061
3847.00,0.0061
3846.00,0.0061
3845.00,0.0060
3844.00,0.0060
3843.00,0.0061
3842.00,0.0061
3841.00,0.0061
3840.00,0.0061
3839.00,0.0061
3838.00,0.0061
3837.00,0.0061
3836.00,0.0061
3835.00,0.0061
3834.00,0.0061
3833.00,0.0061
3832.00,0.0061
3831.00,0.0061
3830.00,0.0061
3829.00,0.0061
3828.00,0.0061
3827.00,0.0061
3826.00,0.0061
3825.00,0.0061
3824.00,0.0061
3823.00,0.0061
3822.00,0.0061
3821.00,0.0061
3820.00,0.0061
3819.00,0.0061
3818.00,0.0061
3817.00,0.0061
3816.00,0.0061
3815.00,0.0061
3814.00,0.0062
3813.00,0.0061
3812.00,0.0061
3811.00,0.0061
3810.00,0.0061
3809.00,0.0061
3808.00,0.0060
3807.00,0.0060
3806.00,0.0060
3805.00,0.0061
3804.00,0.0061
3803.00,0.0061
3802.00,0.0061
3801.00,0.0061
3800.00,0.0061
3799.00,0.0061
3798.00,0.0061
3797.00,0.0061
3796.00,0.0060
3795.00,0.0060
3794.00,0.0061
3793.00,0.0060
3792.00,0.0060
3791.00,0.0060
3790.00,0.0060
3789.00,0.0061
3788.00,0.0061
3787.00,0.0061
3786.00,0.0061
3785.00,0.0061
3784.00,0.0061
3783.00,0.0061
3782.00,0.0061
3781.00,0.0061
3780.00,0.0061
3779.00,0.0061
3778.00,0.0061
3777.00,0.0061
3776.00,0.0061
3775.00,0.0061
3774.00,0.0061
3773.00,0.0061
3772.00,0.0061
3771.00,0.0061
3770.00,0.0061
3769.00,0.0061
3768.00,0.0061
3767.00,0.0061
3766.00,0.0061
3765.00,0.0061
3764.00,0.0061
3763.00,0.0061
3762.00,0.0061
3761.00,0.0061
3760.00,0.0060
3759.00,0.0060
3758.00,0.0060
3757.00,0.0061
3756.00,0.0061
3755.00,0.0061
3754.00,0.0062
3753.00,0.0062
3752.00,0.0062
3751.00,0.0062
3750.00,0.0062
3749.00,0.0062
3748.00,0.0062
3747.00,0.0062
3746.00,0.0062
3745.00,0.0062
3744.00,0.0062
3743.00,0.0062
3742.00,0.0062
3741.00,0.0061
3740.00,0.0061
3739.00,0.0061
3738.00,0.0061
3737.00,0.0061
3736.00,0.0061
3735.00,0.0061
3734.00,0.0061
3733.00,0.0061
3732.00,0.0061
3731.00,0.0061
3730.00,0.0061
3729.00,0.0061
3728.00,0.0061
3727.00,0.0060
3726.00,0.0060
3725.00,0.0060
3724.00,0.0060
3723.00,0.0060
3722.00,0.0060
3721.00,0.0059
3720.00,0.0059
3719.00,0.0059
3718.00,0.0060
3717.00,0.0060
3716.00,0.0060
3715.00,0.0060
3714.00,0.0060
3713.00,0.0060
3712.00,0.0060
3711.00,0.0060
3710.00,0.0060
3709.00,0.0060
3708.00,0.0060
3707.00,0.0060
3706.00,0.0060
3705.00,0.0060
3704.00,0.0060
3703.00,0.0060
3702.00,0.0059
3701.00,0.0059
3700.00,0.0059
3699.00,0.0059
3698.00,0.0059
3697.00,0.0059
3696.00,0.0059
3695.00,0.0059
3694.00,0.0060
3693.00,0.0060
3692.00,0.0060
3691.00,0.0060
3690.00,0.0061
3689.00,0.0061
3688.00,0.0061
3687.00,0.0061
3686.00,0.0061
3685.00,0.0062
3684.00,0.0062
3683.00,0.0062
3682.00,0.0062
3681.00,0.0063
3680.00,0.0063
3679.00,0.0063
3678.00,0.0063
3677.00,0.0063
3676.00,0.0063
3675.00,0.0063
3674.00,0.0063
3673.00,0.0064
3672.00,0.0063
3671.00,0.0063
3670.00,0.0062
3669.00,0.0062
3668.00,0.0062
3667.00,0.0062
3666.00,0.0062
3665.00,0.0062
3664.00,0.0062
3663.00,0.0063
3662.00,0.0063
3661.00,0.0063
3660.00,0.0063
3659.00,0.0063
3658.00,0.0064
3657.00,0.0064
3656.00,0.0064
3655.00,0.0065
3654.00,0.0065
3653.00,0.0066
3652.00,0.0066
3651.00,0.0066
3650.00,0.0066
3649.00,0.0067
3648.00,0.0067
3647.00,0.0067
3646.00,0.0068
3645.00,0.0068
3644.00,0.0068
3643.00,0.0068
3642.00,0.0068
3641.00,0.0068
3640.00,0.0068
3639.00,0.0069
3638.00,0.0069
3637.00,0.0070
3636.00,0.0070
3635.00,0.0071
3634.00,0.0071
3633.00,0.0072
3632.00,0.0073
3631.00,0.0074
3630.00,0.0074
3629.00,0.0074
3628.00,0.0074
3627.00,0.0074
3626.00,0.0075
3625.00,0.0075
3624.00,0.0075
3623.00,0.0075
3622.00,0.0076
3621.00,0.0077
3620.00,0.0077
3619.00,0.0078
3618.00,0.0078
3617.00,0.0079
3616.00,0.0079
3615.00,0.0079
3614.00,0.0080
3613.00,0.0080
3612.00,0.0081
3611.00,0.0081
3610.00,0.0082
3609.00,0.0082
3608.00,0.0083
3607.00,0.0083
3606.00,0.0084
3605.00,0.0084
3604.00,0.0084
3603.00,0.0085
3602.00,0.0085
3601.00,0.0085
3600.00,0.0086
3599.00,0.0087
3598.00,0.0088
3597.00,0.0088
3596.00,0.0089
3595.00,0.0090
3594.00,0.0090
3593.00,0.0090
3592.00,0.0091
3591.00,0.0091
3590.00,0.0092
3589.00,0.0093
3588.00,0.0094
3587.00,0.0095
3586.00,0.0095
3585.00,0.0096
3584.00,0.0096
3583.00,0.0097
3582.00,0.0097
3581.00,0.0098
3580.00,0.0099
3579.00,0.0100
3578.00,0.0100
3577.00,0.0101
3576.00,0.0101
3575.00,0.0102
3574.00,0.0103
3573.00,0.0104
3572.00,0.0105
3571.00,0.0106
3570.00,0.0107
3569.00,0.0108
3568.00,0.0109
3567.00,0.0109
3566.00,0.0110
3565.00,0.0110
3564.00,0.0111
3563.00,0.0111
3562.00,0.0112
3561.00,0.0112
3560.00,0.0113
3559.00,0.0114
3558.00,0.0114
3557.00,0.0115
3556.00,0.0116
3555.00,0.0116
3554.00,0.0117
3553.00,0.0117
3552.00,0.0118
3551.00,0.0118
3550.00,0.0119
3549.00,0.0120
3548.00,0.0120
3547.00,0.0121
3546.00,0.0122
3545.00,0.0122
3544.00,0.0123
3543.00,0.0123
3542.00,0.0123
3541.00,0.0124
3540.00,0.0124
3539.00,0.0125
3538.00,0.0125
3537.00,0.0125
3536.00,0.0126
3535.00,0.0126
3534.00,0.0126
3533.00,0.0127
3532.00,0.0127
3531.00,0.0127
3530.00,0.0128
3529.00,0.0128
3528.00,0.0129
3527.00,0.0130
3526.00,0.0130
3525.00,0.0131
3524.00,0.0131
3523.00,0.0131
3522.00,0.0131
3521.00,0.0131
3520.00,0.0131
3519.00,0.0131
3518.00,0.0131
3517.00,0.0131
3516.00,0.0132
3515.00,0.0132
3514.00,0.0132
3513.00,0.0133
3512.00,0.0133
3511.00,0.0133
3510.00,0.0134
3509.00,0.0134
3508.00,0.0134
3507.00,0.0134
3506.00,0.0135
3505.00,0.0135
3504.00,0.0136
3503.00,0.0136
3502.00,0.0136
3501.00,0.0137
3500.00,0.0137
3499.00,0.0137
3498.00,0.0137
3497.00,0.0137
3496.00,0.0137
3495.00,0.0138
3494.00,0.0138
3493.00,0.0138
3492.00,0.0138
3491.00,0.0139
3490.00,0.0139
3489.00,0.0139
3488.00,0.0139
3487.00,0.0140
3486.00,0.0140
3485.00,0.0140
3484.00,0.0140
3483.00,0.0140
3482.00,0.0141
3481.00,0.0141
3480.00,0.0141
3479.00,0.0141
3478.00,0.0141
3477.00,0.0141
3476.00,0.0141
3475.00,0.0141
3474.00,0.0142
3473.00,0.0142
3472.00,0.0143
3471.00,0.0143
3470.00,0.0144
3469.00,0.0144
3468.00,0.0144
3467.00,0.0143
3466.00,0.0143
3465.00,0.0143
3464.00,0.0144
3463.00,0.0144
3462.00,0.0144
3461.00,0.0144
3460.00,0.0144
3459.00,0.0144
3458.00,0.0144
3457.00,0.0144
3456.00,0.0145
3455.00,0.0145
3454.00,0.0145
3453.00,0.0145
3452.00,0.0145
3451.00,0.0145
3450.00,0.0145
3449.00,0.0145
3448.00,0.0145
3447.00,0.0145
3446.00,0.0145
3445.00,0.0145
3444.00,0.0145
3443.00,0.0145
3442.00,0.0145
3441.00,0.0145
3440.00,0.0145
3439.00,0.0146
3438.00,0.0146
3437.00,0.0146
3436.00,0.0145
3435.00,0.0145
3434.00,0.0145
3433.00,0.0145
3432.00,0.0145
3431.00,0.0145
3430.00,0.0145
3429.00,0.0145
3428.00,0.0144
3427.00,0.0144
3426.00,0.0144
3425.00,0.0144
3424.00,0.0144
3423.00,0.0144
3422.00,0.0144
3421.00,0.0144
3420.00,0.0144
3419.00,0.0144
3418.00,0.0144
3417.00,0.0144
3416.00,0.0144
3415.00,0.0144
3414.00,0.0144
3413.00,0.0144
3412.00,0.0144
3411.00,0.0144
3410.00,0.0144
3409.00,0.0144
3408.00,0.0143
3407.00,0.0143
3406.00,0.0143
3405.00,0.0143
3404.00,0.0143
3403.00,0.0143
3402.00,0.0142
3401.00,0.0142
3400.00,0.0142
3399.00,0.0142
3398.00,0.0142
3397.00,0.0142
3396.00,0.0142
3395.00,0.0142
3394.00,0.0142
3393.00,0.0142
3392.00,0.0142
3391.00,0.0142
3390.00,0.0142
3389.00,0.0143
3388.00,0.0143
3387.00,0.0143
3386.00,0.0143
3385.00,0.0143
3384.00,0.0143
3383.00,0.0143
3382.00,0.0143
3381.00,0.0143
3380.00,0.0142
3379.00,0.0142
3378.00,0.0142
3377.00,0.0142
3376.00,0.0142
3375.00,0.0142
3374.00,0.0142
3373.00,0.0142
3372.00,0.0141
3371.00,0.0141
3370.00,0.0141
3369.00,0.0141
3368.00,0.0141
3367.00,0.0141
3366.00,0.0142
3365.00,0.0143
3364.00,0.0143
3363.00,0.0143
3362.00,0.0143
3361.00,0.0143
3360.00,0.0144
3359.00,0.0144
3358.00,0.0144
3357.00,0.0144
3356.00,0.0144
3355.00,0.0144
3354.00,0.0144
3353.00,0.0143
3352.00,0.0143
3351.00,0.0143
3350.00,0.0143
3349.00,0.0144
3348.00,0.0144
3347.00,0.0145
3346.00,0.0145
3345.00,0.0144
3344.00,0.0144
3343.00,0.0144
3342.00,0.0144
3341.00,0.0144
3340.00,0.0143
3339.00,0.0143
3338.00,0.0143
3337.00,0.0143
3336.00,0.0144
3335.00,0.0145
3334.00,0.0145
3333.00,0.0146
3332.00,0.0146
3331.00,0.0146
3330.00,0.0145
3329.00,0.0145
3328.00,0.0144
3327.00,0.0144
3326.00,0.0144
3325.00,0.0144
3324.00,0.0144
3323.00,0.0145
3322.00,0.0145
3321.00,0.0146
3320.00,0.0146
3319.00,0.0146
3318.00,0.0146
3317.00,0.0146
3316.00,0.0146
3315.00,0.0146
3314.00,0.0146
3313.00,0.0145
3312.00,0.0145
3311.00,0.0144
3310.00,0.0143
3309.00,0.0142
3308.00,0.0142
3307.00,0.0141
3306.00,0.0142
3305.00,0.0142
3304.00,0.0144
3303.00,0.0145
3302.00,0.0145
3301.00,0.0146
3300.00,0.0145
3299.00,0.0145
3298.00,0.0145
3297.00,0.0144
3296.00,0.0144
3295.00,0.0144
3294.00,0.0144
3293.00,0.0144
3292.00,0.0144
3291.00,0.0144
3290.00,0.0145
3289.00,0.0145
3288.00,0.0146
3287.00,0.0146
3286.00,0.0146
3285.00,0.0146
3284.00,0.0146
3283.00,0.0146
3282.00,0.0146
3281.00,0.0146
3280.00,0.0145
3279.00,0.0145
3278.00,0.0145
3277.00,0.0144
3276.00,0.0144
3275.00,0.0144
3274.00,0.0144
3273.00,0.0143
3272.00,0.0143
3271.00,0.0143
3270.00,0.0144
3269.00,0.0144
3268.00,0.0144
3267.00,0.0144
3266.00,0.0144
3265.00,0.0144
3264.00,0.0144
3263.00,0.0144
3262.00,0.0144
3261.00,0.0144
3260.00,0.0144
3259.00,0.0143
3258.00,0.0143
3257.00,0.0143
3256.00,0.0143
3255.00,0.0143
3254.00,0.0143
3253.00,0.0143
3252.00,0.0143
3251.00,0.0143
3250.00,0.0143
3249.00,0.0142
3248.00,0.0142
3247.00,0.0142
3246.00,0.0142
3245.00,0.0142
3244.00,0.0143
3243.00,0.0143
3242.00,0.0143
3241.00,0.0142
3240.00,0.0142
3239.00,0.0142
3238.00,0.0142
3237.00,0.0142
3236.00,0.0141
3235.00,0.0141
3234.00,0.0141
3233.00,0.0141
3232.00,0.0141
3231.00,0.0141
3230.00,0.0141
3229.00,0.0141
3228.00,0.0141
3227.00,0.0141
3226.00,0.0141
3225.00,0.0140
3224.00,0.0140
3223.00,0.0140
3222.00,0.0140
3221.00,0.0140
3220.00,0.0140
3219.00,0.0139
3218.00,0.0139
3217.00,0.0139
3216.00,0.0139
3215.00,0.0139
3214.00,0.0139
3213.00,0.0138
3212.00,0.0138
3211.00,0.0138
3210.00,0.0138
3209.00,0.0138
3208.00,0.0138
3207.00,0.0138
3206.00,0.0138
3205.00,0.0137
3204.00,0.0137
3203.00,0.0137
3202.00,0.0136
3201.00,0.0136
3200.00,0.0136
3199.00,0.0136
3198.00,0.0136
3197.00,0.0135
3196.00,0.0135
3195.00,0.0135
3194.00,0.0135
3193.00,0.0135
3192.00,0.0135
3191.00,0.0135
3190.00,0.0135
3189.00,0.0135
3188.00,0.0135
3187.00,0.0134
3186.00,0.0134
3185.00,0.0134
3184.00,0.0134
3183.00,0.0134
3182.00,0.0134
3181.00,0.0133
3180.00,0.0133
3179.00,0.0133
3178.00,0.0133
3177.00,0.0133
3176.00,0.0133
3175.00,0.0133
3174.00,0.0132
3173.00,0.0132
3172.00,0.0132
3171.00,0.0132
3170.00,0.0132
3169.00,0.0131
3168.00,0.0131
3167.00,0.0131
3166.00,0.0131
3165.00,0.0131
3164.00,0.0131
3163.00,0.0130
3162.00,0.0130
3161.00,0.0130
3160.00,0.0130
3159.00,0.0130
3158.00,0.0130
3157.00,0.0130
3156.00,0.0129
3155.00,0.0129
3154.00,0.0128
3153.00,0.0128
3152.00,0.0129
3151.00,0.0129
3150.00,0.0129
3149.00,0.0129
3148.00,0.0129
3147.00,0.0128
3146.00,0.0128
3145.00,0.0128
3144.00,0.0127
3143.00,0.0127
3142.00,0.0127
3141.00,0.0127
3140.00,0.0127
3139.00,0.0127
3138.00,0.0126
3137.00,0.0126
3136.00,0.0126
3135.00,0.0126
3134.00,0.0126
3133.00,0.0126
3132.00,0.0126
3131.00,0.0126
3130.00,0.0126
3129.00,0.0126
3128.00,0.0126
3127.00,0.0126
3126.00,0.0126
3125.00,0.0126
3124.00,0.0125
3123.00,0.0125
3122.00,0.0125
3121.00,0.0125
3120.00,0.0125
3119.00,0.0125
3118.00,0.0124
3117.00,0.0124
3116.00,0.0124
3115.00,0.0124
3114.00,0.0123
3113.00,0.0123
3112.00,0.0123
3111.00,0.0124
3110.00,0.0124
3109.00,0.0124
3108.00,0.0123
3107.00,0.0123
3106.00,0.0122
3105.00,0.0122
3104.00,0.0122
3103.00,0.0122
3102.00,0.0122
3101.00,0.0122
3100.00,0.0121
3099.00,0.0121
3098.00,0.0121
3097.00,0.0121
3096.00,0.0121
3095.00,0.0121
3094.00,0.0121
3093.00,0.0121
3092.00,0.0121
3091.00,0.0121
3090.00,0.0121
3089.00,0.0121
3088.00,0.0121
3087.00,0.0120
3086.00,0.0120
3085.00,0.0120
3084.00,0.0120
3083.00,0.0121
3082.00,0.0121
3081.00,0.0121
3080.00,0.0120
3079.00,0.0120
3078.00,0.0120
3077.00,0.0120
3076.00,0.0120
3075.00,0.0120
3074.00,0.0120
3073.00,0.0120
3072.00,0.0120
3071.00,0.0120
3070.00,0.0120
3069.00,0.0120
3068.00,0.0119
3067.00,0.0119
3066.00,0.0119
3065.00,0.0118
3064.00,0.0118
3063.00,0.0118
3062.00,0.0118
3061.00,0.0118
3060.00,0.0117
3059.00,0.0117
3058.00,0.0117
3057.00,0.0117
3056.00,0.0117
3055.00,0.0117
3054.00,0.0117
3053.00,0.0117
3052.00,0.0117
3051.00,0.0117
3050.00,0.0117
3049.00,0.0116
3048.00,0.0116
3047.00,0.0116
3046.00,0.0116
3045.00,0.0116
3044.00,0.0116
3043.00,0.0116
3042.00,0.0115
3041.00,0.0115
3040.00,0.0115
3039.00,0.0115
3038.00,0.0115
3037.00,0.0115
3036.00,0.0115
3035.00,0.0115
3034.00,0.0115
3033.00,0.0115
3032.00,0.0115
3031.00,0.0115
3030.00,0.0115
3029.00,0.0115
3028.00,0.0115
3027.00,0.0114
3026.00,0.0114
3025.00,0.0114
3024.00,0.0114
3023.00,0.0114
3022.00,0.0114
3021.00,0.0114
3020.00,0.0114
3019.00,0.0114
3018.00,0.0114
3017.00,0.0114
3016.00,0.0114
3015.00,0.0115
3014.00,0.0116
3013.00,0.0117
3012.00,0.0118
3011.00,0.0119
3010.00,0.0120
3009.00,0.0120
3008.00,0.0121
3007.00,0.0122
3006.00,0.0124
3005.00,0.0125
3004.00,0.0127
3003.00,0.0129
3002.00,0.0130
3001.00,0.0132
3000.00,0.0135
2999.00,0.0138
2998.00,0.0141
2997.00,0.0144
2996.00,0.0147
2995.00,0.0151
2994.00,0.0155
2993.00,0.0159
2992.00,0.0162
2991.00,0.0166
2990.00,0.0170
2989.00,0.0174
2988.00,0.0178
2987.00,0.0182
2986.00,0.0186
2985.00,0.0188
2984.00,0.0191
2983.00,0.0193
2982.00,0.0195
2981.00,0.0197
2980.00,0.0200
2979.00,0.0204
2978.00,0.0207
2977.00,0.0210
2976.00,0.0213
2975.00,0.0215
2974.00,0.0217
2973.00,0.0219
2972.00,0.0221
2971.00,0.0223
2970.00,0.0225
2969.00,0.0228
2968.00,0.0230
2967.00,0.0234
2966.00,0.0237
2965.00,0.0240
2964.00,0.0243
2963.00,0.0247
2962.00,0.0250
2961.00,0.0254
2960.00,0.0257
2959.00,0.0260
2958.00,0.0263
2957.00,0.0266
2956.00,0.0269
2955.00,0.0271
2954.00,0.0274
2953.00,0.0275
2952.00,0.0276
2951.00,0.0277
2950.00,0.0278
2949.00,0.0278
2948.00,0.0278
2947.00,0.0278
2946.00,0.0278
2945.00,0.0278
2944.00,0.0278
2943.00,0.0278
2942.00,0.0278
2941.00,0.0278
2940.00,0.0279
2939.00,0.0279
2938.00,0.0280
2937.00,0.0281
2936.00,0.0283
2935.00,0.0284
2934.00,0.0286
2933.00,0.0288
2932.00,0.0289
2931.00,0.0291
2930.00,0.0292
2929.00,0.0294
2928.00,0.0296
2927.00,0.0297
2926.00,0.0298
2925.00,0.0298
2924.00,0.0299
2923.00,0.0299
2922.00,0.0298
2921.00,0.0296
2920.00,0.0295
2919.00,0.0292
2918.00,0.0290
2917.00,0.0287
2916.00,0.0284
2915.00,0.0281
2914.00,0.0277
2913.00,0.0273
2912.00,0.0270
2911.00,0.0266
2910.00,0.0262
2909.00,0.0258
2908.00,0.0255
2907.00,0.0251
2906.00,0.0248
2905.00,0.0245
2904.00,0.0243
2903.00,0.0241
2902.00,0.0239
2901.00,0.0238
2900.00,0.0237
2899.00,0.0236
2898.00,0.0236
2897.00,0.0235
2896.00,0.0235
2895.00,0.0235
2894.00,0.0235
2893.00,0.0235
2892.00,0.0235
2891.00,0.0234
2890.00,0.0234
2889.00,0.0234
2888.00,0.0234
2887.00,0.0234
2886.00,0.0234
2885.00,0.0234
2884.00,0.0234
2883.00,0.0235
2882.00,0.0235
2881.00,0.0235
2880.00,0.0236
2879.00,0.0237
2878.00,0.0237
2877.00,0.0238
2876.00,0.0238
2875.00,0.0239
2874.00,0.0239
2873.00,0.0240
2872.00,0.0240
2871.00,0.0241
2870.00,0.0240
2869.00,0.0240
2868.00,0.0239
2867.00,0.0239
2866.00,0.0238
2865.00,0.0238
2864.00,0.0237
2863.00,0.0237
2862.00,0.0237
2861.00,0.0236
2860.00,0.0236
2859.00,0.0236
2858.00,0.0235
2857.00,0.0234
2856.00,0.0232
2855.00,0.0229
2854.00,0.0226
2853.00,0.0223
2852.00,0.0219
2851.00,0.0215
2850.00,0.0211
2849.00,0.0207
2848.00,0.0203
2847.00,0.0199
2846.00,0.0195
2845.00,0.0191
2844.00,0.0187
2843.00,0.0184
2842.00,0.0180
2841.00,0.0176
2840.00,0.0172
2839.00,0.0169
2838.00,0.0166
2837.00,0.0164
2836.00,0.0162
2835.00,0.0159
2834.00,0.0157
2833.00,0.0155
2832.00,0.0153
2831.00,0.0151
2830.00,0.0149
2829.00,0.0146
2828.00,0.0144
2827.00,0.0142
2826.00,0.0140
2825.00,0.0138
2824.00,0.0136
2823.00,0.0134
2822.00,0.0132
2821.00,0.0131
2820.00,0.0129
2819.00,0.0128
2818.00,0.0127
2817.00,0.0126
2816.00,0.0125
2815.00,0.0124
2814.00,0.0123
2813.00,0.0122
2812.00,0.0121
2811.00,0.0120
2810.00,0.0120
2809.00,0.0119
2808.00,0.0118
2807.00,0.0118
2806.00,0.0117
2805.00,0.0117
2804.00,0.0116
2803.00,0.0116
2802.00,0.0115
2801.00,0.0115
2800.00,0.0114
2799.00,0.0114
2798.00,0.0113
2797.00,0.0113
2796.00,0.0113
2795.00,0.0112
2794.00,0.0112
2793.00,0.0112
2792.00,0.0111
2791.00,0.0111
2790.00,0.0111
2789.00,0.0111
2788.00,0.0110
2787.00,0.0110
2786.00,0.0110
2785.00,0.0109
2784.00,0.0109
2783.00,0.0109
2782.00,0.0108
2781.00,0.0108
2780.00,0.0108
2779.00,0.0107
2778.00,0.0107
2777.00,0.0107
2776.00,0.0107
2775.00,0.0106
2774.00,0.0106
2773.00,0.0106
2772.00,0.0105
2771.00,0.0105
2770.00,0.0105
2769.00,0.0105
2768.00,0.0105
2767.00,0.0104
2766.00,0.0104
2765.00,0.0104
2764.00,0.0104
2763.00,0.0104
2762.00,0.0103
2761.00,0.0103
2760.00,0.0103
2759.00,0.0103
2758.00,0.0104
2757.00,0.0104
2756.00,0.0104
2755.00,0.0103
2754.00,0.0104
2753.00,0.0104
2752.00,0.0104
2751.00,0.0104
2750.00,0.0104
2749.00,0.0104
2748.00,0.0104
2747.00,0.0104
2746.00,0.0104
2745.00,0.0104
2744.00,0.0104
2743.00,0.0104
2742.00,0.0104
2741.00,0.0104
2740.00,0.0104
2739.00,0.0104
2738.00,0.0104
2737.00,0.0104
2736.00,0.0104
2735.00,0.0104
2734.00,0.0104
2733.00,0.0104
2732.00,0.0104
2731.00,0.0103
2730.00,0.0103
2729.00,0.0103
2728.00,0.0103
2727.00,0.0103
2726.00,0.0103
2725.00,0.0103
2724.00,0.0103
2723.00,0.0103
2722.00,0.0103
2721.00,0.0103
2720.00,0.0102
2719.00,0.0102
2718.00,0.0102
2717.00,0.0101
2716.00,0.0101
2715.00,0.0102
2714.00,0.0102
2713.00,0.0101
2712.00,0.0101
2711.00,0.0101
2710.00,0.0101
2709.00,0.0101
2708.00,0.0101
2707.00,0.0100
2706.00,0.0100
2705.00,0.0100
2704.00,0.0100
2703.00,0.0099
2702.00,0.0099
2701.00,0.0099
2700.00,0.0099
2699.00,0.0099
2698.00,0.0099
2697.00,0.0098
2696.00,0.0098
2695.00,0.0098
2694.00,0.0098
2693.00,0.0099
2692.00,0.0098
2691.00,0.0098
2690.00,0.0098
2689.00,0.0098
2688.00,0.0097
2687.00,0.0097
2686.00,0.0097
2685.00,0.0097
2684.00,0.0097
2683.00,0.0097
2682.00,0.0097
2681.00,0.0097
2680.00,0.0096
2679.00,0.0096
2678.00,0.0096
2677.00,0.0096
2676.00,0.0096
2675.00,0.0096
2674.00,0.0096
2673.00,0.0096
2672.00,0.0096
2671.00,0.0096
2670.00,0.0096
2669.00,0.0096
2668.00,0.0096
2667.00,0.0096
2666.00,0.0096
2665.00,0.0097
2664.00,0.0097
2663.00,0.0097
2662.00,0.0098
2661.00,0.0098
2660.00,0.0098
2659.00,0.0098
2658.00,0.0098
2657.00,0.0098
2656.00,0.0098
2655.00,0.0098
2654.00,0.0098
2653.00,0.0098
2652.00,0.0098
2651.00,0.0098
2650.00,0.0098
2649.00,0.0098
2648.00,0.0098
2647.00,0.0098
2646.00,0.0097
2645.00,0.0097
2644.00,0.0097
2643.00,0.0097
2642.00,0.0097
2641.00,0.0097
2640.00,0.0097
2639.00,0.0097
2638.00,0.0097
2637.00,0.0097
2636.00,0.0097
2635.00,0.0097
2634.00,0.0096
2633.00,0.0096
2632.00,0.0096
2631.00,0.0096
2630.00,0.0096
2629.00,0.0095
2628.00,0.0095
2627.00,0.0095
2626.00,0.0095
2625.00,0.0095
2624.00,0.0095
2623.00,0.0095
2622.00,0.0095
2621.00,0.0095
2620.00,0.0095
2619.00,0.0095
2618.00,0.0094
2617.00,0.0094
2616.00,0.0094
2615.00,0.0094
2614.00,0.0093
2613.00,0.0093
2612.00,0.0093
2611.00,0.0093
2610.00,0.0093
2609.00,0.0093
2608.00,0.0093
2607.00,0.0093
2606.00,0.0093
2605.00,0.0092
2604.00,0.0092
2603.00,0.0092
2602.00,0.0092
2601.00,0.0092
2600.00,0.0092
2599.00,0.0092
2598.00,0.0092
2597.00,0.0091
2596.00,0.0091
2595.00,0.0092
2594.00,0.0092
2593.00,0.0092
2592.00,0.0092
2591.00,0.0092
2590.00,0.0092
2589.00,0.0092
2588.00,0.0091
2587.00,0.0091
2586.00,0.0091
2585.00,0.0091
2584.00,0.0090
2583.00,0.0090
2582.00,0.0090
2581.00,0.0091
2580.00,0.0091
2579.00,0.0091
2578.00,0.0091
2577.00,0.0091
2576.00,0.0091
2575.00,0.0091
2574.00,0.0091
2573.00,0.0091
2572.00,0.0091
2571.00,0.0091
2570.00,0.0090
2569.00,0.0090
2568.00,0.0090
2567.00,0.0090
2566.00,0.0090
2565.00,0.0090
2564.00,0.0090
2563.00,0.0089
2562.00,0.0089
2561.00,0.0088
2560.00,0.0088
2559.00,0.0088
2558.00,0.0088
2557.00,0.0088
2556.00,0.0088
2555.00,0.0088
2554.00,0.0088
2553.00,0.0087
2552.00,0.0087
2551.00,0.0088
2550.00,0.0088
2549.00,0.0088
2548.00,0.0088
2547.00,0.0088
2546.00,0.0088
2545.00,0.0087
2544.00,0.0087
2543.00,0.0087
2542.00,0.0087
2541.00,0.0087
2540.00,0.0087
2539.00,0.0086
2538.00,0.0086
2537.00,0.0086
2536.00,0.0085
2535.00,0.0085
2534.00,0.0085
2533.00,0.0085
2532.00,0.0085
2531.00,0.0085
2530.00,0.0084
2529.00,0.0085
2528.00,0.0085
2527.00,0.0085
2526.00,0.0085
2525.00,0.0084
2524.00,0.0084
2523.00,0.0084
2522.00,0.0083
2521.00,0.0083
2520.00,0.0082
2519.00,0.0082
2518.00,0.0082
2517.00,0.0082
2516.00,0.0082
2515.00,0.0082
2514.00,0.0082
2513.00,0.0082
2512.00,0.0081
2511.00,0.0081
2510.00,0.0081
2509.00,0.0081
2508.00,0.0081
2507.00,0.0082
2506.00,0.0082
2505.00,0.0082
2504.00,0.0082
2503.00,0.0081
2502.00,0.0081
2501.00,0.0081
2500.00,0.0081
2499.00,0.0081
2498.00,0.0082
2497.00,0.0081
2496.00,0.0081
2495.00,0.0081
2494.00,0.0081
2493.00,0.0081
2492.00,0.0081
2491.00,0.0081
2490.00,0.0081
2489.00,0.0081
2488.00,0.0080
2487.00,0.0080
2486.00,0.0080
2485.00,0.0080
2484.00,0.0081
2483.00,0.0080
2482.00,0.0080
2481.00,0.0080
2480.00,0.0080
2479.00,0.0080
2478.00,0.0080
2477.00,0.0080
2476.00,0.0080
2475.00,0.0080
2474.00,0.0079
2473.00,0.0079
2472.00,0.0079
2471.00,0.0080
2470.00,0.0080
2469.00,0.0079
2468.00,0.0079
2467.00,0.0079
2466.00,0.0079
2465.00,0.0079
2464.00,0.0079
2463.00,0.0080
2462.00,0.0080
2461.00,0.0080
2460.00,0.0080
2459.00,0.0080
2458.00,0.0080
2457.00,0.0080
2456.00,0.0080
2455.00,0.0080
2454.00,0.0080
2453.00,0.0080
2452.00,0.0080
2451.00,0.0080
2450.00,0.0080
2449.00,0.0079
2448.00,0.0079
2447.00,0.0079
2446.00,0.0079
2445.00,0.0079
2444.00,0.0079
2443.00,0.0079
2442.00,0.0079
2441.00,0.0079
2440.00,0.0079
2439.00,0.0079
2438.00,0.0078
2437.00,0.0078
2436.00,0.0078
2435.00,0.0078
2434.00,0.0078
2433.00,0.0078
2432.00,0.0078
2431.00,0.0079
2430.00,0.0079
2429.00,0.0079
2428.00,0.0079
2427.00,0.0079
2426.00,0.0078
2425.00,0.0078
2424.00,0.0078
2423.00,0.0077
2422.00,0.0077
2421.00,0.0078
2420.00,0.0078
2419.00,0.0078
2418.00,0.0078
2417.00,0.0078
2416.00,0.0078
2415.00,0.0078
2414.00,0.0078
2413.00,0.0078
2412.00,0.0078
2411.00,0.0078
2410.00,0.0078
2409.00,0.0077
2408.00,0.0077
2407.00,0.0077
2406.00,0.0076
2405.00,0.0076
2404.00,0.0076
2403.00,0.0075
2402.00,0.0075
2401.00,0.0075
2400.00,0.0075
2399.00,0.0076
2398.00,0.0076
2397.00,0.0076
2396.00,0.0076
2395.00,0.0076
2394.00,0.0076
2393.00,0.0076
2392.00,0.0076
2391.00,0.0076
2390.00,0.0075
2389.00,0.0075
2388.00,0.0074
2387.00,0.0074
2386.00,0.0073
2385.00,0.0073
2384.00,0.0072
2383.00,0.0072
2382.00,0.0071
2381.00,0.0071
2380.00,0.0071
2379.00,0.0071
2378.00,0.0071
2377.00,0.0071
2376.00,0.0071
2375.00,0.0071
2374.00,0.0070
2373.00,0.0070
2372.00,0.0070
2371.00,0.0070
2370.00,0.0070
2369.00,0.0069
2368.00,0.0069
2367.00,0.0069
2366.00,0.0069
2365.00,0.0069
2364.00,0.0069
2363.00,0.0068
2362.00,0.0068
2361.00,0.0068
2360.00,0.0069
2359.00,0.0069
2358.00,0.0069
2357.00,0.0069
2356.00,0.0070
2355.00,0.0070
2354.00,0.0070
2353.00,0.0070
2352.00,0.0070
2351.00,0.0070
2350.00,0.0070
2349.00,0.0071
2348.00,0.0072
2347.00,0.0072
2346.00,0.0072
2345.00,0.0071
2344.00,0.0071
2343.00,0.0071
2342.00,0.0072
2341.00,0.0073
2340.00,0.0073
2339.00,0.0074
2338.00,0.0074
2337.00,0.0074
2336.00,0.0074
2335.00,0.0074
2334.00,0.0074
2333.00,0.0074
2332.00,0.0073
2331.00,0.0073
2330.00,0.0074
2329.00,0.0076
2328.00,0.0079
2327.00,0.0083
2326.00,0.0085
2325.00,0.0086
2324.00,0.0085
2323.00,0.0083
2322.00,0.0081
2321.00,0.0081
2320.00,0.0080
2319.00,0.0080
2318.00,0.0079
2317.00,0.0078
2316.00,0.0078
2315.00,0.0078
2314.00,0.0077
2313.00,0.0077
2312.00,0.0077
2311.00,0.0077
2310.00,0.0077
2309.00,0.0077
2308.00,0.0077
2307.00,0.0078
2306.00,0.0078
2305.00,0.0078
2304.00,0.0078
2303.00,0.0079
2302.00,0.0079
2301.00,0.0079
2300.00,0.0079
2299.00,0.0080
2298.00,0.0080
2297.00,0.0080
2296.00,0.0081
2295.00,0.0082
2294.00,0.0082
2293.00,0.0083
2292.00,0.0083
2291.00,0.0084
2290.00,0.0085
2289.00,0.0086
2288.00,0.0086
2287.00,0.0087
2286.00,0.0086
2285.00,0.0086
2284.00,0.0085
2283.00,0.0085
2282.00,0.0084
2281.00,0.0083
2280.00,0.0083
2279.00,0.0082
2278.00,0.0082
2277.00,0.0082
2276.00,0.0082
2275.00,0.0081
2274.00,0.0080
2273.00,0.0080
2272.00,0.0080
2271.00,0.0080
2270.00,0.0080
2269.00,0.0079
2268.00,0.0079
2267.00,0.0079
2266.00,0.0079
2265.00,0.0079
2264.00,0.0079
2263.00,0.0079
2262.00,0.0079
2261.00,0.0079
2260.00,0.0079
2259.00,0.0077
2258.00,0.0076
2257.00,0.0074
2256.00,0.0074
2255.00,0.0074
2254.00,0.0075
2253.00,0.0075
2252.00,0.0076
2251.00,0.0077
2250.00,0.0077
2249.00,0.0078
2248.00,0.0078
2247.00,0.0078
2246.00,0.0077
2245.00,0.0077
2244.00,0.0077
2243.00,0.0078
2242.00,0.0079
2241.00,0.0080
2240.00,0.0080
2239.00,0.0080
2238.00,0.0078
2237.00,0.0077
2236.00,0.0076
2235.00,0.0076
2234.00,0.0076
2233.00,0.0077
2232.00,0.0078
2231.00,0.0079
2230.00,0.0079
2229.00,0.0078
2228.00,0.0078
2227.00,0.0077
2226.00,0.0077
2225.00,0.0076
2224.00,0.0076
2223.00,0.0076
2222.00,0.0076
2221.00,0.0077
2220.00,0.0077
2219.00,0.0077
2218.00,0.0077
2217.00,0.0077
2216.00,0.0077
2215.00,0.0077
2214.00,0.0077
2213.00,0.0078
2212.00,0.0079
2211.00,0.0079
2210.00,0.0079
2209.00,0.0079
2208.00,0.0078
2207.00,0.0078
2206.00,0.0077
2205.00,0.0077
2204.00,0.0077
2203.00,0.0077
2202.00,0.0077
2201.00,0.0077
2200.00,0.0077
2199.00,0.0078
2198.00,0.0078
2197.00,0.0078
2196.00,0.0078
2195.00,0.0078
2194.00,0.0077
2193.00,0.0078
2192.00,0.0080
2191.00,0.0081
2190.00,0.0082
2189.00,0.0083
2188.00,0.0083
2187.00,0.0083
2186.00,0.0082
2185.00,0.0080
2184.00,0.0078
2183.00,0.0075
2182.00,0.0073
2181.00,0.0075
2180.00,0.0077
2179.00,0.0080
2178.00,0.0080
2177.00,0.0079
2176.00,0.0078
2175.00,0.0077
2174.00,0.0078
2173.00,0.0080
2172.00,0.0082
2171.00,0.0085
2170.00,0.0087
2169.00,0.0089
2168.00,0.0091
2167.00,0.0092
2166.00,0.0092
2165.00,0.0092
2164.00,0.0091
2163.00,0.0089
2162.00,0.0082
2161.00,0.0072
2160.00,0.0061
2159.00,0.0052
2158.00,0.0047
2157.00,0.0047
2156.00,0.0050
2155.00,0.0053
2154.00,0.0055
2153.00,0.0056
2152.00,0.0057
2151.00,0.0058
2150.00,0.0060
2149.00,0.0061
2148.00,0.0063
2147.00,0.0064
2146.00,0.0065
2145.00,0.0065
2144.00,0.0064
2143.00,0.0064
2142.00,0.0063
2141.00,0.0063
2140.00,0.0063
2139.00,0.0062
2138.00,0.0060
2137.00,0.0058
2136.00,0.0057
2135.00,0.0056
2134.00,0.0056
2133.00,0.0057
2132.00,0.0059
2131.00,0.0059
2130.00,0.0060
2129.00,0.0062
2128.00,0.0063
2127.00,0.0065
2126.00,0.0066
2125.00,0.0066
2124.00,0.0066
2123.00,0.0067
2122.00,0.0067
2121.00,0.0068
2120.00,0.0068
2119.00,0.0069
2118.00,0.0070
2117.00,0.0071
2116.00,0.0073
2115.00,0.0073
2114.00,0.0073
2113.00,0.0073
2112.00,0.0073
2111.00,0.0073
2110.00,0.0073
2109.00,0.0073
2108.00,0.0074
2107.00,0.0074
2106.00,0.0074
2105.00,0.0074
2104.00,0.0074
2103.00,0.0074
2102.00,0.0074
2101.00,0.0074
2100.00,0.0074
2099.00,0.0074
2098.00,0.0072
2097.00,0.0070
2096.00,0.0069
2095.00,0.0068
2094.00,0.0067
2093.00,0.0068
2092.00,0.0069
2091.00,0.0070
2090.00,0.0071
2089.00,0.0071
2088.00,0.0072
2087.00,0.0073
2086.00,0.0073
2085.00,0.0074
2084.00,0.0075
2083.00,0.0076
2082.00,0.0076
2081.00,0.0077
2080.00,0.0077
2079.00,0.0076
2078.00,0.0074
2077.00,0.0073
2076.00,0.0072
2075.00,0.0072
2074.00,0.0072
2073.00,0.0072
2072.00,0.0073
2071.00,0.0074
2070.00,0.0075
2069.00,0.0075
2068.00,0.0075
2067.00,0.0074
2066.00,0.0072
2065.00,0.0071
2064.00,0.0070
2063.00,0.0070
2062.00,0.0070
2061.00,0.0071
2060.00,0.0071
2059.00,0.0072
2058.00,0.0071
2057.00,0.0071
2056.00,0.0071
2055.00,0.0072
2054.00,0.0074
2053.00,0.0077
2052.00,0.0079
2051.00,0.0080
2050.00,0.0078
2049.00,0.0077
2048.00,0.0076
2047.00,0.0076
2046.00,0.0075
2045.00,0.0074
2044.00,0.0073
2043.00,0.0073
2042.00,0.0073
2041.00,0.0073
2040.00,0.0073
2039.00,0.0074
2038.00,0.0074
2037.00,0.0073
2036.00,0.0073
2035.00,0.0072
2034.00,0.0071
2033.00,0.0069
2032.00,0.0069
2031.00,0.0068
2030.00,0.0066
2029.00,0.0065
2028.00,0.0065
2027.00,0.0065
2026.00,0.0065
2025.00,0.0065
2024.00,0.0067
2023.00,0.0068
2022.00,0.0068
2021.00,0.0068
2020.00,0.0068
2019.00,0.0067
2018.00,0.0066
2017.00,0.0065
2016.00,0.0065
2015.00,0.0064
2014.00,0.0064
2013.00,0.0064
2012.00,0.0066
2011.00,0.0067
2010.00,0.0066
2009.00,0.0065
2008.00,0.0063
2007.00,0.0061
2006.00,0.0059
2005.00,0.0058
2004.00,0.0057
2003.00,0.0057
2002.00,0.0057
2001.00,0.0060
2000.00,0.0063
1999.00,0.0065
1998.00,0.0066
1997.00,0.0067
1996.00,0.0068
1995.00,0.0070
1994.00,0.0072
1993.00,0.0073
1992.00,0.0074
1991.00,0.0075
1990.00,0.0075
1989.00,0.0074
1988.00,0.0074
1987.00,0.0073
1986.00,0.0073
1985.00,0.0073
1984.00,0.0076
1983.00,0.0079
1982.00,0.0083
1981.00,0.0084
1980.00,0.0083
1979.00,0.0078
1978.00,0.0070
1977.00,0.0064
1976.00,0.0061
1975.00,0.0060
1974.00,0.0060
1973.00,0.0060
1972.00,0.0060
1971.00,0.0060
1970.00,0.0059
1969.00,0.0059
1968.00,0.0061
1967.00,0.0062
1966.00,0.0063
1965.00,0.0064
1964.00,0.0064
1963.00,0.0062
1962.00,0.0059
1961.00,0.0056
1960.00,0.0055
1959.00,0.0054
1958.00,0.0054
1957.00,0.0056
1956.00,0.0057
1955.00,0.0058
1954.00,0.0059
1953.00,0.0060
1952.00,0.0061
1951.00,0.0061
1950.00,0.0060
1949.00,0.0059
1948.00,0.0060
1947.00,0.0060
1946.00,0.0060
1945.00,0.0061
1944.00,0.0061
1943.00,0.0061
1942.00,0.0060
1941.00,0.0060
1940.00,0.0060
1939.00,0.0061
1938.00,0.0061
1937.00,0.0062
1936.00,0.0062
1935.00,0.0062
1934.00,0.0061
1933.00,0.0061
1932.00,0.0062
1931.00,0.0062
1930.00,0.0062
1929.00,0.0062
1928.00,0.0063
1927.00,0.0063
1926.00,0.0064
1925.00,0.0064
1924.00,0.0065
1923.00,0.0066
1922.00,0.0066
1921.00,0.0067
1920.00,0.0068
1919.00,0.0068
1918.00,0.0068
1917.00,0.0067
1916.00,0.0066
1915.00,0.0066
1914.00,0.0065
1913.00,0.0064
1912.00,0.0064
1911.00,0.0064
1910.00,0.0064
1909.00,0.0064
1908.00,0.0065
1907.00,0.0065
1906.00,0.0064
1905.00,0.0064
1904.00,0.0064
1903.00,0.0065
1902.00,0.0064
1901.00,0.0064
1900.00,0.0064
1899.00,0.0064
1898.00,0.0064
1897.00,0.0064
1896.00,0.0063
1895.00,0.0063
1894.00,0.0063
1893.00,0.0063
1892.00,0.0064
1891.00,0.0064
1890.00,0.0064
1889.00,0.0064
1888.00,0.0064
1887.00,0.0064
1886.00,0.0064
1885.00,0.0064
1884.00,0.0064
1883.00,0.0064
1882.00,0.0064
1881.00,0.0063
1880.00,0.0064
1879.00,0.0063
1878.00,0.0063
1877.00,0.0063
1876.00,0.0063
1875.00,0.0063
1874.00,0.0063
1873.00,0.0063
1872.00,0.0064
1871.00,0.0065
1870.00,0.0064
1869.00,0.0064
1868.00,0.0064
1867.00,0.0064
1866.00,0.0063
1865.00,0.0063
1864.00,0.0063
1863.00,0.0063
1862.00,0.0063
1861.00,0.0063
1860.00,0.0063
1859.00,0.0063
1858.00,0.0062
1857.00,0.0062
1856.00,0.0062
1855.00,0.0062
1854.00,0.0062
1853.00,0.0062
1852.00,0.0063
1851.00,0.0063
1850.00,0.0063
1849.00,0.0063
1848.00,0.0063
1847.00,0.0064
1846.00,0.0064
1845.00,0.0064
1844.00,0.0064
1843.00,0.0064
1842.00,0.0063
1841.00,0.0062
1840.00,0.0062
1839.00,0.0062
1838.00,0.0062
1837.00,0.0062
1836.00,0.0062
1835.00,0.0062
1834.00,0.0061
1833.00,0.0061
1832.00,0.0062
1831.00,0.0063
1830.00,0.0062
1829.00,0.0062
1828.00,0.0063
1827.00,0.0063
1826.00,0.0063
1825.00,0.0063
1824.00,0.0063
1823.00,0.0062
1822.00,0.0062
1821.00,0.0061
1820.00,0.0060
1819.00,0.0060
1818.00,0.0059
1817.00,0.0058
1816.00,0.0058
1815.00,0.0059
1814.00,0.0059
1813.00,0.0060
1812.00,0.0060
1811.00,0.0060
1810.00,0.0060
1809.00,0.0061
1808.00,0.0061
1807.00,0.0061
1806.00,0.0060
1805.00,0.0060
1804.00,0.0061
1803.00,0.0061
1802.00,0.0061
1801.00,0.0061
1800.00,0.0061
1799.00,0.0061
1798.00,0.0061
1797.00,0.0061
1796.00,0.0062
1795.00,0.0062
1794.00,0.0063
1793.00,0.0063
1792.00,0.0063
1791.00,0.0062
1790.00,0.0061
1789.00,0.0061
1788.00,0.0061
1787.00,0.0062
1786.00,0.0062
1785.00,0.0062
1784.00,0.0062
1783.00,0.0062
1782.00,0.0062
1781.00,0.0062
1780.00,0.0062
1779.00,0.0062
1778.00,0.0061
1777.00,0.0061
1776.00,0.0062
1775.00,0.0063
1774.00,0.0064
1773.00,0.0065
1772.00,0.0065
1771.00,0.0065
1770.00,0.0065
1769.00,0.0065
1768.00,0.0065
1767.00,0.0064
1766.00,0.0064
1765.00,0.0063
1764.00,0.0064
1763.00,0.0064
1762.00,0.0064
1761.00,0.0064
1760.00,0.0064
1759.00,0.0065
1758.00,0.0065
1757.00,0.0065
1756.00,0.0065
1755.00,0.0065
1754.00,0.0066
1753.00,0.0067
1752.00,0.0069
1751.00,0.0069
1750.00,0.0069
1749.00,0.0069
1748.00,0.0069
1747.00,0.0069
1746.00,0.0069
1745.00,0.0070
1744.00,0.0071
1743.00,0.0071
1742.00,0.0071
1741.00,0.0071
1740.00,0.0072
1739.00,0.0072
1738.00,0.0073
1737.00,0.0074
1736.00,0.0077
1735.00,0.0079
1734.00,0.0080
1733.00,0.0080
1732.00,0.0081
1731.00,0.0081
1730.00,0.0081
1729.00,0.0081
1728.00,0.0082
1727.00,0.0084
1726.00,0.0085
1725.00,0.0087
1724.00,0.0090
1723.00,0.0092
1722.00,0.0094
1721.00,0.0097
1720.00,0.0102
1719.00,0.0107
1718.00,0.0111
1717.00,0.0116
1716.00,0.0121
1715.00,0.0127
1714.00,0.0131
1713.00,0.0137
1712.00,0.0144
1711.00,0.0153
1710.00,0.0161
1709.00,0.0172
1708.00,0.0185
1707.00,0.0199
1706.00,0.0216
1705.00,0.0234
1704.00,0.0253
1703.00,0.0271
1702.00,0.0292
1701.00,0.0322
1700.00,0.0360
1699.00,0.0394
1698.00,0.0422
1697.00,0.0453
1696.00,0.0495
1695.00,0.0539
1694.00,0.0579
1693.00,0.0614
1692.00,0.0650
1691.00,0.0689
1690.00,0.0732
1689.00,0.0774
1688.00,0.0813
1687.00,0.0849
1686.00,0.0886
1685.00,0.0932
1684.00,0.0985
1683.00,0.1030
1682.00,0.1061
1681.00,0.1086
1680.00,0.1111
1679.00,0.1135
1678.00,0.1157
1677.00,0.1177
1676.00,0.1199
1675.00,0.1220
1674.00,0.1236
1673.00,0.1246
1672.00,0.1254
1671.00,0.1262
1670.00,0.1270
1669.00,0.1278
1668.00,0.1284
1667.00,0.1287
1666.00,0.1288
1665.00,0.1289
1664.00,0.1292
1663.00,0.1296
1662.00,0.1300
1661.00,0.1302
1660.00,0.1302
1659.00,0.1302
1658.00,0.1299
1657.00,0.1296
1656.00,0.1292
1655.00,0.1287
1654.00,0.1280
1653.00,0.1271
1652.00,0.1258
1651.00,0.1241
1650.00,0.1222
1649.00,0.1199
1648.00,0.1173
1647.00,0.1142
1646.00,0.1109
1645.00,0.1075
1644.00,0.1041
1643.00,0.1008
1642.00,0.0973
1641.00,0.0937
1640.00,0.0902
1639.00,0.0869
1638.00,0.0837
1637.00,0.0804
1636.00,0.0769
1635.00,0.0735
1634.00,0.0705
1633.00,0.0678
1632.00,0.0653
1631.00,0.0631
1630.00,0.0609
1629.00,0.0591
1628.00,0.0576
1627.00,0.0564
1626.00,0.0556
1625.00,0.0552
1624.00,0.0552
1623.00,0.0555
1622.00,0.0558
1621.00,0.0560
1620.00,0.0559
1619.00,0.0557
1618.00,0.0552
1617.00,0.0545
1616.00,0.0534
1615.00,0.0523
1614.00,0.0511
1613.00,0.0499
1612.00,0.0488
1611.00,0.0478
1610.00,0.0468
1609.00,0.0457
1608.00,0.0443
1607.00,0.0428
1606.00,0.0412
1605.00,0.0394
1604.00,0.0376
1603.00,0.0359
1602.00,0.0343
1601.00,0.0328
1600.00,0.0316
1599.00,0.0305
1598.00,0.0297
1597.00,0.0290
1596.00,0.0286
1595.00,0.0285
1594.00,0.0286
1593.00,0.0290
1592.00,0.0297
1591.00,0.0306
1590.00,0.0318
1589.00,0.0331
1588.00,0.0342
1587.00,0.0352
1586.00,0.0357
1585.00,0.0358
1584.00,0.0354
1583.00,0.0346
1582.00,0.0336
1581.00,0.0324
1580.00,0.0312
1579.00,0.0301
1578.00,0.0291
1577.00,0.0281
1576.00,0.0271
1575.00,0.0263
1574.00,0.0256
1573.00,0.0250
1572.00,0.0244
1571.00,0.0239
1570.00,0.0234
1569.00,0.0230
1568.00,0.0225
1567.00,0.0221
1566.00,0.0217
1565.00,0.0212
1564.00,0.0209
1563.00,0.0206
1562.00,0.0205
1561.00,0.0204
1560.00,0.0203
1559.00,0.0201
1558.00,0.0198
1557.00,0.0195
1556.00,0.0191
1555.00,0.0188
1554.00,0.0184
1553.00,0.0182
1552.00,0.0179
1551.00,0.0177
1550.00,0.0176
1549.00,0.0174
1548.00,0.0172
1547.00,0.0171
1546.00,0.0171
1545.00,0.0171
1544.00,0.0170
1543.00,0.0170
1542.00,0.0169
1541.00,0.0169
1540.00,0.0168
1539.00,0.0167
1538.00,0.0165
1537.00,0.0163
1536.00,0.0161
1535.00,0.0160
1534.00,0.0159
1533.00,0.0159
1532.00,0.0158
1531.00,0.0158
1530.00,0.0158
1529.00,0.0158
1528.00,0.0158
1527.00,0.0160
1526.00,0.0161
1525.00,0.0162
1524.00,0.0163
1523.00,0.0165
1522.00,0.0167
1521.00,0.0170
1520.00,0.0171
1519.00,0.0172
1518.00,0.0173
1517.00,0.0175
1516.00,0.0176
1515.00,0.0177
1514.00,0.0178
1513.00,0.0179
1512.00,0.0180
1511.00,0.0182
1510.00,0.0185
1509.00,0.0188
1508.00,0.0193
1507.00,0.0199
1506.00,0.0207
1505.00,0.0213
1504.00,0.0220
1503.00,0.0227
1502.00,0.0237
1501.00,0.0251
1500.00,0.0266
1499.00,0.0284
1498.00,0.0302
1497.00,0.0319
1496.00,0.0333
1495.00,0.0342
1494.00,0.0346
1493.00,0.0347
1492.00,0.0344
1491.00,0.0338
1490.00,0.0329
1489.00,0.0317
1488.00,0.0302
1487.00,0.0286
1486.00,0.0270
1485.00,0.0255
1484.00,0.0242
1483.00,0.0231
1482.00,0.0221
1481.00,0.0213
1480.00,0.0208
1479.00,0.0205
1478.00,0.0205
1477.00,0.0207
1476.00,0.0211
1475.00,0.0218
1474.00,0.0228
1473.00,0.0243
1472.00,0.0263
1471.00,0.0284
1470.00,0.0306
1469.00,0.0330
1468.00,0.0357
1467.00,0.0387
1466.00,0.0420
1465.00,0.0457
1464.00,0.0492
1463.00,0.0519
1462.00,0.0539
1461.00,0.0553
1460.00,0.0561
1459.00,0.0562
1458.00,0.0554
1457.00,0.0537
1456.00,0.0513
1455.00,0.0490
1454.00,0.0469
1453.00,0.0452
1452.00,0.0438
1451.00,0.0430
1450.00,0.0427
1449.00,0.0430
1448.00,0.0438
1447.00,0.0450
1446.00,0.0465
1445.00,0.0483
1444.00,0.0502
1443.00,0.0524
1442.00,0.0547
1441.00,0.0570
1440.00,0.0593
1439.00,0.0616
1438.00,0.0640
1437.00,0.0667
1436.00,0.0694
1435.00,0.0713
1434.00,0.0727
1433.00,0.0739
1432.00,0.0751
1431.00,0.0762
1430.00,0.0775
1429.00,0.0790
1428.00,0.0807
1427.00,0.0826
1426.00,0.0848
1425.00,0.0874
1424.00,0.0900
1423.00,0.0920
1422.00,0.0933
1421.00,0.0938
1420.00,0.0930
1419.00,0.0909
1418.00,0.0875
1417.00,0.0835
1416.00,0.0791
1415.00,0.0745
1414.00,0.0699
1413.00,0.0656
1412.00,0.0617
1411.00,0.0583
1410.00,0.0555
1409.00,0.0533
1408.00,0.0516
1407.00,0.0503
1406.00,0.0493
1405.00,0.0486
1404.00,0.0480
1403.00,0.0474
1402.00,0.0467
1401.00,0.0459
1400.00,0.0448
1399.00,0.0433
1398.00,0.0417
1397.00,0.0400
1396.00,0.0383
1395.00,0.0366
1394.00,0.0351
1393.00,0.0338
1392.00,0.0329
1391.00,0.0321
1390.00,0.0317
1389.00,0.0316
1388.00,0.0317
1387.00,0.0320
1386.00,0.0325
1385.00,0.0331
1384.00,0.0339
1383.00,0.0348
1382.00,0.0357
1381.00,0.0367
1380.00,0.0376
1379.00,0.0383
1378.00,0.0389
1377.00,0.0393
1376.00,0.0396
1375.00,0.0397
1374.00,0.0398
1373.00,0.0397
1372.00,0.0395
1371.00,0.0392
1370.00,0.0388
1369.00,0.0384
1368.00,0.0380
1367.00,0.0376
1366.00,0.0373
1365.00,0.0371
1364.00,0.0369
1363.00,0.0369
1362.00,0.0367
1361.00,0.0364
1360.00,0.0358
1359.00,0.0349
1358.00,0.0339
1357.00,0.0326
1356.00,0.0313
1355.00,0.0301
1354.00,0.0290
1353.00,0.0281
1352.00,0.0273
1351.00,0.0268
1350.00,0.0263
1349.00,0.0260
1348.00,0.0257
1347.00,0.0254
1346.00,0.0251
1345.00,0.0250
1344.00,0.0248
1343.00,0.0246
1342.00,0.0246
1341.00,0.0246
1340.00,0.0246
1339.00,0.0247
1338.00,0.0248
1337.00,0.0249
1336.00,0.0251
1335.00,0.0254
1334.00,0.0257
1333.00,0.0260
1332.00,0.0264
1331.00,0.0268
1330.00,0.0273
1329.00,0.0279
1328.00,0.0286
1327.00,0.0294
1326.00,0.0303
1325.00,0.0312
1324.00,0.0323
1323.00,0.0333
1322.00,0.0344
1321.00,0.0354
1320.00,0.0364
1319.00,0.0372
1318.00,0.0378
1317.00,0.0381
1316.00,0.0382
1315.00,0.0381
1314.00,0.0377
1313.00,0.0373
1312.00,0.0368
1311.00,0.0363
1310.00,0.0358
1309.00,0.0355
1308.00,0.0353
1307.00,0.0353
1306.00,0.0355
1305.00,0.0359
1304.00,0.0365
1303.00,0.0374
1302.00,0.0386
1301.00,0.0401
1300.00,0.0421
1299.00,0.0446
1298.00,0.0477
1297.00,0.0513
1296.00,0.0555
1295.00,0.0602
1294.00,0.0653
1293.00,0.0706
1292.00,0.0760
1291.00,0.0813
1290.00,0.0863
1289.00,0.0908
1288.00,0.0947
1287.00,0.0978
1286.00,0.0999
1285.00,0.1010
1284.00,0.1012
1283.00,0.1004
1282.00,0.0989
1281.00,0.0970
1280.00,0.0951
1279.00,0.0934
1278.00,0.0921
1277.00,0.0914
1276.00,0.0912
1275.00,0.0914
1274.00,0.0919
1273.00,0.0925
1272.00,0.0930
1271.00,0.0932
1270.00,0.0929
1269.00,0.0920
1268.00,0.0905
1267.00,0.0884
1266.00,0.0860
1265.00,0.0831
1264.00,0.0801
1263.00,0.0769
1262.00,0.0737
1261.00,0.0705
1260.00,0.0674
1259.00,0.0645
1258.00,0.0618
1257.00,0.0593
1256.00,0.0570
1255.00,0.0548
1254.00,0.0530
1253.00,0.0513
1252.00,0.0499
1251.00,0.0487
1250.00,0.0477
1249.00,0.0470
1248.00,0.0466
1247.00,0.0464
1246.00,0.0465
1245.00,0.0467
1244.00,0.0471
1243.00,0.0475
1242.00,0.0480
1241.00,0.0485
1240.00,0.0489
1239.00,0.0493
1238.00,0.0498
1237.00,0.0502
1236.00,0.0506
1235.00,0.0510
1234.00,0.0515
1233.00,0.0518
1232.00,0.0521
1231.00,0.0523
1230.00,0.0524
1229.00,0.0524
1228.00,0.0524
1227.00,0.0522
1226.00,0.0520
1225.00,0.0519
1224.00,0.0517
1223.00,0.0515
1222.00,0.0514
1221.00,0.0512
1220.00,0.0510
1219.00,0.0507
1218.00,0.0503
1217.00,0.0497
1216.00,0.0490
1215.00,0.0481
1214.00,0.0470
1213.00,0.0459
1212.00,0.0447
1211.00,0.0435
1210.00,0.0423
1209.00,0.0413
1208.00,0.0403
1207.00,0.0395
1206.00,0.0389
1205.00,0.0385
1204.00,0.0382
1203.00,0.0381
1202.00,0.0382
1201.00,0.0384
1200.00,0.0388
1199.00,0.0393
1198.00,0.0399
1197.00,0.0405
1196.00,0.0410
1195.00,0.0413
1194.00,0.0414
1193.00,0.0412
1192.00,0.0407
1191.00,0.0400
1190.00,0.0391
1189.00,0.0381
1188.00,0.0371
1187.00,0.0361
1186.00,0.0353
1185.00,0.0346
1184.00,0.0340
1183.00,0.0335
1182.00,0.0331
1181.00,0.0328
1180.00,0.0326
1179.00,0.0325
1178.00,0.0326
1177.00,0.0327
1176.00,0.0329
1175.00,0.0331
1174.00,0.0334
1173.00,0.0337
1172.00,0.0341
1171.00,0.0344
1170.00,0.0347
1169.00,0.0349
1168.00,0.0350
1167.00,0.0351
1166.00,0.0352
1165.00,0.0353
1164.00,0.0354
1163.00,0.0357
1162.00,0.0360
1161.00,0.0365
1160.00,0.0370
1159.00,0.0375
1158.00,0.0379
1157.00,0.0381
1156.00,0.0379
1155.00,0.0375
1154.00,0.0369
1153.00,0.0360
1152.00,0.0349
1151.00,0.0337
1150.00,0.0325
1149.00,0.0313
1148.00,0.0301
1147.00,0.0290
1146.00,0.0280
1145.00,0.0271
1144.00,0.0263
1143.00,0.0257
1142.00,0.0252
1141.00,0.0248
1140.00,0.0245
1139.00,0.0244
1138.00,0.0245
1137.00,0.0248
1136.00,0.0255
1135.00,0.0265
1134.00,0.0278
1133.00,0.0292
1132.00,0.0307
1131.00,0.0320
1130.00,0.0328
1129.00,0.0331
1128.00,0.0327
1127.00,0.0317
1126.00,0.0305
1125.00,0.0292
1124.00,0.0280
1123.00,0.0270
1122.00,0.0261
1121.00,0.0255
1120.00,0.0251
1119.00,0.0247
1118.00,0.0245
1117.00,0.0244
1116.00,0.0243
1115.00,0.0242
1114.00,0.0242
1113.00,0.0243
1112.00,0.0244
1111.00,0.0245
1110.00,0.0246
1109.00,0.0248
1108.00,0.0250
1107.00,0.0253
1106.00,0.0256
1105.00,0.0260
1104.00,0.0264
1103.00,0.0269
1102.00,0.0274
1101.00,0.0277
1100.00,0.0279
1099.00,0.0279
1098.00,0.0276
1097.00,0.0273
1096.00,0.0268
1095.00,0.0263
1094.00,0.0259
1093.00,0.0255
1092.00,0.0251
1091.00,0.0248
1090.00,0.0246
1089.00,0.0244
1088.00,0.0243
1087.00,0.0242
1086.00,0.0242
1085.00,0.0242
1084.00,0.0243
1083.00,0.0244
1082.00,0.0246
1081.00,0.0249
1080.00,0.0252
1079.00,0.0256
1078.00,0.0261
1077.00,0.0266
1076.00,0.0271
1075.00,0.0276
1074.00,0.0281
1073.00,0.0286
1072.00,0.0292
1071.00,0.0298
1070.00,0.0306
1069.00,0.0316
1068.00,0.0328
1067.00,0.0342
1066.00,0.0358
1065.00,0.0375
1064.00,0.0395
1063.00,0.0415
1062.00,0.0435
1061.00,0.0455
1060.00,0.0471
1059.00,0.0484
1058.00,0.0490
1057.00,0.0489
1056.00,0.0480
1055.00,0.0465
1054.00,0.0445
1053.00,0.0422
1052.00,0.0399
1051.00,0.0377
1050.00,0.0356
1049.00,0.0338
1048.00,0.0324
1047.00,0.0312
1046.00,0.0302
1045.00,0.0295
1044.00,0.0290
1043.00,0.0286
1042.00,0.0284
1041.00,0.0281
1040.00,0.0279
1039.00,0.0278
1038.00,0.0278
1037.00,0.0278
1036.00,0.0280
1035.00,0.0282
1034.00,0.0286
1033.00,0.0290
1032.00,0.0294
1031.00,0.0297
1030.00,0.0299
1029.00,0.0299
1028.00,0.0297
1027.00,0.0294
1026.00,0.0290
1025.00,0.0288
1024.00,0.0286
1023.00,0.0286
1022.00,0.0287
1021.00,0.0289
1020.00,0.0291
1019.00,0.0293
1018.00,0.0294
1017.00,0.0293
1016.00,0.0291
1015.00,0.0287
1014.00,0.0282
1013.00,0.0276
1012.00,0.0270
1011.00,0.0265
1010.00,0.0261
1009.00,0.0260
1008.00,0.0261
1007.00,0.0264
1006.00,0.0268
1005.00,0.0273
1004.00,0.0278
1003.00,0.0282
1002.00,0.0285
1001.00,0.0285
1000.00,0.0284
999.00,0.0280
998.00,0.0277
997.00,0.0273
996.00,0.0268
995.00,0.0264
994.00,0.0260
993.00,0.0256
992.00,0.0252
991.00,0.0248
990.00,0.0244
989.00,0.0239
988.00,0.0235
987.00,0.0231
986.00,0.0227
985.00,0.0224
984.00,0.0221
983.00,0.0218
982.00,0.0216
981.00,0.0215
980.00,0.0214
979.00,0.0213
978.00,0.0212
977.00,0.0211
976.00,0.0210
975.00,0.0208
974.00,0.0206
973.00,0.0204
972.00,0.0202
971.00,0.0199
970.00,0.0197
969.00,0.0195
968.00,0.0192
967.00,0.0190
966.00,0.0188
965.00,0.0186
964.00,0.0184
963.00,0.0183
962.00,0.0181
961.00,0.0179
960.00,0.0176
959.00,0.0173
958.00,0.0170
957.00,0.0168
956.00,0.0165
955.00,0.0163
954.00,0.0162
953.00,0.0161
952.00,0.0161
951.00,0.0161
950.00,0.0162
949.00,0.0163
948.00,0.0164
947.00,0.0166
946.00,0.0168
945.00,0.0171
944.00,0.0173
943.00,0.0176
942.00,0.0180
941.00,0.0184
940.00,0.0190
939.00,0.0197
938.00,0.0204
937.00,0.0212
936.00,0.0220
935.00,0.0227
934.00,0.0232
933.00,0.0236
932.00,0.0237
931.00,0.0236
930.00,0.0234
929.00,0.0232
928.00,0.0230
927.00,0.0229
926.00,0.0228
925.00,0.0227
924.00,0.0225
923.00,0.0224
922.00,0.0221
921.00,0.0219
920.00,0.0217
919.00,0.0214
918.00,0.0212
917.00,0.0209
916.00,0.0207
915.00,0.0204
914.00,0.0202
913.00,0.0200
912.00,0.0199
911.00,0.0198
910.00,0.0199
909.00,0.0199
908.00,0.0200
907.00,0.0202
906.00,0.0205
905.00,0.0209
904.00,0.0213
903.00,0.0218
902.00,0.0224
901.00,0.0229
900.00,0.0235
899.00,0.0239
898.00,0.0243
897.00,0.0245
896.00,0.0245
895.00,0.0244
894.00,0.0242
893.00,0.0240
892.00,0.0236
891.00,0.0233
890.00,0.0229
889.00,0.0225
888.00,0.0222
887.00,0.0220
886.00,0.0219
885.00,0.0219
884.00,0.0219
883.00,0.0220
882.00,0.0222
881.00,0.0224
880.00,0.0227
879.00,0.0231
878.00,0.0236
877.00,0.0241
876.00,0.0246
875.00,0.0252
874.00,0.0258
873.00,0.0263
872.00,0.0267
871.00,0.0271
870.00,0.0273
869.00,0.0275
868.00,0.0275
867.00,0.0276
866.00,0.0277
865.00,0.0279
864.00,0.0280
863.00,0.0281
862.00,0.0283
861.00,0.0285
860.00,0.0288
859.00,0.0292
858.00,0.0296
857.00,0.0301
856.00,0.0307
855.00,0.0313
854.00,0.0319
853.00,0.0326
852.00,0.0333
851.00,0.0340
850.00,0.0347
849.00,0.0352
848.00,0.0358
847.00,0.0362
846.00,0.0366
845.00,0.0368
844.00,0.0370
843.00,0.0370
842.00,0.0370
841.00,0.0369
840.00,0.0367
839.00,0.0366
838.00,0.0364
837.00,0.0362
836.00,0.0360
835.00,0.0358
834.00,0.0356
833.00,0.0355
832.00,0.0354
831.00,0.0352
830.00,0.0350
829.00,0.0348
828.00,0.0346
827.00,0.0343
826.00,0.0341
825.00,0.0338
824.00,0.0336
823.00,0.0334
822.00,0.0333
821.00,0.0332
820.00,0.0331
819.00,0.0330
818.00,0.0330
817.00,0.0329
816.00,0.0328
815.00,0.0326
814.00,0.0323
813.00,0.0319
812.00,0.0314
811.00,0.0307
810.00,0.0299
809.00,0.0290
808.00,0.0280
807.00,0.0270
806.00,0.0261
805.00,0.0252
804.00,0.0245
803.00,0.0239
802.00,0.0234
801.00,0.0230
800.00,0.0228
799.00,0.0226
798.00,0.0225
797.00,0.0225
796.00,0.0225
795.00,0.0225
794.00,0.0226
793.00,0.0227
792.00,0.0227
791.00,0.0227
790.00,0.0227
789.00,0.0228
788.00,0.0228
787.00,0.0228
786.00,0.0228
785.00,0.0228
784.00,0.0228
783.00,0.0228
782.00,0.0229
781.00,0.0231
780.00,0.0234
779.00,0.0236
778.00,0.0239
777.00,0.0240
776.00,0.0240
775.00,0.0239
774.00,0.0237
773.00,0.0236
772.00,0.0235
771.00,0.0235
770.00,0.0236
769.00,0.0237
768.00,0.0239
767.00,0.0241
766.00,0.0244
765.00,0.0247
764.00,0.0250
763.00,0.0253
762.00,0.0257
761.00,0.0261
760.00,0.0265
759.00,0.0269
758.00,0.0274
757.00,0.0278
756.00,0.0283
755.00,0.0288
754.00,0.0292
753.00,0.0296
752.00,0.0301
751.00,0.0305
750.00,0.0310
749.00,0.0314
748.00,0.0319
747.00,0.0324
746.00,0.0329
745.00,0.0334
744.00,0.0340
743.00,0.0346
742.00,0.0353
741.00,0.0362
740.00,0.0371
739.00,0.0381
738.00,0.0389
737.00,0.0395
736.00,0.0398
735.00,0.0397
734.00,0.0394
733.00,0.0390
732.00,0.0384
731.00,0.0377
730.00,0.0369
729.00,0.0361
728.00,0.0353
727.00,0.0346
726.00,0.0338
725.00,0.0331
724.00,0.0324
723.00,0.0318
722.00,0.0312
721.00,0.0307
720.00,0.0302
719.00,0.0299
718.00,0.0296
717.00,0.0294
716.00,0.0293
715.00,0.0292
714.00,0.0291
713.00,0.0290
712.00,0.0289
711.00,0.0287
710.00,0.0285
709.00,0.0284
708.00,0.0282
707.00,0.0282
706.00,0.0281
705.00,0.0281
704.00,0.0282
703.00,0.0283
702.00,0.0284
701.00,0.0285
700.00,0.0287
699.00,0.0290
698.00,0.0293
697.00,0.0297
696.00,0.0303
695.00,0.0309
694.00,0.0315
693.00,0.0321
692.00,0.0326
691.00,0.0330
690.00,0.0333
689.00,0.0335
688.00,0.0336
687.00,0.0338
686.00,0.0339
685.00,0.0339
684.00,0.0340
683.00,0.0340
682.00,0.0341
681.00,0.0343
680.00,0.0345
679.00,0.0348
678.00,0.0351
677.00,0.0354
676.00,0.0357
675.00,0.0361
674.00,0.0365
673.00,0.0370
672.00,0.0375
671.00,0.0379
670.00,0.0385
669.00,0.0393
668.00,0.0404
667.00,0.0415
666.00,0.0421
665.00,0.0426
664.00,0.0432
663.00,0.0439
662.00,0.0448
661.00,0.0458
660.00,0.0467
659.00,0.0477
658.00,0.0487
657.00,0.0496
656.00,0.0506
655.00,0.0515
654.00,0.0523
653.00,0.0532
652.00,0.0540
651.00,0.0546
650.00,0.0551
649.00,0.0554
648.00,0.0555
647.00,0.0554
646.00,0.0552
645.00,0.0547
644.00,0.0542
643.00,0.0535
642.00,0.0527
641.00,0.0518
640.00,0.0510
639.00,0.0501
638.00,0.0493
637.00,0.0485
636.00,0.0478
635.00,0.0471
634.00,0.0465
633.00,0.0459
632.00,0.0454
631.00,0.0449
630.00,0.0445
629.00,0.0441
628.00,0.0438
627.00,0.0436
626.00,0.0434
625.00,0.0432
624.00,0.0429
623.00,0.0426
622.00,0.0423
621.00,0.0420
620.00,0.0417
619.00,0.0414
618.00,0.0412
617.00,0.0410
616.00,0.0409
615.00,0.0409
614.00,0.0409
613.00,0.0408
612.00,0.0409
611.00,0.0409
610.00,0.0410
609.00,0.0411
608.00,0.0412
607.00,0.0414
606.00,0.0416
605.00,0.0418
604.00,0.0421
603.00,0.0423
602.00,0.0425
601.00,0.0428
600.00,0.0431
599.00,0.0433
598.00,0.0434
597.00,0.0435
596.00,0.0435
595.00,0.0436
594.00,0.0436
593.00,0.0438
592.00,0.0441
591.00,0.0446
590.00,0.0452
589.00,0.0460
588.00,0.0470
587.00,0.0482
586.00,0.0496
585.00,0.0510
584.00,0.0525
583.00,0.0537
582.00,0.0547
581.00,0.0555
580.00,0.0562
579.00,0.0568
578.00,0.0573
577.00,0.0577
576.00,0.0581
575.00,0.0583
574.00,0.0585
573.00,0.0587
572.00,0.0588
571.00,0.0589
570.00,0.0588
569.00,0.0586
568.00,0.0582
567.00,0.0578
566.00,0.0574
565.00,0.0568
564.00,0.0562
563.00,0.0555
562.00,0.0548
561.00,0.0541
560.00,0.0534
559.00,0.0527
558.00,0.0523
557.00,0.0521
556.00,0.0518
555.00,0.0514
554.00,0.0509
553.00,0.0503
552.00,0.0499
551.00,0.0495
550.00,0.0491
549.00,0.0488
548.00,0.0485
547.00,0.0482
546.00,0.0478
545.00,0.0473
544.00,0.0469
543.00,0.0465
542.00,0.0462
541.00,0.0459
540.00,0.0457
539.00,0.0456
538.00,0.0457
537.00,0.0458
536.00,0.0460
535.00,0.0464
534.00,0.0469
533.00,0.0473
532.00,0.0476
531.00,0.0477
530.00,0.0476
529.00,0.0474
528.00,0.0471
527.00,0.0467
526.00,0.0463
525.00,0.0460
524.00,0.0457
523.00,0.0454
522.00,0.0452
521.00,0.0449
520.00,0.0447
519.00,0.0446
518.00,0.0445
517.00,0.0444
516.00,0.0443
515.00,0.0441
514.00,0.0440
513.00,0.0438
512.00,0.0438
511.00,0.0439
510.00,0.0441
509.00,0.0444
508.00,0.0448
507.00,0.0451
506.00,0.0453
505.00,0.0452
504.00,0.0451
503.00,0.0450
502.00,0.0449
501.00,0.0447
500.00,0.0445
499.00,0.0443
498.00,0.0441
497.00,0.0441
496.00,0.0442
495.00,0.0444
494.00,0.0445
493.00,0.0446
492.00,0.0448
491.00,0.0450
490.00,0.0452
489.00,0.0453
488.00,0.0455
487.00,0.0457
486.00,0.0460
485.00,0.0463
484.00,0.0466
483.00,0.0467
482.00,0.0465
481.00,0.0464
480.00,0.0463
479.00,0.0465
478.00,0.0467
477.00,0.0470
476.00,0.0473
475.00,0.0476
474.00,0.0479
473.00,0.0481
472.00,0.0482
471.00,0.0482
470.00,0.0481
469.00,0.0478
468.00,0.0474
467.00,0.0469
466.00,0.0466
465.00,0.0465
464.00,0.0465
463.00,0.0467
462.00,0.0469
461.00,0.0470
460.00,0.0469
459.00,0.0467
458.00,0.0464
457.00,0.0460
456.00,0.0456
455.00,0.0451
454.00,0.0447
453.00,0.0446
452.00,0.0446
451.00,0.0448
450.00,0.0449
449.00,0.0448
448.00,0.0443
447.00,0.0436
446.00,0.0429
445.00,0.0426
444.00,0.0425
443.00,0.0424
442.00,0.0424
441.00,0.0423
440.00,0.0422
439.00,0.0422
438.00,0.0422
437.00,0.0421
436.00,0.0419
435.00,0.0415
434.00,0.0412
433.00,0.0410
432.00,0.0408
431.00,0.0405
430.00,0.0402
429.00,0.0400
428.00,0.0399
427.00,0.0400
426.00,0.0401
425.00,0.0399
424.00,0.0395
423.00,0.0390
422.00,0.0388
421.00,0.0392
420.00,0.0399
419.00,0.0408
418.00,0.0411
417.00,0.0410
416.00,0.0408
415.00,0.0406
414.00,0.0406
413.00,0.0405
412.00,0.0403
411.00,0.0402
410.00,0.0400
409.00,0.0397
408.00,0.0392
407.00,0.0388
406.00,0.0385
405.00,0.0386
404.00,0.0387
403.00,0.0386
402.00,0.0385
401.00,0.0386
400.00,0.0393
