Created as New Dataset,Sample 530 By YargerLab Date Thursday, February 19 2026
cm-1,A
4000.00,0.0029
3999.00,0.0029
3998.00,0.0029
3997.00,0.0029
3996.00,0.0029
3995.00,0.0029
3994.00,0.0029
3993.00,0.0029
3992.00,0.0029
3991.00,0.0029
3990.00,0.0029
3989.00,0.0029
3988.00,0.0029
3987.00,0.0029
3986.00,0.0029
3985.00,0.0029
3984.00,0.0029
3983.00,0.0029
3982.00,0.0029
3981.00,0.0029
3980.00,0.0029
3979.00,0.0029
3978.00,0.0029
3977.00,0.0029
3976.00,0.0029
3975.00,0.0028
3974.00,0.0028
3973.00,0.0028
3972.00,0.0028
3971.00,0.0029
3970.00,0.0029
3969.00,0.0029
3968.00,0.0029
3967.00,0.0029
3966.00,0.0029
3965.00,0.0029
3964.00,0.0029
3963.00,0.0029
3962.00,0.0029
3961.00,0.0029
3960.00,0.0029
3959.00,0.0029
3958.00,0.0029
3957.00,0.0029
3956.00,0.0029
3955.00,0.0029
3954.00,0.0029
3953.00,0.0029
3952.00,0.0029
3951.00,0.0029
3950.00,0.0029
3949.00,0.0029
3948.00,0.0029
3947.00,0.0029
3946.00,0.0029
3945.00,0.0029
3944.00,0.0029
3943.00,0.0028
3942.00,0.0029
3941.00,0.0029
3940.00,0.0029
3939.00,0.0029
3938.00,0.0029
3937.00,0.0029
3936.00,0.0029
3935.00,0.0029
3934.00,0.0029
3933.00,0.0029
3932.00,0.0029
3931.00,0.0029
3930.00,0.0029
3929.00,0.0029
3928.00,0.0029
3927.00,0.0029
3926.00,0.0030
3925.00,0.0030
3924.00,0.0030
3923.00,0.0030
3922.00,0.0030
3921.00,0.0029
3920.00,0.0029
3919.00,0.0029
3918.00,0.0029
3917.00,0.0029
3916.00,0.0029
3915.00,0.0029
3914.00,0.0029
3913.00,0.0029
3912.00,0.0028
3911.00,0.0028
3910.00,0.0028
3909.00,0.0028
3908.00,0.0028
3907.00,0.0029
3906.00,0.0029
3905.00,0.0029
3904.00,0.0029
3903.00,0.0029
3902.00,0.0028
3901.00,0.0028
3900.00,0.0028
3899.00,0.0028
3898.00,0.0028
3897.00,0.0028
3896.00,0.0028
3895.00,0.0028
3894.00,0.0028
3893.00,0.0028
3892.00,0.0028
3891.00,0.0028
3890.00,0.0028
3889.00,0.0028
3888.00,0.0028
3887.00,0.0028
3886.00,0.0028
3885.00,0.0028
3884.00,0.0029
3883.00,0.0029
3882.00,0.0029
3881.00,0.0029
3880.00,0.0029
3879.00,0.0029
3878.00,0.0028
3877.00,0.0028
3876.00,0.0028
3875.00,0.0028
3874.00,0.0028
3873.00,0.0028
3872.00,0.0028
3871.00,0.0028
3870.00,0.0028
3869.00,0.0028
3868.00,0.0028
3867.00,0.0028
3866.00,0.0028
3865.00,0.0028
3864.00,0.0028
3863.00,0.0028
3862.00,0.0028
3861.00,0.0028
3860.00,0.0028
3859.00,0.0028
3858.00,0.0028
3857.00,0.0028
3856.00,0.0028
3855.00,0.0028
3854.00,0.0027
3853.00,0.0027
3852.00,0.0027
3851.00,0.0027
3850.00,0.0027
3849.00,0.0027
3848.00,0.0028
3847.00,0.0028
3846.00,0.0028
3845.00,0.0028
3844.00,0.0028
3843.00,0.0028
3842.00,0.0028
3841.00,0.0028
3840.00,0.0028
3839.00,0.0028
3838.00,0.0028
3837.00,0.0028
3836.00,0.0028
3835.00,0.0028
3834.00,0.0028
3833.00,0.0028
3832.00,0.0028
3831.00,0.0028
3830.00,0.0028
3829.00,0.0028
3828.00,0.0028
3827.00,0.0028
3826.00,0.0028
3825.00,0.0028
3824.00,0.0028
3823.00,0.0028
3822.00,0.0028
3821.00,0.0028
3820.00,0.0029
3819.00,0.0029
3818.00,0.0028
3817.00,0.0028
3816.00,0.0028
3815.00,0.0028
3814.00,0.0028
3813.00,0.0028
3812.00,0.0028
3811.00,0.0028
3810.00,0.0028
3809.00,0.0028
3808.00,0.0028
3807.00,0.0028
3806.00,0.0028
3805.00,0.0028
3804.00,0.0027
3803.00,0.0027
3802.00,0.0027
3801.00,0.0028
3800.00,0.0028
3799.00,0.0028
3798.00,0.0028
3797.00,0.0028
3796.00,0.0028
3795.00,0.0028
3794.00,0.0028
3793.00,0.0028
3792.00,0.0028
3791.00,0.0028
3790.00,0.0029
3789.00,0.0029
3788.00,0.0029
3787.00,0.0029
3786.00,0.0029
3785.00,0.0029
3784.00,0.0029
3783.00,0.0029
3782.00,0.0029
3781.00,0.0029
3780.00,0.0029
3779.00,0.0029
3778.00,0.0029
3777.00,0.0029
3776.00,0.0029
3775.00,0.0028
3774.00,0.0028
3773.00,0.0028
3772.00,0.0028
3771.00,0.0029
3770.00,0.0029
3769.00,0.0029
3768.00,0.0029
3767.00,0.0029
3766.00,0.0028
3765.00,0.0028
3764.00,0.0028
3763.00,0.0028
3762.00,0.0028
3761.00,0.0028
3760.00,0.0028
3759.00,0.0028
3758.00,0.0028
3757.00,0.0028
3756.00,0.0028
3755.00,0.0028
3754.00,0.0028
3753.00,0.0028
3752.00,0.0027
3751.00,0.0027
3750.00,0.0027
3749.00,0.0027
3748.00,0.0027
3747.00,0.0027
3746.00,0.0027
3745.00,0.0027
3744.00,0.0027
3743.00,0.0027
3742.00,0.0027
3741.00,0.0028
3740.00,0.0028
3739.00,0.0028
3738.00,0.0028
3737.00,0.0028
3736.00,0.0028
3735.00,0.0028
3734.00,0.0028
3733.00,0.0028
3732.00,0.0028
3731.00,0.0028
3730.00,0.0028
3729.00,0.0028
3728.00,0.0028
3727.00,0.0028
3726.00,0.0028
3725.00,0.0028
3724.00,0.0028
3723.00,0.0027
3722.00,0.0027
3721.00,0.0027
3720.00,0.0027
3719.00,0.0027
3718.00,0.0028
3717.00,0.0028
3716.00,0.0028
3715.00,0.0028
3714.00,0.0027
3713.00,0.0027
3712.00,0.0028
3711.00,0.0028
3710.00,0.0028
3709.00,0.0028
3708.00,0.0028
3707.00,0.0028
3706.00,0.0028
3705.00,0.0028
3704.00,0.0028
3703.00,0.0028
3702.00,0.0028
3701.00,0.0028
3700.00,0.0028
3699.00,0.0028
3698.00,0.0027
3697.00,0.0027
3696.00,0.0027
3695.00,0.0027
3694.00,0.0027
3693.00,0.0027
3692.00,0.0027
3691.00,0.0028
3690.00,0.0028
3689.00,0.0028
3688.00,0.0028
3687.00,0.0028
3686.00,0.0028
3685.00,0.0028
3684.00,0.0028
3683.00,0.0028
3682.00,0.0029
3681.00,0.0029
3680.00,0.0029
3679.00,0.0029
3678.00,0.0028
3677.00,0.0028
3676.00,0.0028
3675.00,0.0028
3674.00,0.0029
3673.00,0.0028
3672.00,0.0028
3671.00,0.0028
3670.00,0.0028
3669.00,0.0028
3668.00,0.0028
3667.00,0.0028
3666.00,0.0028
3665.00,0.0028
3664.00,0.0028
3663.00,0.0028
3662.00,0.0029
3661.00,0.0029
3660.00,0.0029
3659.00,0.0029
3658.00,0.0029
3657.00,0.0029
3656.00,0.0029
3655.00,0.0029
3654.00,0.0029
3653.00,0.0029
3652.00,0.0029
3651.00,0.0030
3650.00,0.0030
3649.00,0.0030
3648.00,0.0030
3647.00,0.0030
3646.00,0.0031
3645.00,0.0031
3644.00,0.0031
3643.00,0.0031
3642.00,0.0031
3641.00,0.0032
3640.00,0.0032
3639.00,0.0032
3638.00,0.0033
3637.00,0.0033
3636.00,0.0033
3635.00,0.0033
3634.00,0.0034
3633.00,0.0034
3632.00,0.0035
3631.00,0.0035
3630.00,0.0035
3629.00,0.0035
3628.00,0.0034
3627.00,0.0035
3626.00,0.0035
3625.00,0.0035
3624.00,0.0036
3623.00,0.0036
3622.00,0.0037
3621.00,0.0037
3620.00,0.0037
3619.00,0.0038
3618.00,0.0038
3617.00,0.0038
3616.00,0.0039
3615.00,0.0039
3614.00,0.0039
3613.00,0.0039
3612.00,0.0039
3611.00,0.0039
3610.00,0.0040
3609.00,0.0040
3608.00,0.0041
3607.00,0.0041
3606.00,0.0041
3605.00,0.0041
3604.00,0.0042
3603.00,0.0042
3602.00,0.0043
3601.00,0.0043
3600.00,0.0044
3599.00,0.0044
3598.00,0.0045
3597.00,0.0045
3596.00,0.0045
3595.00,0.0046
3594.00,0.0046
3593.00,0.0046
3592.00,0.0046
3591.00,0.0046
3590.00,0.0047
3589.00,0.0047
3588.00,0.0048
3587.00,0.0048
3586.00,0.0049
3585.00,0.0049
3584.00,0.0049
3583.00,0.0050
3582.00,0.0050
3581.00,0.0051
3580.00,0.0051
3579.00,0.0052
3578.00,0.0052
3577.00,0.0053
3576.00,0.0053
3575.00,0.0053
3574.00,0.0054
3573.00,0.0055
3572.00,0.0056
3571.00,0.0057
3570.00,0.0057
3569.00,0.0058
3568.00,0.0058
3567.00,0.0058
3566.00,0.0059
3565.00,0.0059
3564.00,0.0059
3563.00,0.0060
3562.00,0.0060
3561.00,0.0060
3560.00,0.0061
3559.00,0.0061
3558.00,0.0062
3557.00,0.0062
3556.00,0.0063
3555.00,0.0063
3554.00,0.0063
3553.00,0.0064
3552.00,0.0064
3551.00,0.0065
3550.00,0.0065
3549.00,0.0066
3548.00,0.0066
3547.00,0.0067
3546.00,0.0067
3545.00,0.0067
3544.00,0.0067
3543.00,0.0067
3542.00,0.0068
3541.00,0.0068
3540.00,0.0069
3539.00,0.0070
3538.00,0.0070
3537.00,0.0070
3536.00,0.0070
3535.00,0.0070
3534.00,0.0071
3533.00,0.0071
3532.00,0.0072
3531.00,0.0072
3530.00,0.0073
3529.00,0.0073
3528.00,0.0073
3527.00,0.0074
3526.00,0.0074
3525.00,0.0075
3524.00,0.0075
3523.00,0.0075
3522.00,0.0075
3521.00,0.0075
3520.00,0.0075
3519.00,0.0076
3518.00,0.0076
3517.00,0.0076
3516.00,0.0076
3515.00,0.0077
3514.00,0.0077
3513.00,0.0078
3512.00,0.0078
3511.00,0.0079
3510.00,0.0079
3509.00,0.0079
3508.00,0.0079
3507.00,0.0080
3506.00,0.0080
3505.00,0.0081
3504.00,0.0081
3503.00,0.0082
3502.00,0.0082
3501.00,0.0082
3500.00,0.0083
3499.00,0.0083
3498.00,0.0083
3497.00,0.0084
3496.00,0.0084
3495.00,0.0084
3494.00,0.0085
3493.00,0.0085
3492.00,0.0086
3491.00,0.0086
3490.00,0.0087
3489.00,0.0087
3488.00,0.0087
3487.00,0.0088
3486.00,0.0088
3485.00,0.0088
3484.00,0.0089
3483.00,0.0089
3482.00,0.0089
3481.00,0.0089
3480.00,0.0090
3479.00,0.0090
3478.00,0.0090
3477.00,0.0090
3476.00,0.0091
3475.00,0.0091
3474.00,0.0091
3473.00,0.0092
3472.00,0.0093
3471.00,0.0093
3470.00,0.0094
3469.00,0.0094
3468.00,0.0094
3467.00,0.0094
3466.00,0.0094
3465.00,0.0094
3464.00,0.0094
3463.00,0.0095
3462.00,0.0095
3461.00,0.0095
3460.00,0.0095
3459.00,0.0096
3458.00,0.0096
3457.00,0.0096
3456.00,0.0097
3455.00,0.0097
3454.00,0.0097
3453.00,0.0098
3452.00,0.0098
3451.00,0.0098
3450.00,0.0098
3449.00,0.0098
3448.00,0.0098
3447.00,0.0098
3446.00,0.0098
3445.00,0.0098
3444.00,0.0099
3443.00,0.0099
3442.00,0.0099
3441.00,0.0099
3440.00,0.0100
3439.00,0.0100
3438.00,0.0100
3437.00,0.0100
3436.00,0.0100
3435.00,0.0100
3434.00,0.0100
3433.00,0.0101
3432.00,0.0101
3431.00,0.0101
3430.00,0.0101
3429.00,0.0101
3428.00,0.0101
3427.00,0.0101
3426.00,0.0101
3425.00,0.0101
3424.00,0.0102
3423.00,0.0102
3422.00,0.0102
3421.00,0.0102
3420.00,0.0101
3419.00,0.0101
3418.00,0.0101
3417.00,0.0102
3416.00,0.0102
3415.00,0.0102
3414.00,0.0102
3413.00,0.0102
3412.00,0.0103
3411.00,0.0103
3410.00,0.0103
3409.00,0.0103
3408.00,0.0103
3407.00,0.0103
3406.00,0.0103
3405.00,0.0103
3404.00,0.0103
3403.00,0.0103
3402.00,0.0103
3401.00,0.0103
3400.00,0.0104
3399.00,0.0104
3398.00,0.0104
3397.00,0.0104
3396.00,0.0104
3395.00,0.0104
3394.00,0.0104
3393.00,0.0104
3392.00,0.0104
3391.00,0.0104
3390.00,0.0105
3389.00,0.0105
3388.00,0.0105
3387.00,0.0105
3386.00,0.0106
3385.00,0.0106
3384.00,0.0106
3383.00,0.0106
3382.00,0.0106
3381.00,0.0106
3380.00,0.0106
3379.00,0.0106
3378.00,0.0106
3377.00,0.0106
3376.00,0.0106
3375.00,0.0106
3374.00,0.0106
3373.00,0.0106
3372.00,0.0105
3371.00,0.0105
3370.00,0.0105
3369.00,0.0105
3368.00,0.0106
3367.00,0.0106
3366.00,0.0107
3365.00,0.0107
3364.00,0.0107
3363.00,0.0107
3362.00,0.0107
3361.00,0.0107
3360.00,0.0108
3359.00,0.0108
3358.00,0.0108
3357.00,0.0108
3356.00,0.0108
3355.00,0.0108
3354.00,0.0108
3353.00,0.0108
3352.00,0.0108
3351.00,0.0108
3350.00,0.0108
3349.00,0.0108
3348.00,0.0109
3347.00,0.0109
3346.00,0.0109
3345.00,0.0108
3344.00,0.0108
3343.00,0.0108
3342.00,0.0108
3341.00,0.0107
3340.00,0.0107
3339.00,0.0107
3338.00,0.0107
3337.00,0.0107
3336.00,0.0108
3335.00,0.0108
3334.00,0.0109
3333.00,0.0109
3332.00,0.0109
3331.00,0.0109
3330.00,0.0108
3329.00,0.0108
3328.00,0.0107
3327.00,0.0107
3326.00,0.0107
3325.00,0.0107
3324.00,0.0107
3323.00,0.0107
3322.00,0.0107
3321.00,0.0107
3320.00,0.0107
3319.00,0.0107
3318.00,0.0108
3317.00,0.0108
3316.00,0.0108
3315.00,0.0108
3314.00,0.0108
3313.00,0.0108
3312.00,0.0107
3311.00,0.0107
3310.00,0.0106
3309.00,0.0105
3308.00,0.0105
3307.00,0.0104
3306.00,0.0104
3305.00,0.0105
3304.00,0.0106
3303.00,0.0106
3302.00,0.0107
3301.00,0.0107
3300.00,0.0107
3299.00,0.0107
3298.00,0.0107
3297.00,0.0106
3296.00,0.0106
3295.00,0.0106
3294.00,0.0106
3293.00,0.0106
3292.00,0.0106
3291.00,0.0106
3290.00,0.0106
3289.00,0.0107
3288.00,0.0107
3287.00,0.0107
3286.00,0.0107
3285.00,0.0107
3284.00,0.0107
3283.00,0.0107
3282.00,0.0107
3281.00,0.0106
3280.00,0.0106
3279.00,0.0106
3278.00,0.0106
3277.00,0.0105
3276.00,0.0105
3275.00,0.0105
3274.00,0.0105
3273.00,0.0105
3272.00,0.0105
3271.00,0.0105
3270.00,0.0105
3269.00,0.0105
3268.00,0.0105
3267.00,0.0105
3266.00,0.0105
3265.00,0.0105
3264.00,0.0105
3263.00,0.0105
3262.00,0.0105
3261.00,0.0105
3260.00,0.0105
3259.00,0.0105
3258.00,0.0105
3257.00,0.0105
3256.00,0.0105
3255.00,0.0105
3254.00,0.0105
3253.00,0.0105
3252.00,0.0105
3251.00,0.0105
3250.00,0.0105
3249.00,0.0104
3248.00,0.0104
3247.00,0.0104
3246.00,0.0104
3245.00,0.0104
3244.00,0.0104
3243.00,0.0104
3242.00,0.0104
3241.00,0.0104
3240.00,0.0104
3239.00,0.0103
3238.00,0.0103
3237.00,0.0103
3236.00,0.0103
3235.00,0.0103
3234.00,0.0103
3233.00,0.0103
3232.00,0.0103
3231.00,0.0104
3230.00,0.0104
3229.00,0.0104
3228.00,0.0104
3227.00,0.0104
3226.00,0.0103
3225.00,0.0103
3224.00,0.0103
3223.00,0.0103
3222.00,0.0103
3221.00,0.0102
3220.00,0.0102
3219.00,0.0102
3218.00,0.0101
3217.00,0.0101
3216.00,0.0101
3215.00,0.0101
3214.00,0.0101
3213.00,0.0101
3212.00,0.0101
3211.00,0.0101
3210.00,0.0101
3209.00,0.0101
3208.00,0.0101
3207.00,0.0101
3206.00,0.0101
3205.00,0.0101
3204.00,0.0101
3203.00,0.0100
3202.00,0.0100
3201.00,0.0100
3200.00,0.0100
3199.00,0.0100
3198.00,0.0099
3197.00,0.0099
3196.00,0.0099
3195.00,0.0099
3194.00,0.0099
3193.00,0.0099
3192.00,0.0099
3191.00,0.0099
3190.00,0.0099
3189.00,0.0099
3188.00,0.0099
3187.00,0.0099
3186.00,0.0099
3185.00,0.0099
3184.00,0.0099
3183.00,0.0098
3182.00,0.0098
3181.00,0.0098
3180.00,0.0098
3179.00,0.0098
3178.00,0.0097
3177.00,0.0097
3176.00,0.0097
3175.00,0.0097
3174.00,0.0097
3173.00,0.0097
3172.00,0.0097
3171.00,0.0097
3170.00,0.0097
3169.00,0.0096
3168.00,0.0096
3167.00,0.0096
3166.00,0.0096
3165.00,0.0096
3164.00,0.0096
3163.00,0.0095
3162.00,0.0095
3161.00,0.0095
3160.00,0.0095
3159.00,0.0095
3158.00,0.0095
3157.00,0.0095
3156.00,0.0094
3155.00,0.0094
3154.00,0.0094
3153.00,0.0094
3152.00,0.0094
3151.00,0.0094
3150.00,0.0095
3149.00,0.0095
3148.00,0.0095
3147.00,0.0094
3146.00,0.0094
3145.00,0.0093
3144.00,0.0093
3143.00,0.0093
3142.00,0.0093
3141.00,0.0092
3140.00,0.0092
3139.00,0.0092
3138.00,0.0092
3137.00,0.0092
3136.00,0.0092
3135.00,0.0092
3134.00,0.0092
3133.00,0.0092
3132.00,0.0092
3131.00,0.0092
3130.00,0.0092
3129.00,0.0092
3128.00,0.0092
3127.00,0.0092
3126.00,0.0091
3125.00,0.0091
3124.00,0.0091
3123.00,0.0091
3122.00,0.0091
3121.00,0.0091
3120.00,0.0091
3119.00,0.0091
3118.00,0.0091
3117.00,0.0091
3116.00,0.0090
3115.00,0.0090
3114.00,0.0089
3113.00,0.0089
3112.00,0.0089
3111.00,0.0090
3110.00,0.0090
3109.00,0.0090
3108.00,0.0090
3107.00,0.0089
3106.00,0.0089
3105.00,0.0088
3104.00,0.0088
3103.00,0.0088
3102.00,0.0088
3101.00,0.0088
3100.00,0.0088
3099.00,0.0088
3098.00,0.0088
3097.00,0.0087
3096.00,0.0087
3095.00,0.0087
3094.00,0.0087
3093.00,0.0087
3092.00,0.0087
3091.00,0.0087
3090.00,0.0087
3089.00,0.0087
3088.00,0.0087
3087.00,0.0087
3086.00,0.0087
3085.00,0.0087
3084.00,0.0087
3083.00,0.0088
3082.00,0.0088
3081.00,0.0088
3080.00,0.0088
3079.00,0.0087
3078.00,0.0087
3077.00,0.0087
3076.00,0.0087
3075.00,0.0087
3074.00,0.0088
3073.00,0.0088
3072.00,0.0087
3071.00,0.0087
3070.00,0.0087
3069.00,0.0087
3068.00,0.0086
3067.00,0.0086
3066.00,0.0086
3065.00,0.0086
3064.00,0.0086
3063.00,0.0086
3062.00,0.0086
3061.00,0.0085
3060.00,0.0085
3059.00,0.0085
3058.00,0.0084
3057.00,0.0084
3056.00,0.0085
3055.00,0.0085
3054.00,0.0085
3053.00,0.0085
3052.00,0.0085
3051.00,0.0085
3050.00,0.0084
3049.00,0.0084
3048.00,0.0084
3047.00,0.0084
3046.00,0.0084
3045.00,0.0084
3044.00,0.0084
3043.00,0.0084
3042.00,0.0083
3041.00,0.0083
3040.00,0.0083
3039.00,0.0083
3038.00,0.0083
3037.00,0.0083
3036.00,0.0083
3035.00,0.0083
3034.00,0.0083
3033.00,0.0083
3032.00,0.0084
3031.00,0.0084
3030.00,0.0084
3029.00,0.0084
3028.00,0.0083
3027.00,0.0083
3026.00,0.0083
3025.00,0.0082
3024.00,0.0082
3023.00,0.0082
3022.00,0.0082
3021.00,0.0082
3020.00,0.0082
3019.00,0.0081
3018.00,0.0081
3017.00,0.0081
3016.00,0.0082
3015.00,0.0083
3014.00,0.0084
3013.00,0.0085
3012.00,0.0086
3011.00,0.0087
3010.00,0.0088
3009.00,0.0088
3008.00,0.0089
3007.00,0.0090
3006.00,0.0091
3005.00,0.0092
3004.00,0.0094
3003.00,0.0096
3002.00,0.0097
3001.00,0.0099
3000.00,0.0101
2999.00,0.0104
2998.00,0.0107
2997.00,0.0110
2996.00,0.0113
2995.00,0.0117
2994.00,0.0120
2993.00,0.0124
2992.00,0.0128
2991.00,0.0132
2990.00,0.0136
2989.00,0.0139
2988.00,0.0143
2987.00,0.0147
2986.00,0.0150
2985.00,0.0153
2984.00,0.0155
2983.00,0.0157
2982.00,0.0159
2981.00,0.0162
2980.00,0.0165
2979.00,0.0168
2978.00,0.0171
2977.00,0.0175
2976.00,0.0178
2975.00,0.0180
2974.00,0.0182
2973.00,0.0183
2972.00,0.0185
2971.00,0.0187
2970.00,0.0189
2969.00,0.0192
2968.00,0.0195
2967.00,0.0198
2966.00,0.0201
2965.00,0.0204
2964.00,0.0207
2963.00,0.0210
2962.00,0.0213
2961.00,0.0216
2960.00,0.0219
2959.00,0.0222
2958.00,0.0225
2957.00,0.0228
2956.00,0.0231
2955.00,0.0234
2954.00,0.0236
2953.00,0.0237
2952.00,0.0238
2951.00,0.0239
2950.00,0.0239
2949.00,0.0239
2948.00,0.0239
2947.00,0.0239
2946.00,0.0239
2945.00,0.0239
2944.00,0.0239
2943.00,0.0240
2942.00,0.0240
2941.00,0.0241
2940.00,0.0241
2939.00,0.0242
2938.00,0.0244
2937.00,0.0245
2936.00,0.0247
2935.00,0.0249
2934.00,0.0250
2933.00,0.0252
2932.00,0.0254
2931.00,0.0256
2930.00,0.0258
2929.00,0.0260
2928.00,0.0261
2927.00,0.0263
2926.00,0.0263
2925.00,0.0264
2924.00,0.0264
2923.00,0.0264
2922.00,0.0263
2921.00,0.0262
2920.00,0.0260
2919.00,0.0258
2918.00,0.0255
2917.00,0.0252
2916.00,0.0249
2915.00,0.0246
2914.00,0.0242
2913.00,0.0239
2912.00,0.0235
2911.00,0.0231
2910.00,0.0227
2909.00,0.0223
2908.00,0.0219
2907.00,0.0216
2906.00,0.0212
2905.00,0.0209
2904.00,0.0207
2903.00,0.0205
2902.00,0.0203
2901.00,0.0201
2900.00,0.0200
2899.00,0.0199
2898.00,0.0199
2897.00,0.0198
2896.00,0.0198
2895.00,0.0197
2894.00,0.0197
2893.00,0.0196
2892.00,0.0196
2891.00,0.0195
2890.00,0.0195
2889.00,0.0194
2888.00,0.0194
2887.00,0.0194
2886.00,0.0194
2885.00,0.0194
2884.00,0.0194
2883.00,0.0194
2882.00,0.0194
2881.00,0.0194
2880.00,0.0195
2879.00,0.0195
2878.00,0.0196
2877.00,0.0197
2876.00,0.0197
2875.00,0.0198
2874.00,0.0199
2873.00,0.0200
2872.00,0.0200
2871.00,0.0200
2870.00,0.0200
2869.00,0.0200
2868.00,0.0199
2867.00,0.0199
2866.00,0.0198
2865.00,0.0198
2864.00,0.0197
2863.00,0.0197
2862.00,0.0197
2861.00,0.0197
2860.00,0.0197
2859.00,0.0197
2858.00,0.0197
2857.00,0.0196
2856.00,0.0194
2855.00,0.0192
2854.00,0.0189
2853.00,0.0185
2852.00,0.0181
2851.00,0.0177
2850.00,0.0173
2849.00,0.0169
2848.00,0.0165
2847.00,0.0160
2846.00,0.0156
2845.00,0.0153
2844.00,0.0149
2843.00,0.0145
2842.00,0.0142
2841.00,0.0138
2840.00,0.0135
2839.00,0.0132
2838.00,0.0130
2837.00,0.0128
2836.00,0.0126
2835.00,0.0124
2834.00,0.0122
2833.00,0.0121
2832.00,0.0120
2831.00,0.0118
2830.00,0.0117
2829.00,0.0116
2828.00,0.0114
2827.00,0.0113
2826.00,0.0111
2825.00,0.0110
2824.00,0.0109
2823.00,0.0108
2822.00,0.0106
2821.00,0.0105
2820.00,0.0104
2819.00,0.0103
2818.00,0.0102
2817.00,0.0101
2816.00,0.0100
2815.00,0.0099
2814.00,0.0097
2813.00,0.0096
2812.00,0.0095
2811.00,0.0094
2810.00,0.0093
2809.00,0.0092
2808.00,0.0090
2807.00,0.0089
2806.00,0.0088
2805.00,0.0087
2804.00,0.0086
2803.00,0.0085
2802.00,0.0084
2801.00,0.0083
2800.00,0.0082
2799.00,0.0081
2798.00,0.0081
2797.00,0.0080
2796.00,0.0080
2795.00,0.0079
2794.00,0.0079
2793.00,0.0078
2792.00,0.0077
2791.00,0.0077
2790.00,0.0077
2789.00,0.0076
2788.00,0.0076
2787.00,0.0075
2786.00,0.0075
2785.00,0.0074
2784.00,0.0074
2783.00,0.0073
2782.00,0.0073
2781.00,0.0073
2780.00,0.0072
2779.00,0.0072
2778.00,0.0071
2777.00,0.0071
2776.00,0.0071
2775.00,0.0070
2774.00,0.0070
2773.00,0.0069
2772.00,0.0069
2771.00,0.0069
2770.00,0.0069
2769.00,0.0068
2768.00,0.0068
2767.00,0.0068
2766.00,0.0067
2765.00,0.0067
2764.00,0.0067
2763.00,0.0067
2762.00,0.0066
2761.00,0.0066
2760.00,0.0066
2759.00,0.0066
2758.00,0.0066
2757.00,0.0066
2756.00,0.0066
2755.00,0.0066
2754.00,0.0066
2753.00,0.0066
2752.00,0.0066
2751.00,0.0067
2750.00,0.0067
2749.00,0.0066
2748.00,0.0066
2747.00,0.0066
2746.00,0.0066
2745.00,0.0066
2744.00,0.0066
2743.00,0.0066
2742.00,0.0066
2741.00,0.0066
2740.00,0.0066
2739.00,0.0066
2738.00,0.0066
2737.00,0.0066
2736.00,0.0066
2735.00,0.0066
2734.00,0.0066
2733.00,0.0066
2732.00,0.0066
2731.00,0.0066
2730.00,0.0065
2729.00,0.0065
2728.00,0.0065
2727.00,0.0065
2726.00,0.0065
2725.00,0.0065
2724.00,0.0065
2723.00,0.0065
2722.00,0.0065
2721.00,0.0065
2720.00,0.0064
2719.00,0.0064
2718.00,0.0064
2717.00,0.0064
2716.00,0.0064
2715.00,0.0064
2714.00,0.0064
2713.00,0.0063
2712.00,0.0063
2711.00,0.0063
2710.00,0.0063
2709.00,0.0063
2708.00,0.0063
2707.00,0.0063
2706.00,0.0062
2705.00,0.0062
2704.00,0.0062
2703.00,0.0061
2702.00,0.0061
2701.00,0.0061
2700.00,0.0061
2699.00,0.0061
2698.00,0.0061
2697.00,0.0061
2696.00,0.0061
2695.00,0.0061
2694.00,0.0061
2693.00,0.0061
2692.00,0.0060
2691.00,0.0060
2690.00,0.0060
2689.00,0.0060
2688.00,0.0059
2687.00,0.0059
2686.00,0.0059
2685.00,0.0059
2684.00,0.0060
2683.00,0.0059
2682.00,0.0059
2681.00,0.0059
2680.00,0.0059
2679.00,0.0059
2678.00,0.0059
2677.00,0.0058
2676.00,0.0058
2675.00,0.0058
2674.00,0.0057
2673.00,0.0057
2672.00,0.0058
2671.00,0.0058
2670.00,0.0058
2669.00,0.0058
2668.00,0.0058
2667.00,0.0058
2666.00,0.0059
2665.00,0.0059
2664.00,0.0059
2663.00,0.0060
2662.00,0.0060
2661.00,0.0060
2660.00,0.0060
2659.00,0.0060
2658.00,0.0060
2657.00,0.0060
2656.00,0.0060
2655.00,0.0060
2654.00,0.0060
2653.00,0.0060
2652.00,0.0060
2651.00,0.0060
2650.00,0.0060
2649.00,0.0060
2648.00,0.0060
2647.00,0.0060
2646.00,0.0060
2645.00,0.0059
2644.00,0.0059
2643.00,0.0059
2642.00,0.0059
2641.00,0.0059
2640.00,0.0059
2639.00,0.0059
2638.00,0.0059
2637.00,0.0059
2636.00,0.0059
2635.00,0.0059
2634.00,0.0059
2633.00,0.0058
2632.00,0.0058
2631.00,0.0058
2630.00,0.0058
2629.00,0.0058
2628.00,0.0057
2627.00,0.0057
2626.00,0.0057
2625.00,0.0057
2624.00,0.0057
2623.00,0.0057
2622.00,0.0057
2621.00,0.0057
2620.00,0.0057
2619.00,0.0057
2618.00,0.0057
2617.00,0.0057
2616.00,0.0057
2615.00,0.0057
2614.00,0.0056
2613.00,0.0056
2612.00,0.0056
2611.00,0.0056
2610.00,0.0056
2609.00,0.0056
2608.00,0.0056
2607.00,0.0056
2606.00,0.0055
2605.00,0.0055
2604.00,0.0055
2603.00,0.0055
2602.00,0.0055
2601.00,0.0055
2600.00,0.0055
2599.00,0.0055
2598.00,0.0055
2597.00,0.0054
2596.00,0.0054
2595.00,0.0055
2594.00,0.0055
2593.00,0.0056
2592.00,0.0056
2591.00,0.0056
2590.00,0.0056
2589.00,0.0055
2588.00,0.0055
2587.00,0.0055
2586.00,0.0054
2585.00,0.0054
2584.00,0.0054
2583.00,0.0054
2582.00,0.0054
2581.00,0.0054
2580.00,0.0054
2579.00,0.0054
2578.00,0.0054
2577.00,0.0053
2576.00,0.0053
2575.00,0.0053
2574.00,0.0054
2573.00,0.0054
2572.00,0.0054
2571.00,0.0054
2570.00,0.0053
2569.00,0.0053
2568.00,0.0053
2567.00,0.0053
2566.00,0.0053
2565.00,0.0053
2564.00,0.0053
2563.00,0.0052
2562.00,0.0052
2561.00,0.0051
2560.00,0.0051
2559.00,0.0051
2558.00,0.0051
2557.00,0.0051
2556.00,0.0051
2555.00,0.0051
2554.00,0.0051
2553.00,0.0050
2552.00,0.0050
2551.00,0.0051
2550.00,0.0051
2549.00,0.0052
2548.00,0.0052
2547.00,0.0052
2546.00,0.0051
2545.00,0.0051
2544.00,0.0051
2543.00,0.0050
2542.00,0.0050
2541.00,0.0050
2540.00,0.0050
2539.00,0.0050
2538.00,0.0050
2537.00,0.0049
2536.00,0.0049
2535.00,0.0049
2534.00,0.0049
2533.00,0.0049
2532.00,0.0049
2531.00,0.0049
2530.00,0.0049
2529.00,0.0049
2528.00,0.0049
2527.00,0.0049
2526.00,0.0049
2525.00,0.0048
2524.00,0.0048
2523.00,0.0047
2522.00,0.0047
2521.00,0.0047
2520.00,0.0047
2519.00,0.0047
2518.00,0.0046
2517.00,0.0046
2516.00,0.0046
2515.00,0.0046
2514.00,0.0046
2513.00,0.0046
2512.00,0.0046
2511.00,0.0046
2510.00,0.0046
2509.00,0.0046
2508.00,0.0046
2507.00,0.0045
2506.00,0.0045
2505.00,0.0045
2504.00,0.0046
2503.00,0.0046
2502.00,0.0046
2501.00,0.0046
2500.00,0.0046
2499.00,0.0046
2498.00,0.0045
2497.00,0.0045
2496.00,0.0045
2495.00,0.0045
2494.00,0.0045
2493.00,0.0044
2492.00,0.0045
2491.00,0.0045
2490.00,0.0045
2489.00,0.0045
2488.00,0.0045
2487.00,0.0045
2486.00,0.0045
2485.00,0.0045
2484.00,0.0045
2483.00,0.0044
2482.00,0.0044
2481.00,0.0044
2480.00,0.0044
2479.00,0.0044
2478.00,0.0044
2477.00,0.0043
2476.00,0.0043
2475.00,0.0043
2474.00,0.0043
2473.00,0.0043
2472.00,0.0043
2471.00,0.0043
2470.00,0.0043
2469.00,0.0043
2468.00,0.0043
2467.00,0.0043
2466.00,0.0043
2465.00,0.0043
2464.00,0.0043
2463.00,0.0044
2462.00,0.0044
2461.00,0.0044
2460.00,0.0044
2459.00,0.0044
2458.00,0.0044
2457.00,0.0044
2456.00,0.0044
2455.00,0.0044
2454.00,0.0044
2453.00,0.0044
2452.00,0.0044
2451.00,0.0044
2450.00,0.0044
2449.00,0.0043
2448.00,0.0043
2447.00,0.0043
2446.00,0.0043
2445.00,0.0043
2444.00,0.0043
2443.00,0.0043
2442.00,0.0043
2441.00,0.0043
2440.00,0.0043
2439.00,0.0043
2438.00,0.0042
2437.00,0.0042
2436.00,0.0042
2435.00,0.0042
2434.00,0.0042
2433.00,0.0042
2432.00,0.0042
2431.00,0.0043
2430.00,0.0043
2429.00,0.0043
2428.00,0.0043
2427.00,0.0043
2426.00,0.0042
2425.00,0.0041
2424.00,0.0041
2423.00,0.0041
2422.00,0.0041
2421.00,0.0042
2420.00,0.0042
2419.00,0.0042
2418.00,0.0042
2417.00,0.0042
2416.00,0.0042
2415.00,0.0042
2414.00,0.0041
2413.00,0.0041
2412.00,0.0042
2411.00,0.0042
2410.00,0.0041
2409.00,0.0041
2408.00,0.0040
2407.00,0.0040
2406.00,0.0039
2405.00,0.0039
2404.00,0.0039
2403.00,0.0038
2402.00,0.0038
2401.00,0.0038
2400.00,0.0039
2399.00,0.0039
2398.00,0.0039
2397.00,0.0039
2396.00,0.0039
2395.00,0.0040
2394.00,0.0040
2393.00,0.0040
2392.00,0.0039
2391.00,0.0039
2390.00,0.0039
2389.00,0.0038
2388.00,0.0038
2387.00,0.0038
2386.00,0.0037
2385.00,0.0037
2384.00,0.0036
2383.00,0.0035
2382.00,0.0035
2381.00,0.0034
2380.00,0.0035
2379.00,0.0035
2378.00,0.0035
2377.00,0.0035
2376.00,0.0035
2375.00,0.0035
2374.00,0.0035
2373.00,0.0035
2372.00,0.0035
2371.00,0.0035
2370.00,0.0034
2369.00,0.0034
2368.00,0.0034
2367.00,0.0034
2366.00,0.0034
2365.00,0.0035
2364.00,0.0035
2363.00,0.0035
2362.00,0.0034
2361.00,0.0034
2360.00,0.0034
2359.00,0.0034
2358.00,0.0034
2357.00,0.0034
2356.00,0.0035
2355.00,0.0035
2354.00,0.0035
2353.00,0.0035
2352.00,0.0035
2351.00,0.0035
2350.00,0.0035
2349.00,0.0035
2348.00,0.0036
2347.00,0.0037
2346.00,0.0036
2345.00,0.0036
2344.00,0.0036
2343.00,0.0036
2342.00,0.0036
2341.00,0.0037
2340.00,0.0037
2339.00,0.0037
2338.00,0.0038
2337.00,0.0038
2336.00,0.0038
2335.00,0.0038
2334.00,0.0037
2333.00,0.0037
2332.00,0.0036
2331.00,0.0036
2330.00,0.0036
2329.00,0.0038
2328.00,0.0042
2327.00,0.0045
2326.00,0.0048
2325.00,0.0048
2324.00,0.0047
2323.00,0.0045
2322.00,0.0044
2321.00,0.0042
2320.00,0.0042
2319.00,0.0042
2318.00,0.0041
2317.00,0.0041
2316.00,0.0041
2315.00,0.0041
2314.00,0.0040
2313.00,0.0040
2312.00,0.0040
2311.00,0.0040
2310.00,0.0040
2309.00,0.0040
2308.00,0.0040
2307.00,0.0041
2306.00,0.0041
2305.00,0.0041
2304.00,0.0042
2303.00,0.0042
2302.00,0.0043
2301.00,0.0043
2300.00,0.0043
2299.00,0.0043
2298.00,0.0044
2297.00,0.0044
2296.00,0.0045
2295.00,0.0045
2294.00,0.0046
2293.00,0.0046
2292.00,0.0047
2291.00,0.0048
2290.00,0.0048
2289.00,0.0049
2288.00,0.0049
2287.00,0.0049
2286.00,0.0049
2285.00,0.0049
2284.00,0.0048
2283.00,0.0048
2282.00,0.0047
2281.00,0.0046
2280.00,0.0046
2279.00,0.0047
2278.00,0.0047
2277.00,0.0047
2276.00,0.0046
2275.00,0.0045
2274.00,0.0044
2273.00,0.0044
2272.00,0.0044
2271.00,0.0045
2270.00,0.0045
2269.00,0.0044
2268.00,0.0044
2267.00,0.0043
2266.00,0.0042
2265.00,0.0042
2264.00,0.0043
2263.00,0.0044
2262.00,0.0044
2261.00,0.0044
2260.00,0.0043
2259.00,0.0042
2258.00,0.0040
2257.00,0.0038
2256.00,0.0037
2255.00,0.0037
2254.00,0.0038
2253.00,0.0039
2252.00,0.0040
2251.00,0.0041
2250.00,0.0042
2249.00,0.0043
2248.00,0.0043
2247.00,0.0043
2246.00,0.0043
2245.00,0.0042
2244.00,0.0042
2243.00,0.0042
2242.00,0.0042
2241.00,0.0043
2240.00,0.0044
2239.00,0.0044
2238.00,0.0043
2237.00,0.0041
2236.00,0.0041
2235.00,0.0041
2234.00,0.0041
2233.00,0.0043
2232.00,0.0044
2231.00,0.0044
2230.00,0.0043
2229.00,0.0042
2228.00,0.0041
2227.00,0.0041
2226.00,0.0040
2225.00,0.0040
2224.00,0.0040
2223.00,0.0041
2222.00,0.0042
2221.00,0.0042
2220.00,0.0043
2219.00,0.0042
2218.00,0.0042
2217.00,0.0041
2216.00,0.0041
2215.00,0.0042
2214.00,0.0042
2213.00,0.0042
2212.00,0.0043
2211.00,0.0043
2210.00,0.0042
2209.00,0.0042
2208.00,0.0043
2207.00,0.0043
2206.00,0.0043
2205.00,0.0043
2204.00,0.0043
2203.00,0.0043
2202.00,0.0043
2201.00,0.0043
2200.00,0.0043
2199.00,0.0043
2198.00,0.0043
2197.00,0.0044
2196.00,0.0044
2195.00,0.0044
2194.00,0.0044
2193.00,0.0044
2192.00,0.0045
2191.00,0.0046
2190.00,0.0047
2189.00,0.0048
2188.00,0.0048
2187.00,0.0048
2186.00,0.0047
2185.00,0.0046
2184.00,0.0044
2183.00,0.0041
2182.00,0.0040
2181.00,0.0041
2180.00,0.0045
2179.00,0.0048
2178.00,0.0048
2177.00,0.0046
2176.00,0.0043
2175.00,0.0042
2174.00,0.0042
2173.00,0.0044
2172.00,0.0048
2171.00,0.0050
2170.00,0.0052
2169.00,0.0054
2168.00,0.0056
2167.00,0.0057
2166.00,0.0058
2165.00,0.0058
2164.00,0.0057
2163.00,0.0055
2162.00,0.0050
2161.00,0.0040
2160.00,0.0029
2159.00,0.0020
2158.00,0.0015
2157.00,0.0015
2156.00,0.0017
2155.00,0.0019
2154.00,0.0020
2153.00,0.0021
2152.00,0.0023
2151.00,0.0025
2150.00,0.0027
2149.00,0.0028
2148.00,0.0029
2147.00,0.0030
2146.00,0.0030
2145.00,0.0031
2144.00,0.0031
2143.00,0.0030
2142.00,0.0029
2141.00,0.0027
2140.00,0.0026
2139.00,0.0024
2138.00,0.0023
2137.00,0.0022
2136.00,0.0021
2135.00,0.0021
2134.00,0.0021
2133.00,0.0022
2132.00,0.0022
2131.00,0.0023
2130.00,0.0024
2129.00,0.0025
2128.00,0.0028
2127.00,0.0029
2126.00,0.0030
2125.00,0.0031
2124.00,0.0032
2123.00,0.0032
2122.00,0.0032
2121.00,0.0032
2120.00,0.0033
2119.00,0.0033
2118.00,0.0034
2117.00,0.0035
2116.00,0.0036
2115.00,0.0037
2114.00,0.0038
2113.00,0.0038
2112.00,0.0038
2111.00,0.0038
2110.00,0.0038
2109.00,0.0038
2108.00,0.0038
2107.00,0.0038
2106.00,0.0038
2105.00,0.0038
2104.00,0.0038
2103.00,0.0037
2102.00,0.0037
2101.00,0.0036
2100.00,0.0036
2099.00,0.0036
2098.00,0.0036
2097.00,0.0034
2096.00,0.0033
2095.00,0.0032
2094.00,0.0032
2093.00,0.0032
2092.00,0.0033
2091.00,0.0035
2090.00,0.0036
2089.00,0.0037
2088.00,0.0038
2087.00,0.0039
2086.00,0.0039
2085.00,0.0039
2084.00,0.0039
2083.00,0.0040
2082.00,0.0041
2081.00,0.0041
2080.00,0.0041
2079.00,0.0040
2078.00,0.0039
2077.00,0.0037
2076.00,0.0036
2075.00,0.0036
2074.00,0.0037
2073.00,0.0038
2072.00,0.0039
2071.00,0.0040
2070.00,0.0041
2069.00,0.0041
2068.00,0.0041
2067.00,0.0039
2066.00,0.0037
2065.00,0.0036
2064.00,0.0035
2063.00,0.0034
2062.00,0.0034
2061.00,0.0034
2060.00,0.0035
2059.00,0.0035
2058.00,0.0036
2057.00,0.0037
2056.00,0.0038
2055.00,0.0039
2054.00,0.0040
2053.00,0.0043
2052.00,0.0046
2051.00,0.0048
2050.00,0.0046
2049.00,0.0044
2048.00,0.0042
2047.00,0.0040
2046.00,0.0039
2045.00,0.0038
2044.00,0.0037
2043.00,0.0037
2042.00,0.0037
2041.00,0.0038
2040.00,0.0040
2039.00,0.0041
2038.00,0.0042
2037.00,0.0042
2036.00,0.0041
2035.00,0.0040
2034.00,0.0037
2033.00,0.0035
2032.00,0.0034
2031.00,0.0033
2030.00,0.0032
2029.00,0.0031
2028.00,0.0031
2027.00,0.0030
2026.00,0.0031
2025.00,0.0032
2024.00,0.0033
2023.00,0.0035
2022.00,0.0034
2021.00,0.0034
2020.00,0.0033
2019.00,0.0033
2018.00,0.0032
2017.00,0.0032
2016.00,0.0033
2015.00,0.0032
2014.00,0.0031
2013.00,0.0031
2012.00,0.0032
2011.00,0.0033
2010.00,0.0032
2009.00,0.0030
2008.00,0.0029
2007.00,0.0028
2006.00,0.0027
2005.00,0.0027
2004.00,0.0027
2003.00,0.0027
2002.00,0.0026
2001.00,0.0027
2000.00,0.0030
1999.00,0.0033
1998.00,0.0035
1997.00,0.0036
1996.00,0.0036
1995.00,0.0037
1994.00,0.0038
1993.00,0.0038
1992.00,0.0039
1991.00,0.0040
1990.00,0.0039
1989.00,0.0039
1988.00,0.0040
1987.00,0.0039
1986.00,0.0039
1985.00,0.0039
1984.00,0.0041
1983.00,0.0045
1982.00,0.0048
1981.00,0.0051
1980.00,0.0050
1979.00,0.0046
1978.00,0.0039
1977.00,0.0033
1976.00,0.0031
1975.00,0.0030
1974.00,0.0030
1973.00,0.0030
1972.00,0.0030
1971.00,0.0030
1970.00,0.0029
1969.00,0.0029
1968.00,0.0031
1967.00,0.0032
1966.00,0.0032
1965.00,0.0032
1964.00,0.0032
1963.00,0.0031
1962.00,0.0028
1961.00,0.0025
1960.00,0.0023
1959.00,0.0023
1958.00,0.0025
1957.00,0.0027
1956.00,0.0029
1955.00,0.0030
1954.00,0.0030
1953.00,0.0030
1952.00,0.0029
1951.00,0.0029
1950.00,0.0028
1949.00,0.0027
1948.00,0.0028
1947.00,0.0029
1946.00,0.0029
1945.00,0.0029
1944.00,0.0030
1943.00,0.0031
1942.00,0.0031
1941.00,0.0031
1940.00,0.0030
1939.00,0.0031
1938.00,0.0031
1937.00,0.0032
1936.00,0.0032
1935.00,0.0032
1934.00,0.0031
1933.00,0.0030
1932.00,0.0031
1931.00,0.0031
1930.00,0.0031
1929.00,0.0031
1928.00,0.0032
1927.00,0.0033
1926.00,0.0033
1925.00,0.0034
1924.00,0.0035
1923.00,0.0035
1922.00,0.0035
1921.00,0.0035
1920.00,0.0035
1919.00,0.0035
1918.00,0.0034
1917.00,0.0034
1916.00,0.0034
1915.00,0.0034
1914.00,0.0034
1913.00,0.0034
1912.00,0.0034
1911.00,0.0033
1910.00,0.0033
1909.00,0.0033
1908.00,0.0034
1907.00,0.0034
1906.00,0.0033
1905.00,0.0033
1904.00,0.0033
1903.00,0.0034
1902.00,0.0034
1901.00,0.0034
1900.00,0.0034
1899.00,0.0034
1898.00,0.0034
1897.00,0.0033
1896.00,0.0033
1895.00,0.0032
1894.00,0.0032
1893.00,0.0031
1892.00,0.0032
1891.00,0.0032
1890.00,0.0033
1889.00,0.0033
1888.00,0.0033
1887.00,0.0034
1886.00,0.0034
1885.00,0.0034
1884.00,0.0034
1883.00,0.0034
1882.00,0.0033
1881.00,0.0033
1880.00,0.0033
1879.00,0.0033
1878.00,0.0033
1877.00,0.0033
1876.00,0.0034
1875.00,0.0034
1874.00,0.0033
1873.00,0.0033
1872.00,0.0032
1871.00,0.0033
1870.00,0.0033
1869.00,0.0033
1868.00,0.0033
1867.00,0.0033
1866.00,0.0033
1865.00,0.0032
1864.00,0.0033
1863.00,0.0033
1862.00,0.0033
1861.00,0.0034
1860.00,0.0034
1859.00,0.0033
1858.00,0.0033
1857.00,0.0032
1856.00,0.0032
1855.00,0.0032
1854.00,0.0032
1853.00,0.0033
1852.00,0.0033
1851.00,0.0034
1850.00,0.0034
1849.00,0.0034
1848.00,0.0034
1847.00,0.0033
1846.00,0.0032
1845.00,0.0031
1844.00,0.0031
1843.00,0.0032
1842.00,0.0032
1841.00,0.0032
1840.00,0.0033
1839.00,0.0033
1838.00,0.0033
1837.00,0.0033
1836.00,0.0033
1835.00,0.0033
1834.00,0.0033
1833.00,0.0032
1832.00,0.0032
1831.00,0.0032
1830.00,0.0033
1829.00,0.0033
1828.00,0.0033
1827.00,0.0033
1826.00,0.0033
1825.00,0.0034
1824.00,0.0034
1823.00,0.0034
1822.00,0.0033
1821.00,0.0033
1820.00,0.0032
1819.00,0.0032
1818.00,0.0031
1817.00,0.0031
1816.00,0.0031
1815.00,0.0031
1814.00,0.0031
1813.00,0.0031
1812.00,0.0032
1811.00,0.0032
1810.00,0.0033
1809.00,0.0033
1808.00,0.0033
1807.00,0.0033
1806.00,0.0033
1805.00,0.0033
1804.00,0.0032
1803.00,0.0032
1802.00,0.0032
1801.00,0.0032
1800.00,0.0033
1799.00,0.0033
1798.00,0.0033
1797.00,0.0034
1796.00,0.0034
1795.00,0.0034
1794.00,0.0033
1793.00,0.0033
1792.00,0.0033
1791.00,0.0034
1790.00,0.0033
1789.00,0.0033
1788.00,0.0034
1787.00,0.0034
1786.00,0.0035
1785.00,0.0035
1784.00,0.0035
1783.00,0.0035
1782.00,0.0035
1781.00,0.0035
1780.00,0.0036
1779.00,0.0036
1778.00,0.0036
1777.00,0.0035
1776.00,0.0035
1775.00,0.0035
1774.00,0.0034
1773.00,0.0034
1772.00,0.0035
1771.00,0.0036
1770.00,0.0036
1769.00,0.0036
1768.00,0.0037
1767.00,0.0038
1766.00,0.0038
1765.00,0.0037
1764.00,0.0037
1763.00,0.0038
1762.00,0.0038
1761.00,0.0038
1760.00,0.0038
1759.00,0.0039
1758.00,0.0039
1757.00,0.0040
1756.00,0.0041
1755.00,0.0041
1754.00,0.0042
1753.00,0.0042
1752.00,0.0043
1751.00,0.0044
1750.00,0.0044
1749.00,0.0045
1748.00,0.0046
1747.00,0.0047
1746.00,0.0048
1745.00,0.0048
1744.00,0.0049
1743.00,0.0049
1742.00,0.0049
1741.00,0.0048
1740.00,0.0049
1739.00,0.0050
1738.00,0.0050
1737.00,0.0049
1736.00,0.0049
1735.00,0.0049
1734.00,0.0050
1733.00,0.0051
1732.00,0.0053
1731.00,0.0056
1730.00,0.0058
1729.00,0.0059
1728.00,0.0061
1727.00,0.0062
1726.00,0.0064
1725.00,0.0066
1724.00,0.0068
1723.00,0.0070
1722.00,0.0072
1721.00,0.0073
1720.00,0.0074
1719.00,0.0077
1718.00,0.0080
1717.00,0.0083
1716.00,0.0088
1715.00,0.0093
1714.00,0.0098
1713.00,0.0104
1712.00,0.0110
1711.00,0.0118
1710.00,0.0125
1709.00,0.0133
1708.00,0.0143
1707.00,0.0154
1706.00,0.0167
1705.00,0.0182
1704.00,0.0197
1703.00,0.0212
1702.00,0.0227
1701.00,0.0249
1700.00,0.0278
1699.00,0.0306
1698.00,0.0333
1697.00,0.0363
1696.00,0.0400
1695.00,0.0438
1694.00,0.0474
1693.00,0.0508
1692.00,0.0544
1691.00,0.0582
1690.00,0.0621
1689.00,0.0658
1688.00,0.0693
1687.00,0.0727
1686.00,0.0759
1685.00,0.0791
1684.00,0.0822
1683.00,0.0850
1682.00,0.0875
1681.00,0.0901
1680.00,0.0927
1679.00,0.0950
1678.00,0.0970
1677.00,0.0986
1676.00,0.0998
1675.00,0.1004
1674.00,0.1009
1673.00,0.1017
1672.00,0.1026
1671.00,0.1033
1670.00,0.1032
1669.00,0.1028
1668.00,0.1025
1667.00,0.1028
1666.00,0.1034
1665.00,0.1041
1664.00,0.1046
1663.00,0.1046
1662.00,0.1044
1661.00,0.1043
1660.00,0.1046
1659.00,0.1050
1658.00,0.1053
1657.00,0.1058
1656.00,0.1063
1655.00,0.1063
1654.00,0.1046
1653.00,0.1010
1652.00,0.0977
1651.00,0.0963
1650.00,0.0960
1649.00,0.0956
1648.00,0.0939
1647.00,0.0906
1646.00,0.0866
1645.00,0.0829
1644.00,0.0801
1643.00,0.0777
1642.00,0.0751
1641.00,0.0724
1640.00,0.0695
1639.00,0.0669
1638.00,0.0642
1637.00,0.0613
1636.00,0.0577
1635.00,0.0541
1634.00,0.0512
1633.00,0.0492
1632.00,0.0477
1631.00,0.0463
1630.00,0.0448
1629.00,0.0434
1628.00,0.0423
1627.00,0.0415
1626.00,0.0410
1625.00,0.0410
1624.00,0.0413
1623.00,0.0418
1622.00,0.0425
1621.00,0.0431
1620.00,0.0436
1619.00,0.0439
1618.00,0.0437
1617.00,0.0429
1616.00,0.0418
1615.00,0.0407
1614.00,0.0398
1613.00,0.0391
1612.00,0.0384
1611.00,0.0377
1610.00,0.0368
1609.00,0.0359
1608.00,0.0348
1607.00,0.0334
1606.00,0.0319
1605.00,0.0302
1604.00,0.0286
1603.00,0.0270
1602.00,0.0254
1601.00,0.0241
1600.00,0.0229
1599.00,0.0219
1598.00,0.0212
1597.00,0.0207
1596.00,0.0205
1595.00,0.0205
1594.00,0.0207
1593.00,0.0212
1592.00,0.0221
1591.00,0.0232
1590.00,0.0245
1589.00,0.0260
1588.00,0.0273
1587.00,0.0284
1586.00,0.0291
1585.00,0.0293
1584.00,0.0290
1583.00,0.0283
1582.00,0.0273
1581.00,0.0261
1580.00,0.0249
1579.00,0.0237
1578.00,0.0226
1577.00,0.0215
1576.00,0.0204
1575.00,0.0195
1574.00,0.0188
1573.00,0.0184
1572.00,0.0180
1571.00,0.0175
1570.00,0.0171
1569.00,0.0166
1568.00,0.0162
1567.00,0.0158
1566.00,0.0155
1565.00,0.0152
1564.00,0.0149
1563.00,0.0145
1562.00,0.0141
1561.00,0.0136
1560.00,0.0131
1559.00,0.0128
1558.00,0.0125
1557.00,0.0123
1556.00,0.0123
1555.00,0.0123
1554.00,0.0123
1553.00,0.0122
1552.00,0.0121
1551.00,0.0121
1550.00,0.0120
1549.00,0.0119
1548.00,0.0117
1547.00,0.0116
1546.00,0.0115
1545.00,0.0114
1544.00,0.0113
1543.00,0.0111
1542.00,0.0108
1541.00,0.0106
1540.00,0.0106
1539.00,0.0106
1538.00,0.0106
1537.00,0.0107
1536.00,0.0107
1535.00,0.0107
1534.00,0.0108
1533.00,0.0108
1532.00,0.0108
1531.00,0.0108
1530.00,0.0109
1529.00,0.0109
1528.00,0.0110
1527.00,0.0111
1526.00,0.0112
1525.00,0.0112
1524.00,0.0113
1523.00,0.0114
1522.00,0.0116
1521.00,0.0118
1520.00,0.0120
1519.00,0.0122
1518.00,0.0125
1517.00,0.0128
1516.00,0.0131
1515.00,0.0132
1514.00,0.0133
1513.00,0.0135
1512.00,0.0137
1511.00,0.0138
1510.00,0.0140
1509.00,0.0141
1508.00,0.0143
1507.00,0.0147
1506.00,0.0151
1505.00,0.0156
1504.00,0.0165
1503.00,0.0175
1502.00,0.0187
1501.00,0.0200
1500.00,0.0214
1499.00,0.0229
1498.00,0.0244
1497.00,0.0259
1496.00,0.0270
1495.00,0.0278
1494.00,0.0282
1493.00,0.0284
1492.00,0.0282
1491.00,0.0276
1490.00,0.0266
1489.00,0.0253
1488.00,0.0239
1487.00,0.0225
1486.00,0.0212
1485.00,0.0201
1484.00,0.0190
1483.00,0.0181
1482.00,0.0174
1481.00,0.0168
1480.00,0.0164
1479.00,0.0161
1478.00,0.0160
1477.00,0.0162
1476.00,0.0165
1475.00,0.0170
1474.00,0.0178
1473.00,0.0190
1472.00,0.0206
1471.00,0.0225
1470.00,0.0246
1469.00,0.0269
1468.00,0.0294
1467.00,0.0320
1466.00,0.0349
1465.00,0.0379
1464.00,0.0408
1463.00,0.0433
1462.00,0.0453
1461.00,0.0468
1460.00,0.0478
1459.00,0.0480
1458.00,0.0470
1457.00,0.0450
1456.00,0.0424
1455.00,0.0404
1454.00,0.0389
1453.00,0.0378
1452.00,0.0368
1451.00,0.0361
1450.00,0.0358
1449.00,0.0361
1448.00,0.0368
1447.00,0.0379
1446.00,0.0393
1445.00,0.0409
1444.00,0.0426
1443.00,0.0445
1442.00,0.0464
1441.00,0.0483
1440.00,0.0502
1439.00,0.0520
1438.00,0.0537
1437.00,0.0555
1436.00,0.0572
1435.00,0.0588
1434.00,0.0603
1433.00,0.0618
1432.00,0.0631
1431.00,0.0641
1430.00,0.0650
1429.00,0.0660
1428.00,0.0673
1427.00,0.0688
1426.00,0.0707
1425.00,0.0728
1424.00,0.0748
1423.00,0.0765
1422.00,0.0778
1421.00,0.0782
1420.00,0.0774
1419.00,0.0751
1418.00,0.0718
1417.00,0.0683
1416.00,0.0648
1415.00,0.0612
1414.00,0.0575
1413.00,0.0541
1412.00,0.0509
1411.00,0.0481
1410.00,0.0459
1409.00,0.0443
1408.00,0.0431
1407.00,0.0422
1406.00,0.0416
1405.00,0.0412
1404.00,0.0409
1403.00,0.0406
1402.00,0.0403
1401.00,0.0398
1400.00,0.0388
1399.00,0.0375
1398.00,0.0359
1397.00,0.0343
1396.00,0.0326
1395.00,0.0308
1394.00,0.0292
1393.00,0.0279
1392.00,0.0269
1391.00,0.0262
1390.00,0.0257
1389.00,0.0254
1388.00,0.0253
1387.00,0.0255
1386.00,0.0258
1385.00,0.0264
1384.00,0.0271
1383.00,0.0280
1382.00,0.0289
1381.00,0.0298
1380.00,0.0306
1379.00,0.0312
1378.00,0.0317
1377.00,0.0321
1376.00,0.0322
1375.00,0.0323
1374.00,0.0322
1373.00,0.0320
1372.00,0.0317
1371.00,0.0315
1370.00,0.0312
1369.00,0.0308
1368.00,0.0304
1367.00,0.0300
1366.00,0.0298
1365.00,0.0296
1364.00,0.0296
1363.00,0.0297
1362.00,0.0296
1361.00,0.0295
1360.00,0.0291
1359.00,0.0284
1358.00,0.0274
1357.00,0.0263
1356.00,0.0250
1355.00,0.0238
1354.00,0.0228
1353.00,0.0219
1352.00,0.0212
1351.00,0.0207
1350.00,0.0203
1349.00,0.0200
1348.00,0.0198
1347.00,0.0196
1346.00,0.0194
1345.00,0.0193
1344.00,0.0192
1343.00,0.0191
1342.00,0.0191
1341.00,0.0191
1340.00,0.0192
1339.00,0.0193
1338.00,0.0194
1337.00,0.0196
1336.00,0.0199
1335.00,0.0201
1334.00,0.0205
1333.00,0.0209
1332.00,0.0213
1331.00,0.0217
1330.00,0.0222
1329.00,0.0227
1328.00,0.0233
1327.00,0.0240
1326.00,0.0248
1325.00,0.0257
1324.00,0.0265
1323.00,0.0275
1322.00,0.0284
1321.00,0.0292
1320.00,0.0300
1319.00,0.0306
1318.00,0.0310
1317.00,0.0312
1316.00,0.0312
1315.00,0.0310
1314.00,0.0306
1313.00,0.0302
1312.00,0.0297
1311.00,0.0292
1310.00,0.0289
1309.00,0.0286
1308.00,0.0285
1307.00,0.0285
1306.00,0.0287
1305.00,0.0291
1304.00,0.0297
1303.00,0.0306
1302.00,0.0317
1301.00,0.0331
1300.00,0.0349
1299.00,0.0371
1298.00,0.0398
1297.00,0.0430
1296.00,0.0467
1295.00,0.0508
1294.00,0.0552
1293.00,0.0597
1292.00,0.0643
1291.00,0.0687
1290.00,0.0729
1289.00,0.0767
1288.00,0.0799
1287.00,0.0825
1286.00,0.0842
1285.00,0.0851
1284.00,0.0852
1283.00,0.0844
1282.00,0.0831
1281.00,0.0814
1280.00,0.0796
1279.00,0.0779
1278.00,0.0767
1277.00,0.0759
1276.00,0.0756
1275.00,0.0757
1274.00,0.0761
1273.00,0.0766
1272.00,0.0769
1271.00,0.0770
1270.00,0.0765
1269.00,0.0756
1268.00,0.0741
1267.00,0.0722
1266.00,0.0699
1265.00,0.0673
1264.00,0.0645
1263.00,0.0616
1262.00,0.0587
1261.00,0.0559
1260.00,0.0531
1259.00,0.0505
1258.00,0.0481
1257.00,0.0459
1256.00,0.0439
1255.00,0.0420
1254.00,0.0404
1253.00,0.0389
1252.00,0.0377
1251.00,0.0368
1250.00,0.0360
1249.00,0.0355
1248.00,0.0353
1247.00,0.0353
1246.00,0.0355
1245.00,0.0360
1244.00,0.0365
1243.00,0.0371
1242.00,0.0378
1241.00,0.0384
1240.00,0.0390
1239.00,0.0395
1238.00,0.0399
1237.00,0.0403
1236.00,0.0407
1235.00,0.0411
1234.00,0.0415
1233.00,0.0418
1232.00,0.0420
1231.00,0.0421
1230.00,0.0422
1229.00,0.0422
1228.00,0.0420
1227.00,0.0419
1226.00,0.0417
1225.00,0.0415
1224.00,0.0414
1223.00,0.0413
1222.00,0.0412
1221.00,0.0411
1220.00,0.0409
1219.00,0.0407
1218.00,0.0403
1217.00,0.0398
1216.00,0.0391
1215.00,0.0382
1214.00,0.0372
1213.00,0.0361
1212.00,0.0349
1211.00,0.0337
1210.00,0.0326
1209.00,0.0315
1208.00,0.0306
1207.00,0.0299
1206.00,0.0293
1205.00,0.0290
1204.00,0.0288
1203.00,0.0288
1202.00,0.0290
1201.00,0.0294
1200.00,0.0299
1199.00,0.0305
1198.00,0.0312
1197.00,0.0320
1196.00,0.0326
1195.00,0.0331
1194.00,0.0334
1193.00,0.0333
1192.00,0.0328
1191.00,0.0321
1190.00,0.0311
1189.00,0.0301
1188.00,0.0290
1187.00,0.0279
1186.00,0.0271
1185.00,0.0263
1184.00,0.0256
1183.00,0.0251
1182.00,0.0247
1181.00,0.0244
1180.00,0.0242
1179.00,0.0241
1178.00,0.0241
1177.00,0.0242
1176.00,0.0244
1175.00,0.0246
1174.00,0.0248
1173.00,0.0251
1172.00,0.0255
1171.00,0.0258
1170.00,0.0261
1169.00,0.0263
1168.00,0.0264
1167.00,0.0264
1166.00,0.0265
1165.00,0.0266
1164.00,0.0268
1163.00,0.0271
1162.00,0.0276
1161.00,0.0282
1160.00,0.0288
1159.00,0.0295
1158.00,0.0301
1157.00,0.0304
1156.00,0.0304
1155.00,0.0300
1154.00,0.0294
1153.00,0.0285
1152.00,0.0274
1151.00,0.0261
1150.00,0.0249
1149.00,0.0237
1148.00,0.0225
1147.00,0.0214
1146.00,0.0204
1145.00,0.0196
1144.00,0.0189
1143.00,0.0183
1142.00,0.0179
1141.00,0.0176
1140.00,0.0174
1139.00,0.0173
1138.00,0.0175
1137.00,0.0180
1136.00,0.0188
1135.00,0.0199
1134.00,0.0214
1133.00,0.0230
1132.00,0.0246
1131.00,0.0260
1130.00,0.0269
1129.00,0.0272
1128.00,0.0267
1127.00,0.0257
1126.00,0.0244
1125.00,0.0230
1124.00,0.0216
1123.00,0.0205
1122.00,0.0197
1121.00,0.0190
1120.00,0.0186
1119.00,0.0182
1118.00,0.0181
1117.00,0.0180
1116.00,0.0180
1115.00,0.0180
1114.00,0.0181
1113.00,0.0181
1112.00,0.0182
1111.00,0.0183
1110.00,0.0185
1109.00,0.0187
1108.00,0.0190
1107.00,0.0193
1106.00,0.0197
1105.00,0.0201
1104.00,0.0206
1103.00,0.0211
1102.00,0.0216
1101.00,0.0220
1100.00,0.0222
1099.00,0.0221
1098.00,0.0218
1097.00,0.0214
1096.00,0.0208
1095.00,0.0203
1094.00,0.0198
1093.00,0.0193
1092.00,0.0188
1091.00,0.0184
1090.00,0.0181
1089.00,0.0179
1088.00,0.0178
1087.00,0.0177
1086.00,0.0176
1085.00,0.0176
1084.00,0.0176
1083.00,0.0176
1082.00,0.0178
1081.00,0.0181
1080.00,0.0184
1079.00,0.0188
1078.00,0.0192
1077.00,0.0197
1076.00,0.0202
1075.00,0.0206
1074.00,0.0211
1073.00,0.0216
1072.00,0.0221
1071.00,0.0228
1070.00,0.0236
1069.00,0.0247
1068.00,0.0259
1067.00,0.0273
1066.00,0.0290
1065.00,0.0308
1064.00,0.0327
1063.00,0.0348
1062.00,0.0370
1061.00,0.0390
1060.00,0.0408
1059.00,0.0421
1058.00,0.0428
1057.00,0.0427
1056.00,0.0419
1055.00,0.0405
1054.00,0.0386
1053.00,0.0366
1052.00,0.0346
1051.00,0.0328
1050.00,0.0314
1049.00,0.0304
1048.00,0.0298
1047.00,0.0296
1046.00,0.0298
1045.00,0.0303
1044.00,0.0310
1043.00,0.0318
1042.00,0.0326
1041.00,0.0335
1040.00,0.0342
1039.00,0.0348
1038.00,0.0353
1037.00,0.0358
1036.00,0.0362
1035.00,0.0364
1034.00,0.0366
1033.00,0.0367
1032.00,0.0367
1031.00,0.0365
1030.00,0.0361
1029.00,0.0354
1028.00,0.0344
1027.00,0.0332
1026.00,0.0321
1025.00,0.0310
1024.00,0.0300
1023.00,0.0292
1022.00,0.0287
1021.00,0.0283
1020.00,0.0280
1019.00,0.0277
1018.00,0.0274
1017.00,0.0270
1016.00,0.0264
1015.00,0.0257
1014.00,0.0249
1013.00,0.0240
1012.00,0.0231
1011.00,0.0223
1010.00,0.0218
1009.00,0.0215
1008.00,0.0214
1007.00,0.0216
1006.00,0.0220
1005.00,0.0225
1004.00,0.0229
1003.00,0.0233
1002.00,0.0236
1001.00,0.0235
1000.00,0.0232
999.00,0.0227
998.00,0.0222
997.00,0.0217
996.00,0.0211
995.00,0.0205
994.00,0.0201
993.00,0.0196
992.00,0.0191
991.00,0.0187
990.00,0.0182
989.00,0.0177
988.00,0.0172
987.00,0.0167
986.00,0.0164
985.00,0.0160
984.00,0.0157
983.00,0.0154
982.00,0.0153
981.00,0.0152
980.00,0.0151
979.00,0.0151
978.00,0.0151
977.00,0.0150
976.00,0.0149
975.00,0.0148
974.00,0.0146
973.00,0.0144
972.00,0.0142
971.00,0.0140
970.00,0.0138
969.00,0.0136
968.00,0.0134
967.00,0.0132
966.00,0.0130
965.00,0.0129
964.00,0.0127
963.00,0.0126
962.00,0.0125
961.00,0.0123
960.00,0.0121
959.00,0.0118
958.00,0.0117
957.00,0.0115
956.00,0.0112
955.00,0.0110
954.00,0.0109
953.00,0.0108
952.00,0.0107
951.00,0.0107
950.00,0.0107
949.00,0.0108
948.00,0.0109
947.00,0.0111
946.00,0.0113
945.00,0.0115
944.00,0.0117
943.00,0.0120
942.00,0.0123
941.00,0.0128
940.00,0.0133
939.00,0.0139
938.00,0.0146
937.00,0.0154
936.00,0.0162
935.00,0.0169
934.00,0.0175
933.00,0.0178
932.00,0.0179
931.00,0.0178
930.00,0.0176
929.00,0.0173
928.00,0.0171
927.00,0.0169
926.00,0.0168
925.00,0.0168
924.00,0.0166
923.00,0.0164
922.00,0.0162
921.00,0.0160
920.00,0.0157
919.00,0.0154
918.00,0.0152
917.00,0.0150
916.00,0.0147
915.00,0.0144
914.00,0.0142
913.00,0.0140
912.00,0.0138
911.00,0.0138
910.00,0.0138
909.00,0.0139
908.00,0.0140
907.00,0.0142
906.00,0.0145
905.00,0.0149
904.00,0.0153
903.00,0.0158
902.00,0.0164
901.00,0.0170
900.00,0.0176
899.00,0.0181
898.00,0.0184
897.00,0.0187
896.00,0.0187
895.00,0.0186
894.00,0.0184
893.00,0.0181
892.00,0.0177
891.00,0.0172
890.00,0.0169
889.00,0.0166
888.00,0.0163
887.00,0.0161
886.00,0.0160
885.00,0.0160
884.00,0.0160
883.00,0.0161
882.00,0.0164
881.00,0.0167
880.00,0.0171
879.00,0.0175
878.00,0.0181
877.00,0.0187
876.00,0.0193
875.00,0.0198
874.00,0.0204
873.00,0.0210
872.00,0.0214
871.00,0.0217
870.00,0.0220
869.00,0.0221
868.00,0.0221
867.00,0.0221
866.00,0.0221
865.00,0.0222
864.00,0.0223
863.00,0.0224
862.00,0.0225
861.00,0.0227
860.00,0.0229
859.00,0.0232
858.00,0.0235
857.00,0.0240
856.00,0.0244
855.00,0.0249
854.00,0.0255
853.00,0.0262
852.00,0.0268
851.00,0.0274
850.00,0.0280
849.00,0.0285
848.00,0.0290
847.00,0.0293
846.00,0.0297
845.00,0.0299
844.00,0.0301
843.00,0.0301
842.00,0.0301
841.00,0.0301
840.00,0.0299
839.00,0.0298
838.00,0.0297
837.00,0.0295
836.00,0.0293
835.00,0.0292
834.00,0.0291
833.00,0.0291
832.00,0.0290
831.00,0.0289
830.00,0.0289
829.00,0.0287
828.00,0.0284
827.00,0.0281
826.00,0.0280
825.00,0.0278
824.00,0.0276
823.00,0.0275
822.00,0.0274
821.00,0.0273
820.00,0.0272
819.00,0.0272
818.00,0.0272
817.00,0.0272
816.00,0.0271
815.00,0.0269
814.00,0.0267
813.00,0.0264
812.00,0.0258
811.00,0.0250
810.00,0.0242
809.00,0.0232
808.00,0.0221
807.00,0.0209
806.00,0.0199
805.00,0.0189
804.00,0.0182
803.00,0.0175
802.00,0.0171
801.00,0.0168
800.00,0.0165
799.00,0.0163
798.00,0.0162
797.00,0.0162
796.00,0.0162
795.00,0.0162
794.00,0.0163
793.00,0.0164
792.00,0.0164
791.00,0.0163
790.00,0.0164
789.00,0.0164
788.00,0.0164
787.00,0.0164
786.00,0.0164
785.00,0.0164
784.00,0.0164
783.00,0.0165
782.00,0.0167
781.00,0.0170
780.00,0.0172
779.00,0.0175
778.00,0.0177
777.00,0.0179
776.00,0.0178
775.00,0.0176
774.00,0.0174
773.00,0.0173
772.00,0.0171
771.00,0.0171
770.00,0.0173
769.00,0.0175
768.00,0.0177
767.00,0.0179
766.00,0.0182
765.00,0.0185
764.00,0.0187
763.00,0.0190
762.00,0.0194
761.00,0.0197
760.00,0.0201
759.00,0.0205
758.00,0.0210
757.00,0.0214
756.00,0.0218
755.00,0.0221
754.00,0.0225
753.00,0.0229
752.00,0.0233
751.00,0.0238
750.00,0.0242
749.00,0.0247
748.00,0.0250
747.00,0.0254
746.00,0.0258
745.00,0.0263
744.00,0.0268
743.00,0.0274
742.00,0.0281
741.00,0.0289
740.00,0.0298
739.00,0.0306
738.00,0.0314
737.00,0.0319
736.00,0.0321
735.00,0.0320
734.00,0.0317
733.00,0.0311
732.00,0.0305
731.00,0.0297
730.00,0.0290
729.00,0.0282
728.00,0.0274
727.00,0.0266
726.00,0.0260
725.00,0.0253
724.00,0.0247
723.00,0.0241
722.00,0.0236
721.00,0.0231
720.00,0.0227
719.00,0.0223
718.00,0.0221
717.00,0.0220
716.00,0.0218
715.00,0.0217
714.00,0.0217
713.00,0.0216
712.00,0.0214
711.00,0.0213
710.00,0.0211
709.00,0.0210
708.00,0.0208
707.00,0.0207
706.00,0.0207
705.00,0.0207
704.00,0.0207
703.00,0.0207
702.00,0.0209
701.00,0.0210
700.00,0.0211
699.00,0.0213
698.00,0.0217
697.00,0.0221
696.00,0.0226
695.00,0.0232
694.00,0.0238
693.00,0.0245
692.00,0.0250
691.00,0.0253
690.00,0.0256
689.00,0.0257
688.00,0.0258
687.00,0.0258
686.00,0.0259
685.00,0.0260
684.00,0.0259
683.00,0.0258
682.00,0.0258
681.00,0.0259
680.00,0.0260
679.00,0.0262
678.00,0.0264
677.00,0.0268
676.00,0.0270
675.00,0.0273
674.00,0.0277
673.00,0.0281
672.00,0.0285
671.00,0.0289
670.00,0.0293
669.00,0.0299
668.00,0.0305
667.00,0.0313
666.00,0.0320
665.00,0.0327
664.00,0.0334
663.00,0.0341
662.00,0.0349
661.00,0.0358
660.00,0.0366
659.00,0.0375
658.00,0.0384
657.00,0.0392
656.00,0.0399
655.00,0.0406
654.00,0.0414
653.00,0.0422
652.00,0.0429
651.00,0.0434
650.00,0.0439
649.00,0.0442
648.00,0.0443
647.00,0.0443
646.00,0.0441
645.00,0.0436
644.00,0.0430
643.00,0.0422
642.00,0.0415
641.00,0.0408
640.00,0.0399
639.00,0.0391
638.00,0.0384
637.00,0.0376
636.00,0.0368
635.00,0.0361
634.00,0.0354
633.00,0.0348
632.00,0.0342
631.00,0.0338
630.00,0.0335
629.00,0.0333
628.00,0.0330
627.00,0.0328
626.00,0.0327
625.00,0.0325
624.00,0.0322
623.00,0.0319
622.00,0.0317
621.00,0.0314
620.00,0.0311
619.00,0.0308
618.00,0.0306
617.00,0.0305
616.00,0.0304
615.00,0.0303
614.00,0.0303
613.00,0.0303
612.00,0.0303
611.00,0.0303
610.00,0.0305
609.00,0.0306
608.00,0.0306
607.00,0.0307
606.00,0.0309
605.00,0.0312
604.00,0.0313
603.00,0.0314
602.00,0.0317
601.00,0.0319
600.00,0.0321
599.00,0.0322
598.00,0.0323
597.00,0.0323
596.00,0.0322
595.00,0.0321
594.00,0.0323
593.00,0.0324
592.00,0.0326
591.00,0.0329
590.00,0.0334
589.00,0.0341
588.00,0.0350
587.00,0.0361
586.00,0.0375
585.00,0.0389
584.00,0.0403
583.00,0.0414
582.00,0.0424
581.00,0.0432
580.00,0.0435
579.00,0.0438
578.00,0.0442
577.00,0.0445
576.00,0.0447
575.00,0.0449
574.00,0.0451
573.00,0.0451
572.00,0.0450
571.00,0.0449
570.00,0.0448
569.00,0.0446
568.00,0.0443
567.00,0.0439
566.00,0.0435
565.00,0.0430
564.00,0.0423
563.00,0.0416
562.00,0.0411
561.00,0.0405
560.00,0.0397
559.00,0.0390
558.00,0.0386
557.00,0.0383
556.00,0.0380
555.00,0.0377
554.00,0.0374
553.00,0.0370
552.00,0.0364
551.00,0.0359
550.00,0.0357
549.00,0.0355
548.00,0.0351
547.00,0.0348
546.00,0.0345
545.00,0.0342
544.00,0.0336
543.00,0.0331
542.00,0.0328
541.00,0.0324
540.00,0.0319
539.00,0.0316
538.00,0.0317
537.00,0.0320
536.00,0.0323
535.00,0.0328
534.00,0.0334
533.00,0.0340
532.00,0.0343
531.00,0.0343
530.00,0.0343
529.00,0.0341
528.00,0.0334
527.00,0.0328
526.00,0.0325
525.00,0.0322
524.00,0.0317
523.00,0.0314
522.00,0.0313
521.00,0.0311
520.00,0.0308
519.00,0.0306
518.00,0.0306
517.00,0.0305
516.00,0.0302
515.00,0.0299
514.00,0.0298
513.00,0.0298
512.00,0.0297
511.00,0.0297
510.00,0.0300
509.00,0.0304
508.00,0.0307
507.00,0.0308
506.00,0.0310
505.00,0.0310
504.00,0.0306
503.00,0.0303
502.00,0.0303
501.00,0.0303
500.00,0.0300
499.00,0.0297
498.00,0.0297
497.00,0.0298
496.00,0.0297
495.00,0.0296
494.00,0.0298
493.00,0.0300
492.00,0.0300
491.00,0.0302
490.00,0.0307
489.00,0.0311
488.00,0.0312
487.00,0.0313
486.00,0.0317
485.00,0.0320
484.00,0.0318
483.00,0.0314
482.00,0.0313
481.00,0.0312
480.00,0.0310
479.00,0.0310
478.00,0.0313
477.00,0.0316
476.00,0.0316
475.00,0.0317
474.00,0.0321
473.00,0.0324
472.00,0.0323
471.00,0.0323
470.00,0.0326
469.00,0.0327
468.00,0.0322
467.00,0.0316
466.00,0.0315
465.00,0.0316
464.00,0.0314
463.00,0.0314
462.00,0.0318
461.00,0.0319
460.00,0.0315
459.00,0.0311
458.00,0.0310
457.00,0.0308
456.00,0.0302
455.00,0.0298
454.00,0.0299
453.00,0.0302
452.00,0.0300
451.00,0.0298
450.00,0.0299
449.00,0.0299
448.00,0.0292
447.00,0.0283
446.00,0.0278
445.00,0.0277
444.00,0.0275
443.00,0.0276
442.00,0.0279
441.00,0.0280
440.00,0.0277
439.00,0.0275
438.00,0.0278
437.00,0.0279
436.00,0.0273
435.00,0.0265
434.00,0.0262
433.00,0.0262
432.00,0.0260
431.00,0.0260
430.00,0.0262
429.00,0.0261
428.00,0.0254
427.00,0.0248
426.00,0.0251
425.00,0.0253
424.00,0.0249
423.00,0.0244
422.00,0.0245
421.00,0.0247
420.00,0.0245
419.00,0.0246
418.00,0.0255
417.00,0.0263
416.00,0.0261
415.00,0.0259
414.00,0.0260
413.00,0.0258
412.00,0.0249
411.00,0.0244
410.00,0.0252
409.00,0.0259
408.00,0.0254
407.00,0.0250
406.00,0.0259
405.00,0.0268
404.00,0.0267
403.00,0.0262
402.00,0.0265
401.00,0.0267
400.00,0.0256
