Created as New Dataset,Sample 515 By YargerLab Date Thursday, February 19 2026
cm-1,A
4000.00,-0.0094
3999.00,-0.0094
3998.00,-0.0095
3997.00,-0.0095
3996.00,-0.0095
3995.00,-0.0095
3994.00,-0.0095
3993.00,-0.0096
3992.00,-0.0096
3991.00,-0.0096
3990.00,-0.0096
3989.00,-0.0096
3988.00,-0.0095
3987.00,-0.0095
3986.00,-0.0095
3985.00,-0.0095
3984.00,-0.0095
3983.00,-0.0095
3982.00,-0.0095
3981.00,-0.0095
3980.00,-0.0095
3979.00,-0.0095
3978.00,-0.0095
3977.00,-0.0096
3976.00,-0.0096
3975.00,-0.0095
3974.00,-0.0095
3973.00,-0.0095
3972.00,-0.0095
3971.00,-0.0095
3970.00,-0.0096
3969.00,-0.0095
3968.00,-0.0095
3967.00,-0.0094
3966.00,-0.0094
3965.00,-0.0094
3964.00,-0.0094
3963.00,-0.0094
3962.00,-0.0094
3961.00,-0.0094
3960.00,-0.0094
3959.00,-0.0094
3958.00,-0.0094
3957.00,-0.0094
3956.00,-0.0093
3955.00,-0.0093
3954.00,-0.0093
3953.00,-0.0093
3952.00,-0.0093
3951.00,-0.0093
3950.00,-0.0093
3949.00,-0.0093
3948.00,-0.0093
3947.00,-0.0092
3946.00,-0.0092
3945.00,-0.0092
3944.00,-0.0092
3943.00,-0.0093
3942.00,-0.0093
3941.00,-0.0093
3940.00,-0.0093
3939.00,-0.0093
3938.00,-0.0093
3937.00,-0.0093
3936.00,-0.0093
3935.00,-0.0093
3934.00,-0.0093
3933.00,-0.0092
3932.00,-0.0092
3931.00,-0.0092
3930.00,-0.0092
3929.00,-0.0092
3928.00,-0.0092
3927.00,-0.0092
3926.00,-0.0092
3925.00,-0.0092
3924.00,-0.0092
3923.00,-0.0092
3922.00,-0.0091
3921.00,-0.0091
3920.00,-0.0091
3919.00,-0.0092
3918.00,-0.0091
3917.00,-0.0091
3916.00,-0.0091
3915.00,-0.0091
3914.00,-0.0091
3913.00,-0.0091
3912.00,-0.0091
3911.00,-0.0091
3910.00,-0.0092
3909.00,-0.0092
3908.00,-0.0092
3907.00,-0.0092
3906.00,-0.0092
3905.00,-0.0092
3904.00,-0.0091
3903.00,-0.0091
3902.00,-0.0090
3901.00,-0.0090
3900.00,-0.0091
3899.00,-0.0091
3898.00,-0.0091
3897.00,-0.0091
3896.00,-0.0090
3895.00,-0.0090
3894.00,-0.0090
3893.00,-0.0091
3892.00,-0.0091
3891.00,-0.0091
3890.00,-0.0090
3889.00,-0.0090
3888.00,-0.0089
3887.00,-0.0089
3886.00,-0.0090
3885.00,-0.0090
3884.00,-0.0090
3883.00,-0.0089
3882.00,-0.0089
3881.00,-0.0090
3880.00,-0.0090
3879.00,-0.0090
3878.00,-0.0089
3877.00,-0.0089
3876.00,-0.0089
3875.00,-0.0089
3874.00,-0.0089
3873.00,-0.0089
3872.00,-0.0089
3871.00,-0.0090
3870.00,-0.0090
3869.00,-0.0090
3868.00,-0.0090
3867.00,-0.0090
3866.00,-0.0090
3865.00,-0.0090
3864.00,-0.0089
3863.00,-0.0089
3862.00,-0.0088
3861.00,-0.0088
3860.00,-0.0088
3859.00,-0.0088
3858.00,-0.0088
3857.00,-0.0088
3856.00,-0.0088
3855.00,-0.0088
3854.00,-0.0088
3853.00,-0.0088
3852.00,-0.0089
3851.00,-0.0089
3850.00,-0.0088
3849.00,-0.0088
3848.00,-0.0087
3847.00,-0.0087
3846.00,-0.0086
3845.00,-0.0086
3844.00,-0.0087
3843.00,-0.0087
3842.00,-0.0087
3841.00,-0.0087
3840.00,-0.0087
3839.00,-0.0087
3838.00,-0.0087
3837.00,-0.0087
3836.00,-0.0088
3835.00,-0.0088
3834.00,-0.0088
3833.00,-0.0088
3832.00,-0.0088
3831.00,-0.0087
3830.00,-0.0087
3829.00,-0.0086
3828.00,-0.0086
3827.00,-0.0086
3826.00,-0.0087
3825.00,-0.0087
3824.00,-0.0087
3823.00,-0.0087
3822.00,-0.0087
3821.00,-0.0087
3820.00,-0.0087
3819.00,-0.0087
3818.00,-0.0088
3817.00,-0.0088
3816.00,-0.0087
3815.00,-0.0087
3814.00,-0.0086
3813.00,-0.0085
3812.00,-0.0085
3811.00,-0.0085
3810.00,-0.0085
3809.00,-0.0085
3808.00,-0.0085
3807.00,-0.0085
3806.00,-0.0085
3805.00,-0.0085
3804.00,-0.0085
3803.00,-0.0085
3802.00,-0.0085
3801.00,-0.0085
3800.00,-0.0086
3799.00,-0.0086
3798.00,-0.0086
3797.00,-0.0086
3796.00,-0.0085
3795.00,-0.0085
3794.00,-0.0084
3793.00,-0.0084
3792.00,-0.0084
3791.00,-0.0083
3790.00,-0.0083
3789.00,-0.0083
3788.00,-0.0083
3787.00,-0.0083
3786.00,-0.0083
3785.00,-0.0083
3784.00,-0.0083
3783.00,-0.0083
3782.00,-0.0083
3781.00,-0.0084
3780.00,-0.0084
3779.00,-0.0084
3778.00,-0.0084
3777.00,-0.0084
3776.00,-0.0084
3775.00,-0.0083
3774.00,-0.0083
3773.00,-0.0083
3772.00,-0.0083
3771.00,-0.0083
3770.00,-0.0082
3769.00,-0.0082
3768.00,-0.0082
3767.00,-0.0081
3766.00,-0.0081
3765.00,-0.0081
3764.00,-0.0081
3763.00,-0.0082
3762.00,-0.0082
3761.00,-0.0082
3760.00,-0.0081
3759.00,-0.0081
3758.00,-0.0080
3757.00,-0.0080
3756.00,-0.0080
3755.00,-0.0080
3754.00,-0.0081
3753.00,-0.0081
3752.00,-0.0082
3751.00,-0.0082
3750.00,-0.0082
3749.00,-0.0082
3748.00,-0.0082
3747.00,-0.0082
3746.00,-0.0081
3745.00,-0.0081
3744.00,-0.0080
3743.00,-0.0080
3742.00,-0.0080
3741.00,-0.0079
3740.00,-0.0079
3739.00,-0.0078
3738.00,-0.0078
3737.00,-0.0078
3736.00,-0.0078
3735.00,-0.0079
3734.00,-0.0079
3733.00,-0.0079
3732.00,-0.0079
3731.00,-0.0079
3730.00,-0.0079
3729.00,-0.0079
3728.00,-0.0078
3727.00,-0.0078
3726.00,-0.0078
3725.00,-0.0079
3724.00,-0.0079
3723.00,-0.0079
3722.00,-0.0079
3721.00,-0.0079
3720.00,-0.0078
3719.00,-0.0078
3718.00,-0.0078
3717.00,-0.0078
3716.00,-0.0078
3715.00,-0.0078
3714.00,-0.0078
3713.00,-0.0078
3712.00,-0.0078
3711.00,-0.0079
3710.00,-0.0080
3709.00,-0.0080
3708.00,-0.0080
3707.00,-0.0081
3706.00,-0.0081
3705.00,-0.0081
3704.00,-0.0081
3703.00,-0.0080
3702.00,-0.0079
3701.00,-0.0079
3700.00,-0.0078
3699.00,-0.0078
3698.00,-0.0078
3697.00,-0.0077
3696.00,-0.0077
3695.00,-0.0077
3694.00,-0.0077
3693.00,-0.0077
3692.00,-0.0078
3691.00,-0.0078
3690.00,-0.0079
3689.00,-0.0079
3688.00,-0.0078
3687.00,-0.0078
3686.00,-0.0077
3685.00,-0.0076
3684.00,-0.0076
3683.00,-0.0075
3682.00,-0.0075
3681.00,-0.0075
3680.00,-0.0075
3679.00,-0.0075
3678.00,-0.0076
3677.00,-0.0076
3676.00,-0.0076
3675.00,-0.0075
3674.00,-0.0075
3673.00,-0.0075
3672.00,-0.0074
3671.00,-0.0074
3670.00,-0.0074
3669.00,-0.0074
3668.00,-0.0074
3667.00,-0.0074
3666.00,-0.0074
3665.00,-0.0074
3664.00,-0.0074
3663.00,-0.0073
3662.00,-0.0072
3661.00,-0.0071
3660.00,-0.0071
3659.00,-0.0072
3658.00,-0.0072
3657.00,-0.0072
3656.00,-0.0072
3655.00,-0.0071
3654.00,-0.0071
3653.00,-0.0070
3652.00,-0.0071
3651.00,-0.0070
3650.00,-0.0070
3649.00,-0.0069
3648.00,-0.0068
3647.00,-0.0067
3646.00,-0.0068
3645.00,-0.0068
3644.00,-0.0068
3643.00,-0.0069
3642.00,-0.0068
3641.00,-0.0068
3640.00,-0.0067
3639.00,-0.0067
3638.00,-0.0067
3637.00,-0.0067
3636.00,-0.0067
3635.00,-0.0067
3634.00,-0.0067
3633.00,-0.0066
3632.00,-0.0066
3631.00,-0.0066
3630.00,-0.0066
3629.00,-0.0065
3628.00,-0.0064
3627.00,-0.0063
3626.00,-0.0063
3625.00,-0.0062
3624.00,-0.0062
3623.00,-0.0063
3622.00,-0.0063
3621.00,-0.0063
3620.00,-0.0063
3619.00,-0.0062
3618.00,-0.0062
3617.00,-0.0062
3616.00,-0.0062
3615.00,-0.0062
3614.00,-0.0061
3613.00,-0.0061
3612.00,-0.0060
3611.00,-0.0060
3610.00,-0.0060
3609.00,-0.0060
3608.00,-0.0059
3607.00,-0.0059
3606.00,-0.0058
3605.00,-0.0057
3604.00,-0.0057
3603.00,-0.0057
3602.00,-0.0057
3601.00,-0.0057
3600.00,-0.0056
3599.00,-0.0056
3598.00,-0.0056
3597.00,-0.0056
3596.00,-0.0056
3595.00,-0.0055
3594.00,-0.0055
3593.00,-0.0054
3592.00,-0.0053
3591.00,-0.0052
3590.00,-0.0051
3589.00,-0.0051
3588.00,-0.0051
3587.00,-0.0051
3586.00,-0.0051
3585.00,-0.0050
3584.00,-0.0050
3583.00,-0.0050
3582.00,-0.0049
3581.00,-0.0049
3580.00,-0.0048
3579.00,-0.0047
3578.00,-0.0046
3577.00,-0.0046
3576.00,-0.0045
3575.00,-0.0045
3574.00,-0.0044
3573.00,-0.0044
3572.00,-0.0043
3571.00,-0.0043
3570.00,-0.0042
3569.00,-0.0042
3568.00,-0.0041
3567.00,-0.0041
3566.00,-0.0040
3565.00,-0.0040
3564.00,-0.0040
3563.00,-0.0040
3562.00,-0.0041
3561.00,-0.0040
3560.00,-0.0040
3559.00,-0.0039
3558.00,-0.0039
3557.00,-0.0038
3556.00,-0.0038
3555.00,-0.0037
3554.00,-0.0037
3553.00,-0.0036
3552.00,-0.0035
3551.00,-0.0034
3550.00,-0.0034
3549.00,-0.0034
3548.00,-0.0034
3547.00,-0.0034
3546.00,-0.0034
3545.00,-0.0033
3544.00,-0.0033
3543.00,-0.0033
3542.00,-0.0033
3541.00,-0.0033
3540.00,-0.0033
3539.00,-0.0033
3538.00,-0.0033
3537.00,-0.0033
3536.00,-0.0032
3535.00,-0.0032
3534.00,-0.0032
3533.00,-0.0031
3532.00,-0.0031
3531.00,-0.0030
3530.00,-0.0029
3529.00,-0.0028
3528.00,-0.0028
3527.00,-0.0027
3526.00,-0.0027
3525.00,-0.0026
3524.00,-0.0026
3523.00,-0.0027
3522.00,-0.0027
3521.00,-0.0027
3520.00,-0.0028
3519.00,-0.0028
3518.00,-0.0028
3517.00,-0.0028
3516.00,-0.0027
3515.00,-0.0027
3514.00,-0.0027
3513.00,-0.0027
3512.00,-0.0027
3511.00,-0.0026
3510.00,-0.0026
3509.00,-0.0025
3508.00,-0.0025
3507.00,-0.0024
3506.00,-0.0024
3505.00,-0.0024
3504.00,-0.0025
3503.00,-0.0026
3502.00,-0.0026
3501.00,-0.0025
3500.00,-0.0025
3499.00,-0.0024
3498.00,-0.0024
3497.00,-0.0024
3496.00,-0.0024
3495.00,-0.0024
3494.00,-0.0024
3493.00,-0.0023
3492.00,-0.0023
3491.00,-0.0023
3490.00,-0.0023
3489.00,-0.0024
3488.00,-0.0024
3487.00,-0.0024
3486.00,-0.0023
3485.00,-0.0023
3484.00,-0.0023
3483.00,-0.0023
3482.00,-0.0023
3481.00,-0.0023
3480.00,-0.0023
3479.00,-0.0023
3478.00,-0.0023
3477.00,-0.0023
3476.00,-0.0022
3475.00,-0.0022
3474.00,-0.0022
3473.00,-0.0022
3472.00,-0.0022
3471.00,-0.0022
3470.00,-0.0022
3469.00,-0.0022
3468.00,-0.0022
3467.00,-0.0021
3466.00,-0.0021
3465.00,-0.0020
3464.00,-0.0020
3463.00,-0.0020
3462.00,-0.0020
3461.00,-0.0021
3460.00,-0.0020
3459.00,-0.0020
3458.00,-0.0020
3457.00,-0.0019
3456.00,-0.0019
3455.00,-0.0019
3454.00,-0.0019
3453.00,-0.0020
3452.00,-0.0020
3451.00,-0.0020
3450.00,-0.0020
3449.00,-0.0019
3448.00,-0.0019
3447.00,-0.0019
3446.00,-0.0019
3445.00,-0.0019
3444.00,-0.0018
3443.00,-0.0019
3442.00,-0.0019
3441.00,-0.0019
3440.00,-0.0020
3439.00,-0.0020
3438.00,-0.0020
3437.00,-0.0020
3436.00,-0.0020
3435.00,-0.0019
3434.00,-0.0019
3433.00,-0.0019
3432.00,-0.0019
3431.00,-0.0019
3430.00,-0.0019
3429.00,-0.0020
3428.00,-0.0020
3427.00,-0.0020
3426.00,-0.0019
3425.00,-0.0019
3424.00,-0.0019
3423.00,-0.0018
3422.00,-0.0018
3421.00,-0.0018
3420.00,-0.0019
3419.00,-0.0019
3418.00,-0.0020
3417.00,-0.0020
3416.00,-0.0020
3415.00,-0.0020
3414.00,-0.0019
3413.00,-0.0020
3412.00,-0.0020
3411.00,-0.0020
3410.00,-0.0020
3409.00,-0.0020
3408.00,-0.0020
3407.00,-0.0020
3406.00,-0.0020
3405.00,-0.0020
3404.00,-0.0021
3403.00,-0.0021
3402.00,-0.0021
3401.00,-0.0021
3400.00,-0.0021
3399.00,-0.0020
3398.00,-0.0019
3397.00,-0.0019
3396.00,-0.0019
3395.00,-0.0020
3394.00,-0.0020
3393.00,-0.0021
3392.00,-0.0021
3391.00,-0.0020
3390.00,-0.0019
3389.00,-0.0018
3388.00,-0.0018
3387.00,-0.0017
3386.00,-0.0017
3385.00,-0.0017
3384.00,-0.0016
3383.00,-0.0016
3382.00,-0.0017
3381.00,-0.0017
3380.00,-0.0017
3379.00,-0.0017
3378.00,-0.0017
3377.00,-0.0016
3376.00,-0.0016
3375.00,-0.0016
3374.00,-0.0016
3373.00,-0.0016
3372.00,-0.0017
3371.00,-0.0019
3370.00,-0.0019
3369.00,-0.0020
3368.00,-0.0019
3367.00,-0.0018
3366.00,-0.0016
3365.00,-0.0015
3364.00,-0.0014
3363.00,-0.0013
3362.00,-0.0013
3361.00,-0.0013
3360.00,-0.0013
3359.00,-0.0013
3358.00,-0.0013
3357.00,-0.0012
3356.00,-0.0012
3355.00,-0.0012
3354.00,-0.0012
3353.00,-0.0013
3352.00,-0.0014
3351.00,-0.0014
3350.00,-0.0014
3349.00,-0.0012
3348.00,-0.0012
3347.00,-0.0011
3346.00,-0.0011
3345.00,-0.0011
3344.00,-0.0011
3343.00,-0.0011
3342.00,-0.0012
3341.00,-0.0013
3340.00,-0.0013
3339.00,-0.0014
3338.00,-0.0014
3337.00,-0.0013
3336.00,-0.0012
3335.00,-0.0012
3334.00,-0.0011
3333.00,-0.0010
3332.00,-0.0010
3331.00,-0.0010
3330.00,-0.0010
3329.00,-0.0011
3328.00,-0.0012
3327.00,-0.0013
3326.00,-0.0013
3325.00,-0.0013
3324.00,-0.0012
3323.00,-0.0011
3322.00,-0.0011
3321.00,-0.0010
3320.00,-0.0009
3319.00,-0.0009
3318.00,-0.0009
3317.00,-0.0009
3316.00,-0.0009
3315.00,-0.0009
3314.00,-0.0009
3313.00,-0.0009
3312.00,-0.0010
3311.00,-0.0011
3310.00,-0.0013
3309.00,-0.0015
3308.00,-0.0016
3307.00,-0.0016
3306.00,-0.0015
3305.00,-0.0014
3304.00,-0.0012
3303.00,-0.0011
3302.00,-0.0011
3301.00,-0.0011
3300.00,-0.0011
3299.00,-0.0011
3298.00,-0.0011
3297.00,-0.0011
3296.00,-0.0012
3295.00,-0.0012
3294.00,-0.0012
3293.00,-0.0012
3292.00,-0.0011
3291.00,-0.0009
3290.00,-0.0008
3289.00,-0.0007
3288.00,-0.0007
3287.00,-0.0007
3286.00,-0.0007
3285.00,-0.0007
3284.00,-0.0006
3283.00,-0.0006
3282.00,-0.0005
3281.00,-0.0005
3280.00,-0.0006
3279.00,-0.0006
3278.00,-0.0007
3277.00,-0.0007
3276.00,-0.0007
3275.00,-0.0007
3274.00,-0.0008
3273.00,-0.0008
3272.00,-0.0009
3271.00,-0.0009
3270.00,-0.0008
3269.00,-0.0008
3268.00,-0.0007
3267.00,-0.0006
3266.00,-0.0006
3265.00,-0.0005
3264.00,-0.0005
3263.00,-0.0004
3262.00,-0.0004
3261.00,-0.0003
3260.00,-0.0004
3259.00,-0.0004
3258.00,-0.0005
3257.00,-0.0006
3256.00,-0.0006
3255.00,-0.0005
3254.00,-0.0004
3253.00,-0.0003
3252.00,-0.0002
3251.00,-0.0002
3250.00,-0.0003
3249.00,-0.0003
3248.00,-0.0004
3247.00,-0.0004
3246.00,-0.0004
3245.00,-0.0004
3244.00,-0.0003
3243.00,-0.0003
3242.00,-0.0003
3241.00,-0.0003
3240.00,-0.0003
3239.00,-0.0003
3238.00,-0.0003
3237.00,-0.0004
3236.00,-0.0004
3235.00,-0.0005
3234.00,-0.0005
3233.00,-0.0004
3232.00,-0.0003
3231.00,-0.0002
3230.00,-0.0001
3229.00,-0.0001
3228.00,-0.0001
3227.00,-0.0001
3226.00,-0.0001
3225.00,-0.0001
3224.00,-0.0001
3223.00,-0.0001
3222.00,-0.0001
3221.00,-0.0001
3220.00,-0.0001
3219.00,-0.0000
3218.00,0.0000
3217.00,0.0001
3216.00,0.0001
3215.00,0.0001
3214.00,0.0001
3213.00,0.0001
3212.00,0.0001
3211.00,0.0000
3210.00,0.0000
3209.00,0.0000
3208.00,0.0000
3207.00,0.0001
3206.00,0.0001
3205.00,0.0001
3204.00,0.0001
3203.00,0.0001
3202.00,0.0001
3201.00,0.0001
3200.00,0.0001
3199.00,0.0001
3198.00,0.0001
3197.00,0.0001
3196.00,0.0001
3195.00,0.0001
3194.00,0.0001
3193.00,0.0001
3192.00,0.0001
3191.00,0.0001
3190.00,0.0001
3189.00,0.0002
3188.00,0.0002
3187.00,0.0002
3186.00,0.0002
3185.00,0.0002
3184.00,0.0003
3183.00,0.0003
3182.00,0.0002
3181.00,0.0002
3180.00,0.0002
3179.00,0.0002
3178.00,0.0002
3177.00,0.0002
3176.00,0.0003
3175.00,0.0003
3174.00,0.0004
3173.00,0.0004
3172.00,0.0004
3171.00,0.0003
3170.00,0.0003
3169.00,0.0003
3168.00,0.0004
3167.00,0.0004
3166.00,0.0004
3165.00,0.0005
3164.00,0.0005
3163.00,0.0005
3162.00,0.0005
3161.00,0.0005
3160.00,0.0005
3159.00,0.0005
3158.00,0.0005
3157.00,0.0005
3156.00,0.0004
3155.00,0.0004
3154.00,0.0003
3153.00,0.0003
3152.00,0.0003
3151.00,0.0003
3150.00,0.0004
3149.00,0.0004
3148.00,0.0004
3147.00,0.0004
3146.00,0.0005
3145.00,0.0005
3144.00,0.0005
3143.00,0.0005
3142.00,0.0005
3141.00,0.0004
3140.00,0.0004
3139.00,0.0004
3138.00,0.0004
3137.00,0.0005
3136.00,0.0005
3135.00,0.0005
3134.00,0.0005
3133.00,0.0005
3132.00,0.0005
3131.00,0.0005
3130.00,0.0005
3129.00,0.0005
3128.00,0.0006
3127.00,0.0006
3126.00,0.0006
3125.00,0.0006
3124.00,0.0005
3123.00,0.0005
3122.00,0.0004
3121.00,0.0003
3120.00,0.0003
3119.00,0.0003
3118.00,0.0003
3117.00,0.0004
3116.00,0.0004
3115.00,0.0005
3114.00,0.0005
3113.00,0.0006
3112.00,0.0006
3111.00,0.0005
3110.00,0.0005
3109.00,0.0005
3108.00,0.0005
3107.00,0.0005
3106.00,0.0005
3105.00,0.0005
3104.00,0.0005
3103.00,0.0005
3102.00,0.0005
3101.00,0.0005
3100.00,0.0005
3099.00,0.0005
3098.00,0.0006
3097.00,0.0007
3096.00,0.0007
3095.00,0.0008
3094.00,0.0007
3093.00,0.0007
3092.00,0.0006
3091.00,0.0006
3090.00,0.0005
3089.00,0.0006
3088.00,0.0006
3087.00,0.0006
3086.00,0.0006
3085.00,0.0006
3084.00,0.0006
3083.00,0.0006
3082.00,0.0006
3081.00,0.0006
3080.00,0.0006
3079.00,0.0006
3078.00,0.0007
3077.00,0.0007
3076.00,0.0008
3075.00,0.0008
3074.00,0.0008
3073.00,0.0008
3072.00,0.0008
3071.00,0.0009
3070.00,0.0008
3069.00,0.0007
3068.00,0.0007
3067.00,0.0006
3066.00,0.0006
3065.00,0.0007
3064.00,0.0007
3063.00,0.0008
3062.00,0.0008
3061.00,0.0008
3060.00,0.0008
3059.00,0.0008
3058.00,0.0008
3057.00,0.0008
3056.00,0.0008
3055.00,0.0008
3054.00,0.0007
3053.00,0.0007
3052.00,0.0007
3051.00,0.0007
3050.00,0.0007
3049.00,0.0007
3048.00,0.0007
3047.00,0.0006
3046.00,0.0006
3045.00,0.0005
3044.00,0.0005
3043.00,0.0006
3042.00,0.0006
3041.00,0.0007
3040.00,0.0007
3039.00,0.0007
3038.00,0.0007
3037.00,0.0007
3036.00,0.0006
3035.00,0.0006
3034.00,0.0006
3033.00,0.0007
3032.00,0.0006
3031.00,0.0006
3030.00,0.0006
3029.00,0.0006
3028.00,0.0006
3027.00,0.0006
3026.00,0.0006
3025.00,0.0006
3024.00,0.0006
3023.00,0.0006
3022.00,0.0006
3021.00,0.0006
3020.00,0.0006
3019.00,0.0006
3018.00,0.0006
3017.00,0.0006
3016.00,0.0006
3015.00,0.0006
3014.00,0.0006
3013.00,0.0007
3012.00,0.0008
3011.00,0.0009
3010.00,0.0011
3009.00,0.0013
3008.00,0.0014
3007.00,0.0016
3006.00,0.0017
3005.00,0.0018
3004.00,0.0019
3003.00,0.0021
3002.00,0.0023
3001.00,0.0024
3000.00,0.0026
2999.00,0.0028
2998.00,0.0030
2997.00,0.0033
2996.00,0.0036
2995.00,0.0039
2994.00,0.0041
2993.00,0.0044
2992.00,0.0047
2991.00,0.0050
2990.00,0.0053
2989.00,0.0056
2988.00,0.0059
2987.00,0.0062
2986.00,0.0064
2985.00,0.0066
2984.00,0.0068
2983.00,0.0070
2982.00,0.0071
2981.00,0.0073
2980.00,0.0074
2979.00,0.0076
2978.00,0.0077
2977.00,0.0077
2976.00,0.0078
2975.00,0.0078
2974.00,0.0079
2973.00,0.0080
2972.00,0.0081
2971.00,0.0082
2970.00,0.0083
2969.00,0.0084
2968.00,0.0085
2967.00,0.0087
2966.00,0.0088
2965.00,0.0091
2964.00,0.0094
2963.00,0.0097
2962.00,0.0101
2961.00,0.0105
2960.00,0.0109
2959.00,0.0112
2958.00,0.0116
2957.00,0.0118
2956.00,0.0121
2955.00,0.0123
2954.00,0.0125
2953.00,0.0127
2952.00,0.0129
2951.00,0.0131
2950.00,0.0132
2949.00,0.0133
2948.00,0.0134
2947.00,0.0134
2946.00,0.0135
2945.00,0.0135
2944.00,0.0136
2943.00,0.0137
2942.00,0.0139
2941.00,0.0140
2940.00,0.0140
2939.00,0.0141
2938.00,0.0142
2937.00,0.0143
2936.00,0.0145
2935.00,0.0146
2934.00,0.0148
2933.00,0.0148
2932.00,0.0149
2931.00,0.0150
2930.00,0.0151
2929.00,0.0153
2928.00,0.0155
2927.00,0.0157
2926.00,0.0159
2925.00,0.0159
2924.00,0.0159
2923.00,0.0159
2922.00,0.0159
2921.00,0.0158
2920.00,0.0157
2919.00,0.0156
2918.00,0.0153
2917.00,0.0150
2916.00,0.0147
2915.00,0.0144
2914.00,0.0141
2913.00,0.0139
2912.00,0.0136
2911.00,0.0133
2910.00,0.0131
2909.00,0.0128
2908.00,0.0125
2907.00,0.0122
2906.00,0.0119
2905.00,0.0116
2904.00,0.0114
2903.00,0.0113
2902.00,0.0111
2901.00,0.0111
2900.00,0.0110
2899.00,0.0109
2898.00,0.0108
2897.00,0.0108
2896.00,0.0108
2895.00,0.0108
2894.00,0.0107
2893.00,0.0107
2892.00,0.0107
2891.00,0.0107
2890.00,0.0107
2889.00,0.0107
2888.00,0.0107
2887.00,0.0107
2886.00,0.0106
2885.00,0.0106
2884.00,0.0106
2883.00,0.0106
2882.00,0.0107
2881.00,0.0107
2880.00,0.0108
2879.00,0.0108
2878.00,0.0108
2877.00,0.0109
2876.00,0.0109
2875.00,0.0109
2874.00,0.0110
2873.00,0.0111
2872.00,0.0112
2871.00,0.0113
2870.00,0.0114
2869.00,0.0114
2868.00,0.0115
2867.00,0.0115
2866.00,0.0114
2865.00,0.0113
2864.00,0.0113
2863.00,0.0113
2862.00,0.0113
2861.00,0.0113
2860.00,0.0114
2859.00,0.0114
2858.00,0.0114
2857.00,0.0114
2856.00,0.0113
2855.00,0.0112
2854.00,0.0111
2853.00,0.0108
2852.00,0.0106
2851.00,0.0103
2850.00,0.0099
2849.00,0.0096
2848.00,0.0092
2847.00,0.0089
2846.00,0.0085
2845.00,0.0082
2844.00,0.0080
2843.00,0.0077
2842.00,0.0073
2841.00,0.0070
2840.00,0.0067
2839.00,0.0064
2838.00,0.0061
2837.00,0.0059
2836.00,0.0057
2835.00,0.0056
2834.00,0.0054
2833.00,0.0052
2832.00,0.0051
2831.00,0.0049
2830.00,0.0047
2829.00,0.0046
2828.00,0.0045
2827.00,0.0043
2826.00,0.0042
2825.00,0.0040
2824.00,0.0039
2823.00,0.0037
2822.00,0.0035
2821.00,0.0034
2820.00,0.0033
2819.00,0.0032
2818.00,0.0031
2817.00,0.0030
2816.00,0.0029
2815.00,0.0029
2814.00,0.0028
2813.00,0.0027
2812.00,0.0026
2811.00,0.0025
2810.00,0.0025
2809.00,0.0024
2808.00,0.0024
2807.00,0.0024
2806.00,0.0024
2805.00,0.0024
2804.00,0.0024
2803.00,0.0023
2802.00,0.0023
2801.00,0.0022
2800.00,0.0021
2799.00,0.0020
2798.00,0.0020
2797.00,0.0020
2796.00,0.0020
2795.00,0.0020
2794.00,0.0020
2793.00,0.0020
2792.00,0.0019
2791.00,0.0018
2790.00,0.0018
2789.00,0.0018
2788.00,0.0018
2787.00,0.0019
2786.00,0.0020
2785.00,0.0020
2784.00,0.0020
2783.00,0.0020
2782.00,0.0020
2781.00,0.0020
2780.00,0.0019
2779.00,0.0018
2778.00,0.0018
2777.00,0.0017
2776.00,0.0017
2775.00,0.0017
2774.00,0.0017
2773.00,0.0017
2772.00,0.0017
2771.00,0.0017
2770.00,0.0017
2769.00,0.0017
2768.00,0.0017
2767.00,0.0017
2766.00,0.0017
2765.00,0.0017
2764.00,0.0016
2763.00,0.0016
2762.00,0.0017
2761.00,0.0017
2760.00,0.0017
2759.00,0.0016
2758.00,0.0016
2757.00,0.0016
2756.00,0.0017
2755.00,0.0017
2754.00,0.0017
2753.00,0.0017
2752.00,0.0017
2751.00,0.0017
2750.00,0.0017
2749.00,0.0016
2748.00,0.0017
2747.00,0.0017
2746.00,0.0017
2745.00,0.0017
2744.00,0.0018
2743.00,0.0018
2742.00,0.0019
2741.00,0.0019
2740.00,0.0019
2739.00,0.0019
2738.00,0.0018
2737.00,0.0018
2736.00,0.0018
2735.00,0.0018
2734.00,0.0018
2733.00,0.0018
2732.00,0.0019
2731.00,0.0019
2730.00,0.0019
2729.00,0.0019
2728.00,0.0019
2727.00,0.0018
2726.00,0.0018
2725.00,0.0018
2724.00,0.0018
2723.00,0.0018
2722.00,0.0018
2721.00,0.0018
2720.00,0.0018
2719.00,0.0018
2718.00,0.0018
2717.00,0.0018
2716.00,0.0018
2715.00,0.0018
2714.00,0.0018
2713.00,0.0018
2712.00,0.0018
2711.00,0.0017
2710.00,0.0017
2709.00,0.0017
2708.00,0.0017
2707.00,0.0017
2706.00,0.0017
2705.00,0.0017
2704.00,0.0017
2703.00,0.0017
2702.00,0.0017
2701.00,0.0017
2700.00,0.0017
2699.00,0.0018
2698.00,0.0018
2697.00,0.0018
2696.00,0.0017
2695.00,0.0017
2694.00,0.0017
2693.00,0.0018
2692.00,0.0018
2691.00,0.0017
2690.00,0.0017
2689.00,0.0017
2688.00,0.0017
2687.00,0.0017
2686.00,0.0017
2685.00,0.0017
2684.00,0.0017
2683.00,0.0016
2682.00,0.0016
2681.00,0.0016
2680.00,0.0015
2679.00,0.0016
2678.00,0.0016
2677.00,0.0017
2676.00,0.0017
2675.00,0.0017
2674.00,0.0017
2673.00,0.0017
2672.00,0.0016
2671.00,0.0016
2670.00,0.0016
2669.00,0.0016
2668.00,0.0017
2667.00,0.0017
2666.00,0.0018
2665.00,0.0018
2664.00,0.0019
2663.00,0.0019
2662.00,0.0019
2661.00,0.0020
2660.00,0.0020
2659.00,0.0020
2658.00,0.0021
2657.00,0.0021
2656.00,0.0021
2655.00,0.0021
2654.00,0.0021
2653.00,0.0021
2652.00,0.0021
2651.00,0.0021
2650.00,0.0021
2649.00,0.0021
2648.00,0.0021
2647.00,0.0020
2646.00,0.0020
2645.00,0.0020
2644.00,0.0020
2643.00,0.0021
2642.00,0.0021
2641.00,0.0021
2640.00,0.0021
2639.00,0.0021
2638.00,0.0021
2637.00,0.0021
2636.00,0.0021
2635.00,0.0021
2634.00,0.0021
2633.00,0.0021
2632.00,0.0021
2631.00,0.0021
2630.00,0.0021
2629.00,0.0021
2628.00,0.0021
2627.00,0.0021
2626.00,0.0021
2625.00,0.0021
2624.00,0.0022
2623.00,0.0022
2622.00,0.0022
2621.00,0.0022
2620.00,0.0022
2619.00,0.0022
2618.00,0.0022
2617.00,0.0022
2616.00,0.0022
2615.00,0.0022
2614.00,0.0022
2613.00,0.0022
2612.00,0.0021
2611.00,0.0020
2610.00,0.0020
2609.00,0.0021
2608.00,0.0022
2607.00,0.0022
2606.00,0.0022
2605.00,0.0022
2604.00,0.0022
2603.00,0.0022
2602.00,0.0023
2601.00,0.0023
2600.00,0.0023
2599.00,0.0023
2598.00,0.0022
2597.00,0.0021
2596.00,0.0021
2595.00,0.0021
2594.00,0.0021
2593.00,0.0022
2592.00,0.0022
2591.00,0.0022
2590.00,0.0021
2589.00,0.0021
2588.00,0.0021
2587.00,0.0020
2586.00,0.0020
2585.00,0.0021
2584.00,0.0021
2583.00,0.0022
2582.00,0.0023
2581.00,0.0023
2580.00,0.0023
2579.00,0.0022
2578.00,0.0022
2577.00,0.0022
2576.00,0.0022
2575.00,0.0023
2574.00,0.0023
2573.00,0.0022
2572.00,0.0022
2571.00,0.0022
2570.00,0.0022
2569.00,0.0022
2568.00,0.0022
2567.00,0.0022
2566.00,0.0022
2565.00,0.0022
2564.00,0.0022
2563.00,0.0022
2562.00,0.0022
2561.00,0.0022
2560.00,0.0022
2559.00,0.0022
2558.00,0.0022
2557.00,0.0022
2556.00,0.0022
2555.00,0.0022
2554.00,0.0022
2553.00,0.0022
2552.00,0.0022
2551.00,0.0021
2550.00,0.0021
2549.00,0.0020
2548.00,0.0020
2547.00,0.0021
2546.00,0.0021
2545.00,0.0021
2544.00,0.0021
2543.00,0.0020
2542.00,0.0021
2541.00,0.0022
2540.00,0.0022
2539.00,0.0023
2538.00,0.0023
2537.00,0.0022
2536.00,0.0021
2535.00,0.0020
2534.00,0.0019
2533.00,0.0019
2532.00,0.0019
2531.00,0.0019
2530.00,0.0019
2529.00,0.0019
2528.00,0.0018
2527.00,0.0018
2526.00,0.0019
2525.00,0.0019
2524.00,0.0019
2523.00,0.0018
2522.00,0.0018
2521.00,0.0017
2520.00,0.0017
2519.00,0.0017
2518.00,0.0017
2517.00,0.0017
2516.00,0.0016
2515.00,0.0016
2514.00,0.0016
2513.00,0.0016
2512.00,0.0016
2511.00,0.0016
2510.00,0.0016
2509.00,0.0016
2508.00,0.0017
2507.00,0.0017
2506.00,0.0017
2505.00,0.0017
2504.00,0.0017
2503.00,0.0018
2502.00,0.0018
2501.00,0.0019
2500.00,0.0019
2499.00,0.0019
2498.00,0.0020
2497.00,0.0020
2496.00,0.0020
2495.00,0.0019
2494.00,0.0019
2493.00,0.0018
2492.00,0.0018
2491.00,0.0019
2490.00,0.0019
2489.00,0.0019
2488.00,0.0019
2487.00,0.0018
2486.00,0.0018
2485.00,0.0017
2484.00,0.0018
2483.00,0.0018
2482.00,0.0018
2481.00,0.0018
2480.00,0.0018
2479.00,0.0018
2478.00,0.0018
2477.00,0.0018
2476.00,0.0017
2475.00,0.0017
2474.00,0.0017
2473.00,0.0017
2472.00,0.0017
2471.00,0.0017
2470.00,0.0017
2469.00,0.0018
2468.00,0.0018
2467.00,0.0018
2466.00,0.0018
2465.00,0.0018
2464.00,0.0018
2463.00,0.0018
2462.00,0.0018
2461.00,0.0018
2460.00,0.0018
2459.00,0.0019
2458.00,0.0019
2457.00,0.0020
2456.00,0.0020
2455.00,0.0020
2454.00,0.0019
2453.00,0.0019
2452.00,0.0019
2451.00,0.0019
2450.00,0.0019
2449.00,0.0020
2448.00,0.0020
2447.00,0.0020
2446.00,0.0020
2445.00,0.0020
2444.00,0.0020
2443.00,0.0020
2442.00,0.0020
2441.00,0.0020
2440.00,0.0020
2439.00,0.0019
2438.00,0.0019
2437.00,0.0018
2436.00,0.0018
2435.00,0.0018
2434.00,0.0018
2433.00,0.0018
2432.00,0.0019
2431.00,0.0019
2430.00,0.0019
2429.00,0.0019
2428.00,0.0019
2427.00,0.0019
2426.00,0.0018
2425.00,0.0018
2424.00,0.0018
2423.00,0.0018
2422.00,0.0018
2421.00,0.0018
2420.00,0.0018
2419.00,0.0017
2418.00,0.0018
2417.00,0.0018
2416.00,0.0018
2415.00,0.0018
2414.00,0.0018
2413.00,0.0018
2412.00,0.0019
2411.00,0.0019
2410.00,0.0019
2409.00,0.0019
2408.00,0.0018
2407.00,0.0018
2406.00,0.0018
2405.00,0.0018
2404.00,0.0018
2403.00,0.0017
2402.00,0.0017
2401.00,0.0016
2400.00,0.0016
2399.00,0.0016
2398.00,0.0015
2397.00,0.0015
2396.00,0.0015
2395.00,0.0015
2394.00,0.0016
2393.00,0.0016
2392.00,0.0017
2391.00,0.0017
2390.00,0.0017
2389.00,0.0016
2388.00,0.0015
2387.00,0.0014
2386.00,0.0012
2385.00,0.0011
2384.00,0.0011
2383.00,0.0010
2382.00,0.0010
2381.00,0.0010
2380.00,0.0011
2379.00,0.0011
2378.00,0.0010
2377.00,0.0010
2376.00,0.0010
2375.00,0.0010
2374.00,0.0009
2373.00,0.0008
2372.00,0.0007
2371.00,0.0007
2370.00,0.0008
2369.00,0.0008
2368.00,0.0008
2367.00,0.0008
2366.00,0.0009
2365.00,0.0009
2364.00,0.0009
2363.00,0.0009
2362.00,0.0008
2361.00,0.0008
2360.00,0.0008
2359.00,0.0009
2358.00,0.0009
2357.00,0.0008
2356.00,0.0008
2355.00,0.0007
2354.00,0.0007
2353.00,0.0008
2352.00,0.0009
2351.00,0.0009
2350.00,0.0009
2349.00,0.0009
2348.00,0.0009
2347.00,0.0010
2346.00,0.0011
2345.00,0.0011
2344.00,0.0010
2343.00,0.0010
2342.00,0.0010
2341.00,0.0011
2340.00,0.0012
2339.00,0.0012
2338.00,0.0012
2337.00,0.0012
2336.00,0.0012
2335.00,0.0011
2334.00,0.0010
2333.00,0.0010
2332.00,0.0010
2331.00,0.0010
2330.00,0.0012
2329.00,0.0015
2328.00,0.0018
2327.00,0.0022
2326.00,0.0024
2325.00,0.0025
2324.00,0.0024
2323.00,0.0022
2322.00,0.0020
2321.00,0.0018
2320.00,0.0017
2319.00,0.0017
2318.00,0.0017
2317.00,0.0017
2316.00,0.0017
2315.00,0.0016
2314.00,0.0017
2313.00,0.0017
2312.00,0.0017
2311.00,0.0018
2310.00,0.0019
2309.00,0.0019
2308.00,0.0020
2307.00,0.0021
2306.00,0.0022
2305.00,0.0023
2304.00,0.0023
2303.00,0.0023
2302.00,0.0023
2301.00,0.0023
2300.00,0.0024
2299.00,0.0025
2298.00,0.0026
2297.00,0.0026
2296.00,0.0026
2295.00,0.0027
2294.00,0.0027
2293.00,0.0028
2292.00,0.0028
2291.00,0.0029
2290.00,0.0029
2289.00,0.0030
2288.00,0.0031
2287.00,0.0032
2286.00,0.0032
2285.00,0.0033
2284.00,0.0033
2283.00,0.0033
2282.00,0.0032
2281.00,0.0031
2280.00,0.0030
2279.00,0.0030
2278.00,0.0030
2277.00,0.0030
2276.00,0.0030
2275.00,0.0030
2274.00,0.0030
2273.00,0.0030
2272.00,0.0031
2271.00,0.0032
2270.00,0.0032
2269.00,0.0032
2268.00,0.0032
2267.00,0.0030
2266.00,0.0029
2265.00,0.0028
2264.00,0.0028
2263.00,0.0027
2262.00,0.0027
2261.00,0.0028
2260.00,0.0028
2259.00,0.0028
2258.00,0.0029
2257.00,0.0030
2256.00,0.0030
2255.00,0.0030
2254.00,0.0029
2253.00,0.0027
2252.00,0.0026
2251.00,0.0026
2250.00,0.0027
2249.00,0.0028
2248.00,0.0030
2247.00,0.0031
2246.00,0.0031
2245.00,0.0031
2244.00,0.0030
2243.00,0.0030
2242.00,0.0030
2241.00,0.0030
2240.00,0.0031
2239.00,0.0032
2238.00,0.0033
2237.00,0.0032
2236.00,0.0031
2235.00,0.0030
2234.00,0.0030
2233.00,0.0029
2232.00,0.0030
2231.00,0.0030
2230.00,0.0031
2229.00,0.0031
2228.00,0.0031
2227.00,0.0030
2226.00,0.0029
2225.00,0.0028
2224.00,0.0030
2223.00,0.0032
2222.00,0.0033
2221.00,0.0034
2220.00,0.0033
2219.00,0.0032
2218.00,0.0030
2217.00,0.0029
2216.00,0.0028
2215.00,0.0027
2214.00,0.0025
2213.00,0.0024
2212.00,0.0025
2211.00,0.0028
2210.00,0.0030
2209.00,0.0032
2208.00,0.0032
2207.00,0.0032
2206.00,0.0031
2205.00,0.0030
2204.00,0.0028
2203.00,0.0026
2202.00,0.0025
2201.00,0.0026
2200.00,0.0028
2199.00,0.0030
2198.00,0.0032
2197.00,0.0034
2196.00,0.0035
2195.00,0.0035
2194.00,0.0036
2193.00,0.0036
2192.00,0.0037
2191.00,0.0037
2190.00,0.0037
2189.00,0.0036
2188.00,0.0035
2187.00,0.0034
2186.00,0.0034
2185.00,0.0035
2184.00,0.0036
2183.00,0.0036
2182.00,0.0036
2181.00,0.0035
2180.00,0.0035
2179.00,0.0034
2178.00,0.0032
2177.00,0.0031
2176.00,0.0031
2175.00,0.0032
2174.00,0.0033
2173.00,0.0033
2172.00,0.0032
2171.00,0.0033
2170.00,0.0036
2169.00,0.0039
2168.00,0.0042
2167.00,0.0043
2166.00,0.0044
2165.00,0.0046
2164.00,0.0049
2163.00,0.0050
2162.00,0.0045
2161.00,0.0035
2160.00,0.0024
2159.00,0.0015
2158.00,0.0011
2157.00,0.0011
2156.00,0.0013
2155.00,0.0016
2154.00,0.0018
2153.00,0.0020
2152.00,0.0020
2151.00,0.0019
2150.00,0.0018
2149.00,0.0017
2148.00,0.0016
2147.00,0.0015
2146.00,0.0014
2145.00,0.0013
2144.00,0.0012
2143.00,0.0013
2142.00,0.0015
2141.00,0.0016
2140.00,0.0017
2139.00,0.0015
2138.00,0.0012
2137.00,0.0009
2136.00,0.0007
2135.00,0.0005
2134.00,0.0005
2133.00,0.0004
2132.00,0.0004
2131.00,0.0005
2130.00,0.0007
2129.00,0.0011
2128.00,0.0014
2127.00,0.0017
2126.00,0.0018
2125.00,0.0018
2124.00,0.0018
2123.00,0.0017
2122.00,0.0017
2121.00,0.0018
2120.00,0.0020
2119.00,0.0021
2118.00,0.0022
2117.00,0.0023
2116.00,0.0025
2115.00,0.0026
2114.00,0.0026
2113.00,0.0025
2112.00,0.0025
2111.00,0.0025
2110.00,0.0026
2109.00,0.0026
2108.00,0.0025
2107.00,0.0025
2106.00,0.0024
2105.00,0.0024
2104.00,0.0024
2103.00,0.0025
2102.00,0.0025
2101.00,0.0025
2100.00,0.0024
2099.00,0.0023
2098.00,0.0022
2097.00,0.0021
2096.00,0.0022
2095.00,0.0022
2094.00,0.0023
2093.00,0.0023
2092.00,0.0023
2091.00,0.0023
2090.00,0.0024
2089.00,0.0024
2088.00,0.0024
2087.00,0.0024
2086.00,0.0024
2085.00,0.0025
2084.00,0.0025
2083.00,0.0026
2082.00,0.0028
2081.00,0.0029
2080.00,0.0030
2079.00,0.0030
2078.00,0.0030
2077.00,0.0028
2076.00,0.0028
2075.00,0.0027
2074.00,0.0027
2073.00,0.0026
2072.00,0.0026
2071.00,0.0025
2070.00,0.0026
2069.00,0.0027
2068.00,0.0028
2067.00,0.0029
2066.00,0.0029
2065.00,0.0029
2064.00,0.0028
2063.00,0.0027
2062.00,0.0024
2061.00,0.0023
2060.00,0.0022
2059.00,0.0024
2058.00,0.0026
2057.00,0.0027
2056.00,0.0027
2055.00,0.0027
2054.00,0.0029
2053.00,0.0033
2052.00,0.0037
2051.00,0.0038
2050.00,0.0036
2049.00,0.0033
2048.00,0.0032
2047.00,0.0031
2046.00,0.0031
2045.00,0.0031
2044.00,0.0032
2043.00,0.0035
2042.00,0.0037
2041.00,0.0037
2040.00,0.0035
2039.00,0.0034
2038.00,0.0033
2037.00,0.0032
2036.00,0.0032
2035.00,0.0032
2034.00,0.0032
2033.00,0.0031
2032.00,0.0030
2031.00,0.0027
2030.00,0.0024
2029.00,0.0021
2028.00,0.0020
2027.00,0.0022
2026.00,0.0024
2025.00,0.0027
2024.00,0.0030
2023.00,0.0031
2022.00,0.0031
2021.00,0.0030
2020.00,0.0028
2019.00,0.0027
2018.00,0.0028
2017.00,0.0031
2016.00,0.0034
2015.00,0.0036
2014.00,0.0034
2013.00,0.0031
2012.00,0.0028
2011.00,0.0027
2010.00,0.0027
2009.00,0.0027
2008.00,0.0026
2007.00,0.0024
2006.00,0.0021
2005.00,0.0019
2004.00,0.0019
2003.00,0.0019
2002.00,0.0020
2001.00,0.0020
2000.00,0.0019
1999.00,0.0019
1998.00,0.0021
1997.00,0.0024
1996.00,0.0027
1995.00,0.0029
1994.00,0.0030
1993.00,0.0031
1992.00,0.0031
1991.00,0.0032
1990.00,0.0032
1989.00,0.0033
1988.00,0.0034
1987.00,0.0033
1986.00,0.0030
1985.00,0.0029
1984.00,0.0030
1983.00,0.0033
1982.00,0.0036
1981.00,0.0037
1980.00,0.0035
1979.00,0.0028
1978.00,0.0020
1977.00,0.0014
1976.00,0.0012
1975.00,0.0014
1974.00,0.0017
1973.00,0.0020
1972.00,0.0022
1971.00,0.0023
1970.00,0.0022
1969.00,0.0021
1968.00,0.0021
1967.00,0.0022
1966.00,0.0023
1965.00,0.0024
1964.00,0.0023
1963.00,0.0021
1962.00,0.0018
1961.00,0.0016
1960.00,0.0015
1959.00,0.0014
1958.00,0.0015
1957.00,0.0018
1956.00,0.0020
1955.00,0.0021
1954.00,0.0020
1953.00,0.0019
1952.00,0.0018
1951.00,0.0017
1950.00,0.0017
1949.00,0.0018
1948.00,0.0020
1947.00,0.0021
1946.00,0.0020
1945.00,0.0019
1944.00,0.0018
1943.00,0.0018
1942.00,0.0017
1941.00,0.0017
1940.00,0.0018
1939.00,0.0019
1938.00,0.0020
1937.00,0.0020
1936.00,0.0021
1935.00,0.0020
1934.00,0.0018
1933.00,0.0017
1932.00,0.0016
1931.00,0.0017
1930.00,0.0017
1929.00,0.0018
1928.00,0.0018
1927.00,0.0017
1926.00,0.0016
1925.00,0.0017
1924.00,0.0018
1923.00,0.0019
1922.00,0.0019
1921.00,0.0019
1920.00,0.0019
1919.00,0.0018
1918.00,0.0019
1917.00,0.0021
1916.00,0.0023
1915.00,0.0023
1914.00,0.0023
1913.00,0.0022
1912.00,0.0021
1911.00,0.0020
1910.00,0.0019
1909.00,0.0018
1908.00,0.0018
1907.00,0.0018
1906.00,0.0018
1905.00,0.0019
1904.00,0.0020
1903.00,0.0020
1902.00,0.0019
1901.00,0.0019
1900.00,0.0018
1899.00,0.0017
1898.00,0.0016
1897.00,0.0016
1896.00,0.0017
1895.00,0.0018
1894.00,0.0018
1893.00,0.0018
1892.00,0.0018
1891.00,0.0018
1890.00,0.0018
1889.00,0.0018
1888.00,0.0018
1887.00,0.0018
1886.00,0.0018
1885.00,0.0019
1884.00,0.0019
1883.00,0.0020
1882.00,0.0020
1881.00,0.0020
1880.00,0.0019
1879.00,0.0019
1878.00,0.0018
1877.00,0.0017
1876.00,0.0017
1875.00,0.0017
1874.00,0.0017
1873.00,0.0017
1872.00,0.0016
1871.00,0.0017
1870.00,0.0017
1869.00,0.0018
1868.00,0.0019
1867.00,0.0019
1866.00,0.0018
1865.00,0.0018
1864.00,0.0017
1863.00,0.0017
1862.00,0.0017
1861.00,0.0016
1860.00,0.0016
1859.00,0.0015
1858.00,0.0015
1857.00,0.0015
1856.00,0.0016
1855.00,0.0017
1854.00,0.0017
1853.00,0.0017
1852.00,0.0017
1851.00,0.0017
1850.00,0.0017
1849.00,0.0017
1848.00,0.0017
1847.00,0.0017
1846.00,0.0017
1845.00,0.0016
1844.00,0.0016
1843.00,0.0016
1842.00,0.0015
1841.00,0.0015
1840.00,0.0015
1839.00,0.0015
1838.00,0.0015
1837.00,0.0015
1836.00,0.0015
1835.00,0.0015
1834.00,0.0015
1833.00,0.0016
1832.00,0.0017
1831.00,0.0018
1830.00,0.0018
1829.00,0.0017
1828.00,0.0016
1827.00,0.0015
1826.00,0.0015
1825.00,0.0015
1824.00,0.0016
1823.00,0.0016
1822.00,0.0016
1821.00,0.0015
1820.00,0.0014
1819.00,0.0012
1818.00,0.0011
1817.00,0.0011
1816.00,0.0011
1815.00,0.0012
1814.00,0.0012
1813.00,0.0013
1812.00,0.0014
1811.00,0.0014
1810.00,0.0015
1809.00,0.0014
1808.00,0.0014
1807.00,0.0014
1806.00,0.0014
1805.00,0.0014
1804.00,0.0014
1803.00,0.0014
1802.00,0.0015
1801.00,0.0015
1800.00,0.0015
1799.00,0.0015
1798.00,0.0015
1797.00,0.0014
1796.00,0.0015
1795.00,0.0015
1794.00,0.0014
1793.00,0.0014
1792.00,0.0014
1791.00,0.0013
1790.00,0.0013
1789.00,0.0014
1788.00,0.0014
1787.00,0.0014
1786.00,0.0013
1785.00,0.0013
1784.00,0.0013
1783.00,0.0014
1782.00,0.0014
1781.00,0.0015
1780.00,0.0015
1779.00,0.0014
1778.00,0.0014
1777.00,0.0014
1776.00,0.0015
1775.00,0.0015
1774.00,0.0015
1773.00,0.0015
1772.00,0.0015
1771.00,0.0014
1770.00,0.0013
1769.00,0.0014
1768.00,0.0015
1767.00,0.0015
1766.00,0.0014
1765.00,0.0014
1764.00,0.0015
1763.00,0.0015
1762.00,0.0016
1761.00,0.0016
1760.00,0.0016
1759.00,0.0017
1758.00,0.0017
1757.00,0.0017
1756.00,0.0018
1755.00,0.0018
1754.00,0.0019
1753.00,0.0020
1752.00,0.0021
1751.00,0.0022
1750.00,0.0022
1749.00,0.0023
1748.00,0.0024
1747.00,0.0025
1746.00,0.0024
1745.00,0.0024
1744.00,0.0025
1743.00,0.0024
1742.00,0.0023
1741.00,0.0023
1740.00,0.0023
1739.00,0.0023
1738.00,0.0023
1737.00,0.0023
1736.00,0.0024
1735.00,0.0024
1734.00,0.0024
1733.00,0.0024
1732.00,0.0025
1731.00,0.0026
1730.00,0.0027
1729.00,0.0027
1728.00,0.0027
1727.00,0.0028
1726.00,0.0028
1725.00,0.0029
1724.00,0.0030
1723.00,0.0031
1722.00,0.0032
1721.00,0.0033
1720.00,0.0036
1719.00,0.0039
1718.00,0.0041
1717.00,0.0043
1716.00,0.0046
1715.00,0.0048
1714.00,0.0051
1713.00,0.0054
1712.00,0.0059
1711.00,0.0065
1710.00,0.0070
1709.00,0.0077
1708.00,0.0085
1707.00,0.0095
1706.00,0.0108
1705.00,0.0122
1704.00,0.0135
1703.00,0.0146
1702.00,0.0161
1701.00,0.0186
1700.00,0.0221
1699.00,0.0252
1698.00,0.0278
1697.00,0.0308
1696.00,0.0347
1695.00,0.0389
1694.00,0.0426
1693.00,0.0457
1692.00,0.0489
1691.00,0.0525
1690.00,0.0564
1689.00,0.0602
1688.00,0.0635
1687.00,0.0661
1686.00,0.0690
1685.00,0.0734
1684.00,0.0792
1683.00,0.0840
1682.00,0.0869
1681.00,0.0888
1680.00,0.0905
1679.00,0.0919
1678.00,0.0928
1677.00,0.0935
1676.00,0.0947
1675.00,0.0961
1674.00,0.0969
1673.00,0.0967
1672.00,0.0959
1671.00,0.0953
1670.00,0.0951
1669.00,0.0951
1668.00,0.0949
1667.00,0.0942
1666.00,0.0931
1665.00,0.0921
1664.00,0.0917
1663.00,0.0920
1662.00,0.0926
1661.00,0.0929
1660.00,0.0928
1659.00,0.0925
1658.00,0.0919
1657.00,0.0909
1656.00,0.0896
1655.00,0.0884
1654.00,0.0886
1653.00,0.0903
1652.00,0.0913
1651.00,0.0904
1650.00,0.0882
1649.00,0.0857
1648.00,0.0835
1647.00,0.0815
1646.00,0.0796
1645.00,0.0773
1644.00,0.0748
1643.00,0.0719
1642.00,0.0690
1641.00,0.0660
1640.00,0.0630
1639.00,0.0602
1638.00,0.0575
1637.00,0.0547
1636.00,0.0521
1635.00,0.0497
1634.00,0.0475
1633.00,0.0455
1632.00,0.0436
1631.00,0.0418
1630.00,0.0402
1629.00,0.0390
1628.00,0.0381
1627.00,0.0375
1626.00,0.0371
1625.00,0.0372
1624.00,0.0377
1623.00,0.0386
1622.00,0.0395
1621.00,0.0399
1620.00,0.0399
1619.00,0.0397
1618.00,0.0395
1617.00,0.0393
1616.00,0.0390
1615.00,0.0384
1614.00,0.0377
1613.00,0.0369
1612.00,0.0361
1611.00,0.0354
1610.00,0.0347
1609.00,0.0339
1608.00,0.0328
1607.00,0.0316
1606.00,0.0301
1605.00,0.0285
1604.00,0.0269
1603.00,0.0253
1602.00,0.0239
1601.00,0.0226
1600.00,0.0215
1599.00,0.0206
1598.00,0.0199
1597.00,0.0194
1596.00,0.0192
1595.00,0.0193
1594.00,0.0196
1593.00,0.0203
1592.00,0.0213
1591.00,0.0224
1590.00,0.0238
1589.00,0.0251
1588.00,0.0262
1587.00,0.0272
1586.00,0.0277
1585.00,0.0278
1584.00,0.0274
1583.00,0.0267
1582.00,0.0258
1581.00,0.0247
1580.00,0.0236
1579.00,0.0225
1578.00,0.0216
1577.00,0.0207
1576.00,0.0198
1575.00,0.0191
1574.00,0.0184
1573.00,0.0178
1572.00,0.0173
1571.00,0.0168
1570.00,0.0164
1569.00,0.0160
1568.00,0.0156
1567.00,0.0153
1566.00,0.0149
1565.00,0.0145
1564.00,0.0141
1563.00,0.0137
1562.00,0.0132
1561.00,0.0127
1560.00,0.0125
1559.00,0.0125
1558.00,0.0123
1557.00,0.0120
1556.00,0.0118
1555.00,0.0117
1554.00,0.0115
1553.00,0.0113
1552.00,0.0112
1551.00,0.0111
1550.00,0.0111
1549.00,0.0109
1548.00,0.0107
1547.00,0.0105
1546.00,0.0104
1545.00,0.0104
1544.00,0.0103
1543.00,0.0102
1542.00,0.0102
1541.00,0.0103
1540.00,0.0102
1539.00,0.0100
1538.00,0.0098
1537.00,0.0097
1536.00,0.0097
1535.00,0.0097
1534.00,0.0097
1533.00,0.0098
1532.00,0.0097
1531.00,0.0097
1530.00,0.0097
1529.00,0.0098
1528.00,0.0098
1527.00,0.0099
1526.00,0.0099
1525.00,0.0100
1524.00,0.0100
1523.00,0.0102
1522.00,0.0104
1521.00,0.0105
1520.00,0.0107
1519.00,0.0109
1518.00,0.0112
1517.00,0.0114
1516.00,0.0116
1515.00,0.0117
1514.00,0.0117
1513.00,0.0117
1512.00,0.0117
1511.00,0.0118
1510.00,0.0119
1509.00,0.0122
1508.00,0.0126
1507.00,0.0132
1506.00,0.0137
1505.00,0.0142
1504.00,0.0149
1503.00,0.0157
1502.00,0.0166
1501.00,0.0176
1500.00,0.0188
1499.00,0.0201
1498.00,0.0214
1497.00,0.0228
1496.00,0.0239
1495.00,0.0246
1494.00,0.0249
1493.00,0.0249
1492.00,0.0245
1491.00,0.0240
1490.00,0.0234
1489.00,0.0224
1488.00,0.0211
1487.00,0.0197
1486.00,0.0184
1485.00,0.0172
1484.00,0.0162
1483.00,0.0154
1482.00,0.0147
1481.00,0.0142
1480.00,0.0137
1479.00,0.0134
1478.00,0.0133
1477.00,0.0135
1476.00,0.0138
1475.00,0.0143
1474.00,0.0151
1473.00,0.0164
1472.00,0.0181
1471.00,0.0197
1470.00,0.0214
1469.00,0.0232
1468.00,0.0250
1467.00,0.0271
1466.00,0.0297
1465.00,0.0327
1464.00,0.0356
1463.00,0.0378
1462.00,0.0394
1461.00,0.0403
1460.00,0.0406
1459.00,0.0405
1458.00,0.0400
1457.00,0.0392
1456.00,0.0379
1455.00,0.0364
1454.00,0.0350
1453.00,0.0336
1452.00,0.0325
1451.00,0.0317
1450.00,0.0314
1449.00,0.0316
1448.00,0.0323
1447.00,0.0333
1446.00,0.0344
1445.00,0.0357
1444.00,0.0371
1443.00,0.0388
1442.00,0.0405
1441.00,0.0423
1440.00,0.0439
1439.00,0.0455
1438.00,0.0474
1437.00,0.0500
1436.00,0.0530
1435.00,0.0553
1434.00,0.0568
1433.00,0.0579
1432.00,0.0589
1431.00,0.0599
1430.00,0.0610
1429.00,0.0623
1428.00,0.0636
1427.00,0.0650
1426.00,0.0666
1425.00,0.0687
1424.00,0.0710
1423.00,0.0726
1422.00,0.0733
1421.00,0.0731
1420.00,0.0722
1419.00,0.0704
1418.00,0.0677
1417.00,0.0642
1416.00,0.0602
1415.00,0.0561
1414.00,0.0522
1413.00,0.0488
1412.00,0.0459
1411.00,0.0435
1410.00,0.0416
1409.00,0.0402
1408.00,0.0392
1407.00,0.0386
1406.00,0.0383
1405.00,0.0383
1404.00,0.0384
1403.00,0.0383
1402.00,0.0379
1401.00,0.0373
1400.00,0.0364
1399.00,0.0352
1398.00,0.0338
1397.00,0.0323
1396.00,0.0307
1395.00,0.0291
1394.00,0.0277
1393.00,0.0266
1392.00,0.0256
1391.00,0.0248
1390.00,0.0243
1389.00,0.0240
1388.00,0.0240
1387.00,0.0243
1386.00,0.0248
1385.00,0.0254
1384.00,0.0259
1383.00,0.0265
1382.00,0.0272
1381.00,0.0279
1380.00,0.0284
1379.00,0.0288
1378.00,0.0291
1377.00,0.0293
1376.00,0.0293
1375.00,0.0292
1374.00,0.0292
1373.00,0.0291
1372.00,0.0289
1371.00,0.0286
1370.00,0.0284
1369.00,0.0282
1368.00,0.0279
1367.00,0.0276
1366.00,0.0274
1365.00,0.0274
1364.00,0.0276
1363.00,0.0279
1362.00,0.0281
1361.00,0.0282
1360.00,0.0279
1359.00,0.0273
1358.00,0.0265
1357.00,0.0255
1356.00,0.0244
1355.00,0.0233
1354.00,0.0224
1353.00,0.0215
1352.00,0.0208
1351.00,0.0203
1350.00,0.0199
1349.00,0.0195
1348.00,0.0192
1347.00,0.0189
1346.00,0.0187
1345.00,0.0185
1344.00,0.0183
1343.00,0.0182
1342.00,0.0181
1341.00,0.0180
1340.00,0.0181
1339.00,0.0183
1338.00,0.0185
1337.00,0.0187
1336.00,0.0189
1335.00,0.0191
1334.00,0.0194
1333.00,0.0197
1332.00,0.0200
1331.00,0.0203
1330.00,0.0207
1329.00,0.0211
1328.00,0.0216
1327.00,0.0221
1326.00,0.0228
1325.00,0.0235
1324.00,0.0243
1323.00,0.0251
1322.00,0.0259
1321.00,0.0267
1320.00,0.0275
1319.00,0.0281
1318.00,0.0285
1317.00,0.0287
1316.00,0.0287
1315.00,0.0285
1314.00,0.0282
1313.00,0.0278
1312.00,0.0273
1311.00,0.0268
1310.00,0.0264
1309.00,0.0261
1308.00,0.0259
1307.00,0.0258
1306.00,0.0259
1305.00,0.0262
1304.00,0.0266
1303.00,0.0272
1302.00,0.0281
1301.00,0.0293
1300.00,0.0307
1299.00,0.0326
1298.00,0.0350
1297.00,0.0379
1296.00,0.0412
1295.00,0.0449
1294.00,0.0490
1293.00,0.0534
1292.00,0.0580
1291.00,0.0626
1290.00,0.0672
1289.00,0.0715
1288.00,0.0753
1287.00,0.0783
1286.00,0.0805
1285.00,0.0816
1284.00,0.0818
1283.00,0.0809
1282.00,0.0794
1281.00,0.0775
1280.00,0.0755
1279.00,0.0738
1278.00,0.0726
1277.00,0.0718
1276.00,0.0716
1275.00,0.0718
1274.00,0.0724
1273.00,0.0731
1272.00,0.0738
1271.00,0.0740
1270.00,0.0738
1269.00,0.0729
1268.00,0.0715
1267.00,0.0695
1266.00,0.0671
1265.00,0.0645
1264.00,0.0616
1263.00,0.0587
1262.00,0.0557
1261.00,0.0528
1260.00,0.0501
1259.00,0.0476
1258.00,0.0453
1257.00,0.0432
1256.00,0.0413
1255.00,0.0396
1254.00,0.0382
1253.00,0.0370
1252.00,0.0359
1251.00,0.0351
1250.00,0.0346
1249.00,0.0342
1248.00,0.0341
1247.00,0.0343
1246.00,0.0346
1245.00,0.0352
1244.00,0.0358
1243.00,0.0364
1242.00,0.0370
1241.00,0.0375
1240.00,0.0380
1239.00,0.0384
1238.00,0.0389
1237.00,0.0393
1236.00,0.0397
1235.00,0.0401
1234.00,0.0405
1233.00,0.0409
1232.00,0.0411
1231.00,0.0413
1230.00,0.0414
1229.00,0.0414
1228.00,0.0414
1227.00,0.0413
1226.00,0.0413
1225.00,0.0412
1224.00,0.0412
1223.00,0.0412
1222.00,0.0412
1221.00,0.0412
1220.00,0.0411
1219.00,0.0410
1218.00,0.0407
1217.00,0.0403
1216.00,0.0396
1215.00,0.0387
1214.00,0.0377
1213.00,0.0366
1212.00,0.0355
1211.00,0.0344
1210.00,0.0333
1209.00,0.0324
1208.00,0.0315
1207.00,0.0309
1206.00,0.0304
1205.00,0.0302
1204.00,0.0300
1203.00,0.0301
1202.00,0.0304
1201.00,0.0308
1200.00,0.0313
1199.00,0.0318
1198.00,0.0324
1197.00,0.0331
1196.00,0.0336
1195.00,0.0340
1194.00,0.0342
1193.00,0.0340
1192.00,0.0334
1191.00,0.0326
1190.00,0.0317
1189.00,0.0308
1188.00,0.0299
1187.00,0.0290
1186.00,0.0282
1185.00,0.0274
1184.00,0.0268
1183.00,0.0262
1182.00,0.0258
1181.00,0.0255
1180.00,0.0252
1179.00,0.0251
1178.00,0.0251
1177.00,0.0252
1176.00,0.0254
1175.00,0.0255
1174.00,0.0257
1173.00,0.0259
1172.00,0.0261
1171.00,0.0262
1170.00,0.0263
1169.00,0.0264
1168.00,0.0263
1167.00,0.0263
1166.00,0.0262
1165.00,0.0262
1164.00,0.0262
1163.00,0.0264
1162.00,0.0269
1161.00,0.0274
1160.00,0.0281
1159.00,0.0288
1158.00,0.0293
1157.00,0.0297
1156.00,0.0297
1155.00,0.0295
1154.00,0.0290
1153.00,0.0283
1152.00,0.0275
1151.00,0.0265
1150.00,0.0255
1149.00,0.0246
1148.00,0.0236
1147.00,0.0226
1146.00,0.0217
1145.00,0.0209
1144.00,0.0202
1143.00,0.0196
1142.00,0.0191
1141.00,0.0187
1140.00,0.0184
1139.00,0.0182
1138.00,0.0182
1137.00,0.0185
1136.00,0.0191
1135.00,0.0201
1134.00,0.0214
1133.00,0.0228
1132.00,0.0242
1131.00,0.0253
1130.00,0.0259
1129.00,0.0259
1128.00,0.0253
1127.00,0.0242
1126.00,0.0230
1125.00,0.0217
1124.00,0.0206
1123.00,0.0197
1122.00,0.0191
1121.00,0.0186
1120.00,0.0181
1119.00,0.0178
1118.00,0.0176
1117.00,0.0175
1116.00,0.0174
1115.00,0.0173
1114.00,0.0173
1113.00,0.0172
1112.00,0.0172
1111.00,0.0172
1110.00,0.0172
1109.00,0.0173
1108.00,0.0174
1107.00,0.0177
1106.00,0.0180
1105.00,0.0185
1104.00,0.0189
1103.00,0.0194
1102.00,0.0199
1101.00,0.0202
1100.00,0.0202
1099.00,0.0201
1098.00,0.0199
1097.00,0.0197
1096.00,0.0193
1095.00,0.0189
1094.00,0.0186
1093.00,0.0183
1092.00,0.0180
1091.00,0.0178
1090.00,0.0177
1089.00,0.0176
1088.00,0.0174
1087.00,0.0173
1086.00,0.0173
1085.00,0.0174
1084.00,0.0174
1083.00,0.0175
1082.00,0.0177
1081.00,0.0179
1080.00,0.0182
1079.00,0.0185
1078.00,0.0189
1077.00,0.0194
1076.00,0.0199
1075.00,0.0204
1074.00,0.0210
1073.00,0.0216
1072.00,0.0222
1071.00,0.0228
1070.00,0.0237
1069.00,0.0247
1068.00,0.0259
1067.00,0.0274
1066.00,0.0291
1065.00,0.0311
1064.00,0.0331
1063.00,0.0353
1062.00,0.0376
1061.00,0.0397
1060.00,0.0414
1059.00,0.0426
1058.00,0.0433
1057.00,0.0432
1056.00,0.0423
1055.00,0.0408
1054.00,0.0387
1053.00,0.0364
1052.00,0.0340
1051.00,0.0319
1050.00,0.0300
1049.00,0.0284
1048.00,0.0269
1047.00,0.0258
1046.00,0.0249
1045.00,0.0243
1044.00,0.0237
1043.00,0.0234
1042.00,0.0231
1041.00,0.0229
1040.00,0.0227
1039.00,0.0226
1038.00,0.0226
1037.00,0.0227
1036.00,0.0228
1035.00,0.0231
1034.00,0.0235
1033.00,0.0240
1032.00,0.0244
1031.00,0.0247
1030.00,0.0248
1029.00,0.0247
1028.00,0.0244
1027.00,0.0241
1026.00,0.0237
1025.00,0.0234
1024.00,0.0231
1023.00,0.0230
1022.00,0.0230
1021.00,0.0230
1020.00,0.0231
1019.00,0.0233
1018.00,0.0234
1017.00,0.0234
1016.00,0.0231
1015.00,0.0227
1014.00,0.0222
1013.00,0.0217
1012.00,0.0213
1011.00,0.0210
1010.00,0.0209
1009.00,0.0208
1008.00,0.0210
1007.00,0.0213
1006.00,0.0218
1005.00,0.0223
1004.00,0.0227
1003.00,0.0229
1002.00,0.0230
1001.00,0.0229
1000.00,0.0227
999.00,0.0223
998.00,0.0219
997.00,0.0215
996.00,0.0211
995.00,0.0208
994.00,0.0205
993.00,0.0201
992.00,0.0197
991.00,0.0192
990.00,0.0188
989.00,0.0185
988.00,0.0182
987.00,0.0179
986.00,0.0177
985.00,0.0174
984.00,0.0171
983.00,0.0169
982.00,0.0168
981.00,0.0168
980.00,0.0167
979.00,0.0167
978.00,0.0167
977.00,0.0166
976.00,0.0165
975.00,0.0163
974.00,0.0162
973.00,0.0161
972.00,0.0159
971.00,0.0157
970.00,0.0155
969.00,0.0153
968.00,0.0150
967.00,0.0147
966.00,0.0146
965.00,0.0143
964.00,0.0140
963.00,0.0136
962.00,0.0131
961.00,0.0123
960.00,0.0114
959.00,0.0104
958.00,0.0094
957.00,0.0084
956.00,0.0075
955.00,0.0070
954.00,0.0066
953.00,0.0065
952.00,0.0067
951.00,0.0070
950.00,0.0076
949.00,0.0084
948.00,0.0090
947.00,0.0097
946.00,0.0104
945.00,0.0111
944.00,0.0118
943.00,0.0124
942.00,0.0130
941.00,0.0136
940.00,0.0141
939.00,0.0148
938.00,0.0155
937.00,0.0162
936.00,0.0169
935.00,0.0176
934.00,0.0182
933.00,0.0186
932.00,0.0188
931.00,0.0187
930.00,0.0186
929.00,0.0184
928.00,0.0183
927.00,0.0182
926.00,0.0182
925.00,0.0181
924.00,0.0179
923.00,0.0177
922.00,0.0175
921.00,0.0172
920.00,0.0169
919.00,0.0167
918.00,0.0166
917.00,0.0165
916.00,0.0164
915.00,0.0162
914.00,0.0161
913.00,0.0160
912.00,0.0159
911.00,0.0158
910.00,0.0159
909.00,0.0161
908.00,0.0162
907.00,0.0164
906.00,0.0167
905.00,0.0170
904.00,0.0173
903.00,0.0177
902.00,0.0182
901.00,0.0187
900.00,0.0190
899.00,0.0194
898.00,0.0196
897.00,0.0198
896.00,0.0197
895.00,0.0195
894.00,0.0193
893.00,0.0190
892.00,0.0186
891.00,0.0183
890.00,0.0180
889.00,0.0178
888.00,0.0176
887.00,0.0174
886.00,0.0174
885.00,0.0174
884.00,0.0175
883.00,0.0176
882.00,0.0179
881.00,0.0181
880.00,0.0184
879.00,0.0188
878.00,0.0194
877.00,0.0202
876.00,0.0209
875.00,0.0216
874.00,0.0222
873.00,0.0227
872.00,0.0229
871.00,0.0232
870.00,0.0234
869.00,0.0236
868.00,0.0237
867.00,0.0237
866.00,0.0239
865.00,0.0241
864.00,0.0242
863.00,0.0243
862.00,0.0244
861.00,0.0246
860.00,0.0247
859.00,0.0248
858.00,0.0251
857.00,0.0254
856.00,0.0258
855.00,0.0263
854.00,0.0268
853.00,0.0273
852.00,0.0279
851.00,0.0284
850.00,0.0290
849.00,0.0296
848.00,0.0300
847.00,0.0304
846.00,0.0307
845.00,0.0308
844.00,0.0309
843.00,0.0309
842.00,0.0309
841.00,0.0308
840.00,0.0305
839.00,0.0303
838.00,0.0303
837.00,0.0303
836.00,0.0304
835.00,0.0304
834.00,0.0304
833.00,0.0304
832.00,0.0303
831.00,0.0303
830.00,0.0304
829.00,0.0305
828.00,0.0304
827.00,0.0302
826.00,0.0301
825.00,0.0299
824.00,0.0295
823.00,0.0292
822.00,0.0290
821.00,0.0287
820.00,0.0284
819.00,0.0282
818.00,0.0282
817.00,0.0282
816.00,0.0282
815.00,0.0281
814.00,0.0280
813.00,0.0277
812.00,0.0271
811.00,0.0263
810.00,0.0255
809.00,0.0246
808.00,0.0236
807.00,0.0227
806.00,0.0218
805.00,0.0210
804.00,0.0201
803.00,0.0194
802.00,0.0190
801.00,0.0186
800.00,0.0183
799.00,0.0180
798.00,0.0179
797.00,0.0179
796.00,0.0178
795.00,0.0177
794.00,0.0177
793.00,0.0176
792.00,0.0175
791.00,0.0175
790.00,0.0176
789.00,0.0177
788.00,0.0177
787.00,0.0176
786.00,0.0176
785.00,0.0176
784.00,0.0177
783.00,0.0178
782.00,0.0181
781.00,0.0184
780.00,0.0186
779.00,0.0188
778.00,0.0190
777.00,0.0191
776.00,0.0190
775.00,0.0189
774.00,0.0189
773.00,0.0188
772.00,0.0186
771.00,0.0186
770.00,0.0186
769.00,0.0187
768.00,0.0189
767.00,0.0190
766.00,0.0192
765.00,0.0194
764.00,0.0196
763.00,0.0198
762.00,0.0201
761.00,0.0203
760.00,0.0205
759.00,0.0208
758.00,0.0212
757.00,0.0215
756.00,0.0218
755.00,0.0221
754.00,0.0226
753.00,0.0230
752.00,0.0234
751.00,0.0238
750.00,0.0243
749.00,0.0246
748.00,0.0250
747.00,0.0254
746.00,0.0259
745.00,0.0264
744.00,0.0268
743.00,0.0274
742.00,0.0283
741.00,0.0292
740.00,0.0300
739.00,0.0309
738.00,0.0317
737.00,0.0323
736.00,0.0326
735.00,0.0325
734.00,0.0322
733.00,0.0316
732.00,0.0308
731.00,0.0299
730.00,0.0291
729.00,0.0283
728.00,0.0275
727.00,0.0268
726.00,0.0261
725.00,0.0254
724.00,0.0248
723.00,0.0242
722.00,0.0236
721.00,0.0231
720.00,0.0225
719.00,0.0222
718.00,0.0221
717.00,0.0221
716.00,0.0220
715.00,0.0218
714.00,0.0217
713.00,0.0215
712.00,0.0212
711.00,0.0211
710.00,0.0210
709.00,0.0209
708.00,0.0207
707.00,0.0206
706.00,0.0206
705.00,0.0206
704.00,0.0206
703.00,0.0205
702.00,0.0205
701.00,0.0205
700.00,0.0206
699.00,0.0209
698.00,0.0214
697.00,0.0219
696.00,0.0224
695.00,0.0230
694.00,0.0236
693.00,0.0241
692.00,0.0244
691.00,0.0247
690.00,0.0250
689.00,0.0252
688.00,0.0253
687.00,0.0253
686.00,0.0253
685.00,0.0253
684.00,0.0252
683.00,0.0252
682.00,0.0252
681.00,0.0253
680.00,0.0255
679.00,0.0257
678.00,0.0259
677.00,0.0261
676.00,0.0263
675.00,0.0265
674.00,0.0270
673.00,0.0275
672.00,0.0279
671.00,0.0282
670.00,0.0285
669.00,0.0289
668.00,0.0297
667.00,0.0308
666.00,0.0320
665.00,0.0328
664.00,0.0334
663.00,0.0341
662.00,0.0349
661.00,0.0359
660.00,0.0367
659.00,0.0376
658.00,0.0384
657.00,0.0392
656.00,0.0399
655.00,0.0406
654.00,0.0415
653.00,0.0423
652.00,0.0429
651.00,0.0434
650.00,0.0437
649.00,0.0440
648.00,0.0440
647.00,0.0439
646.00,0.0436
645.00,0.0431
644.00,0.0424
643.00,0.0417
642.00,0.0411
641.00,0.0403
640.00,0.0395
639.00,0.0386
638.00,0.0378
637.00,0.0370
636.00,0.0362
635.00,0.0355
634.00,0.0351
633.00,0.0347
632.00,0.0341
631.00,0.0336
630.00,0.0333
629.00,0.0330
628.00,0.0327
627.00,0.0325
626.00,0.0325
625.00,0.0324
624.00,0.0322
623.00,0.0319
622.00,0.0317
621.00,0.0314
620.00,0.0311
619.00,0.0308
618.00,0.0307
617.00,0.0305
616.00,0.0302
615.00,0.0299
614.00,0.0300
613.00,0.0301
612.00,0.0302
611.00,0.0305
610.00,0.0308
609.00,0.0310
608.00,0.0310
607.00,0.0312
606.00,0.0315
605.00,0.0319
604.00,0.0320
603.00,0.0323
602.00,0.0326
601.00,0.0328
600.00,0.0329
599.00,0.0330
598.00,0.0332
597.00,0.0333
596.00,0.0331
595.00,0.0329
594.00,0.0330
593.00,0.0332
592.00,0.0333
591.00,0.0336
590.00,0.0343
589.00,0.0353
588.00,0.0364
587.00,0.0377
586.00,0.0394
585.00,0.0410
584.00,0.0423
583.00,0.0434
582.00,0.0444
581.00,0.0451
580.00,0.0457
579.00,0.0462
578.00,0.0467
577.00,0.0470
576.00,0.0469
575.00,0.0466
574.00,0.0466
573.00,0.0467
572.00,0.0468
571.00,0.0469
570.00,0.0468
569.00,0.0464
568.00,0.0458
567.00,0.0454
566.00,0.0452
565.00,0.0450
564.00,0.0445
563.00,0.0439
562.00,0.0434
561.00,0.0429
560.00,0.0423
559.00,0.0419
558.00,0.0417
557.00,0.0414
556.00,0.0408
555.00,0.0402
554.00,0.0397
553.00,0.0392
552.00,0.0385
551.00,0.0380
550.00,0.0377
549.00,0.0374
548.00,0.0370
547.00,0.0366
546.00,0.0363
545.00,0.0359
544.00,0.0352
543.00,0.0346
542.00,0.0343
541.00,0.0341
540.00,0.0340
539.00,0.0341
538.00,0.0346
537.00,0.0352
536.00,0.0356
535.00,0.0362
534.00,0.0370
533.00,0.0374
532.00,0.0373
531.00,0.0370
530.00,0.0369
529.00,0.0368
528.00,0.0365
527.00,0.0361
526.00,0.0359
525.00,0.0357
524.00,0.0351
523.00,0.0345
522.00,0.0339
521.00,0.0333
520.00,0.0328
519.00,0.0328
518.00,0.0332
517.00,0.0335
516.00,0.0334
515.00,0.0330
514.00,0.0328
513.00,0.0326
512.00,0.0323
511.00,0.0322
510.00,0.0328
509.00,0.0335
508.00,0.0342
507.00,0.0349
506.00,0.0352
505.00,0.0348
504.00,0.0338
503.00,0.0330
502.00,0.0328
501.00,0.0328
500.00,0.0327
499.00,0.0325
498.00,0.0327
497.00,0.0328
496.00,0.0325
495.00,0.0324
494.00,0.0326
493.00,0.0328
492.00,0.0328
491.00,0.0328
490.00,0.0331
489.00,0.0332
488.00,0.0329
487.00,0.0326
486.00,0.0326
485.00,0.0324
484.00,0.0320
483.00,0.0320
482.00,0.0327
481.00,0.0333
480.00,0.0335
479.00,0.0334
478.00,0.0335
477.00,0.0334
476.00,0.0329
475.00,0.0328
474.00,0.0334
473.00,0.0344
472.00,0.0349
471.00,0.0349
470.00,0.0347
469.00,0.0342
468.00,0.0335
467.00,0.0332
466.00,0.0337
465.00,0.0342
464.00,0.0340
463.00,0.0338
462.00,0.0339
461.00,0.0338
460.00,0.0332
459.00,0.0326
458.00,0.0326
457.00,0.0324
456.00,0.0316
455.00,0.0309
454.00,0.0308
453.00,0.0311
452.00,0.0312
451.00,0.0314
450.00,0.0317
449.00,0.0318
448.00,0.0314
447.00,0.0312
446.00,0.0317
445.00,0.0321
444.00,0.0319
443.00,0.0317
442.00,0.0318
441.00,0.0316
440.00,0.0305
439.00,0.0294
438.00,0.0289
437.00,0.0287
436.00,0.0284
435.00,0.0284
434.00,0.0288
433.00,0.0290
432.00,0.0287
431.00,0.0287
430.00,0.0294
429.00,0.0298
428.00,0.0293
427.00,0.0289
426.00,0.0293
425.00,0.0295
424.00,0.0288
423.00,0.0278
422.00,0.0272
421.00,0.0262
420.00,0.0245
419.00,0.0238
418.00,0.0248
417.00,0.0257
416.00,0.0254
415.00,0.0254
414.00,0.0268
413.00,0.0282
412.00,0.0282
411.00,0.0277
410.00,0.0278
409.00,0.0280
408.00,0.0275
407.00,0.0273
406.00,0.0282
405.00,0.0284
404.00,0.0271
403.00,0.0263
402.00,0.0278
401.00,0.0296
400.00,0.0294
