Created as New Dataset,Sample 514 By YargerLab Date Thursday, February 19 2026
cm-1,A
4000.00,-0.0084
3999.00,-0.0085
3998.00,-0.0085
3997.00,-0.0085
3996.00,-0.0085
3995.00,-0.0085
3994.00,-0.0085
3993.00,-0.0085
3992.00,-0.0086
3991.00,-0.0086
3990.00,-0.0086
3989.00,-0.0086
3988.00,-0.0085
3987.00,-0.0085
3986.00,-0.0085
3985.00,-0.0085
3984.00,-0.0085
3983.00,-0.0085
3982.00,-0.0085
3981.00,-0.0085
3980.00,-0.0085
3979.00,-0.0085
3978.00,-0.0085
3977.00,-0.0085
3976.00,-0.0085
3975.00,-0.0085
3974.00,-0.0085
3973.00,-0.0085
3972.00,-0.0085
3971.00,-0.0085
3970.00,-0.0085
3969.00,-0.0085
3968.00,-0.0085
3967.00,-0.0084
3966.00,-0.0084
3965.00,-0.0084
3964.00,-0.0084
3963.00,-0.0084
3962.00,-0.0084
3961.00,-0.0084
3960.00,-0.0084
3959.00,-0.0084
3958.00,-0.0084
3957.00,-0.0084
3956.00,-0.0083
3955.00,-0.0083
3954.00,-0.0083
3953.00,-0.0083
3952.00,-0.0083
3951.00,-0.0083
3950.00,-0.0084
3949.00,-0.0084
3948.00,-0.0083
3947.00,-0.0082
3946.00,-0.0082
3945.00,-0.0082
3944.00,-0.0082
3943.00,-0.0083
3942.00,-0.0083
3941.00,-0.0083
3940.00,-0.0083
3939.00,-0.0083
3938.00,-0.0083
3937.00,-0.0083
3936.00,-0.0083
3935.00,-0.0083
3934.00,-0.0083
3933.00,-0.0083
3932.00,-0.0083
3931.00,-0.0082
3930.00,-0.0082
3929.00,-0.0082
3928.00,-0.0082
3927.00,-0.0082
3926.00,-0.0083
3925.00,-0.0083
3924.00,-0.0082
3923.00,-0.0082
3922.00,-0.0082
3921.00,-0.0082
3920.00,-0.0082
3919.00,-0.0082
3918.00,-0.0082
3917.00,-0.0082
3916.00,-0.0082
3915.00,-0.0082
3914.00,-0.0082
3913.00,-0.0082
3912.00,-0.0082
3911.00,-0.0082
3910.00,-0.0082
3909.00,-0.0082
3908.00,-0.0082
3907.00,-0.0082
3906.00,-0.0082
3905.00,-0.0082
3904.00,-0.0082
3903.00,-0.0081
3902.00,-0.0081
3901.00,-0.0081
3900.00,-0.0081
3899.00,-0.0082
3898.00,-0.0082
3897.00,-0.0081
3896.00,-0.0081
3895.00,-0.0081
3894.00,-0.0081
3893.00,-0.0081
3892.00,-0.0081
3891.00,-0.0081
3890.00,-0.0081
3889.00,-0.0080
3888.00,-0.0080
3887.00,-0.0080
3886.00,-0.0080
3885.00,-0.0081
3884.00,-0.0081
3883.00,-0.0080
3882.00,-0.0080
3881.00,-0.0081
3880.00,-0.0081
3879.00,-0.0080
3878.00,-0.0080
3877.00,-0.0080
3876.00,-0.0080
3875.00,-0.0080
3874.00,-0.0080
3873.00,-0.0080
3872.00,-0.0080
3871.00,-0.0081
3870.00,-0.0081
3869.00,-0.0081
3868.00,-0.0081
3867.00,-0.0081
3866.00,-0.0081
3865.00,-0.0080
3864.00,-0.0080
3863.00,-0.0080
3862.00,-0.0079
3861.00,-0.0079
3860.00,-0.0079
3859.00,-0.0079
3858.00,-0.0079
3857.00,-0.0079
3856.00,-0.0079
3855.00,-0.0079
3854.00,-0.0079
3853.00,-0.0079
3852.00,-0.0080
3851.00,-0.0079
3850.00,-0.0079
3849.00,-0.0079
3848.00,-0.0078
3847.00,-0.0077
3846.00,-0.0077
3845.00,-0.0077
3844.00,-0.0078
3843.00,-0.0078
3842.00,-0.0078
3841.00,-0.0078
3840.00,-0.0078
3839.00,-0.0079
3838.00,-0.0079
3837.00,-0.0079
3836.00,-0.0079
3835.00,-0.0079
3834.00,-0.0079
3833.00,-0.0079
3832.00,-0.0079
3831.00,-0.0078
3830.00,-0.0078
3829.00,-0.0077
3828.00,-0.0077
3827.00,-0.0077
3826.00,-0.0078
3825.00,-0.0078
3824.00,-0.0078
3823.00,-0.0078
3822.00,-0.0078
3821.00,-0.0078
3820.00,-0.0078
3819.00,-0.0078
3818.00,-0.0078
3817.00,-0.0079
3816.00,-0.0078
3815.00,-0.0078
3814.00,-0.0077
3813.00,-0.0076
3812.00,-0.0076
3811.00,-0.0076
3810.00,-0.0076
3809.00,-0.0076
3808.00,-0.0076
3807.00,-0.0077
3806.00,-0.0076
3805.00,-0.0076
3804.00,-0.0076
3803.00,-0.0076
3802.00,-0.0077
3801.00,-0.0077
3800.00,-0.0077
3799.00,-0.0077
3798.00,-0.0077
3797.00,-0.0077
3796.00,-0.0076
3795.00,-0.0076
3794.00,-0.0075
3793.00,-0.0075
3792.00,-0.0075
3791.00,-0.0074
3790.00,-0.0074
3789.00,-0.0074
3788.00,-0.0074
3787.00,-0.0074
3786.00,-0.0074
3785.00,-0.0074
3784.00,-0.0074
3783.00,-0.0074
3782.00,-0.0074
3781.00,-0.0075
3780.00,-0.0075
3779.00,-0.0075
3778.00,-0.0075
3777.00,-0.0075
3776.00,-0.0075
3775.00,-0.0075
3774.00,-0.0075
3773.00,-0.0074
3772.00,-0.0074
3771.00,-0.0074
3770.00,-0.0074
3769.00,-0.0073
3768.00,-0.0073
3767.00,-0.0072
3766.00,-0.0072
3765.00,-0.0072
3764.00,-0.0072
3763.00,-0.0073
3762.00,-0.0073
3761.00,-0.0073
3760.00,-0.0073
3759.00,-0.0072
3758.00,-0.0072
3757.00,-0.0072
3756.00,-0.0072
3755.00,-0.0072
3754.00,-0.0073
3753.00,-0.0073
3752.00,-0.0074
3751.00,-0.0074
3750.00,-0.0074
3749.00,-0.0074
3748.00,-0.0074
3747.00,-0.0074
3746.00,-0.0073
3745.00,-0.0073
3744.00,-0.0072
3743.00,-0.0071
3742.00,-0.0071
3741.00,-0.0071
3740.00,-0.0071
3739.00,-0.0071
3738.00,-0.0070
3737.00,-0.0070
3736.00,-0.0070
3735.00,-0.0071
3734.00,-0.0072
3733.00,-0.0072
3732.00,-0.0071
3731.00,-0.0071
3730.00,-0.0071
3729.00,-0.0070
3728.00,-0.0070
3727.00,-0.0070
3726.00,-0.0070
3725.00,-0.0071
3724.00,-0.0071
3723.00,-0.0071
3722.00,-0.0071
3721.00,-0.0071
3720.00,-0.0070
3719.00,-0.0070
3718.00,-0.0070
3717.00,-0.0070
3716.00,-0.0070
3715.00,-0.0070
3714.00,-0.0070
3713.00,-0.0070
3712.00,-0.0071
3711.00,-0.0071
3710.00,-0.0072
3709.00,-0.0072
3708.00,-0.0072
3707.00,-0.0073
3706.00,-0.0073
3705.00,-0.0072
3704.00,-0.0072
3703.00,-0.0071
3702.00,-0.0071
3701.00,-0.0070
3700.00,-0.0070
3699.00,-0.0070
3698.00,-0.0070
3697.00,-0.0070
3696.00,-0.0069
3695.00,-0.0069
3694.00,-0.0069
3693.00,-0.0070
3692.00,-0.0070
3691.00,-0.0071
3690.00,-0.0071
3689.00,-0.0072
3688.00,-0.0071
3687.00,-0.0070
3686.00,-0.0070
3685.00,-0.0069
3684.00,-0.0068
3683.00,-0.0068
3682.00,-0.0068
3681.00,-0.0068
3680.00,-0.0069
3679.00,-0.0069
3678.00,-0.0069
3677.00,-0.0070
3676.00,-0.0070
3675.00,-0.0069
3674.00,-0.0069
3673.00,-0.0069
3672.00,-0.0069
3671.00,-0.0069
3670.00,-0.0068
3669.00,-0.0068
3668.00,-0.0068
3667.00,-0.0068
3666.00,-0.0068
3665.00,-0.0068
3664.00,-0.0068
3663.00,-0.0067
3662.00,-0.0066
3661.00,-0.0066
3660.00,-0.0066
3659.00,-0.0066
3658.00,-0.0066
3657.00,-0.0066
3656.00,-0.0066
3655.00,-0.0066
3654.00,-0.0065
3653.00,-0.0065
3652.00,-0.0065
3651.00,-0.0066
3650.00,-0.0065
3649.00,-0.0065
3648.00,-0.0064
3647.00,-0.0063
3646.00,-0.0063
3645.00,-0.0064
3644.00,-0.0064
3643.00,-0.0064
3642.00,-0.0064
3641.00,-0.0064
3640.00,-0.0063
3639.00,-0.0063
3638.00,-0.0062
3637.00,-0.0062
3636.00,-0.0062
3635.00,-0.0063
3634.00,-0.0063
3633.00,-0.0062
3632.00,-0.0062
3631.00,-0.0062
3630.00,-0.0062
3629.00,-0.0061
3628.00,-0.0061
3627.00,-0.0060
3626.00,-0.0060
3625.00,-0.0059
3624.00,-0.0059
3623.00,-0.0060
3622.00,-0.0060
3621.00,-0.0060
3620.00,-0.0060
3619.00,-0.0060
3618.00,-0.0060
3617.00,-0.0060
3616.00,-0.0060
3615.00,-0.0060
3614.00,-0.0060
3613.00,-0.0059
3612.00,-0.0059
3611.00,-0.0059
3610.00,-0.0059
3609.00,-0.0059
3608.00,-0.0058
3607.00,-0.0058
3606.00,-0.0057
3605.00,-0.0057
3604.00,-0.0057
3603.00,-0.0057
3602.00,-0.0057
3601.00,-0.0057
3600.00,-0.0057
3599.00,-0.0056
3598.00,-0.0056
3597.00,-0.0056
3596.00,-0.0057
3595.00,-0.0057
3594.00,-0.0056
3593.00,-0.0055
3592.00,-0.0054
3591.00,-0.0054
3590.00,-0.0053
3589.00,-0.0053
3588.00,-0.0053
3587.00,-0.0053
3586.00,-0.0054
3585.00,-0.0053
3584.00,-0.0053
3583.00,-0.0053
3582.00,-0.0053
3581.00,-0.0052
3580.00,-0.0052
3579.00,-0.0051
3578.00,-0.0050
3577.00,-0.0050
3576.00,-0.0050
3575.00,-0.0050
3574.00,-0.0049
3573.00,-0.0049
3572.00,-0.0048
3571.00,-0.0048
3570.00,-0.0048
3569.00,-0.0048
3568.00,-0.0047
3567.00,-0.0047
3566.00,-0.0047
3565.00,-0.0047
3564.00,-0.0048
3563.00,-0.0048
3562.00,-0.0048
3561.00,-0.0048
3560.00,-0.0047
3559.00,-0.0047
3558.00,-0.0047
3557.00,-0.0046
3556.00,-0.0046
3555.00,-0.0046
3554.00,-0.0045
3553.00,-0.0045
3552.00,-0.0044
3551.00,-0.0044
3550.00,-0.0044
3549.00,-0.0043
3548.00,-0.0043
3547.00,-0.0043
3546.00,-0.0043
3545.00,-0.0043
3544.00,-0.0043
3543.00,-0.0043
3542.00,-0.0043
3541.00,-0.0043
3540.00,-0.0043
3539.00,-0.0043
3538.00,-0.0043
3537.00,-0.0043
3536.00,-0.0042
3535.00,-0.0042
3534.00,-0.0042
3533.00,-0.0041
3532.00,-0.0041
3531.00,-0.0040
3530.00,-0.0039
3529.00,-0.0038
3528.00,-0.0038
3527.00,-0.0037
3526.00,-0.0036
3525.00,-0.0036
3524.00,-0.0036
3523.00,-0.0036
3522.00,-0.0037
3521.00,-0.0037
3520.00,-0.0037
3519.00,-0.0037
3518.00,-0.0037
3517.00,-0.0037
3516.00,-0.0037
3515.00,-0.0036
3514.00,-0.0036
3513.00,-0.0036
3512.00,-0.0035
3511.00,-0.0035
3510.00,-0.0035
3509.00,-0.0034
3508.00,-0.0034
3507.00,-0.0033
3506.00,-0.0033
3505.00,-0.0033
3504.00,-0.0033
3503.00,-0.0034
3502.00,-0.0033
3501.00,-0.0033
3500.00,-0.0032
3499.00,-0.0032
3498.00,-0.0032
3497.00,-0.0032
3496.00,-0.0032
3495.00,-0.0031
3494.00,-0.0031
3493.00,-0.0030
3492.00,-0.0030
3491.00,-0.0030
3490.00,-0.0030
3489.00,-0.0030
3488.00,-0.0030
3487.00,-0.0030
3486.00,-0.0030
3485.00,-0.0029
3484.00,-0.0029
3483.00,-0.0029
3482.00,-0.0028
3481.00,-0.0028
3480.00,-0.0028
3479.00,-0.0028
3478.00,-0.0028
3477.00,-0.0028
3476.00,-0.0027
3475.00,-0.0027
3474.00,-0.0027
3473.00,-0.0027
3472.00,-0.0027
3471.00,-0.0027
3470.00,-0.0027
3469.00,-0.0026
3468.00,-0.0026
3467.00,-0.0025
3466.00,-0.0024
3465.00,-0.0024
3464.00,-0.0024
3463.00,-0.0024
3462.00,-0.0024
3461.00,-0.0024
3460.00,-0.0023
3459.00,-0.0023
3458.00,-0.0022
3457.00,-0.0021
3456.00,-0.0021
3455.00,-0.0021
3454.00,-0.0021
3453.00,-0.0021
3452.00,-0.0021
3451.00,-0.0021
3450.00,-0.0021
3449.00,-0.0020
3448.00,-0.0019
3447.00,-0.0019
3446.00,-0.0019
3445.00,-0.0018
3444.00,-0.0018
3443.00,-0.0018
3442.00,-0.0019
3441.00,-0.0019
3440.00,-0.0019
3439.00,-0.0019
3438.00,-0.0019
3437.00,-0.0018
3436.00,-0.0018
3435.00,-0.0017
3434.00,-0.0016
3433.00,-0.0016
3432.00,-0.0016
3431.00,-0.0016
3430.00,-0.0016
3429.00,-0.0016
3428.00,-0.0016
3427.00,-0.0015
3426.00,-0.0015
3425.00,-0.0014
3424.00,-0.0014
3423.00,-0.0013
3422.00,-0.0013
3421.00,-0.0013
3420.00,-0.0013
3419.00,-0.0013
3418.00,-0.0013
3417.00,-0.0013
3416.00,-0.0012
3415.00,-0.0012
3414.00,-0.0012
3413.00,-0.0012
3412.00,-0.0011
3411.00,-0.0011
3410.00,-0.0011
3409.00,-0.0011
3408.00,-0.0011
3407.00,-0.0010
3406.00,-0.0010
3405.00,-0.0010
3404.00,-0.0010
3403.00,-0.0011
3402.00,-0.0010
3401.00,-0.0010
3400.00,-0.0009
3399.00,-0.0008
3398.00,-0.0007
3397.00,-0.0006
3396.00,-0.0006
3395.00,-0.0006
3394.00,-0.0007
3393.00,-0.0007
3392.00,-0.0007
3391.00,-0.0005
3390.00,-0.0004
3389.00,-0.0003
3388.00,-0.0002
3387.00,-0.0001
3386.00,-0.0000
3385.00,0.0000
3384.00,0.0001
3383.00,0.0001
3382.00,0.0001
3381.00,0.0002
3380.00,0.0002
3379.00,0.0002
3378.00,0.0003
3377.00,0.0003
3376.00,0.0004
3375.00,0.0004
3374.00,0.0005
3373.00,0.0004
3372.00,0.0004
3371.00,0.0003
3370.00,0.0002
3369.00,0.0002
3368.00,0.0003
3367.00,0.0005
3366.00,0.0007
3365.00,0.0009
3364.00,0.0011
3363.00,0.0011
3362.00,0.0012
3361.00,0.0012
3360.00,0.0012
3359.00,0.0013
3358.00,0.0014
3357.00,0.0015
3356.00,0.0015
3355.00,0.0016
3354.00,0.0015
3353.00,0.0015
3352.00,0.0014
3351.00,0.0014
3350.00,0.0015
3349.00,0.0017
3348.00,0.0018
3347.00,0.0019
3346.00,0.0019
3345.00,0.0020
3344.00,0.0020
3343.00,0.0020
3342.00,0.0019
3341.00,0.0019
3340.00,0.0019
3339.00,0.0019
3338.00,0.0020
3337.00,0.0021
3336.00,0.0022
3335.00,0.0023
3334.00,0.0024
3333.00,0.0025
3332.00,0.0026
3331.00,0.0026
3330.00,0.0026
3329.00,0.0026
3328.00,0.0026
3327.00,0.0026
3326.00,0.0026
3325.00,0.0027
3324.00,0.0028
3323.00,0.0029
3322.00,0.0030
3321.00,0.0031
3320.00,0.0032
3319.00,0.0033
3318.00,0.0034
3317.00,0.0034
3316.00,0.0034
3315.00,0.0034
3314.00,0.0035
3313.00,0.0035
3312.00,0.0035
3311.00,0.0034
3310.00,0.0032
3309.00,0.0031
3308.00,0.0030
3307.00,0.0030
3306.00,0.0031
3305.00,0.0033
3304.00,0.0035
3303.00,0.0037
3302.00,0.0038
3301.00,0.0038
3300.00,0.0039
3299.00,0.0039
3298.00,0.0039
3297.00,0.0039
3296.00,0.0039
3295.00,0.0039
3294.00,0.0039
3293.00,0.0040
3292.00,0.0041
3291.00,0.0043
3290.00,0.0044
3289.00,0.0045
3288.00,0.0046
3287.00,0.0046
3286.00,0.0047
3285.00,0.0047
3284.00,0.0048
3283.00,0.0049
3282.00,0.0049
3281.00,0.0049
3280.00,0.0049
3279.00,0.0049
3278.00,0.0049
3277.00,0.0049
3276.00,0.0049
3275.00,0.0049
3274.00,0.0049
3273.00,0.0049
3272.00,0.0048
3271.00,0.0049
3270.00,0.0049
3269.00,0.0050
3268.00,0.0052
3267.00,0.0053
3266.00,0.0053
3265.00,0.0054
3264.00,0.0055
3263.00,0.0056
3262.00,0.0057
3261.00,0.0057
3260.00,0.0057
3259.00,0.0057
3258.00,0.0056
3257.00,0.0055
3256.00,0.0056
3255.00,0.0057
3254.00,0.0058
3253.00,0.0059
3252.00,0.0060
3251.00,0.0060
3250.00,0.0060
3249.00,0.0060
3248.00,0.0060
3247.00,0.0060
3246.00,0.0060
3245.00,0.0061
3244.00,0.0061
3243.00,0.0062
3242.00,0.0062
3241.00,0.0063
3240.00,0.0063
3239.00,0.0063
3238.00,0.0063
3237.00,0.0062
3236.00,0.0062
3235.00,0.0061
3234.00,0.0062
3233.00,0.0062
3232.00,0.0064
3231.00,0.0065
3230.00,0.0066
3229.00,0.0066
3228.00,0.0066
3227.00,0.0067
3226.00,0.0067
3225.00,0.0067
3224.00,0.0067
3223.00,0.0067
3222.00,0.0067
3221.00,0.0068
3220.00,0.0068
3219.00,0.0068
3218.00,0.0069
3217.00,0.0069
3216.00,0.0069
3215.00,0.0070
3214.00,0.0070
3213.00,0.0070
3212.00,0.0070
3211.00,0.0070
3210.00,0.0070
3209.00,0.0070
3208.00,0.0070
3207.00,0.0071
3206.00,0.0071
3205.00,0.0071
3204.00,0.0071
3203.00,0.0071
3202.00,0.0071
3201.00,0.0071
3200.00,0.0072
3199.00,0.0072
3198.00,0.0072
3197.00,0.0073
3196.00,0.0073
3195.00,0.0073
3194.00,0.0073
3193.00,0.0073
3192.00,0.0073
3191.00,0.0073
3190.00,0.0073
3189.00,0.0074
3188.00,0.0074
3187.00,0.0074
3186.00,0.0074
3185.00,0.0075
3184.00,0.0075
3183.00,0.0075
3182.00,0.0075
3181.00,0.0075
3180.00,0.0075
3179.00,0.0075
3178.00,0.0075
3177.00,0.0075
3176.00,0.0075
3175.00,0.0076
3174.00,0.0076
3173.00,0.0076
3172.00,0.0076
3171.00,0.0076
3170.00,0.0076
3169.00,0.0076
3168.00,0.0076
3167.00,0.0077
3166.00,0.0077
3165.00,0.0077
3164.00,0.0077
3163.00,0.0077
3162.00,0.0077
3161.00,0.0077
3160.00,0.0077
3159.00,0.0077
3158.00,0.0077
3157.00,0.0076
3156.00,0.0076
3155.00,0.0075
3154.00,0.0075
3153.00,0.0074
3152.00,0.0074
3151.00,0.0075
3150.00,0.0075
3149.00,0.0075
3148.00,0.0075
3147.00,0.0075
3146.00,0.0076
3145.00,0.0076
3144.00,0.0076
3143.00,0.0076
3142.00,0.0075
3141.00,0.0074
3140.00,0.0074
3139.00,0.0074
3138.00,0.0074
3137.00,0.0075
3136.00,0.0075
3135.00,0.0075
3134.00,0.0075
3133.00,0.0075
3132.00,0.0074
3131.00,0.0074
3130.00,0.0074
3129.00,0.0075
3128.00,0.0075
3127.00,0.0075
3126.00,0.0075
3125.00,0.0075
3124.00,0.0074
3123.00,0.0074
3122.00,0.0073
3121.00,0.0072
3120.00,0.0072
3119.00,0.0071
3118.00,0.0071
3117.00,0.0072
3116.00,0.0072
3115.00,0.0073
3114.00,0.0073
3113.00,0.0073
3112.00,0.0073
3111.00,0.0072
3110.00,0.0072
3109.00,0.0072
3108.00,0.0071
3107.00,0.0071
3106.00,0.0071
3105.00,0.0070
3104.00,0.0070
3103.00,0.0070
3102.00,0.0069
3101.00,0.0069
3100.00,0.0070
3099.00,0.0070
3098.00,0.0071
3097.00,0.0071
3096.00,0.0072
3095.00,0.0072
3094.00,0.0072
3093.00,0.0071
3092.00,0.0070
3091.00,0.0070
3090.00,0.0070
3089.00,0.0070
3088.00,0.0070
3087.00,0.0070
3086.00,0.0071
3085.00,0.0071
3084.00,0.0071
3083.00,0.0071
3082.00,0.0071
3081.00,0.0071
3080.00,0.0071
3079.00,0.0071
3078.00,0.0072
3077.00,0.0072
3076.00,0.0073
3075.00,0.0073
3074.00,0.0073
3073.00,0.0073
3072.00,0.0073
3071.00,0.0072
3070.00,0.0072
3069.00,0.0071
3068.00,0.0070
3067.00,0.0069
3066.00,0.0068
3065.00,0.0068
3064.00,0.0069
3063.00,0.0069
3062.00,0.0069
3061.00,0.0069
3060.00,0.0068
3059.00,0.0068
3058.00,0.0068
3057.00,0.0067
3056.00,0.0067
3055.00,0.0067
3054.00,0.0067
3053.00,0.0066
3052.00,0.0066
3051.00,0.0066
3050.00,0.0066
3049.00,0.0065
3048.00,0.0065
3047.00,0.0064
3046.00,0.0063
3045.00,0.0063
3044.00,0.0063
3043.00,0.0063
3042.00,0.0063
3041.00,0.0063
3040.00,0.0063
3039.00,0.0064
3038.00,0.0063
3037.00,0.0063
3036.00,0.0062
3035.00,0.0062
3034.00,0.0062
3033.00,0.0062
3032.00,0.0062
3031.00,0.0061
3030.00,0.0061
3029.00,0.0061
3028.00,0.0060
3027.00,0.0060
3026.00,0.0059
3025.00,0.0058
3024.00,0.0058
3023.00,0.0057
3022.00,0.0057
3021.00,0.0057
3020.00,0.0056
3019.00,0.0056
3018.00,0.0056
3017.00,0.0055
3016.00,0.0055
3015.00,0.0054
3014.00,0.0054
3013.00,0.0054
3012.00,0.0055
3011.00,0.0056
3010.00,0.0057
3009.00,0.0059
3008.00,0.0060
3007.00,0.0062
3006.00,0.0063
3005.00,0.0064
3004.00,0.0065
3003.00,0.0067
3002.00,0.0069
3001.00,0.0071
3000.00,0.0073
2999.00,0.0076
2998.00,0.0079
2997.00,0.0083
2996.00,0.0087
2995.00,0.0091
2994.00,0.0095
2993.00,0.0100
2992.00,0.0105
2991.00,0.0110
2990.00,0.0116
2989.00,0.0121
2988.00,0.0127
2987.00,0.0132
2986.00,0.0136
2985.00,0.0140
2984.00,0.0143
2983.00,0.0146
2982.00,0.0149
2981.00,0.0153
2980.00,0.0156
2979.00,0.0160
2978.00,0.0163
2977.00,0.0166
2976.00,0.0168
2975.00,0.0170
2974.00,0.0172
2973.00,0.0175
2972.00,0.0177
2971.00,0.0180
2970.00,0.0183
2969.00,0.0186
2968.00,0.0189
2967.00,0.0192
2966.00,0.0196
2965.00,0.0199
2964.00,0.0203
2963.00,0.0207
2962.00,0.0212
2961.00,0.0216
2960.00,0.0221
2959.00,0.0225
2958.00,0.0228
2957.00,0.0230
2956.00,0.0232
2955.00,0.0233
2954.00,0.0234
2953.00,0.0234
2952.00,0.0234
2951.00,0.0234
2950.00,0.0233
2949.00,0.0232
2948.00,0.0231
2947.00,0.0230
2946.00,0.0230
2945.00,0.0230
2944.00,0.0232
2943.00,0.0235
2942.00,0.0239
2941.00,0.0243
2940.00,0.0246
2939.00,0.0250
2938.00,0.0255
2937.00,0.0260
2936.00,0.0265
2935.00,0.0270
2934.00,0.0275
2933.00,0.0279
2932.00,0.0282
2931.00,0.0285
2930.00,0.0289
2929.00,0.0292
2928.00,0.0295
2927.00,0.0298
2926.00,0.0299
2925.00,0.0299
2924.00,0.0297
2923.00,0.0295
2922.00,0.0293
2921.00,0.0290
2920.00,0.0286
2919.00,0.0281
2918.00,0.0275
2917.00,0.0268
2916.00,0.0262
2915.00,0.0256
2914.00,0.0250
2913.00,0.0244
2912.00,0.0239
2911.00,0.0233
2910.00,0.0228
2909.00,0.0222
2908.00,0.0217
2907.00,0.0212
2906.00,0.0207
2905.00,0.0202
2904.00,0.0198
2903.00,0.0195
2902.00,0.0193
2901.00,0.0190
2900.00,0.0188
2899.00,0.0187
2898.00,0.0185
2897.00,0.0183
2896.00,0.0182
2895.00,0.0181
2894.00,0.0180
2893.00,0.0179
2892.00,0.0178
2891.00,0.0177
2890.00,0.0176
2889.00,0.0175
2888.00,0.0174
2887.00,0.0174
2886.00,0.0173
2885.00,0.0173
2884.00,0.0172
2883.00,0.0173
2882.00,0.0173
2881.00,0.0174
2880.00,0.0176
2879.00,0.0178
2878.00,0.0180
2877.00,0.0182
2876.00,0.0184
2875.00,0.0186
2874.00,0.0189
2873.00,0.0192
2872.00,0.0195
2871.00,0.0198
2870.00,0.0200
2869.00,0.0201
2868.00,0.0201
2867.00,0.0201
2866.00,0.0201
2865.00,0.0201
2864.00,0.0201
2863.00,0.0203
2862.00,0.0205
2861.00,0.0207
2860.00,0.0209
2859.00,0.0211
2858.00,0.0212
2857.00,0.0212
2856.00,0.0210
2855.00,0.0208
2854.00,0.0204
2853.00,0.0199
2852.00,0.0193
2851.00,0.0187
2850.00,0.0181
2849.00,0.0174
2848.00,0.0168
2847.00,0.0161
2846.00,0.0155
2845.00,0.0149
2844.00,0.0143
2843.00,0.0137
2842.00,0.0131
2841.00,0.0125
2840.00,0.0120
2839.00,0.0115
2838.00,0.0111
2837.00,0.0108
2836.00,0.0105
2835.00,0.0102
2834.00,0.0099
2833.00,0.0097
2832.00,0.0094
2831.00,0.0092
2830.00,0.0089
2829.00,0.0087
2828.00,0.0085
2827.00,0.0083
2826.00,0.0081
2825.00,0.0079
2824.00,0.0077
2823.00,0.0075
2822.00,0.0074
2821.00,0.0072
2820.00,0.0070
2819.00,0.0069
2818.00,0.0067
2817.00,0.0066
2816.00,0.0065
2815.00,0.0064
2814.00,0.0063
2813.00,0.0062
2812.00,0.0061
2811.00,0.0060
2810.00,0.0059
2809.00,0.0058
2808.00,0.0058
2807.00,0.0058
2806.00,0.0057
2805.00,0.0057
2804.00,0.0056
2803.00,0.0056
2802.00,0.0055
2801.00,0.0053
2800.00,0.0052
2799.00,0.0052
2798.00,0.0051
2797.00,0.0051
2796.00,0.0051
2795.00,0.0051
2794.00,0.0051
2793.00,0.0050
2792.00,0.0049
2791.00,0.0048
2790.00,0.0047
2789.00,0.0047
2788.00,0.0047
2787.00,0.0048
2786.00,0.0048
2785.00,0.0049
2784.00,0.0049
2783.00,0.0049
2782.00,0.0048
2781.00,0.0048
2780.00,0.0047
2779.00,0.0046
2778.00,0.0045
2777.00,0.0045
2776.00,0.0045
2775.00,0.0045
2774.00,0.0045
2773.00,0.0045
2772.00,0.0045
2771.00,0.0045
2770.00,0.0044
2769.00,0.0044
2768.00,0.0044
2767.00,0.0044
2766.00,0.0044
2765.00,0.0044
2764.00,0.0044
2763.00,0.0044
2762.00,0.0044
2761.00,0.0044
2760.00,0.0044
2759.00,0.0044
2758.00,0.0044
2757.00,0.0044
2756.00,0.0044
2755.00,0.0044
2754.00,0.0044
2753.00,0.0044
2752.00,0.0044
2751.00,0.0044
2750.00,0.0044
2749.00,0.0044
2748.00,0.0045
2747.00,0.0045
2746.00,0.0045
2745.00,0.0046
2744.00,0.0046
2743.00,0.0047
2742.00,0.0047
2741.00,0.0047
2740.00,0.0047
2739.00,0.0047
2738.00,0.0047
2737.00,0.0047
2736.00,0.0047
2735.00,0.0047
2734.00,0.0047
2733.00,0.0048
2732.00,0.0048
2731.00,0.0048
2730.00,0.0049
2729.00,0.0048
2728.00,0.0048
2727.00,0.0047
2726.00,0.0047
2725.00,0.0047
2724.00,0.0046
2723.00,0.0046
2722.00,0.0046
2721.00,0.0046
2720.00,0.0046
2719.00,0.0046
2718.00,0.0045
2717.00,0.0045
2716.00,0.0045
2715.00,0.0045
2714.00,0.0045
2713.00,0.0045
2712.00,0.0045
2711.00,0.0044
2710.00,0.0044
2709.00,0.0044
2708.00,0.0044
2707.00,0.0044
2706.00,0.0043
2705.00,0.0043
2704.00,0.0043
2703.00,0.0043
2702.00,0.0043
2701.00,0.0043
2700.00,0.0043
2699.00,0.0043
2698.00,0.0043
2697.00,0.0043
2696.00,0.0042
2695.00,0.0042
2694.00,0.0042
2693.00,0.0042
2692.00,0.0042
2691.00,0.0042
2690.00,0.0042
2689.00,0.0041
2688.00,0.0041
2687.00,0.0041
2686.00,0.0041
2685.00,0.0041
2684.00,0.0040
2683.00,0.0040
2682.00,0.0039
2681.00,0.0039
2680.00,0.0039
2679.00,0.0039
2678.00,0.0039
2677.00,0.0040
2676.00,0.0040
2675.00,0.0040
2674.00,0.0040
2673.00,0.0040
2672.00,0.0039
2671.00,0.0039
2670.00,0.0039
2669.00,0.0039
2668.00,0.0040
2667.00,0.0040
2666.00,0.0041
2665.00,0.0041
2664.00,0.0042
2663.00,0.0042
2662.00,0.0042
2661.00,0.0043
2660.00,0.0043
2659.00,0.0043
2658.00,0.0043
2657.00,0.0043
2656.00,0.0043
2655.00,0.0043
2654.00,0.0042
2653.00,0.0042
2652.00,0.0042
2651.00,0.0042
2650.00,0.0042
2649.00,0.0042
2648.00,0.0042
2647.00,0.0042
2646.00,0.0041
2645.00,0.0041
2644.00,0.0041
2643.00,0.0041
2642.00,0.0041
2641.00,0.0041
2640.00,0.0041
2639.00,0.0041
2638.00,0.0041
2637.00,0.0040
2636.00,0.0040
2635.00,0.0040
2634.00,0.0040
2633.00,0.0040
2632.00,0.0040
2631.00,0.0040
2630.00,0.0040
2629.00,0.0040
2628.00,0.0040
2627.00,0.0040
2626.00,0.0040
2625.00,0.0041
2624.00,0.0041
2623.00,0.0041
2622.00,0.0041
2621.00,0.0041
2620.00,0.0041
2619.00,0.0041
2618.00,0.0040
2617.00,0.0040
2616.00,0.0040
2615.00,0.0041
2614.00,0.0041
2613.00,0.0041
2612.00,0.0040
2611.00,0.0039
2610.00,0.0039
2609.00,0.0040
2608.00,0.0040
2607.00,0.0040
2606.00,0.0040
2605.00,0.0040
2604.00,0.0040
2603.00,0.0041
2602.00,0.0041
2601.00,0.0041
2600.00,0.0041
2599.00,0.0041
2598.00,0.0040
2597.00,0.0039
2596.00,0.0039
2595.00,0.0039
2594.00,0.0039
2593.00,0.0040
2592.00,0.0040
2591.00,0.0040
2590.00,0.0039
2589.00,0.0038
2588.00,0.0038
2587.00,0.0038
2586.00,0.0038
2585.00,0.0038
2584.00,0.0038
2583.00,0.0039
2582.00,0.0040
2581.00,0.0040
2580.00,0.0040
2579.00,0.0039
2578.00,0.0039
2577.00,0.0039
2576.00,0.0039
2575.00,0.0039
2574.00,0.0039
2573.00,0.0039
2572.00,0.0039
2571.00,0.0038
2570.00,0.0038
2569.00,0.0039
2568.00,0.0039
2567.00,0.0039
2566.00,0.0038
2565.00,0.0038
2564.00,0.0038
2563.00,0.0038
2562.00,0.0038
2561.00,0.0038
2560.00,0.0038
2559.00,0.0038
2558.00,0.0038
2557.00,0.0038
2556.00,0.0038
2555.00,0.0038
2554.00,0.0037
2553.00,0.0037
2552.00,0.0037
2551.00,0.0037
2550.00,0.0036
2549.00,0.0036
2548.00,0.0036
2547.00,0.0036
2546.00,0.0036
2545.00,0.0036
2544.00,0.0035
2543.00,0.0035
2542.00,0.0035
2541.00,0.0036
2540.00,0.0037
2539.00,0.0037
2538.00,0.0037
2537.00,0.0037
2536.00,0.0036
2535.00,0.0034
2534.00,0.0033
2533.00,0.0033
2532.00,0.0033
2531.00,0.0033
2530.00,0.0033
2529.00,0.0032
2528.00,0.0032
2527.00,0.0032
2526.00,0.0032
2525.00,0.0032
2524.00,0.0032
2523.00,0.0031
2522.00,0.0030
2521.00,0.0030
2520.00,0.0030
2519.00,0.0030
2518.00,0.0029
2517.00,0.0028
2516.00,0.0028
2515.00,0.0028
2514.00,0.0028
2513.00,0.0028
2512.00,0.0028
2511.00,0.0028
2510.00,0.0028
2509.00,0.0028
2508.00,0.0028
2507.00,0.0028
2506.00,0.0028
2505.00,0.0028
2504.00,0.0029
2503.00,0.0029
2502.00,0.0030
2501.00,0.0030
2500.00,0.0030
2499.00,0.0030
2498.00,0.0030
2497.00,0.0031
2496.00,0.0030
2495.00,0.0030
2494.00,0.0029
2493.00,0.0029
2492.00,0.0029
2491.00,0.0030
2490.00,0.0030
2489.00,0.0030
2488.00,0.0030
2487.00,0.0029
2486.00,0.0028
2485.00,0.0028
2484.00,0.0028
2483.00,0.0028
2482.00,0.0029
2481.00,0.0029
2480.00,0.0028
2479.00,0.0028
2478.00,0.0028
2477.00,0.0028
2476.00,0.0028
2475.00,0.0027
2474.00,0.0027
2473.00,0.0027
2472.00,0.0027
2471.00,0.0028
2470.00,0.0028
2469.00,0.0028
2468.00,0.0028
2467.00,0.0028
2466.00,0.0028
2465.00,0.0028
2464.00,0.0028
2463.00,0.0028
2462.00,0.0028
2461.00,0.0028
2460.00,0.0028
2459.00,0.0028
2458.00,0.0029
2457.00,0.0029
2456.00,0.0030
2455.00,0.0029
2454.00,0.0029
2453.00,0.0028
2452.00,0.0028
2451.00,0.0028
2450.00,0.0029
2449.00,0.0029
2448.00,0.0029
2447.00,0.0029
2446.00,0.0029
2445.00,0.0029
2444.00,0.0029
2443.00,0.0029
2442.00,0.0029
2441.00,0.0029
2440.00,0.0029
2439.00,0.0028
2438.00,0.0028
2437.00,0.0027
2436.00,0.0027
2435.00,0.0027
2434.00,0.0028
2433.00,0.0028
2432.00,0.0028
2431.00,0.0029
2430.00,0.0029
2429.00,0.0029
2428.00,0.0028
2427.00,0.0028
2426.00,0.0027
2425.00,0.0027
2424.00,0.0026
2423.00,0.0026
2422.00,0.0026
2421.00,0.0026
2420.00,0.0026
2419.00,0.0026
2418.00,0.0026
2417.00,0.0027
2416.00,0.0027
2415.00,0.0027
2414.00,0.0027
2413.00,0.0027
2412.00,0.0028
2411.00,0.0028
2410.00,0.0028
2409.00,0.0027
2408.00,0.0027
2407.00,0.0026
2406.00,0.0026
2405.00,0.0026
2404.00,0.0026
2403.00,0.0026
2402.00,0.0025
2401.00,0.0025
2400.00,0.0025
2399.00,0.0024
2398.00,0.0024
2397.00,0.0024
2396.00,0.0024
2395.00,0.0024
2394.00,0.0024
2393.00,0.0025
2392.00,0.0025
2391.00,0.0025
2390.00,0.0025
2389.00,0.0024
2388.00,0.0023
2387.00,0.0023
2386.00,0.0022
2385.00,0.0021
2384.00,0.0020
2383.00,0.0020
2382.00,0.0020
2381.00,0.0020
2380.00,0.0020
2379.00,0.0020
2378.00,0.0019
2377.00,0.0019
2376.00,0.0019
2375.00,0.0019
2374.00,0.0018
2373.00,0.0017
2372.00,0.0016
2371.00,0.0016
2370.00,0.0016
2369.00,0.0017
2368.00,0.0017
2367.00,0.0017
2366.00,0.0017
2365.00,0.0017
2364.00,0.0018
2363.00,0.0018
2362.00,0.0017
2361.00,0.0018
2360.00,0.0018
2359.00,0.0019
2358.00,0.0019
2357.00,0.0018
2356.00,0.0017
2355.00,0.0016
2354.00,0.0016
2353.00,0.0016
2352.00,0.0017
2351.00,0.0018
2350.00,0.0018
2349.00,0.0018
2348.00,0.0018
2347.00,0.0019
2346.00,0.0019
2345.00,0.0019
2344.00,0.0018
2343.00,0.0018
2342.00,0.0018
2341.00,0.0019
2340.00,0.0020
2339.00,0.0020
2338.00,0.0020
2337.00,0.0020
2336.00,0.0020
2335.00,0.0019
2334.00,0.0018
2333.00,0.0018
2332.00,0.0018
2331.00,0.0018
2330.00,0.0020
2329.00,0.0023
2328.00,0.0027
2327.00,0.0030
2326.00,0.0033
2325.00,0.0033
2324.00,0.0032
2323.00,0.0031
2322.00,0.0029
2321.00,0.0027
2320.00,0.0027
2319.00,0.0026
2318.00,0.0026
2317.00,0.0026
2316.00,0.0026
2315.00,0.0026
2314.00,0.0026
2313.00,0.0026
2312.00,0.0027
2311.00,0.0027
2310.00,0.0028
2309.00,0.0028
2308.00,0.0029
2307.00,0.0030
2306.00,0.0031
2305.00,0.0032
2304.00,0.0032
2303.00,0.0032
2302.00,0.0031
2301.00,0.0032
2300.00,0.0032
2299.00,0.0033
2298.00,0.0034
2297.00,0.0034
2296.00,0.0034
2295.00,0.0035
2294.00,0.0035
2293.00,0.0036
2292.00,0.0037
2291.00,0.0037
2290.00,0.0037
2289.00,0.0037
2288.00,0.0038
2287.00,0.0039
2286.00,0.0039
2285.00,0.0039
2284.00,0.0039
2283.00,0.0039
2282.00,0.0038
2281.00,0.0037
2280.00,0.0036
2279.00,0.0036
2278.00,0.0036
2277.00,0.0036
2276.00,0.0036
2275.00,0.0036
2274.00,0.0036
2273.00,0.0036
2272.00,0.0037
2271.00,0.0038
2270.00,0.0038
2269.00,0.0037
2268.00,0.0036
2267.00,0.0035
2266.00,0.0034
2265.00,0.0033
2264.00,0.0032
2263.00,0.0032
2262.00,0.0032
2261.00,0.0032
2260.00,0.0032
2259.00,0.0033
2258.00,0.0034
2257.00,0.0034
2256.00,0.0035
2255.00,0.0035
2254.00,0.0034
2253.00,0.0033
2252.00,0.0032
2251.00,0.0032
2250.00,0.0033
2249.00,0.0034
2248.00,0.0036
2247.00,0.0037
2246.00,0.0037
2245.00,0.0036
2244.00,0.0036
2243.00,0.0036
2242.00,0.0036
2241.00,0.0036
2240.00,0.0037
2239.00,0.0037
2238.00,0.0038
2237.00,0.0037
2236.00,0.0035
2235.00,0.0034
2234.00,0.0034
2233.00,0.0034
2232.00,0.0034
2231.00,0.0035
2230.00,0.0035
2229.00,0.0036
2228.00,0.0036
2227.00,0.0035
2226.00,0.0033
2225.00,0.0033
2224.00,0.0034
2223.00,0.0036
2222.00,0.0038
2221.00,0.0039
2220.00,0.0038
2219.00,0.0037
2218.00,0.0036
2217.00,0.0035
2216.00,0.0033
2215.00,0.0031
2214.00,0.0029
2213.00,0.0028
2212.00,0.0028
2211.00,0.0031
2210.00,0.0033
2209.00,0.0035
2208.00,0.0036
2207.00,0.0036
2206.00,0.0035
2205.00,0.0034
2204.00,0.0033
2203.00,0.0031
2202.00,0.0031
2201.00,0.0031
2200.00,0.0033
2199.00,0.0034
2198.00,0.0035
2197.00,0.0037
2196.00,0.0038
2195.00,0.0038
2194.00,0.0039
2193.00,0.0040
2192.00,0.0041
2191.00,0.0041
2190.00,0.0040
2189.00,0.0039
2188.00,0.0039
2187.00,0.0038
2186.00,0.0037
2185.00,0.0038
2184.00,0.0040
2183.00,0.0041
2182.00,0.0041
2181.00,0.0040
2180.00,0.0039
2179.00,0.0038
2178.00,0.0036
2177.00,0.0034
2176.00,0.0034
2175.00,0.0034
2174.00,0.0035
2173.00,0.0034
2172.00,0.0035
2171.00,0.0036
2170.00,0.0039
2169.00,0.0043
2168.00,0.0046
2167.00,0.0046
2166.00,0.0047
2165.00,0.0049
2164.00,0.0052
2163.00,0.0053
2162.00,0.0048
2161.00,0.0038
2160.00,0.0027
2159.00,0.0019
2158.00,0.0015
2157.00,0.0014
2156.00,0.0015
2155.00,0.0018
2154.00,0.0020
2153.00,0.0022
2152.00,0.0022
2151.00,0.0021
2150.00,0.0019
2149.00,0.0019
2148.00,0.0018
2147.00,0.0017
2146.00,0.0015
2145.00,0.0014
2144.00,0.0014
2143.00,0.0015
2142.00,0.0016
2141.00,0.0018
2140.00,0.0018
2139.00,0.0016
2138.00,0.0013
2137.00,0.0010
2136.00,0.0008
2135.00,0.0007
2134.00,0.0006
2133.00,0.0005
2132.00,0.0005
2131.00,0.0006
2130.00,0.0008
2129.00,0.0012
2128.00,0.0016
2127.00,0.0018
2126.00,0.0019
2125.00,0.0019
2124.00,0.0018
2123.00,0.0017
2122.00,0.0018
2121.00,0.0019
2120.00,0.0020
2119.00,0.0021
2118.00,0.0022
2117.00,0.0024
2116.00,0.0025
2115.00,0.0026
2114.00,0.0026
2113.00,0.0025
2112.00,0.0025
2111.00,0.0025
2110.00,0.0026
2109.00,0.0026
2108.00,0.0026
2107.00,0.0026
2106.00,0.0025
2105.00,0.0025
2104.00,0.0026
2103.00,0.0026
2102.00,0.0026
2101.00,0.0026
2100.00,0.0024
2099.00,0.0023
2098.00,0.0022
2097.00,0.0022
2096.00,0.0022
2095.00,0.0023
2094.00,0.0024
2093.00,0.0025
2092.00,0.0026
2091.00,0.0026
2090.00,0.0026
2089.00,0.0026
2088.00,0.0027
2087.00,0.0027
2086.00,0.0027
2085.00,0.0027
2084.00,0.0028
2083.00,0.0029
2082.00,0.0030
2081.00,0.0031
2080.00,0.0032
2079.00,0.0032
2078.00,0.0031
2077.00,0.0030
2076.00,0.0030
2075.00,0.0029
2074.00,0.0029
2073.00,0.0028
2072.00,0.0028
2071.00,0.0027
2070.00,0.0028
2069.00,0.0029
2068.00,0.0030
2067.00,0.0030
2066.00,0.0030
2065.00,0.0030
2064.00,0.0029
2063.00,0.0028
2062.00,0.0026
2061.00,0.0024
2060.00,0.0024
2059.00,0.0025
2058.00,0.0028
2057.00,0.0029
2056.00,0.0029
2055.00,0.0029
2054.00,0.0031
2053.00,0.0035
2052.00,0.0039
2051.00,0.0040
2050.00,0.0038
2049.00,0.0036
2048.00,0.0035
2047.00,0.0034
2046.00,0.0034
2045.00,0.0034
2044.00,0.0037
2043.00,0.0039
2042.00,0.0041
2041.00,0.0040
2040.00,0.0038
2039.00,0.0036
2038.00,0.0035
2037.00,0.0035
2036.00,0.0035
2035.00,0.0036
2034.00,0.0035
2033.00,0.0035
2032.00,0.0034
2031.00,0.0032
2030.00,0.0029
2029.00,0.0026
2028.00,0.0025
2027.00,0.0025
2026.00,0.0027
2025.00,0.0030
2024.00,0.0032
2023.00,0.0033
2022.00,0.0032
2021.00,0.0031
2020.00,0.0030
2019.00,0.0028
2018.00,0.0029
2017.00,0.0031
2016.00,0.0034
2015.00,0.0035
2014.00,0.0034
2013.00,0.0031
2012.00,0.0027
2011.00,0.0025
2010.00,0.0025
2009.00,0.0026
2008.00,0.0026
2007.00,0.0024
2006.00,0.0022
2005.00,0.0020
2004.00,0.0019
2003.00,0.0020
2002.00,0.0021
2001.00,0.0020
2000.00,0.0020
1999.00,0.0020
1998.00,0.0022
1997.00,0.0025
1996.00,0.0028
1995.00,0.0031
1994.00,0.0032
1993.00,0.0032
1992.00,0.0031
1991.00,0.0032
1990.00,0.0033
1989.00,0.0035
1988.00,0.0036
1987.00,0.0036
1986.00,0.0033
1985.00,0.0032
1984.00,0.0034
1983.00,0.0036
1982.00,0.0039
1981.00,0.0039
1980.00,0.0036
1979.00,0.0028
1978.00,0.0019
1977.00,0.0014
1976.00,0.0013
1975.00,0.0016
1974.00,0.0020
1973.00,0.0023
1972.00,0.0026
1971.00,0.0026
1970.00,0.0024
1969.00,0.0022
1968.00,0.0022
1967.00,0.0022
1966.00,0.0024
1965.00,0.0025
1964.00,0.0024
1963.00,0.0023
1962.00,0.0021
1961.00,0.0020
1960.00,0.0018
1959.00,0.0017
1958.00,0.0017
1957.00,0.0019
1956.00,0.0022
1955.00,0.0023
1954.00,0.0022
1953.00,0.0021
1952.00,0.0020
1951.00,0.0020
1950.00,0.0020
1949.00,0.0022
1948.00,0.0023
1947.00,0.0024
1946.00,0.0023
1945.00,0.0022
1944.00,0.0022
1943.00,0.0021
1942.00,0.0020
1941.00,0.0020
1940.00,0.0020
1939.00,0.0021
1938.00,0.0022
1937.00,0.0023
1936.00,0.0023
1935.00,0.0023
1934.00,0.0022
1933.00,0.0021
1932.00,0.0020
1931.00,0.0020
1930.00,0.0021
1929.00,0.0021
1928.00,0.0021
1927.00,0.0021
1926.00,0.0020
1925.00,0.0020
1924.00,0.0021
1923.00,0.0022
1922.00,0.0022
1921.00,0.0023
1920.00,0.0023
1919.00,0.0023
1918.00,0.0024
1917.00,0.0026
1916.00,0.0027
1915.00,0.0028
1914.00,0.0027
1913.00,0.0025
1912.00,0.0025
1911.00,0.0024
1910.00,0.0023
1909.00,0.0023
1908.00,0.0022
1907.00,0.0022
1906.00,0.0023
1905.00,0.0023
1904.00,0.0024
1903.00,0.0024
1902.00,0.0024
1901.00,0.0024
1900.00,0.0023
1899.00,0.0022
1898.00,0.0022
1897.00,0.0022
1896.00,0.0022
1895.00,0.0023
1894.00,0.0023
1893.00,0.0024
1892.00,0.0024
1891.00,0.0025
1890.00,0.0024
1889.00,0.0023
1888.00,0.0023
1887.00,0.0023
1886.00,0.0023
1885.00,0.0023
1884.00,0.0024
1883.00,0.0024
1882.00,0.0024
1881.00,0.0024
1880.00,0.0023
1879.00,0.0023
1878.00,0.0022
1877.00,0.0022
1876.00,0.0022
1875.00,0.0022
1874.00,0.0022
1873.00,0.0022
1872.00,0.0023
1871.00,0.0023
1870.00,0.0024
1869.00,0.0024
1868.00,0.0024
1867.00,0.0024
1866.00,0.0023
1865.00,0.0023
1864.00,0.0022
1863.00,0.0022
1862.00,0.0021
1861.00,0.0021
1860.00,0.0020
1859.00,0.0020
1858.00,0.0019
1857.00,0.0020
1856.00,0.0021
1855.00,0.0021
1854.00,0.0022
1853.00,0.0022
1852.00,0.0022
1851.00,0.0022
1850.00,0.0022
1849.00,0.0023
1848.00,0.0023
1847.00,0.0024
1846.00,0.0024
1845.00,0.0024
1844.00,0.0023
1843.00,0.0023
1842.00,0.0022
1841.00,0.0021
1840.00,0.0020
1839.00,0.0020
1838.00,0.0020
1837.00,0.0020
1836.00,0.0020
1835.00,0.0020
1834.00,0.0021
1833.00,0.0022
1832.00,0.0024
1831.00,0.0025
1830.00,0.0024
1829.00,0.0024
1828.00,0.0023
1827.00,0.0023
1826.00,0.0022
1825.00,0.0022
1824.00,0.0022
1823.00,0.0021
1822.00,0.0020
1821.00,0.0020
1820.00,0.0019
1819.00,0.0017
1818.00,0.0016
1817.00,0.0016
1816.00,0.0016
1815.00,0.0017
1814.00,0.0017
1813.00,0.0018
1812.00,0.0019
1811.00,0.0019
1810.00,0.0020
1809.00,0.0020
1808.00,0.0019
1807.00,0.0019
1806.00,0.0019
1805.00,0.0020
1804.00,0.0021
1803.00,0.0021
1802.00,0.0021
1801.00,0.0022
1800.00,0.0022
1799.00,0.0022
1798.00,0.0021
1797.00,0.0021
1796.00,0.0022
1795.00,0.0023
1794.00,0.0023
1793.00,0.0023
1792.00,0.0023
1791.00,0.0022
1790.00,0.0021
1789.00,0.0021
1788.00,0.0021
1787.00,0.0021
1786.00,0.0021
1785.00,0.0020
1784.00,0.0021
1783.00,0.0021
1782.00,0.0021
1781.00,0.0021
1780.00,0.0021
1779.00,0.0021
1778.00,0.0021
1777.00,0.0021
1776.00,0.0022
1775.00,0.0023
1774.00,0.0024
1773.00,0.0024
1772.00,0.0025
1771.00,0.0025
1770.00,0.0025
1769.00,0.0024
1768.00,0.0023
1767.00,0.0023
1766.00,0.0022
1765.00,0.0023
1764.00,0.0024
1763.00,0.0025
1762.00,0.0025
1761.00,0.0025
1760.00,0.0025
1759.00,0.0025
1758.00,0.0025
1757.00,0.0025
1756.00,0.0025
1755.00,0.0025
1754.00,0.0026
1753.00,0.0027
1752.00,0.0028
1751.00,0.0028
1750.00,0.0028
1749.00,0.0028
1748.00,0.0029
1747.00,0.0028
1746.00,0.0028
1745.00,0.0028
1744.00,0.0028
1743.00,0.0028
1742.00,0.0028
1741.00,0.0028
1740.00,0.0028
1739.00,0.0029
1738.00,0.0029
1737.00,0.0031
1736.00,0.0032
1735.00,0.0032
1734.00,0.0030
1733.00,0.0029
1732.00,0.0031
1731.00,0.0032
1730.00,0.0032
1729.00,0.0032
1728.00,0.0033
1727.00,0.0034
1726.00,0.0034
1725.00,0.0035
1724.00,0.0036
1723.00,0.0038
1722.00,0.0040
1721.00,0.0043
1720.00,0.0047
1719.00,0.0049
1718.00,0.0050
1717.00,0.0051
1716.00,0.0053
1715.00,0.0056
1714.00,0.0058
1713.00,0.0061
1712.00,0.0065
1711.00,0.0070
1710.00,0.0075
1709.00,0.0082
1708.00,0.0090
1707.00,0.0101
1706.00,0.0113
1705.00,0.0126
1704.00,0.0141
1703.00,0.0154
1702.00,0.0171
1701.00,0.0199
1700.00,0.0234
1699.00,0.0265
1698.00,0.0291
1697.00,0.0322
1696.00,0.0366
1695.00,0.0416
1694.00,0.0461
1693.00,0.0500
1692.00,0.0538
1691.00,0.0581
1690.00,0.0627
1689.00,0.0671
1688.00,0.0709
1687.00,0.0738
1686.00,0.0768
1685.00,0.0812
1684.00,0.0866
1683.00,0.0907
1682.00,0.0926
1681.00,0.0934
1680.00,0.0939
1679.00,0.0941
1678.00,0.0940
1677.00,0.0937
1676.00,0.0937
1675.00,0.0938
1674.00,0.0935
1673.00,0.0927
1672.00,0.0918
1671.00,0.0915
1670.00,0.0919
1669.00,0.0929
1668.00,0.0938
1667.00,0.0944
1666.00,0.0948
1665.00,0.0955
1664.00,0.0969
1663.00,0.0991
1662.00,0.1013
1661.00,0.1030
1660.00,0.1040
1659.00,0.1046
1658.00,0.1050
1657.00,0.1049
1656.00,0.1042
1655.00,0.1035
1654.00,0.1039
1653.00,0.1051
1652.00,0.1053
1651.00,0.1036
1650.00,0.1009
1649.00,0.0979
1648.00,0.0947
1647.00,0.0914
1646.00,0.0879
1645.00,0.0843
1644.00,0.0804
1643.00,0.0765
1642.00,0.0726
1641.00,0.0687
1640.00,0.0651
1639.00,0.0617
1638.00,0.0585
1637.00,0.0554
1636.00,0.0523
1635.00,0.0496
1634.00,0.0472
1633.00,0.0452
1632.00,0.0434
1631.00,0.0420
1630.00,0.0410
1629.00,0.0407
1628.00,0.0409
1627.00,0.0417
1626.00,0.0430
1625.00,0.0448
1624.00,0.0475
1623.00,0.0507
1622.00,0.0536
1621.00,0.0557
1620.00,0.0569
1619.00,0.0575
1618.00,0.0576
1617.00,0.0573
1616.00,0.0567
1615.00,0.0558
1614.00,0.0547
1613.00,0.0535
1612.00,0.0526
1611.00,0.0518
1610.00,0.0510
1609.00,0.0497
1608.00,0.0480
1607.00,0.0458
1606.00,0.0431
1605.00,0.0403
1604.00,0.0374
1603.00,0.0347
1602.00,0.0322
1601.00,0.0301
1600.00,0.0283
1599.00,0.0270
1598.00,0.0261
1597.00,0.0256
1596.00,0.0256
1595.00,0.0261
1594.00,0.0273
1593.00,0.0291
1592.00,0.0315
1591.00,0.0345
1590.00,0.0378
1589.00,0.0411
1588.00,0.0441
1587.00,0.0466
1586.00,0.0481
1585.00,0.0485
1584.00,0.0478
1583.00,0.0463
1582.00,0.0442
1581.00,0.0418
1580.00,0.0393
1579.00,0.0370
1578.00,0.0349
1577.00,0.0328
1576.00,0.0311
1575.00,0.0297
1574.00,0.0287
1573.00,0.0278
1572.00,0.0269
1571.00,0.0260
1570.00,0.0253
1569.00,0.0244
1568.00,0.0236
1567.00,0.0228
1566.00,0.0221
1565.00,0.0213
1564.00,0.0207
1563.00,0.0201
1562.00,0.0195
1561.00,0.0191
1560.00,0.0189
1559.00,0.0186
1558.00,0.0183
1557.00,0.0177
1556.00,0.0172
1555.00,0.0167
1554.00,0.0163
1553.00,0.0160
1552.00,0.0157
1551.00,0.0156
1550.00,0.0154
1549.00,0.0152
1548.00,0.0150
1547.00,0.0148
1546.00,0.0148
1545.00,0.0147
1544.00,0.0147
1543.00,0.0147
1542.00,0.0146
1541.00,0.0145
1540.00,0.0142
1539.00,0.0139
1538.00,0.0138
1537.00,0.0137
1536.00,0.0138
1535.00,0.0138
1534.00,0.0139
1533.00,0.0139
1532.00,0.0138
1531.00,0.0138
1530.00,0.0138
1529.00,0.0140
1528.00,0.0141
1527.00,0.0143
1526.00,0.0146
1525.00,0.0148
1524.00,0.0151
1523.00,0.0155
1522.00,0.0159
1521.00,0.0165
1520.00,0.0170
1519.00,0.0175
1518.00,0.0180
1517.00,0.0185
1516.00,0.0188
1515.00,0.0190
1514.00,0.0191
1513.00,0.0191
1512.00,0.0192
1511.00,0.0193
1510.00,0.0193
1509.00,0.0194
1508.00,0.0195
1507.00,0.0198
1506.00,0.0202
1505.00,0.0206
1504.00,0.0211
1503.00,0.0219
1502.00,0.0231
1501.00,0.0246
1500.00,0.0265
1499.00,0.0286
1498.00,0.0307
1497.00,0.0326
1496.00,0.0340
1495.00,0.0346
1494.00,0.0346
1493.00,0.0341
1492.00,0.0332
1491.00,0.0320
1490.00,0.0304
1489.00,0.0287
1488.00,0.0267
1487.00,0.0248
1486.00,0.0230
1485.00,0.0216
1484.00,0.0204
1483.00,0.0194
1482.00,0.0186
1481.00,0.0181
1480.00,0.0178
1479.00,0.0176
1478.00,0.0177
1477.00,0.0180
1476.00,0.0185
1475.00,0.0192
1474.00,0.0203
1473.00,0.0220
1472.00,0.0242
1471.00,0.0265
1470.00,0.0289
1469.00,0.0314
1468.00,0.0341
1467.00,0.0371
1466.00,0.0405
1465.00,0.0442
1464.00,0.0477
1463.00,0.0502
1462.00,0.0519
1461.00,0.0529
1460.00,0.0533
1459.00,0.0530
1458.00,0.0521
1457.00,0.0507
1456.00,0.0489
1455.00,0.0470
1454.00,0.0452
1453.00,0.0438
1452.00,0.0428
1451.00,0.0423
1450.00,0.0424
1449.00,0.0432
1448.00,0.0446
1447.00,0.0463
1446.00,0.0480
1445.00,0.0498
1444.00,0.0516
1443.00,0.0533
1442.00,0.0551
1441.00,0.0567
1440.00,0.0581
1439.00,0.0595
1438.00,0.0613
1437.00,0.0637
1436.00,0.0663
1435.00,0.0684
1434.00,0.0699
1433.00,0.0711
1432.00,0.0724
1431.00,0.0738
1430.00,0.0752
1429.00,0.0765
1428.00,0.0778
1427.00,0.0790
1426.00,0.0803
1425.00,0.0820
1424.00,0.0836
1423.00,0.0847
1422.00,0.0848
1421.00,0.0840
1420.00,0.0823
1419.00,0.0795
1418.00,0.0758
1417.00,0.0718
1416.00,0.0677
1415.00,0.0639
1414.00,0.0606
1413.00,0.0580
1412.00,0.0562
1411.00,0.0551
1410.00,0.0546
1409.00,0.0546
1408.00,0.0552
1407.00,0.0561
1406.00,0.0574
1405.00,0.0590
1404.00,0.0605
1403.00,0.0616
1402.00,0.0620
1401.00,0.0618
1400.00,0.0609
1399.00,0.0591
1398.00,0.0566
1397.00,0.0537
1396.00,0.0504
1395.00,0.0471
1394.00,0.0439
1393.00,0.0412
1392.00,0.0389
1391.00,0.0371
1390.00,0.0358
1389.00,0.0349
1388.00,0.0345
1387.00,0.0346
1386.00,0.0351
1385.00,0.0359
1384.00,0.0370
1383.00,0.0383
1382.00,0.0397
1381.00,0.0410
1380.00,0.0420
1379.00,0.0426
1378.00,0.0428
1377.00,0.0426
1376.00,0.0420
1375.00,0.0412
1374.00,0.0403
1373.00,0.0394
1372.00,0.0385
1371.00,0.0378
1370.00,0.0372
1369.00,0.0368
1368.00,0.0365
1367.00,0.0366
1366.00,0.0370
1365.00,0.0379
1364.00,0.0392
1363.00,0.0409
1362.00,0.0425
1361.00,0.0435
1360.00,0.0436
1359.00,0.0427
1358.00,0.0411
1357.00,0.0389
1356.00,0.0366
1355.00,0.0343
1354.00,0.0324
1353.00,0.0309
1352.00,0.0297
1351.00,0.0289
1350.00,0.0283
1349.00,0.0279
1348.00,0.0275
1347.00,0.0273
1346.00,0.0271
1345.00,0.0269
1344.00,0.0268
1343.00,0.0268
1342.00,0.0268
1341.00,0.0268
1340.00,0.0269
1339.00,0.0270
1338.00,0.0272
1337.00,0.0274
1336.00,0.0277
1335.00,0.0280
1334.00,0.0283
1333.00,0.0286
1332.00,0.0289
1331.00,0.0292
1330.00,0.0296
1329.00,0.0299
1328.00,0.0302
1327.00,0.0307
1326.00,0.0312
1325.00,0.0319
1324.00,0.0325
1323.00,0.0333
1322.00,0.0340
1321.00,0.0347
1320.00,0.0353
1319.00,0.0357
1318.00,0.0359
1317.00,0.0359
1316.00,0.0356
1315.00,0.0352
1314.00,0.0347
1313.00,0.0342
1312.00,0.0338
1311.00,0.0336
1310.00,0.0335
1309.00,0.0337
1308.00,0.0340
1307.00,0.0344
1306.00,0.0351
1305.00,0.0359
1304.00,0.0368
1303.00,0.0379
1302.00,0.0391
1301.00,0.0407
1300.00,0.0426
1299.00,0.0451
1298.00,0.0482
1297.00,0.0519
1296.00,0.0562
1295.00,0.0609
1294.00,0.0657
1293.00,0.0706
1292.00,0.0752
1291.00,0.0796
1290.00,0.0835
1289.00,0.0870
1288.00,0.0899
1287.00,0.0921
1286.00,0.0933
1285.00,0.0937
1284.00,0.0930
1283.00,0.0914
1282.00,0.0891
1281.00,0.0865
1280.00,0.0838
1279.00,0.0814
1278.00,0.0795
1277.00,0.0781
1276.00,0.0771
1275.00,0.0765
1274.00,0.0762
1273.00,0.0760
1272.00,0.0756
1271.00,0.0748
1270.00,0.0734
1269.00,0.0714
1268.00,0.0690
1267.00,0.0663
1266.00,0.0633
1265.00,0.0603
1264.00,0.0572
1263.00,0.0541
1262.00,0.0512
1261.00,0.0485
1260.00,0.0459
1259.00,0.0436
1258.00,0.0416
1257.00,0.0397
1256.00,0.0380
1255.00,0.0366
1254.00,0.0354
1253.00,0.0344
1252.00,0.0337
1251.00,0.0333
1250.00,0.0332
1249.00,0.0335
1248.00,0.0341
1247.00,0.0351
1246.00,0.0364
1245.00,0.0380
1244.00,0.0398
1243.00,0.0417
1242.00,0.0434
1241.00,0.0450
1240.00,0.0462
1239.00,0.0472
1238.00,0.0480
1237.00,0.0486
1236.00,0.0490
1235.00,0.0493
1234.00,0.0494
1233.00,0.0494
1232.00,0.0492
1231.00,0.0488
1230.00,0.0484
1229.00,0.0479
1228.00,0.0475
1227.00,0.0471
1226.00,0.0468
1225.00,0.0467
1224.00,0.0466
1223.00,0.0467
1222.00,0.0469
1221.00,0.0471
1220.00,0.0473
1219.00,0.0475
1218.00,0.0474
1217.00,0.0471
1216.00,0.0463
1215.00,0.0452
1214.00,0.0438
1213.00,0.0422
1212.00,0.0403
1211.00,0.0385
1210.00,0.0368
1209.00,0.0353
1208.00,0.0341
1207.00,0.0331
1206.00,0.0326
1205.00,0.0324
1204.00,0.0325
1203.00,0.0330
1202.00,0.0340
1201.00,0.0353
1200.00,0.0369
1199.00,0.0387
1198.00,0.0407
1197.00,0.0427
1196.00,0.0446
1195.00,0.0461
1194.00,0.0471
1193.00,0.0473
1192.00,0.0465
1191.00,0.0451
1190.00,0.0431
1189.00,0.0409
1188.00,0.0386
1187.00,0.0364
1186.00,0.0344
1185.00,0.0326
1184.00,0.0311
1183.00,0.0298
1182.00,0.0288
1181.00,0.0280
1180.00,0.0274
1179.00,0.0270
1178.00,0.0268
1177.00,0.0267
1176.00,0.0267
1175.00,0.0268
1174.00,0.0270
1173.00,0.0272
1172.00,0.0274
1171.00,0.0276
1170.00,0.0278
1169.00,0.0281
1168.00,0.0283
1167.00,0.0287
1166.00,0.0292
1165.00,0.0300
1164.00,0.0311
1163.00,0.0325
1162.00,0.0343
1161.00,0.0365
1160.00,0.0389
1159.00,0.0412
1158.00,0.0431
1157.00,0.0444
1156.00,0.0449
1155.00,0.0446
1154.00,0.0436
1153.00,0.0420
1152.00,0.0400
1151.00,0.0378
1150.00,0.0354
1149.00,0.0332
1148.00,0.0310
1147.00,0.0290
1146.00,0.0273
1145.00,0.0259
1144.00,0.0247
1143.00,0.0239
1142.00,0.0233
1141.00,0.0229
1140.00,0.0228
1139.00,0.0231
1138.00,0.0237
1137.00,0.0248
1136.00,0.0266
1135.00,0.0290
1134.00,0.0321
1133.00,0.0356
1132.00,0.0391
1131.00,0.0420
1130.00,0.0440
1129.00,0.0445
1128.00,0.0435
1127.00,0.0411
1126.00,0.0380
1125.00,0.0346
1124.00,0.0315
1123.00,0.0288
1122.00,0.0267
1121.00,0.0250
1120.00,0.0237
1119.00,0.0227
1118.00,0.0221
1117.00,0.0218
1116.00,0.0215
1115.00,0.0214
1114.00,0.0214
1113.00,0.0215
1112.00,0.0216
1111.00,0.0218
1110.00,0.0220
1109.00,0.0224
1108.00,0.0228
1107.00,0.0234
1106.00,0.0241
1105.00,0.0251
1104.00,0.0262
1103.00,0.0274
1102.00,0.0286
1101.00,0.0295
1100.00,0.0298
1099.00,0.0297
1098.00,0.0291
1097.00,0.0281
1096.00,0.0270
1095.00,0.0257
1094.00,0.0246
1093.00,0.0234
1092.00,0.0224
1091.00,0.0215
1090.00,0.0209
1089.00,0.0203
1088.00,0.0198
1087.00,0.0194
1086.00,0.0192
1085.00,0.0191
1084.00,0.0191
1083.00,0.0192
1082.00,0.0194
1081.00,0.0197
1080.00,0.0201
1079.00,0.0206
1078.00,0.0213
1077.00,0.0220
1076.00,0.0227
1075.00,0.0237
1074.00,0.0247
1073.00,0.0258
1072.00,0.0271
1071.00,0.0285
1070.00,0.0304
1069.00,0.0327
1068.00,0.0354
1067.00,0.0385
1066.00,0.0422
1065.00,0.0462
1064.00,0.0506
1063.00,0.0552
1062.00,0.0600
1061.00,0.0647
1060.00,0.0688
1059.00,0.0722
1058.00,0.0744
1057.00,0.0751
1056.00,0.0741
1055.00,0.0715
1054.00,0.0676
1053.00,0.0628
1052.00,0.0576
1051.00,0.0525
1050.00,0.0479
1049.00,0.0438
1048.00,0.0404
1047.00,0.0376
1046.00,0.0354
1045.00,0.0337
1044.00,0.0324
1043.00,0.0314
1042.00,0.0308
1041.00,0.0302
1040.00,0.0298
1039.00,0.0296
1038.00,0.0295
1037.00,0.0295
1036.00,0.0297
1035.00,0.0302
1034.00,0.0311
1033.00,0.0322
1032.00,0.0333
1031.00,0.0341
1030.00,0.0345
1029.00,0.0342
1028.00,0.0333
1027.00,0.0320
1026.00,0.0306
1025.00,0.0292
1024.00,0.0280
1023.00,0.0271
1022.00,0.0264
1021.00,0.0260
1020.00,0.0257
1019.00,0.0255
1018.00,0.0254
1017.00,0.0251
1016.00,0.0247
1015.00,0.0242
1014.00,0.0236
1013.00,0.0231
1012.00,0.0227
1011.00,0.0225
1010.00,0.0226
1009.00,0.0229
1008.00,0.0235
1007.00,0.0244
1006.00,0.0254
1005.00,0.0264
1004.00,0.0271
1003.00,0.0275
1002.00,0.0276
1001.00,0.0273
1000.00,0.0268
999.00,0.0263
998.00,0.0257
997.00,0.0252
996.00,0.0247
995.00,0.0243
994.00,0.0239
993.00,0.0234
992.00,0.0229
991.00,0.0223
990.00,0.0217
989.00,0.0211
988.00,0.0206
987.00,0.0201
986.00,0.0196
985.00,0.0191
984.00,0.0186
983.00,0.0183
982.00,0.0181
981.00,0.0181
980.00,0.0181
979.00,0.0182
978.00,0.0184
977.00,0.0184
976.00,0.0184
975.00,0.0184
974.00,0.0183
973.00,0.0181
972.00,0.0179
971.00,0.0176
970.00,0.0173
969.00,0.0170
968.00,0.0167
967.00,0.0165
966.00,0.0164
965.00,0.0163
964.00,0.0162
963.00,0.0161
962.00,0.0160
961.00,0.0159
960.00,0.0157
959.00,0.0154
958.00,0.0152
957.00,0.0149
956.00,0.0147
955.00,0.0145
954.00,0.0143
953.00,0.0141
952.00,0.0139
951.00,0.0138
950.00,0.0138
949.00,0.0138
948.00,0.0139
947.00,0.0139
946.00,0.0141
945.00,0.0143
944.00,0.0146
943.00,0.0149
942.00,0.0154
941.00,0.0160
940.00,0.0166
939.00,0.0174
938.00,0.0183
937.00,0.0192
936.00,0.0201
935.00,0.0210
934.00,0.0217
933.00,0.0221
932.00,0.0221
931.00,0.0220
930.00,0.0217
929.00,0.0216
928.00,0.0215
927.00,0.0216
926.00,0.0217
925.00,0.0218
924.00,0.0217
923.00,0.0215
922.00,0.0212
921.00,0.0209
920.00,0.0204
919.00,0.0200
918.00,0.0196
917.00,0.0193
916.00,0.0189
915.00,0.0185
914.00,0.0181
913.00,0.0178
912.00,0.0175
911.00,0.0173
910.00,0.0173
909.00,0.0175
908.00,0.0176
907.00,0.0179
906.00,0.0184
905.00,0.0190
904.00,0.0197
903.00,0.0205
902.00,0.0214
901.00,0.0224
900.00,0.0233
899.00,0.0240
898.00,0.0246
897.00,0.0248
896.00,0.0248
895.00,0.0244
894.00,0.0239
893.00,0.0233
892.00,0.0224
891.00,0.0217
890.00,0.0210
889.00,0.0205
888.00,0.0202
887.00,0.0200
886.00,0.0201
885.00,0.0203
884.00,0.0206
883.00,0.0211
882.00,0.0217
881.00,0.0223
880.00,0.0232
879.00,0.0242
878.00,0.0256
877.00,0.0271
876.00,0.0286
875.00,0.0301
874.00,0.0314
873.00,0.0325
872.00,0.0333
871.00,0.0339
870.00,0.0342
869.00,0.0343
868.00,0.0342
867.00,0.0341
866.00,0.0340
865.00,0.0338
864.00,0.0337
863.00,0.0335
862.00,0.0334
861.00,0.0333
860.00,0.0332
859.00,0.0331
858.00,0.0333
857.00,0.0335
856.00,0.0339
855.00,0.0344
854.00,0.0350
853.00,0.0356
852.00,0.0362
851.00,0.0368
850.00,0.0374
849.00,0.0380
848.00,0.0384
847.00,0.0388
846.00,0.0391
845.00,0.0394
844.00,0.0395
843.00,0.0396
842.00,0.0396
841.00,0.0396
840.00,0.0394
839.00,0.0393
838.00,0.0394
837.00,0.0396
836.00,0.0398
835.00,0.0401
834.00,0.0403
833.00,0.0404
832.00,0.0406
831.00,0.0407
830.00,0.0409
829.00,0.0410
828.00,0.0410
827.00,0.0410
826.00,0.0411
825.00,0.0413
824.00,0.0415
823.00,0.0421
822.00,0.0428
821.00,0.0437
820.00,0.0446
819.00,0.0455
818.00,0.0466
817.00,0.0476
816.00,0.0484
815.00,0.0490
814.00,0.0494
813.00,0.0493
812.00,0.0485
811.00,0.0471
810.00,0.0451
809.00,0.0425
808.00,0.0396
807.00,0.0366
806.00,0.0338
805.00,0.0312
804.00,0.0289
803.00,0.0271
802.00,0.0259
801.00,0.0250
800.00,0.0243
799.00,0.0239
798.00,0.0237
797.00,0.0235
796.00,0.0233
795.00,0.0232
794.00,0.0232
793.00,0.0232
792.00,0.0231
791.00,0.0232
790.00,0.0233
789.00,0.0234
788.00,0.0234
787.00,0.0232
786.00,0.0232
785.00,0.0232
784.00,0.0232
783.00,0.0234
782.00,0.0239
781.00,0.0244
780.00,0.0249
779.00,0.0254
778.00,0.0258
777.00,0.0261
776.00,0.0259
775.00,0.0255
774.00,0.0250
773.00,0.0245
772.00,0.0240
771.00,0.0238
770.00,0.0237
769.00,0.0238
768.00,0.0240
767.00,0.0241
766.00,0.0244
765.00,0.0245
764.00,0.0247
763.00,0.0249
762.00,0.0253
761.00,0.0256
760.00,0.0259
759.00,0.0263
758.00,0.0268
757.00,0.0273
756.00,0.0277
755.00,0.0281
754.00,0.0287
753.00,0.0292
752.00,0.0297
751.00,0.0302
750.00,0.0307
749.00,0.0312
748.00,0.0317
747.00,0.0322
746.00,0.0328
745.00,0.0335
744.00,0.0343
743.00,0.0353
742.00,0.0366
741.00,0.0382
740.00,0.0398
739.00,0.0415
738.00,0.0430
737.00,0.0440
736.00,0.0441
735.00,0.0436
734.00,0.0425
733.00,0.0410
732.00,0.0392
731.00,0.0375
730.00,0.0361
729.00,0.0348
728.00,0.0336
727.00,0.0325
726.00,0.0316
725.00,0.0308
724.00,0.0299
723.00,0.0292
722.00,0.0285
721.00,0.0279
720.00,0.0273
719.00,0.0270
718.00,0.0269
717.00,0.0270
716.00,0.0269
715.00,0.0269
714.00,0.0268
713.00,0.0266
712.00,0.0264
711.00,0.0261
710.00,0.0258
709.00,0.0255
708.00,0.0251
707.00,0.0249
706.00,0.0248
705.00,0.0249
704.00,0.0249
703.00,0.0248
702.00,0.0248
701.00,0.0247
700.00,0.0248
699.00,0.0251
698.00,0.0258
697.00,0.0267
696.00,0.0277
695.00,0.0289
694.00,0.0301
693.00,0.0311
692.00,0.0319
691.00,0.0325
690.00,0.0329
689.00,0.0331
688.00,0.0329
687.00,0.0325
686.00,0.0320
685.00,0.0315
684.00,0.0308
683.00,0.0301
682.00,0.0297
681.00,0.0294
680.00,0.0292
679.00,0.0292
678.00,0.0293
677.00,0.0294
676.00,0.0295
675.00,0.0298
674.00,0.0303
673.00,0.0309
672.00,0.0315
671.00,0.0320
670.00,0.0323
669.00,0.0329
668.00,0.0338
667.00,0.0350
666.00,0.0362
665.00,0.0370
664.00,0.0376
663.00,0.0382
662.00,0.0391
661.00,0.0401
660.00,0.0410
659.00,0.0418
658.00,0.0426
657.00,0.0433
656.00,0.0439
655.00,0.0445
654.00,0.0453
653.00,0.0459
652.00,0.0464
651.00,0.0466
650.00,0.0469
649.00,0.0469
648.00,0.0467
647.00,0.0463
646.00,0.0457
645.00,0.0450
644.00,0.0440
643.00,0.0431
642.00,0.0422
641.00,0.0412
640.00,0.0401
639.00,0.0390
638.00,0.0380
637.00,0.0370
636.00,0.0360
635.00,0.0353
634.00,0.0347
633.00,0.0342
632.00,0.0336
631.00,0.0331
630.00,0.0328
629.00,0.0326
628.00,0.0325
627.00,0.0325
626.00,0.0327
625.00,0.0328
624.00,0.0327
623.00,0.0325
622.00,0.0323
621.00,0.0320
620.00,0.0316
619.00,0.0313
618.00,0.0310
617.00,0.0306
616.00,0.0301
615.00,0.0297
614.00,0.0295
613.00,0.0295
612.00,0.0296
611.00,0.0298
610.00,0.0302
609.00,0.0306
608.00,0.0309
607.00,0.0312
606.00,0.0317
605.00,0.0321
604.00,0.0323
603.00,0.0326
602.00,0.0331
601.00,0.0334
600.00,0.0336
599.00,0.0337
598.00,0.0338
597.00,0.0336
596.00,0.0331
595.00,0.0324
594.00,0.0321
593.00,0.0318
592.00,0.0317
591.00,0.0318
590.00,0.0325
589.00,0.0337
588.00,0.0353
587.00,0.0374
586.00,0.0401
585.00,0.0429
584.00,0.0452
583.00,0.0471
582.00,0.0485
581.00,0.0491
580.00,0.0492
579.00,0.0489
578.00,0.0486
577.00,0.0481
576.00,0.0471
575.00,0.0460
574.00,0.0454
573.00,0.0450
572.00,0.0446
571.00,0.0443
570.00,0.0440
569.00,0.0436
568.00,0.0430
567.00,0.0426
566.00,0.0426
565.00,0.0424
564.00,0.0420
563.00,0.0413
562.00,0.0407
561.00,0.0401
560.00,0.0395
559.00,0.0391
558.00,0.0389
557.00,0.0387
556.00,0.0382
555.00,0.0374
554.00,0.0367
553.00,0.0359
552.00,0.0351
551.00,0.0345
550.00,0.0341
549.00,0.0338
548.00,0.0332
547.00,0.0327
546.00,0.0322
545.00,0.0316
544.00,0.0307
543.00,0.0299
542.00,0.0294
541.00,0.0292
540.00,0.0292
539.00,0.0295
538.00,0.0304
537.00,0.0315
536.00,0.0326
535.00,0.0338
534.00,0.0351
533.00,0.0361
532.00,0.0364
531.00,0.0363
530.00,0.0360
529.00,0.0355
528.00,0.0346
527.00,0.0336
526.00,0.0327
525.00,0.0317
524.00,0.0305
523.00,0.0293
522.00,0.0283
521.00,0.0274
520.00,0.0266
519.00,0.0262
518.00,0.0264
517.00,0.0266
516.00,0.0263
515.00,0.0259
514.00,0.0257
513.00,0.0256
512.00,0.0253
511.00,0.0255
510.00,0.0262
509.00,0.0271
508.00,0.0278
507.00,0.0283
506.00,0.0285
505.00,0.0281
504.00,0.0272
503.00,0.0263
502.00,0.0259
501.00,0.0256
500.00,0.0253
499.00,0.0250
498.00,0.0252
497.00,0.0252
496.00,0.0250
495.00,0.0248
494.00,0.0249
493.00,0.0251
492.00,0.0251
491.00,0.0253
490.00,0.0257
489.00,0.0259
488.00,0.0257
487.00,0.0254
486.00,0.0253
485.00,0.0250
484.00,0.0244
483.00,0.0242
482.00,0.0246
481.00,0.0251
480.00,0.0252
479.00,0.0251
478.00,0.0250
477.00,0.0248
476.00,0.0243
475.00,0.0241
474.00,0.0248
473.00,0.0257
472.00,0.0259
471.00,0.0257
470.00,0.0254
469.00,0.0249
468.00,0.0244
467.00,0.0242
466.00,0.0247
465.00,0.0250
464.00,0.0248
463.00,0.0247
462.00,0.0249
461.00,0.0250
460.00,0.0245
459.00,0.0240
458.00,0.0239
457.00,0.0236
456.00,0.0227
455.00,0.0219
454.00,0.0219
453.00,0.0223
452.00,0.0226
451.00,0.0230
450.00,0.0235
449.00,0.0237
448.00,0.0233
447.00,0.0231
446.00,0.0236
445.00,0.0241
444.00,0.0241
443.00,0.0239
442.00,0.0240
441.00,0.0238
440.00,0.0229
439.00,0.0221
438.00,0.0219
437.00,0.0219
436.00,0.0215
435.00,0.0214
434.00,0.0217
433.00,0.0220
432.00,0.0219
431.00,0.0222
430.00,0.0232
429.00,0.0238
428.00,0.0235
427.00,0.0233
426.00,0.0238
425.00,0.0242
424.00,0.0237
423.00,0.0230
422.00,0.0226
421.00,0.0219
420.00,0.0205
419.00,0.0197
418.00,0.0207
417.00,0.0216
416.00,0.0215
415.00,0.0218
414.00,0.0235
413.00,0.0250
412.00,0.0250
411.00,0.0243
410.00,0.0245
409.00,0.0248
408.00,0.0244
407.00,0.0242
406.00,0.0249
405.00,0.0247
404.00,0.0230
403.00,0.0220
402.00,0.0234
401.00,0.0256
400.00,0.0258
