Created as New Dataset,Sample 509 By YargerLab Date Monday, February 02 2026
cm-1,A
4000.00,0.0046
3999.00,0.0046
3998.00,0.0045
3997.00,0.0045
3996.00,0.0045
3995.00,0.0045
3994.00,0.0045
3993.00,0.0045
3992.00,0.0045
3991.00,0.0045
3990.00,0.0046
3989.00,0.0046
3988.00,0.0046
3987.00,0.0046
3986.00,0.0046
3985.00,0.0045
3984.00,0.0045
3983.00,0.0045
3982.00,0.0045
3981.00,0.0045
3980.00,0.0045
3979.00,0.0045
3978.00,0.0045
3977.00,0.0045
3976.00,0.0045
3975.00,0.0045
3974.00,0.0045
3973.00,0.0045
3972.00,0.0045
3971.00,0.0045
3970.00,0.0045
3969.00,0.0045
3968.00,0.0045
3967.00,0.0045
3966.00,0.0045
3965.00,0.0045
3964.00,0.0045
3963.00,0.0045
3962.00,0.0045
3961.00,0.0045
3960.00,0.0045
3959.00,0.0045
3958.00,0.0045
3957.00,0.0045
3956.00,0.0045
3955.00,0.0045
3954.00,0.0045
3953.00,0.0045
3952.00,0.0044
3951.00,0.0044
3950.00,0.0045
3949.00,0.0045
3948.00,0.0045
3947.00,0.0045
3946.00,0.0045
3945.00,0.0045
3944.00,0.0044
3943.00,0.0044
3942.00,0.0044
3941.00,0.0044
3940.00,0.0044
3939.00,0.0044
3938.00,0.0044
3937.00,0.0044
3936.00,0.0044
3935.00,0.0044
3934.00,0.0045
3933.00,0.0045
3932.00,0.0045
3931.00,0.0045
3930.00,0.0045
3929.00,0.0044
3928.00,0.0044
3927.00,0.0044
3926.00,0.0044
3925.00,0.0043
3924.00,0.0044
3923.00,0.0044
3922.00,0.0044
3921.00,0.0044
3920.00,0.0045
3919.00,0.0045
3918.00,0.0045
3917.00,0.0045
3916.00,0.0044
3915.00,0.0044
3914.00,0.0044
3913.00,0.0044
3912.00,0.0044
3911.00,0.0044
3910.00,0.0044
3909.00,0.0044
3908.00,0.0044
3907.00,0.0044
3906.00,0.0044
3905.00,0.0044
3904.00,0.0045
3903.00,0.0045
3902.00,0.0046
3901.00,0.0045
3900.00,0.0045
3899.00,0.0045
3898.00,0.0045
3897.00,0.0044
3896.00,0.0044
3895.00,0.0044
3894.00,0.0044
3893.00,0.0044
3892.00,0.0044
3891.00,0.0044
3890.00,0.0044
3889.00,0.0045
3888.00,0.0045
3887.00,0.0045
3886.00,0.0045
3885.00,0.0045
3884.00,0.0045
3883.00,0.0045
3882.00,0.0045
3881.00,0.0045
3880.00,0.0045
3879.00,0.0045
3878.00,0.0045
3877.00,0.0045
3876.00,0.0044
3875.00,0.0044
3874.00,0.0044
3873.00,0.0044
3872.00,0.0045
3871.00,0.0045
3870.00,0.0045
3869.00,0.0045
3868.00,0.0045
3867.00,0.0045
3866.00,0.0045
3865.00,0.0045
3864.00,0.0044
3863.00,0.0045
3862.00,0.0045
3861.00,0.0045
3860.00,0.0045
3859.00,0.0045
3858.00,0.0044
3857.00,0.0044
3856.00,0.0044
3855.00,0.0044
3854.00,0.0044
3853.00,0.0044
3852.00,0.0044
3851.00,0.0044
3850.00,0.0044
3849.00,0.0044
3848.00,0.0044
3847.00,0.0044
3846.00,0.0044
3845.00,0.0044
3844.00,0.0044
3843.00,0.0044
3842.00,0.0044
3841.00,0.0045
3840.00,0.0045
3839.00,0.0045
3838.00,0.0045
3837.00,0.0045
3836.00,0.0045
3835.00,0.0045
3834.00,0.0045
3833.00,0.0045
3832.00,0.0044
3831.00,0.0044
3830.00,0.0044
3829.00,0.0044
3828.00,0.0044
3827.00,0.0044
3826.00,0.0044
3825.00,0.0044
3824.00,0.0044
3823.00,0.0045
3822.00,0.0045
3821.00,0.0045
3820.00,0.0045
3819.00,0.0045
3818.00,0.0046
3817.00,0.0045
3816.00,0.0045
3815.00,0.0045
3814.00,0.0045
3813.00,0.0045
3812.00,0.0045
3811.00,0.0045
3810.00,0.0045
3809.00,0.0045
3808.00,0.0044
3807.00,0.0044
3806.00,0.0044
3805.00,0.0045
3804.00,0.0045
3803.00,0.0045
3802.00,0.0044
3801.00,0.0044
3800.00,0.0044
3799.00,0.0044
3798.00,0.0044
3797.00,0.0044
3796.00,0.0044
3795.00,0.0044
3794.00,0.0044
3793.00,0.0044
3792.00,0.0044
3791.00,0.0043
3790.00,0.0043
3789.00,0.0044
3788.00,0.0044
3787.00,0.0044
3786.00,0.0044
3785.00,0.0044
3784.00,0.0044
3783.00,0.0044
3782.00,0.0044
3781.00,0.0044
3780.00,0.0044
3779.00,0.0044
3778.00,0.0044
3777.00,0.0044
3776.00,0.0044
3775.00,0.0043
3774.00,0.0043
3773.00,0.0044
3772.00,0.0044
3771.00,0.0044
3770.00,0.0044
3769.00,0.0044
3768.00,0.0044
3767.00,0.0044
3766.00,0.0044
3765.00,0.0044
3764.00,0.0044
3763.00,0.0044
3762.00,0.0044
3761.00,0.0044
3760.00,0.0044
3759.00,0.0044
3758.00,0.0044
3757.00,0.0045
3756.00,0.0045
3755.00,0.0045
3754.00,0.0046
3753.00,0.0046
3752.00,0.0046
3751.00,0.0047
3750.00,0.0047
3749.00,0.0047
3748.00,0.0046
3747.00,0.0046
3746.00,0.0046
3745.00,0.0046
3744.00,0.0046
3743.00,0.0046
3742.00,0.0046
3741.00,0.0046
3740.00,0.0046
3739.00,0.0046
3738.00,0.0046
3737.00,0.0046
3736.00,0.0046
3735.00,0.0046
3734.00,0.0046
3733.00,0.0046
3732.00,0.0046
3731.00,0.0045
3730.00,0.0045
3729.00,0.0045
3728.00,0.0045
3727.00,0.0045
3726.00,0.0045
3725.00,0.0045
3724.00,0.0045
3723.00,0.0044
3722.00,0.0044
3721.00,0.0044
3720.00,0.0044
3719.00,0.0044
3718.00,0.0044
3717.00,0.0043
3716.00,0.0043
3715.00,0.0043
3714.00,0.0044
3713.00,0.0044
3712.00,0.0044
3711.00,0.0044
3710.00,0.0044
3709.00,0.0044
3708.00,0.0044
3707.00,0.0043
3706.00,0.0043
3705.00,0.0043
3704.00,0.0043
3703.00,0.0044
3702.00,0.0043
3701.00,0.0043
3700.00,0.0044
3699.00,0.0044
3698.00,0.0044
3697.00,0.0044
3696.00,0.0044
3695.00,0.0044
3694.00,0.0044
3693.00,0.0044
3692.00,0.0044
3691.00,0.0045
3690.00,0.0046
3689.00,0.0046
3688.00,0.0047
3687.00,0.0047
3686.00,0.0047
3685.00,0.0047
3684.00,0.0048
3683.00,0.0048
3682.00,0.0048
3681.00,0.0049
3680.00,0.0049
3679.00,0.0050
3678.00,0.0051
3677.00,0.0051
3676.00,0.0052
3675.00,0.0052
3674.00,0.0053
3673.00,0.0053
3672.00,0.0054
3671.00,0.0054
3670.00,0.0054
3669.00,0.0054
3668.00,0.0055
3667.00,0.0055
3666.00,0.0055
3665.00,0.0055
3664.00,0.0055
3663.00,0.0055
3662.00,0.0056
3661.00,0.0056
3660.00,0.0057
3659.00,0.0057
3658.00,0.0058
3657.00,0.0058
3656.00,0.0059
3655.00,0.0060
3654.00,0.0061
3653.00,0.0062
3652.00,0.0063
3651.00,0.0063
3650.00,0.0063
3649.00,0.0064
3648.00,0.0064
3647.00,0.0065
3646.00,0.0065
3645.00,0.0065
3644.00,0.0066
3643.00,0.0066
3642.00,0.0067
3641.00,0.0067
3640.00,0.0068
3639.00,0.0069
3638.00,0.0070
3637.00,0.0071
3636.00,0.0072
3635.00,0.0073
3634.00,0.0074
3633.00,0.0075
3632.00,0.0076
3631.00,0.0077
3630.00,0.0078
3629.00,0.0079
3628.00,0.0080
3627.00,0.0081
3626.00,0.0082
3625.00,0.0083
3624.00,0.0084
3623.00,0.0085
3622.00,0.0086
3621.00,0.0087
3620.00,0.0088
3619.00,0.0089
3618.00,0.0090
3617.00,0.0092
3616.00,0.0094
3615.00,0.0096
3614.00,0.0097
3613.00,0.0098
3612.00,0.0100
3611.00,0.0101
3610.00,0.0102
3609.00,0.0103
3608.00,0.0104
3607.00,0.0105
3606.00,0.0106
3605.00,0.0107
3604.00,0.0109
3603.00,0.0110
3602.00,0.0112
3601.00,0.0113
3600.00,0.0115
3599.00,0.0117
3598.00,0.0118
3597.00,0.0120
3596.00,0.0121
3595.00,0.0122
3594.00,0.0124
3593.00,0.0126
3592.00,0.0128
3591.00,0.0130
3590.00,0.0132
3589.00,0.0133
3588.00,0.0135
3587.00,0.0136
3586.00,0.0138
3585.00,0.0140
3584.00,0.0141
3583.00,0.0143
3582.00,0.0144
3581.00,0.0146
3580.00,0.0147
3579.00,0.0149
3578.00,0.0150
3577.00,0.0152
3576.00,0.0154
3575.00,0.0156
3574.00,0.0158
3573.00,0.0160
3572.00,0.0161
3571.00,0.0164
3570.00,0.0166
3569.00,0.0167
3568.00,0.0169
3567.00,0.0171
3566.00,0.0173
3565.00,0.0174
3564.00,0.0176
3563.00,0.0177
3562.00,0.0179
3561.00,0.0180
3560.00,0.0182
3559.00,0.0183
3558.00,0.0185
3557.00,0.0186
3556.00,0.0188
3555.00,0.0189
3554.00,0.0190
3553.00,0.0192
3552.00,0.0194
3551.00,0.0195
3550.00,0.0197
3549.00,0.0198
3548.00,0.0200
3547.00,0.0201
3546.00,0.0202
3545.00,0.0203
3544.00,0.0205
3543.00,0.0206
3542.00,0.0207
3541.00,0.0208
3540.00,0.0210
3539.00,0.0211
3538.00,0.0212
3537.00,0.0213
3536.00,0.0214
3535.00,0.0215
3534.00,0.0216
3533.00,0.0217
3532.00,0.0218
3531.00,0.0219
3530.00,0.0220
3529.00,0.0222
3528.00,0.0223
3527.00,0.0224
3526.00,0.0225
3525.00,0.0226
3524.00,0.0227
3523.00,0.0227
3522.00,0.0228
3521.00,0.0229
3520.00,0.0229
3519.00,0.0230
3518.00,0.0231
3517.00,0.0232
3516.00,0.0233
3515.00,0.0233
3514.00,0.0234
3513.00,0.0235
3512.00,0.0236
3511.00,0.0237
3510.00,0.0238
3509.00,0.0238
3508.00,0.0239
3507.00,0.0240
3506.00,0.0241
3505.00,0.0241
3504.00,0.0242
3503.00,0.0243
3502.00,0.0243
3501.00,0.0244
3500.00,0.0244
3499.00,0.0245
3498.00,0.0246
3497.00,0.0247
3496.00,0.0247
3495.00,0.0248
3494.00,0.0249
3493.00,0.0249
3492.00,0.0250
3491.00,0.0250
3490.00,0.0251
3489.00,0.0251
3488.00,0.0252
3487.00,0.0252
3486.00,0.0253
3485.00,0.0254
3484.00,0.0254
3483.00,0.0255
3482.00,0.0255
3481.00,0.0256
3480.00,0.0256
3479.00,0.0257
3478.00,0.0257
3477.00,0.0258
3476.00,0.0259
3475.00,0.0259
3474.00,0.0260
3473.00,0.0260
3472.00,0.0260
3471.00,0.0261
3470.00,0.0262
3469.00,0.0262
3468.00,0.0262
3467.00,0.0263
3466.00,0.0263
3465.00,0.0264
3464.00,0.0264
3463.00,0.0265
3462.00,0.0265
3461.00,0.0266
3460.00,0.0266
3459.00,0.0266
3458.00,0.0267
3457.00,0.0267
3456.00,0.0267
3455.00,0.0268
3454.00,0.0268
3453.00,0.0268
3452.00,0.0269
3451.00,0.0269
3450.00,0.0269
3449.00,0.0270
3448.00,0.0270
3447.00,0.0270
3446.00,0.0270
3445.00,0.0270
3444.00,0.0270
3443.00,0.0270
3442.00,0.0270
3441.00,0.0270
3440.00,0.0270
3439.00,0.0271
3438.00,0.0271
3437.00,0.0271
3436.00,0.0271
3435.00,0.0271
3434.00,0.0271
3433.00,0.0271
3432.00,0.0271
3431.00,0.0271
3430.00,0.0271
3429.00,0.0271
3428.00,0.0271
3427.00,0.0271
3426.00,0.0271
3425.00,0.0271
3424.00,0.0271
3423.00,0.0271
3422.00,0.0271
3421.00,0.0270
3420.00,0.0270
3419.00,0.0270
3418.00,0.0270
3417.00,0.0270
3416.00,0.0269
3415.00,0.0269
3414.00,0.0269
3413.00,0.0269
3412.00,0.0269
3411.00,0.0269
3410.00,0.0268
3409.00,0.0268
3408.00,0.0268
3407.00,0.0268
3406.00,0.0267
3405.00,0.0267
3404.00,0.0266
3403.00,0.0265
3402.00,0.0264
3401.00,0.0264
3400.00,0.0264
3399.00,0.0263
3398.00,0.0263
3397.00,0.0263
3396.00,0.0262
3395.00,0.0262
3394.00,0.0261
3393.00,0.0260
3392.00,0.0259
3391.00,0.0259
3390.00,0.0259
3389.00,0.0259
3388.00,0.0259
3387.00,0.0259
3386.00,0.0258
3385.00,0.0257
3384.00,0.0257
3383.00,0.0256
3382.00,0.0255
3381.00,0.0254
3380.00,0.0254
3379.00,0.0253
3378.00,0.0252
3377.00,0.0251
3376.00,0.0251
3375.00,0.0250
3374.00,0.0249
3373.00,0.0248
3372.00,0.0247
3371.00,0.0246
3370.00,0.0244
3369.00,0.0243
3368.00,0.0243
3367.00,0.0243
3366.00,0.0243
3365.00,0.0243
3364.00,0.0243
3363.00,0.0243
3362.00,0.0242
3361.00,0.0241
3360.00,0.0241
3359.00,0.0241
3358.00,0.0241
3357.00,0.0240
3356.00,0.0240
3355.00,0.0239
3354.00,0.0238
3353.00,0.0236
3352.00,0.0235
3351.00,0.0234
3350.00,0.0234
3349.00,0.0234
3348.00,0.0234
3347.00,0.0234
3346.00,0.0234
3345.00,0.0233
3344.00,0.0232
3343.00,0.0231
3342.00,0.0231
3341.00,0.0230
3340.00,0.0229
3339.00,0.0229
3338.00,0.0229
3337.00,0.0229
3336.00,0.0230
3335.00,0.0231
3334.00,0.0231
3333.00,0.0231
3332.00,0.0230
3331.00,0.0230
3330.00,0.0229
3329.00,0.0228
3328.00,0.0227
3327.00,0.0227
3326.00,0.0226
3325.00,0.0226
3324.00,0.0227
3323.00,0.0228
3322.00,0.0228
3321.00,0.0228
3320.00,0.0229
3319.00,0.0229
3318.00,0.0228
3317.00,0.0228
3316.00,0.0228
3315.00,0.0228
3314.00,0.0228
3313.00,0.0227
3312.00,0.0227
3311.00,0.0225
3310.00,0.0224
3309.00,0.0222
3308.00,0.0222
3307.00,0.0221
3306.00,0.0222
3305.00,0.0223
3304.00,0.0225
3303.00,0.0227
3302.00,0.0229
3301.00,0.0230
3300.00,0.0230
3299.00,0.0229
3298.00,0.0229
3297.00,0.0228
3296.00,0.0227
3295.00,0.0227
3294.00,0.0227
3293.00,0.0227
3292.00,0.0227
3291.00,0.0228
3290.00,0.0229
3289.00,0.0230
3288.00,0.0231
3287.00,0.0231
3286.00,0.0230
3285.00,0.0230
3284.00,0.0229
3283.00,0.0229
3282.00,0.0228
3281.00,0.0227
3280.00,0.0226
3279.00,0.0226
3278.00,0.0225
3277.00,0.0223
3276.00,0.0222
3275.00,0.0221
3274.00,0.0219
3273.00,0.0217
3272.00,0.0216
3271.00,0.0215
3270.00,0.0215
3269.00,0.0215
3268.00,0.0214
3267.00,0.0214
3266.00,0.0213
3265.00,0.0212
3264.00,0.0211
3263.00,0.0210
3262.00,0.0208
3261.00,0.0207
3260.00,0.0206
3259.00,0.0205
3258.00,0.0203
3257.00,0.0202
3256.00,0.0201
3255.00,0.0200
3254.00,0.0199
3253.00,0.0198
3252.00,0.0198
3251.00,0.0196
3250.00,0.0195
3249.00,0.0194
3248.00,0.0193
3247.00,0.0192
3246.00,0.0191
3245.00,0.0191
3244.00,0.0191
3243.00,0.0190
3242.00,0.0190
3241.00,0.0189
3240.00,0.0189
3239.00,0.0189
3238.00,0.0188
3237.00,0.0187
3236.00,0.0187
3235.00,0.0186
3234.00,0.0186
3233.00,0.0186
3232.00,0.0186
3231.00,0.0186
3230.00,0.0186
3229.00,0.0186
3228.00,0.0186
3227.00,0.0186
3226.00,0.0186
3225.00,0.0186
3224.00,0.0185
3223.00,0.0185
3222.00,0.0184
3221.00,0.0184
3220.00,0.0184
3219.00,0.0183
3218.00,0.0183
3217.00,0.0182
3216.00,0.0181
3215.00,0.0180
3214.00,0.0179
3213.00,0.0179
3212.00,0.0178
3211.00,0.0177
3210.00,0.0176
3209.00,0.0175
3208.00,0.0174
3207.00,0.0173
3206.00,0.0172
3205.00,0.0171
3204.00,0.0170
3203.00,0.0169
3202.00,0.0168
3201.00,0.0167
3200.00,0.0166
3199.00,0.0165
3198.00,0.0164
3197.00,0.0163
3196.00,0.0162
3195.00,0.0161
3194.00,0.0160
3193.00,0.0159
3192.00,0.0158
3191.00,0.0156
3190.00,0.0155
3189.00,0.0154
3188.00,0.0153
3187.00,0.0152
3186.00,0.0151
3185.00,0.0150
3184.00,0.0149
3183.00,0.0148
3182.00,0.0147
3181.00,0.0145
3180.00,0.0144
3179.00,0.0143
3178.00,0.0142
3177.00,0.0141
3176.00,0.0140
3175.00,0.0139
3174.00,0.0138
3173.00,0.0137
3172.00,0.0136
3171.00,0.0135
3170.00,0.0133
3169.00,0.0132
3168.00,0.0131
3167.00,0.0130
3166.00,0.0129
3165.00,0.0128
3164.00,0.0127
3163.00,0.0126
3162.00,0.0125
3161.00,0.0124
3160.00,0.0123
3159.00,0.0123
3158.00,0.0122
3157.00,0.0121
3156.00,0.0120
3155.00,0.0119
3154.00,0.0118
3153.00,0.0117
3152.00,0.0116
3151.00,0.0116
3150.00,0.0115
3149.00,0.0115
3148.00,0.0114
3147.00,0.0113
3146.00,0.0113
3145.00,0.0112
3144.00,0.0111
3143.00,0.0110
3142.00,0.0110
3141.00,0.0109
3140.00,0.0108
3139.00,0.0108
3138.00,0.0108
3137.00,0.0107
3136.00,0.0107
3135.00,0.0107
3134.00,0.0106
3133.00,0.0106
3132.00,0.0105
3131.00,0.0105
3130.00,0.0105
3129.00,0.0105
3128.00,0.0105
3127.00,0.0105
3126.00,0.0105
3125.00,0.0105
3124.00,0.0106
3123.00,0.0106
3122.00,0.0106
3121.00,0.0106
3120.00,0.0107
3119.00,0.0107
3118.00,0.0107
3117.00,0.0108
3116.00,0.0109
3115.00,0.0109
3114.00,0.0110
3113.00,0.0111
3112.00,0.0112
3111.00,0.0113
3110.00,0.0113
3109.00,0.0114
3108.00,0.0115
3107.00,0.0116
3106.00,0.0117
3105.00,0.0118
3104.00,0.0119
3103.00,0.0120
3102.00,0.0120
3101.00,0.0121
3100.00,0.0122
3099.00,0.0122
3098.00,0.0123
3097.00,0.0123
3096.00,0.0124
3095.00,0.0124
3094.00,0.0124
3093.00,0.0124
3092.00,0.0124
3091.00,0.0124
3090.00,0.0124
3089.00,0.0123
3088.00,0.0123
3087.00,0.0123
3086.00,0.0123
3085.00,0.0123
3084.00,0.0122
3083.00,0.0122
3082.00,0.0121
3081.00,0.0121
3080.00,0.0120
3079.00,0.0120
3078.00,0.0119
3077.00,0.0119
3076.00,0.0119
3075.00,0.0119
3074.00,0.0119
3073.00,0.0118
3072.00,0.0118
3071.00,0.0117
3070.00,0.0117
3069.00,0.0116
3068.00,0.0115
3067.00,0.0115
3066.00,0.0115
3065.00,0.0114
3064.00,0.0114
3063.00,0.0113
3062.00,0.0112
3061.00,0.0111
3060.00,0.0111
3059.00,0.0110
3058.00,0.0109
3057.00,0.0109
3056.00,0.0108
3055.00,0.0107
3054.00,0.0106
3053.00,0.0105
3052.00,0.0105
3051.00,0.0104
3050.00,0.0103
3049.00,0.0102
3048.00,0.0102
3047.00,0.0101
3046.00,0.0100
3045.00,0.0099
3044.00,0.0099
3043.00,0.0098
3042.00,0.0098
3041.00,0.0098
3040.00,0.0098
3039.00,0.0098
3038.00,0.0097
3037.00,0.0097
3036.00,0.0097
3035.00,0.0097
3034.00,0.0097
3033.00,0.0097
3032.00,0.0097
3031.00,0.0097
3030.00,0.0098
3029.00,0.0098
3028.00,0.0098
3027.00,0.0099
3026.00,0.0099
3025.00,0.0099
3024.00,0.0100
3023.00,0.0101
3022.00,0.0102
3021.00,0.0103
3020.00,0.0104
3019.00,0.0105
3018.00,0.0106
3017.00,0.0107
3016.00,0.0109
3015.00,0.0110
3014.00,0.0112
3013.00,0.0114
3012.00,0.0117
3011.00,0.0120
3010.00,0.0123
3009.00,0.0127
3008.00,0.0130
3007.00,0.0134
3006.00,0.0138
3005.00,0.0142
3004.00,0.0146
3003.00,0.0151
3002.00,0.0155
3001.00,0.0160
3000.00,0.0164
2999.00,0.0169
2998.00,0.0174
2997.00,0.0180
2996.00,0.0185
2995.00,0.0191
2994.00,0.0196
2993.00,0.0202
2992.00,0.0207
2991.00,0.0212
2990.00,0.0218
2989.00,0.0223
2988.00,0.0229
2987.00,0.0233
2986.00,0.0238
2985.00,0.0242
2984.00,0.0245
2983.00,0.0249
2982.00,0.0252
2981.00,0.0255
2980.00,0.0258
2979.00,0.0260
2978.00,0.0263
2977.00,0.0265
2976.00,0.0267
2975.00,0.0268
2974.00,0.0270
2973.00,0.0271
2972.00,0.0273
2971.00,0.0275
2970.00,0.0277
2969.00,0.0279
2968.00,0.0281
2967.00,0.0284
2966.00,0.0286
2965.00,0.0289
2964.00,0.0291
2963.00,0.0294
2962.00,0.0297
2961.00,0.0300
2960.00,0.0303
2959.00,0.0306
2958.00,0.0309
2957.00,0.0311
2956.00,0.0313
2955.00,0.0315
2954.00,0.0316
2953.00,0.0317
2952.00,0.0318
2951.00,0.0318
2950.00,0.0318
2949.00,0.0317
2948.00,0.0316
2947.00,0.0314
2946.00,0.0311
2945.00,0.0308
2944.00,0.0305
2943.00,0.0302
2942.00,0.0299
2941.00,0.0296
2940.00,0.0293
2939.00,0.0291
2938.00,0.0288
2937.00,0.0287
2936.00,0.0285
2935.00,0.0285
2934.00,0.0284
2933.00,0.0284
2932.00,0.0284
2931.00,0.0284
2930.00,0.0285
2929.00,0.0285
2928.00,0.0286
2927.00,0.0286
2926.00,0.0287
2925.00,0.0287
2924.00,0.0287
2923.00,0.0286
2922.00,0.0285
2921.00,0.0284
2920.00,0.0282
2919.00,0.0280
2918.00,0.0277
2917.00,0.0274
2916.00,0.0271
2915.00,0.0267
2914.00,0.0263
2913.00,0.0260
2912.00,0.0256
2911.00,0.0253
2910.00,0.0249
2909.00,0.0246
2908.00,0.0243
2907.00,0.0241
2906.00,0.0238
2905.00,0.0236
2904.00,0.0235
2903.00,0.0234
2902.00,0.0233
2901.00,0.0233
2900.00,0.0233
2899.00,0.0233
2898.00,0.0233
2897.00,0.0233
2896.00,0.0234
2895.00,0.0234
2894.00,0.0235
2893.00,0.0235
2892.00,0.0235
2891.00,0.0235
2890.00,0.0235
2889.00,0.0234
2888.00,0.0234
2887.00,0.0234
2886.00,0.0233
2885.00,0.0233
2884.00,0.0233
2883.00,0.0233
2882.00,0.0232
2881.00,0.0232
2880.00,0.0231
2879.00,0.0230
2878.00,0.0229
2877.00,0.0228
2876.00,0.0227
2875.00,0.0225
2874.00,0.0223
2873.00,0.0222
2872.00,0.0220
2871.00,0.0219
2870.00,0.0218
2869.00,0.0216
2868.00,0.0214
2867.00,0.0212
2866.00,0.0211
2865.00,0.0209
2864.00,0.0207
2863.00,0.0205
2862.00,0.0203
2861.00,0.0200
2860.00,0.0198
2859.00,0.0195
2858.00,0.0193
2857.00,0.0190
2856.00,0.0187
2855.00,0.0183
2854.00,0.0180
2853.00,0.0176
2852.00,0.0172
2851.00,0.0169
2850.00,0.0165
2849.00,0.0161
2848.00,0.0157
2847.00,0.0154
2846.00,0.0152
2845.00,0.0149
2844.00,0.0146
2843.00,0.0144
2842.00,0.0141
2841.00,0.0138
2840.00,0.0135
2839.00,0.0133
2838.00,0.0131
2837.00,0.0129
2836.00,0.0128
2835.00,0.0126
2834.00,0.0124
2833.00,0.0122
2832.00,0.0121
2831.00,0.0119
2830.00,0.0116
2829.00,0.0114
2828.00,0.0112
2827.00,0.0110
2826.00,0.0108
2825.00,0.0106
2824.00,0.0105
2823.00,0.0103
2822.00,0.0101
2821.00,0.0099
2820.00,0.0098
2819.00,0.0096
2818.00,0.0095
2817.00,0.0094
2816.00,0.0092
2815.00,0.0091
2814.00,0.0090
2813.00,0.0089
2812.00,0.0088
2811.00,0.0087
2810.00,0.0086
2809.00,0.0086
2808.00,0.0085
2807.00,0.0085
2806.00,0.0084
2805.00,0.0083
2804.00,0.0082
2803.00,0.0081
2802.00,0.0081
2801.00,0.0080
2800.00,0.0079
2799.00,0.0078
2798.00,0.0078
2797.00,0.0077
2796.00,0.0077
2795.00,0.0076
2794.00,0.0076
2793.00,0.0075
2792.00,0.0075
2791.00,0.0074
2790.00,0.0074
2789.00,0.0074
2788.00,0.0073
2787.00,0.0073
2786.00,0.0073
2785.00,0.0072
2784.00,0.0072
2783.00,0.0072
2782.00,0.0071
2781.00,0.0071
2780.00,0.0071
2779.00,0.0070
2778.00,0.0070
2777.00,0.0070
2776.00,0.0069
2775.00,0.0069
2774.00,0.0069
2773.00,0.0068
2772.00,0.0068
2771.00,0.0068
2770.00,0.0068
2769.00,0.0067
2768.00,0.0067
2767.00,0.0067
2766.00,0.0067
2765.00,0.0067
2764.00,0.0066
2763.00,0.0066
2762.00,0.0066
2761.00,0.0066
2760.00,0.0066
2759.00,0.0065
2758.00,0.0065
2757.00,0.0065
2756.00,0.0065
2755.00,0.0065
2754.00,0.0065
2753.00,0.0065
2752.00,0.0065
2751.00,0.0065
2750.00,0.0065
2749.00,0.0065
2748.00,0.0065
2747.00,0.0064
2746.00,0.0064
2745.00,0.0064
2744.00,0.0064
2743.00,0.0064
2742.00,0.0064
2741.00,0.0064
2740.00,0.0064
2739.00,0.0064
2738.00,0.0063
2737.00,0.0063
2736.00,0.0063
2735.00,0.0063
2734.00,0.0064
2733.00,0.0064
2732.00,0.0064
2731.00,0.0063
2730.00,0.0063
2729.00,0.0063
2728.00,0.0063
2727.00,0.0063
2726.00,0.0063
2725.00,0.0063
2724.00,0.0063
2723.00,0.0062
2722.00,0.0062
2721.00,0.0062
2720.00,0.0062
2719.00,0.0062
2718.00,0.0062
2717.00,0.0062
2716.00,0.0062
2715.00,0.0062
2714.00,0.0062
2713.00,0.0062
2712.00,0.0062
2711.00,0.0061
2710.00,0.0061
2709.00,0.0061
2708.00,0.0061
2707.00,0.0060
2706.00,0.0060
2705.00,0.0060
2704.00,0.0060
2703.00,0.0060
2702.00,0.0060
2701.00,0.0060
2700.00,0.0060
2699.00,0.0059
2698.00,0.0059
2697.00,0.0059
2696.00,0.0059
2695.00,0.0059
2694.00,0.0059
2693.00,0.0059
2692.00,0.0059
2691.00,0.0058
2690.00,0.0058
2689.00,0.0058
2688.00,0.0058
2687.00,0.0058
2686.00,0.0058
2685.00,0.0058
2684.00,0.0058
2683.00,0.0058
2682.00,0.0057
2681.00,0.0057
2680.00,0.0057
2679.00,0.0057
2678.00,0.0057
2677.00,0.0057
2676.00,0.0058
2675.00,0.0057
2674.00,0.0057
2673.00,0.0057
2672.00,0.0057
2671.00,0.0057
2670.00,0.0057
2669.00,0.0057
2668.00,0.0058
2667.00,0.0058
2666.00,0.0058
2665.00,0.0059
2664.00,0.0059
2663.00,0.0060
2662.00,0.0060
2661.00,0.0060
2660.00,0.0061
2659.00,0.0061
2658.00,0.0061
2657.00,0.0061
2656.00,0.0061
2655.00,0.0062
2654.00,0.0062
2653.00,0.0062
2652.00,0.0062
2651.00,0.0062
2650.00,0.0062
2649.00,0.0061
2648.00,0.0061
2647.00,0.0061
2646.00,0.0061
2645.00,0.0062
2644.00,0.0062
2643.00,0.0062
2642.00,0.0062
2641.00,0.0062
2640.00,0.0062
2639.00,0.0062
2638.00,0.0061
2637.00,0.0061
2636.00,0.0061
2635.00,0.0061
2634.00,0.0061
2633.00,0.0061
2632.00,0.0061
2631.00,0.0061
2630.00,0.0061
2629.00,0.0061
2628.00,0.0061
2627.00,0.0061
2626.00,0.0061
2625.00,0.0061
2624.00,0.0061
2623.00,0.0061
2622.00,0.0061
2621.00,0.0060
2620.00,0.0060
2619.00,0.0060
2618.00,0.0060
2617.00,0.0060
2616.00,0.0060
2615.00,0.0060
2614.00,0.0059
2613.00,0.0059
2612.00,0.0059
2611.00,0.0059
2610.00,0.0059
2609.00,0.0059
2608.00,0.0059
2607.00,0.0059
2606.00,0.0059
2605.00,0.0058
2604.00,0.0058
2603.00,0.0058
2602.00,0.0058
2601.00,0.0058
2600.00,0.0058
2599.00,0.0058
2598.00,0.0058
2597.00,0.0058
2596.00,0.0058
2595.00,0.0058
2594.00,0.0059
2593.00,0.0059
2592.00,0.0059
2591.00,0.0059
2590.00,0.0058
2589.00,0.0058
2588.00,0.0058
2587.00,0.0058
2586.00,0.0058
2585.00,0.0058
2584.00,0.0059
2583.00,0.0059
2582.00,0.0059
2581.00,0.0059
2580.00,0.0059
2579.00,0.0059
2578.00,0.0058
2577.00,0.0058
2576.00,0.0058
2575.00,0.0058
2574.00,0.0058
2573.00,0.0058
2572.00,0.0058
2571.00,0.0058
2570.00,0.0057
2569.00,0.0057
2568.00,0.0057
2567.00,0.0057
2566.00,0.0057
2565.00,0.0057
2564.00,0.0057
2563.00,0.0057
2562.00,0.0057
2561.00,0.0057
2560.00,0.0057
2559.00,0.0056
2558.00,0.0056
2557.00,0.0056
2556.00,0.0056
2555.00,0.0056
2554.00,0.0056
2553.00,0.0056
2552.00,0.0056
2551.00,0.0056
2550.00,0.0055
2549.00,0.0055
2548.00,0.0055
2547.00,0.0055
2546.00,0.0055
2545.00,0.0055
2544.00,0.0055
2543.00,0.0055
2542.00,0.0055
2541.00,0.0055
2540.00,0.0055
2539.00,0.0055
2538.00,0.0055
2537.00,0.0054
2536.00,0.0054
2535.00,0.0054
2534.00,0.0054
2533.00,0.0054
2532.00,0.0054
2531.00,0.0054
2530.00,0.0053
2529.00,0.0053
2528.00,0.0053
2527.00,0.0053
2526.00,0.0053
2525.00,0.0053
2524.00,0.0053
2523.00,0.0053
2522.00,0.0053
2521.00,0.0053
2520.00,0.0053
2519.00,0.0053
2518.00,0.0052
2517.00,0.0052
2516.00,0.0052
2515.00,0.0052
2514.00,0.0052
2513.00,0.0052
2512.00,0.0052
2511.00,0.0052
2510.00,0.0053
2509.00,0.0053
2508.00,0.0052
2507.00,0.0052
2506.00,0.0052
2505.00,0.0052
2504.00,0.0052
2503.00,0.0052
2502.00,0.0052
2501.00,0.0052
2500.00,0.0052
2499.00,0.0052
2498.00,0.0052
2497.00,0.0052
2496.00,0.0052
2495.00,0.0052
2494.00,0.0052
2493.00,0.0052
2492.00,0.0052
2491.00,0.0052
2490.00,0.0052
2489.00,0.0052
2488.00,0.0052
2487.00,0.0052
2486.00,0.0051
2485.00,0.0051
2484.00,0.0051
2483.00,0.0051
2482.00,0.0051
2481.00,0.0051
2480.00,0.0051
2479.00,0.0051
2478.00,0.0051
2477.00,0.0051
2476.00,0.0051
2475.00,0.0051
2474.00,0.0051
2473.00,0.0051
2472.00,0.0051
2471.00,0.0051
2470.00,0.0051
2469.00,0.0051
2468.00,0.0051
2467.00,0.0051
2466.00,0.0051
2465.00,0.0051
2464.00,0.0051
2463.00,0.0051
2462.00,0.0051
2461.00,0.0051
2460.00,0.0051
2459.00,0.0051
2458.00,0.0051
2457.00,0.0051
2456.00,0.0051
2455.00,0.0052
2454.00,0.0052
2453.00,0.0052
2452.00,0.0052
2451.00,0.0052
2450.00,0.0052
2449.00,0.0051
2448.00,0.0051
2447.00,0.0051
2446.00,0.0051
2445.00,0.0051
2444.00,0.0051
2443.00,0.0051
2442.00,0.0051
2441.00,0.0051
2440.00,0.0051
2439.00,0.0051
2438.00,0.0051
2437.00,0.0051
2436.00,0.0051
2435.00,0.0051
2434.00,0.0050
2433.00,0.0051
2432.00,0.0051
2431.00,0.0051
2430.00,0.0051
2429.00,0.0050
2428.00,0.0050
2427.00,0.0050
2426.00,0.0050
2425.00,0.0050
2424.00,0.0050
2423.00,0.0051
2422.00,0.0051
2421.00,0.0051
2420.00,0.0051
2419.00,0.0051
2418.00,0.0051
2417.00,0.0051
2416.00,0.0051
2415.00,0.0051
2414.00,0.0051
2413.00,0.0051
2412.00,0.0051
2411.00,0.0051
2410.00,0.0050
2409.00,0.0050
2408.00,0.0050
2407.00,0.0049
2406.00,0.0049
2405.00,0.0049
2404.00,0.0049
2403.00,0.0049
2402.00,0.0049
2401.00,0.0049
2400.00,0.0049
2399.00,0.0049
2398.00,0.0049
2397.00,0.0049
2396.00,0.0049
2395.00,0.0049
2394.00,0.0049
2393.00,0.0049
2392.00,0.0049
2391.00,0.0048
2390.00,0.0048
2389.00,0.0048
2388.00,0.0047
2387.00,0.0047
2386.00,0.0046
2385.00,0.0045
2384.00,0.0044
2383.00,0.0043
2382.00,0.0043
2381.00,0.0043
2380.00,0.0042
2379.00,0.0043
2378.00,0.0043
2377.00,0.0043
2376.00,0.0043
2375.00,0.0043
2374.00,0.0043
2373.00,0.0043
2372.00,0.0043
2371.00,0.0043
2370.00,0.0042
2369.00,0.0041
2368.00,0.0041
2367.00,0.0041
2366.00,0.0042
2365.00,0.0043
2364.00,0.0043
2363.00,0.0043
2362.00,0.0043
2361.00,0.0043
2360.00,0.0043
2359.00,0.0043
2358.00,0.0043
2357.00,0.0043
2356.00,0.0044
2355.00,0.0044
2354.00,0.0044
2353.00,0.0044
2352.00,0.0044
2351.00,0.0044
2350.00,0.0044
2349.00,0.0044
2348.00,0.0045
2347.00,0.0045
2346.00,0.0045
2345.00,0.0046
2344.00,0.0046
2343.00,0.0046
2342.00,0.0047
2341.00,0.0047
2340.00,0.0047
2339.00,0.0048
2338.00,0.0048
2337.00,0.0047
2336.00,0.0047
2335.00,0.0047
2334.00,0.0046
2333.00,0.0046
2332.00,0.0047
2331.00,0.0047
2330.00,0.0049
2329.00,0.0051
2328.00,0.0055
2327.00,0.0058
2326.00,0.0060
2325.00,0.0060
2324.00,0.0059
2323.00,0.0058
2322.00,0.0056
2321.00,0.0056
2320.00,0.0056
2319.00,0.0055
2318.00,0.0055
2317.00,0.0055
2316.00,0.0054
2315.00,0.0054
2314.00,0.0054
2313.00,0.0054
2312.00,0.0054
2311.00,0.0054
2310.00,0.0054
2309.00,0.0054
2308.00,0.0054
2307.00,0.0054
2306.00,0.0054
2305.00,0.0054
2304.00,0.0054
2303.00,0.0054
2302.00,0.0054
2301.00,0.0055
2300.00,0.0055
2299.00,0.0056
2298.00,0.0056
2297.00,0.0056
2296.00,0.0057
2295.00,0.0058
2294.00,0.0058
2293.00,0.0059
2292.00,0.0060
2291.00,0.0060
2290.00,0.0061
2289.00,0.0061
2288.00,0.0061
2287.00,0.0061
2286.00,0.0061
2285.00,0.0060
2284.00,0.0060
2283.00,0.0059
2282.00,0.0058
2281.00,0.0057
2280.00,0.0057
2279.00,0.0057
2278.00,0.0057
2277.00,0.0057
2276.00,0.0057
2275.00,0.0057
2274.00,0.0057
2273.00,0.0056
2272.00,0.0056
2271.00,0.0055
2270.00,0.0055
2269.00,0.0054
2268.00,0.0054
2267.00,0.0054
2266.00,0.0054
2265.00,0.0054
2264.00,0.0054
2263.00,0.0055
2262.00,0.0055
2261.00,0.0056
2260.00,0.0056
2259.00,0.0056
2258.00,0.0056
2257.00,0.0055
2256.00,0.0054
2255.00,0.0054
2254.00,0.0053
2253.00,0.0053
2252.00,0.0053
2251.00,0.0052
2250.00,0.0052
2249.00,0.0053
2248.00,0.0053
2247.00,0.0054
2246.00,0.0054
2245.00,0.0054
2244.00,0.0054
2243.00,0.0053
2242.00,0.0053
2241.00,0.0053
2240.00,0.0053
2239.00,0.0053
2238.00,0.0052
2237.00,0.0052
2236.00,0.0052
2235.00,0.0052
2234.00,0.0052
2233.00,0.0052
2232.00,0.0052
2231.00,0.0052
2230.00,0.0052
2229.00,0.0052
2228.00,0.0053
2227.00,0.0053
2226.00,0.0052
2225.00,0.0052
2224.00,0.0052
2223.00,0.0052
2222.00,0.0051
2221.00,0.0051
2220.00,0.0052
2219.00,0.0052
2218.00,0.0052
2217.00,0.0052
2216.00,0.0052
2215.00,0.0053
2214.00,0.0053
2213.00,0.0053
2212.00,0.0053
2211.00,0.0053
2210.00,0.0052
2209.00,0.0052
2208.00,0.0052
2207.00,0.0051
2206.00,0.0051
2205.00,0.0051
2204.00,0.0052
2203.00,0.0052
2202.00,0.0052
2201.00,0.0052
2200.00,0.0053
2199.00,0.0052
2198.00,0.0051
2197.00,0.0051
2196.00,0.0052
2195.00,0.0052
2194.00,0.0052
2193.00,0.0053
2192.00,0.0053
2191.00,0.0054
2190.00,0.0054
2189.00,0.0053
2188.00,0.0054
2187.00,0.0054
2186.00,0.0054
2185.00,0.0053
2184.00,0.0052
2183.00,0.0051
2182.00,0.0049
2181.00,0.0049
2180.00,0.0050
2179.00,0.0051
2178.00,0.0050
2177.00,0.0049
2176.00,0.0048
2175.00,0.0049
2174.00,0.0050
2173.00,0.0054
2172.00,0.0058
2171.00,0.0061
2170.00,0.0063
2169.00,0.0064
2168.00,0.0065
2167.00,0.0066
2166.00,0.0066
2165.00,0.0067
2164.00,0.0069
2163.00,0.0068
2162.00,0.0063
2161.00,0.0051
2160.00,0.0037
2159.00,0.0027
2158.00,0.0023
2157.00,0.0024
2156.00,0.0028
2155.00,0.0032
2154.00,0.0034
2153.00,0.0035
2152.00,0.0037
2151.00,0.0038
2150.00,0.0038
2149.00,0.0038
2148.00,0.0039
2147.00,0.0039
2146.00,0.0039
2145.00,0.0039
2144.00,0.0040
2143.00,0.0041
2142.00,0.0041
2141.00,0.0041
2140.00,0.0041
2139.00,0.0040
2138.00,0.0039
2137.00,0.0037
2136.00,0.0036
2135.00,0.0035
2134.00,0.0034
2133.00,0.0035
2132.00,0.0037
2131.00,0.0040
2130.00,0.0042
2129.00,0.0043
2128.00,0.0045
2127.00,0.0045
2126.00,0.0046
2125.00,0.0047
2124.00,0.0048
2123.00,0.0049
2122.00,0.0049
2121.00,0.0049
2120.00,0.0050
2119.00,0.0051
2118.00,0.0051
2117.00,0.0052
2116.00,0.0054
2115.00,0.0054
2114.00,0.0054
2113.00,0.0053
2112.00,0.0053
2111.00,0.0053
2110.00,0.0052
2109.00,0.0052
2108.00,0.0052
2107.00,0.0052
2106.00,0.0052
2105.00,0.0052
2104.00,0.0052
2103.00,0.0052
2102.00,0.0051
2101.00,0.0051
2100.00,0.0052
2099.00,0.0051
2098.00,0.0050
2097.00,0.0048
2096.00,0.0046
2095.00,0.0045
2094.00,0.0046
2093.00,0.0047
2092.00,0.0048
2091.00,0.0049
2090.00,0.0049
2089.00,0.0050
2088.00,0.0051
2087.00,0.0051
2086.00,0.0051
2085.00,0.0051
2084.00,0.0051
2083.00,0.0052
2082.00,0.0052
2081.00,0.0052
2080.00,0.0053
2079.00,0.0053
2078.00,0.0052
2077.00,0.0052
2076.00,0.0051
2075.00,0.0051
2074.00,0.0050
2073.00,0.0050
2072.00,0.0050
2071.00,0.0050
2070.00,0.0050
2069.00,0.0050
2068.00,0.0050
2067.00,0.0050
2066.00,0.0049
2065.00,0.0048
2064.00,0.0048
2063.00,0.0048
2062.00,0.0047
2061.00,0.0047
2060.00,0.0048
2059.00,0.0048
2058.00,0.0048
2057.00,0.0047
2056.00,0.0047
2055.00,0.0048
2054.00,0.0050
2053.00,0.0054
2052.00,0.0058
2051.00,0.0058
2050.00,0.0054
2049.00,0.0050
2048.00,0.0047
2047.00,0.0046
2046.00,0.0045
2045.00,0.0045
2044.00,0.0046
2043.00,0.0046
2042.00,0.0046
2041.00,0.0046
2040.00,0.0046
2039.00,0.0046
2038.00,0.0045
2037.00,0.0045
2036.00,0.0044
2035.00,0.0043
2034.00,0.0040
2033.00,0.0039
2032.00,0.0039
2031.00,0.0040
2030.00,0.0040
2029.00,0.0040
2028.00,0.0041
2027.00,0.0041
2026.00,0.0039
2025.00,0.0039
2024.00,0.0039
2023.00,0.0039
2022.00,0.0038
2021.00,0.0038
2020.00,0.0040
2019.00,0.0041
2018.00,0.0041
2017.00,0.0041
2016.00,0.0042
2015.00,0.0042
2014.00,0.0041
2013.00,0.0040
2012.00,0.0040
2011.00,0.0039
2010.00,0.0038
2009.00,0.0037
2008.00,0.0036
2007.00,0.0035
2006.00,0.0034
2005.00,0.0034
2004.00,0.0035
2003.00,0.0036
2002.00,0.0036
2001.00,0.0038
2000.00,0.0040
1999.00,0.0042
1998.00,0.0043
1997.00,0.0044
1996.00,0.0045
1995.00,0.0046
1994.00,0.0045
1993.00,0.0044
1992.00,0.0045
1991.00,0.0045
1990.00,0.0045
1989.00,0.0046
1988.00,0.0048
1987.00,0.0048
1986.00,0.0047
1985.00,0.0047
1984.00,0.0049
1983.00,0.0052
1982.00,0.0055
1981.00,0.0055
1980.00,0.0053
1979.00,0.0048
1978.00,0.0042
1977.00,0.0039
1976.00,0.0038
1975.00,0.0038
1974.00,0.0038
1973.00,0.0038
1972.00,0.0039
1971.00,0.0040
1970.00,0.0038
1969.00,0.0038
1968.00,0.0038
1967.00,0.0038
1966.00,0.0036
1965.00,0.0035
1964.00,0.0036
1963.00,0.0036
1962.00,0.0035
1961.00,0.0034
1960.00,0.0033
1959.00,0.0033
1958.00,0.0033
1957.00,0.0033
1956.00,0.0034
1955.00,0.0034
1954.00,0.0034
1953.00,0.0035
1952.00,0.0036
1951.00,0.0037
1950.00,0.0037
1949.00,0.0036
1948.00,0.0036
1947.00,0.0037
1946.00,0.0037
1945.00,0.0037
1944.00,0.0038
1943.00,0.0038
1942.00,0.0037
1941.00,0.0037
1940.00,0.0037
1939.00,0.0037
1938.00,0.0037
1937.00,0.0037
1936.00,0.0037
1935.00,0.0037
1934.00,0.0037
1933.00,0.0037
1932.00,0.0038
1931.00,0.0038
1930.00,0.0038
1929.00,0.0038
1928.00,0.0038
1927.00,0.0039
1926.00,0.0039
1925.00,0.0039
1924.00,0.0039
1923.00,0.0040
1922.00,0.0039
1921.00,0.0039
1920.00,0.0039
1919.00,0.0039
1918.00,0.0039
1917.00,0.0039
1916.00,0.0040
1915.00,0.0040
1914.00,0.0040
1913.00,0.0040
1912.00,0.0041
1911.00,0.0041
1910.00,0.0041
1909.00,0.0041
1908.00,0.0041
1907.00,0.0040
1906.00,0.0040
1905.00,0.0039
1904.00,0.0040
1903.00,0.0040
1902.00,0.0040
1901.00,0.0039
1900.00,0.0040
1899.00,0.0040
1898.00,0.0040
1897.00,0.0040
1896.00,0.0041
1895.00,0.0041
1894.00,0.0040
1893.00,0.0040
1892.00,0.0041
1891.00,0.0041
1890.00,0.0041
1889.00,0.0041
1888.00,0.0040
1887.00,0.0040
1886.00,0.0040
1885.00,0.0039
1884.00,0.0040
1883.00,0.0040
1882.00,0.0040
1881.00,0.0040
1880.00,0.0041
1879.00,0.0040
1878.00,0.0040
1877.00,0.0040
1876.00,0.0040
1875.00,0.0040
1874.00,0.0040
1873.00,0.0040
1872.00,0.0041
1871.00,0.0042
1870.00,0.0042
1869.00,0.0042
1868.00,0.0043
1867.00,0.0043
1866.00,0.0042
1865.00,0.0041
1864.00,0.0041
1863.00,0.0041
1862.00,0.0040
1861.00,0.0040
1860.00,0.0041
1859.00,0.0041
1858.00,0.0041
1857.00,0.0041
1856.00,0.0042
1855.00,0.0042
1854.00,0.0042
1853.00,0.0041
1852.00,0.0042
1851.00,0.0042
1850.00,0.0042
1849.00,0.0041
1848.00,0.0042
1847.00,0.0042
1846.00,0.0041
1845.00,0.0041
1844.00,0.0041
1843.00,0.0041
1842.00,0.0041
1841.00,0.0042
1840.00,0.0042
1839.00,0.0042
1838.00,0.0042
1837.00,0.0041
1836.00,0.0041
1835.00,0.0041
1834.00,0.0041
1833.00,0.0041
1832.00,0.0042
1831.00,0.0043
1830.00,0.0043
1829.00,0.0043
1828.00,0.0043
1827.00,0.0043
1826.00,0.0043
1825.00,0.0043
1824.00,0.0043
1823.00,0.0042
1822.00,0.0042
1821.00,0.0041
1820.00,0.0041
1819.00,0.0040
1818.00,0.0039
1817.00,0.0039
1816.00,0.0039
1815.00,0.0040
1814.00,0.0041
1813.00,0.0041
1812.00,0.0042
1811.00,0.0043
1810.00,0.0043
1809.00,0.0043
1808.00,0.0043
1807.00,0.0043
1806.00,0.0043
1805.00,0.0043
1804.00,0.0043
1803.00,0.0044
1802.00,0.0044
1801.00,0.0045
1800.00,0.0045
1799.00,0.0045
1798.00,0.0045
1797.00,0.0045
1796.00,0.0045
1795.00,0.0045
1794.00,0.0045
1793.00,0.0045
1792.00,0.0045
1791.00,0.0046
1790.00,0.0046
1789.00,0.0046
1788.00,0.0046
1787.00,0.0047
1786.00,0.0047
1785.00,0.0047
1784.00,0.0047
1783.00,0.0048
1782.00,0.0048
1781.00,0.0049
1780.00,0.0049
1779.00,0.0049
1778.00,0.0049
1777.00,0.0049
1776.00,0.0050
1775.00,0.0050
1774.00,0.0050
1773.00,0.0051
1772.00,0.0052
1771.00,0.0052
1770.00,0.0052
1769.00,0.0053
1768.00,0.0053
1767.00,0.0054
1766.00,0.0054
1765.00,0.0055
1764.00,0.0056
1763.00,0.0057
1762.00,0.0057
1761.00,0.0057
1760.00,0.0059
1759.00,0.0060
1758.00,0.0060
1757.00,0.0061
1756.00,0.0063
1755.00,0.0064
1754.00,0.0064
1753.00,0.0064
1752.00,0.0066
1751.00,0.0068
1750.00,0.0069
1749.00,0.0071
1748.00,0.0073
1747.00,0.0074
1746.00,0.0074
1745.00,0.0074
1744.00,0.0075
1743.00,0.0076
1742.00,0.0077
1741.00,0.0077
1740.00,0.0079
1739.00,0.0080
1738.00,0.0080
1737.00,0.0080
1736.00,0.0082
1735.00,0.0083
1734.00,0.0084
1733.00,0.0085
1732.00,0.0089
1731.00,0.0093
1730.00,0.0096
1729.00,0.0098
1728.00,0.0101
1727.00,0.0104
1726.00,0.0106
1725.00,0.0110
1724.00,0.0116
1723.00,0.0121
1722.00,0.0127
1721.00,0.0133
1720.00,0.0141
1719.00,0.0152
1718.00,0.0165
1717.00,0.0181
1716.00,0.0200
1715.00,0.0218
1714.00,0.0235
1713.00,0.0251
1712.00,0.0267
1711.00,0.0284
1710.00,0.0300
1709.00,0.0317
1708.00,0.0336
1707.00,0.0356
1706.00,0.0378
1705.00,0.0402
1704.00,0.0425
1703.00,0.0446
1702.00,0.0470
1701.00,0.0502
1700.00,0.0542
1699.00,0.0578
1698.00,0.0608
1697.00,0.0639
1696.00,0.0678
1695.00,0.0720
1694.00,0.0760
1693.00,0.0798
1692.00,0.0837
1691.00,0.0879
1690.00,0.0925
1689.00,0.0971
1688.00,0.1016
1687.00,0.1059
1686.00,0.1104
1685.00,0.1159
1684.00,0.1222
1683.00,0.1278
1682.00,0.1324
1681.00,0.1368
1680.00,0.1412
1679.00,0.1455
1678.00,0.1496
1677.00,0.1535
1676.00,0.1575
1675.00,0.1615
1674.00,0.1649
1673.00,0.1682
1672.00,0.1715
1671.00,0.1748
1670.00,0.1777
1669.00,0.1804
1668.00,0.1832
1667.00,0.1860
1666.00,0.1888
1665.00,0.1917
1664.00,0.1947
1663.00,0.1973
1662.00,0.1995
1661.00,0.2016
1660.00,0.2037
1659.00,0.2058
1658.00,0.2077
1657.00,0.2094
1656.00,0.2111
1655.00,0.2124
1654.00,0.2119
1653.00,0.2088
1652.00,0.2059
1651.00,0.2049
1650.00,0.2050
1649.00,0.2046
1648.00,0.2026
1647.00,0.1985
1646.00,0.1931
1645.00,0.1880
1644.00,0.1838
1643.00,0.1798
1642.00,0.1752
1641.00,0.1701
1640.00,0.1648
1639.00,0.1597
1638.00,0.1545
1637.00,0.1484
1636.00,0.1410
1635.00,0.1335
1634.00,0.1273
1633.00,0.1228
1632.00,0.1190
1631.00,0.1153
1630.00,0.1115
1629.00,0.1075
1628.00,0.1036
1627.00,0.1000
1626.00,0.0967
1625.00,0.0936
1624.00,0.0902
1623.00,0.0867
1622.00,0.0834
1621.00,0.0804
1620.00,0.0778
1619.00,0.0753
1618.00,0.0723
1617.00,0.0690
1616.00,0.0656
1615.00,0.0628
1614.00,0.0606
1613.00,0.0585
1612.00,0.0563
1611.00,0.0540
1610.00,0.0519
1609.00,0.0498
1608.00,0.0478
1607.00,0.0459
1606.00,0.0442
1605.00,0.0425
1604.00,0.0410
1603.00,0.0395
1602.00,0.0381
1601.00,0.0368
1600.00,0.0355
1599.00,0.0344
1598.00,0.0333
1597.00,0.0323
1596.00,0.0313
1595.00,0.0304
1594.00,0.0296
1593.00,0.0288
1592.00,0.0280
1591.00,0.0273
1590.00,0.0266
1589.00,0.0260
1588.00,0.0254
1587.00,0.0248
1586.00,0.0243
1585.00,0.0239
1584.00,0.0235
1583.00,0.0232
1582.00,0.0229
1581.00,0.0226
1580.00,0.0223
1579.00,0.0219
1578.00,0.0214
1577.00,0.0209
1576.00,0.0203
1575.00,0.0199
1574.00,0.0196
1573.00,0.0195
1572.00,0.0193
1571.00,0.0191
1570.00,0.0188
1569.00,0.0186
1568.00,0.0184
1567.00,0.0183
1566.00,0.0183
1565.00,0.0183
1564.00,0.0183
1563.00,0.0183
1562.00,0.0182
1561.00,0.0181
1560.00,0.0181
1559.00,0.0180
1558.00,0.0176
1557.00,0.0172
1556.00,0.0170
1555.00,0.0168
1554.00,0.0166
1553.00,0.0165
1552.00,0.0164
1551.00,0.0163
1550.00,0.0163
1549.00,0.0162
1548.00,0.0161
1547.00,0.0160
1546.00,0.0160
1545.00,0.0160
1544.00,0.0160
1543.00,0.0160
1542.00,0.0160
1541.00,0.0160
1540.00,0.0159
1539.00,0.0159
1538.00,0.0159
1537.00,0.0162
1536.00,0.0164
1535.00,0.0166
1534.00,0.0169
1533.00,0.0171
1532.00,0.0173
1531.00,0.0176
1530.00,0.0179
1529.00,0.0183
1528.00,0.0187
1527.00,0.0192
1526.00,0.0198
1525.00,0.0204
1524.00,0.0211
1523.00,0.0219
1522.00,0.0229
1521.00,0.0242
1520.00,0.0255
1519.00,0.0269
1518.00,0.0285
1517.00,0.0303
1516.00,0.0322
1515.00,0.0339
1514.00,0.0357
1513.00,0.0377
1512.00,0.0397
1511.00,0.0417
1510.00,0.0436
1509.00,0.0456
1508.00,0.0477
1507.00,0.0502
1506.00,0.0525
1505.00,0.0545
1504.00,0.0562
1503.00,0.0578
1502.00,0.0594
1501.00,0.0610
1500.00,0.0625
1499.00,0.0638
1498.00,0.0650
1497.00,0.0659
1496.00,0.0664
1495.00,0.0664
1494.00,0.0663
1493.00,0.0657
1492.00,0.0645
1491.00,0.0625
1490.00,0.0598
1489.00,0.0566
1488.00,0.0532
1487.00,0.0498
1486.00,0.0467
1485.00,0.0438
1484.00,0.0414
1483.00,0.0392
1482.00,0.0373
1481.00,0.0358
1480.00,0.0346
1479.00,0.0338
1478.00,0.0334
1477.00,0.0333
1476.00,0.0336
1475.00,0.0341
1474.00,0.0351
1473.00,0.0369
1472.00,0.0394
1471.00,0.0423
1470.00,0.0454
1469.00,0.0490
1468.00,0.0530
1467.00,0.0575
1466.00,0.0626
1465.00,0.0682
1464.00,0.0734
1463.00,0.0773
1462.00,0.0800
1461.00,0.0816
1460.00,0.0820
1459.00,0.0810
1458.00,0.0782
1457.00,0.0739
1456.00,0.0696
1455.00,0.0664
1454.00,0.0643
1453.00,0.0631
1452.00,0.0624
1451.00,0.0626
1450.00,0.0636
1449.00,0.0656
1448.00,0.0683
1447.00,0.0713
1446.00,0.0745
1445.00,0.0778
1444.00,0.0813
1443.00,0.0848
1442.00,0.0884
1441.00,0.0919
1440.00,0.0951
1439.00,0.0979
1438.00,0.1003
1437.00,0.1026
1436.00,0.1044
1435.00,0.1055
1434.00,0.1063
1433.00,0.1069
1432.00,0.1074
1431.00,0.1079
1430.00,0.1088
1429.00,0.1103
1428.00,0.1125
1427.00,0.1153
1426.00,0.1186
1425.00,0.1224
1424.00,0.1260
1423.00,0.1289
1422.00,0.1308
1421.00,0.1314
1420.00,0.1302
1419.00,0.1264
1418.00,0.1206
1417.00,0.1137
1416.00,0.1061
1415.00,0.0977
1414.00,0.0892
1413.00,0.0811
1412.00,0.0737
1411.00,0.0670
1410.00,0.0613
1409.00,0.0565
1408.00,0.0526
1407.00,0.0491
1406.00,0.0461
1405.00,0.0435
1404.00,0.0412
1403.00,0.0392
1402.00,0.0378
1401.00,0.0366
1400.00,0.0355
1399.00,0.0346
1398.00,0.0339
1397.00,0.0335
1396.00,0.0333
1395.00,0.0332
1394.00,0.0335
1393.00,0.0340
1392.00,0.0347
1391.00,0.0355
1390.00,0.0367
1389.00,0.0380
1388.00,0.0397
1387.00,0.0417
1386.00,0.0437
1385.00,0.0457
1384.00,0.0474
1383.00,0.0488
1382.00,0.0499
1381.00,0.0505
1380.00,0.0508
1379.00,0.0507
1378.00,0.0506
1377.00,0.0505
1376.00,0.0505
1375.00,0.0506
1374.00,0.0508
1373.00,0.0510
1372.00,0.0514
1371.00,0.0519
1370.00,0.0525
1369.00,0.0530
1368.00,0.0534
1367.00,0.0534
1366.00,0.0531
1365.00,0.0524
1364.00,0.0511
1363.00,0.0494
1362.00,0.0474
1361.00,0.0452
1360.00,0.0431
1359.00,0.0412
1358.00,0.0396
1357.00,0.0380
1356.00,0.0366
1355.00,0.0353
1354.00,0.0341
1353.00,0.0330
1352.00,0.0319
1351.00,0.0310
1350.00,0.0302
1349.00,0.0296
1348.00,0.0291
1347.00,0.0288
1346.00,0.0286
1345.00,0.0287
1344.00,0.0288
1343.00,0.0291
1342.00,0.0295
1341.00,0.0300
1340.00,0.0306
1339.00,0.0313
1338.00,0.0321
1337.00,0.0329
1336.00,0.0337
1335.00,0.0346
1334.00,0.0355
1333.00,0.0364
1332.00,0.0374
1331.00,0.0385
1330.00,0.0396
1329.00,0.0408
1328.00,0.0420
1327.00,0.0433
1326.00,0.0448
1325.00,0.0463
1324.00,0.0480
1323.00,0.0498
1322.00,0.0515
1321.00,0.0533
1320.00,0.0550
1319.00,0.0565
1318.00,0.0577
1317.00,0.0586
1316.00,0.0592
1315.00,0.0595
1314.00,0.0595
1313.00,0.0592
1312.00,0.0589
1311.00,0.0585
1310.00,0.0582
1309.00,0.0582
1308.00,0.0584
1307.00,0.0588
1306.00,0.0595
1305.00,0.0603
1304.00,0.0612
1303.00,0.0622
1302.00,0.0635
1301.00,0.0652
1300.00,0.0675
1299.00,0.0706
1298.00,0.0747
1297.00,0.0800
1296.00,0.0862
1295.00,0.0934
1294.00,0.1010
1293.00,0.1088
1292.00,0.1165
1291.00,0.1236
1290.00,0.1298
1289.00,0.1348
1288.00,0.1387
1287.00,0.1411
1286.00,0.1422
1285.00,0.1422
1284.00,0.1413
1283.00,0.1400
1282.00,0.1385
1281.00,0.1374
1280.00,0.1370
1279.00,0.1372
1278.00,0.1380
1277.00,0.1393
1276.00,0.1408
1275.00,0.1423
1274.00,0.1433
1273.00,0.1436
1272.00,0.1432
1271.00,0.1417
1270.00,0.1391
1269.00,0.1356
1268.00,0.1312
1267.00,0.1262
1266.00,0.1207
1265.00,0.1150
1264.00,0.1092
1263.00,0.1036
1262.00,0.0981
1261.00,0.0928
1260.00,0.0879
1259.00,0.0833
1258.00,0.0791
1257.00,0.0755
1256.00,0.0724
1255.00,0.0699
1254.00,0.0678
1253.00,0.0660
1252.00,0.0644
1251.00,0.0629
1250.00,0.0612
1249.00,0.0596
1248.00,0.0580
1247.00,0.0564
1246.00,0.0552
1245.00,0.0542
1244.00,0.0534
1243.00,0.0530
1242.00,0.0528
1241.00,0.0528
1240.00,0.0531
1239.00,0.0537
1238.00,0.0544
1237.00,0.0554
1236.00,0.0566
1235.00,0.0579
1234.00,0.0593
1233.00,0.0610
1232.00,0.0627
1231.00,0.0645
1230.00,0.0664
1229.00,0.0685
1228.00,0.0708
1227.00,0.0732
1226.00,0.0759
1225.00,0.0788
1224.00,0.0818
1223.00,0.0849
1222.00,0.0879
1221.00,0.0908
1220.00,0.0936
1219.00,0.0962
1218.00,0.0987
1217.00,0.1010
1216.00,0.1033
1215.00,0.1055
1214.00,0.1076
1213.00,0.1094
1212.00,0.1108
1211.00,0.1118
1210.00,0.1122
1209.00,0.1121
1208.00,0.1115
1207.00,0.1104
1206.00,0.1087
1205.00,0.1067
1204.00,0.1041
1203.00,0.1011
1202.00,0.0978
1201.00,0.0941
1200.00,0.0902
1199.00,0.0862
1198.00,0.0822
1197.00,0.0784
1196.00,0.0749
1195.00,0.0719
1194.00,0.0694
1193.00,0.0673
1192.00,0.0657
1191.00,0.0644
1190.00,0.0634
1189.00,0.0626
1188.00,0.0618
1187.00,0.0611
1186.00,0.0603
1185.00,0.0594
1184.00,0.0586
1183.00,0.0578
1182.00,0.0570
1181.00,0.0564
1180.00,0.0559
1179.00,0.0556
1178.00,0.0555
1177.00,0.0555
1176.00,0.0557
1175.00,0.0560
1174.00,0.0564
1173.00,0.0568
1172.00,0.0571
1171.00,0.0572
1170.00,0.0570
1169.00,0.0565
1168.00,0.0557
1167.00,0.0546
1166.00,0.0534
1165.00,0.0520
1164.00,0.0505
1163.00,0.0491
1162.00,0.0478
1161.00,0.0467
1160.00,0.0456
1159.00,0.0447
1158.00,0.0438
1157.00,0.0430
1156.00,0.0423
1155.00,0.0417
1154.00,0.0412
1153.00,0.0409
1152.00,0.0407
1151.00,0.0409
1150.00,0.0414
1149.00,0.0422
1148.00,0.0434
1147.00,0.0449
1146.00,0.0465
1145.00,0.0485
1144.00,0.0506
1143.00,0.0528
1142.00,0.0550
1141.00,0.0568
1140.00,0.0580
1139.00,0.0584
1138.00,0.0578
1137.00,0.0563
1136.00,0.0543
1135.00,0.0520
1134.00,0.0498
1133.00,0.0480
1132.00,0.0465
1131.00,0.0457
1130.00,0.0454
1129.00,0.0457
1128.00,0.0466
1127.00,0.0480
1126.00,0.0499
1125.00,0.0524
1124.00,0.0552
1123.00,0.0583
1122.00,0.0615
1121.00,0.0648
1120.00,0.0679
1119.00,0.0705
1118.00,0.0726
1117.00,0.0740
1116.00,0.0747
1115.00,0.0745
1114.00,0.0736
1113.00,0.0722
1112.00,0.0704
1111.00,0.0685
1110.00,0.0668
1109.00,0.0657
1108.00,0.0653
1107.00,0.0659
1106.00,0.0674
1105.00,0.0697
1104.00,0.0726
1103.00,0.0756
1102.00,0.0784
1101.00,0.0806
1100.00,0.0820
1099.00,0.0824
1098.00,0.0819
1097.00,0.0806
1096.00,0.0788
1095.00,0.0766
1094.00,0.0742
1093.00,0.0718
1092.00,0.0692
1091.00,0.0665
1090.00,0.0637
1089.00,0.0607
1088.00,0.0578
1087.00,0.0548
1086.00,0.0520
1085.00,0.0494
1084.00,0.0471
1083.00,0.0451
1082.00,0.0434
1081.00,0.0421
1080.00,0.0410
1079.00,0.0402
1078.00,0.0396
1077.00,0.0391
1076.00,0.0387
1075.00,0.0383
1074.00,0.0378
1073.00,0.0373
1072.00,0.0367
1071.00,0.0361
1070.00,0.0355
1069.00,0.0351
1068.00,0.0347
1067.00,0.0346
1066.00,0.0346
1065.00,0.0349
1064.00,0.0354
1063.00,0.0362
1062.00,0.0371
1061.00,0.0383
1060.00,0.0396
1059.00,0.0410
1058.00,0.0424
1057.00,0.0437
1056.00,0.0449
1055.00,0.0457
1054.00,0.0463
1053.00,0.0467
1052.00,0.0468
1051.00,0.0468
1050.00,0.0468
1049.00,0.0468
1048.00,0.0470
1047.00,0.0474
1046.00,0.0479
1045.00,0.0485
1044.00,0.0488
1043.00,0.0486
1042.00,0.0479
1041.00,0.0467
1040.00,0.0455
1039.00,0.0444
1038.00,0.0436
1037.00,0.0432
1036.00,0.0431
1035.00,0.0432
1034.00,0.0435
1033.00,0.0440
1032.00,0.0447
1031.00,0.0457
1030.00,0.0468
1029.00,0.0481
1028.00,0.0496
1027.00,0.0512
1026.00,0.0529
1025.00,0.0545
1024.00,0.0559
1023.00,0.0572
1022.00,0.0581
1021.00,0.0588
1020.00,0.0590
1019.00,0.0587
1018.00,0.0580
1017.00,0.0570
1016.00,0.0554
1015.00,0.0535
1014.00,0.0513
1013.00,0.0489
1012.00,0.0465
1011.00,0.0442
1010.00,0.0422
1009.00,0.0406
1008.00,0.0394
1007.00,0.0386
1006.00,0.0383
1005.00,0.0382
1004.00,0.0382
1003.00,0.0382
1002.00,0.0378
1001.00,0.0372
1000.00,0.0362
999.00,0.0350
998.00,0.0337
997.00,0.0325
996.00,0.0313
995.00,0.0302
994.00,0.0292
993.00,0.0284
992.00,0.0276
991.00,0.0270
990.00,0.0265
989.00,0.0262
988.00,0.0259
987.00,0.0257
986.00,0.0254
985.00,0.0252
984.00,0.0250
983.00,0.0248
982.00,0.0246
981.00,0.0244
980.00,0.0242
979.00,0.0240
978.00,0.0238
977.00,0.0236
976.00,0.0234
975.00,0.0231
974.00,0.0229
973.00,0.0227
972.00,0.0225
971.00,0.0223
970.00,0.0220
969.00,0.0219
968.00,0.0217
967.00,0.0216
966.00,0.0215
965.00,0.0214
964.00,0.0215
963.00,0.0215
962.00,0.0216
961.00,0.0218
960.00,0.0220
959.00,0.0222
958.00,0.0223
957.00,0.0225
956.00,0.0225
955.00,0.0225
954.00,0.0224
953.00,0.0223
952.00,0.0221
951.00,0.0219
950.00,0.0216
949.00,0.0213
948.00,0.0211
947.00,0.0209
946.00,0.0207
945.00,0.0206
944.00,0.0205
943.00,0.0206
942.00,0.0208
941.00,0.0211
940.00,0.0216
939.00,0.0223
938.00,0.0230
937.00,0.0239
936.00,0.0248
935.00,0.0255
934.00,0.0260
933.00,0.0262
932.00,0.0260
931.00,0.0255
930.00,0.0249
929.00,0.0243
928.00,0.0238
927.00,0.0234
926.00,0.0231
925.00,0.0227
924.00,0.0224
923.00,0.0220
922.00,0.0217
921.00,0.0215
920.00,0.0213
919.00,0.0211
918.00,0.0210
917.00,0.0209
916.00,0.0209
915.00,0.0208
914.00,0.0208
913.00,0.0208
912.00,0.0208
911.00,0.0209
910.00,0.0210
909.00,0.0211
908.00,0.0213
907.00,0.0215
906.00,0.0217
905.00,0.0220
904.00,0.0223
903.00,0.0226
902.00,0.0230
901.00,0.0234
900.00,0.0238
899.00,0.0241
898.00,0.0244
897.00,0.0245
896.00,0.0246
895.00,0.0246
894.00,0.0244
893.00,0.0242
892.00,0.0238
891.00,0.0234
890.00,0.0230
889.00,0.0226
888.00,0.0222
887.00,0.0219
886.00,0.0215
885.00,0.0213
884.00,0.0210
883.00,0.0209
882.00,0.0207
881.00,0.0207
880.00,0.0206
879.00,0.0206
878.00,0.0207
877.00,0.0208
876.00,0.0210
875.00,0.0212
874.00,0.0215
873.00,0.0218
872.00,0.0221
871.00,0.0226
870.00,0.0233
869.00,0.0240
868.00,0.0249
867.00,0.0258
866.00,0.0266
865.00,0.0273
864.00,0.0279
863.00,0.0282
862.00,0.0284
861.00,0.0285
860.00,0.0288
859.00,0.0293
858.00,0.0300
857.00,0.0308
856.00,0.0318
855.00,0.0328
854.00,0.0338
853.00,0.0348
852.00,0.0356
851.00,0.0364
850.00,0.0372
849.00,0.0379
848.00,0.0384
847.00,0.0389
846.00,0.0391
845.00,0.0392
844.00,0.0392
843.00,0.0390
842.00,0.0386
841.00,0.0382
840.00,0.0377
839.00,0.0371
838.00,0.0364
837.00,0.0357
836.00,0.0350
835.00,0.0342
834.00,0.0335
833.00,0.0327
832.00,0.0320
831.00,0.0313
830.00,0.0307
829.00,0.0301
828.00,0.0295
827.00,0.0290
826.00,0.0285
825.00,0.0282
824.00,0.0280
823.00,0.0278
822.00,0.0276
821.00,0.0274
820.00,0.0273
819.00,0.0272
818.00,0.0271
817.00,0.0271
816.00,0.0270
815.00,0.0271
814.00,0.0271
813.00,0.0272
812.00,0.0274
811.00,0.0276
810.00,0.0279
809.00,0.0284
808.00,0.0290
807.00,0.0299
806.00,0.0310
805.00,0.0322
804.00,0.0335
803.00,0.0349
802.00,0.0363
801.00,0.0376
800.00,0.0388
799.00,0.0397
798.00,0.0403
797.00,0.0406
796.00,0.0408
795.00,0.0407
794.00,0.0404
793.00,0.0400
792.00,0.0395
791.00,0.0391
790.00,0.0386
789.00,0.0381
788.00,0.0378
787.00,0.0378
786.00,0.0380
785.00,0.0387
784.00,0.0399
783.00,0.0414
782.00,0.0429
781.00,0.0444
780.00,0.0454
779.00,0.0458
778.00,0.0456
777.00,0.0449
776.00,0.0439
775.00,0.0427
774.00,0.0414
773.00,0.0402
772.00,0.0393
771.00,0.0386
770.00,0.0381
769.00,0.0377
768.00,0.0376
767.00,0.0376
766.00,0.0378
765.00,0.0381
764.00,0.0385
763.00,0.0390
762.00,0.0395
761.00,0.0401
760.00,0.0408
759.00,0.0415
758.00,0.0423
757.00,0.0430
756.00,0.0438
755.00,0.0445
754.00,0.0452
753.00,0.0459
752.00,0.0466
751.00,0.0473
750.00,0.0479
749.00,0.0485
748.00,0.0491
747.00,0.0495
746.00,0.0498
745.00,0.0502
744.00,0.0505
743.00,0.0511
742.00,0.0521
741.00,0.0535
740.00,0.0556
739.00,0.0583
738.00,0.0613
737.00,0.0642
736.00,0.0667
735.00,0.0682
734.00,0.0689
733.00,0.0688
732.00,0.0682
731.00,0.0672
730.00,0.0658
729.00,0.0641
728.00,0.0620
727.00,0.0597
726.00,0.0571
725.00,0.0547
724.00,0.0524
723.00,0.0503
722.00,0.0485
721.00,0.0470
720.00,0.0459
719.00,0.0450
718.00,0.0443
717.00,0.0438
716.00,0.0433
715.00,0.0430
714.00,0.0427
713.00,0.0424
712.00,0.0423
711.00,0.0422
710.00,0.0421
709.00,0.0421
708.00,0.0422
707.00,0.0423
706.00,0.0424
705.00,0.0426
704.00,0.0428
703.00,0.0429
702.00,0.0430
701.00,0.0432
700.00,0.0433
699.00,0.0435
698.00,0.0437
697.00,0.0439
696.00,0.0442
695.00,0.0445
694.00,0.0449
693.00,0.0453
692.00,0.0457
691.00,0.0462
690.00,0.0467
689.00,0.0472
688.00,0.0479
687.00,0.0485
686.00,0.0492
685.00,0.0499
684.00,0.0506
683.00,0.0513
682.00,0.0518
681.00,0.0524
680.00,0.0530
679.00,0.0535
678.00,0.0541
677.00,0.0547
676.00,0.0553
675.00,0.0560
674.00,0.0568
673.00,0.0577
672.00,0.0585
671.00,0.0594
670.00,0.0603
669.00,0.0616
668.00,0.0634
667.00,0.0651
666.00,0.0663
665.00,0.0674
664.00,0.0685
663.00,0.0697
662.00,0.0709
661.00,0.0721
660.00,0.0735
659.00,0.0749
658.00,0.0763
657.00,0.0777
656.00,0.0792
655.00,0.0806
654.00,0.0818
653.00,0.0831
652.00,0.0842
651.00,0.0852
650.00,0.0859
649.00,0.0864
648.00,0.0867
647.00,0.0867
646.00,0.0863
645.00,0.0858
644.00,0.0851
643.00,0.0842
642.00,0.0831
641.00,0.0820
640.00,0.0809
639.00,0.0798
638.00,0.0787
637.00,0.0777
636.00,0.0767
635.00,0.0758
634.00,0.0749
633.00,0.0741
632.00,0.0734
631.00,0.0727
630.00,0.0721
629.00,0.0715
628.00,0.0709
627.00,0.0704
626.00,0.0700
625.00,0.0696
624.00,0.0694
623.00,0.0691
622.00,0.0689
621.00,0.0687
620.00,0.0685
619.00,0.0684
618.00,0.0684
617.00,0.0684
616.00,0.0685
615.00,0.0686
614.00,0.0686
613.00,0.0685
612.00,0.0684
611.00,0.0683
610.00,0.0683
609.00,0.0686
608.00,0.0691
607.00,0.0696
606.00,0.0700
605.00,0.0704
604.00,0.0709
603.00,0.0715
602.00,0.0720
601.00,0.0726
600.00,0.0732
599.00,0.0737
598.00,0.0741
597.00,0.0745
596.00,0.0752
595.00,0.0759
594.00,0.0767
593.00,0.0776
592.00,0.0786
591.00,0.0797
590.00,0.0808
589.00,0.0819
588.00,0.0831
587.00,0.0843
586.00,0.0853
585.00,0.0863
584.00,0.0875
583.00,0.0886
582.00,0.0897
581.00,0.0908
580.00,0.0919
579.00,0.0929
578.00,0.0937
577.00,0.0945
576.00,0.0952
575.00,0.0957
574.00,0.0960
573.00,0.0962
572.00,0.0963
571.00,0.0962
570.00,0.0959
569.00,0.0955
568.00,0.0951
567.00,0.0946
566.00,0.0939
565.00,0.0931
564.00,0.0923
563.00,0.0914
562.00,0.0903
561.00,0.0894
560.00,0.0885
559.00,0.0876
558.00,0.0867
557.00,0.0859
556.00,0.0851
555.00,0.0845
554.00,0.0839
553.00,0.0834
552.00,0.0830
551.00,0.0825
550.00,0.0820
549.00,0.0815
548.00,0.0812
547.00,0.0809
546.00,0.0807
545.00,0.0805
544.00,0.0805
543.00,0.0804
542.00,0.0804
541.00,0.0804
540.00,0.0807
539.00,0.0810
538.00,0.0813
537.00,0.0815
536.00,0.0819
535.00,0.0825
534.00,0.0832
533.00,0.0843
532.00,0.0854
531.00,0.0864
530.00,0.0868
529.00,0.0865
528.00,0.0856
527.00,0.0844
526.00,0.0830
525.00,0.0819
524.00,0.0811
523.00,0.0806
522.00,0.0801
521.00,0.0797
520.00,0.0794
519.00,0.0792
518.00,0.0789
517.00,0.0786
516.00,0.0783
515.00,0.0780
514.00,0.0777
513.00,0.0775
512.00,0.0775
511.00,0.0776
510.00,0.0775
509.00,0.0775
508.00,0.0775
507.00,0.0776
506.00,0.0775
505.00,0.0776
504.00,0.0778
503.00,0.0780
502.00,0.0782
501.00,0.0783
500.00,0.0784
499.00,0.0784
498.00,0.0784
497.00,0.0783
496.00,0.0785
495.00,0.0787
494.00,0.0789
493.00,0.0790
492.00,0.0793
491.00,0.0794
490.00,0.0794
489.00,0.0795
488.00,0.0798
487.00,0.0801
486.00,0.0803
485.00,0.0804
484.00,0.0805
483.00,0.0805
482.00,0.0803
481.00,0.0802
480.00,0.0801
479.00,0.0802
478.00,0.0802
477.00,0.0803
476.00,0.0804
475.00,0.0806
474.00,0.0808
473.00,0.0812
472.00,0.0819
471.00,0.0826
470.00,0.0832
469.00,0.0839
468.00,0.0846
467.00,0.0850
466.00,0.0850
465.00,0.0850
464.00,0.0849
463.00,0.0846
462.00,0.0841
461.00,0.0835
460.00,0.0831
459.00,0.0828
458.00,0.0823
457.00,0.0817
456.00,0.0810
455.00,0.0802
454.00,0.0792
453.00,0.0786
452.00,0.0782
451.00,0.0777
450.00,0.0771
449.00,0.0765
448.00,0.0761
447.00,0.0758
446.00,0.0752
445.00,0.0747
444.00,0.0744
443.00,0.0742
442.00,0.0739
441.00,0.0737
440.00,0.0735
439.00,0.0732
438.00,0.0728
437.00,0.0726
436.00,0.0725
435.00,0.0722
434.00,0.0717
433.00,0.0711
432.00,0.0706
431.00,0.0702
430.00,0.0697
429.00,0.0694
428.00,0.0694
427.00,0.0693
426.00,0.0690
425.00,0.0687
424.00,0.0686
423.00,0.0684
422.00,0.0681
421.00,0.0677
420.00,0.0677
419.00,0.0678
418.00,0.0677
417.00,0.0677
416.00,0.0679
415.00,0.0679
414.00,0.0675
413.00,0.0671
412.00,0.0671
411.00,0.0673
410.00,0.0672
409.00,0.0670
408.00,0.0670
407.00,0.0670
406.00,0.0669
405.00,0.0672
404.00,0.0677
403.00,0.0678
402.00,0.0674
401.00,0.0672
400.00,0.0678
