Created as New Dataset,Sample 485 By YargerLab Date Friday, January 30 2026
cm-1,A
4000.00,0.0002
3999.00,0.0002
3998.00,0.0002
3997.00,0.0001
3996.00,0.0001
3995.00,0.0001
3994.00,0.0001
3993.00,0.0001
3992.00,0.0001
3991.00,0.0001
3990.00,0.0001
3989.00,0.0001
3988.00,0.0001
3987.00,0.0001
3986.00,0.0001
3985.00,0.0001
3984.00,0.0001
3983.00,0.0001
3982.00,0.0002
3981.00,0.0002
3980.00,0.0002
3979.00,0.0002
3978.00,0.0002
3977.00,0.0002
3976.00,0.0001
3975.00,0.0001
3974.00,0.0000
3973.00,-0.0000
3972.00,-0.0000
3971.00,0.0000
3970.00,0.0000
3969.00,0.0001
3968.00,0.0001
3967.00,0.0001
3966.00,0.0001
3965.00,0.0001
3964.00,0.0001
3963.00,0.0000
3962.00,0.0000
3961.00,0.0000
3960.00,-0.0000
3959.00,-0.0000
3958.00,0.0000
3957.00,0.0000
3956.00,0.0000
3955.00,0.0000
3954.00,0.0001
3953.00,0.0001
3952.00,0.0001
3951.00,0.0001
3950.00,0.0001
3949.00,0.0001
3948.00,0.0001
3947.00,0.0001
3946.00,0.0001
3945.00,0.0001
3944.00,0.0000
3943.00,0.0001
3942.00,0.0001
3941.00,0.0000
3940.00,0.0000
3939.00,0.0000
3938.00,0.0000
3937.00,0.0000
3936.00,0.0001
3935.00,0.0001
3934.00,0.0001
3933.00,0.0001
3932.00,0.0001
3931.00,0.0001
3930.00,0.0001
3929.00,0.0001
3928.00,0.0000
3927.00,0.0000
3926.00,0.0001
3925.00,0.0001
3924.00,0.0001
3923.00,0.0002
3922.00,0.0002
3921.00,0.0001
3920.00,0.0001
3919.00,0.0001
3918.00,0.0001
3917.00,0.0001
3916.00,0.0001
3915.00,0.0001
3914.00,0.0001
3913.00,0.0001
3912.00,0.0000
3911.00,0.0000
3910.00,0.0000
3909.00,0.0000
3908.00,0.0000
3907.00,-0.0000
3906.00,-0.0000
3905.00,-0.0001
3904.00,-0.0001
3903.00,-0.0001
3902.00,-0.0001
3901.00,-0.0001
3900.00,-0.0001
3899.00,-0.0000
3898.00,0.0000
3897.00,0.0000
3896.00,0.0000
3895.00,0.0000
3894.00,0.0000
3893.00,0.0000
3892.00,0.0000
3891.00,0.0000
3890.00,0.0000
3889.00,0.0000
3888.00,0.0000
3887.00,-0.0000
3886.00,-0.0000
3885.00,-0.0001
3884.00,-0.0001
3883.00,-0.0001
3882.00,-0.0001
3881.00,-0.0001
3880.00,-0.0001
3879.00,-0.0000
3878.00,-0.0000
3877.00,-0.0000
3876.00,0.0000
3875.00,0.0000
3874.00,0.0001
3873.00,0.0001
3872.00,0.0001
3871.00,0.0000
3870.00,0.0000
3869.00,-0.0000
3868.00,-0.0000
3867.00,-0.0001
3866.00,-0.0001
3865.00,-0.0001
3864.00,-0.0001
3863.00,-0.0000
3862.00,-0.0000
3861.00,-0.0000
3860.00,-0.0001
3859.00,-0.0001
3858.00,-0.0001
3857.00,-0.0000
3856.00,-0.0001
3855.00,-0.0001
3854.00,-0.0001
3853.00,-0.0001
3852.00,-0.0001
3851.00,-0.0001
3850.00,-0.0001
3849.00,-0.0001
3848.00,-0.0001
3847.00,-0.0001
3846.00,-0.0001
3845.00,-0.0001
3844.00,-0.0001
3843.00,-0.0000
3842.00,-0.0000
3841.00,0.0000
3840.00,0.0000
3839.00,0.0000
3838.00,0.0000
3837.00,-0.0000
3836.00,-0.0000
3835.00,-0.0001
3834.00,-0.0001
3833.00,-0.0001
3832.00,-0.0000
3831.00,-0.0000
3830.00,-0.0000
3829.00,-0.0000
3828.00,-0.0000
3827.00,-0.0000
3826.00,-0.0000
3825.00,0.0000
3824.00,0.0001
3823.00,0.0001
3822.00,0.0001
3821.00,0.0001
3820.00,0.0000
3819.00,0.0000
3818.00,-0.0000
3817.00,-0.0000
3816.00,-0.0000
3815.00,-0.0000
3814.00,-0.0000
3813.00,-0.0000
3812.00,-0.0000
3811.00,-0.0001
3810.00,-0.0001
3809.00,-0.0001
3808.00,-0.0001
3807.00,-0.0001
3806.00,-0.0001
3805.00,-0.0001
3804.00,-0.0001
3803.00,-0.0001
3802.00,-0.0001
3801.00,-0.0001
3800.00,-0.0001
3799.00,-0.0001
3798.00,-0.0001
3797.00,-0.0001
3796.00,-0.0001
3795.00,-0.0001
3794.00,-0.0002
3793.00,-0.0001
3792.00,-0.0001
3791.00,-0.0001
3790.00,-0.0001
3789.00,-0.0001
3788.00,-0.0001
3787.00,-0.0001
3786.00,-0.0001
3785.00,-0.0001
3784.00,-0.0001
3783.00,-0.0001
3782.00,-0.0001
3781.00,-0.0001
3780.00,-0.0001
3779.00,-0.0001
3778.00,-0.0001
3777.00,-0.0001
3776.00,-0.0001
3775.00,-0.0001
3774.00,-0.0001
3773.00,-0.0001
3772.00,-0.0001
3771.00,-0.0002
3770.00,-0.0002
3769.00,-0.0002
3768.00,-0.0002
3767.00,-0.0002
3766.00,-0.0002
3765.00,-0.0002
3764.00,-0.0002
3763.00,-0.0002
3762.00,-0.0002
3761.00,-0.0001
3760.00,-0.0001
3759.00,-0.0001
3758.00,-0.0001
3757.00,-0.0001
3756.00,-0.0001
3755.00,-0.0001
3754.00,-0.0001
3753.00,-0.0001
3752.00,-0.0001
3751.00,-0.0002
3750.00,-0.0002
3749.00,-0.0002
3748.00,-0.0002
3747.00,-0.0002
3746.00,-0.0002
3745.00,-0.0001
3744.00,-0.0001
3743.00,-0.0001
3742.00,-0.0001
3741.00,-0.0001
3740.00,-0.0001
3739.00,-0.0001
3738.00,-0.0001
3737.00,-0.0001
3736.00,-0.0001
3735.00,-0.0001
3734.00,-0.0001
3733.00,-0.0001
3732.00,-0.0001
3731.00,-0.0002
3730.00,-0.0002
3729.00,-0.0002
3728.00,-0.0002
3727.00,-0.0002
3726.00,-0.0002
3725.00,-0.0002
3724.00,-0.0002
3723.00,-0.0002
3722.00,-0.0001
3721.00,-0.0001
3720.00,-0.0001
3719.00,-0.0000
3718.00,-0.0001
3717.00,-0.0001
3716.00,-0.0001
3715.00,-0.0001
3714.00,-0.0001
3713.00,-0.0000
3712.00,0.0000
3711.00,0.0000
3710.00,0.0000
3709.00,-0.0000
3708.00,-0.0001
3707.00,-0.0001
3706.00,-0.0001
3705.00,-0.0000
3704.00,-0.0000
3703.00,-0.0000
3702.00,-0.0001
3701.00,-0.0001
3700.00,-0.0002
3699.00,-0.0002
3698.00,-0.0001
3697.00,-0.0001
3696.00,-0.0001
3695.00,-0.0001
3694.00,-0.0001
3693.00,-0.0000
3692.00,-0.0000
3691.00,0.0000
3690.00,0.0000
3689.00,0.0000
3688.00,0.0000
3687.00,-0.0000
3686.00,-0.0001
3685.00,-0.0001
3684.00,-0.0001
3683.00,-0.0001
3682.00,-0.0001
3681.00,-0.0001
3680.00,-0.0001
3679.00,-0.0001
3678.00,-0.0001
3677.00,-0.0001
3676.00,-0.0001
3675.00,-0.0000
3674.00,0.0000
3673.00,0.0000
3672.00,0.0000
3671.00,0.0000
3670.00,-0.0000
3669.00,-0.0001
3668.00,-0.0001
3667.00,-0.0001
3666.00,-0.0001
3665.00,-0.0001
3664.00,-0.0000
3663.00,-0.0000
3662.00,0.0000
3661.00,0.0000
3660.00,0.0000
3659.00,0.0000
3658.00,0.0000
3657.00,0.0000
3656.00,0.0001
3655.00,0.0001
3654.00,0.0001
3653.00,0.0001
3652.00,0.0001
3651.00,0.0002
3650.00,0.0002
3649.00,0.0002
3648.00,0.0003
3647.00,0.0003
3646.00,0.0004
3645.00,0.0004
3644.00,0.0003
3643.00,0.0003
3642.00,0.0003
3641.00,0.0003
3640.00,0.0003
3639.00,0.0004
3638.00,0.0004
3637.00,0.0005
3636.00,0.0005
3635.00,0.0006
3634.00,0.0007
3633.00,0.0007
3632.00,0.0007
3631.00,0.0008
3630.00,0.0008
3629.00,0.0008
3628.00,0.0009
3627.00,0.0009
3626.00,0.0009
3625.00,0.0009
3624.00,0.0010
3623.00,0.0010
3622.00,0.0011
3621.00,0.0011
3620.00,0.0012
3619.00,0.0012
3618.00,0.0012
3617.00,0.0013
3616.00,0.0013
3615.00,0.0013
3614.00,0.0013
3613.00,0.0014
3612.00,0.0014
3611.00,0.0014
3610.00,0.0015
3609.00,0.0016
3608.00,0.0017
3607.00,0.0017
3606.00,0.0017
3605.00,0.0018
3604.00,0.0018
3603.00,0.0018
3602.00,0.0018
3601.00,0.0019
3600.00,0.0020
3599.00,0.0021
3598.00,0.0021
3597.00,0.0022
3596.00,0.0022
3595.00,0.0023
3594.00,0.0023
3593.00,0.0024
3592.00,0.0024
3591.00,0.0024
3590.00,0.0024
3589.00,0.0025
3588.00,0.0025
3587.00,0.0026
3586.00,0.0027
3585.00,0.0027
3584.00,0.0028
3583.00,0.0028
3582.00,0.0029
3581.00,0.0030
3580.00,0.0031
3579.00,0.0031
3578.00,0.0032
3577.00,0.0032
3576.00,0.0032
3575.00,0.0033
3574.00,0.0033
3573.00,0.0034
3572.00,0.0035
3571.00,0.0036
3570.00,0.0036
3569.00,0.0037
3568.00,0.0037
3567.00,0.0037
3566.00,0.0038
3565.00,0.0038
3564.00,0.0039
3563.00,0.0039
3562.00,0.0040
3561.00,0.0040
3560.00,0.0041
3559.00,0.0042
3558.00,0.0042
3557.00,0.0043
3556.00,0.0044
3555.00,0.0044
3554.00,0.0044
3553.00,0.0045
3552.00,0.0045
3551.00,0.0045
3550.00,0.0045
3549.00,0.0045
3548.00,0.0045
3547.00,0.0046
3546.00,0.0046
3545.00,0.0046
3544.00,0.0047
3543.00,0.0047
3542.00,0.0047
3541.00,0.0047
3540.00,0.0047
3539.00,0.0048
3538.00,0.0048
3537.00,0.0049
3536.00,0.0049
3535.00,0.0050
3534.00,0.0050
3533.00,0.0050
3532.00,0.0050
3531.00,0.0050
3530.00,0.0051
3529.00,0.0051
3528.00,0.0051
3527.00,0.0051
3526.00,0.0050
3525.00,0.0050
3524.00,0.0050
3523.00,0.0050
3522.00,0.0050
3521.00,0.0051
3520.00,0.0051
3519.00,0.0051
3518.00,0.0052
3517.00,0.0052
3516.00,0.0052
3515.00,0.0052
3514.00,0.0052
3513.00,0.0052
3512.00,0.0053
3511.00,0.0053
3510.00,0.0053
3509.00,0.0053
3508.00,0.0053
3507.00,0.0053
3506.00,0.0053
3505.00,0.0053
3504.00,0.0053
3503.00,0.0053
3502.00,0.0053
3501.00,0.0053
3500.00,0.0053
3499.00,0.0053
3498.00,0.0053
3497.00,0.0053
3496.00,0.0053
3495.00,0.0053
3494.00,0.0053
3493.00,0.0053
3492.00,0.0053
3491.00,0.0053
3490.00,0.0054
3489.00,0.0054
3488.00,0.0054
3487.00,0.0054
3486.00,0.0054
3485.00,0.0054
3484.00,0.0054
3483.00,0.0055
3482.00,0.0055
3481.00,0.0055
3480.00,0.0055
3479.00,0.0055
3478.00,0.0055
3477.00,0.0055
3476.00,0.0055
3475.00,0.0055
3474.00,0.0055
3473.00,0.0055
3472.00,0.0054
3471.00,0.0055
3470.00,0.0055
3469.00,0.0056
3468.00,0.0056
3467.00,0.0056
3466.00,0.0056
3465.00,0.0056
3464.00,0.0056
3463.00,0.0056
3462.00,0.0056
3461.00,0.0056
3460.00,0.0055
3459.00,0.0055
3458.00,0.0055
3457.00,0.0055
3456.00,0.0055
3455.00,0.0055
3454.00,0.0055
3453.00,0.0055
3452.00,0.0055
3451.00,0.0055
3450.00,0.0055
3449.00,0.0055
3448.00,0.0055
3447.00,0.0055
3446.00,0.0055
3445.00,0.0055
3444.00,0.0055
3443.00,0.0055
3442.00,0.0055
3441.00,0.0055
3440.00,0.0054
3439.00,0.0054
3438.00,0.0054
3437.00,0.0053
3436.00,0.0053
3435.00,0.0053
3434.00,0.0053
3433.00,0.0053
3432.00,0.0053
3431.00,0.0053
3430.00,0.0053
3429.00,0.0053
3428.00,0.0053
3427.00,0.0053
3426.00,0.0053
3425.00,0.0052
3424.00,0.0052
3423.00,0.0052
3422.00,0.0052
3421.00,0.0052
3420.00,0.0051
3419.00,0.0051
3418.00,0.0051
3417.00,0.0051
3416.00,0.0050
3415.00,0.0050
3414.00,0.0050
3413.00,0.0050
3412.00,0.0049
3411.00,0.0049
3410.00,0.0049
3409.00,0.0049
3408.00,0.0049
3407.00,0.0049
3406.00,0.0048
3405.00,0.0048
3404.00,0.0048
3403.00,0.0048
3402.00,0.0048
3401.00,0.0048
3400.00,0.0048
3399.00,0.0048
3398.00,0.0048
3397.00,0.0048
3396.00,0.0048
3395.00,0.0048
3394.00,0.0049
3393.00,0.0049
3392.00,0.0049
3391.00,0.0050
3390.00,0.0051
3389.00,0.0052
3388.00,0.0053
3387.00,0.0054
3386.00,0.0055
3385.00,0.0055
3384.00,0.0056
3383.00,0.0057
3382.00,0.0059
3381.00,0.0060
3380.00,0.0062
3379.00,0.0063
3378.00,0.0065
3377.00,0.0067
3376.00,0.0069
3375.00,0.0070
3374.00,0.0072
3373.00,0.0073
3372.00,0.0074
3371.00,0.0074
3370.00,0.0074
3369.00,0.0074
3368.00,0.0074
3367.00,0.0074
3366.00,0.0074
3365.00,0.0073
3364.00,0.0072
3363.00,0.0071
3362.00,0.0070
3361.00,0.0069
3360.00,0.0067
3359.00,0.0066
3358.00,0.0064
3357.00,0.0063
3356.00,0.0062
3355.00,0.0061
3354.00,0.0059
3353.00,0.0058
3352.00,0.0056
3351.00,0.0055
3350.00,0.0054
3349.00,0.0054
3348.00,0.0053
3347.00,0.0053
3346.00,0.0053
3345.00,0.0052
3344.00,0.0051
3343.00,0.0051
3342.00,0.0050
3341.00,0.0050
3340.00,0.0049
3339.00,0.0048
3338.00,0.0048
3337.00,0.0047
3336.00,0.0047
3335.00,0.0047
3334.00,0.0048
3333.00,0.0048
3332.00,0.0048
3331.00,0.0048
3330.00,0.0047
3329.00,0.0047
3328.00,0.0047
3327.00,0.0047
3326.00,0.0046
3325.00,0.0047
3324.00,0.0047
3323.00,0.0047
3322.00,0.0047
3321.00,0.0048
3320.00,0.0048
3319.00,0.0048
3318.00,0.0048
3317.00,0.0047
3316.00,0.0047
3315.00,0.0047
3314.00,0.0046
3313.00,0.0046
3312.00,0.0046
3311.00,0.0046
3310.00,0.0046
3309.00,0.0046
3308.00,0.0046
3307.00,0.0045
3306.00,0.0046
3305.00,0.0047
3304.00,0.0048
3303.00,0.0049
3302.00,0.0050
3301.00,0.0050
3300.00,0.0050
3299.00,0.0050
3298.00,0.0050
3297.00,0.0050
3296.00,0.0050
3295.00,0.0050
3294.00,0.0050
3293.00,0.0050
3292.00,0.0050
3291.00,0.0051
3290.00,0.0051
3289.00,0.0052
3288.00,0.0052
3287.00,0.0052
3286.00,0.0052
3285.00,0.0052
3284.00,0.0051
3283.00,0.0051
3282.00,0.0051
3281.00,0.0051
3280.00,0.0051
3279.00,0.0051
3278.00,0.0050
3277.00,0.0050
3276.00,0.0049
3275.00,0.0048
3274.00,0.0047
3273.00,0.0047
3272.00,0.0046
3271.00,0.0046
3270.00,0.0045
3269.00,0.0045
3268.00,0.0045
3267.00,0.0045
3266.00,0.0045
3265.00,0.0045
3264.00,0.0044
3263.00,0.0044
3262.00,0.0043
3261.00,0.0043
3260.00,0.0042
3259.00,0.0041
3258.00,0.0040
3257.00,0.0040
3256.00,0.0040
3255.00,0.0040
3254.00,0.0040
3253.00,0.0040
3252.00,0.0040
3251.00,0.0039
3250.00,0.0039
3249.00,0.0038
3248.00,0.0037
3247.00,0.0036
3246.00,0.0036
3245.00,0.0036
3244.00,0.0037
3243.00,0.0037
3242.00,0.0038
3241.00,0.0038
3240.00,0.0039
3239.00,0.0039
3238.00,0.0039
3237.00,0.0039
3236.00,0.0039
3235.00,0.0038
3234.00,0.0038
3233.00,0.0038
3232.00,0.0038
3231.00,0.0039
3230.00,0.0040
3229.00,0.0041
3228.00,0.0042
3227.00,0.0042
3226.00,0.0042
3225.00,0.0042
3224.00,0.0042
3223.00,0.0043
3222.00,0.0043
3221.00,0.0043
3220.00,0.0043
3219.00,0.0043
3218.00,0.0043
3217.00,0.0042
3216.00,0.0042
3215.00,0.0042
3214.00,0.0042
3213.00,0.0042
3212.00,0.0041
3211.00,0.0041
3210.00,0.0040
3209.00,0.0040
3208.00,0.0040
3207.00,0.0039
3206.00,0.0039
3205.00,0.0039
3204.00,0.0039
3203.00,0.0039
3202.00,0.0038
3201.00,0.0038
3200.00,0.0037
3199.00,0.0037
3198.00,0.0036
3197.00,0.0036
3196.00,0.0036
3195.00,0.0036
3194.00,0.0036
3193.00,0.0035
3192.00,0.0035
3191.00,0.0035
3190.00,0.0035
3189.00,0.0035
3188.00,0.0034
3187.00,0.0034
3186.00,0.0034
3185.00,0.0034
3184.00,0.0033
3183.00,0.0033
3182.00,0.0032
3181.00,0.0032
3180.00,0.0032
3179.00,0.0031
3178.00,0.0031
3177.00,0.0031
3176.00,0.0030
3175.00,0.0030
3174.00,0.0029
3173.00,0.0029
3172.00,0.0028
3171.00,0.0028
3170.00,0.0027
3169.00,0.0027
3168.00,0.0027
3167.00,0.0027
3166.00,0.0026
3165.00,0.0026
3164.00,0.0026
3163.00,0.0026
3162.00,0.0025
3161.00,0.0025
3160.00,0.0025
3159.00,0.0024
3158.00,0.0024
3157.00,0.0024
3156.00,0.0023
3155.00,0.0023
3154.00,0.0023
3153.00,0.0022
3152.00,0.0022
3151.00,0.0022
3150.00,0.0022
3149.00,0.0021
3148.00,0.0021
3147.00,0.0021
3146.00,0.0021
3145.00,0.0021
3144.00,0.0020
3143.00,0.0020
3142.00,0.0020
3141.00,0.0020
3140.00,0.0020
3139.00,0.0020
3138.00,0.0020
3137.00,0.0020
3136.00,0.0020
3135.00,0.0020
3134.00,0.0020
3133.00,0.0020
3132.00,0.0020
3131.00,0.0020
3130.00,0.0020
3129.00,0.0020
3128.00,0.0020
3127.00,0.0021
3126.00,0.0021
3125.00,0.0021
3124.00,0.0021
3123.00,0.0021
3122.00,0.0022
3121.00,0.0022
3120.00,0.0023
3119.00,0.0023
3118.00,0.0023
3117.00,0.0024
3116.00,0.0024
3115.00,0.0025
3114.00,0.0025
3113.00,0.0026
3112.00,0.0027
3111.00,0.0028
3110.00,0.0029
3109.00,0.0030
3108.00,0.0031
3107.00,0.0032
3106.00,0.0032
3105.00,0.0033
3104.00,0.0034
3103.00,0.0035
3102.00,0.0035
3101.00,0.0036
3100.00,0.0036
3099.00,0.0036
3098.00,0.0037
3097.00,0.0037
3096.00,0.0038
3095.00,0.0039
3094.00,0.0039
3093.00,0.0040
3092.00,0.0040
3091.00,0.0040
3090.00,0.0040
3089.00,0.0040
3088.00,0.0040
3087.00,0.0040
3086.00,0.0040
3085.00,0.0040
3084.00,0.0039
3083.00,0.0039
3082.00,0.0039
3081.00,0.0039
3080.00,0.0039
3079.00,0.0039
3078.00,0.0038
3077.00,0.0038
3076.00,0.0038
3075.00,0.0038
3074.00,0.0038
3073.00,0.0038
3072.00,0.0038
3071.00,0.0038
3070.00,0.0038
3069.00,0.0038
3068.00,0.0038
3067.00,0.0038
3066.00,0.0038
3065.00,0.0037
3064.00,0.0037
3063.00,0.0037
3062.00,0.0036
3061.00,0.0036
3060.00,0.0036
3059.00,0.0035
3058.00,0.0035
3057.00,0.0035
3056.00,0.0034
3055.00,0.0034
3054.00,0.0034
3053.00,0.0034
3052.00,0.0033
3051.00,0.0033
3050.00,0.0033
3049.00,0.0032
3048.00,0.0032
3047.00,0.0031
3046.00,0.0031
3045.00,0.0031
3044.00,0.0031
3043.00,0.0031
3042.00,0.0031
3041.00,0.0031
3040.00,0.0031
3039.00,0.0030
3038.00,0.0030
3037.00,0.0030
3036.00,0.0030
3035.00,0.0030
3034.00,0.0030
3033.00,0.0030
3032.00,0.0030
3031.00,0.0030
3030.00,0.0030
3029.00,0.0030
3028.00,0.0031
3027.00,0.0031
3026.00,0.0032
3025.00,0.0032
3024.00,0.0033
3023.00,0.0033
3022.00,0.0034
3021.00,0.0034
3020.00,0.0035
3019.00,0.0035
3018.00,0.0036
3017.00,0.0037
3016.00,0.0037
3015.00,0.0038
3014.00,0.0039
3013.00,0.0040
3012.00,0.0042
3011.00,0.0043
3010.00,0.0045
3009.00,0.0046
3008.00,0.0048
3007.00,0.0049
3006.00,0.0051
3005.00,0.0052
3004.00,0.0054
3003.00,0.0056
3002.00,0.0059
3001.00,0.0061
3000.00,0.0064
2999.00,0.0067
2998.00,0.0070
2997.00,0.0073
2996.00,0.0076
2995.00,0.0080
2994.00,0.0084
2993.00,0.0087
2992.00,0.0091
2991.00,0.0095
2990.00,0.0099
2989.00,0.0102
2988.00,0.0105
2987.00,0.0108
2986.00,0.0110
2985.00,0.0112
2984.00,0.0113
2983.00,0.0114
2982.00,0.0114
2981.00,0.0116
2980.00,0.0117
2979.00,0.0120
2978.00,0.0122
2977.00,0.0124
2976.00,0.0125
2975.00,0.0126
2974.00,0.0126
2973.00,0.0126
2972.00,0.0126
2971.00,0.0127
2970.00,0.0127
2969.00,0.0128
2968.00,0.0129
2967.00,0.0131
2966.00,0.0133
2965.00,0.0134
2964.00,0.0137
2963.00,0.0139
2962.00,0.0142
2961.00,0.0145
2960.00,0.0148
2959.00,0.0150
2958.00,0.0153
2957.00,0.0156
2956.00,0.0158
2955.00,0.0159
2954.00,0.0161
2953.00,0.0162
2952.00,0.0163
2951.00,0.0165
2950.00,0.0166
2949.00,0.0166
2948.00,0.0166
2947.00,0.0164
2946.00,0.0162
2945.00,0.0160
2944.00,0.0157
2943.00,0.0154
2942.00,0.0151
2941.00,0.0148
2940.00,0.0145
2939.00,0.0143
2938.00,0.0140
2937.00,0.0138
2936.00,0.0136
2935.00,0.0135
2934.00,0.0135
2933.00,0.0134
2932.00,0.0134
2931.00,0.0134
2930.00,0.0135
2929.00,0.0136
2928.00,0.0137
2927.00,0.0138
2926.00,0.0139
2925.00,0.0140
2924.00,0.0140
2923.00,0.0141
2922.00,0.0142
2921.00,0.0143
2920.00,0.0143
2919.00,0.0143
2918.00,0.0142
2917.00,0.0141
2916.00,0.0140
2915.00,0.0138
2914.00,0.0136
2913.00,0.0134
2912.00,0.0132
2911.00,0.0129
2910.00,0.0125
2909.00,0.0121
2908.00,0.0118
2907.00,0.0115
2906.00,0.0112
2905.00,0.0109
2904.00,0.0107
2903.00,0.0106
2902.00,0.0105
2901.00,0.0104
2900.00,0.0104
2899.00,0.0103
2898.00,0.0103
2897.00,0.0103
2896.00,0.0103
2895.00,0.0103
2894.00,0.0103
2893.00,0.0103
2892.00,0.0104
2891.00,0.0104
2890.00,0.0104
2889.00,0.0104
2888.00,0.0105
2887.00,0.0105
2886.00,0.0105
2885.00,0.0106
2884.00,0.0106
2883.00,0.0106
2882.00,0.0106
2881.00,0.0106
2880.00,0.0106
2879.00,0.0106
2878.00,0.0106
2877.00,0.0106
2876.00,0.0105
2875.00,0.0104
2874.00,0.0103
2873.00,0.0101
2872.00,0.0100
2871.00,0.0099
2870.00,0.0098
2869.00,0.0097
2868.00,0.0096
2867.00,0.0094
2866.00,0.0093
2865.00,0.0092
2864.00,0.0091
2863.00,0.0090
2862.00,0.0088
2861.00,0.0086
2860.00,0.0084
2859.00,0.0083
2858.00,0.0081
2857.00,0.0080
2856.00,0.0078
2855.00,0.0077
2854.00,0.0075
2853.00,0.0073
2852.00,0.0071
2851.00,0.0069
2850.00,0.0067
2849.00,0.0065
2848.00,0.0064
2847.00,0.0063
2846.00,0.0061
2845.00,0.0060
2844.00,0.0059
2843.00,0.0057
2842.00,0.0056
2841.00,0.0055
2840.00,0.0054
2839.00,0.0053
2838.00,0.0052
2837.00,0.0051
2836.00,0.0050
2835.00,0.0048
2834.00,0.0047
2833.00,0.0045
2832.00,0.0044
2831.00,0.0042
2830.00,0.0041
2829.00,0.0039
2828.00,0.0038
2827.00,0.0037
2826.00,0.0036
2825.00,0.0034
2824.00,0.0033
2823.00,0.0032
2822.00,0.0031
2821.00,0.0030
2820.00,0.0029
2819.00,0.0028
2818.00,0.0028
2817.00,0.0027
2816.00,0.0026
2815.00,0.0026
2814.00,0.0025
2813.00,0.0024
2812.00,0.0024
2811.00,0.0023
2810.00,0.0022
2809.00,0.0022
2808.00,0.0021
2807.00,0.0021
2806.00,0.0021
2805.00,0.0020
2804.00,0.0020
2803.00,0.0020
2802.00,0.0020
2801.00,0.0019
2800.00,0.0019
2799.00,0.0019
2798.00,0.0019
2797.00,0.0018
2796.00,0.0018
2795.00,0.0017
2794.00,0.0017
2793.00,0.0016
2792.00,0.0016
2791.00,0.0015
2790.00,0.0015
2789.00,0.0014
2788.00,0.0014
2787.00,0.0013
2786.00,0.0013
2785.00,0.0013
2784.00,0.0013
2783.00,0.0013
2782.00,0.0012
2781.00,0.0012
2780.00,0.0012
2779.00,0.0011
2778.00,0.0011
2777.00,0.0011
2776.00,0.0011
2775.00,0.0011
2774.00,0.0011
2773.00,0.0011
2772.00,0.0010
2771.00,0.0010
2770.00,0.0010
2769.00,0.0010
2768.00,0.0010
2767.00,0.0010
2766.00,0.0010
2765.00,0.0009
2764.00,0.0009
2763.00,0.0009
2762.00,0.0009
2761.00,0.0009
2760.00,0.0009
2759.00,0.0009
2758.00,0.0009
2757.00,0.0008
2756.00,0.0008
2755.00,0.0008
2754.00,0.0008
2753.00,0.0008
2752.00,0.0008
2751.00,0.0008
2750.00,0.0008
2749.00,0.0008
2748.00,0.0008
2747.00,0.0008
2746.00,0.0008
2745.00,0.0008
2744.00,0.0008
2743.00,0.0009
2742.00,0.0009
2741.00,0.0009
2740.00,0.0009
2739.00,0.0009
2738.00,0.0009
2737.00,0.0008
2736.00,0.0008
2735.00,0.0008
2734.00,0.0008
2733.00,0.0007
2732.00,0.0007
2731.00,0.0007
2730.00,0.0007
2729.00,0.0007
2728.00,0.0007
2727.00,0.0007
2726.00,0.0007
2725.00,0.0007
2724.00,0.0007
2723.00,0.0007
2722.00,0.0007
2721.00,0.0007
2720.00,0.0007
2719.00,0.0007
2718.00,0.0007
2717.00,0.0007
2716.00,0.0007
2715.00,0.0007
2714.00,0.0007
2713.00,0.0006
2712.00,0.0006
2711.00,0.0006
2710.00,0.0006
2709.00,0.0006
2708.00,0.0006
2707.00,0.0006
2706.00,0.0006
2705.00,0.0006
2704.00,0.0005
2703.00,0.0005
2702.00,0.0005
2701.00,0.0005
2700.00,0.0005
2699.00,0.0005
2698.00,0.0005
2697.00,0.0005
2696.00,0.0005
2695.00,0.0005
2694.00,0.0005
2693.00,0.0005
2692.00,0.0005
2691.00,0.0005
2690.00,0.0005
2689.00,0.0005
2688.00,0.0005
2687.00,0.0004
2686.00,0.0004
2685.00,0.0004
2684.00,0.0004
2683.00,0.0004
2682.00,0.0004
2681.00,0.0004
2680.00,0.0004
2679.00,0.0004
2678.00,0.0004
2677.00,0.0004
2676.00,0.0004
2675.00,0.0004
2674.00,0.0004
2673.00,0.0004
2672.00,0.0004
2671.00,0.0004
2670.00,0.0003
2669.00,0.0003
2668.00,0.0003
2667.00,0.0003
2666.00,0.0003
2665.00,0.0003
2664.00,0.0003
2663.00,0.0003
2662.00,0.0003
2661.00,0.0003
2660.00,0.0003
2659.00,0.0002
2658.00,0.0002
2657.00,0.0002
2656.00,0.0002
2655.00,0.0002
2654.00,0.0002
2653.00,0.0002
2652.00,0.0002
2651.00,0.0002
2650.00,0.0002
2649.00,0.0002
2648.00,0.0002
2647.00,0.0002
2646.00,0.0002
2645.00,0.0001
2644.00,0.0001
2643.00,0.0001
2642.00,0.0001
2641.00,0.0001
2640.00,0.0001
2639.00,0.0002
2638.00,0.0002
2637.00,0.0002
2636.00,0.0002
2635.00,0.0002
2634.00,0.0002
2633.00,0.0002
2632.00,0.0002
2631.00,0.0002
2630.00,0.0002
2629.00,0.0002
2628.00,0.0002
2627.00,0.0002
2626.00,0.0002
2625.00,0.0002
2624.00,0.0002
2623.00,0.0002
2622.00,0.0002
2621.00,0.0001
2620.00,0.0001
2619.00,0.0001
2618.00,0.0001
2617.00,0.0001
2616.00,0.0002
2615.00,0.0002
2614.00,0.0002
2613.00,0.0002
2612.00,0.0002
2611.00,0.0001
2610.00,0.0001
2609.00,0.0001
2608.00,0.0001
2607.00,0.0001
2606.00,0.0001
2605.00,0.0001
2604.00,0.0001
2603.00,0.0001
2602.00,0.0001
2601.00,0.0002
2600.00,0.0002
2599.00,0.0002
2598.00,0.0002
2597.00,0.0002
2596.00,0.0002
2595.00,0.0002
2594.00,0.0002
2593.00,0.0002
2592.00,0.0002
2591.00,0.0002
2590.00,0.0002
2589.00,0.0002
2588.00,0.0002
2587.00,0.0002
2586.00,0.0002
2585.00,0.0002
2584.00,0.0002
2583.00,0.0002
2582.00,0.0002
2581.00,0.0002
2580.00,0.0002
2579.00,0.0001
2578.00,0.0001
2577.00,0.0001
2576.00,0.0001
2575.00,0.0001
2574.00,0.0002
2573.00,0.0002
2572.00,0.0002
2571.00,0.0002
2570.00,0.0003
2569.00,0.0003
2568.00,0.0003
2567.00,0.0002
2566.00,0.0002
2565.00,0.0001
2564.00,0.0001
2563.00,0.0001
2562.00,0.0001
2561.00,0.0001
2560.00,0.0001
2559.00,0.0001
2558.00,0.0002
2557.00,0.0002
2556.00,0.0002
2555.00,0.0002
2554.00,0.0001
2553.00,0.0001
2552.00,0.0001
2551.00,0.0001
2550.00,0.0001
2549.00,0.0001
2548.00,0.0001
2547.00,0.0002
2546.00,0.0002
2545.00,0.0003
2544.00,0.0003
2543.00,0.0003
2542.00,0.0002
2541.00,0.0002
2540.00,0.0001
2539.00,0.0001
2538.00,0.0001
2537.00,0.0001
2536.00,0.0002
2535.00,0.0002
2534.00,0.0002
2533.00,0.0001
2532.00,0.0001
2531.00,0.0000
2530.00,0.0000
2529.00,-0.0000
2528.00,0.0000
2527.00,0.0000
2526.00,0.0000
2525.00,0.0001
2524.00,0.0001
2523.00,0.0000
2522.00,0.0001
2521.00,0.0001
2520.00,0.0001
2519.00,0.0001
2518.00,0.0001
2517.00,0.0000
2516.00,0.0000
2515.00,0.0000
2514.00,0.0000
2513.00,0.0000
2512.00,0.0001
2511.00,0.0001
2510.00,0.0001
2509.00,0.0001
2508.00,0.0001
2507.00,0.0001
2506.00,0.0001
2505.00,0.0001
2504.00,0.0001
2503.00,0.0001
2502.00,0.0001
2501.00,0.0001
2500.00,0.0001
2499.00,0.0001
2498.00,0.0001
2497.00,0.0001
2496.00,0.0001
2495.00,0.0001
2494.00,0.0001
2493.00,0.0000
2492.00,0.0000
2491.00,0.0000
2490.00,0.0000
2489.00,0.0000
2488.00,0.0001
2487.00,0.0001
2486.00,0.0001
2485.00,0.0001
2484.00,0.0001
2483.00,0.0001
2482.00,0.0001
2481.00,0.0001
2480.00,0.0002
2479.00,0.0002
2478.00,0.0002
2477.00,0.0002
2476.00,0.0002
2475.00,0.0001
2474.00,0.0001
2473.00,0.0001
2472.00,0.0001
2471.00,0.0001
2470.00,0.0001
2469.00,0.0001
2468.00,0.0001
2467.00,0.0001
2466.00,0.0001
2465.00,0.0001
2464.00,0.0000
2463.00,0.0000
2462.00,-0.0000
2461.00,-0.0000
2460.00,-0.0000
2459.00,0.0000
2458.00,0.0000
2457.00,0.0001
2456.00,0.0000
2455.00,0.0000
2454.00,-0.0000
2453.00,-0.0000
2452.00,-0.0000
2451.00,0.0000
2450.00,0.0000
2449.00,0.0000
2448.00,0.0000
2447.00,0.0001
2446.00,0.0000
2445.00,0.0000
2444.00,0.0001
2443.00,0.0001
2442.00,0.0001
2441.00,0.0001
2440.00,0.0001
2439.00,0.0001
2438.00,0.0000
2437.00,0.0000
2436.00,0.0001
2435.00,0.0001
2434.00,0.0001
2433.00,0.0001
2432.00,0.0001
2431.00,0.0001
2430.00,0.0001
2429.00,0.0001
2428.00,0.0001
2427.00,0.0002
2426.00,0.0002
2425.00,0.0002
2424.00,0.0002
2423.00,0.0002
2422.00,0.0002
2421.00,0.0002
2420.00,0.0002
2419.00,0.0001
2418.00,0.0001
2417.00,0.0002
2416.00,0.0002
2415.00,0.0002
2414.00,0.0002
2413.00,0.0002
2412.00,0.0002
2411.00,0.0002
2410.00,0.0002
2409.00,0.0002
2408.00,0.0002
2407.00,0.0002
2406.00,0.0002
2405.00,0.0002
2404.00,0.0002
2403.00,0.0001
2402.00,0.0001
2401.00,0.0001
2400.00,0.0001
2399.00,0.0001
2398.00,0.0002
2397.00,0.0002
2396.00,0.0002
2395.00,0.0002
2394.00,0.0002
2393.00,0.0002
2392.00,0.0001
2391.00,0.0001
2390.00,0.0001
2389.00,0.0001
2388.00,0.0002
2387.00,0.0002
2386.00,0.0002
2385.00,0.0002
2384.00,0.0002
2383.00,0.0002
2382.00,0.0001
2381.00,0.0001
2380.00,0.0001
2379.00,0.0001
2378.00,0.0001
2377.00,0.0002
2376.00,0.0002
2375.00,0.0002
2374.00,0.0002
2373.00,0.0002
2372.00,0.0002
2371.00,0.0001
2370.00,0.0001
2369.00,0.0001
2368.00,0.0001
2367.00,0.0002
2366.00,0.0002
2365.00,0.0002
2364.00,0.0003
2363.00,0.0002
2362.00,0.0002
2361.00,0.0001
2360.00,0.0001
2359.00,0.0001
2358.00,0.0001
2357.00,0.0001
2356.00,0.0001
2355.00,0.0001
2354.00,0.0001
2353.00,0.0001
2352.00,0.0001
2351.00,0.0001
2350.00,0.0001
2349.00,0.0001
2348.00,0.0001
2347.00,0.0001
2346.00,0.0000
2345.00,0.0000
2344.00,0.0000
2343.00,0.0001
2342.00,0.0001
2341.00,0.0001
2340.00,0.0000
2339.00,0.0000
2338.00,0.0000
2337.00,-0.0000
2336.00,-0.0000
2335.00,0.0000
2334.00,0.0001
2333.00,0.0001
2332.00,0.0001
2331.00,0.0001
2330.00,0.0000
2329.00,-0.0000
2328.00,-0.0001
2327.00,-0.0002
2326.00,-0.0003
2325.00,-0.0003
2324.00,-0.0003
2323.00,-0.0002
2322.00,-0.0002
2321.00,-0.0001
2320.00,-0.0000
2319.00,0.0000
2318.00,0.0000
2317.00,0.0000
2316.00,-0.0000
2315.00,-0.0000
2314.00,-0.0000
2313.00,0.0000
2312.00,0.0000
2311.00,0.0000
2310.00,-0.0000
2309.00,-0.0001
2308.00,-0.0001
2307.00,-0.0001
2306.00,-0.0002
2305.00,-0.0002
2304.00,-0.0001
2303.00,-0.0001
2302.00,-0.0001
2301.00,-0.0001
2300.00,-0.0001
2299.00,-0.0001
2298.00,-0.0001
2297.00,-0.0002
2296.00,-0.0002
2295.00,-0.0003
2294.00,-0.0003
2293.00,-0.0004
2292.00,-0.0003
2291.00,-0.0003
2290.00,-0.0004
2289.00,-0.0004
2288.00,-0.0004
2287.00,-0.0004
2286.00,-0.0004
2285.00,-0.0003
2284.00,-0.0003
2283.00,-0.0002
2282.00,-0.0002
2281.00,-0.0002
2280.00,-0.0003
2279.00,-0.0003
2278.00,-0.0003
2277.00,-0.0003
2276.00,-0.0003
2275.00,-0.0003
2274.00,-0.0003
2273.00,-0.0004
2272.00,-0.0004
2271.00,-0.0004
2270.00,-0.0005
2269.00,-0.0004
2268.00,-0.0004
2267.00,-0.0002
2266.00,-0.0001
2265.00,-0.0001
2264.00,-0.0001
2263.00,-0.0001
2262.00,-0.0002
2261.00,-0.0002
2260.00,-0.0002
2259.00,-0.0001
2258.00,-0.0001
2257.00,-0.0000
2256.00,-0.0000
2255.00,-0.0001
2254.00,-0.0001
2253.00,-0.0002
2252.00,-0.0002
2251.00,-0.0003
2250.00,-0.0004
2249.00,-0.0004
2248.00,-0.0004
2247.00,-0.0003
2246.00,-0.0002
2245.00,-0.0002
2244.00,-0.0003
2243.00,-0.0004
2242.00,-0.0005
2241.00,-0.0005
2240.00,-0.0005
2239.00,-0.0005
2238.00,-0.0005
2237.00,-0.0005
2236.00,-0.0005
2235.00,-0.0004
2234.00,-0.0003
2233.00,-0.0003
2232.00,-0.0003
2231.00,-0.0004
2230.00,-0.0005
2229.00,-0.0005
2228.00,-0.0006
2227.00,-0.0006
2226.00,-0.0007
2225.00,-0.0008
2224.00,-0.0008
2223.00,-0.0007
2222.00,-0.0006
2221.00,-0.0005
2220.00,-0.0005
2219.00,-0.0005
2218.00,-0.0005
2217.00,-0.0005
2216.00,-0.0005
2215.00,-0.0004
2214.00,-0.0004
2213.00,-0.0005
2212.00,-0.0006
2211.00,-0.0007
2210.00,-0.0007
2209.00,-0.0007
2208.00,-0.0007
2207.00,-0.0007
2206.00,-0.0008
2205.00,-0.0007
2204.00,-0.0006
2203.00,-0.0004
2202.00,-0.0004
2201.00,-0.0004
2200.00,-0.0005
2199.00,-0.0006
2198.00,-0.0007
2197.00,-0.0009
2196.00,-0.0011
2195.00,-0.0012
2194.00,-0.0011
2193.00,-0.0010
2192.00,-0.0008
2191.00,-0.0007
2190.00,-0.0006
2189.00,-0.0007
2188.00,-0.0007
2187.00,-0.0008
2186.00,-0.0008
2185.00,-0.0007
2184.00,-0.0007
2183.00,-0.0007
2182.00,-0.0008
2181.00,-0.0009
2180.00,-0.0009
2179.00,-0.0008
2178.00,-0.0006
2177.00,-0.0005
2176.00,-0.0005
2175.00,-0.0006
2174.00,-0.0006
2173.00,-0.0005
2172.00,-0.0005
2171.00,-0.0005
2170.00,-0.0005
2169.00,-0.0006
2168.00,-0.0006
2167.00,-0.0007
2166.00,-0.0008
2165.00,-0.0009
2164.00,-0.0009
2163.00,-0.0008
2162.00,-0.0007
2161.00,-0.0006
2160.00,-0.0003
2159.00,-0.0001
2158.00,-0.0000
2157.00,0.0000
2156.00,0.0000
2155.00,-0.0000
2154.00,-0.0001
2153.00,-0.0003
2152.00,-0.0004
2151.00,-0.0004
2150.00,-0.0005
2149.00,-0.0005
2148.00,-0.0004
2147.00,-0.0003
2146.00,-0.0001
2145.00,0.0001
2144.00,0.0002
2143.00,0.0002
2142.00,0.0000
2141.00,-0.0001
2140.00,-0.0002
2139.00,-0.0002
2138.00,-0.0002
2137.00,-0.0000
2136.00,0.0001
2135.00,0.0002
2134.00,0.0002
2133.00,0.0002
2132.00,0.0002
2131.00,0.0002
2130.00,0.0002
2129.00,0.0001
2128.00,0.0000
2127.00,-0.0001
2126.00,-0.0002
2125.00,-0.0003
2124.00,-0.0003
2123.00,-0.0004
2122.00,-0.0004
2121.00,-0.0004
2120.00,-0.0003
2119.00,-0.0002
2118.00,-0.0002
2117.00,-0.0002
2116.00,-0.0002
2115.00,-0.0002
2114.00,-0.0003
2113.00,-0.0004
2112.00,-0.0004
2111.00,-0.0004
2110.00,-0.0004
2109.00,-0.0003
2108.00,-0.0003
2107.00,-0.0002
2106.00,-0.0002
2105.00,-0.0002
2104.00,-0.0002
2103.00,-0.0002
2102.00,-0.0001
2101.00,0.0001
2100.00,0.0002
2099.00,0.0002
2098.00,0.0001
2097.00,-0.0000
2096.00,-0.0001
2095.00,-0.0001
2094.00,-0.0001
2093.00,-0.0001
2092.00,-0.0001
2091.00,-0.0003
2090.00,-0.0004
2089.00,-0.0005
2088.00,-0.0006
2087.00,-0.0006
2086.00,-0.0006
2085.00,-0.0006
2084.00,-0.0006
2083.00,-0.0006
2082.00,-0.0006
2081.00,-0.0006
2080.00,-0.0006
2079.00,-0.0005
2078.00,-0.0004
2077.00,-0.0003
2076.00,-0.0003
2075.00,-0.0003
2074.00,-0.0004
2073.00,-0.0005
2072.00,-0.0005
2071.00,-0.0004
2070.00,-0.0004
2069.00,-0.0003
2068.00,-0.0003
2067.00,-0.0002
2066.00,-0.0002
2065.00,-0.0002
2064.00,-0.0002
2063.00,-0.0003
2062.00,-0.0005
2061.00,-0.0006
2060.00,-0.0007
2059.00,-0.0008
2058.00,-0.0009
2057.00,-0.0008
2056.00,-0.0007
2055.00,-0.0005
2054.00,-0.0005
2053.00,-0.0006
2052.00,-0.0007
2051.00,-0.0008
2050.00,-0.0009
2049.00,-0.0010
2048.00,-0.0010
2047.00,-0.0010
2046.00,-0.0011
2045.00,-0.0011
2044.00,-0.0010
2043.00,-0.0009
2042.00,-0.0009
2041.00,-0.0008
2040.00,-0.0008
2039.00,-0.0009
2038.00,-0.0011
2037.00,-0.0012
2036.00,-0.0013
2035.00,-0.0012
2034.00,-0.0010
2033.00,-0.0009
2032.00,-0.0010
2031.00,-0.0012
2030.00,-0.0014
2029.00,-0.0015
2028.00,-0.0013
2027.00,-0.0011
2026.00,-0.0010
2025.00,-0.0009
2024.00,-0.0007
2023.00,-0.0006
2022.00,-0.0006
2021.00,-0.0006
2020.00,-0.0007
2019.00,-0.0008
2018.00,-0.0008
2017.00,-0.0007
2016.00,-0.0005
2015.00,-0.0004
2014.00,-0.0004
2013.00,-0.0005
2012.00,-0.0005
2011.00,-0.0004
2010.00,-0.0004
2009.00,-0.0004
2008.00,-0.0003
2007.00,-0.0003
2006.00,-0.0002
2005.00,-0.0000
2004.00,0.0002
2003.00,0.0003
2002.00,0.0001
2001.00,-0.0000
2000.00,-0.0002
1999.00,-0.0003
1998.00,-0.0004
1997.00,-0.0004
1996.00,-0.0004
1995.00,-0.0004
1994.00,-0.0004
1993.00,-0.0004
1992.00,-0.0005
1991.00,-0.0005
1990.00,-0.0005
1989.00,-0.0004
1988.00,-0.0003
1987.00,-0.0003
1986.00,-0.0003
1985.00,-0.0004
1984.00,-0.0005
1983.00,-0.0006
1982.00,-0.0008
1981.00,-0.0008
1980.00,-0.0006
1979.00,-0.0004
1978.00,-0.0004
1977.00,-0.0005
1976.00,-0.0006
1975.00,-0.0007
1974.00,-0.0007
1973.00,-0.0007
1972.00,-0.0005
1971.00,-0.0003
1970.00,-0.0003
1969.00,-0.0002
1968.00,-0.0001
1967.00,-0.0001
1966.00,-0.0001
1965.00,-0.0002
1964.00,-0.0002
1963.00,-0.0001
1962.00,-0.0001
1961.00,-0.0001
1960.00,-0.0000
1959.00,-0.0000
1958.00,-0.0001
1957.00,-0.0003
1956.00,-0.0003
1955.00,-0.0002
1954.00,-0.0001
1953.00,0.0000
1952.00,0.0002
1951.00,0.0003
1950.00,0.0002
1949.00,0.0001
1948.00,-0.0000
1947.00,-0.0001
1946.00,-0.0001
1945.00,-0.0001
1944.00,-0.0000
1943.00,0.0001
1942.00,0.0001
1941.00,0.0001
1940.00,0.0000
1939.00,-0.0001
1938.00,-0.0003
1937.00,-0.0003
1936.00,-0.0002
1935.00,-0.0001
1934.00,0.0000
1933.00,0.0001
1932.00,0.0001
1931.00,0.0001
1930.00,0.0001
1929.00,0.0002
1928.00,0.0002
1927.00,0.0001
1926.00,0.0001
1925.00,0.0000
1924.00,0.0001
1923.00,0.0002
1922.00,0.0001
1921.00,0.0000
1920.00,-0.0001
1919.00,-0.0002
1918.00,-0.0002
1917.00,-0.0001
1916.00,-0.0001
1915.00,0.0000
1914.00,0.0000
1913.00,0.0000
1912.00,0.0000
1911.00,-0.0000
1910.00,-0.0001
1909.00,-0.0001
1908.00,-0.0001
1907.00,0.0000
1906.00,0.0000
1905.00,0.0000
1904.00,0.0001
1903.00,0.0001
1902.00,0.0000
1901.00,0.0000
1900.00,0.0000
1899.00,0.0000
1898.00,0.0000
1897.00,0.0001
1896.00,0.0001
1895.00,0.0001
1894.00,0.0000
1893.00,-0.0000
1892.00,-0.0000
1891.00,0.0000
1890.00,0.0000
1889.00,0.0000
1888.00,0.0001
1887.00,0.0002
1886.00,0.0003
1885.00,0.0003
1884.00,0.0003
1883.00,0.0003
1882.00,0.0002
1881.00,0.0001
1880.00,0.0001
1879.00,0.0002
1878.00,0.0002
1877.00,0.0002
1876.00,0.0002
1875.00,0.0001
1874.00,0.0001
1873.00,0.0000
1872.00,-0.0000
1871.00,-0.0000
1870.00,-0.0000
1869.00,0.0001
1868.00,0.0002
1867.00,0.0002
1866.00,0.0002
1865.00,0.0001
1864.00,0.0001
1863.00,0.0001
1862.00,0.0001
1861.00,0.0001
1860.00,0.0002
1859.00,0.0002
1858.00,0.0002
1857.00,0.0002
1856.00,0.0002
1855.00,0.0002
1854.00,0.0002
1853.00,0.0002
1852.00,0.0002
1851.00,0.0002
1850.00,0.0002
1849.00,0.0002
1848.00,0.0003
1847.00,0.0003
1846.00,0.0002
1845.00,0.0001
1844.00,0.0001
1843.00,0.0002
1842.00,0.0002
1841.00,0.0003
1840.00,0.0003
1839.00,0.0003
1838.00,0.0003
1837.00,0.0003
1836.00,0.0004
1835.00,0.0004
1834.00,0.0003
1833.00,0.0003
1832.00,0.0003
1831.00,0.0003
1830.00,0.0004
1829.00,0.0004
1828.00,0.0004
1827.00,0.0003
1826.00,0.0003
1825.00,0.0003
1824.00,0.0004
1823.00,0.0004
1822.00,0.0004
1821.00,0.0004
1820.00,0.0004
1819.00,0.0004
1818.00,0.0004
1817.00,0.0005
1816.00,0.0005
1815.00,0.0005
1814.00,0.0004
1813.00,0.0004
1812.00,0.0004
1811.00,0.0004
1810.00,0.0004
1809.00,0.0004
1808.00,0.0005
1807.00,0.0004
1806.00,0.0004
1805.00,0.0004
1804.00,0.0005
1803.00,0.0005
1802.00,0.0006
1801.00,0.0006
1800.00,0.0006
1799.00,0.0006
1798.00,0.0006
1797.00,0.0007
1796.00,0.0007
1795.00,0.0007
1794.00,0.0006
1793.00,0.0006
1792.00,0.0006
1791.00,0.0007
1790.00,0.0007
1789.00,0.0007
1788.00,0.0008
1787.00,0.0008
1786.00,0.0008
1785.00,0.0008
1784.00,0.0008
1783.00,0.0008
1782.00,0.0008
1781.00,0.0009
1780.00,0.0010
1779.00,0.0011
1778.00,0.0012
1777.00,0.0012
1776.00,0.0012
1775.00,0.0011
1774.00,0.0011
1773.00,0.0011
1772.00,0.0012
1771.00,0.0013
1770.00,0.0013
1769.00,0.0013
1768.00,0.0013
1767.00,0.0014
1766.00,0.0014
1765.00,0.0014
1764.00,0.0015
1763.00,0.0015
1762.00,0.0016
1761.00,0.0016
1760.00,0.0017
1759.00,0.0017
1758.00,0.0017
1757.00,0.0018
1756.00,0.0018
1755.00,0.0018
1754.00,0.0018
1753.00,0.0018
1752.00,0.0019
1751.00,0.0020
1750.00,0.0021
1749.00,0.0023
1748.00,0.0024
1747.00,0.0025
1746.00,0.0026
1745.00,0.0026
1744.00,0.0027
1743.00,0.0027
1742.00,0.0027
1741.00,0.0027
1740.00,0.0028
1739.00,0.0029
1738.00,0.0030
1737.00,0.0030
1736.00,0.0030
1735.00,0.0031
1734.00,0.0033
1733.00,0.0035
1732.00,0.0038
1731.00,0.0040
1730.00,0.0041
1729.00,0.0042
1728.00,0.0044
1727.00,0.0046
1726.00,0.0047
1725.00,0.0049
1724.00,0.0052
1723.00,0.0055
1722.00,0.0057
1721.00,0.0059
1720.00,0.0061
1719.00,0.0065
1718.00,0.0069
1717.00,0.0075
1716.00,0.0081
1715.00,0.0088
1714.00,0.0094
1713.00,0.0102
1712.00,0.0112
1711.00,0.0124
1710.00,0.0137
1709.00,0.0152
1708.00,0.0170
1707.00,0.0192
1706.00,0.0216
1705.00,0.0243
1704.00,0.0271
1703.00,0.0299
1702.00,0.0327
1701.00,0.0363
1700.00,0.0406
1699.00,0.0447
1698.00,0.0484
1697.00,0.0521
1696.00,0.0564
1695.00,0.0610
1694.00,0.0654
1693.00,0.0699
1692.00,0.0746
1691.00,0.0799
1690.00,0.0857
1689.00,0.0917
1688.00,0.0978
1687.00,0.1039
1686.00,0.1102
1685.00,0.1175
1684.00,0.1255
1683.00,0.1331
1682.00,0.1398
1681.00,0.1462
1680.00,0.1528
1679.00,0.1592
1678.00,0.1652
1677.00,0.1709
1676.00,0.1768
1675.00,0.1826
1674.00,0.1875
1673.00,0.1916
1672.00,0.1951
1671.00,0.1981
1670.00,0.2004
1669.00,0.2020
1668.00,0.2032
1667.00,0.2039
1666.00,0.2042
1665.00,0.2040
1664.00,0.2034
1663.00,0.2023
1662.00,0.2006
1661.00,0.1986
1660.00,0.1965
1659.00,0.1939
1658.00,0.1908
1657.00,0.1875
1656.00,0.1840
1655.00,0.1794
1654.00,0.1724
1653.00,0.1625
1652.00,0.1533
1651.00,0.1470
1650.00,0.1424
1649.00,0.1375
1648.00,0.1313
1647.00,0.1237
1646.00,0.1157
1645.00,0.1086
1644.00,0.1026
1643.00,0.0970
1642.00,0.0914
1641.00,0.0856
1640.00,0.0799
1639.00,0.0749
1638.00,0.0702
1637.00,0.0654
1636.00,0.0602
1635.00,0.0553
1634.00,0.0517
1633.00,0.0493
1632.00,0.0475
1631.00,0.0460
1630.00,0.0446
1629.00,0.0432
1628.00,0.0419
1627.00,0.0407
1626.00,0.0397
1625.00,0.0387
1624.00,0.0375
1623.00,0.0361
1622.00,0.0347
1621.00,0.0334
1620.00,0.0323
1619.00,0.0311
1618.00,0.0295
1617.00,0.0274
1616.00,0.0252
1615.00,0.0235
1614.00,0.0222
1613.00,0.0210
1612.00,0.0198
1611.00,0.0186
1610.00,0.0174
1609.00,0.0163
1608.00,0.0153
1607.00,0.0144
1606.00,0.0135
1605.00,0.0128
1604.00,0.0120
1603.00,0.0114
1602.00,0.0108
1601.00,0.0103
1600.00,0.0098
1599.00,0.0094
1598.00,0.0089
1597.00,0.0086
1596.00,0.0082
1595.00,0.0079
1594.00,0.0076
1593.00,0.0074
1592.00,0.0071
1591.00,0.0069
1590.00,0.0066
1589.00,0.0064
1588.00,0.0062
1587.00,0.0061
1586.00,0.0059
1585.00,0.0058
1584.00,0.0058
1583.00,0.0058
1582.00,0.0058
1581.00,0.0059
1580.00,0.0058
1579.00,0.0058
1578.00,0.0056
1577.00,0.0054
1576.00,0.0051
1575.00,0.0049
1574.00,0.0048
1573.00,0.0047
1572.00,0.0046
1571.00,0.0045
1570.00,0.0044
1569.00,0.0044
1568.00,0.0044
1567.00,0.0044
1566.00,0.0044
1565.00,0.0045
1564.00,0.0047
1563.00,0.0048
1562.00,0.0048
1561.00,0.0049
1560.00,0.0049
1559.00,0.0049
1558.00,0.0048
1557.00,0.0047
1556.00,0.0046
1555.00,0.0045
1554.00,0.0045
1553.00,0.0044
1552.00,0.0044
1551.00,0.0044
1550.00,0.0044
1549.00,0.0044
1548.00,0.0044
1547.00,0.0044
1546.00,0.0044
1545.00,0.0044
1544.00,0.0045
1543.00,0.0045
1542.00,0.0045
1541.00,0.0046
1540.00,0.0046
1539.00,0.0046
1538.00,0.0047
1537.00,0.0048
1536.00,0.0049
1535.00,0.0050
1534.00,0.0052
1533.00,0.0054
1532.00,0.0055
1531.00,0.0057
1530.00,0.0059
1529.00,0.0061
1528.00,0.0064
1527.00,0.0067
1526.00,0.0070
1525.00,0.0073
1524.00,0.0077
1523.00,0.0082
1522.00,0.0088
1521.00,0.0094
1520.00,0.0101
1519.00,0.0109
1518.00,0.0118
1517.00,0.0128
1516.00,0.0140
1515.00,0.0152
1514.00,0.0164
1513.00,0.0178
1512.00,0.0194
1511.00,0.0211
1510.00,0.0229
1509.00,0.0247
1508.00,0.0266
1507.00,0.0287
1506.00,0.0308
1505.00,0.0329
1504.00,0.0349
1503.00,0.0368
1502.00,0.0386
1501.00,0.0405
1500.00,0.0422
1499.00,0.0438
1498.00,0.0452
1497.00,0.0462
1496.00,0.0467
1495.00,0.0468
1494.00,0.0466
1493.00,0.0461
1492.00,0.0451
1491.00,0.0433
1490.00,0.0409
1489.00,0.0381
1488.00,0.0352
1487.00,0.0325
1486.00,0.0299
1485.00,0.0277
1484.00,0.0257
1483.00,0.0239
1482.00,0.0224
1481.00,0.0210
1480.00,0.0200
1479.00,0.0192
1478.00,0.0186
1477.00,0.0182
1476.00,0.0179
1475.00,0.0178
1474.00,0.0179
1473.00,0.0183
1472.00,0.0190
1471.00,0.0201
1470.00,0.0215
1469.00,0.0232
1468.00,0.0254
1467.00,0.0280
1466.00,0.0311
1465.00,0.0346
1464.00,0.0383
1463.00,0.0416
1462.00,0.0443
1461.00,0.0463
1460.00,0.0474
1459.00,0.0474
1458.00,0.0459
1457.00,0.0431
1456.00,0.0399
1455.00,0.0375
1454.00,0.0357
1453.00,0.0345
1452.00,0.0336
1451.00,0.0332
1450.00,0.0335
1449.00,0.0345
1448.00,0.0361
1447.00,0.0381
1446.00,0.0401
1445.00,0.0421
1444.00,0.0441
1443.00,0.0463
1442.00,0.0489
1441.00,0.0518
1440.00,0.0550
1439.00,0.0583
1438.00,0.0619
1437.00,0.0657
1436.00,0.0695
1435.00,0.0726
1434.00,0.0750
1433.00,0.0770
1432.00,0.0785
1431.00,0.0794
1430.00,0.0801
1429.00,0.0811
1428.00,0.0826
1427.00,0.0846
1426.00,0.0873
1425.00,0.0904
1424.00,0.0937
1423.00,0.0966
1422.00,0.0990
1421.00,0.1007
1420.00,0.1009
1419.00,0.0989
1418.00,0.0943
1417.00,0.0880
1416.00,0.0804
1415.00,0.0720
1414.00,0.0637
1413.00,0.0561
1412.00,0.0493
1411.00,0.0435
1410.00,0.0387
1409.00,0.0348
1408.00,0.0317
1407.00,0.0291
1406.00,0.0269
1405.00,0.0250
1404.00,0.0232
1403.00,0.0216
1402.00,0.0202
1401.00,0.0191
1400.00,0.0180
1399.00,0.0170
1398.00,0.0163
1397.00,0.0157
1396.00,0.0153
1395.00,0.0150
1394.00,0.0149
1393.00,0.0151
1392.00,0.0154
1391.00,0.0160
1390.00,0.0167
1389.00,0.0176
1388.00,0.0188
1387.00,0.0202
1386.00,0.0218
1385.00,0.0234
1384.00,0.0248
1383.00,0.0260
1382.00,0.0268
1381.00,0.0273
1380.00,0.0273
1379.00,0.0271
1378.00,0.0266
1377.00,0.0262
1376.00,0.0257
1375.00,0.0253
1374.00,0.0249
1373.00,0.0246
1372.00,0.0245
1371.00,0.0244
1370.00,0.0244
1369.00,0.0244
1368.00,0.0244
1367.00,0.0242
1366.00,0.0239
1365.00,0.0233
1364.00,0.0224
1363.00,0.0210
1362.00,0.0193
1361.00,0.0176
1360.00,0.0160
1359.00,0.0147
1358.00,0.0136
1357.00,0.0127
1356.00,0.0120
1355.00,0.0114
1354.00,0.0110
1353.00,0.0107
1352.00,0.0104
1351.00,0.0102
1350.00,0.0100
1349.00,0.0099
1348.00,0.0098
1347.00,0.0098
1346.00,0.0099
1345.00,0.0100
1344.00,0.0102
1343.00,0.0105
1342.00,0.0109
1341.00,0.0114
1340.00,0.0120
1339.00,0.0126
1338.00,0.0132
1337.00,0.0138
1336.00,0.0143
1335.00,0.0149
1334.00,0.0155
1333.00,0.0162
1332.00,0.0168
1331.00,0.0175
1330.00,0.0182
1329.00,0.0190
1328.00,0.0197
1327.00,0.0204
1326.00,0.0213
1325.00,0.0221
1324.00,0.0231
1323.00,0.0241
1322.00,0.0252
1321.00,0.0263
1320.00,0.0274
1319.00,0.0285
1318.00,0.0296
1317.00,0.0305
1316.00,0.0312
1315.00,0.0318
1314.00,0.0322
1313.00,0.0325
1312.00,0.0328
1311.00,0.0331
1310.00,0.0337
1309.00,0.0343
1308.00,0.0351
1307.00,0.0358
1306.00,0.0364
1305.00,0.0368
1304.00,0.0371
1303.00,0.0372
1302.00,0.0373
1301.00,0.0373
1300.00,0.0377
1299.00,0.0385
1298.00,0.0400
1297.00,0.0424
1296.00,0.0459
1295.00,0.0505
1294.00,0.0562
1293.00,0.0628
1292.00,0.0701
1291.00,0.0779
1290.00,0.0856
1289.00,0.0928
1288.00,0.0991
1287.00,0.1039
1286.00,0.1072
1285.00,0.1088
1284.00,0.1091
1283.00,0.1085
1282.00,0.1077
1281.00,0.1071
1280.00,0.1072
1279.00,0.1082
1278.00,0.1102
1277.00,0.1128
1276.00,0.1157
1275.00,0.1185
1274.00,0.1206
1273.00,0.1218
1272.00,0.1218
1271.00,0.1201
1270.00,0.1170
1269.00,0.1124
1268.00,0.1068
1267.00,0.1004
1266.00,0.0936
1265.00,0.0867
1264.00,0.0801
1263.00,0.0738
1262.00,0.0679
1261.00,0.0624
1260.00,0.0573
1259.00,0.0527
1258.00,0.0485
1257.00,0.0449
1256.00,0.0419
1255.00,0.0394
1254.00,0.0376
1253.00,0.0362
1252.00,0.0350
1251.00,0.0340
1250.00,0.0330
1249.00,0.0319
1248.00,0.0308
1247.00,0.0296
1246.00,0.0285
1245.00,0.0275
1244.00,0.0268
1243.00,0.0262
1242.00,0.0259
1241.00,0.0258
1240.00,0.0258
1239.00,0.0260
1238.00,0.0263
1237.00,0.0268
1236.00,0.0274
1235.00,0.0281
1234.00,0.0288
1233.00,0.0296
1232.00,0.0304
1231.00,0.0312
1230.00,0.0321
1229.00,0.0331
1228.00,0.0341
1227.00,0.0352
1226.00,0.0365
1225.00,0.0380
1224.00,0.0396
1223.00,0.0414
1222.00,0.0434
1221.00,0.0456
1220.00,0.0479
1219.00,0.0503
1218.00,0.0529
1217.00,0.0556
1216.00,0.0584
1215.00,0.0612
1214.00,0.0642
1213.00,0.0671
1212.00,0.0699
1211.00,0.0724
1210.00,0.0746
1209.00,0.0763
1208.00,0.0774
1207.00,0.0780
1206.00,0.0778
1205.00,0.0771
1204.00,0.0757
1203.00,0.0736
1202.00,0.0709
1201.00,0.0677
1200.00,0.0641
1199.00,0.0602
1198.00,0.0562
1197.00,0.0524
1196.00,0.0488
1195.00,0.0456
1194.00,0.0430
1193.00,0.0410
1192.00,0.0395
1191.00,0.0384
1190.00,0.0376
1189.00,0.0370
1188.00,0.0364
1187.00,0.0358
1186.00,0.0350
1185.00,0.0341
1184.00,0.0332
1183.00,0.0322
1182.00,0.0313
1181.00,0.0304
1180.00,0.0297
1179.00,0.0290
1178.00,0.0286
1177.00,0.0285
1176.00,0.0285
1175.00,0.0288
1174.00,0.0292
1173.00,0.0297
1172.00,0.0301
1171.00,0.0302
1170.00,0.0299
1169.00,0.0293
1168.00,0.0283
1167.00,0.0271
1166.00,0.0258
1165.00,0.0244
1164.00,0.0230
1163.00,0.0218
1162.00,0.0207
1161.00,0.0197
1160.00,0.0188
1159.00,0.0181
1158.00,0.0175
1157.00,0.0171
1156.00,0.0168
1155.00,0.0166
1154.00,0.0164
1153.00,0.0163
1152.00,0.0162
1151.00,0.0162
1150.00,0.0165
1149.00,0.0171
1148.00,0.0181
1147.00,0.0194
1146.00,0.0211
1145.00,0.0230
1144.00,0.0252
1143.00,0.0275
1142.00,0.0300
1141.00,0.0322
1140.00,0.0340
1139.00,0.0350
1138.00,0.0350
1137.00,0.0341
1136.00,0.0325
1135.00,0.0306
1134.00,0.0285
1133.00,0.0266
1132.00,0.0249
1131.00,0.0235
1130.00,0.0226
1129.00,0.0220
1128.00,0.0219
1127.00,0.0221
1126.00,0.0229
1125.00,0.0241
1124.00,0.0258
1123.00,0.0280
1122.00,0.0305
1121.00,0.0334
1120.00,0.0366
1119.00,0.0398
1118.00,0.0429
1117.00,0.0456
1116.00,0.0476
1115.00,0.0485
1114.00,0.0485
1113.00,0.0475
1112.00,0.0459
1111.00,0.0439
1110.00,0.0419
1109.00,0.0402
1108.00,0.0392
1107.00,0.0391
1106.00,0.0400
1105.00,0.0418
1104.00,0.0444
1103.00,0.0476
1102.00,0.0509
1101.00,0.0540
1100.00,0.0565
1099.00,0.0581
1098.00,0.0587
1097.00,0.0582
1096.00,0.0569
1095.00,0.0550
1094.00,0.0526
1093.00,0.0499
1092.00,0.0471
1091.00,0.0444
1090.00,0.0416
1089.00,0.0388
1088.00,0.0361
1087.00,0.0334
1086.00,0.0310
1085.00,0.0287
1084.00,0.0268
1083.00,0.0251
1082.00,0.0238
1081.00,0.0227
1080.00,0.0220
1079.00,0.0214
1078.00,0.0211
1077.00,0.0209
1076.00,0.0208
1075.00,0.0209
1074.00,0.0211
1073.00,0.0215
1072.00,0.0221
1071.00,0.0229
1070.00,0.0241
1069.00,0.0256
1068.00,0.0274
1067.00,0.0296
1066.00,0.0322
1065.00,0.0351
1064.00,0.0382
1063.00,0.0413
1062.00,0.0443
1061.00,0.0470
1060.00,0.0493
1059.00,0.0511
1058.00,0.0525
1057.00,0.0536
1056.00,0.0542
1055.00,0.0545
1054.00,0.0545
1053.00,0.0543
1052.00,0.0540
1051.00,0.0538
1050.00,0.0537
1049.00,0.0536
1048.00,0.0537
1047.00,0.0540
1046.00,0.0545
1045.00,0.0553
1044.00,0.0560
1043.00,0.0563
1042.00,0.0559
1041.00,0.0549
1040.00,0.0535
1039.00,0.0519
1038.00,0.0506
1037.00,0.0496
1036.00,0.0490
1035.00,0.0488
1034.00,0.0489
1033.00,0.0491
1032.00,0.0495
1031.00,0.0501
1030.00,0.0508
1029.00,0.0516
1028.00,0.0526
1027.00,0.0537
1026.00,0.0548
1025.00,0.0559
1024.00,0.0567
1023.00,0.0573
1022.00,0.0577
1021.00,0.0577
1020.00,0.0574
1019.00,0.0567
1018.00,0.0555
1017.00,0.0540
1016.00,0.0520
1015.00,0.0497
1014.00,0.0471
1013.00,0.0442
1012.00,0.0412
1011.00,0.0382
1010.00,0.0354
1009.00,0.0328
1008.00,0.0307
1007.00,0.0289
1006.00,0.0276
1005.00,0.0267
1004.00,0.0260
1003.00,0.0254
1002.00,0.0248
1001.00,0.0239
1000.00,0.0229
999.00,0.0216
998.00,0.0203
997.00,0.0191
996.00,0.0179
995.00,0.0169
994.00,0.0160
993.00,0.0152
992.00,0.0144
991.00,0.0137
990.00,0.0132
989.00,0.0128
988.00,0.0124
987.00,0.0122
986.00,0.0119
985.00,0.0117
984.00,0.0116
983.00,0.0114
982.00,0.0113
981.00,0.0111
980.00,0.0110
979.00,0.0109
978.00,0.0108
977.00,0.0107
976.00,0.0106
975.00,0.0105
974.00,0.0104
973.00,0.0102
972.00,0.0100
971.00,0.0099
970.00,0.0097
969.00,0.0096
968.00,0.0094
967.00,0.0094
966.00,0.0095
965.00,0.0098
964.00,0.0101
963.00,0.0105
962.00,0.0110
961.00,0.0117
960.00,0.0124
959.00,0.0131
958.00,0.0139
957.00,0.0145
956.00,0.0150
955.00,0.0153
954.00,0.0154
953.00,0.0153
952.00,0.0150
951.00,0.0146
950.00,0.0140
949.00,0.0134
948.00,0.0127
947.00,0.0119
946.00,0.0113
945.00,0.0106
944.00,0.0100
943.00,0.0096
942.00,0.0093
941.00,0.0091
940.00,0.0092
939.00,0.0094
938.00,0.0098
937.00,0.0104
936.00,0.0110
935.00,0.0117
934.00,0.0123
933.00,0.0127
932.00,0.0129
931.00,0.0128
930.00,0.0125
929.00,0.0121
928.00,0.0117
927.00,0.0112
926.00,0.0108
925.00,0.0103
924.00,0.0098
923.00,0.0093
922.00,0.0089
921.00,0.0084
920.00,0.0080
919.00,0.0077
918.00,0.0074
917.00,0.0071
916.00,0.0069
915.00,0.0068
914.00,0.0067
913.00,0.0066
912.00,0.0065
911.00,0.0065
910.00,0.0065
909.00,0.0065
908.00,0.0066
907.00,0.0067
906.00,0.0069
905.00,0.0071
904.00,0.0073
903.00,0.0075
902.00,0.0078
901.00,0.0081
900.00,0.0084
899.00,0.0087
898.00,0.0089
897.00,0.0090
896.00,0.0091
895.00,0.0091
894.00,0.0090
893.00,0.0089
892.00,0.0086
891.00,0.0083
890.00,0.0080
889.00,0.0077
888.00,0.0074
887.00,0.0072
886.00,0.0069
885.00,0.0067
884.00,0.0066
883.00,0.0065
882.00,0.0063
881.00,0.0062
880.00,0.0061
879.00,0.0061
878.00,0.0061
877.00,0.0061
876.00,0.0062
875.00,0.0063
874.00,0.0065
873.00,0.0067
872.00,0.0070
871.00,0.0073
870.00,0.0077
869.00,0.0082
868.00,0.0091
867.00,0.0101
866.00,0.0114
865.00,0.0127
864.00,0.0137
863.00,0.0143
862.00,0.0144
861.00,0.0141
860.00,0.0138
859.00,0.0137
858.00,0.0139
857.00,0.0144
856.00,0.0150
855.00,0.0155
854.00,0.0159
853.00,0.0162
852.00,0.0164
851.00,0.0166
850.00,0.0168
849.00,0.0170
848.00,0.0172
847.00,0.0173
846.00,0.0173
845.00,0.0173
844.00,0.0172
843.00,0.0170
842.00,0.0167
841.00,0.0163
840.00,0.0159
839.00,0.0155
838.00,0.0150
837.00,0.0145
836.00,0.0140
835.00,0.0135
834.00,0.0129
833.00,0.0124
832.00,0.0119
831.00,0.0114
830.00,0.0109
829.00,0.0105
828.00,0.0102
827.00,0.0101
826.00,0.0100
825.00,0.0100
824.00,0.0100
823.00,0.0098
822.00,0.0096
821.00,0.0094
820.00,0.0092
819.00,0.0090
818.00,0.0089
817.00,0.0087
816.00,0.0086
815.00,0.0085
814.00,0.0084
813.00,0.0084
812.00,0.0085
811.00,0.0086
810.00,0.0089
809.00,0.0093
808.00,0.0099
807.00,0.0108
806.00,0.0120
805.00,0.0136
804.00,0.0156
803.00,0.0179
802.00,0.0201
801.00,0.0217
800.00,0.0225
799.00,0.0224
798.00,0.0219
797.00,0.0211
796.00,0.0202
795.00,0.0192
794.00,0.0182
793.00,0.0174
792.00,0.0168
791.00,0.0163
790.00,0.0159
789.00,0.0154
788.00,0.0150
787.00,0.0146
786.00,0.0146
785.00,0.0148
784.00,0.0154
783.00,0.0163
782.00,0.0174
781.00,0.0183
780.00,0.0190
779.00,0.0193
778.00,0.0192
777.00,0.0189
776.00,0.0183
775.00,0.0177
774.00,0.0173
773.00,0.0172
772.00,0.0174
771.00,0.0175
770.00,0.0175
769.00,0.0173
768.00,0.0168
767.00,0.0162
766.00,0.0157
765.00,0.0152
764.00,0.0149
763.00,0.0148
762.00,0.0148
761.00,0.0150
760.00,0.0152
759.00,0.0154
758.00,0.0156
757.00,0.0159
756.00,0.0161
755.00,0.0163
754.00,0.0165
753.00,0.0167
752.00,0.0170
751.00,0.0172
750.00,0.0174
749.00,0.0177
748.00,0.0181
747.00,0.0185
746.00,0.0189
745.00,0.0194
744.00,0.0200
743.00,0.0208
742.00,0.0215
741.00,0.0223
740.00,0.0232
739.00,0.0246
738.00,0.0268
737.00,0.0298
736.00,0.0331
735.00,0.0361
734.00,0.0379
733.00,0.0384
732.00,0.0377
731.00,0.0366
730.00,0.0356
729.00,0.0348
728.00,0.0341
727.00,0.0331
726.00,0.0316
725.00,0.0295
724.00,0.0269
723.00,0.0243
722.00,0.0220
721.00,0.0199
720.00,0.0182
719.00,0.0168
718.00,0.0158
717.00,0.0149
716.00,0.0142
715.00,0.0137
714.00,0.0132
713.00,0.0129
712.00,0.0126
711.00,0.0125
710.00,0.0125
709.00,0.0126
708.00,0.0128
707.00,0.0131
706.00,0.0134
705.00,0.0138
704.00,0.0142
703.00,0.0146
702.00,0.0150
701.00,0.0153
700.00,0.0156
699.00,0.0158
698.00,0.0159
697.00,0.0159
696.00,0.0158
695.00,0.0157
694.00,0.0155
693.00,0.0153
692.00,0.0150
691.00,0.0147
690.00,0.0145
689.00,0.0144
688.00,0.0145
687.00,0.0146
686.00,0.0148
685.00,0.0150
684.00,0.0152
683.00,0.0153
682.00,0.0154
681.00,0.0155
680.00,0.0158
679.00,0.0161
678.00,0.0165
677.00,0.0170
676.00,0.0176
675.00,0.0184
674.00,0.0194
673.00,0.0206
672.00,0.0219
671.00,0.0232
670.00,0.0246
669.00,0.0257
668.00,0.0266
667.00,0.0271
666.00,0.0275
665.00,0.0278
664.00,0.0280
663.00,0.0282
662.00,0.0285
661.00,0.0290
660.00,0.0295
659.00,0.0302
658.00,0.0308
657.00,0.0314
656.00,0.0320
655.00,0.0328
654.00,0.0336
653.00,0.0344
652.00,0.0351
651.00,0.0355
650.00,0.0359
649.00,0.0360
648.00,0.0361
647.00,0.0359
646.00,0.0356
645.00,0.0351
644.00,0.0344
643.00,0.0336
642.00,0.0327
641.00,0.0317
640.00,0.0306
639.00,0.0295
638.00,0.0286
637.00,0.0277
636.00,0.0269
635.00,0.0262
634.00,0.0256
633.00,0.0250
632.00,0.0245
631.00,0.0240
630.00,0.0235
629.00,0.0230
628.00,0.0226
627.00,0.0223
626.00,0.0221
625.00,0.0221
624.00,0.0221
623.00,0.0221
622.00,0.0223
621.00,0.0226
620.00,0.0228
619.00,0.0230
618.00,0.0232
617.00,0.0235
616.00,0.0237
615.00,0.0239
614.00,0.0240
613.00,0.0242
612.00,0.0245
611.00,0.0249
610.00,0.0251
609.00,0.0249
608.00,0.0244
607.00,0.0238
606.00,0.0234
605.00,0.0232
604.00,0.0232
603.00,0.0233
602.00,0.0235
601.00,0.0238
600.00,0.0241
599.00,0.0245
598.00,0.0249
597.00,0.0253
596.00,0.0258
595.00,0.0264
594.00,0.0272
593.00,0.0281
592.00,0.0290
591.00,0.0297
590.00,0.0303
589.00,0.0309
588.00,0.0315
587.00,0.0320
586.00,0.0326
585.00,0.0333
584.00,0.0340
583.00,0.0348
582.00,0.0354
581.00,0.0361
580.00,0.0368
579.00,0.0376
578.00,0.0384
577.00,0.0393
576.00,0.0400
575.00,0.0406
574.00,0.0413
573.00,0.0420
572.00,0.0426
571.00,0.0430
570.00,0.0431
569.00,0.0428
568.00,0.0425
567.00,0.0420
566.00,0.0414
565.00,0.0406
564.00,0.0399
563.00,0.0392
562.00,0.0386
561.00,0.0380
560.00,0.0374
559.00,0.0368
558.00,0.0362
557.00,0.0355
556.00,0.0347
555.00,0.0338
554.00,0.0329
553.00,0.0320
552.00,0.0312
551.00,0.0305
550.00,0.0299
549.00,0.0295
548.00,0.0291
547.00,0.0287
546.00,0.0283
545.00,0.0279
544.00,0.0276
543.00,0.0274
542.00,0.0274
541.00,0.0274
540.00,0.0276
539.00,0.0277
538.00,0.0277
537.00,0.0275
536.00,0.0270
535.00,0.0264
534.00,0.0256
533.00,0.0250
532.00,0.0246
531.00,0.0243
530.00,0.0242
529.00,0.0241
528.00,0.0239
527.00,0.0237
526.00,0.0234
525.00,0.0233
524.00,0.0232
523.00,0.0232
522.00,0.0232
521.00,0.0230
520.00,0.0228
519.00,0.0226
518.00,0.0225
517.00,0.0225
516.00,0.0224
515.00,0.0221
514.00,0.0220
513.00,0.0219
512.00,0.0219
511.00,0.0219
510.00,0.0220
509.00,0.0220
508.00,0.0220
507.00,0.0220
506.00,0.0221
505.00,0.0222
504.00,0.0224
503.00,0.0225
502.00,0.0226
501.00,0.0225
500.00,0.0224
499.00,0.0225
498.00,0.0227
497.00,0.0229
496.00,0.0229
495.00,0.0228
494.00,0.0228
493.00,0.0229
492.00,0.0232
491.00,0.0235
490.00,0.0236
489.00,0.0235
488.00,0.0234
487.00,0.0234
486.00,0.0236
485.00,0.0236
484.00,0.0235
483.00,0.0232
482.00,0.0231
481.00,0.0233
480.00,0.0235
479.00,0.0235
478.00,0.0233
477.00,0.0229
476.00,0.0226
475.00,0.0226
474.00,0.0228
473.00,0.0233
472.00,0.0242
471.00,0.0253
470.00,0.0265
469.00,0.0274
468.00,0.0279
467.00,0.0281
466.00,0.0281
465.00,0.0279
464.00,0.0278
463.00,0.0278
462.00,0.0281
461.00,0.0287
460.00,0.0293
459.00,0.0297
458.00,0.0295
457.00,0.0287
456.00,0.0275
455.00,0.0263
454.00,0.0251
453.00,0.0239
452.00,0.0228
451.00,0.0221
450.00,0.0217
449.00,0.0214
448.00,0.0209
447.00,0.0205
446.00,0.0205
445.00,0.0207
444.00,0.0210
443.00,0.0209
442.00,0.0205
441.00,0.0200
440.00,0.0196
439.00,0.0194
438.00,0.0195
437.00,0.0196
436.00,0.0194
435.00,0.0190
434.00,0.0188
433.00,0.0189
432.00,0.0193
431.00,0.0196
430.00,0.0197
429.00,0.0199
428.00,0.0200
427.00,0.0201
426.00,0.0200
425.00,0.0199
424.00,0.0197
423.00,0.0196
422.00,0.0197
421.00,0.0198
420.00,0.0197
419.00,0.0195
418.00,0.0195
417.00,0.0197
416.00,0.0200
415.00,0.0203
414.00,0.0206
413.00,0.0205
412.00,0.0199
411.00,0.0192
410.00,0.0190
409.00,0.0197
408.00,0.0206
407.00,0.0209
406.00,0.0203
405.00,0.0190
404.00,0.0181
403.00,0.0185
402.00,0.0203
401.00,0.0224
400.00,0.0241
