Created as New Dataset,Sample 505 By YargerLab Date Monday, February 02 2026
cm-1,A
4000.00,0.0085
3999.00,0.0085
3998.00,0.0085
3997.00,0.0085
3996.00,0.0085
3995.00,0.0085
3994.00,0.0085
3993.00,0.0085
3992.00,0.0085
3991.00,0.0085
3990.00,0.0085
3989.00,0.0085
3988.00,0.0085
3987.00,0.0085
3986.00,0.0085
3985.00,0.0084
3984.00,0.0084
3983.00,0.0084
3982.00,0.0084
3981.00,0.0084
3980.00,0.0084
3979.00,0.0084
3978.00,0.0084
3977.00,0.0084
3976.00,0.0084
3975.00,0.0084
3974.00,0.0084
3973.00,0.0084
3972.00,0.0084
3971.00,0.0084
3970.00,0.0084
3969.00,0.0084
3968.00,0.0084
3967.00,0.0084
3966.00,0.0084
3965.00,0.0084
3964.00,0.0084
3963.00,0.0083
3962.00,0.0084
3961.00,0.0084
3960.00,0.0084
3959.00,0.0084
3958.00,0.0084
3957.00,0.0084
3956.00,0.0084
3955.00,0.0084
3954.00,0.0083
3953.00,0.0083
3952.00,0.0083
3951.00,0.0083
3950.00,0.0083
3949.00,0.0083
3948.00,0.0083
3947.00,0.0083
3946.00,0.0083
3945.00,0.0083
3944.00,0.0083
3943.00,0.0083
3942.00,0.0083
3941.00,0.0083
3940.00,0.0083
3939.00,0.0083
3938.00,0.0083
3937.00,0.0083
3936.00,0.0083
3935.00,0.0083
3934.00,0.0083
3933.00,0.0083
3932.00,0.0083
3931.00,0.0083
3930.00,0.0083
3929.00,0.0082
3928.00,0.0082
3927.00,0.0082
3926.00,0.0082
3925.00,0.0082
3924.00,0.0082
3923.00,0.0082
3922.00,0.0082
3921.00,0.0082
3920.00,0.0082
3919.00,0.0082
3918.00,0.0082
3917.00,0.0082
3916.00,0.0082
3915.00,0.0082
3914.00,0.0082
3913.00,0.0082
3912.00,0.0082
3911.00,0.0082
3910.00,0.0082
3909.00,0.0082
3908.00,0.0082
3907.00,0.0082
3906.00,0.0082
3905.00,0.0082
3904.00,0.0082
3903.00,0.0082
3902.00,0.0082
3901.00,0.0082
3900.00,0.0082
3899.00,0.0082
3898.00,0.0082
3897.00,0.0082
3896.00,0.0082
3895.00,0.0082
3894.00,0.0082
3893.00,0.0082
3892.00,0.0082
3891.00,0.0082
3890.00,0.0082
3889.00,0.0082
3888.00,0.0082
3887.00,0.0082
3886.00,0.0082
3885.00,0.0082
3884.00,0.0082
3883.00,0.0082
3882.00,0.0082
3881.00,0.0082
3880.00,0.0082
3879.00,0.0082
3878.00,0.0082
3877.00,0.0081
3876.00,0.0081
3875.00,0.0081
3874.00,0.0081
3873.00,0.0081
3872.00,0.0081
3871.00,0.0081
3870.00,0.0081
3869.00,0.0081
3868.00,0.0081
3867.00,0.0081
3866.00,0.0081
3865.00,0.0081
3864.00,0.0081
3863.00,0.0081
3862.00,0.0081
3861.00,0.0081
3860.00,0.0081
3859.00,0.0081
3858.00,0.0081
3857.00,0.0081
3856.00,0.0081
3855.00,0.0080
3854.00,0.0080
3853.00,0.0081
3852.00,0.0080
3851.00,0.0080
3850.00,0.0080
3849.00,0.0080
3848.00,0.0080
3847.00,0.0080
3846.00,0.0080
3845.00,0.0080
3844.00,0.0080
3843.00,0.0080
3842.00,0.0080
3841.00,0.0080
3840.00,0.0080
3839.00,0.0080
3838.00,0.0080
3837.00,0.0080
3836.00,0.0080
3835.00,0.0080
3834.00,0.0080
3833.00,0.0080
3832.00,0.0080
3831.00,0.0080
3830.00,0.0080
3829.00,0.0080
3828.00,0.0080
3827.00,0.0080
3826.00,0.0080
3825.00,0.0080
3824.00,0.0080
3823.00,0.0080
3822.00,0.0080
3821.00,0.0080
3820.00,0.0080
3819.00,0.0080
3818.00,0.0080
3817.00,0.0080
3816.00,0.0081
3815.00,0.0081
3814.00,0.0081
3813.00,0.0081
3812.00,0.0081
3811.00,0.0081
3810.00,0.0081
3809.00,0.0081
3808.00,0.0080
3807.00,0.0080
3806.00,0.0080
3805.00,0.0080
3804.00,0.0080
3803.00,0.0079
3802.00,0.0079
3801.00,0.0079
3800.00,0.0079
3799.00,0.0079
3798.00,0.0080
3797.00,0.0080
3796.00,0.0080
3795.00,0.0080
3794.00,0.0080
3793.00,0.0080
3792.00,0.0080
3791.00,0.0080
3790.00,0.0080
3789.00,0.0080
3788.00,0.0081
3787.00,0.0081
3786.00,0.0080
3785.00,0.0080
3784.00,0.0080
3783.00,0.0080
3782.00,0.0080
3781.00,0.0080
3780.00,0.0080
3779.00,0.0080
3778.00,0.0080
3777.00,0.0080
3776.00,0.0080
3775.00,0.0080
3774.00,0.0080
3773.00,0.0080
3772.00,0.0080
3771.00,0.0080
3770.00,0.0080
3769.00,0.0080
3768.00,0.0080
3767.00,0.0079
3766.00,0.0079
3765.00,0.0079
3764.00,0.0079
3763.00,0.0079
3762.00,0.0079
3761.00,0.0079
3760.00,0.0079
3759.00,0.0079
3758.00,0.0079
3757.00,0.0079
3756.00,0.0079
3755.00,0.0079
3754.00,0.0079
3753.00,0.0080
3752.00,0.0080
3751.00,0.0080
3750.00,0.0080
3749.00,0.0079
3748.00,0.0079
3747.00,0.0079
3746.00,0.0079
3745.00,0.0079
3744.00,0.0079
3743.00,0.0079
3742.00,0.0079
3741.00,0.0079
3740.00,0.0079
3739.00,0.0079
3738.00,0.0079
3737.00,0.0079
3736.00,0.0079
3735.00,0.0078
3734.00,0.0078
3733.00,0.0078
3732.00,0.0078
3731.00,0.0078
3730.00,0.0078
3729.00,0.0079
3728.00,0.0079
3727.00,0.0079
3726.00,0.0079
3725.00,0.0079
3724.00,0.0078
3723.00,0.0078
3722.00,0.0078
3721.00,0.0078
3720.00,0.0078
3719.00,0.0078
3718.00,0.0078
3717.00,0.0078
3716.00,0.0078
3715.00,0.0078
3714.00,0.0078
3713.00,0.0078
3712.00,0.0078
3711.00,0.0077
3710.00,0.0077
3709.00,0.0077
3708.00,0.0077
3707.00,0.0077
3706.00,0.0078
3705.00,0.0078
3704.00,0.0078
3703.00,0.0078
3702.00,0.0078
3701.00,0.0078
3700.00,0.0078
3699.00,0.0078
3698.00,0.0078
3697.00,0.0078
3696.00,0.0078
3695.00,0.0078
3694.00,0.0078
3693.00,0.0078
3692.00,0.0079
3691.00,0.0079
3690.00,0.0079
3689.00,0.0080
3688.00,0.0081
3687.00,0.0081
3686.00,0.0081
3685.00,0.0081
3684.00,0.0081
3683.00,0.0082
3682.00,0.0082
3681.00,0.0082
3680.00,0.0083
3679.00,0.0083
3678.00,0.0084
3677.00,0.0084
3676.00,0.0084
3675.00,0.0084
3674.00,0.0085
3673.00,0.0085
3672.00,0.0085
3671.00,0.0086
3670.00,0.0086
3669.00,0.0087
3668.00,0.0088
3667.00,0.0088
3666.00,0.0088
3665.00,0.0089
3664.00,0.0089
3663.00,0.0089
3662.00,0.0090
3661.00,0.0091
3660.00,0.0091
3659.00,0.0092
3658.00,0.0092
3657.00,0.0092
3656.00,0.0092
3655.00,0.0093
3654.00,0.0093
3653.00,0.0094
3652.00,0.0094
3651.00,0.0094
3650.00,0.0095
3649.00,0.0095
3648.00,0.0095
3647.00,0.0096
3646.00,0.0096
3645.00,0.0097
3644.00,0.0098
3643.00,0.0099
3642.00,0.0099
3641.00,0.0100
3640.00,0.0101
3639.00,0.0101
3638.00,0.0102
3637.00,0.0103
3636.00,0.0104
3635.00,0.0105
3634.00,0.0106
3633.00,0.0106
3632.00,0.0107
3631.00,0.0108
3630.00,0.0109
3629.00,0.0109
3628.00,0.0110
3627.00,0.0111
3626.00,0.0112
3625.00,0.0113
3624.00,0.0114
3623.00,0.0115
3622.00,0.0116
3621.00,0.0117
3620.00,0.0118
3619.00,0.0119
3618.00,0.0121
3617.00,0.0122
3616.00,0.0124
3615.00,0.0125
3614.00,0.0127
3613.00,0.0128
3612.00,0.0129
3611.00,0.0130
3610.00,0.0131
3609.00,0.0132
3608.00,0.0133
3607.00,0.0134
3606.00,0.0136
3605.00,0.0137
3604.00,0.0138
3603.00,0.0140
3602.00,0.0141
3601.00,0.0143
3600.00,0.0145
3599.00,0.0146
3598.00,0.0147
3597.00,0.0149
3596.00,0.0150
3595.00,0.0151
3594.00,0.0153
3593.00,0.0154
3592.00,0.0156
3591.00,0.0158
3590.00,0.0159
3589.00,0.0161
3588.00,0.0163
3587.00,0.0164
3586.00,0.0166
3585.00,0.0167
3584.00,0.0169
3583.00,0.0170
3582.00,0.0172
3581.00,0.0174
3580.00,0.0175
3579.00,0.0176
3578.00,0.0178
3577.00,0.0179
3576.00,0.0181
3575.00,0.0183
3574.00,0.0184
3573.00,0.0186
3572.00,0.0188
3571.00,0.0190
3570.00,0.0192
3569.00,0.0193
3568.00,0.0195
3567.00,0.0196
3566.00,0.0198
3565.00,0.0199
3564.00,0.0201
3563.00,0.0202
3562.00,0.0204
3561.00,0.0206
3560.00,0.0207
3559.00,0.0209
3558.00,0.0210
3557.00,0.0212
3556.00,0.0213
3555.00,0.0215
3554.00,0.0216
3553.00,0.0217
3552.00,0.0219
3551.00,0.0220
3550.00,0.0222
3549.00,0.0224
3548.00,0.0225
3547.00,0.0226
3546.00,0.0227
3545.00,0.0228
3544.00,0.0230
3543.00,0.0231
3542.00,0.0232
3541.00,0.0234
3540.00,0.0235
3539.00,0.0236
3538.00,0.0237
3537.00,0.0239
3536.00,0.0240
3535.00,0.0241
3534.00,0.0242
3533.00,0.0243
3532.00,0.0243
3531.00,0.0244
3530.00,0.0246
3529.00,0.0247
3528.00,0.0248
3527.00,0.0249
3526.00,0.0250
3525.00,0.0251
3524.00,0.0252
3523.00,0.0253
3522.00,0.0253
3521.00,0.0254
3520.00,0.0255
3519.00,0.0255
3518.00,0.0256
3517.00,0.0257
3516.00,0.0258
3515.00,0.0259
3514.00,0.0260
3513.00,0.0261
3512.00,0.0262
3511.00,0.0262
3510.00,0.0263
3509.00,0.0264
3508.00,0.0264
3507.00,0.0265
3506.00,0.0266
3505.00,0.0267
3504.00,0.0268
3503.00,0.0268
3502.00,0.0269
3501.00,0.0269
3500.00,0.0270
3499.00,0.0271
3498.00,0.0271
3497.00,0.0272
3496.00,0.0273
3495.00,0.0273
3494.00,0.0274
3493.00,0.0274
3492.00,0.0275
3491.00,0.0276
3490.00,0.0276
3489.00,0.0277
3488.00,0.0277
3487.00,0.0278
3486.00,0.0278
3485.00,0.0279
3484.00,0.0280
3483.00,0.0280
3482.00,0.0281
3481.00,0.0281
3480.00,0.0282
3479.00,0.0282
3478.00,0.0283
3477.00,0.0284
3476.00,0.0284
3475.00,0.0285
3474.00,0.0285
3473.00,0.0286
3472.00,0.0286
3471.00,0.0287
3470.00,0.0287
3469.00,0.0288
3468.00,0.0288
3467.00,0.0289
3466.00,0.0289
3465.00,0.0289
3464.00,0.0290
3463.00,0.0291
3462.00,0.0291
3461.00,0.0291
3460.00,0.0292
3459.00,0.0292
3458.00,0.0292
3457.00,0.0292
3456.00,0.0293
3455.00,0.0293
3454.00,0.0294
3453.00,0.0294
3452.00,0.0294
3451.00,0.0294
3450.00,0.0295
3449.00,0.0295
3448.00,0.0295
3447.00,0.0295
3446.00,0.0295
3445.00,0.0295
3444.00,0.0296
3443.00,0.0296
3442.00,0.0296
3441.00,0.0296
3440.00,0.0296
3439.00,0.0296
3438.00,0.0297
3437.00,0.0297
3436.00,0.0297
3435.00,0.0297
3434.00,0.0297
3433.00,0.0298
3432.00,0.0298
3431.00,0.0298
3430.00,0.0298
3429.00,0.0298
3428.00,0.0298
3427.00,0.0298
3426.00,0.0298
3425.00,0.0297
3424.00,0.0297
3423.00,0.0297
3422.00,0.0297
3421.00,0.0297
3420.00,0.0297
3419.00,0.0296
3418.00,0.0296
3417.00,0.0296
3416.00,0.0296
3415.00,0.0296
3414.00,0.0296
3413.00,0.0296
3412.00,0.0296
3411.00,0.0295
3410.00,0.0295
3409.00,0.0295
3408.00,0.0295
3407.00,0.0295
3406.00,0.0294
3405.00,0.0294
3404.00,0.0293
3403.00,0.0293
3402.00,0.0292
3401.00,0.0292
3400.00,0.0292
3399.00,0.0292
3398.00,0.0291
3397.00,0.0291
3396.00,0.0291
3395.00,0.0290
3394.00,0.0289
3393.00,0.0288
3392.00,0.0288
3391.00,0.0287
3390.00,0.0287
3389.00,0.0287
3388.00,0.0287
3387.00,0.0287
3386.00,0.0286
3385.00,0.0285
3384.00,0.0285
3383.00,0.0284
3382.00,0.0283
3381.00,0.0283
3380.00,0.0282
3379.00,0.0281
3378.00,0.0280
3377.00,0.0280
3376.00,0.0279
3375.00,0.0278
3374.00,0.0278
3373.00,0.0277
3372.00,0.0276
3371.00,0.0274
3370.00,0.0273
3369.00,0.0272
3368.00,0.0272
3367.00,0.0272
3366.00,0.0272
3365.00,0.0272
3364.00,0.0272
3363.00,0.0271
3362.00,0.0270
3361.00,0.0270
3360.00,0.0269
3359.00,0.0269
3358.00,0.0269
3357.00,0.0268
3356.00,0.0268
3355.00,0.0267
3354.00,0.0266
3353.00,0.0264
3352.00,0.0263
3351.00,0.0262
3350.00,0.0262
3349.00,0.0262
3348.00,0.0262
3347.00,0.0262
3346.00,0.0262
3345.00,0.0261
3344.00,0.0260
3343.00,0.0259
3342.00,0.0259
3341.00,0.0258
3340.00,0.0258
3339.00,0.0257
3338.00,0.0257
3337.00,0.0257
3336.00,0.0258
3335.00,0.0258
3334.00,0.0258
3333.00,0.0258
3332.00,0.0258
3331.00,0.0257
3330.00,0.0257
3329.00,0.0256
3328.00,0.0255
3327.00,0.0254
3326.00,0.0254
3325.00,0.0254
3324.00,0.0254
3323.00,0.0255
3322.00,0.0255
3321.00,0.0255
3320.00,0.0255
3319.00,0.0255
3318.00,0.0255
3317.00,0.0255
3316.00,0.0255
3315.00,0.0255
3314.00,0.0255
3313.00,0.0254
3312.00,0.0253
3311.00,0.0252
3310.00,0.0251
3309.00,0.0250
3308.00,0.0249
3307.00,0.0249
3306.00,0.0249
3305.00,0.0250
3304.00,0.0252
3303.00,0.0253
3302.00,0.0255
3301.00,0.0255
3300.00,0.0256
3299.00,0.0255
3298.00,0.0254
3297.00,0.0254
3296.00,0.0253
3295.00,0.0253
3294.00,0.0253
3293.00,0.0253
3292.00,0.0253
3291.00,0.0254
3290.00,0.0255
3289.00,0.0255
3288.00,0.0256
3287.00,0.0256
3286.00,0.0255
3285.00,0.0255
3284.00,0.0255
3283.00,0.0254
3282.00,0.0253
3281.00,0.0252
3280.00,0.0252
3279.00,0.0251
3278.00,0.0250
3277.00,0.0249
3276.00,0.0247
3275.00,0.0246
3274.00,0.0245
3273.00,0.0243
3272.00,0.0242
3271.00,0.0241
3270.00,0.0241
3269.00,0.0241
3268.00,0.0240
3267.00,0.0240
3266.00,0.0239
3265.00,0.0238
3264.00,0.0237
3263.00,0.0236
3262.00,0.0235
3261.00,0.0233
3260.00,0.0232
3259.00,0.0231
3258.00,0.0230
3257.00,0.0228
3256.00,0.0227
3255.00,0.0226
3254.00,0.0226
3253.00,0.0225
3252.00,0.0224
3251.00,0.0223
3250.00,0.0222
3249.00,0.0221
3248.00,0.0219
3247.00,0.0219
3246.00,0.0218
3245.00,0.0218
3244.00,0.0217
3243.00,0.0217
3242.00,0.0216
3241.00,0.0216
3240.00,0.0215
3239.00,0.0215
3238.00,0.0214
3237.00,0.0214
3236.00,0.0213
3235.00,0.0212
3234.00,0.0212
3233.00,0.0212
3232.00,0.0212
3231.00,0.0212
3230.00,0.0212
3229.00,0.0212
3228.00,0.0212
3227.00,0.0212
3226.00,0.0211
3225.00,0.0211
3224.00,0.0211
3223.00,0.0210
3222.00,0.0209
3221.00,0.0209
3220.00,0.0208
3219.00,0.0208
3218.00,0.0207
3217.00,0.0206
3216.00,0.0205
3215.00,0.0205
3214.00,0.0204
3213.00,0.0203
3212.00,0.0203
3211.00,0.0202
3210.00,0.0201
3209.00,0.0200
3208.00,0.0199
3207.00,0.0198
3206.00,0.0197
3205.00,0.0196
3204.00,0.0195
3203.00,0.0194
3202.00,0.0193
3201.00,0.0192
3200.00,0.0191
3199.00,0.0190
3198.00,0.0189
3197.00,0.0188
3196.00,0.0187
3195.00,0.0186
3194.00,0.0185
3193.00,0.0184
3192.00,0.0183
3191.00,0.0181
3190.00,0.0180
3189.00,0.0179
3188.00,0.0178
3187.00,0.0177
3186.00,0.0176
3185.00,0.0175
3184.00,0.0174
3183.00,0.0173
3182.00,0.0172
3181.00,0.0171
3180.00,0.0170
3179.00,0.0168
3178.00,0.0167
3177.00,0.0166
3176.00,0.0165
3175.00,0.0164
3174.00,0.0163
3173.00,0.0162
3172.00,0.0161
3171.00,0.0160
3170.00,0.0159
3169.00,0.0158
3168.00,0.0157
3167.00,0.0156
3166.00,0.0155
3165.00,0.0154
3164.00,0.0153
3163.00,0.0152
3162.00,0.0151
3161.00,0.0150
3160.00,0.0149
3159.00,0.0148
3158.00,0.0147
3157.00,0.0146
3156.00,0.0145
3155.00,0.0144
3154.00,0.0144
3153.00,0.0143
3152.00,0.0142
3151.00,0.0141
3150.00,0.0141
3149.00,0.0140
3148.00,0.0139
3147.00,0.0139
3146.00,0.0138
3145.00,0.0137
3144.00,0.0137
3143.00,0.0136
3142.00,0.0135
3141.00,0.0135
3140.00,0.0134
3139.00,0.0134
3138.00,0.0133
3137.00,0.0133
3136.00,0.0132
3135.00,0.0132
3134.00,0.0132
3133.00,0.0131
3132.00,0.0131
3131.00,0.0131
3130.00,0.0130
3129.00,0.0130
3128.00,0.0130
3127.00,0.0130
3126.00,0.0130
3125.00,0.0130
3124.00,0.0130
3123.00,0.0130
3122.00,0.0131
3121.00,0.0131
3120.00,0.0131
3119.00,0.0132
3118.00,0.0132
3117.00,0.0133
3116.00,0.0133
3115.00,0.0133
3114.00,0.0134
3113.00,0.0134
3112.00,0.0135
3111.00,0.0136
3110.00,0.0136
3109.00,0.0137
3108.00,0.0138
3107.00,0.0138
3106.00,0.0139
3105.00,0.0140
3104.00,0.0141
3103.00,0.0141
3102.00,0.0142
3101.00,0.0143
3100.00,0.0143
3099.00,0.0143
3098.00,0.0144
3097.00,0.0144
3096.00,0.0145
3095.00,0.0145
3094.00,0.0145
3093.00,0.0145
3092.00,0.0145
3091.00,0.0145
3090.00,0.0145
3089.00,0.0144
3088.00,0.0144
3087.00,0.0144
3086.00,0.0144
3085.00,0.0144
3084.00,0.0144
3083.00,0.0143
3082.00,0.0143
3081.00,0.0142
3080.00,0.0142
3079.00,0.0141
3078.00,0.0141
3077.00,0.0140
3076.00,0.0140
3075.00,0.0139
3074.00,0.0139
3073.00,0.0139
3072.00,0.0138
3071.00,0.0138
3070.00,0.0137
3069.00,0.0137
3068.00,0.0136
3067.00,0.0136
3066.00,0.0135
3065.00,0.0135
3064.00,0.0134
3063.00,0.0133
3062.00,0.0133
3061.00,0.0132
3060.00,0.0131
3059.00,0.0131
3058.00,0.0130
3057.00,0.0130
3056.00,0.0129
3055.00,0.0128
3054.00,0.0127
3053.00,0.0127
3052.00,0.0126
3051.00,0.0125
3050.00,0.0124
3049.00,0.0124
3048.00,0.0123
3047.00,0.0122
3046.00,0.0122
3045.00,0.0121
3044.00,0.0120
3043.00,0.0120
3042.00,0.0120
3041.00,0.0119
3040.00,0.0119
3039.00,0.0119
3038.00,0.0119
3037.00,0.0119
3036.00,0.0118
3035.00,0.0118
3034.00,0.0118
3033.00,0.0118
3032.00,0.0118
3031.00,0.0118
3030.00,0.0119
3029.00,0.0119
3028.00,0.0119
3027.00,0.0120
3026.00,0.0120
3025.00,0.0120
3024.00,0.0121
3023.00,0.0122
3022.00,0.0122
3021.00,0.0123
3020.00,0.0124
3019.00,0.0126
3018.00,0.0127
3017.00,0.0128
3016.00,0.0129
3015.00,0.0130
3014.00,0.0132
3013.00,0.0134
3012.00,0.0136
3011.00,0.0139
3010.00,0.0141
3009.00,0.0145
3008.00,0.0148
3007.00,0.0151
3006.00,0.0155
3005.00,0.0158
3004.00,0.0162
3003.00,0.0166
3002.00,0.0170
3001.00,0.0174
3000.00,0.0179
2999.00,0.0183
2998.00,0.0187
2997.00,0.0192
2996.00,0.0197
2995.00,0.0202
2994.00,0.0207
2993.00,0.0212
2992.00,0.0216
2991.00,0.0221
2990.00,0.0226
2989.00,0.0231
2988.00,0.0236
2987.00,0.0240
2986.00,0.0244
2985.00,0.0248
2984.00,0.0251
2983.00,0.0254
2982.00,0.0256
2981.00,0.0259
2980.00,0.0262
2979.00,0.0264
2978.00,0.0266
2977.00,0.0268
2976.00,0.0270
2975.00,0.0271
2974.00,0.0272
2973.00,0.0274
2972.00,0.0275
2971.00,0.0277
2970.00,0.0279
2969.00,0.0281
2968.00,0.0283
2967.00,0.0285
2966.00,0.0287
2965.00,0.0289
2964.00,0.0292
2963.00,0.0294
2962.00,0.0297
2961.00,0.0299
2960.00,0.0302
2959.00,0.0304
2958.00,0.0307
2957.00,0.0309
2956.00,0.0311
2955.00,0.0312
2954.00,0.0314
2953.00,0.0314
2952.00,0.0315
2951.00,0.0315
2950.00,0.0315
2949.00,0.0314
2948.00,0.0313
2947.00,0.0311
2946.00,0.0309
2945.00,0.0307
2944.00,0.0304
2943.00,0.0301
2942.00,0.0299
2941.00,0.0296
2940.00,0.0293
2939.00,0.0291
2938.00,0.0289
2937.00,0.0288
2936.00,0.0286
2935.00,0.0286
2934.00,0.0285
2933.00,0.0285
2932.00,0.0285
2931.00,0.0285
2930.00,0.0286
2929.00,0.0286
2928.00,0.0286
2927.00,0.0287
2926.00,0.0287
2925.00,0.0287
2924.00,0.0287
2923.00,0.0286
2922.00,0.0285
2921.00,0.0284
2920.00,0.0282
2919.00,0.0280
2918.00,0.0278
2917.00,0.0275
2916.00,0.0272
2915.00,0.0269
2914.00,0.0266
2913.00,0.0262
2912.00,0.0259
2911.00,0.0256
2910.00,0.0253
2909.00,0.0250
2908.00,0.0247
2907.00,0.0245
2906.00,0.0243
2905.00,0.0241
2904.00,0.0240
2903.00,0.0239
2902.00,0.0239
2901.00,0.0238
2900.00,0.0238
2899.00,0.0238
2898.00,0.0238
2897.00,0.0239
2896.00,0.0239
2895.00,0.0239
2894.00,0.0239
2893.00,0.0239
2892.00,0.0240
2891.00,0.0239
2890.00,0.0239
2889.00,0.0239
2888.00,0.0238
2887.00,0.0238
2886.00,0.0238
2885.00,0.0238
2884.00,0.0237
2883.00,0.0237
2882.00,0.0236
2881.00,0.0236
2880.00,0.0235
2879.00,0.0235
2878.00,0.0234
2877.00,0.0233
2876.00,0.0231
2875.00,0.0230
2874.00,0.0228
2873.00,0.0227
2872.00,0.0226
2871.00,0.0225
2870.00,0.0223
2869.00,0.0222
2868.00,0.0220
2867.00,0.0219
2866.00,0.0217
2865.00,0.0216
2864.00,0.0214
2863.00,0.0212
2862.00,0.0210
2861.00,0.0208
2860.00,0.0206
2859.00,0.0203
2858.00,0.0201
2857.00,0.0198
2856.00,0.0195
2855.00,0.0192
2854.00,0.0189
2853.00,0.0186
2852.00,0.0182
2851.00,0.0179
2850.00,0.0175
2849.00,0.0172
2848.00,0.0169
2847.00,0.0166
2846.00,0.0163
2845.00,0.0161
2844.00,0.0159
2843.00,0.0156
2842.00,0.0154
2841.00,0.0151
2840.00,0.0149
2839.00,0.0146
2838.00,0.0145
2837.00,0.0143
2836.00,0.0142
2835.00,0.0140
2834.00,0.0138
2833.00,0.0137
2832.00,0.0135
2831.00,0.0133
2830.00,0.0131
2829.00,0.0129
2828.00,0.0128
2827.00,0.0126
2826.00,0.0124
2825.00,0.0122
2824.00,0.0121
2823.00,0.0119
2822.00,0.0117
2821.00,0.0116
2820.00,0.0114
2819.00,0.0113
2818.00,0.0112
2817.00,0.0111
2816.00,0.0110
2815.00,0.0109
2814.00,0.0108
2813.00,0.0107
2812.00,0.0106
2811.00,0.0105
2810.00,0.0104
2809.00,0.0104
2808.00,0.0103
2807.00,0.0102
2806.00,0.0102
2805.00,0.0101
2804.00,0.0100
2803.00,0.0100
2802.00,0.0099
2801.00,0.0098
2800.00,0.0098
2799.00,0.0097
2798.00,0.0096
2797.00,0.0096
2796.00,0.0095
2795.00,0.0095
2794.00,0.0094
2793.00,0.0094
2792.00,0.0093
2791.00,0.0093
2790.00,0.0093
2789.00,0.0092
2788.00,0.0092
2787.00,0.0092
2786.00,0.0091
2785.00,0.0091
2784.00,0.0090
2783.00,0.0090
2782.00,0.0090
2781.00,0.0089
2780.00,0.0089
2779.00,0.0089
2778.00,0.0089
2777.00,0.0088
2776.00,0.0088
2775.00,0.0088
2774.00,0.0088
2773.00,0.0087
2772.00,0.0087
2771.00,0.0087
2770.00,0.0086
2769.00,0.0086
2768.00,0.0086
2767.00,0.0086
2766.00,0.0086
2765.00,0.0086
2764.00,0.0085
2763.00,0.0085
2762.00,0.0085
2761.00,0.0085
2760.00,0.0084
2759.00,0.0084
2758.00,0.0084
2757.00,0.0084
2756.00,0.0084
2755.00,0.0084
2754.00,0.0084
2753.00,0.0084
2752.00,0.0084
2751.00,0.0084
2750.00,0.0084
2749.00,0.0084
2748.00,0.0084
2747.00,0.0084
2746.00,0.0083
2745.00,0.0083
2744.00,0.0083
2743.00,0.0083
2742.00,0.0083
2741.00,0.0083
2740.00,0.0083
2739.00,0.0083
2738.00,0.0082
2737.00,0.0082
2736.00,0.0082
2735.00,0.0082
2734.00,0.0082
2733.00,0.0082
2732.00,0.0082
2731.00,0.0082
2730.00,0.0082
2729.00,0.0082
2728.00,0.0082
2727.00,0.0082
2726.00,0.0081
2725.00,0.0081
2724.00,0.0081
2723.00,0.0081
2722.00,0.0081
2721.00,0.0081
2720.00,0.0081
2719.00,0.0081
2718.00,0.0081
2717.00,0.0081
2716.00,0.0080
2715.00,0.0080
2714.00,0.0080
2713.00,0.0080
2712.00,0.0080
2711.00,0.0080
2710.00,0.0080
2709.00,0.0079
2708.00,0.0079
2707.00,0.0079
2706.00,0.0079
2705.00,0.0078
2704.00,0.0078
2703.00,0.0078
2702.00,0.0078
2701.00,0.0078
2700.00,0.0078
2699.00,0.0078
2698.00,0.0078
2697.00,0.0077
2696.00,0.0077
2695.00,0.0077
2694.00,0.0077
2693.00,0.0077
2692.00,0.0077
2691.00,0.0077
2690.00,0.0077
2689.00,0.0077
2688.00,0.0076
2687.00,0.0076
2686.00,0.0076
2685.00,0.0076
2684.00,0.0076
2683.00,0.0076
2682.00,0.0076
2681.00,0.0076
2680.00,0.0075
2679.00,0.0075
2678.00,0.0075
2677.00,0.0076
2676.00,0.0076
2675.00,0.0076
2674.00,0.0075
2673.00,0.0075
2672.00,0.0075
2671.00,0.0076
2670.00,0.0076
2669.00,0.0076
2668.00,0.0076
2667.00,0.0076
2666.00,0.0076
2665.00,0.0077
2664.00,0.0078
2663.00,0.0078
2662.00,0.0079
2661.00,0.0079
2660.00,0.0079
2659.00,0.0079
2658.00,0.0079
2657.00,0.0079
2656.00,0.0080
2655.00,0.0080
2654.00,0.0080
2653.00,0.0080
2652.00,0.0080
2651.00,0.0080
2650.00,0.0080
2649.00,0.0080
2648.00,0.0080
2647.00,0.0080
2646.00,0.0080
2645.00,0.0080
2644.00,0.0080
2643.00,0.0080
2642.00,0.0080
2641.00,0.0080
2640.00,0.0080
2639.00,0.0079
2638.00,0.0079
2637.00,0.0079
2636.00,0.0079
2635.00,0.0079
2634.00,0.0079
2633.00,0.0079
2632.00,0.0079
2631.00,0.0079
2630.00,0.0079
2629.00,0.0079
2628.00,0.0079
2627.00,0.0079
2626.00,0.0079
2625.00,0.0079
2624.00,0.0079
2623.00,0.0078
2622.00,0.0078
2621.00,0.0078
2620.00,0.0078
2619.00,0.0077
2618.00,0.0077
2617.00,0.0077
2616.00,0.0077
2615.00,0.0077
2614.00,0.0077
2613.00,0.0077
2612.00,0.0076
2611.00,0.0076
2610.00,0.0076
2609.00,0.0076
2608.00,0.0076
2607.00,0.0076
2606.00,0.0076
2605.00,0.0075
2604.00,0.0075
2603.00,0.0075
2602.00,0.0075
2601.00,0.0075
2600.00,0.0075
2599.00,0.0075
2598.00,0.0075
2597.00,0.0075
2596.00,0.0075
2595.00,0.0075
2594.00,0.0075
2593.00,0.0075
2592.00,0.0075
2591.00,0.0075
2590.00,0.0075
2589.00,0.0075
2588.00,0.0075
2587.00,0.0074
2586.00,0.0075
2585.00,0.0075
2584.00,0.0075
2583.00,0.0075
2582.00,0.0075
2581.00,0.0075
2580.00,0.0075
2579.00,0.0075
2578.00,0.0074
2577.00,0.0074
2576.00,0.0074
2575.00,0.0074
2574.00,0.0074
2573.00,0.0074
2572.00,0.0074
2571.00,0.0073
2570.00,0.0073
2569.00,0.0073
2568.00,0.0073
2567.00,0.0073
2566.00,0.0073
2565.00,0.0073
2564.00,0.0073
2563.00,0.0073
2562.00,0.0073
2561.00,0.0073
2560.00,0.0073
2559.00,0.0072
2558.00,0.0072
2557.00,0.0072
2556.00,0.0072
2555.00,0.0072
2554.00,0.0072
2553.00,0.0072
2552.00,0.0072
2551.00,0.0072
2550.00,0.0071
2549.00,0.0071
2548.00,0.0071
2547.00,0.0071
2546.00,0.0070
2545.00,0.0070
2544.00,0.0070
2543.00,0.0070
2542.00,0.0070
2541.00,0.0071
2540.00,0.0071
2539.00,0.0070
2538.00,0.0070
2537.00,0.0070
2536.00,0.0070
2535.00,0.0070
2534.00,0.0069
2533.00,0.0069
2532.00,0.0069
2531.00,0.0069
2530.00,0.0069
2529.00,0.0069
2528.00,0.0069
2527.00,0.0069
2526.00,0.0068
2525.00,0.0068
2524.00,0.0068
2523.00,0.0068
2522.00,0.0068
2521.00,0.0068
2520.00,0.0068
2519.00,0.0068
2518.00,0.0067
2517.00,0.0067
2516.00,0.0067
2515.00,0.0067
2514.00,0.0067
2513.00,0.0067
2512.00,0.0067
2511.00,0.0067
2510.00,0.0068
2509.00,0.0068
2508.00,0.0068
2507.00,0.0067
2506.00,0.0067
2505.00,0.0067
2504.00,0.0067
2503.00,0.0067
2502.00,0.0067
2501.00,0.0066
2500.00,0.0066
2499.00,0.0066
2498.00,0.0066
2497.00,0.0066
2496.00,0.0067
2495.00,0.0066
2494.00,0.0066
2493.00,0.0066
2492.00,0.0066
2491.00,0.0066
2490.00,0.0066
2489.00,0.0066
2488.00,0.0066
2487.00,0.0066
2486.00,0.0066
2485.00,0.0066
2484.00,0.0066
2483.00,0.0066
2482.00,0.0065
2481.00,0.0065
2480.00,0.0065
2479.00,0.0065
2478.00,0.0065
2477.00,0.0065
2476.00,0.0065
2475.00,0.0065
2474.00,0.0065
2473.00,0.0065
2472.00,0.0065
2471.00,0.0065
2470.00,0.0065
2469.00,0.0065
2468.00,0.0065
2467.00,0.0065
2466.00,0.0065
2465.00,0.0065
2464.00,0.0065
2463.00,0.0065
2462.00,0.0065
2461.00,0.0065
2460.00,0.0066
2459.00,0.0066
2458.00,0.0066
2457.00,0.0066
2456.00,0.0066
2455.00,0.0066
2454.00,0.0066
2453.00,0.0066
2452.00,0.0066
2451.00,0.0066
2450.00,0.0066
2449.00,0.0066
2448.00,0.0066
2447.00,0.0066
2446.00,0.0066
2445.00,0.0066
2444.00,0.0065
2443.00,0.0065
2442.00,0.0065
2441.00,0.0065
2440.00,0.0065
2439.00,0.0065
2438.00,0.0065
2437.00,0.0065
2436.00,0.0065
2435.00,0.0064
2434.00,0.0064
2433.00,0.0064
2432.00,0.0064
2431.00,0.0064
2430.00,0.0064
2429.00,0.0064
2428.00,0.0064
2427.00,0.0064
2426.00,0.0064
2425.00,0.0064
2424.00,0.0064
2423.00,0.0064
2422.00,0.0064
2421.00,0.0064
2420.00,0.0064
2419.00,0.0064
2418.00,0.0064
2417.00,0.0064
2416.00,0.0064
2415.00,0.0064
2414.00,0.0064
2413.00,0.0064
2412.00,0.0064
2411.00,0.0064
2410.00,0.0063
2409.00,0.0063
2408.00,0.0063
2407.00,0.0062
2406.00,0.0062
2405.00,0.0062
2404.00,0.0062
2403.00,0.0062
2402.00,0.0062
2401.00,0.0062
2400.00,0.0062
2399.00,0.0062
2398.00,0.0062
2397.00,0.0062
2396.00,0.0062
2395.00,0.0062
2394.00,0.0062
2393.00,0.0062
2392.00,0.0062
2391.00,0.0062
2390.00,0.0061
2389.00,0.0061
2388.00,0.0060
2387.00,0.0060
2386.00,0.0059
2385.00,0.0059
2384.00,0.0058
2383.00,0.0058
2382.00,0.0057
2381.00,0.0057
2380.00,0.0057
2379.00,0.0057
2378.00,0.0057
2377.00,0.0057
2376.00,0.0057
2375.00,0.0057
2374.00,0.0057
2373.00,0.0057
2372.00,0.0057
2371.00,0.0057
2370.00,0.0056
2369.00,0.0056
2368.00,0.0055
2367.00,0.0055
2366.00,0.0056
2365.00,0.0057
2364.00,0.0057
2363.00,0.0057
2362.00,0.0057
2361.00,0.0057
2360.00,0.0057
2359.00,0.0058
2358.00,0.0058
2357.00,0.0058
2356.00,0.0058
2355.00,0.0058
2354.00,0.0058
2353.00,0.0058
2352.00,0.0058
2351.00,0.0059
2350.00,0.0059
2349.00,0.0059
2348.00,0.0060
2347.00,0.0060
2346.00,0.0060
2345.00,0.0060
2344.00,0.0061
2343.00,0.0061
2342.00,0.0061
2341.00,0.0062
2340.00,0.0063
2339.00,0.0063
2338.00,0.0063
2337.00,0.0063
2336.00,0.0063
2335.00,0.0063
2334.00,0.0062
2333.00,0.0062
2332.00,0.0062
2331.00,0.0062
2330.00,0.0064
2329.00,0.0066
2328.00,0.0070
2327.00,0.0073
2326.00,0.0076
2325.00,0.0077
2324.00,0.0076
2323.00,0.0074
2322.00,0.0072
2321.00,0.0070
2320.00,0.0070
2319.00,0.0069
2318.00,0.0069
2317.00,0.0068
2316.00,0.0068
2315.00,0.0067
2314.00,0.0067
2313.00,0.0066
2312.00,0.0066
2311.00,0.0066
2310.00,0.0065
2309.00,0.0065
2308.00,0.0065
2307.00,0.0066
2306.00,0.0066
2305.00,0.0067
2304.00,0.0067
2303.00,0.0067
2302.00,0.0067
2301.00,0.0067
2300.00,0.0067
2299.00,0.0068
2298.00,0.0068
2297.00,0.0069
2296.00,0.0070
2295.00,0.0070
2294.00,0.0071
2293.00,0.0072
2292.00,0.0072
2291.00,0.0073
2290.00,0.0074
2289.00,0.0074
2288.00,0.0075
2287.00,0.0075
2286.00,0.0074
2285.00,0.0073
2284.00,0.0072
2283.00,0.0072
2282.00,0.0071
2281.00,0.0070
2280.00,0.0070
2279.00,0.0070
2278.00,0.0070
2277.00,0.0069
2276.00,0.0069
2275.00,0.0069
2274.00,0.0068
2273.00,0.0068
2272.00,0.0068
2271.00,0.0068
2270.00,0.0067
2269.00,0.0067
2268.00,0.0066
2267.00,0.0066
2266.00,0.0066
2265.00,0.0065
2264.00,0.0066
2263.00,0.0066
2262.00,0.0066
2261.00,0.0067
2260.00,0.0068
2259.00,0.0068
2258.00,0.0067
2257.00,0.0066
2256.00,0.0065
2255.00,0.0065
2254.00,0.0064
2253.00,0.0064
2252.00,0.0064
2251.00,0.0064
2250.00,0.0063
2249.00,0.0063
2248.00,0.0064
2247.00,0.0064
2246.00,0.0065
2245.00,0.0065
2244.00,0.0065
2243.00,0.0065
2242.00,0.0064
2241.00,0.0064
2240.00,0.0065
2239.00,0.0065
2238.00,0.0064
2237.00,0.0064
2236.00,0.0063
2235.00,0.0063
2234.00,0.0063
2233.00,0.0063
2232.00,0.0063
2231.00,0.0063
2230.00,0.0063
2229.00,0.0063
2228.00,0.0064
2227.00,0.0064
2226.00,0.0063
2225.00,0.0063
2224.00,0.0063
2223.00,0.0063
2222.00,0.0062
2221.00,0.0062
2220.00,0.0063
2219.00,0.0063
2218.00,0.0063
2217.00,0.0063
2216.00,0.0063
2215.00,0.0063
2214.00,0.0063
2213.00,0.0063
2212.00,0.0063
2211.00,0.0063
2210.00,0.0062
2209.00,0.0062
2208.00,0.0062
2207.00,0.0063
2206.00,0.0063
2205.00,0.0063
2204.00,0.0063
2203.00,0.0063
2202.00,0.0063
2201.00,0.0063
2200.00,0.0063
2199.00,0.0062
2198.00,0.0061
2197.00,0.0061
2196.00,0.0062
2195.00,0.0063
2194.00,0.0064
2193.00,0.0064
2192.00,0.0065
2191.00,0.0065
2190.00,0.0065
2189.00,0.0065
2188.00,0.0065
2187.00,0.0064
2186.00,0.0064
2185.00,0.0063
2184.00,0.0062
2183.00,0.0060
2182.00,0.0058
2181.00,0.0058
2180.00,0.0059
2179.00,0.0060
2178.00,0.0060
2177.00,0.0059
2176.00,0.0058
2175.00,0.0059
2174.00,0.0060
2173.00,0.0063
2172.00,0.0067
2171.00,0.0070
2170.00,0.0072
2169.00,0.0073
2168.00,0.0074
2167.00,0.0074
2166.00,0.0074
2165.00,0.0075
2164.00,0.0078
2163.00,0.0078
2162.00,0.0072
2161.00,0.0059
2160.00,0.0044
2159.00,0.0033
2158.00,0.0028
2157.00,0.0029
2156.00,0.0034
2155.00,0.0037
2154.00,0.0040
2153.00,0.0042
2152.00,0.0044
2151.00,0.0045
2150.00,0.0045
2149.00,0.0046
2148.00,0.0046
2147.00,0.0047
2146.00,0.0046
2145.00,0.0046
2144.00,0.0047
2143.00,0.0048
2142.00,0.0048
2141.00,0.0049
2140.00,0.0049
2139.00,0.0049
2138.00,0.0048
2137.00,0.0045
2136.00,0.0043
2135.00,0.0041
2134.00,0.0041
2133.00,0.0043
2132.00,0.0045
2131.00,0.0048
2130.00,0.0050
2129.00,0.0052
2128.00,0.0053
2127.00,0.0054
2126.00,0.0054
2125.00,0.0055
2124.00,0.0057
2123.00,0.0058
2122.00,0.0058
2121.00,0.0059
2120.00,0.0059
2119.00,0.0060
2118.00,0.0061
2117.00,0.0062
2116.00,0.0063
2115.00,0.0064
2114.00,0.0064
2113.00,0.0063
2112.00,0.0063
2111.00,0.0063
2110.00,0.0062
2109.00,0.0062
2108.00,0.0062
2107.00,0.0062
2106.00,0.0062
2105.00,0.0062
2104.00,0.0062
2103.00,0.0062
2102.00,0.0062
2101.00,0.0062
2100.00,0.0062
2099.00,0.0062
2098.00,0.0060
2097.00,0.0058
2096.00,0.0056
2095.00,0.0056
2094.00,0.0056
2093.00,0.0057
2092.00,0.0058
2091.00,0.0059
2090.00,0.0059
2089.00,0.0060
2088.00,0.0061
2087.00,0.0061
2086.00,0.0061
2085.00,0.0062
2084.00,0.0062
2083.00,0.0062
2082.00,0.0062
2081.00,0.0062
2080.00,0.0063
2079.00,0.0063
2078.00,0.0063
2077.00,0.0062
2076.00,0.0061
2075.00,0.0061
2074.00,0.0060
2073.00,0.0060
2072.00,0.0060
2071.00,0.0059
2070.00,0.0059
2069.00,0.0059
2068.00,0.0059
2067.00,0.0059
2066.00,0.0059
2065.00,0.0058
2064.00,0.0058
2063.00,0.0058
2062.00,0.0057
2061.00,0.0057
2060.00,0.0057
2059.00,0.0058
2058.00,0.0057
2057.00,0.0057
2056.00,0.0057
2055.00,0.0058
2054.00,0.0061
2053.00,0.0065
2052.00,0.0069
2051.00,0.0069
2050.00,0.0065
2049.00,0.0060
2048.00,0.0057
2047.00,0.0055
2046.00,0.0054
2045.00,0.0055
2044.00,0.0056
2043.00,0.0057
2042.00,0.0056
2041.00,0.0056
2040.00,0.0055
2039.00,0.0055
2038.00,0.0054
2037.00,0.0054
2036.00,0.0053
2035.00,0.0051
2034.00,0.0049
2033.00,0.0048
2032.00,0.0048
2031.00,0.0049
2030.00,0.0049
2029.00,0.0049
2028.00,0.0050
2027.00,0.0049
2026.00,0.0047
2025.00,0.0046
2024.00,0.0047
2023.00,0.0047
2022.00,0.0047
2021.00,0.0047
2020.00,0.0048
2019.00,0.0049
2018.00,0.0048
2017.00,0.0048
2016.00,0.0049
2015.00,0.0049
2014.00,0.0048
2013.00,0.0048
2012.00,0.0049
2011.00,0.0049
2010.00,0.0047
2009.00,0.0046
2008.00,0.0045
2007.00,0.0043
2006.00,0.0041
2005.00,0.0041
2004.00,0.0043
2003.00,0.0043
2002.00,0.0043
2001.00,0.0044
2000.00,0.0047
1999.00,0.0050
1998.00,0.0051
1997.00,0.0052
1996.00,0.0053
1995.00,0.0053
1994.00,0.0052
1993.00,0.0051
1992.00,0.0052
1991.00,0.0053
1990.00,0.0054
1989.00,0.0054
1988.00,0.0055
1987.00,0.0056
1986.00,0.0055
1985.00,0.0055
1984.00,0.0058
1983.00,0.0061
1982.00,0.0064
1981.00,0.0065
1980.00,0.0063
1979.00,0.0057
1978.00,0.0050
1977.00,0.0046
1976.00,0.0045
1975.00,0.0045
1974.00,0.0044
1973.00,0.0044
1972.00,0.0045
1971.00,0.0046
1970.00,0.0045
1969.00,0.0044
1968.00,0.0044
1967.00,0.0043
1966.00,0.0042
1965.00,0.0041
1964.00,0.0042
1963.00,0.0043
1962.00,0.0042
1961.00,0.0041
1960.00,0.0041
1959.00,0.0040
1958.00,0.0040
1957.00,0.0041
1956.00,0.0042
1955.00,0.0043
1954.00,0.0044
1953.00,0.0045
1952.00,0.0046
1951.00,0.0046
1950.00,0.0045
1949.00,0.0044
1948.00,0.0044
1947.00,0.0044
1946.00,0.0044
1945.00,0.0044
1944.00,0.0045
1943.00,0.0046
1942.00,0.0046
1941.00,0.0045
1940.00,0.0045
1939.00,0.0045
1938.00,0.0045
1937.00,0.0045
1936.00,0.0045
1935.00,0.0046
1934.00,0.0045
1933.00,0.0045
1932.00,0.0046
1931.00,0.0046
1930.00,0.0046
1929.00,0.0046
1928.00,0.0047
1927.00,0.0047
1926.00,0.0047
1925.00,0.0047
1924.00,0.0048
1923.00,0.0049
1922.00,0.0048
1921.00,0.0048
1920.00,0.0048
1919.00,0.0048
1918.00,0.0048
1917.00,0.0048
1916.00,0.0048
1915.00,0.0049
1914.00,0.0048
1913.00,0.0048
1912.00,0.0049
1911.00,0.0050
1910.00,0.0050
1909.00,0.0050
1908.00,0.0050
1907.00,0.0050
1906.00,0.0049
1905.00,0.0048
1904.00,0.0048
1903.00,0.0048
1902.00,0.0048
1901.00,0.0048
1900.00,0.0049
1899.00,0.0049
1898.00,0.0049
1897.00,0.0049
1896.00,0.0049
1895.00,0.0049
1894.00,0.0049
1893.00,0.0048
1892.00,0.0049
1891.00,0.0049
1890.00,0.0049
1889.00,0.0049
1888.00,0.0049
1887.00,0.0048
1886.00,0.0048
1885.00,0.0048
1884.00,0.0048
1883.00,0.0049
1882.00,0.0049
1881.00,0.0049
1880.00,0.0049
1879.00,0.0049
1878.00,0.0049
1877.00,0.0049
1876.00,0.0049
1875.00,0.0049
1874.00,0.0049
1873.00,0.0049
1872.00,0.0050
1871.00,0.0051
1870.00,0.0051
1869.00,0.0051
1868.00,0.0051
1867.00,0.0051
1866.00,0.0050
1865.00,0.0050
1864.00,0.0050
1863.00,0.0050
1862.00,0.0049
1861.00,0.0049
1860.00,0.0050
1859.00,0.0050
1858.00,0.0050
1857.00,0.0050
1856.00,0.0050
1855.00,0.0051
1854.00,0.0050
1853.00,0.0050
1852.00,0.0051
1851.00,0.0051
1850.00,0.0051
1849.00,0.0051
1848.00,0.0051
1847.00,0.0051
1846.00,0.0050
1845.00,0.0050
1844.00,0.0050
1843.00,0.0051
1842.00,0.0051
1841.00,0.0051
1840.00,0.0051
1839.00,0.0051
1838.00,0.0050
1837.00,0.0050
1836.00,0.0050
1835.00,0.0050
1834.00,0.0050
1833.00,0.0050
1832.00,0.0051
1831.00,0.0051
1830.00,0.0052
1829.00,0.0052
1828.00,0.0052
1827.00,0.0052
1826.00,0.0052
1825.00,0.0052
1824.00,0.0052
1823.00,0.0052
1822.00,0.0051
1821.00,0.0050
1820.00,0.0050
1819.00,0.0049
1818.00,0.0048
1817.00,0.0047
1816.00,0.0048
1815.00,0.0048
1814.00,0.0049
1813.00,0.0050
1812.00,0.0051
1811.00,0.0052
1810.00,0.0052
1809.00,0.0051
1808.00,0.0052
1807.00,0.0052
1806.00,0.0052
1805.00,0.0052
1804.00,0.0053
1803.00,0.0053
1802.00,0.0054
1801.00,0.0053
1800.00,0.0054
1799.00,0.0054
1798.00,0.0054
1797.00,0.0054
1796.00,0.0054
1795.00,0.0054
1794.00,0.0053
1793.00,0.0053
1792.00,0.0054
1791.00,0.0055
1790.00,0.0054
1789.00,0.0054
1788.00,0.0055
1787.00,0.0055
1786.00,0.0055
1785.00,0.0056
1784.00,0.0056
1783.00,0.0057
1782.00,0.0057
1781.00,0.0057
1780.00,0.0057
1779.00,0.0057
1778.00,0.0057
1777.00,0.0057
1776.00,0.0057
1775.00,0.0058
1774.00,0.0058
1773.00,0.0058
1772.00,0.0060
1771.00,0.0061
1770.00,0.0061
1769.00,0.0061
1768.00,0.0062
1767.00,0.0062
1766.00,0.0062
1765.00,0.0062
1764.00,0.0063
1763.00,0.0064
1762.00,0.0064
1761.00,0.0065
1760.00,0.0066
1759.00,0.0067
1758.00,0.0067
1757.00,0.0067
1756.00,0.0069
1755.00,0.0069
1754.00,0.0070
1753.00,0.0070
1752.00,0.0072
1751.00,0.0074
1750.00,0.0076
1749.00,0.0077
1748.00,0.0079
1747.00,0.0079
1746.00,0.0079
1745.00,0.0080
1744.00,0.0081
1743.00,0.0081
1742.00,0.0081
1741.00,0.0081
1740.00,0.0082
1739.00,0.0084
1738.00,0.0084
1737.00,0.0084
1736.00,0.0085
1735.00,0.0087
1734.00,0.0089
1733.00,0.0092
1732.00,0.0095
1731.00,0.0097
1730.00,0.0098
1729.00,0.0100
1728.00,0.0102
1727.00,0.0105
1726.00,0.0107
1725.00,0.0110
1724.00,0.0115
1723.00,0.0120
1722.00,0.0124
1721.00,0.0129
1720.00,0.0136
1719.00,0.0145
1718.00,0.0157
1717.00,0.0171
1716.00,0.0186
1715.00,0.0201
1714.00,0.0214
1713.00,0.0228
1712.00,0.0243
1711.00,0.0258
1710.00,0.0272
1709.00,0.0288
1708.00,0.0305
1707.00,0.0324
1706.00,0.0344
1705.00,0.0366
1704.00,0.0387
1703.00,0.0406
1702.00,0.0427
1701.00,0.0455
1700.00,0.0492
1699.00,0.0525
1698.00,0.0552
1697.00,0.0579
1696.00,0.0613
1695.00,0.0651
1694.00,0.0685
1693.00,0.0718
1692.00,0.0751
1691.00,0.0788
1690.00,0.0828
1689.00,0.0869
1688.00,0.0908
1687.00,0.0945
1686.00,0.0985
1685.00,0.1033
1684.00,0.1087
1683.00,0.1137
1682.00,0.1177
1681.00,0.1215
1680.00,0.1254
1679.00,0.1291
1678.00,0.1326
1677.00,0.1361
1676.00,0.1397
1675.00,0.1433
1674.00,0.1465
1673.00,0.1496
1672.00,0.1526
1671.00,0.1555
1670.00,0.1583
1669.00,0.1610
1668.00,0.1637
1667.00,0.1664
1666.00,0.1690
1665.00,0.1717
1664.00,0.1745
1663.00,0.1770
1662.00,0.1792
1661.00,0.1813
1660.00,0.1834
1659.00,0.1854
1658.00,0.1872
1657.00,0.1889
1656.00,0.1906
1655.00,0.1919
1654.00,0.1917
1653.00,0.1895
1652.00,0.1875
1651.00,0.1870
1650.00,0.1871
1649.00,0.1868
1648.00,0.1852
1647.00,0.1819
1646.00,0.1775
1645.00,0.1734
1644.00,0.1699
1643.00,0.1665
1642.00,0.1626
1641.00,0.1582
1640.00,0.1536
1639.00,0.1492
1638.00,0.1446
1637.00,0.1392
1636.00,0.1325
1635.00,0.1258
1634.00,0.1204
1633.00,0.1163
1632.00,0.1127
1631.00,0.1093
1630.00,0.1057
1629.00,0.1020
1628.00,0.0983
1627.00,0.0949
1626.00,0.0919
1625.00,0.0889
1624.00,0.0859
1623.00,0.0826
1622.00,0.0796
1621.00,0.0769
1620.00,0.0745
1619.00,0.0721
1618.00,0.0694
1617.00,0.0663
1616.00,0.0633
1615.00,0.0607
1614.00,0.0586
1613.00,0.0566
1612.00,0.0545
1611.00,0.0524
1610.00,0.0504
1609.00,0.0485
1608.00,0.0466
1607.00,0.0448
1606.00,0.0432
1605.00,0.0416
1604.00,0.0402
1603.00,0.0388
1602.00,0.0375
1601.00,0.0362
1600.00,0.0350
1599.00,0.0339
1598.00,0.0329
1597.00,0.0319
1596.00,0.0310
1595.00,0.0301
1594.00,0.0293
1593.00,0.0286
1592.00,0.0278
1591.00,0.0271
1590.00,0.0265
1589.00,0.0259
1588.00,0.0253
1587.00,0.0248
1586.00,0.0243
1585.00,0.0239
1584.00,0.0235
1583.00,0.0231
1582.00,0.0229
1581.00,0.0226
1580.00,0.0223
1579.00,0.0219
1578.00,0.0215
1577.00,0.0211
1576.00,0.0206
1575.00,0.0201
1574.00,0.0199
1573.00,0.0196
1572.00,0.0193
1571.00,0.0191
1570.00,0.0188
1569.00,0.0187
1568.00,0.0185
1567.00,0.0184
1566.00,0.0184
1565.00,0.0184
1564.00,0.0184
1563.00,0.0183
1562.00,0.0182
1561.00,0.0182
1560.00,0.0182
1559.00,0.0180
1558.00,0.0177
1557.00,0.0174
1556.00,0.0172
1555.00,0.0170
1554.00,0.0168
1553.00,0.0167
1552.00,0.0166
1551.00,0.0166
1550.00,0.0165
1549.00,0.0163
1548.00,0.0162
1547.00,0.0161
1546.00,0.0162
1545.00,0.0162
1544.00,0.0162
1543.00,0.0161
1542.00,0.0160
1541.00,0.0160
1540.00,0.0160
1539.00,0.0160
1538.00,0.0161
1537.00,0.0163
1536.00,0.0164
1535.00,0.0166
1534.00,0.0168
1533.00,0.0170
1532.00,0.0172
1531.00,0.0175
1530.00,0.0177
1529.00,0.0181
1528.00,0.0185
1527.00,0.0190
1526.00,0.0195
1525.00,0.0201
1524.00,0.0207
1523.00,0.0214
1522.00,0.0224
1521.00,0.0236
1520.00,0.0248
1519.00,0.0261
1518.00,0.0275
1517.00,0.0291
1516.00,0.0308
1515.00,0.0324
1514.00,0.0340
1513.00,0.0357
1512.00,0.0376
1511.00,0.0394
1510.00,0.0412
1509.00,0.0430
1508.00,0.0449
1507.00,0.0470
1506.00,0.0490
1505.00,0.0508
1504.00,0.0524
1503.00,0.0538
1502.00,0.0553
1501.00,0.0567
1500.00,0.0581
1499.00,0.0593
1498.00,0.0604
1497.00,0.0613
1496.00,0.0618
1495.00,0.0619
1494.00,0.0616
1493.00,0.0611
1492.00,0.0599
1491.00,0.0581
1490.00,0.0557
1489.00,0.0528
1488.00,0.0497
1487.00,0.0466
1486.00,0.0438
1485.00,0.0412
1484.00,0.0390
1483.00,0.0370
1482.00,0.0353
1481.00,0.0339
1480.00,0.0329
1479.00,0.0322
1478.00,0.0318
1477.00,0.0318
1476.00,0.0321
1475.00,0.0326
1474.00,0.0336
1473.00,0.0353
1472.00,0.0376
1471.00,0.0403
1470.00,0.0432
1469.00,0.0465
1468.00,0.0502
1467.00,0.0543
1466.00,0.0589
1465.00,0.0639
1464.00,0.0685
1463.00,0.0720
1462.00,0.0743
1461.00,0.0756
1460.00,0.0759
1459.00,0.0749
1458.00,0.0724
1457.00,0.0685
1456.00,0.0646
1455.00,0.0617
1454.00,0.0598
1453.00,0.0586
1452.00,0.0581
1451.00,0.0583
1450.00,0.0594
1449.00,0.0612
1448.00,0.0638
1447.00,0.0666
1446.00,0.0695
1445.00,0.0726
1444.00,0.0757
1443.00,0.0789
1442.00,0.0820
1441.00,0.0851
1440.00,0.0879
1439.00,0.0903
1438.00,0.0924
1437.00,0.0942
1436.00,0.0956
1435.00,0.0965
1434.00,0.0970
1433.00,0.0974
1432.00,0.0977
1431.00,0.0981
1430.00,0.0988
1429.00,0.1002
1428.00,0.1022
1427.00,0.1047
1426.00,0.1077
1425.00,0.1110
1424.00,0.1142
1423.00,0.1167
1422.00,0.1183
1421.00,0.1188
1420.00,0.1177
1419.00,0.1143
1418.00,0.1090
1417.00,0.1028
1416.00,0.0958
1415.00,0.0884
1414.00,0.0808
1413.00,0.0737
1412.00,0.0671
1411.00,0.0612
1410.00,0.0562
1409.00,0.0520
1408.00,0.0485
1407.00,0.0455
1406.00,0.0428
1405.00,0.0405
1404.00,0.0384
1403.00,0.0367
1402.00,0.0353
1401.00,0.0343
1400.00,0.0334
1399.00,0.0326
1398.00,0.0320
1397.00,0.0317
1396.00,0.0315
1395.00,0.0315
1394.00,0.0317
1393.00,0.0321
1392.00,0.0327
1391.00,0.0335
1390.00,0.0346
1389.00,0.0359
1388.00,0.0375
1387.00,0.0393
1386.00,0.0411
1385.00,0.0428
1384.00,0.0443
1383.00,0.0455
1382.00,0.0464
1381.00,0.0470
1380.00,0.0472
1379.00,0.0472
1378.00,0.0471
1377.00,0.0469
1376.00,0.0469
1375.00,0.0469
1374.00,0.0471
1373.00,0.0473
1372.00,0.0476
1371.00,0.0480
1370.00,0.0484
1369.00,0.0489
1368.00,0.0491
1367.00,0.0490
1366.00,0.0487
1365.00,0.0480
1364.00,0.0469
1363.00,0.0453
1362.00,0.0435
1361.00,0.0415
1360.00,0.0396
1359.00,0.0379
1358.00,0.0364
1357.00,0.0351
1356.00,0.0338
1355.00,0.0327
1354.00,0.0316
1353.00,0.0307
1352.00,0.0298
1351.00,0.0290
1350.00,0.0283
1349.00,0.0278
1348.00,0.0274
1347.00,0.0272
1346.00,0.0271
1345.00,0.0271
1344.00,0.0273
1343.00,0.0276
1342.00,0.0280
1341.00,0.0286
1340.00,0.0292
1339.00,0.0298
1338.00,0.0305
1337.00,0.0311
1336.00,0.0318
1335.00,0.0325
1334.00,0.0333
1333.00,0.0342
1332.00,0.0351
1331.00,0.0360
1330.00,0.0370
1329.00,0.0381
1328.00,0.0393
1327.00,0.0405
1326.00,0.0418
1325.00,0.0433
1324.00,0.0448
1323.00,0.0464
1322.00,0.0481
1321.00,0.0497
1320.00,0.0513
1319.00,0.0526
1318.00,0.0537
1317.00,0.0546
1316.00,0.0551
1315.00,0.0553
1314.00,0.0552
1313.00,0.0550
1312.00,0.0547
1311.00,0.0543
1310.00,0.0541
1309.00,0.0540
1308.00,0.0542
1307.00,0.0546
1306.00,0.0552
1305.00,0.0559
1304.00,0.0567
1303.00,0.0577
1302.00,0.0589
1301.00,0.0605
1300.00,0.0627
1299.00,0.0657
1298.00,0.0695
1297.00,0.0744
1296.00,0.0801
1295.00,0.0866
1294.00,0.0935
1293.00,0.1004
1292.00,0.1072
1291.00,0.1133
1290.00,0.1186
1289.00,0.1229
1288.00,0.1261
1287.00,0.1280
1286.00,0.1288
1285.00,0.1286
1284.00,0.1277
1283.00,0.1265
1282.00,0.1252
1281.00,0.1243
1280.00,0.1239
1279.00,0.1241
1278.00,0.1248
1277.00,0.1259
1276.00,0.1272
1275.00,0.1284
1274.00,0.1291
1273.00,0.1293
1272.00,0.1288
1271.00,0.1273
1270.00,0.1249
1269.00,0.1217
1268.00,0.1177
1267.00,0.1132
1266.00,0.1084
1265.00,0.1033
1264.00,0.0983
1263.00,0.0933
1262.00,0.0885
1261.00,0.0838
1260.00,0.0795
1259.00,0.0755
1258.00,0.0719
1257.00,0.0687
1256.00,0.0660
1255.00,0.0637
1254.00,0.0619
1253.00,0.0604
1252.00,0.0589
1251.00,0.0575
1250.00,0.0561
1249.00,0.0546
1248.00,0.0532
1247.00,0.0518
1246.00,0.0507
1245.00,0.0498
1244.00,0.0492
1243.00,0.0488
1242.00,0.0486
1241.00,0.0487
1240.00,0.0490
1239.00,0.0494
1238.00,0.0501
1237.00,0.0510
1236.00,0.0521
1235.00,0.0533
1234.00,0.0546
1233.00,0.0560
1232.00,0.0576
1231.00,0.0592
1230.00,0.0610
1229.00,0.0629
1228.00,0.0649
1227.00,0.0671
1226.00,0.0695
1225.00,0.0720
1224.00,0.0747
1223.00,0.0775
1222.00,0.0802
1221.00,0.0829
1220.00,0.0854
1219.00,0.0878
1218.00,0.0901
1217.00,0.0923
1216.00,0.0944
1215.00,0.0964
1214.00,0.0982
1213.00,0.0998
1212.00,0.1010
1211.00,0.1018
1210.00,0.1021
1209.00,0.1020
1208.00,0.1014
1207.00,0.1003
1206.00,0.0988
1205.00,0.0969
1204.00,0.0946
1203.00,0.0919
1202.00,0.0889
1201.00,0.0856
1200.00,0.0821
1199.00,0.0785
1198.00,0.0750
1197.00,0.0716
1196.00,0.0686
1195.00,0.0659
1194.00,0.0637
1193.00,0.0619
1192.00,0.0604
1191.00,0.0593
1190.00,0.0584
1189.00,0.0577
1188.00,0.0570
1187.00,0.0563
1186.00,0.0556
1185.00,0.0549
1184.00,0.0541
1183.00,0.0534
1182.00,0.0527
1181.00,0.0522
1180.00,0.0518
1179.00,0.0515
1178.00,0.0514
1177.00,0.0514
1176.00,0.0516
1175.00,0.0518
1174.00,0.0522
1173.00,0.0525
1172.00,0.0528
1171.00,0.0529
1170.00,0.0527
1169.00,0.0523
1168.00,0.0516
1167.00,0.0506
1166.00,0.0494
1165.00,0.0481
1164.00,0.0469
1163.00,0.0456
1162.00,0.0445
1161.00,0.0434
1160.00,0.0425
1159.00,0.0417
1158.00,0.0409
1157.00,0.0402
1156.00,0.0396
1155.00,0.0390
1154.00,0.0386
1153.00,0.0383
1152.00,0.0382
1151.00,0.0383
1150.00,0.0388
1149.00,0.0396
1148.00,0.0406
1147.00,0.0419
1146.00,0.0434
1145.00,0.0452
1144.00,0.0471
1143.00,0.0490
1142.00,0.0509
1141.00,0.0525
1140.00,0.0535
1139.00,0.0538
1138.00,0.0532
1137.00,0.0519
1136.00,0.0501
1135.00,0.0480
1134.00,0.0461
1133.00,0.0445
1132.00,0.0433
1131.00,0.0426
1130.00,0.0424
1129.00,0.0428
1128.00,0.0436
1127.00,0.0450
1126.00,0.0468
1125.00,0.0490
1124.00,0.0515
1123.00,0.0543
1122.00,0.0572
1121.00,0.0601
1120.00,0.0628
1119.00,0.0651
1118.00,0.0669
1117.00,0.0680
1116.00,0.0685
1115.00,0.0683
1114.00,0.0674
1113.00,0.0661
1112.00,0.0645
1111.00,0.0629
1110.00,0.0614
1109.00,0.0604
1108.00,0.0602
1107.00,0.0607
1106.00,0.0621
1105.00,0.0642
1104.00,0.0668
1103.00,0.0694
1102.00,0.0718
1101.00,0.0737
1100.00,0.0748
1099.00,0.0751
1098.00,0.0746
1097.00,0.0734
1096.00,0.0717
1095.00,0.0697
1094.00,0.0676
1093.00,0.0654
1092.00,0.0632
1091.00,0.0608
1090.00,0.0583
1089.00,0.0557
1088.00,0.0531
1087.00,0.0504
1086.00,0.0479
1085.00,0.0456
1084.00,0.0436
1083.00,0.0418
1082.00,0.0403
1081.00,0.0392
1080.00,0.0382
1079.00,0.0375
1078.00,0.0370
1077.00,0.0366
1076.00,0.0362
1075.00,0.0358
1074.00,0.0354
1073.00,0.0349
1072.00,0.0344
1071.00,0.0339
1070.00,0.0334
1069.00,0.0329
1068.00,0.0326
1067.00,0.0325
1066.00,0.0325
1065.00,0.0328
1064.00,0.0332
1063.00,0.0339
1062.00,0.0348
1061.00,0.0358
1060.00,0.0370
1059.00,0.0383
1058.00,0.0395
1057.00,0.0407
1056.00,0.0417
1055.00,0.0425
1054.00,0.0431
1053.00,0.0434
1052.00,0.0435
1051.00,0.0435
1050.00,0.0435
1049.00,0.0435
1048.00,0.0436
1047.00,0.0439
1046.00,0.0444
1045.00,0.0448
1044.00,0.0451
1043.00,0.0449
1042.00,0.0443
1041.00,0.0433
1040.00,0.0422
1039.00,0.0412
1038.00,0.0405
1037.00,0.0402
1036.00,0.0401
1035.00,0.0402
1034.00,0.0405
1033.00,0.0410
1032.00,0.0417
1031.00,0.0425
1030.00,0.0435
1029.00,0.0447
1028.00,0.0461
1027.00,0.0475
1026.00,0.0490
1025.00,0.0505
1024.00,0.0518
1023.00,0.0530
1022.00,0.0538
1021.00,0.0544
1020.00,0.0545
1019.00,0.0543
1018.00,0.0536
1017.00,0.0526
1016.00,0.0512
1015.00,0.0495
1014.00,0.0474
1013.00,0.0453
1012.00,0.0431
1011.00,0.0411
1010.00,0.0393
1009.00,0.0378
1008.00,0.0368
1007.00,0.0361
1006.00,0.0357
1005.00,0.0356
1004.00,0.0357
1003.00,0.0356
1002.00,0.0353
1001.00,0.0347
1000.00,0.0338
999.00,0.0327
998.00,0.0316
997.00,0.0304
996.00,0.0294
995.00,0.0284
994.00,0.0275
993.00,0.0268
992.00,0.0262
991.00,0.0256
990.00,0.0252
989.00,0.0249
988.00,0.0246
987.00,0.0244
986.00,0.0242
985.00,0.0240
984.00,0.0239
983.00,0.0237
982.00,0.0235
981.00,0.0233
980.00,0.0231
979.00,0.0229
978.00,0.0228
977.00,0.0226
976.00,0.0224
975.00,0.0222
974.00,0.0220
973.00,0.0218
972.00,0.0216
971.00,0.0214
970.00,0.0212
969.00,0.0210
968.00,0.0209
967.00,0.0208
966.00,0.0207
965.00,0.0207
964.00,0.0207
963.00,0.0207
962.00,0.0208
961.00,0.0210
960.00,0.0211
959.00,0.0213
958.00,0.0215
957.00,0.0216
956.00,0.0216
955.00,0.0216
954.00,0.0216
953.00,0.0215
952.00,0.0213
951.00,0.0211
950.00,0.0208
949.00,0.0206
948.00,0.0204
947.00,0.0202
946.00,0.0201
945.00,0.0200
944.00,0.0199
943.00,0.0200
942.00,0.0202
941.00,0.0205
940.00,0.0209
939.00,0.0215
938.00,0.0222
937.00,0.0230
936.00,0.0237
935.00,0.0243
934.00,0.0247
933.00,0.0249
932.00,0.0247
931.00,0.0243
930.00,0.0237
929.00,0.0232
928.00,0.0228
927.00,0.0224
926.00,0.0221
925.00,0.0218
924.00,0.0215
923.00,0.0212
922.00,0.0209
921.00,0.0207
920.00,0.0205
919.00,0.0204
918.00,0.0203
917.00,0.0202
916.00,0.0202
915.00,0.0201
914.00,0.0201
913.00,0.0201
912.00,0.0202
911.00,0.0202
910.00,0.0203
909.00,0.0204
908.00,0.0206
907.00,0.0207
906.00,0.0209
905.00,0.0212
904.00,0.0215
903.00,0.0218
902.00,0.0221
901.00,0.0224
900.00,0.0228
899.00,0.0230
898.00,0.0233
897.00,0.0235
896.00,0.0236
895.00,0.0235
894.00,0.0234
893.00,0.0231
892.00,0.0229
891.00,0.0225
890.00,0.0222
889.00,0.0218
888.00,0.0214
887.00,0.0211
886.00,0.0208
885.00,0.0206
884.00,0.0204
883.00,0.0202
882.00,0.0201
881.00,0.0200
880.00,0.0200
879.00,0.0200
878.00,0.0201
877.00,0.0202
876.00,0.0204
875.00,0.0205
874.00,0.0208
873.00,0.0210
872.00,0.0214
871.00,0.0218
870.00,0.0224
869.00,0.0231
868.00,0.0239
867.00,0.0247
866.00,0.0254
865.00,0.0260
864.00,0.0265
863.00,0.0268
862.00,0.0270
861.00,0.0271
860.00,0.0274
859.00,0.0278
858.00,0.0284
857.00,0.0292
856.00,0.0301
855.00,0.0310
854.00,0.0319
853.00,0.0328
852.00,0.0336
851.00,0.0343
850.00,0.0349
849.00,0.0355
848.00,0.0360
847.00,0.0364
846.00,0.0366
845.00,0.0367
844.00,0.0367
843.00,0.0365
842.00,0.0362
841.00,0.0359
840.00,0.0354
839.00,0.0348
838.00,0.0342
837.00,0.0336
836.00,0.0329
835.00,0.0323
834.00,0.0316
833.00,0.0310
832.00,0.0304
831.00,0.0298
830.00,0.0293
829.00,0.0287
828.00,0.0282
827.00,0.0277
826.00,0.0273
825.00,0.0270
824.00,0.0268
823.00,0.0266
822.00,0.0265
821.00,0.0263
820.00,0.0262
819.00,0.0261
818.00,0.0260
817.00,0.0260
816.00,0.0260
815.00,0.0261
814.00,0.0261
813.00,0.0262
812.00,0.0264
811.00,0.0266
810.00,0.0270
809.00,0.0274
808.00,0.0280
807.00,0.0288
806.00,0.0297
805.00,0.0308
804.00,0.0321
803.00,0.0333
802.00,0.0346
801.00,0.0357
800.00,0.0367
799.00,0.0375
798.00,0.0381
797.00,0.0384
796.00,0.0386
795.00,0.0385
794.00,0.0383
793.00,0.0380
792.00,0.0376
791.00,0.0372
790.00,0.0367
789.00,0.0363
788.00,0.0361
787.00,0.0360
786.00,0.0363
785.00,0.0370
784.00,0.0380
783.00,0.0393
782.00,0.0407
781.00,0.0420
780.00,0.0429
779.00,0.0433
778.00,0.0431
777.00,0.0425
776.00,0.0416
775.00,0.0405
774.00,0.0394
773.00,0.0384
772.00,0.0376
771.00,0.0370
770.00,0.0365
769.00,0.0363
768.00,0.0362
767.00,0.0362
766.00,0.0364
765.00,0.0366
764.00,0.0370
763.00,0.0375
762.00,0.0380
761.00,0.0385
760.00,0.0392
759.00,0.0398
758.00,0.0405
757.00,0.0412
756.00,0.0419
755.00,0.0426
754.00,0.0432
753.00,0.0438
752.00,0.0445
751.00,0.0451
750.00,0.0457
749.00,0.0463
748.00,0.0468
747.00,0.0472
746.00,0.0476
745.00,0.0479
744.00,0.0483
743.00,0.0489
742.00,0.0497
741.00,0.0510
740.00,0.0529
739.00,0.0553
738.00,0.0579
737.00,0.0606
736.00,0.0627
735.00,0.0642
734.00,0.0648
733.00,0.0647
732.00,0.0641
731.00,0.0632
730.00,0.0620
729.00,0.0604
728.00,0.0587
727.00,0.0566
726.00,0.0544
725.00,0.0523
724.00,0.0502
723.00,0.0484
722.00,0.0468
721.00,0.0455
720.00,0.0445
719.00,0.0437
718.00,0.0432
717.00,0.0427
716.00,0.0423
715.00,0.0419
714.00,0.0417
713.00,0.0415
712.00,0.0414
711.00,0.0414
710.00,0.0414
709.00,0.0414
708.00,0.0414
707.00,0.0415
706.00,0.0416
705.00,0.0418
704.00,0.0419
703.00,0.0421
702.00,0.0422
701.00,0.0423
700.00,0.0425
699.00,0.0426
698.00,0.0428
697.00,0.0430
696.00,0.0433
695.00,0.0436
694.00,0.0439
693.00,0.0443
692.00,0.0447
691.00,0.0452
690.00,0.0456
689.00,0.0462
688.00,0.0468
687.00,0.0474
686.00,0.0480
685.00,0.0487
684.00,0.0493
683.00,0.0499
682.00,0.0504
681.00,0.0509
680.00,0.0514
679.00,0.0519
678.00,0.0524
677.00,0.0530
676.00,0.0535
675.00,0.0542
674.00,0.0549
673.00,0.0557
672.00,0.0565
671.00,0.0574
670.00,0.0585
669.00,0.0598
668.00,0.0614
667.00,0.0627
666.00,0.0636
665.00,0.0644
664.00,0.0653
663.00,0.0664
662.00,0.0675
661.00,0.0687
660.00,0.0699
659.00,0.0713
658.00,0.0726
657.00,0.0739
656.00,0.0752
655.00,0.0765
654.00,0.0776
653.00,0.0787
652.00,0.0796
651.00,0.0805
650.00,0.0811
649.00,0.0815
648.00,0.0818
647.00,0.0818
646.00,0.0815
645.00,0.0811
644.00,0.0805
643.00,0.0797
642.00,0.0787
641.00,0.0777
640.00,0.0768
639.00,0.0758
638.00,0.0749
637.00,0.0741
636.00,0.0733
635.00,0.0725
634.00,0.0717
633.00,0.0709
632.00,0.0703
631.00,0.0697
630.00,0.0692
629.00,0.0687
628.00,0.0682
627.00,0.0678
626.00,0.0674
625.00,0.0671
624.00,0.0668
623.00,0.0666
622.00,0.0664
621.00,0.0663
620.00,0.0662
619.00,0.0661
618.00,0.0660
617.00,0.0660
616.00,0.0661
615.00,0.0662
614.00,0.0662
613.00,0.0661
612.00,0.0659
611.00,0.0657
610.00,0.0657
609.00,0.0661
608.00,0.0666
607.00,0.0672
606.00,0.0676
605.00,0.0679
604.00,0.0684
603.00,0.0689
602.00,0.0694
601.00,0.0699
600.00,0.0704
599.00,0.0708
598.00,0.0712
597.00,0.0716
596.00,0.0722
595.00,0.0729
594.00,0.0736
593.00,0.0744
592.00,0.0754
591.00,0.0763
590.00,0.0773
589.00,0.0782
588.00,0.0793
587.00,0.0803
586.00,0.0812
585.00,0.0822
584.00,0.0832
583.00,0.0843
582.00,0.0852
581.00,0.0862
580.00,0.0872
579.00,0.0881
578.00,0.0888
577.00,0.0894
576.00,0.0900
575.00,0.0904
574.00,0.0907
573.00,0.0909
572.00,0.0911
571.00,0.0911
570.00,0.0909
569.00,0.0906
568.00,0.0903
567.00,0.0899
566.00,0.0892
565.00,0.0885
564.00,0.0878
563.00,0.0869
562.00,0.0859
561.00,0.0849
560.00,0.0841
559.00,0.0834
558.00,0.0827
557.00,0.0821
556.00,0.0816
555.00,0.0811
554.00,0.0806
553.00,0.0800
552.00,0.0796
551.00,0.0792
550.00,0.0787
549.00,0.0782
548.00,0.0780
547.00,0.0778
546.00,0.0775
545.00,0.0774
544.00,0.0773
543.00,0.0773
542.00,0.0772
541.00,0.0773
540.00,0.0775
539.00,0.0778
538.00,0.0780
537.00,0.0782
536.00,0.0786
535.00,0.0792
534.00,0.0798
533.00,0.0807
532.00,0.0817
531.00,0.0825
530.00,0.0827
529.00,0.0825
528.00,0.0818
527.00,0.0807
526.00,0.0795
525.00,0.0785
524.00,0.0779
523.00,0.0774
522.00,0.0770
521.00,0.0766
520.00,0.0764
519.00,0.0761
518.00,0.0759
517.00,0.0758
516.00,0.0756
515.00,0.0754
514.00,0.0751
513.00,0.0749
512.00,0.0749
511.00,0.0749
510.00,0.0748
509.00,0.0748
508.00,0.0749
507.00,0.0749
506.00,0.0748
505.00,0.0748
504.00,0.0749
503.00,0.0751
502.00,0.0751
501.00,0.0751
500.00,0.0752
499.00,0.0753
498.00,0.0752
497.00,0.0752
496.00,0.0754
495.00,0.0756
494.00,0.0758
493.00,0.0760
492.00,0.0763
491.00,0.0764
490.00,0.0764
489.00,0.0765
488.00,0.0767
487.00,0.0770
486.00,0.0772
485.00,0.0773
484.00,0.0775
483.00,0.0776
482.00,0.0775
481.00,0.0774
480.00,0.0774
479.00,0.0774
478.00,0.0775
477.00,0.0775
476.00,0.0777
475.00,0.0779
474.00,0.0781
473.00,0.0786
472.00,0.0793
471.00,0.0800
470.00,0.0805
469.00,0.0810
468.00,0.0816
467.00,0.0820
466.00,0.0820
465.00,0.0819
464.00,0.0818
463.00,0.0816
462.00,0.0813
461.00,0.0808
460.00,0.0805
459.00,0.0801
458.00,0.0794
457.00,0.0787
456.00,0.0781
455.00,0.0774
454.00,0.0767
453.00,0.0763
452.00,0.0761
451.00,0.0758
450.00,0.0753
449.00,0.0748
448.00,0.0745
447.00,0.0742
446.00,0.0737
445.00,0.0731
444.00,0.0728
443.00,0.0725
442.00,0.0721
441.00,0.0718
440.00,0.0716
439.00,0.0715
438.00,0.0712
437.00,0.0709
436.00,0.0708
435.00,0.0705
434.00,0.0700
433.00,0.0694
432.00,0.0690
431.00,0.0686
430.00,0.0682
429.00,0.0679
428.00,0.0679
427.00,0.0679
426.00,0.0679
425.00,0.0679
424.00,0.0679
423.00,0.0678
422.00,0.0675
421.00,0.0671
420.00,0.0671
419.00,0.0672
418.00,0.0672
417.00,0.0673
416.00,0.0675
415.00,0.0675
414.00,0.0671
413.00,0.0668
412.00,0.0669
411.00,0.0669
410.00,0.0665
409.00,0.0660
408.00,0.0658
407.00,0.0660
406.00,0.0666
405.00,0.0674
404.00,0.0681
403.00,0.0682
402.00,0.0676
401.00,0.0673
400.00,0.0676
