Created as New Dataset,Sample 473 By YargerLab Date Friday, January 30 2026
cm-1,A
4000.00,0.0132
3999.00,0.0133
3998.00,0.0133
3997.00,0.0133
3996.00,0.0133
3995.00,0.0132
3994.00,0.0132
3993.00,0.0132
3992.00,0.0132
3991.00,0.0132
3990.00,0.0132
3989.00,0.0132
3988.00,0.0132
3987.00,0.0132
3986.00,0.0132
3985.00,0.0132
3984.00,0.0132
3983.00,0.0132
3982.00,0.0132
3981.00,0.0132
3980.00,0.0132
3979.00,0.0132
3978.00,0.0133
3977.00,0.0133
3976.00,0.0133
3975.00,0.0133
3974.00,0.0132
3973.00,0.0132
3972.00,0.0132
3971.00,0.0132
3970.00,0.0132
3969.00,0.0132
3968.00,0.0132
3967.00,0.0132
3966.00,0.0132
3965.00,0.0132
3964.00,0.0132
3963.00,0.0132
3962.00,0.0132
3961.00,0.0132
3960.00,0.0132
3959.00,0.0132
3958.00,0.0132
3957.00,0.0132
3956.00,0.0132
3955.00,0.0132
3954.00,0.0132
3953.00,0.0132
3952.00,0.0132
3951.00,0.0132
3950.00,0.0132
3949.00,0.0132
3948.00,0.0132
3947.00,0.0132
3946.00,0.0132
3945.00,0.0132
3944.00,0.0132
3943.00,0.0133
3942.00,0.0133
3941.00,0.0133
3940.00,0.0133
3939.00,0.0133
3938.00,0.0133
3937.00,0.0133
3936.00,0.0132
3935.00,0.0132
3934.00,0.0132
3933.00,0.0132
3932.00,0.0132
3931.00,0.0132
3930.00,0.0132
3929.00,0.0132
3928.00,0.0132
3927.00,0.0132
3926.00,0.0132
3925.00,0.0132
3924.00,0.0132
3923.00,0.0132
3922.00,0.0132
3921.00,0.0132
3920.00,0.0132
3919.00,0.0132
3918.00,0.0132
3917.00,0.0132
3916.00,0.0132
3915.00,0.0132
3914.00,0.0132
3913.00,0.0132
3912.00,0.0132
3911.00,0.0132
3910.00,0.0132
3909.00,0.0132
3908.00,0.0131
3907.00,0.0131
3906.00,0.0131
3905.00,0.0131
3904.00,0.0131
3903.00,0.0131
3902.00,0.0131
3901.00,0.0130
3900.00,0.0130
3899.00,0.0130
3898.00,0.0130
3897.00,0.0131
3896.00,0.0131
3895.00,0.0131
3894.00,0.0131
3893.00,0.0131
3892.00,0.0131
3891.00,0.0131
3890.00,0.0131
3889.00,0.0131
3888.00,0.0130
3887.00,0.0130
3886.00,0.0130
3885.00,0.0130
3884.00,0.0130
3883.00,0.0130
3882.00,0.0130
3881.00,0.0130
3880.00,0.0130
3879.00,0.0130
3878.00,0.0130
3877.00,0.0130
3876.00,0.0130
3875.00,0.0130
3874.00,0.0130
3873.00,0.0130
3872.00,0.0130
3871.00,0.0130
3870.00,0.0130
3869.00,0.0130
3868.00,0.0130
3867.00,0.0130
3866.00,0.0129
3865.00,0.0129
3864.00,0.0129
3863.00,0.0129
3862.00,0.0129
3861.00,0.0129
3860.00,0.0129
3859.00,0.0129
3858.00,0.0129
3857.00,0.0130
3856.00,0.0130
3855.00,0.0130
3854.00,0.0130
3853.00,0.0130
3852.00,0.0130
3851.00,0.0130
3850.00,0.0129
3849.00,0.0129
3848.00,0.0129
3847.00,0.0129
3846.00,0.0129
3845.00,0.0129
3844.00,0.0129
3843.00,0.0129
3842.00,0.0130
3841.00,0.0130
3840.00,0.0130
3839.00,0.0130
3838.00,0.0129
3837.00,0.0129
3836.00,0.0129
3835.00,0.0128
3834.00,0.0128
3833.00,0.0129
3832.00,0.0129
3831.00,0.0129
3830.00,0.0129
3829.00,0.0129
3828.00,0.0129
3827.00,0.0129
3826.00,0.0129
3825.00,0.0129
3824.00,0.0129
3823.00,0.0129
3822.00,0.0129
3821.00,0.0129
3820.00,0.0129
3819.00,0.0129
3818.00,0.0129
3817.00,0.0129
3816.00,0.0129
3815.00,0.0129
3814.00,0.0129
3813.00,0.0129
3812.00,0.0129
3811.00,0.0129
3810.00,0.0129
3809.00,0.0128
3808.00,0.0128
3807.00,0.0128
3806.00,0.0128
3805.00,0.0128
3804.00,0.0128
3803.00,0.0128
3802.00,0.0128
3801.00,0.0128
3800.00,0.0128
3799.00,0.0128
3798.00,0.0128
3797.00,0.0128
3796.00,0.0128
3795.00,0.0128
3794.00,0.0128
3793.00,0.0128
3792.00,0.0128
3791.00,0.0128
3790.00,0.0128
3789.00,0.0128
3788.00,0.0128
3787.00,0.0128
3786.00,0.0128
3785.00,0.0128
3784.00,0.0128
3783.00,0.0128
3782.00,0.0128
3781.00,0.0128
3780.00,0.0128
3779.00,0.0128
3778.00,0.0128
3777.00,0.0128
3776.00,0.0127
3775.00,0.0127
3774.00,0.0127
3773.00,0.0128
3772.00,0.0128
3771.00,0.0128
3770.00,0.0128
3769.00,0.0128
3768.00,0.0128
3767.00,0.0128
3766.00,0.0128
3765.00,0.0128
3764.00,0.0128
3763.00,0.0127
3762.00,0.0127
3761.00,0.0127
3760.00,0.0127
3759.00,0.0127
3758.00,0.0127
3757.00,0.0127
3756.00,0.0127
3755.00,0.0127
3754.00,0.0127
3753.00,0.0127
3752.00,0.0127
3751.00,0.0127
3750.00,0.0127
3749.00,0.0128
3748.00,0.0128
3747.00,0.0128
3746.00,0.0128
3745.00,0.0127
3744.00,0.0127
3743.00,0.0127
3742.00,0.0126
3741.00,0.0126
3740.00,0.0125
3739.00,0.0125
3738.00,0.0125
3737.00,0.0125
3736.00,0.0125
3735.00,0.0125
3734.00,0.0124
3733.00,0.0124
3732.00,0.0125
3731.00,0.0125
3730.00,0.0125
3729.00,0.0125
3728.00,0.0125
3727.00,0.0125
3726.00,0.0125
3725.00,0.0125
3724.00,0.0125
3723.00,0.0125
3722.00,0.0125
3721.00,0.0125
3720.00,0.0125
3719.00,0.0125
3718.00,0.0125
3717.00,0.0125
3716.00,0.0125
3715.00,0.0125
3714.00,0.0125
3713.00,0.0125
3712.00,0.0124
3711.00,0.0124
3710.00,0.0124
3709.00,0.0124
3708.00,0.0124
3707.00,0.0124
3706.00,0.0124
3705.00,0.0124
3704.00,0.0123
3703.00,0.0123
3702.00,0.0123
3701.00,0.0123
3700.00,0.0123
3699.00,0.0123
3698.00,0.0123
3697.00,0.0123
3696.00,0.0123
3695.00,0.0123
3694.00,0.0123
3693.00,0.0123
3692.00,0.0123
3691.00,0.0122
3690.00,0.0122
3689.00,0.0123
3688.00,0.0123
3687.00,0.0123
3686.00,0.0122
3685.00,0.0122
3684.00,0.0122
3683.00,0.0122
3682.00,0.0122
3681.00,0.0122
3680.00,0.0122
3679.00,0.0122
3678.00,0.0122
3677.00,0.0122
3676.00,0.0122
3675.00,0.0122
3674.00,0.0122
3673.00,0.0122
3672.00,0.0122
3671.00,0.0122
3670.00,0.0122
3669.00,0.0122
3668.00,0.0122
3667.00,0.0122
3666.00,0.0122
3665.00,0.0122
3664.00,0.0122
3663.00,0.0122
3662.00,0.0122
3661.00,0.0122
3660.00,0.0122
3659.00,0.0122
3658.00,0.0122
3657.00,0.0122
3656.00,0.0122
3655.00,0.0122
3654.00,0.0122
3653.00,0.0121
3652.00,0.0121
3651.00,0.0121
3650.00,0.0121
3649.00,0.0121
3648.00,0.0121
3647.00,0.0120
3646.00,0.0120
3645.00,0.0120
3644.00,0.0121
3643.00,0.0121
3642.00,0.0121
3641.00,0.0121
3640.00,0.0121
3639.00,0.0120
3638.00,0.0120
3637.00,0.0120
3636.00,0.0120
3635.00,0.0120
3634.00,0.0120
3633.00,0.0120
3632.00,0.0120
3631.00,0.0120
3630.00,0.0120
3629.00,0.0120
3628.00,0.0120
3627.00,0.0120
3626.00,0.0120
3625.00,0.0120
3624.00,0.0120
3623.00,0.0120
3622.00,0.0120
3621.00,0.0120
3620.00,0.0120
3619.00,0.0120
3618.00,0.0120
3617.00,0.0120
3616.00,0.0120
3615.00,0.0120
3614.00,0.0120
3613.00,0.0120
3612.00,0.0120
3611.00,0.0120
3610.00,0.0120
3609.00,0.0120
3608.00,0.0120
3607.00,0.0119
3606.00,0.0119
3605.00,0.0119
3604.00,0.0119
3603.00,0.0119
3602.00,0.0119
3601.00,0.0119
3600.00,0.0119
3599.00,0.0119
3598.00,0.0119
3597.00,0.0119
3596.00,0.0119
3595.00,0.0118
3594.00,0.0118
3593.00,0.0118
3592.00,0.0118
3591.00,0.0118
3590.00,0.0118
3589.00,0.0118
3588.00,0.0118
3587.00,0.0118
3586.00,0.0118
3585.00,0.0118
3584.00,0.0118
3583.00,0.0118
3582.00,0.0118
3581.00,0.0118
3580.00,0.0118
3579.00,0.0118
3578.00,0.0118
3577.00,0.0118
3576.00,0.0118
3575.00,0.0118
3574.00,0.0118
3573.00,0.0118
3572.00,0.0118
3571.00,0.0118
3570.00,0.0118
3569.00,0.0118
3568.00,0.0118
3567.00,0.0118
3566.00,0.0118
3565.00,0.0118
3564.00,0.0118
3563.00,0.0118
3562.00,0.0118
3561.00,0.0118
3560.00,0.0118
3559.00,0.0118
3558.00,0.0118
3557.00,0.0118
3556.00,0.0118
3555.00,0.0118
3554.00,0.0118
3553.00,0.0118
3552.00,0.0118
3551.00,0.0118
3550.00,0.0118
3549.00,0.0118
3548.00,0.0118
3547.00,0.0118
3546.00,0.0118
3545.00,0.0118
3544.00,0.0118
3543.00,0.0117
3542.00,0.0117
3541.00,0.0117
3540.00,0.0118
3539.00,0.0117
3538.00,0.0117
3537.00,0.0118
3536.00,0.0118
3535.00,0.0118
3534.00,0.0118
3533.00,0.0118
3532.00,0.0118
3531.00,0.0118
3530.00,0.0118
3529.00,0.0117
3528.00,0.0117
3527.00,0.0117
3526.00,0.0118
3525.00,0.0118
3524.00,0.0118
3523.00,0.0118
3522.00,0.0118
3521.00,0.0118
3520.00,0.0117
3519.00,0.0117
3518.00,0.0117
3517.00,0.0117
3516.00,0.0117
3515.00,0.0117
3514.00,0.0117
3513.00,0.0117
3512.00,0.0117
3511.00,0.0117
3510.00,0.0117
3509.00,0.0116
3508.00,0.0116
3507.00,0.0116
3506.00,0.0117
3505.00,0.0117
3504.00,0.0117
3503.00,0.0116
3502.00,0.0116
3501.00,0.0116
3500.00,0.0116
3499.00,0.0116
3498.00,0.0116
3497.00,0.0116
3496.00,0.0116
3495.00,0.0116
3494.00,0.0116
3493.00,0.0116
3492.00,0.0116
3491.00,0.0116
3490.00,0.0116
3489.00,0.0116
3488.00,0.0116
3487.00,0.0116
3486.00,0.0116
3485.00,0.0116
3484.00,0.0116
3483.00,0.0116
3482.00,0.0116
3481.00,0.0116
3480.00,0.0116
3479.00,0.0115
3478.00,0.0115
3477.00,0.0115
3476.00,0.0115
3475.00,0.0115
3474.00,0.0115
3473.00,0.0115
3472.00,0.0114
3471.00,0.0114
3470.00,0.0114
3469.00,0.0114
3468.00,0.0114
3467.00,0.0114
3466.00,0.0114
3465.00,0.0114
3464.00,0.0114
3463.00,0.0114
3462.00,0.0114
3461.00,0.0114
3460.00,0.0114
3459.00,0.0114
3458.00,0.0114
3457.00,0.0114
3456.00,0.0114
3455.00,0.0114
3454.00,0.0114
3453.00,0.0114
3452.00,0.0114
3451.00,0.0114
3450.00,0.0114
3449.00,0.0114
3448.00,0.0114
3447.00,0.0114
3446.00,0.0114
3445.00,0.0114
3444.00,0.0114
3443.00,0.0114
3442.00,0.0114
3441.00,0.0114
3440.00,0.0115
3439.00,0.0115
3438.00,0.0115
3437.00,0.0115
3436.00,0.0115
3435.00,0.0115
3434.00,0.0115
3433.00,0.0115
3432.00,0.0115
3431.00,0.0115
3430.00,0.0115
3429.00,0.0115
3428.00,0.0115
3427.00,0.0115
3426.00,0.0116
3425.00,0.0116
3424.00,0.0116
3423.00,0.0117
3422.00,0.0117
3421.00,0.0117
3420.00,0.0117
3419.00,0.0118
3418.00,0.0118
3417.00,0.0118
3416.00,0.0118
3415.00,0.0119
3414.00,0.0119
3413.00,0.0119
3412.00,0.0119
3411.00,0.0119
3410.00,0.0119
3409.00,0.0119
3408.00,0.0120
3407.00,0.0121
3406.00,0.0121
3405.00,0.0122
3404.00,0.0122
3403.00,0.0123
3402.00,0.0123
3401.00,0.0124
3400.00,0.0124
3399.00,0.0125
3398.00,0.0126
3397.00,0.0127
3396.00,0.0128
3395.00,0.0128
3394.00,0.0129
3393.00,0.0130
3392.00,0.0131
3391.00,0.0133
3390.00,0.0134
3389.00,0.0136
3388.00,0.0138
3387.00,0.0140
3386.00,0.0141
3385.00,0.0143
3384.00,0.0145
3383.00,0.0147
3382.00,0.0148
3381.00,0.0150
3380.00,0.0152
3379.00,0.0153
3378.00,0.0155
3377.00,0.0158
3376.00,0.0160
3375.00,0.0162
3374.00,0.0163
3373.00,0.0165
3372.00,0.0166
3371.00,0.0167
3370.00,0.0169
3369.00,0.0172
3368.00,0.0175
3367.00,0.0179
3366.00,0.0184
3365.00,0.0188
3364.00,0.0193
3363.00,0.0197
3362.00,0.0202
3361.00,0.0207
3360.00,0.0213
3359.00,0.0219
3358.00,0.0226
3357.00,0.0232
3356.00,0.0240
3355.00,0.0247
3354.00,0.0254
3353.00,0.0262
3352.00,0.0270
3351.00,0.0279
3350.00,0.0290
3349.00,0.0302
3348.00,0.0316
3347.00,0.0329
3346.00,0.0344
3345.00,0.0361
3344.00,0.0378
3343.00,0.0398
3342.00,0.0419
3341.00,0.0441
3340.00,0.0465
3339.00,0.0489
3338.00,0.0515
3337.00,0.0540
3336.00,0.0564
3335.00,0.0586
3334.00,0.0605
3333.00,0.0621
3332.00,0.0633
3331.00,0.0643
3330.00,0.0650
3329.00,0.0655
3328.00,0.0658
3327.00,0.0660
3326.00,0.0661
3325.00,0.0662
3324.00,0.0661
3323.00,0.0660
3322.00,0.0656
3321.00,0.0651
3320.00,0.0643
3319.00,0.0633
3318.00,0.0621
3317.00,0.0607
3316.00,0.0592
3315.00,0.0576
3314.00,0.0559
3313.00,0.0543
3312.00,0.0526
3311.00,0.0510
3310.00,0.0495
3309.00,0.0480
3308.00,0.0466
3307.00,0.0453
3306.00,0.0442
3305.00,0.0431
3304.00,0.0422
3303.00,0.0413
3302.00,0.0405
3301.00,0.0398
3300.00,0.0391
3299.00,0.0385
3298.00,0.0378
3297.00,0.0373
3296.00,0.0367
3295.00,0.0362
3294.00,0.0357
3293.00,0.0352
3292.00,0.0348
3291.00,0.0344
3290.00,0.0339
3289.00,0.0335
3288.00,0.0330
3287.00,0.0324
3286.00,0.0319
3285.00,0.0314
3284.00,0.0309
3283.00,0.0305
3282.00,0.0301
3281.00,0.0297
3280.00,0.0293
3279.00,0.0291
3278.00,0.0288
3277.00,0.0286
3276.00,0.0284
3275.00,0.0283
3274.00,0.0282
3273.00,0.0281
3272.00,0.0280
3271.00,0.0280
3270.00,0.0280
3269.00,0.0280
3268.00,0.0280
3267.00,0.0280
3266.00,0.0280
3265.00,0.0280
3264.00,0.0279
3263.00,0.0278
3262.00,0.0278
3261.00,0.0277
3260.00,0.0276
3259.00,0.0275
3258.00,0.0273
3257.00,0.0272
3256.00,0.0271
3255.00,0.0271
3254.00,0.0270
3253.00,0.0269
3252.00,0.0269
3251.00,0.0268
3250.00,0.0268
3249.00,0.0267
3248.00,0.0267
3247.00,0.0267
3246.00,0.0267
3245.00,0.0268
3244.00,0.0268
3243.00,0.0268
3242.00,0.0268
3241.00,0.0267
3240.00,0.0267
3239.00,0.0265
3238.00,0.0264
3237.00,0.0262
3236.00,0.0259
3235.00,0.0256
3234.00,0.0254
3233.00,0.0251
3232.00,0.0248
3231.00,0.0245
3230.00,0.0242
3229.00,0.0239
3228.00,0.0236
3227.00,0.0232
3226.00,0.0229
3225.00,0.0226
3224.00,0.0223
3223.00,0.0220
3222.00,0.0217
3221.00,0.0215
3220.00,0.0212
3219.00,0.0209
3218.00,0.0207
3217.00,0.0205
3216.00,0.0203
3215.00,0.0201
3214.00,0.0199
3213.00,0.0197
3212.00,0.0196
3211.00,0.0194
3210.00,0.0193
3209.00,0.0191
3208.00,0.0190
3207.00,0.0188
3206.00,0.0187
3205.00,0.0185
3204.00,0.0184
3203.00,0.0183
3202.00,0.0182
3201.00,0.0181
3200.00,0.0179
3199.00,0.0178
3198.00,0.0177
3197.00,0.0176
3196.00,0.0175
3195.00,0.0174
3194.00,0.0173
3193.00,0.0173
3192.00,0.0172
3191.00,0.0172
3190.00,0.0171
3189.00,0.0171
3188.00,0.0170
3187.00,0.0170
3186.00,0.0169
3185.00,0.0169
3184.00,0.0169
3183.00,0.0169
3182.00,0.0169
3181.00,0.0169
3180.00,0.0169
3179.00,0.0169
3178.00,0.0168
3177.00,0.0168
3176.00,0.0168
3175.00,0.0167
3174.00,0.0167
3173.00,0.0166
3172.00,0.0166
3171.00,0.0166
3170.00,0.0165
3169.00,0.0165
3168.00,0.0165
3167.00,0.0164
3166.00,0.0164
3165.00,0.0163
3164.00,0.0163
3163.00,0.0163
3162.00,0.0162
3161.00,0.0162
3160.00,0.0162
3159.00,0.0162
3158.00,0.0162
3157.00,0.0162
3156.00,0.0162
3155.00,0.0162
3154.00,0.0162
3153.00,0.0163
3152.00,0.0163
3151.00,0.0163
3150.00,0.0164
3149.00,0.0164
3148.00,0.0165
3147.00,0.0165
3146.00,0.0165
3145.00,0.0165
3144.00,0.0165
3143.00,0.0166
3142.00,0.0166
3141.00,0.0166
3140.00,0.0167
3139.00,0.0167
3138.00,0.0168
3137.00,0.0168
3136.00,0.0169
3135.00,0.0169
3134.00,0.0170
3133.00,0.0170
3132.00,0.0171
3131.00,0.0172
3130.00,0.0173
3129.00,0.0174
3128.00,0.0175
3127.00,0.0176
3126.00,0.0177
3125.00,0.0178
3124.00,0.0179
3123.00,0.0180
3122.00,0.0182
3121.00,0.0184
3120.00,0.0185
3119.00,0.0187
3118.00,0.0189
3117.00,0.0191
3116.00,0.0193
3115.00,0.0196
3114.00,0.0199
3113.00,0.0201
3112.00,0.0204
3111.00,0.0207
3110.00,0.0211
3109.00,0.0213
3108.00,0.0216
3107.00,0.0218
3106.00,0.0220
3105.00,0.0221
3104.00,0.0222
3103.00,0.0223
3102.00,0.0222
3101.00,0.0222
3100.00,0.0221
3099.00,0.0219
3098.00,0.0217
3097.00,0.0215
3096.00,0.0212
3095.00,0.0210
3094.00,0.0207
3093.00,0.0205
3092.00,0.0204
3091.00,0.0202
3090.00,0.0201
3089.00,0.0201
3088.00,0.0201
3087.00,0.0202
3086.00,0.0203
3085.00,0.0203
3084.00,0.0204
3083.00,0.0204
3082.00,0.0203
3081.00,0.0203
3080.00,0.0202
3079.00,0.0201
3078.00,0.0200
3077.00,0.0198
3076.00,0.0196
3075.00,0.0192
3074.00,0.0188
3073.00,0.0185
3072.00,0.0182
3071.00,0.0179
3070.00,0.0177
3069.00,0.0176
3068.00,0.0176
3067.00,0.0177
3066.00,0.0179
3065.00,0.0180
3064.00,0.0182
3063.00,0.0183
3062.00,0.0183
3061.00,0.0182
3060.00,0.0181
3059.00,0.0179
3058.00,0.0177
3057.00,0.0175
3056.00,0.0174
3055.00,0.0173
3054.00,0.0172
3053.00,0.0171
3052.00,0.0170
3051.00,0.0170
3050.00,0.0170
3049.00,0.0170
3048.00,0.0170
3047.00,0.0170
3046.00,0.0169
3045.00,0.0169
3044.00,0.0169
3043.00,0.0170
3042.00,0.0171
3041.00,0.0173
3040.00,0.0174
3039.00,0.0176
3038.00,0.0177
3037.00,0.0178
3036.00,0.0178
3035.00,0.0179
3034.00,0.0180
3033.00,0.0181
3032.00,0.0183
3031.00,0.0184
3030.00,0.0185
3029.00,0.0187
3028.00,0.0187
3027.00,0.0188
3026.00,0.0187
3025.00,0.0187
3024.00,0.0187
3023.00,0.0186
3022.00,0.0185
3021.00,0.0184
3020.00,0.0183
3019.00,0.0182
3018.00,0.0182
3017.00,0.0181
3016.00,0.0181
3015.00,0.0182
3014.00,0.0183
3013.00,0.0185
3012.00,0.0188
3011.00,0.0191
3010.00,0.0195
3009.00,0.0200
3008.00,0.0205
3007.00,0.0211
3006.00,0.0217
3005.00,0.0223
3004.00,0.0229
3003.00,0.0234
3002.00,0.0240
3001.00,0.0244
3000.00,0.0248
2999.00,0.0251
2998.00,0.0252
2997.00,0.0252
2996.00,0.0250
2995.00,0.0247
2994.00,0.0241
2993.00,0.0236
2992.00,0.0230
2991.00,0.0224
2990.00,0.0219
2989.00,0.0215
2988.00,0.0211
2987.00,0.0208
2986.00,0.0206
2985.00,0.0204
2984.00,0.0202
2983.00,0.0201
2982.00,0.0199
2981.00,0.0198
2980.00,0.0198
2979.00,0.0198
2978.00,0.0198
2977.00,0.0198
2976.00,0.0198
2975.00,0.0197
2974.00,0.0198
2973.00,0.0199
2972.00,0.0200
2971.00,0.0202
2970.00,0.0204
2969.00,0.0207
2968.00,0.0211
2967.00,0.0216
2966.00,0.0222
2965.00,0.0230
2964.00,0.0239
2963.00,0.0250
2962.00,0.0263
2961.00,0.0277
2960.00,0.0293
2959.00,0.0308
2958.00,0.0322
2957.00,0.0334
2956.00,0.0343
2955.00,0.0347
2954.00,0.0348
2953.00,0.0345
2952.00,0.0338
2951.00,0.0328
2950.00,0.0316
2949.00,0.0302
2948.00,0.0289
2947.00,0.0277
2946.00,0.0266
2945.00,0.0257
2944.00,0.0250
2943.00,0.0244
2942.00,0.0239
2941.00,0.0235
2940.00,0.0232
2939.00,0.0230
2938.00,0.0228
2937.00,0.0227
2936.00,0.0227
2935.00,0.0226
2934.00,0.0226
2933.00,0.0225
2932.00,0.0224
2931.00,0.0223
2930.00,0.0221
2929.00,0.0220
2928.00,0.0218
2927.00,0.0216
2926.00,0.0214
2925.00,0.0211
2924.00,0.0209
2923.00,0.0207
2922.00,0.0204
2921.00,0.0202
2920.00,0.0200
2919.00,0.0198
2918.00,0.0197
2917.00,0.0195
2916.00,0.0194
2915.00,0.0193
2914.00,0.0193
2913.00,0.0192
2912.00,0.0192
2911.00,0.0191
2910.00,0.0190
2909.00,0.0189
2908.00,0.0188
2907.00,0.0187
2906.00,0.0186
2905.00,0.0185
2904.00,0.0184
2903.00,0.0183
2902.00,0.0183
2901.00,0.0182
2900.00,0.0181
2899.00,0.0180
2898.00,0.0179
2897.00,0.0178
2896.00,0.0177
2895.00,0.0176
2894.00,0.0175
2893.00,0.0175
2892.00,0.0175
2891.00,0.0175
2890.00,0.0176
2889.00,0.0176
2888.00,0.0177
2887.00,0.0177
2886.00,0.0178
2885.00,0.0178
2884.00,0.0178
2883.00,0.0179
2882.00,0.0179
2881.00,0.0180
2880.00,0.0180
2879.00,0.0180
2878.00,0.0181
2877.00,0.0182
2876.00,0.0183
2875.00,0.0183
2874.00,0.0185
2873.00,0.0186
2872.00,0.0187
2871.00,0.0189
2870.00,0.0189
2869.00,0.0189
2868.00,0.0188
2867.00,0.0187
2866.00,0.0185
2865.00,0.0184
2864.00,0.0182
2863.00,0.0180
2862.00,0.0179
2861.00,0.0177
2860.00,0.0176
2859.00,0.0175
2858.00,0.0174
2857.00,0.0174
2856.00,0.0174
2855.00,0.0173
2854.00,0.0173
2853.00,0.0173
2852.00,0.0174
2851.00,0.0175
2850.00,0.0177
2849.00,0.0180
2848.00,0.0183
2847.00,0.0186
2846.00,0.0190
2845.00,0.0192
2844.00,0.0194
2843.00,0.0194
2842.00,0.0192
2841.00,0.0190
2840.00,0.0186
2839.00,0.0182
2838.00,0.0179
2837.00,0.0176
2836.00,0.0173
2835.00,0.0171
2834.00,0.0169
2833.00,0.0167
2832.00,0.0166
2831.00,0.0165
2830.00,0.0164
2829.00,0.0163
2828.00,0.0163
2827.00,0.0163
2826.00,0.0162
2825.00,0.0162
2824.00,0.0162
2823.00,0.0162
2822.00,0.0162
2821.00,0.0162
2820.00,0.0162
2819.00,0.0162
2818.00,0.0162
2817.00,0.0162
2816.00,0.0162
2815.00,0.0163
2814.00,0.0163
2813.00,0.0163
2812.00,0.0163
2811.00,0.0163
2810.00,0.0163
2809.00,0.0163
2808.00,0.0163
2807.00,0.0163
2806.00,0.0162
2805.00,0.0162
2804.00,0.0161
2803.00,0.0161
2802.00,0.0160
2801.00,0.0159
2800.00,0.0158
2799.00,0.0157
2798.00,0.0156
2797.00,0.0155
2796.00,0.0154
2795.00,0.0154
2794.00,0.0153
2793.00,0.0151
2792.00,0.0150
2791.00,0.0149
2790.00,0.0149
2789.00,0.0148
2788.00,0.0147
2787.00,0.0146
2786.00,0.0146
2785.00,0.0145
2784.00,0.0144
2783.00,0.0144
2782.00,0.0143
2781.00,0.0143
2780.00,0.0143
2779.00,0.0142
2778.00,0.0142
2777.00,0.0142
2776.00,0.0142
2775.00,0.0142
2774.00,0.0141
2773.00,0.0141
2772.00,0.0141
2771.00,0.0142
2770.00,0.0141
2769.00,0.0141
2768.00,0.0141
2767.00,0.0141
2766.00,0.0141
2765.00,0.0140
2764.00,0.0140
2763.00,0.0140
2762.00,0.0140
2761.00,0.0140
2760.00,0.0140
2759.00,0.0140
2758.00,0.0140
2757.00,0.0139
2756.00,0.0139
2755.00,0.0139
2754.00,0.0139
2753.00,0.0139
2752.00,0.0139
2751.00,0.0139
2750.00,0.0139
2749.00,0.0138
2748.00,0.0138
2747.00,0.0138
2746.00,0.0138
2745.00,0.0138
2744.00,0.0138
2743.00,0.0138
2742.00,0.0138
2741.00,0.0138
2740.00,0.0138
2739.00,0.0138
2738.00,0.0137
2737.00,0.0137
2736.00,0.0137
2735.00,0.0137
2734.00,0.0137
2733.00,0.0137
2732.00,0.0137
2731.00,0.0137
2730.00,0.0137
2729.00,0.0137
2728.00,0.0137
2727.00,0.0137
2726.00,0.0137
2725.00,0.0137
2724.00,0.0138
2723.00,0.0138
2722.00,0.0138
2721.00,0.0138
2720.00,0.0138
2719.00,0.0138
2718.00,0.0138
2717.00,0.0138
2716.00,0.0138
2715.00,0.0137
2714.00,0.0137
2713.00,0.0137
2712.00,0.0137
2711.00,0.0137
2710.00,0.0136
2709.00,0.0136
2708.00,0.0136
2707.00,0.0136
2706.00,0.0136
2705.00,0.0136
2704.00,0.0136
2703.00,0.0136
2702.00,0.0136
2701.00,0.0136
2700.00,0.0136
2699.00,0.0136
2698.00,0.0136
2697.00,0.0136
2696.00,0.0136
2695.00,0.0136
2694.00,0.0136
2693.00,0.0136
2692.00,0.0136
2691.00,0.0136
2690.00,0.0136
2689.00,0.0135
2688.00,0.0135
2687.00,0.0135
2686.00,0.0135
2685.00,0.0134
2684.00,0.0135
2683.00,0.0135
2682.00,0.0135
2681.00,0.0135
2680.00,0.0135
2679.00,0.0135
2678.00,0.0135
2677.00,0.0135
2676.00,0.0135
2675.00,0.0135
2674.00,0.0135
2673.00,0.0135
2672.00,0.0135
2671.00,0.0135
2670.00,0.0135
2669.00,0.0135
2668.00,0.0135
2667.00,0.0135
2666.00,0.0135
2665.00,0.0135
2664.00,0.0135
2663.00,0.0136
2662.00,0.0136
2661.00,0.0137
2660.00,0.0137
2659.00,0.0137
2658.00,0.0137
2657.00,0.0137
2656.00,0.0137
2655.00,0.0137
2654.00,0.0137
2653.00,0.0137
2652.00,0.0137
2651.00,0.0138
2650.00,0.0138
2649.00,0.0138
2648.00,0.0138
2647.00,0.0138
2646.00,0.0138
2645.00,0.0138
2644.00,0.0138
2643.00,0.0138
2642.00,0.0138
2641.00,0.0138
2640.00,0.0137
2639.00,0.0137
2638.00,0.0137
2637.00,0.0137
2636.00,0.0136
2635.00,0.0136
2634.00,0.0136
2633.00,0.0136
2632.00,0.0136
2631.00,0.0136
2630.00,0.0136
2629.00,0.0136
2628.00,0.0136
2627.00,0.0136
2626.00,0.0136
2625.00,0.0137
2624.00,0.0137
2623.00,0.0137
2622.00,0.0137
2621.00,0.0137
2620.00,0.0138
2619.00,0.0138
2618.00,0.0138
2617.00,0.0137
2616.00,0.0137
2615.00,0.0137
2614.00,0.0137
2613.00,0.0136
2612.00,0.0136
2611.00,0.0135
2610.00,0.0135
2609.00,0.0135
2608.00,0.0134
2607.00,0.0134
2606.00,0.0133
2605.00,0.0133
2604.00,0.0133
2603.00,0.0133
2602.00,0.0133
2601.00,0.0132
2600.00,0.0132
2599.00,0.0132
2598.00,0.0131
2597.00,0.0131
2596.00,0.0131
2595.00,0.0130
2594.00,0.0130
2593.00,0.0130
2592.00,0.0129
2591.00,0.0129
2590.00,0.0129
2589.00,0.0129
2588.00,0.0129
2587.00,0.0129
2586.00,0.0129
2585.00,0.0128
2584.00,0.0128
2583.00,0.0128
2582.00,0.0128
2581.00,0.0128
2580.00,0.0127
2579.00,0.0127
2578.00,0.0127
2577.00,0.0126
2576.00,0.0126
2575.00,0.0125
2574.00,0.0125
2573.00,0.0125
2572.00,0.0125
2571.00,0.0125
2570.00,0.0124
2569.00,0.0124
2568.00,0.0124
2567.00,0.0124
2566.00,0.0124
2565.00,0.0124
2564.00,0.0124
2563.00,0.0124
2562.00,0.0124
2561.00,0.0124
2560.00,0.0123
2559.00,0.0123
2558.00,0.0123
2557.00,0.0123
2556.00,0.0123
2555.00,0.0123
2554.00,0.0123
2553.00,0.0124
2552.00,0.0124
2551.00,0.0124
2550.00,0.0124
2549.00,0.0124
2548.00,0.0124
2547.00,0.0125
2546.00,0.0125
2545.00,0.0125
2544.00,0.0125
2543.00,0.0125
2542.00,0.0125
2541.00,0.0125
2540.00,0.0125
2539.00,0.0125
2538.00,0.0125
2537.00,0.0125
2536.00,0.0125
2535.00,0.0124
2534.00,0.0124
2533.00,0.0124
2532.00,0.0124
2531.00,0.0124
2530.00,0.0124
2529.00,0.0124
2528.00,0.0124
2527.00,0.0123
2526.00,0.0123
2525.00,0.0122
2524.00,0.0122
2523.00,0.0122
2522.00,0.0121
2521.00,0.0121
2520.00,0.0121
2519.00,0.0121
2518.00,0.0121
2517.00,0.0121
2516.00,0.0121
2515.00,0.0121
2514.00,0.0120
2513.00,0.0120
2512.00,0.0120
2511.00,0.0120
2510.00,0.0120
2509.00,0.0120
2508.00,0.0120
2507.00,0.0120
2506.00,0.0120
2505.00,0.0119
2504.00,0.0119
2503.00,0.0119
2502.00,0.0119
2501.00,0.0118
2500.00,0.0118
2499.00,0.0118
2498.00,0.0119
2497.00,0.0119
2496.00,0.0119
2495.00,0.0119
2494.00,0.0120
2493.00,0.0121
2492.00,0.0121
2491.00,0.0121
2490.00,0.0122
2489.00,0.0122
2488.00,0.0122
2487.00,0.0122
2486.00,0.0122
2485.00,0.0121
2484.00,0.0121
2483.00,0.0120
2482.00,0.0120
2481.00,0.0119
2480.00,0.0119
2479.00,0.0119
2478.00,0.0119
2477.00,0.0119
2476.00,0.0118
2475.00,0.0118
2474.00,0.0118
2473.00,0.0118
2472.00,0.0118
2471.00,0.0118
2470.00,0.0119
2469.00,0.0119
2468.00,0.0119
2467.00,0.0119
2466.00,0.0119
2465.00,0.0119
2464.00,0.0120
2463.00,0.0120
2462.00,0.0120
2461.00,0.0121
2460.00,0.0121
2459.00,0.0122
2458.00,0.0122
2457.00,0.0123
2456.00,0.0123
2455.00,0.0124
2454.00,0.0124
2453.00,0.0124
2452.00,0.0124
2451.00,0.0124
2450.00,0.0124
2449.00,0.0123
2448.00,0.0123
2447.00,0.0122
2446.00,0.0121
2445.00,0.0120
2444.00,0.0120
2443.00,0.0120
2442.00,0.0119
2441.00,0.0119
2440.00,0.0119
2439.00,0.0119
2438.00,0.0118
2437.00,0.0118
2436.00,0.0118
2435.00,0.0117
2434.00,0.0116
2433.00,0.0116
2432.00,0.0116
2431.00,0.0116
2430.00,0.0116
2429.00,0.0116
2428.00,0.0116
2427.00,0.0116
2426.00,0.0116
2425.00,0.0116
2424.00,0.0116
2423.00,0.0116
2422.00,0.0116
2421.00,0.0116
2420.00,0.0116
2419.00,0.0116
2418.00,0.0116
2417.00,0.0115
2416.00,0.0115
2415.00,0.0115
2414.00,0.0115
2413.00,0.0115
2412.00,0.0115
2411.00,0.0115
2410.00,0.0115
2409.00,0.0114
2408.00,0.0114
2407.00,0.0113
2406.00,0.0112
2405.00,0.0112
2404.00,0.0112
2403.00,0.0112
2402.00,0.0112
2401.00,0.0112
2400.00,0.0113
2399.00,0.0113
2398.00,0.0113
2397.00,0.0112
2396.00,0.0112
2395.00,0.0112
2394.00,0.0112
2393.00,0.0111
2392.00,0.0111
2391.00,0.0111
2390.00,0.0110
2389.00,0.0110
2388.00,0.0110
2387.00,0.0110
2386.00,0.0109
2385.00,0.0109
2384.00,0.0108
2383.00,0.0108
2382.00,0.0107
2381.00,0.0107
2380.00,0.0107
2379.00,0.0107
2378.00,0.0107
2377.00,0.0107
2376.00,0.0107
2375.00,0.0106
2374.00,0.0106
2373.00,0.0105
2372.00,0.0104
2371.00,0.0104
2370.00,0.0103
2369.00,0.0103
2368.00,0.0102
2367.00,0.0102
2366.00,0.0102
2365.00,0.0103
2364.00,0.0104
2363.00,0.0104
2362.00,0.0105
2361.00,0.0105
2360.00,0.0105
2359.00,0.0105
2358.00,0.0106
2357.00,0.0106
2356.00,0.0107
2355.00,0.0107
2354.00,0.0106
2353.00,0.0106
2352.00,0.0106
2351.00,0.0106
2350.00,0.0106
2349.00,0.0107
2348.00,0.0107
2347.00,0.0108
2346.00,0.0108
2345.00,0.0107
2344.00,0.0107
2343.00,0.0107
2342.00,0.0108
2341.00,0.0109
2340.00,0.0110
2339.00,0.0110
2338.00,0.0110
2337.00,0.0110
2336.00,0.0110
2335.00,0.0110
2334.00,0.0110
2333.00,0.0110
2332.00,0.0109
2331.00,0.0109
2330.00,0.0109
2329.00,0.0111
2328.00,0.0114
2327.00,0.0119
2326.00,0.0123
2325.00,0.0124
2324.00,0.0123
2323.00,0.0120
2322.00,0.0118
2321.00,0.0116
2320.00,0.0114
2319.00,0.0113
2318.00,0.0112
2317.00,0.0111
2316.00,0.0110
2315.00,0.0110
2314.00,0.0109
2313.00,0.0108
2312.00,0.0107
2311.00,0.0106
2310.00,0.0106
2309.00,0.0106
2308.00,0.0106
2307.00,0.0106
2306.00,0.0106
2305.00,0.0107
2304.00,0.0107
2303.00,0.0107
2302.00,0.0107
2301.00,0.0107
2300.00,0.0108
2299.00,0.0108
2298.00,0.0109
2297.00,0.0110
2296.00,0.0111
2295.00,0.0113
2294.00,0.0114
2293.00,0.0116
2292.00,0.0117
2291.00,0.0119
2290.00,0.0119
2289.00,0.0120
2288.00,0.0120
2287.00,0.0120
2286.00,0.0120
2285.00,0.0119
2284.00,0.0118
2283.00,0.0117
2282.00,0.0116
2281.00,0.0116
2280.00,0.0116
2279.00,0.0115
2278.00,0.0114
2277.00,0.0114
2276.00,0.0114
2275.00,0.0114
2274.00,0.0114
2273.00,0.0113
2272.00,0.0113
2271.00,0.0112
2270.00,0.0112
2269.00,0.0111
2268.00,0.0111
2267.00,0.0110
2266.00,0.0108
2265.00,0.0108
2264.00,0.0108
2263.00,0.0108
2262.00,0.0108
2261.00,0.0108
2260.00,0.0109
2259.00,0.0108
2258.00,0.0107
2257.00,0.0105
2256.00,0.0104
2255.00,0.0103
2254.00,0.0102
2253.00,0.0101
2252.00,0.0102
2251.00,0.0102
2250.00,0.0102
2249.00,0.0102
2248.00,0.0102
2247.00,0.0101
2246.00,0.0101
2245.00,0.0100
2244.00,0.0100
2243.00,0.0099
2242.00,0.0099
2241.00,0.0100
2240.00,0.0100
2239.00,0.0100
2238.00,0.0099
2237.00,0.0098
2236.00,0.0098
2235.00,0.0097
2234.00,0.0096
2233.00,0.0096
2232.00,0.0096
2231.00,0.0097
2230.00,0.0097
2229.00,0.0096
2228.00,0.0096
2227.00,0.0096
2226.00,0.0096
2225.00,0.0097
2224.00,0.0098
2223.00,0.0098
2222.00,0.0097
2221.00,0.0097
2220.00,0.0097
2219.00,0.0097
2218.00,0.0097
2217.00,0.0097
2216.00,0.0097
2215.00,0.0096
2214.00,0.0095
2213.00,0.0094
2212.00,0.0094
2211.00,0.0094
2210.00,0.0094
2209.00,0.0094
2208.00,0.0094
2207.00,0.0094
2206.00,0.0095
2205.00,0.0095
2204.00,0.0095
2203.00,0.0095
2202.00,0.0094
2201.00,0.0093
2200.00,0.0094
2199.00,0.0094
2198.00,0.0094
2197.00,0.0095
2196.00,0.0096
2195.00,0.0095
2194.00,0.0095
2193.00,0.0095
2192.00,0.0095
2191.00,0.0096
2190.00,0.0096
2189.00,0.0096
2188.00,0.0097
2187.00,0.0098
2186.00,0.0097
2185.00,0.0096
2184.00,0.0094
2183.00,0.0092
2182.00,0.0090
2181.00,0.0090
2180.00,0.0091
2179.00,0.0092
2178.00,0.0092
2177.00,0.0091
2176.00,0.0091
2175.00,0.0091
2174.00,0.0092
2173.00,0.0094
2172.00,0.0098
2171.00,0.0101
2170.00,0.0103
2169.00,0.0105
2168.00,0.0107
2167.00,0.0107
2166.00,0.0107
2165.00,0.0108
2164.00,0.0110
2163.00,0.0109
2162.00,0.0102
2161.00,0.0089
2160.00,0.0073
2159.00,0.0060
2158.00,0.0055
2157.00,0.0058
2156.00,0.0063
2155.00,0.0068
2154.00,0.0071
2153.00,0.0074
2152.00,0.0077
2151.00,0.0079
2150.00,0.0079
2149.00,0.0079
2148.00,0.0079
2147.00,0.0077
2146.00,0.0075
2145.00,0.0075
2144.00,0.0075
2143.00,0.0076
2142.00,0.0077
2141.00,0.0078
2140.00,0.0079
2139.00,0.0078
2138.00,0.0075
2137.00,0.0072
2136.00,0.0070
2135.00,0.0068
2134.00,0.0068
2133.00,0.0069
2132.00,0.0071
2131.00,0.0073
2130.00,0.0075
2129.00,0.0077
2128.00,0.0079
2127.00,0.0080
2126.00,0.0081
2125.00,0.0082
2124.00,0.0084
2123.00,0.0085
2122.00,0.0085
2121.00,0.0086
2120.00,0.0087
2119.00,0.0088
2118.00,0.0089
2117.00,0.0089
2116.00,0.0090
2115.00,0.0091
2114.00,0.0091
2113.00,0.0091
2112.00,0.0091
2111.00,0.0091
2110.00,0.0090
2109.00,0.0090
2108.00,0.0090
2107.00,0.0090
2106.00,0.0090
2105.00,0.0091
2104.00,0.0091
2103.00,0.0092
2102.00,0.0092
2101.00,0.0092
2100.00,0.0091
2099.00,0.0090
2098.00,0.0089
2097.00,0.0087
2096.00,0.0086
2095.00,0.0086
2094.00,0.0087
2093.00,0.0089
2092.00,0.0090
2091.00,0.0091
2090.00,0.0091
2089.00,0.0092
2088.00,0.0093
2087.00,0.0094
2086.00,0.0094
2085.00,0.0094
2084.00,0.0095
2083.00,0.0095
2082.00,0.0094
2081.00,0.0094
2080.00,0.0095
2079.00,0.0095
2078.00,0.0094
2077.00,0.0094
2076.00,0.0093
2075.00,0.0093
2074.00,0.0093
2073.00,0.0093
2072.00,0.0093
2071.00,0.0094
2070.00,0.0094
2069.00,0.0094
2068.00,0.0094
2067.00,0.0093
2066.00,0.0092
2065.00,0.0091
2064.00,0.0091
2063.00,0.0090
2062.00,0.0089
2061.00,0.0089
2060.00,0.0089
2059.00,0.0089
2058.00,0.0089
2057.00,0.0088
2056.00,0.0088
2055.00,0.0087
2054.00,0.0089
2053.00,0.0093
2052.00,0.0096
2051.00,0.0094
2050.00,0.0089
2049.00,0.0084
2048.00,0.0081
2047.00,0.0078
2046.00,0.0077
2045.00,0.0076
2044.00,0.0076
2043.00,0.0075
2042.00,0.0074
2041.00,0.0073
2040.00,0.0074
2039.00,0.0075
2038.00,0.0074
2037.00,0.0073
2036.00,0.0072
2035.00,0.0069
2034.00,0.0065
2033.00,0.0064
2032.00,0.0066
2031.00,0.0068
2030.00,0.0069
2029.00,0.0071
2028.00,0.0072
2027.00,0.0072
2026.00,0.0072
2025.00,0.0072
2024.00,0.0073
2023.00,0.0073
2022.00,0.0072
2021.00,0.0072
2020.00,0.0074
2019.00,0.0075
2018.00,0.0075
2017.00,0.0075
2016.00,0.0076
2015.00,0.0075
2014.00,0.0074
2013.00,0.0075
2012.00,0.0076
2011.00,0.0077
2010.00,0.0076
2009.00,0.0075
2008.00,0.0075
2007.00,0.0075
2006.00,0.0076
2005.00,0.0079
2004.00,0.0083
2003.00,0.0086
2002.00,0.0087
2001.00,0.0088
2000.00,0.0089
1999.00,0.0089
1998.00,0.0088
1997.00,0.0087
1996.00,0.0087
1995.00,0.0087
1994.00,0.0087
1993.00,0.0087
1992.00,0.0087
1991.00,0.0086
1990.00,0.0085
1989.00,0.0086
1988.00,0.0087
1987.00,0.0087
1986.00,0.0087
1985.00,0.0087
1984.00,0.0089
1983.00,0.0091
1982.00,0.0094
1981.00,0.0095
1980.00,0.0092
1979.00,0.0086
1978.00,0.0077
1977.00,0.0071
1976.00,0.0069
1975.00,0.0070
1974.00,0.0071
1973.00,0.0073
1972.00,0.0075
1971.00,0.0075
1970.00,0.0075
1969.00,0.0075
1968.00,0.0076
1967.00,0.0076
1966.00,0.0076
1965.00,0.0076
1964.00,0.0076
1963.00,0.0076
1962.00,0.0074
1961.00,0.0073
1960.00,0.0072
1959.00,0.0072
1958.00,0.0071
1957.00,0.0072
1956.00,0.0073
1955.00,0.0073
1954.00,0.0072
1953.00,0.0072
1952.00,0.0073
1951.00,0.0074
1950.00,0.0075
1949.00,0.0075
1948.00,0.0075
1947.00,0.0075
1946.00,0.0075
1945.00,0.0075
1944.00,0.0076
1943.00,0.0077
1942.00,0.0077
1941.00,0.0077
1940.00,0.0078
1939.00,0.0078
1938.00,0.0078
1937.00,0.0078
1936.00,0.0080
1935.00,0.0081
1934.00,0.0082
1933.00,0.0083
1932.00,0.0085
1931.00,0.0086
1930.00,0.0085
1929.00,0.0085
1928.00,0.0085
1927.00,0.0085
1926.00,0.0085
1925.00,0.0085
1924.00,0.0085
1923.00,0.0085
1922.00,0.0085
1921.00,0.0085
1920.00,0.0086
1919.00,0.0086
1918.00,0.0084
1917.00,0.0083
1916.00,0.0083
1915.00,0.0082
1914.00,0.0082
1913.00,0.0082
1912.00,0.0082
1911.00,0.0081
1910.00,0.0081
1909.00,0.0080
1908.00,0.0080
1907.00,0.0080
1906.00,0.0079
1905.00,0.0078
1904.00,0.0078
1903.00,0.0078
1902.00,0.0077
1901.00,0.0076
1900.00,0.0076
1899.00,0.0076
1898.00,0.0076
1897.00,0.0076
1896.00,0.0076
1895.00,0.0077
1894.00,0.0076
1893.00,0.0077
1892.00,0.0077
1891.00,0.0078
1890.00,0.0077
1889.00,0.0077
1888.00,0.0078
1887.00,0.0077
1886.00,0.0077
1885.00,0.0077
1884.00,0.0077
1883.00,0.0076
1882.00,0.0075
1881.00,0.0075
1880.00,0.0074
1879.00,0.0074
1878.00,0.0073
1877.00,0.0073
1876.00,0.0073
1875.00,0.0073
1874.00,0.0073
1873.00,0.0074
1872.00,0.0076
1871.00,0.0076
1870.00,0.0076
1869.00,0.0075
1868.00,0.0075
1867.00,0.0075
1866.00,0.0074
1865.00,0.0074
1864.00,0.0074
1863.00,0.0074
1862.00,0.0073
1861.00,0.0074
1860.00,0.0074
1859.00,0.0075
1858.00,0.0075
1857.00,0.0075
1856.00,0.0076
1855.00,0.0077
1854.00,0.0078
1853.00,0.0079
1852.00,0.0081
1851.00,0.0082
1850.00,0.0083
1849.00,0.0083
1848.00,0.0083
1847.00,0.0083
1846.00,0.0082
1845.00,0.0080
1844.00,0.0079
1843.00,0.0077
1842.00,0.0075
1841.00,0.0073
1840.00,0.0073
1839.00,0.0073
1838.00,0.0072
1837.00,0.0072
1836.00,0.0072
1835.00,0.0072
1834.00,0.0073
1833.00,0.0073
1832.00,0.0074
1831.00,0.0074
1830.00,0.0074
1829.00,0.0074
1828.00,0.0074
1827.00,0.0075
1826.00,0.0074
1825.00,0.0074
1824.00,0.0073
1823.00,0.0072
1822.00,0.0070
1821.00,0.0070
1820.00,0.0069
1819.00,0.0068
1818.00,0.0067
1817.00,0.0067
1816.00,0.0067
1815.00,0.0068
1814.00,0.0069
1813.00,0.0070
1812.00,0.0071
1811.00,0.0071
1810.00,0.0071
1809.00,0.0071
1808.00,0.0071
1807.00,0.0072
1806.00,0.0072
1805.00,0.0074
1804.00,0.0076
1803.00,0.0077
1802.00,0.0077
1801.00,0.0077
1800.00,0.0077
1799.00,0.0077
1798.00,0.0076
1797.00,0.0077
1796.00,0.0078
1795.00,0.0079
1794.00,0.0079
1793.00,0.0080
1792.00,0.0080
1791.00,0.0079
1790.00,0.0077
1789.00,0.0076
1788.00,0.0077
1787.00,0.0077
1786.00,0.0077
1785.00,0.0078
1784.00,0.0078
1783.00,0.0078
1782.00,0.0078
1781.00,0.0078
1780.00,0.0078
1779.00,0.0078
1778.00,0.0078
1777.00,0.0079
1776.00,0.0080
1775.00,0.0081
1774.00,0.0080
1773.00,0.0080
1772.00,0.0082
1771.00,0.0083
1770.00,0.0084
1769.00,0.0083
1768.00,0.0083
1767.00,0.0083
1766.00,0.0083
1765.00,0.0084
1764.00,0.0085
1763.00,0.0087
1762.00,0.0087
1761.00,0.0088
1760.00,0.0089
1759.00,0.0090
1758.00,0.0090
1757.00,0.0091
1756.00,0.0091
1755.00,0.0092
1754.00,0.0092
1753.00,0.0093
1752.00,0.0095
1751.00,0.0096
1750.00,0.0095
1749.00,0.0094
1748.00,0.0094
1747.00,0.0094
1746.00,0.0094
1745.00,0.0095
1744.00,0.0096
1743.00,0.0097
1742.00,0.0096
1741.00,0.0096
1740.00,0.0097
1739.00,0.0098
1738.00,0.0099
1737.00,0.0101
1736.00,0.0103
1735.00,0.0104
1734.00,0.0104
1733.00,0.0105
1732.00,0.0107
1731.00,0.0108
1730.00,0.0109
1729.00,0.0109
1728.00,0.0111
1727.00,0.0112
1726.00,0.0113
1725.00,0.0115
1724.00,0.0118
1723.00,0.0123
1722.00,0.0127
1721.00,0.0132
1720.00,0.0139
1719.00,0.0146
1718.00,0.0155
1717.00,0.0167
1716.00,0.0181
1715.00,0.0195
1714.00,0.0207
1713.00,0.0221
1712.00,0.0237
1711.00,0.0253
1710.00,0.0270
1709.00,0.0288
1708.00,0.0307
1707.00,0.0326
1706.00,0.0345
1705.00,0.0367
1704.00,0.0387
1703.00,0.0404
1702.00,0.0421
1701.00,0.0448
1700.00,0.0484
1699.00,0.0519
1698.00,0.0552
1697.00,0.0603
1696.00,0.0689
1695.00,0.0806
1694.00,0.0933
1693.00,0.1067
1692.00,0.1215
1691.00,0.1377
1690.00,0.1531
1689.00,0.1652
1688.00,0.1722
1687.00,0.1747
1686.00,0.1747
1685.00,0.1756
1684.00,0.1800
1683.00,0.1870
1682.00,0.1947
1681.00,0.2032
1680.00,0.2126
1679.00,0.2210
1678.00,0.2259
1677.00,0.2260
1676.00,0.2208
1675.00,0.2107
1674.00,0.1975
1673.00,0.1832
1672.00,0.1686
1671.00,0.1538
1670.00,0.1394
1669.00,0.1266
1668.00,0.1161
1667.00,0.1075
1666.00,0.1005
1665.00,0.0944
1664.00,0.0888
1663.00,0.0839
1662.00,0.0799
1661.00,0.0766
1660.00,0.0737
1659.00,0.0713
1658.00,0.0698
1657.00,0.0689
1656.00,0.0685
1655.00,0.0692
1654.00,0.0729
1653.00,0.0806
1652.00,0.0889
1651.00,0.0948
1650.00,0.0990
1649.00,0.1023
1648.00,0.1050
1647.00,0.1064
1646.00,0.1056
1645.00,0.1023
1644.00,0.0972
1643.00,0.0912
1642.00,0.0851
1641.00,0.0793
1640.00,0.0743
1639.00,0.0702
1638.00,0.0671
1637.00,0.0650
1636.00,0.0646
1635.00,0.0657
1634.00,0.0677
1633.00,0.0701
1632.00,0.0728
1631.00,0.0758
1630.00,0.0790
1629.00,0.0820
1628.00,0.0843
1627.00,0.0857
1626.00,0.0864
1625.00,0.0865
1624.00,0.0865
1623.00,0.0866
1622.00,0.0867
1621.00,0.0864
1620.00,0.0857
1619.00,0.0845
1618.00,0.0830
1617.00,0.0814
1616.00,0.0794
1615.00,0.0769
1614.00,0.0740
1613.00,0.0708
1612.00,0.0675
1611.00,0.0646
1610.00,0.0625
1609.00,0.0614
1608.00,0.0615
1607.00,0.0629
1606.00,0.0652
1605.00,0.0673
1604.00,0.0681
1603.00,0.0668
1602.00,0.0633
1601.00,0.0586
1600.00,0.0534
1599.00,0.0488
1598.00,0.0449
1597.00,0.0418
1596.00,0.0393
1595.00,0.0372
1594.00,0.0355
1593.00,0.0339
1592.00,0.0325
1591.00,0.0311
1590.00,0.0298
1589.00,0.0287
1588.00,0.0277
1587.00,0.0267
1586.00,0.0260
1585.00,0.0254
1584.00,0.0249
1583.00,0.0246
1582.00,0.0245
1581.00,0.0249
1580.00,0.0254
1579.00,0.0262
1578.00,0.0276
1577.00,0.0295
1576.00,0.0318
1575.00,0.0332
1574.00,0.0333
1573.00,0.0322
1572.00,0.0305
1571.00,0.0285
1570.00,0.0266
1569.00,0.0251
1568.00,0.0240
1567.00,0.0231
1566.00,0.0224
1565.00,0.0219
1564.00,0.0215
1563.00,0.0213
1562.00,0.0213
1561.00,0.0214
1560.00,0.0212
1559.00,0.0211
1558.00,0.0212
1557.00,0.0212
1556.00,0.0210
1555.00,0.0209
1554.00,0.0210
1553.00,0.0213
1552.00,0.0215
1551.00,0.0218
1550.00,0.0223
1549.00,0.0229
1548.00,0.0236
1547.00,0.0244
1546.00,0.0255
1545.00,0.0267
1544.00,0.0280
1543.00,0.0292
1542.00,0.0308
1541.00,0.0333
1540.00,0.0374
1539.00,0.0427
1538.00,0.0486
1537.00,0.0549
1536.00,0.0623
1535.00,0.0728
1534.00,0.0877
1533.00,0.1058
1532.00,0.1240
1531.00,0.1405
1530.00,0.1556
1529.00,0.1690
1528.00,0.1795
1527.00,0.1856
1526.00,0.1866
1525.00,0.1828
1524.00,0.1756
1523.00,0.1659
1522.00,0.1544
1521.00,0.1423
1520.00,0.1312
1519.00,0.1216
1518.00,0.1129
1517.00,0.1047
1516.00,0.0975
1515.00,0.0916
1514.00,0.0865
1513.00,0.0821
1512.00,0.0786
1511.00,0.0762
1510.00,0.0750
1509.00,0.0749
1508.00,0.0768
1507.00,0.0819
1506.00,0.0897
1505.00,0.0978
1504.00,0.1054
1503.00,0.1129
1502.00,0.1213
1501.00,0.1304
1500.00,0.1399
1499.00,0.1491
1498.00,0.1576
1497.00,0.1650
1496.00,0.1705
1495.00,0.1737
1494.00,0.1746
1493.00,0.1735
1492.00,0.1712
1491.00,0.1682
1490.00,0.1646
1489.00,0.1603
1488.00,0.1551
1487.00,0.1495
1486.00,0.1437
1485.00,0.1377
1484.00,0.1318
1483.00,0.1261
1482.00,0.1208
1481.00,0.1160
1480.00,0.1118
1479.00,0.1080
1478.00,0.1045
1477.00,0.1011
1476.00,0.0977
1475.00,0.0942
1474.00,0.0908
1473.00,0.0877
1472.00,0.0850
1471.00,0.0828
1470.00,0.0811
1469.00,0.0798
1468.00,0.0789
1467.00,0.0782
1466.00,0.0777
1465.00,0.0771
1464.00,0.0764
1463.00,0.0754
1462.00,0.0743
1461.00,0.0731
1460.00,0.0720
1459.00,0.0710
1458.00,0.0704
1457.00,0.0700
1456.00,0.0696
1455.00,0.0690
1454.00,0.0683
1453.00,0.0678
1452.00,0.0677
1451.00,0.0682
1450.00,0.0693
1449.00,0.0711
1448.00,0.0739
1447.00,0.0774
1446.00,0.0814
1445.00,0.0853
1444.00,0.0886
1443.00,0.0911
1442.00,0.0932
1441.00,0.0954
1440.00,0.0985
1439.00,0.1033
1438.00,0.1111
1437.00,0.1223
1436.00,0.1356
1435.00,0.1479
1434.00,0.1581
1433.00,0.1663
1432.00,0.1714
1431.00,0.1715
1430.00,0.1662
1429.00,0.1569
1428.00,0.1458
1427.00,0.1345
1426.00,0.1240
1425.00,0.1144
1424.00,0.1058
1423.00,0.0985
1422.00,0.0923
1421.00,0.0867
1420.00,0.0814
1419.00,0.0765
1418.00,0.0720
1417.00,0.0680
1416.00,0.0644
1415.00,0.0611
1414.00,0.0581
1413.00,0.0554
1412.00,0.0530
1411.00,0.0508
1410.00,0.0488
1409.00,0.0470
1408.00,0.0454
1407.00,0.0439
1406.00,0.0427
1405.00,0.0414
1404.00,0.0403
1403.00,0.0394
1402.00,0.0387
1401.00,0.0380
1400.00,0.0375
1399.00,0.0372
1398.00,0.0370
1397.00,0.0368
1396.00,0.0369
1395.00,0.0372
1394.00,0.0378
1393.00,0.0387
1392.00,0.0399
1391.00,0.0414
1390.00,0.0433
1389.00,0.0454
1388.00,0.0474
1387.00,0.0494
1386.00,0.0511
1385.00,0.0525
1384.00,0.0543
1383.00,0.0565
1382.00,0.0592
1381.00,0.0618
1380.00,0.0637
1379.00,0.0642
1378.00,0.0629
1377.00,0.0601
1376.00,0.0564
1375.00,0.0524
1374.00,0.0486
1373.00,0.0454
1372.00,0.0429
1371.00,0.0411
1370.00,0.0399
1369.00,0.0391
1368.00,0.0389
1367.00,0.0392
1366.00,0.0400
1365.00,0.0414
1364.00,0.0434
1363.00,0.0460
1362.00,0.0490
1361.00,0.0524
1360.00,0.0562
1359.00,0.0604
1358.00,0.0653
1357.00,0.0711
1356.00,0.0784
1355.00,0.0877
1354.00,0.0996
1353.00,0.1142
1352.00,0.1308
1351.00,0.1479
1350.00,0.1629
1349.00,0.1730
1348.00,0.1766
1347.00,0.1742
1346.00,0.1681
1345.00,0.1612
1344.00,0.1555
1343.00,0.1518
1342.00,0.1496
1341.00,0.1475
1340.00,0.1445
1339.00,0.1399
1338.00,0.1336
1337.00,0.1258
1336.00,0.1173
1335.00,0.1086
1334.00,0.1002
1333.00,0.0924
1332.00,0.0857
1331.00,0.0803
1330.00,0.0764
1329.00,0.0739
1328.00,0.0728
1327.00,0.0730
1326.00,0.0748
1325.00,0.0784
1324.00,0.0839
1323.00,0.0911
1322.00,0.0990
1321.00,0.1068
1320.00,0.1136
1319.00,0.1192
1318.00,0.1239
1317.00,0.1284
1316.00,0.1334
1315.00,0.1391
1314.00,0.1451
1313.00,0.1508
1312.00,0.1557
1311.00,0.1594
1310.00,0.1617
1309.00,0.1621
1308.00,0.1601
1307.00,0.1560
1306.00,0.1502
1305.00,0.1434
1304.00,0.1364
1303.00,0.1294
1302.00,0.1228
1301.00,0.1168
1300.00,0.1114
1299.00,0.1066
1298.00,0.1026
1297.00,0.0993
1296.00,0.0970
1295.00,0.0957
1294.00,0.0954
1293.00,0.0959
1292.00,0.0966
1291.00,0.0970
1290.00,0.0966
1289.00,0.0950
1288.00,0.0925
1287.00,0.0897
1286.00,0.0868
1285.00,0.0842
1284.00,0.0819
1283.00,0.0800
1282.00,0.0785
1281.00,0.0773
1280.00,0.0764
1279.00,0.0759
1278.00,0.0757
1277.00,0.0757
1276.00,0.0760
1275.00,0.0766
1274.00,0.0775
1273.00,0.0785
1272.00,0.0796
1271.00,0.0804
1270.00,0.0805
1269.00,0.0794
1268.00,0.0771
1267.00,0.0737
1266.00,0.0698
1265.00,0.0656
1264.00,0.0617
1263.00,0.0582
1262.00,0.0552
1261.00,0.0527
1260.00,0.0507
1259.00,0.0491
1258.00,0.0480
1257.00,0.0472
1256.00,0.0468
1255.00,0.0466
1254.00,0.0467
1253.00,0.0470
1252.00,0.0474
1251.00,0.0480
1250.00,0.0487
1249.00,0.0495
1248.00,0.0504
1247.00,0.0516
1246.00,0.0532
1245.00,0.0554
1244.00,0.0582
1243.00,0.0621
1242.00,0.0673
1241.00,0.0738
1240.00,0.0816
1239.00,0.0899
1238.00,0.0983
1237.00,0.1065
1236.00,0.1154
1235.00,0.1261
1234.00,0.1396
1233.00,0.1559
1232.00,0.1748
1231.00,0.1957
1230.00,0.2179
1229.00,0.2403
1228.00,0.2620
1227.00,0.2815
1226.00,0.2972
1225.00,0.3078
1224.00,0.3129
1223.00,0.3125
1222.00,0.3077
1221.00,0.2998
1220.00,0.2901
1219.00,0.2794
1218.00,0.2683
1217.00,0.2573
1216.00,0.2463
1215.00,0.2355
1214.00,0.2247
1213.00,0.2139
1212.00,0.2032
1211.00,0.1927
1210.00,0.1824
1209.00,0.1726
1208.00,0.1631
1207.00,0.1543
1206.00,0.1460
1205.00,0.1384
1204.00,0.1313
1203.00,0.1250
1202.00,0.1196
1201.00,0.1152
1200.00,0.1122
1199.00,0.1111
1198.00,0.1124
1197.00,0.1165
1196.00,0.1239
1195.00,0.1347
1194.00,0.1483
1193.00,0.1636
1192.00,0.1786
1191.00,0.1909
1190.00,0.1986
1189.00,0.2004
1188.00,0.1965
1187.00,0.1881
1186.00,0.1773
1185.00,0.1659
1184.00,0.1549
1183.00,0.1448
1182.00,0.1356
1181.00,0.1269
1180.00,0.1186
1179.00,0.1110
1178.00,0.1041
1177.00,0.0982
1176.00,0.0933
1175.00,0.0894
1174.00,0.0863
1173.00,0.0842
1172.00,0.0830
1171.00,0.0830
1170.00,0.0845
1169.00,0.0879
1168.00,0.0932
1167.00,0.1000
1166.00,0.1073
1165.00,0.1132
1164.00,0.1157
1163.00,0.1139
1162.00,0.1083
1161.00,0.1004
1160.00,0.0923
1159.00,0.0858
1158.00,0.0822
1157.00,0.0823
1156.00,0.0868
1155.00,0.0954
1154.00,0.1064
1153.00,0.1168
1152.00,0.1228
1151.00,0.1224
1150.00,0.1164
1149.00,0.1073
1148.00,0.0977
1147.00,0.0890
1146.00,0.0817
1145.00,0.0755
1144.00,0.0705
1143.00,0.0666
1142.00,0.0639
1141.00,0.0623
1140.00,0.0619
1139.00,0.0623
1138.00,0.0634
1137.00,0.0646
1136.00,0.0656
1135.00,0.0666
1134.00,0.0677
1133.00,0.0692
1132.00,0.0717
1131.00,0.0756
1130.00,0.0816
1129.00,0.0904
1128.00,0.1025
1127.00,0.1184
1126.00,0.1381
1125.00,0.1610
1124.00,0.1857
1123.00,0.2099
1122.00,0.2310
1121.00,0.2467
1120.00,0.2555
1119.00,0.2574
1118.00,0.2533
1117.00,0.2446
1116.00,0.2331
1115.00,0.2200
1114.00,0.2067
1113.00,0.1940
1112.00,0.1828
1111.00,0.1737
1110.00,0.1673
1109.00,0.1640
1108.00,0.1641
1107.00,0.1678
1106.00,0.1750
1105.00,0.1847
1104.00,0.1958
1103.00,0.2061
1102.00,0.2139
1101.00,0.2174
1100.00,0.2161
1099.00,0.2106
1098.00,0.2021
1097.00,0.1917
1096.00,0.1808
1095.00,0.1699
1094.00,0.1595
1093.00,0.1497
1092.00,0.1405
1091.00,0.1320
1090.00,0.1242
1089.00,0.1170
1088.00,0.1105
1087.00,0.1047
1086.00,0.0996
1085.00,0.0951
1084.00,0.0911
1083.00,0.0876
1082.00,0.0846
1081.00,0.0819
1080.00,0.0796
1079.00,0.0775
1078.00,0.0758
1077.00,0.0744
1076.00,0.0734
1075.00,0.0730
1074.00,0.0731
1073.00,0.0736
1072.00,0.0742
1071.00,0.0743
1070.00,0.0736
1069.00,0.0720
1068.00,0.0698
1067.00,0.0677
1066.00,0.0661
1065.00,0.0653
1064.00,0.0656
1063.00,0.0671
1062.00,0.0703
1061.00,0.0753
1060.00,0.0821
1059.00,0.0906
1058.00,0.1001
1057.00,0.1093
1056.00,0.1165
1055.00,0.1208
1054.00,0.1218
1053.00,0.1200
1052.00,0.1166
1051.00,0.1129
1050.00,0.1091
1049.00,0.1052
1048.00,0.1009
1047.00,0.0963
1046.00,0.0918
1045.00,0.0879
1044.00,0.0849
1043.00,0.0829
1042.00,0.0817
1041.00,0.0812
1040.00,0.0813
1039.00,0.0817
1038.00,0.0826
1037.00,0.0836
1036.00,0.0847
1035.00,0.0860
1034.00,0.0875
1033.00,0.0894
1032.00,0.0921
1031.00,0.0957
1030.00,0.1007
1029.00,0.1073
1028.00,0.1156
1027.00,0.1257
1026.00,0.1373
1025.00,0.1495
1024.00,0.1612
1023.00,0.1709
1022.00,0.1774
1021.00,0.1801
1020.00,0.1789
1019.00,0.1743
1018.00,0.1672
1017.00,0.1587
1016.00,0.1494
1015.00,0.1401
1014.00,0.1312
1013.00,0.1229
1012.00,0.1153
1011.00,0.1085
1010.00,0.1025
1009.00,0.0972
1008.00,0.0924
1007.00,0.0883
1006.00,0.0849
1005.00,0.0822
1004.00,0.0802
1003.00,0.0786
1002.00,0.0771
1001.00,0.0752
1000.00,0.0729
999.00,0.0705
998.00,0.0681
997.00,0.0660
996.00,0.0641
995.00,0.0623
994.00,0.0608
993.00,0.0595
992.00,0.0582
991.00,0.0570
990.00,0.0559
989.00,0.0550
988.00,0.0540
987.00,0.0532
986.00,0.0524
985.00,0.0517
984.00,0.0510
983.00,0.0504
982.00,0.0498
981.00,0.0493
980.00,0.0488
979.00,0.0483
978.00,0.0478
977.00,0.0474
976.00,0.0470
975.00,0.0467
974.00,0.0467
973.00,0.0471
972.00,0.0477
971.00,0.0486
970.00,0.0494
969.00,0.0497
968.00,0.0495
967.00,0.0491
966.00,0.0492
965.00,0.0501
964.00,0.0519
963.00,0.0537
962.00,0.0546
961.00,0.0541
960.00,0.0529
959.00,0.0523
958.00,0.0529
957.00,0.0548
956.00,0.0571
955.00,0.0588
954.00,0.0593
953.00,0.0583
952.00,0.0561
951.00,0.0535
950.00,0.0510
949.00,0.0488
948.00,0.0469
947.00,0.0453
946.00,0.0441
945.00,0.0429
944.00,0.0419
943.00,0.0411
942.00,0.0403
941.00,0.0397
940.00,0.0391
939.00,0.0385
938.00,0.0380
937.00,0.0376
936.00,0.0372
935.00,0.0368
934.00,0.0364
933.00,0.0361
932.00,0.0358
931.00,0.0355
930.00,0.0351
929.00,0.0348
928.00,0.0345
927.00,0.0342
926.00,0.0340
925.00,0.0338
924.00,0.0336
923.00,0.0333
922.00,0.0331
921.00,0.0328
920.00,0.0326
919.00,0.0324
918.00,0.0322
917.00,0.0321
916.00,0.0319
915.00,0.0316
914.00,0.0314
913.00,0.0312
912.00,0.0309
911.00,0.0307
910.00,0.0305
909.00,0.0303
908.00,0.0300
907.00,0.0298
906.00,0.0296
905.00,0.0295
904.00,0.0293
903.00,0.0291
902.00,0.0290
901.00,0.0288
900.00,0.0286
899.00,0.0284
898.00,0.0283
897.00,0.0282
896.00,0.0280
895.00,0.0278
894.00,0.0276
893.00,0.0275
892.00,0.0273
891.00,0.0272
890.00,0.0272
889.00,0.0272
888.00,0.0273
887.00,0.0276
886.00,0.0283
885.00,0.0291
884.00,0.0296
883.00,0.0296
882.00,0.0290
881.00,0.0281
880.00,0.0271
879.00,0.0263
878.00,0.0258
877.00,0.0255
876.00,0.0252
875.00,0.0249
874.00,0.0247
873.00,0.0246
872.00,0.0245
871.00,0.0244
870.00,0.0244
869.00,0.0244
868.00,0.0245
867.00,0.0247
866.00,0.0252
865.00,0.0262
864.00,0.0284
863.00,0.0331
862.00,0.0426
861.00,0.0577
860.00,0.0753
859.00,0.0882
858.00,0.0898
857.00,0.0800
856.00,0.0652
855.00,0.0520
854.00,0.0429
853.00,0.0372
852.00,0.0336
851.00,0.0313
850.00,0.0298
849.00,0.0288
848.00,0.0281
847.00,0.0275
846.00,0.0273
845.00,0.0272
844.00,0.0272
843.00,0.0277
842.00,0.0287
841.00,0.0305
840.00,0.0337
839.00,0.0393
838.00,0.0480
837.00,0.0594
836.00,0.0722
835.00,0.0847
834.00,0.0961
833.00,0.1071
832.00,0.1186
831.00,0.1302
830.00,0.1395
829.00,0.1433
828.00,0.1403
827.00,0.1316
826.00,0.1198
825.00,0.1071
824.00,0.0951
823.00,0.0847
822.00,0.0759
821.00,0.0682
820.00,0.0614
819.00,0.0556
818.00,0.0506
817.00,0.0463
816.00,0.0427
815.00,0.0399
814.00,0.0379
813.00,0.0367
812.00,0.0363
811.00,0.0368
810.00,0.0383
809.00,0.0402
808.00,0.0421
807.00,0.0433
806.00,0.0430
805.00,0.0412
804.00,0.0386
803.00,0.0363
802.00,0.0353
801.00,0.0360
800.00,0.0393
799.00,0.0469
798.00,0.0611
797.00,0.0834
796.00,0.1122
795.00,0.1414
794.00,0.1616
793.00,0.1661
792.00,0.1563
791.00,0.1396
790.00,0.1224
789.00,0.1073
788.00,0.0941
787.00,0.0825
786.00,0.0726
785.00,0.0647
784.00,0.0587
783.00,0.0543
782.00,0.0509
781.00,0.0483
780.00,0.0462
779.00,0.0446
778.00,0.0437
777.00,0.0436
776.00,0.0448
775.00,0.0475
774.00,0.0512
773.00,0.0544
772.00,0.0553
771.00,0.0539
770.00,0.0516
769.00,0.0510
768.00,0.0542
767.00,0.0631
766.00,0.0779
765.00,0.0969
764.00,0.1153
763.00,0.1273
762.00,0.1291
761.00,0.1216
760.00,0.1090
759.00,0.0959
758.00,0.0848
757.00,0.0762
756.00,0.0698
755.00,0.0654
754.00,0.0625
753.00,0.0613
752.00,0.0622
751.00,0.0659
750.00,0.0735
749.00,0.0859
748.00,0.1031
747.00,0.1233
746.00,0.1422
745.00,0.1544
744.00,0.1564
743.00,0.1490
742.00,0.1357
741.00,0.1205
740.00,0.1057
739.00,0.0926
738.00,0.0815
737.00,0.0722
736.00,0.0646
735.00,0.0586
734.00,0.0538
733.00,0.0500
732.00,0.0470
731.00,0.0446
730.00,0.0427
729.00,0.0412
728.00,0.0400
727.00,0.0391
726.00,0.0385
725.00,0.0381
724.00,0.0379
723.00,0.0382
722.00,0.0390
721.00,0.0405
720.00,0.0433
719.00,0.0482
718.00,0.0564
717.00,0.0696
716.00,0.0894
715.00,0.1152
714.00,0.1431
713.00,0.1653
712.00,0.1749
711.00,0.1697
710.00,0.1540
709.00,0.1342
708.00,0.1151
707.00,0.0994
706.00,0.0874
705.00,0.0787
704.00,0.0723
703.00,0.0676
702.00,0.0643
701.00,0.0621
700.00,0.0607
699.00,0.0602
698.00,0.0606
697.00,0.0620
696.00,0.0643
695.00,0.0678
694.00,0.0728
693.00,0.0792
692.00,0.0870
691.00,0.0962
690.00,0.1062
689.00,0.1159
688.00,0.1237
687.00,0.1279
686.00,0.1272
685.00,0.1217
684.00,0.1129
683.00,0.1032
682.00,0.0945
681.00,0.0879
680.00,0.0840
679.00,0.0830
678.00,0.0847
677.00,0.0886
676.00,0.0937
675.00,0.0986
674.00,0.1016
673.00,0.1013
672.00,0.0979
671.00,0.0931
670.00,0.0884
669.00,0.0847
668.00,0.0828
667.00,0.0824
666.00,0.0827
665.00,0.0831
664.00,0.0833
663.00,0.0832
662.00,0.0826
661.00,0.0811
660.00,0.0790
659.00,0.0763
658.00,0.0735
657.00,0.0704
656.00,0.0673
655.00,0.0644
654.00,0.0616
653.00,0.0590
652.00,0.0564
651.00,0.0541
650.00,0.0521
649.00,0.0502
648.00,0.0484
647.00,0.0467
646.00,0.0453
645.00,0.0439
644.00,0.0425
643.00,0.0413
642.00,0.0402
641.00,0.0392
640.00,0.0381
639.00,0.0371
638.00,0.0365
637.00,0.0361
636.00,0.0357
635.00,0.0356
634.00,0.0359
633.00,0.0367
632.00,0.0382
631.00,0.0408
630.00,0.0450
629.00,0.0513
628.00,0.0600
627.00,0.0709
626.00,0.0831
625.00,0.0942
624.00,0.1017
623.00,0.1046
622.00,0.1029
621.00,0.0977
620.00,0.0908
619.00,0.0836
618.00,0.0771
617.00,0.0716
616.00,0.0672
615.00,0.0639
614.00,0.0620
613.00,0.0613
612.00,0.0618
611.00,0.0637
610.00,0.0662
609.00,0.0682
608.00,0.0687
607.00,0.0673
606.00,0.0643
605.00,0.0604
604.00,0.0563
603.00,0.0527
602.00,0.0499
601.00,0.0477
600.00,0.0458
599.00,0.0445
598.00,0.0438
597.00,0.0437
596.00,0.0444
595.00,0.0462
594.00,0.0496
593.00,0.0542
592.00,0.0587
591.00,0.0621
590.00,0.0633
589.00,0.0625
588.00,0.0613
587.00,0.0617
586.00,0.0642
585.00,0.0671
584.00,0.0681
583.00,0.0662
582.00,0.0621
581.00,0.0571
580.00,0.0525
579.00,0.0489
578.00,0.0465
577.00,0.0447
576.00,0.0433
575.00,0.0424
574.00,0.0421
573.00,0.0421
572.00,0.0425
571.00,0.0434
570.00,0.0450
569.00,0.0468
568.00,0.0487
567.00,0.0506
566.00,0.0525
565.00,0.0541
564.00,0.0548
563.00,0.0543
562.00,0.0528
561.00,0.0502
560.00,0.0472
559.00,0.0444
558.00,0.0422
557.00,0.0405
556.00,0.0390
555.00,0.0377
554.00,0.0367
553.00,0.0359
552.00,0.0350
551.00,0.0342
550.00,0.0339
549.00,0.0335
548.00,0.0330
547.00,0.0326
546.00,0.0324
545.00,0.0322
544.00,0.0317
543.00,0.0313
542.00,0.0312
541.00,0.0310
540.00,0.0307
539.00,0.0303
538.00,0.0302
537.00,0.0300
536.00,0.0296
535.00,0.0293
534.00,0.0293
533.00,0.0291
532.00,0.0287
531.00,0.0284
530.00,0.0283
529.00,0.0282
528.00,0.0279
527.00,0.0277
526.00,0.0277
525.00,0.0276
524.00,0.0271
523.00,0.0268
522.00,0.0268
521.00,0.0269
520.00,0.0268
519.00,0.0269
518.00,0.0273
517.00,0.0279
516.00,0.0286
515.00,0.0299
514.00,0.0317
513.00,0.0332
512.00,0.0336
511.00,0.0329
510.00,0.0316
509.00,0.0302
508.00,0.0287
507.00,0.0278
506.00,0.0274
505.00,0.0273
504.00,0.0270
503.00,0.0267
502.00,0.0265
501.00,0.0262
500.00,0.0257
499.00,0.0252
498.00,0.0251
497.00,0.0251
496.00,0.0249
495.00,0.0248
494.00,0.0251
493.00,0.0253
492.00,0.0251
491.00,0.0250
490.00,0.0252
489.00,0.0254
488.00,0.0253
487.00,0.0253
486.00,0.0256
485.00,0.0259
484.00,0.0260
483.00,0.0264
482.00,0.0272
481.00,0.0281
480.00,0.0289
479.00,0.0300
478.00,0.0316
477.00,0.0335
476.00,0.0356
475.00,0.0384
474.00,0.0425
473.00,0.0472
472.00,0.0520
471.00,0.0570
470.00,0.0618
469.00,0.0655
468.00,0.0675
467.00,0.0679
466.00,0.0671
465.00,0.0650
464.00,0.0616
463.00,0.0580
462.00,0.0547
461.00,0.0515
460.00,0.0483
459.00,0.0456
458.00,0.0437
457.00,0.0418
456.00,0.0396
455.00,0.0378
454.00,0.0367
453.00,0.0358
452.00,0.0345
451.00,0.0335
450.00,0.0330
449.00,0.0325
448.00,0.0317
447.00,0.0310
446.00,0.0308
445.00,0.0305
444.00,0.0298
443.00,0.0293
442.00,0.0293
441.00,0.0292
440.00,0.0286
439.00,0.0283
438.00,0.0286
437.00,0.0288
436.00,0.0283
435.00,0.0276
434.00,0.0275
433.00,0.0273
432.00,0.0267
431.00,0.0265
430.00,0.0270
429.00,0.0275
428.00,0.0276
427.00,0.0279
426.00,0.0289
425.00,0.0300
424.00,0.0305
423.00,0.0314
422.00,0.0334
421.00,0.0356
420.00,0.0376
419.00,0.0404
418.00,0.0448
417.00,0.0489
416.00,0.0520
415.00,0.0552
414.00,0.0589
413.00,0.0614
412.00,0.0617
411.00,0.0614
410.00,0.0619
409.00,0.0626
408.00,0.0622
407.00,0.0610
406.00,0.0591
405.00,0.0550
404.00,0.0490
403.00,0.0439
402.00,0.0417
401.00,0.0407
400.00,0.0390
