Created as New Dataset,Sample 490 By YargerLab Date Friday, January 30 2026
cm-1,A
4000.00,0.0015
3999.00,0.0015
3998.00,0.0015
3997.00,0.0015
3996.00,0.0015
3995.00,0.0015
3994.00,0.0014
3993.00,0.0014
3992.00,0.0014
3991.00,0.0014
3990.00,0.0014
3989.00,0.0014
3988.00,0.0014
3987.00,0.0014
3986.00,0.0014
3985.00,0.0014
3984.00,0.0014
3983.00,0.0014
3982.00,0.0014
3981.00,0.0014
3980.00,0.0014
3979.00,0.0014
3978.00,0.0014
3977.00,0.0014
3976.00,0.0014
3975.00,0.0014
3974.00,0.0014
3973.00,0.0014
3972.00,0.0014
3971.00,0.0013
3970.00,0.0013
3969.00,0.0013
3968.00,0.0013
3967.00,0.0014
3966.00,0.0014
3965.00,0.0014
3964.00,0.0014
3963.00,0.0014
3962.00,0.0014
3961.00,0.0014
3960.00,0.0014
3959.00,0.0014
3958.00,0.0014
3957.00,0.0014
3956.00,0.0014
3955.00,0.0014
3954.00,0.0014
3953.00,0.0014
3952.00,0.0014
3951.00,0.0014
3950.00,0.0014
3949.00,0.0014
3948.00,0.0014
3947.00,0.0014
3946.00,0.0014
3945.00,0.0014
3944.00,0.0014
3943.00,0.0014
3942.00,0.0014
3941.00,0.0014
3940.00,0.0014
3939.00,0.0014
3938.00,0.0014
3937.00,0.0014
3936.00,0.0014
3935.00,0.0014
3934.00,0.0014
3933.00,0.0014
3932.00,0.0014
3931.00,0.0014
3930.00,0.0014
3929.00,0.0014
3928.00,0.0014
3927.00,0.0014
3926.00,0.0014
3925.00,0.0014
3924.00,0.0014
3923.00,0.0014
3922.00,0.0014
3921.00,0.0014
3920.00,0.0014
3919.00,0.0013
3918.00,0.0013
3917.00,0.0013
3916.00,0.0013
3915.00,0.0013
3914.00,0.0013
3913.00,0.0013
3912.00,0.0013
3911.00,0.0013
3910.00,0.0013
3909.00,0.0013
3908.00,0.0013
3907.00,0.0013
3906.00,0.0012
3905.00,0.0012
3904.00,0.0012
3903.00,0.0012
3902.00,0.0012
3901.00,0.0012
3900.00,0.0011
3899.00,0.0012
3898.00,0.0012
3897.00,0.0012
3896.00,0.0012
3895.00,0.0012
3894.00,0.0012
3893.00,0.0012
3892.00,0.0012
3891.00,0.0012
3890.00,0.0012
3889.00,0.0012
3888.00,0.0012
3887.00,0.0011
3886.00,0.0011
3885.00,0.0011
3884.00,0.0011
3883.00,0.0011
3882.00,0.0011
3881.00,0.0011
3880.00,0.0011
3879.00,0.0011
3878.00,0.0011
3877.00,0.0011
3876.00,0.0011
3875.00,0.0011
3874.00,0.0011
3873.00,0.0011
3872.00,0.0011
3871.00,0.0010
3870.00,0.0010
3869.00,0.0010
3868.00,0.0010
3867.00,0.0010
3866.00,0.0010
3865.00,0.0010
3864.00,0.0011
3863.00,0.0011
3862.00,0.0011
3861.00,0.0011
3860.00,0.0011
3859.00,0.0011
3858.00,0.0011
3857.00,0.0012
3856.00,0.0012
3855.00,0.0012
3854.00,0.0011
3853.00,0.0011
3852.00,0.0010
3851.00,0.0010
3850.00,0.0010
3849.00,0.0010
3848.00,0.0011
3847.00,0.0011
3846.00,0.0011
3845.00,0.0011
3844.00,0.0011
3843.00,0.0011
3842.00,0.0011
3841.00,0.0012
3840.00,0.0012
3839.00,0.0011
3838.00,0.0011
3837.00,0.0011
3836.00,0.0011
3835.00,0.0011
3834.00,0.0011
3833.00,0.0011
3832.00,0.0011
3831.00,0.0011
3830.00,0.0011
3829.00,0.0011
3828.00,0.0011
3827.00,0.0011
3826.00,0.0011
3825.00,0.0011
3824.00,0.0011
3823.00,0.0011
3822.00,0.0010
3821.00,0.0010
3820.00,0.0010
3819.00,0.0011
3818.00,0.0011
3817.00,0.0010
3816.00,0.0010
3815.00,0.0010
3814.00,0.0010
3813.00,0.0011
3812.00,0.0011
3811.00,0.0011
3810.00,0.0011
3809.00,0.0011
3808.00,0.0011
3807.00,0.0011
3806.00,0.0010
3805.00,0.0010
3804.00,0.0010
3803.00,0.0010
3802.00,0.0010
3801.00,0.0010
3800.00,0.0010
3799.00,0.0010
3798.00,0.0010
3797.00,0.0010
3796.00,0.0010
3795.00,0.0010
3794.00,0.0011
3793.00,0.0011
3792.00,0.0011
3791.00,0.0011
3790.00,0.0011
3789.00,0.0011
3788.00,0.0011
3787.00,0.0011
3786.00,0.0011
3785.00,0.0011
3784.00,0.0011
3783.00,0.0011
3782.00,0.0010
3781.00,0.0010
3780.00,0.0010
3779.00,0.0010
3778.00,0.0010
3777.00,0.0010
3776.00,0.0010
3775.00,0.0010
3774.00,0.0010
3773.00,0.0011
3772.00,0.0011
3771.00,0.0010
3770.00,0.0010
3769.00,0.0010
3768.00,0.0010
3767.00,0.0010
3766.00,0.0010
3765.00,0.0010
3764.00,0.0010
3763.00,0.0010
3762.00,0.0010
3761.00,0.0010
3760.00,0.0010
3759.00,0.0010
3758.00,0.0010
3757.00,0.0010
3756.00,0.0010
3755.00,0.0010
3754.00,0.0010
3753.00,0.0010
3752.00,0.0010
3751.00,0.0010
3750.00,0.0009
3749.00,0.0009
3748.00,0.0009
3747.00,0.0009
3746.00,0.0009
3745.00,0.0009
3744.00,0.0009
3743.00,0.0009
3742.00,0.0009
3741.00,0.0009
3740.00,0.0009
3739.00,0.0009
3738.00,0.0009
3737.00,0.0009
3736.00,0.0009
3735.00,0.0009
3734.00,0.0010
3733.00,0.0010
3732.00,0.0010
3731.00,0.0010
3730.00,0.0010
3729.00,0.0010
3728.00,0.0010
3727.00,0.0010
3726.00,0.0010
3725.00,0.0010
3724.00,0.0010
3723.00,0.0010
3722.00,0.0010
3721.00,0.0010
3720.00,0.0010
3719.00,0.0010
3718.00,0.0010
3717.00,0.0010
3716.00,0.0011
3715.00,0.0011
3714.00,0.0011
3713.00,0.0011
3712.00,0.0011
3711.00,0.0011
3710.00,0.0010
3709.00,0.0010
3708.00,0.0011
3707.00,0.0011
3706.00,0.0011
3705.00,0.0011
3704.00,0.0011
3703.00,0.0011
3702.00,0.0012
3701.00,0.0012
3700.00,0.0012
3699.00,0.0012
3698.00,0.0012
3697.00,0.0012
3696.00,0.0013
3695.00,0.0013
3694.00,0.0013
3693.00,0.0014
3692.00,0.0014
3691.00,0.0014
3690.00,0.0014
3689.00,0.0015
3688.00,0.0015
3687.00,0.0015
3686.00,0.0016
3685.00,0.0017
3684.00,0.0018
3683.00,0.0018
3682.00,0.0019
3681.00,0.0019
3680.00,0.0020
3679.00,0.0021
3678.00,0.0021
3677.00,0.0022
3676.00,0.0022
3675.00,0.0023
3674.00,0.0023
3673.00,0.0024
3672.00,0.0024
3671.00,0.0024
3670.00,0.0025
3669.00,0.0026
3668.00,0.0028
3667.00,0.0028
3666.00,0.0029
3665.00,0.0030
3664.00,0.0031
3663.00,0.0032
3662.00,0.0033
3661.00,0.0034
3660.00,0.0034
3659.00,0.0035
3658.00,0.0036
3657.00,0.0037
3656.00,0.0038
3655.00,0.0038
3654.00,0.0039
3653.00,0.0040
3652.00,0.0040
3651.00,0.0041
3650.00,0.0042
3649.00,0.0043
3648.00,0.0044
3647.00,0.0045
3646.00,0.0047
3645.00,0.0048
3644.00,0.0049
3643.00,0.0051
3642.00,0.0052
3641.00,0.0054
3640.00,0.0055
3639.00,0.0056
3638.00,0.0057
3637.00,0.0059
3636.00,0.0060
3635.00,0.0062
3634.00,0.0063
3633.00,0.0064
3632.00,0.0066
3631.00,0.0067
3630.00,0.0068
3629.00,0.0070
3628.00,0.0072
3627.00,0.0074
3626.00,0.0076
3625.00,0.0077
3624.00,0.0078
3623.00,0.0080
3622.00,0.0081
3621.00,0.0083
3620.00,0.0085
3619.00,0.0087
3618.00,0.0089
3617.00,0.0091
3616.00,0.0093
3615.00,0.0094
3614.00,0.0096
3613.00,0.0098
3612.00,0.0101
3611.00,0.0103
3610.00,0.0105
3609.00,0.0107
3608.00,0.0109
3607.00,0.0112
3606.00,0.0114
3605.00,0.0116
3604.00,0.0119
3603.00,0.0121
3602.00,0.0123
3601.00,0.0126
3600.00,0.0128
3599.00,0.0130
3598.00,0.0133
3597.00,0.0135
3596.00,0.0138
3595.00,0.0140
3594.00,0.0143
3593.00,0.0145
3592.00,0.0147
3591.00,0.0150
3590.00,0.0152
3589.00,0.0154
3588.00,0.0157
3587.00,0.0161
3586.00,0.0164
3585.00,0.0167
3584.00,0.0170
3583.00,0.0172
3582.00,0.0175
3581.00,0.0178
3580.00,0.0181
3579.00,0.0184
3578.00,0.0186
3577.00,0.0189
3576.00,0.0192
3575.00,0.0195
3574.00,0.0198
3573.00,0.0201
3572.00,0.0204
3571.00,0.0206
3570.00,0.0208
3569.00,0.0211
3568.00,0.0214
3567.00,0.0217
3566.00,0.0221
3565.00,0.0224
3564.00,0.0227
3563.00,0.0230
3562.00,0.0233
3561.00,0.0236
3560.00,0.0239
3559.00,0.0241
3558.00,0.0244
3557.00,0.0247
3556.00,0.0250
3555.00,0.0252
3554.00,0.0255
3553.00,0.0258
3552.00,0.0261
3551.00,0.0263
3550.00,0.0266
3549.00,0.0268
3548.00,0.0270
3547.00,0.0273
3546.00,0.0276
3545.00,0.0278
3544.00,0.0281
3543.00,0.0284
3542.00,0.0286
3541.00,0.0288
3540.00,0.0290
3539.00,0.0292
3538.00,0.0294
3537.00,0.0297
3536.00,0.0299
3535.00,0.0301
3534.00,0.0303
3533.00,0.0305
3532.00,0.0307
3531.00,0.0309
3530.00,0.0310
3529.00,0.0312
3528.00,0.0314
3527.00,0.0316
3526.00,0.0318
3525.00,0.0320
3524.00,0.0321
3523.00,0.0323
3522.00,0.0325
3521.00,0.0327
3520.00,0.0329
3519.00,0.0330
3518.00,0.0332
3517.00,0.0334
3516.00,0.0335
3515.00,0.0337
3514.00,0.0338
3513.00,0.0340
3512.00,0.0341
3511.00,0.0342
3510.00,0.0344
3509.00,0.0345
3508.00,0.0347
3507.00,0.0348
3506.00,0.0350
3505.00,0.0351
3504.00,0.0352
3503.00,0.0354
3502.00,0.0355
3501.00,0.0357
3500.00,0.0358
3499.00,0.0360
3498.00,0.0361
3497.00,0.0362
3496.00,0.0364
3495.00,0.0365
3494.00,0.0367
3493.00,0.0368
3492.00,0.0369
3491.00,0.0371
3490.00,0.0372
3489.00,0.0373
3488.00,0.0374
3487.00,0.0376
3486.00,0.0377
3485.00,0.0378
3484.00,0.0379
3483.00,0.0381
3482.00,0.0382
3481.00,0.0384
3480.00,0.0385
3479.00,0.0386
3478.00,0.0388
3477.00,0.0389
3476.00,0.0390
3475.00,0.0391
3474.00,0.0392
3473.00,0.0394
3472.00,0.0395
3471.00,0.0396
3470.00,0.0398
3469.00,0.0399
3468.00,0.0400
3467.00,0.0401
3466.00,0.0402
3465.00,0.0404
3464.00,0.0405
3463.00,0.0406
3462.00,0.0407
3461.00,0.0408
3460.00,0.0409
3459.00,0.0410
3458.00,0.0411
3457.00,0.0412
3456.00,0.0412
3455.00,0.0413
3454.00,0.0414
3453.00,0.0415
3452.00,0.0416
3451.00,0.0416
3450.00,0.0417
3449.00,0.0417
3448.00,0.0418
3447.00,0.0419
3446.00,0.0419
3445.00,0.0420
3444.00,0.0421
3443.00,0.0421
3442.00,0.0421
3441.00,0.0422
3440.00,0.0422
3439.00,0.0423
3438.00,0.0423
3437.00,0.0423
3436.00,0.0423
3435.00,0.0423
3434.00,0.0423
3433.00,0.0423
3432.00,0.0423
3431.00,0.0423
3430.00,0.0423
3429.00,0.0423
3428.00,0.0423
3427.00,0.0423
3426.00,0.0423
3425.00,0.0423
3424.00,0.0423
3423.00,0.0423
3422.00,0.0423
3421.00,0.0422
3420.00,0.0422
3419.00,0.0422
3418.00,0.0422
3417.00,0.0421
3416.00,0.0421
3415.00,0.0420
3414.00,0.0420
3413.00,0.0419
3412.00,0.0419
3411.00,0.0418
3410.00,0.0418
3409.00,0.0418
3408.00,0.0418
3407.00,0.0417
3406.00,0.0417
3405.00,0.0416
3404.00,0.0415
3403.00,0.0413
3402.00,0.0412
3401.00,0.0411
3400.00,0.0411
3399.00,0.0411
3398.00,0.0411
3397.00,0.0411
3396.00,0.0411
3395.00,0.0410
3394.00,0.0408
3393.00,0.0407
3392.00,0.0407
3391.00,0.0407
3390.00,0.0407
3389.00,0.0408
3388.00,0.0408
3387.00,0.0408
3386.00,0.0408
3385.00,0.0408
3384.00,0.0408
3383.00,0.0408
3382.00,0.0408
3381.00,0.0408
3380.00,0.0409
3379.00,0.0409
3378.00,0.0410
3377.00,0.0411
3376.00,0.0412
3375.00,0.0413
3374.00,0.0414
3373.00,0.0413
3372.00,0.0412
3371.00,0.0410
3370.00,0.0408
3369.00,0.0406
3368.00,0.0405
3367.00,0.0405
3366.00,0.0404
3365.00,0.0404
3364.00,0.0402
3363.00,0.0400
3362.00,0.0397
3361.00,0.0395
3360.00,0.0392
3359.00,0.0391
3358.00,0.0389
3357.00,0.0387
3356.00,0.0385
3355.00,0.0383
3354.00,0.0380
3353.00,0.0376
3352.00,0.0373
3351.00,0.0370
3350.00,0.0369
3349.00,0.0369
3348.00,0.0369
3347.00,0.0368
3346.00,0.0367
3345.00,0.0365
3344.00,0.0363
3343.00,0.0361
3342.00,0.0359
3341.00,0.0357
3340.00,0.0355
3339.00,0.0354
3338.00,0.0353
3337.00,0.0353
3336.00,0.0354
3335.00,0.0355
3334.00,0.0355
3333.00,0.0354
3332.00,0.0353
3331.00,0.0352
3330.00,0.0351
3329.00,0.0350
3328.00,0.0348
3327.00,0.0346
3326.00,0.0345
3325.00,0.0345
3324.00,0.0345
3323.00,0.0346
3322.00,0.0346
3321.00,0.0346
3320.00,0.0346
3319.00,0.0346
3318.00,0.0345
3317.00,0.0345
3316.00,0.0345
3315.00,0.0345
3314.00,0.0344
3313.00,0.0344
3312.00,0.0342
3311.00,0.0341
3310.00,0.0338
3309.00,0.0336
3308.00,0.0334
3307.00,0.0334
3306.00,0.0334
3305.00,0.0337
3304.00,0.0340
3303.00,0.0343
3302.00,0.0346
3301.00,0.0348
3300.00,0.0349
3299.00,0.0349
3298.00,0.0348
3297.00,0.0347
3296.00,0.0347
3295.00,0.0346
3294.00,0.0346
3293.00,0.0347
3292.00,0.0348
3291.00,0.0350
3290.00,0.0352
3289.00,0.0353
3288.00,0.0353
3287.00,0.0353
3286.00,0.0353
3285.00,0.0353
3284.00,0.0352
3283.00,0.0351
3282.00,0.0350
3281.00,0.0349
3280.00,0.0348
3279.00,0.0347
3278.00,0.0345
3277.00,0.0343
3276.00,0.0340
3275.00,0.0338
3274.00,0.0335
3273.00,0.0333
3272.00,0.0330
3271.00,0.0328
3270.00,0.0327
3269.00,0.0326
3268.00,0.0325
3267.00,0.0324
3266.00,0.0322
3265.00,0.0320
3264.00,0.0318
3263.00,0.0316
3262.00,0.0313
3261.00,0.0311
3260.00,0.0308
3259.00,0.0305
3258.00,0.0302
3257.00,0.0299
3256.00,0.0296
3255.00,0.0294
3254.00,0.0292
3253.00,0.0290
3252.00,0.0288
3251.00,0.0286
3250.00,0.0283
3249.00,0.0281
3248.00,0.0279
3247.00,0.0277
3246.00,0.0276
3245.00,0.0275
3244.00,0.0275
3243.00,0.0274
3242.00,0.0273
3241.00,0.0273
3240.00,0.0272
3239.00,0.0271
3238.00,0.0271
3237.00,0.0270
3236.00,0.0269
3235.00,0.0269
3234.00,0.0269
3233.00,0.0269
3232.00,0.0270
3231.00,0.0271
3230.00,0.0272
3229.00,0.0272
3228.00,0.0273
3227.00,0.0274
3226.00,0.0274
3225.00,0.0274
3224.00,0.0274
3223.00,0.0275
3222.00,0.0275
3221.00,0.0275
3220.00,0.0274
3219.00,0.0274
3218.00,0.0274
3217.00,0.0273
3216.00,0.0272
3215.00,0.0272
3214.00,0.0271
3213.00,0.0270
3212.00,0.0269
3211.00,0.0268
3210.00,0.0267
3209.00,0.0265
3208.00,0.0264
3207.00,0.0262
3206.00,0.0260
3205.00,0.0259
3204.00,0.0257
3203.00,0.0255
3202.00,0.0254
3201.00,0.0252
3200.00,0.0250
3199.00,0.0248
3198.00,0.0247
3197.00,0.0245
3196.00,0.0243
3195.00,0.0242
3194.00,0.0240
3193.00,0.0238
3192.00,0.0236
3191.00,0.0234
3190.00,0.0232
3189.00,0.0231
3188.00,0.0229
3187.00,0.0227
3186.00,0.0225
3185.00,0.0223
3184.00,0.0221
3183.00,0.0219
3182.00,0.0216
3181.00,0.0214
3180.00,0.0212
3179.00,0.0209
3178.00,0.0207
3177.00,0.0205
3176.00,0.0202
3175.00,0.0200
3174.00,0.0198
3173.00,0.0196
3172.00,0.0193
3171.00,0.0191
3170.00,0.0189
3169.00,0.0187
3168.00,0.0185
3167.00,0.0183
3166.00,0.0181
3165.00,0.0179
3164.00,0.0177
3163.00,0.0175
3162.00,0.0173
3161.00,0.0171
3160.00,0.0170
3159.00,0.0168
3158.00,0.0166
3157.00,0.0164
3156.00,0.0162
3155.00,0.0161
3154.00,0.0159
3153.00,0.0157
3152.00,0.0156
3151.00,0.0154
3150.00,0.0153
3149.00,0.0151
3148.00,0.0150
3147.00,0.0149
3146.00,0.0147
3145.00,0.0146
3144.00,0.0145
3143.00,0.0143
3142.00,0.0142
3141.00,0.0141
3140.00,0.0139
3139.00,0.0138
3138.00,0.0138
3137.00,0.0137
3136.00,0.0136
3135.00,0.0135
3134.00,0.0135
3133.00,0.0134
3132.00,0.0134
3131.00,0.0133
3130.00,0.0133
3129.00,0.0133
3128.00,0.0133
3127.00,0.0133
3126.00,0.0133
3125.00,0.0134
3124.00,0.0134
3123.00,0.0134
3122.00,0.0135
3121.00,0.0136
3120.00,0.0137
3119.00,0.0138
3118.00,0.0139
3117.00,0.0141
3116.00,0.0143
3115.00,0.0145
3114.00,0.0147
3113.00,0.0149
3112.00,0.0152
3111.00,0.0154
3110.00,0.0156
3109.00,0.0159
3108.00,0.0162
3107.00,0.0165
3106.00,0.0168
3105.00,0.0171
3104.00,0.0174
3103.00,0.0177
3102.00,0.0180
3101.00,0.0182
3100.00,0.0185
3099.00,0.0188
3098.00,0.0190
3097.00,0.0192
3096.00,0.0194
3095.00,0.0196
3094.00,0.0197
3093.00,0.0198
3092.00,0.0199
3091.00,0.0200
3090.00,0.0201
3089.00,0.0201
3088.00,0.0202
3087.00,0.0202
3086.00,0.0202
3085.00,0.0202
3084.00,0.0202
3083.00,0.0202
3082.00,0.0202
3081.00,0.0201
3080.00,0.0201
3079.00,0.0201
3078.00,0.0201
3077.00,0.0201
3076.00,0.0202
3075.00,0.0202
3074.00,0.0202
3073.00,0.0202
3072.00,0.0202
3071.00,0.0201
3070.00,0.0200
3069.00,0.0198
3068.00,0.0197
3067.00,0.0196
3066.00,0.0195
3065.00,0.0195
3064.00,0.0194
3063.00,0.0193
3062.00,0.0191
3061.00,0.0190
3060.00,0.0188
3059.00,0.0186
3058.00,0.0183
3057.00,0.0181
3056.00,0.0179
3055.00,0.0177
3054.00,0.0176
3053.00,0.0174
3052.00,0.0172
3051.00,0.0171
3050.00,0.0169
3049.00,0.0168
3048.00,0.0167
3047.00,0.0165
3046.00,0.0164
3045.00,0.0163
3044.00,0.0162
3043.00,0.0161
3042.00,0.0160
3041.00,0.0160
3040.00,0.0161
3039.00,0.0161
3038.00,0.0161
3037.00,0.0161
3036.00,0.0161
3035.00,0.0162
3034.00,0.0162
3033.00,0.0163
3032.00,0.0164
3031.00,0.0166
3030.00,0.0167
3029.00,0.0168
3028.00,0.0170
3027.00,0.0171
3026.00,0.0172
3025.00,0.0174
3024.00,0.0175
3023.00,0.0177
3022.00,0.0179
3021.00,0.0181
3020.00,0.0184
3019.00,0.0186
3018.00,0.0189
3017.00,0.0192
3016.00,0.0196
3015.00,0.0199
3014.00,0.0204
3013.00,0.0209
3012.00,0.0215
3011.00,0.0222
3010.00,0.0229
3009.00,0.0237
3008.00,0.0245
3007.00,0.0253
3006.00,0.0261
3005.00,0.0269
3004.00,0.0278
3003.00,0.0287
3002.00,0.0296
3001.00,0.0306
3000.00,0.0315
2999.00,0.0325
2998.00,0.0335
2997.00,0.0346
2996.00,0.0357
2995.00,0.0367
2994.00,0.0378
2993.00,0.0388
2992.00,0.0399
2991.00,0.0409
2990.00,0.0419
2989.00,0.0429
2988.00,0.0439
2987.00,0.0448
2986.00,0.0457
2985.00,0.0465
2984.00,0.0472
2983.00,0.0480
2982.00,0.0487
2981.00,0.0494
2980.00,0.0502
2979.00,0.0509
2978.00,0.0516
2977.00,0.0523
2976.00,0.0530
2975.00,0.0536
2974.00,0.0542
2973.00,0.0548
2972.00,0.0555
2971.00,0.0561
2970.00,0.0567
2969.00,0.0573
2968.00,0.0579
2967.00,0.0585
2966.00,0.0590
2965.00,0.0596
2964.00,0.0601
2963.00,0.0606
2962.00,0.0611
2961.00,0.0616
2960.00,0.0621
2959.00,0.0625
2958.00,0.0629
2957.00,0.0633
2956.00,0.0636
2955.00,0.0640
2954.00,0.0642
2953.00,0.0645
2952.00,0.0646
2951.00,0.0646
2950.00,0.0645
2949.00,0.0641
2948.00,0.0636
2947.00,0.0629
2946.00,0.0620
2945.00,0.0610
2944.00,0.0600
2943.00,0.0589
2942.00,0.0578
2941.00,0.0568
2940.00,0.0559
2939.00,0.0551
2938.00,0.0545
2937.00,0.0540
2936.00,0.0536
2935.00,0.0533
2934.00,0.0532
2933.00,0.0531
2932.00,0.0531
2931.00,0.0532
2930.00,0.0533
2929.00,0.0536
2928.00,0.0539
2927.00,0.0541
2926.00,0.0544
2925.00,0.0547
2924.00,0.0549
2923.00,0.0550
2922.00,0.0551
2921.00,0.0551
2920.00,0.0551
2919.00,0.0549
2918.00,0.0546
2917.00,0.0542
2916.00,0.0536
2915.00,0.0529
2914.00,0.0521
2913.00,0.0512
2912.00,0.0502
2911.00,0.0491
2910.00,0.0479
2909.00,0.0468
2908.00,0.0458
2907.00,0.0448
2906.00,0.0440
2905.00,0.0433
2904.00,0.0427
2903.00,0.0423
2902.00,0.0420
2901.00,0.0417
2900.00,0.0416
2899.00,0.0416
2898.00,0.0415
2897.00,0.0416
2896.00,0.0416
2895.00,0.0417
2894.00,0.0418
2893.00,0.0419
2892.00,0.0420
2891.00,0.0421
2890.00,0.0422
2889.00,0.0422
2888.00,0.0423
2887.00,0.0423
2886.00,0.0423
2885.00,0.0424
2884.00,0.0424
2883.00,0.0423
2882.00,0.0423
2881.00,0.0422
2880.00,0.0421
2879.00,0.0420
2878.00,0.0418
2877.00,0.0415
2876.00,0.0411
2875.00,0.0407
2874.00,0.0403
2873.00,0.0399
2872.00,0.0395
2871.00,0.0392
2870.00,0.0388
2869.00,0.0384
2868.00,0.0380
2867.00,0.0375
2866.00,0.0370
2865.00,0.0366
2864.00,0.0361
2863.00,0.0356
2862.00,0.0351
2861.00,0.0346
2860.00,0.0341
2859.00,0.0335
2858.00,0.0330
2857.00,0.0324
2856.00,0.0318
2855.00,0.0312
2854.00,0.0305
2853.00,0.0298
2852.00,0.0291
2851.00,0.0283
2850.00,0.0276
2849.00,0.0269
2848.00,0.0263
2847.00,0.0257
2846.00,0.0252
2845.00,0.0247
2844.00,0.0242
2843.00,0.0237
2842.00,0.0232
2841.00,0.0227
2840.00,0.0222
2839.00,0.0217
2838.00,0.0213
2837.00,0.0208
2836.00,0.0204
2835.00,0.0200
2834.00,0.0195
2833.00,0.0190
2832.00,0.0185
2831.00,0.0180
2830.00,0.0176
2829.00,0.0171
2828.00,0.0166
2827.00,0.0162
2826.00,0.0158
2825.00,0.0154
2824.00,0.0150
2823.00,0.0147
2822.00,0.0144
2821.00,0.0141
2820.00,0.0138
2819.00,0.0135
2818.00,0.0133
2817.00,0.0130
2816.00,0.0128
2815.00,0.0126
2814.00,0.0124
2813.00,0.0122
2812.00,0.0120
2811.00,0.0118
2810.00,0.0117
2809.00,0.0115
2808.00,0.0113
2807.00,0.0112
2806.00,0.0110
2805.00,0.0108
2804.00,0.0106
2803.00,0.0105
2802.00,0.0103
2801.00,0.0101
2800.00,0.0099
2799.00,0.0097
2798.00,0.0096
2797.00,0.0094
2796.00,0.0093
2795.00,0.0091
2794.00,0.0090
2793.00,0.0088
2792.00,0.0087
2791.00,0.0085
2790.00,0.0084
2789.00,0.0082
2788.00,0.0081
2787.00,0.0080
2786.00,0.0079
2785.00,0.0078
2784.00,0.0077
2783.00,0.0076
2782.00,0.0075
2781.00,0.0074
2780.00,0.0073
2779.00,0.0072
2778.00,0.0071
2777.00,0.0070
2776.00,0.0069
2775.00,0.0069
2774.00,0.0068
2773.00,0.0068
2772.00,0.0067
2771.00,0.0067
2770.00,0.0066
2769.00,0.0065
2768.00,0.0065
2767.00,0.0064
2766.00,0.0064
2765.00,0.0063
2764.00,0.0063
2763.00,0.0063
2762.00,0.0062
2761.00,0.0062
2760.00,0.0062
2759.00,0.0061
2758.00,0.0061
2757.00,0.0061
2756.00,0.0061
2755.00,0.0060
2754.00,0.0060
2753.00,0.0060
2752.00,0.0060
2751.00,0.0060
2750.00,0.0059
2749.00,0.0059
2748.00,0.0059
2747.00,0.0059
2746.00,0.0059
2745.00,0.0059
2744.00,0.0059
2743.00,0.0059
2742.00,0.0058
2741.00,0.0058
2740.00,0.0058
2739.00,0.0057
2738.00,0.0057
2737.00,0.0057
2736.00,0.0057
2735.00,0.0057
2734.00,0.0056
2733.00,0.0056
2732.00,0.0056
2731.00,0.0056
2730.00,0.0056
2729.00,0.0055
2728.00,0.0055
2727.00,0.0055
2726.00,0.0055
2725.00,0.0055
2724.00,0.0055
2723.00,0.0055
2722.00,0.0055
2721.00,0.0055
2720.00,0.0055
2719.00,0.0055
2718.00,0.0054
2717.00,0.0054
2716.00,0.0054
2715.00,0.0054
2714.00,0.0054
2713.00,0.0053
2712.00,0.0053
2711.00,0.0053
2710.00,0.0052
2709.00,0.0052
2708.00,0.0052
2707.00,0.0052
2706.00,0.0051
2705.00,0.0051
2704.00,0.0051
2703.00,0.0050
2702.00,0.0050
2701.00,0.0050
2700.00,0.0049
2699.00,0.0049
2698.00,0.0049
2697.00,0.0048
2696.00,0.0048
2695.00,0.0047
2694.00,0.0047
2693.00,0.0047
2692.00,0.0047
2691.00,0.0046
2690.00,0.0046
2689.00,0.0046
2688.00,0.0045
2687.00,0.0045
2686.00,0.0044
2685.00,0.0044
2684.00,0.0044
2683.00,0.0044
2682.00,0.0043
2681.00,0.0043
2680.00,0.0043
2679.00,0.0043
2678.00,0.0043
2677.00,0.0042
2676.00,0.0042
2675.00,0.0042
2674.00,0.0042
2673.00,0.0042
2672.00,0.0043
2671.00,0.0043
2670.00,0.0043
2669.00,0.0043
2668.00,0.0043
2667.00,0.0043
2666.00,0.0044
2665.00,0.0044
2664.00,0.0045
2663.00,0.0046
2662.00,0.0046
2661.00,0.0046
2660.00,0.0047
2659.00,0.0047
2658.00,0.0047
2657.00,0.0047
2656.00,0.0047
2655.00,0.0048
2654.00,0.0048
2653.00,0.0048
2652.00,0.0048
2651.00,0.0048
2650.00,0.0047
2649.00,0.0047
2648.00,0.0047
2647.00,0.0047
2646.00,0.0047
2645.00,0.0047
2644.00,0.0046
2643.00,0.0046
2642.00,0.0046
2641.00,0.0046
2640.00,0.0046
2639.00,0.0046
2638.00,0.0045
2637.00,0.0045
2636.00,0.0045
2635.00,0.0045
2634.00,0.0045
2633.00,0.0045
2632.00,0.0045
2631.00,0.0045
2630.00,0.0045
2629.00,0.0045
2628.00,0.0045
2627.00,0.0044
2626.00,0.0044
2625.00,0.0044
2624.00,0.0044
2623.00,0.0044
2622.00,0.0044
2621.00,0.0044
2620.00,0.0044
2619.00,0.0044
2618.00,0.0044
2617.00,0.0044
2616.00,0.0044
2615.00,0.0043
2614.00,0.0043
2613.00,0.0043
2612.00,0.0042
2611.00,0.0042
2610.00,0.0042
2609.00,0.0042
2608.00,0.0042
2607.00,0.0042
2606.00,0.0042
2605.00,0.0042
2604.00,0.0042
2603.00,0.0042
2602.00,0.0042
2601.00,0.0042
2600.00,0.0042
2599.00,0.0042
2598.00,0.0042
2597.00,0.0041
2596.00,0.0041
2595.00,0.0041
2594.00,0.0041
2593.00,0.0041
2592.00,0.0042
2591.00,0.0041
2590.00,0.0041
2589.00,0.0041
2588.00,0.0042
2587.00,0.0042
2586.00,0.0041
2585.00,0.0041
2584.00,0.0041
2583.00,0.0041
2582.00,0.0041
2581.00,0.0041
2580.00,0.0041
2579.00,0.0041
2578.00,0.0040
2577.00,0.0040
2576.00,0.0040
2575.00,0.0040
2574.00,0.0039
2573.00,0.0039
2572.00,0.0039
2571.00,0.0039
2570.00,0.0039
2569.00,0.0038
2568.00,0.0038
2567.00,0.0038
2566.00,0.0038
2565.00,0.0038
2564.00,0.0037
2563.00,0.0037
2562.00,0.0037
2561.00,0.0036
2560.00,0.0036
2559.00,0.0036
2558.00,0.0036
2557.00,0.0036
2556.00,0.0036
2555.00,0.0036
2554.00,0.0035
2553.00,0.0035
2552.00,0.0035
2551.00,0.0034
2550.00,0.0034
2549.00,0.0034
2548.00,0.0034
2547.00,0.0033
2546.00,0.0033
2545.00,0.0033
2544.00,0.0033
2543.00,0.0033
2542.00,0.0033
2541.00,0.0033
2540.00,0.0033
2539.00,0.0033
2538.00,0.0032
2537.00,0.0032
2536.00,0.0032
2535.00,0.0032
2534.00,0.0032
2533.00,0.0032
2532.00,0.0032
2531.00,0.0032
2530.00,0.0031
2529.00,0.0031
2528.00,0.0032
2527.00,0.0032
2526.00,0.0031
2525.00,0.0031
2524.00,0.0031
2523.00,0.0031
2522.00,0.0031
2521.00,0.0031
2520.00,0.0031
2519.00,0.0031
2518.00,0.0031
2517.00,0.0031
2516.00,0.0031
2515.00,0.0031
2514.00,0.0031
2513.00,0.0031
2512.00,0.0031
2511.00,0.0031
2510.00,0.0030
2509.00,0.0030
2508.00,0.0030
2507.00,0.0030
2506.00,0.0030
2505.00,0.0030
2504.00,0.0030
2503.00,0.0030
2502.00,0.0030
2501.00,0.0030
2500.00,0.0030
2499.00,0.0030
2498.00,0.0030
2497.00,0.0030
2496.00,0.0030
2495.00,0.0030
2494.00,0.0030
2493.00,0.0030
2492.00,0.0030
2491.00,0.0030
2490.00,0.0030
2489.00,0.0030
2488.00,0.0030
2487.00,0.0030
2486.00,0.0030
2485.00,0.0030
2484.00,0.0030
2483.00,0.0030
2482.00,0.0029
2481.00,0.0029
2480.00,0.0029
2479.00,0.0029
2478.00,0.0029
2477.00,0.0029
2476.00,0.0029
2475.00,0.0029
2474.00,0.0028
2473.00,0.0028
2472.00,0.0028
2471.00,0.0028
2470.00,0.0028
2469.00,0.0028
2468.00,0.0028
2467.00,0.0028
2466.00,0.0028
2465.00,0.0028
2464.00,0.0028
2463.00,0.0028
2462.00,0.0028
2461.00,0.0028
2460.00,0.0029
2459.00,0.0029
2458.00,0.0029
2457.00,0.0029
2456.00,0.0029
2455.00,0.0029
2454.00,0.0029
2453.00,0.0029
2452.00,0.0029
2451.00,0.0029
2450.00,0.0029
2449.00,0.0029
2448.00,0.0029
2447.00,0.0028
2446.00,0.0028
2445.00,0.0028
2444.00,0.0029
2443.00,0.0029
2442.00,0.0029
2441.00,0.0029
2440.00,0.0029
2439.00,0.0029
2438.00,0.0029
2437.00,0.0029
2436.00,0.0029
2435.00,0.0029
2434.00,0.0029
2433.00,0.0029
2432.00,0.0029
2431.00,0.0030
2430.00,0.0029
2429.00,0.0030
2428.00,0.0030
2427.00,0.0030
2426.00,0.0029
2425.00,0.0030
2424.00,0.0030
2423.00,0.0030
2422.00,0.0030
2421.00,0.0030
2420.00,0.0030
2419.00,0.0030
2418.00,0.0030
2417.00,0.0030
2416.00,0.0030
2415.00,0.0030
2414.00,0.0030
2413.00,0.0031
2412.00,0.0031
2411.00,0.0031
2410.00,0.0030
2409.00,0.0030
2408.00,0.0030
2407.00,0.0029
2406.00,0.0029
2405.00,0.0029
2404.00,0.0029
2403.00,0.0029
2402.00,0.0029
2401.00,0.0029
2400.00,0.0029
2399.00,0.0029
2398.00,0.0029
2397.00,0.0029
2396.00,0.0029
2395.00,0.0029
2394.00,0.0028
2393.00,0.0028
2392.00,0.0028
2391.00,0.0028
2390.00,0.0028
2389.00,0.0028
2388.00,0.0028
2387.00,0.0028
2386.00,0.0028
2385.00,0.0028
2384.00,0.0027
2383.00,0.0027
2382.00,0.0027
2381.00,0.0027
2380.00,0.0027
2379.00,0.0027
2378.00,0.0027
2377.00,0.0027
2376.00,0.0028
2375.00,0.0028
2374.00,0.0027
2373.00,0.0027
2372.00,0.0027
2371.00,0.0027
2370.00,0.0027
2369.00,0.0027
2368.00,0.0027
2367.00,0.0028
2366.00,0.0028
2365.00,0.0028
2364.00,0.0028
2363.00,0.0029
2362.00,0.0029
2361.00,0.0029
2360.00,0.0030
2359.00,0.0030
2358.00,0.0030
2357.00,0.0030
2356.00,0.0029
2355.00,0.0029
2354.00,0.0028
2353.00,0.0028
2352.00,0.0028
2351.00,0.0028
2350.00,0.0029
2349.00,0.0031
2348.00,0.0033
2347.00,0.0034
2346.00,0.0034
2345.00,0.0034
2344.00,0.0034
2343.00,0.0034
2342.00,0.0034
2341.00,0.0034
2340.00,0.0034
2339.00,0.0035
2338.00,0.0035
2337.00,0.0035
2336.00,0.0035
2335.00,0.0035
2334.00,0.0035
2333.00,0.0035
2332.00,0.0035
2331.00,0.0035
2330.00,0.0035
2329.00,0.0037
2328.00,0.0040
2327.00,0.0044
2326.00,0.0047
2325.00,0.0048
2324.00,0.0048
2323.00,0.0046
2322.00,0.0043
2321.00,0.0041
2320.00,0.0040
2319.00,0.0039
2318.00,0.0039
2317.00,0.0038
2316.00,0.0038
2315.00,0.0038
2314.00,0.0037
2313.00,0.0037
2312.00,0.0036
2311.00,0.0036
2310.00,0.0036
2309.00,0.0035
2308.00,0.0035
2307.00,0.0035
2306.00,0.0035
2305.00,0.0035
2304.00,0.0035
2303.00,0.0035
2302.00,0.0035
2301.00,0.0035
2300.00,0.0035
2299.00,0.0035
2298.00,0.0035
2297.00,0.0035
2296.00,0.0036
2295.00,0.0036
2294.00,0.0037
2293.00,0.0037
2292.00,0.0038
2291.00,0.0038
2290.00,0.0038
2289.00,0.0039
2288.00,0.0039
2287.00,0.0039
2286.00,0.0039
2285.00,0.0038
2284.00,0.0038
2283.00,0.0037
2282.00,0.0037
2281.00,0.0036
2280.00,0.0036
2279.00,0.0036
2278.00,0.0035
2277.00,0.0035
2276.00,0.0035
2275.00,0.0035
2274.00,0.0034
2273.00,0.0034
2272.00,0.0034
2271.00,0.0034
2270.00,0.0033
2269.00,0.0033
2268.00,0.0033
2267.00,0.0033
2266.00,0.0032
2265.00,0.0032
2264.00,0.0032
2263.00,0.0032
2262.00,0.0032
2261.00,0.0032
2260.00,0.0033
2259.00,0.0033
2258.00,0.0032
2257.00,0.0030
2256.00,0.0030
2255.00,0.0029
2254.00,0.0028
2253.00,0.0028
2252.00,0.0029
2251.00,0.0030
2250.00,0.0029
2249.00,0.0029
2248.00,0.0029
2247.00,0.0029
2246.00,0.0029
2245.00,0.0029
2244.00,0.0029
2243.00,0.0029
2242.00,0.0028
2241.00,0.0028
2240.00,0.0029
2239.00,0.0028
2238.00,0.0028
2237.00,0.0027
2236.00,0.0027
2235.00,0.0027
2234.00,0.0027
2233.00,0.0027
2232.00,0.0028
2231.00,0.0027
2230.00,0.0026
2229.00,0.0026
2228.00,0.0026
2227.00,0.0027
2226.00,0.0027
2225.00,0.0027
2224.00,0.0028
2223.00,0.0028
2222.00,0.0028
2221.00,0.0028
2220.00,0.0028
2219.00,0.0028
2218.00,0.0027
2217.00,0.0027
2216.00,0.0028
2215.00,0.0028
2214.00,0.0027
2213.00,0.0027
2212.00,0.0027
2211.00,0.0027
2210.00,0.0026
2209.00,0.0026
2208.00,0.0026
2207.00,0.0026
2206.00,0.0025
2205.00,0.0025
2204.00,0.0026
2203.00,0.0026
2202.00,0.0025
2201.00,0.0025
2200.00,0.0026
2199.00,0.0026
2198.00,0.0025
2197.00,0.0025
2196.00,0.0025
2195.00,0.0025
2194.00,0.0025
2193.00,0.0025
2192.00,0.0027
2191.00,0.0027
2190.00,0.0027
2189.00,0.0027
2188.00,0.0028
2187.00,0.0029
2186.00,0.0028
2185.00,0.0027
2184.00,0.0026
2183.00,0.0024
2182.00,0.0022
2181.00,0.0021
2180.00,0.0023
2179.00,0.0024
2178.00,0.0023
2177.00,0.0022
2176.00,0.0022
2175.00,0.0022
2174.00,0.0023
2173.00,0.0025
2172.00,0.0028
2171.00,0.0030
2170.00,0.0032
2169.00,0.0034
2168.00,0.0036
2167.00,0.0038
2166.00,0.0038
2165.00,0.0039
2164.00,0.0042
2163.00,0.0042
2162.00,0.0037
2161.00,0.0027
2160.00,0.0016
2159.00,0.0005
2158.00,-0.0002
2157.00,-0.0003
2156.00,0.0001
2155.00,0.0004
2154.00,0.0006
2153.00,0.0009
2152.00,0.0012
2151.00,0.0014
2150.00,0.0014
2149.00,0.0014
2148.00,0.0015
2147.00,0.0015
2146.00,0.0014
2145.00,0.0014
2144.00,0.0015
2143.00,0.0015
2142.00,0.0015
2141.00,0.0015
2140.00,0.0016
2139.00,0.0016
2138.00,0.0015
2137.00,0.0013
2136.00,0.0012
2135.00,0.0011
2134.00,0.0010
2133.00,0.0010
2132.00,0.0012
2131.00,0.0014
2130.00,0.0015
2129.00,0.0017
2128.00,0.0018
2127.00,0.0020
2126.00,0.0021
2125.00,0.0021
2124.00,0.0022
2123.00,0.0023
2122.00,0.0023
2121.00,0.0024
2120.00,0.0025
2119.00,0.0026
2118.00,0.0026
2117.00,0.0027
2116.00,0.0028
2115.00,0.0029
2114.00,0.0029
2113.00,0.0028
2112.00,0.0028
2111.00,0.0028
2110.00,0.0028
2109.00,0.0027
2108.00,0.0028
2107.00,0.0027
2106.00,0.0027
2105.00,0.0027
2104.00,0.0027
2103.00,0.0027
2102.00,0.0026
2101.00,0.0026
2100.00,0.0026
2099.00,0.0025
2098.00,0.0024
2097.00,0.0022
2096.00,0.0021
2095.00,0.0021
2094.00,0.0020
2093.00,0.0021
2092.00,0.0022
2091.00,0.0024
2090.00,0.0024
2089.00,0.0024
2088.00,0.0025
2087.00,0.0025
2086.00,0.0025
2085.00,0.0025
2084.00,0.0025
2083.00,0.0025
2082.00,0.0024
2081.00,0.0024
2080.00,0.0025
2079.00,0.0025
2078.00,0.0024
2077.00,0.0024
2076.00,0.0024
2075.00,0.0023
2074.00,0.0022
2073.00,0.0022
2072.00,0.0022
2071.00,0.0022
2070.00,0.0021
2069.00,0.0020
2068.00,0.0020
2067.00,0.0020
2066.00,0.0018
2065.00,0.0018
2064.00,0.0018
2063.00,0.0017
2062.00,0.0016
2061.00,0.0015
2060.00,0.0016
2059.00,0.0016
2058.00,0.0015
2057.00,0.0015
2056.00,0.0015
2055.00,0.0015
2054.00,0.0016
2053.00,0.0019
2052.00,0.0022
2051.00,0.0022
2050.00,0.0017
2049.00,0.0013
2048.00,0.0010
2047.00,0.0008
2046.00,0.0005
2045.00,0.0004
2044.00,0.0004
2043.00,0.0004
2042.00,0.0003
2041.00,0.0002
2040.00,0.0003
2039.00,0.0002
2038.00,0.0000
2037.00,-0.0001
2036.00,-0.0001
2035.00,-0.0003
2034.00,-0.0006
2033.00,-0.0007
2032.00,-0.0007
2031.00,-0.0007
2030.00,-0.0008
2029.00,-0.0008
2028.00,-0.0006
2027.00,-0.0005
2026.00,-0.0006
2025.00,-0.0006
2024.00,-0.0004
2023.00,-0.0003
2022.00,-0.0003
2021.00,-0.0002
2020.00,0.0000
2019.00,0.0001
2018.00,0.0001
2017.00,0.0002
2016.00,0.0004
2015.00,0.0005
2014.00,0.0004
2013.00,0.0004
2012.00,0.0006
2011.00,0.0006
2010.00,0.0005
2009.00,0.0004
2008.00,0.0004
2007.00,0.0002
2006.00,0.0000
2005.00,0.0001
2004.00,0.0004
2003.00,0.0007
2002.00,0.0008
2001.00,0.0009
2000.00,0.0012
1999.00,0.0013
1998.00,0.0013
1997.00,0.0014
1996.00,0.0016
1995.00,0.0017
1994.00,0.0017
1993.00,0.0018
1992.00,0.0020
1991.00,0.0022
1990.00,0.0021
1989.00,0.0021
1988.00,0.0022
1987.00,0.0022
1986.00,0.0021
1985.00,0.0022
1984.00,0.0025
1983.00,0.0028
1982.00,0.0029
1981.00,0.0029
1980.00,0.0028
1979.00,0.0023
1978.00,0.0016
1977.00,0.0011
1976.00,0.0009
1975.00,0.0008
1974.00,0.0006
1973.00,0.0006
1972.00,0.0008
1971.00,0.0009
1970.00,0.0008
1969.00,0.0008
1968.00,0.0009
1967.00,0.0010
1966.00,0.0009
1965.00,0.0010
1964.00,0.0011
1963.00,0.0011
1962.00,0.0009
1961.00,0.0008
1960.00,0.0009
1959.00,0.0009
1958.00,0.0008
1957.00,0.0009
1956.00,0.0011
1955.00,0.0012
1954.00,0.0011
1953.00,0.0012
1952.00,0.0013
1951.00,0.0013
1950.00,0.0012
1949.00,0.0012
1948.00,0.0013
1947.00,0.0013
1946.00,0.0013
1945.00,0.0013
1944.00,0.0015
1943.00,0.0015
1942.00,0.0014
1941.00,0.0014
1940.00,0.0014
1939.00,0.0014
1938.00,0.0013
1937.00,0.0013
1936.00,0.0013
1935.00,0.0013
1934.00,0.0013
1933.00,0.0013
1932.00,0.0013
1931.00,0.0014
1930.00,0.0013
1929.00,0.0013
1928.00,0.0014
1927.00,0.0015
1926.00,0.0014
1925.00,0.0015
1924.00,0.0016
1923.00,0.0017
1922.00,0.0018
1921.00,0.0019
1920.00,0.0020
1919.00,0.0020
1918.00,0.0019
1917.00,0.0019
1916.00,0.0019
1915.00,0.0019
1914.00,0.0018
1913.00,0.0018
1912.00,0.0019
1911.00,0.0019
1910.00,0.0019
1909.00,0.0019
1908.00,0.0020
1907.00,0.0020
1906.00,0.0019
1905.00,0.0019
1904.00,0.0020
1903.00,0.0021
1902.00,0.0020
1901.00,0.0020
1900.00,0.0020
1899.00,0.0021
1898.00,0.0020
1897.00,0.0020
1896.00,0.0021
1895.00,0.0021
1894.00,0.0020
1893.00,0.0020
1892.00,0.0021
1891.00,0.0022
1890.00,0.0021
1889.00,0.0021
1888.00,0.0022
1887.00,0.0021
1886.00,0.0020
1885.00,0.0020
1884.00,0.0020
1883.00,0.0021
1882.00,0.0020
1881.00,0.0020
1880.00,0.0021
1879.00,0.0022
1878.00,0.0021
1877.00,0.0021
1876.00,0.0022
1875.00,0.0022
1874.00,0.0022
1873.00,0.0022
1872.00,0.0023
1871.00,0.0025
1870.00,0.0025
1869.00,0.0025
1868.00,0.0026
1867.00,0.0026
1866.00,0.0025
1865.00,0.0024
1864.00,0.0024
1863.00,0.0024
1862.00,0.0024
1861.00,0.0024
1860.00,0.0025
1859.00,0.0025
1858.00,0.0025
1857.00,0.0025
1856.00,0.0026
1855.00,0.0026
1854.00,0.0025
1853.00,0.0026
1852.00,0.0026
1851.00,0.0027
1850.00,0.0027
1849.00,0.0028
1848.00,0.0030
1847.00,0.0031
1846.00,0.0030
1845.00,0.0030
1844.00,0.0030
1843.00,0.0030
1842.00,0.0030
1841.00,0.0030
1840.00,0.0030
1839.00,0.0030
1838.00,0.0029
1837.00,0.0030
1836.00,0.0030
1835.00,0.0031
1834.00,0.0031
1833.00,0.0031
1832.00,0.0033
1831.00,0.0034
1830.00,0.0034
1829.00,0.0034
1828.00,0.0034
1827.00,0.0035
1826.00,0.0034
1825.00,0.0034
1824.00,0.0034
1823.00,0.0034
1822.00,0.0032
1821.00,0.0031
1820.00,0.0031
1819.00,0.0030
1818.00,0.0029
1817.00,0.0029
1816.00,0.0029
1815.00,0.0030
1814.00,0.0030
1813.00,0.0031
1812.00,0.0033
1811.00,0.0034
1810.00,0.0034
1809.00,0.0034
1808.00,0.0035
1807.00,0.0035
1806.00,0.0035
1805.00,0.0035
1804.00,0.0037
1803.00,0.0039
1802.00,0.0040
1801.00,0.0040
1800.00,0.0041
1799.00,0.0041
1798.00,0.0040
1797.00,0.0040
1796.00,0.0042
1795.00,0.0043
1794.00,0.0043
1793.00,0.0043
1792.00,0.0045
1791.00,0.0046
1790.00,0.0045
1789.00,0.0045
1788.00,0.0046
1787.00,0.0046
1786.00,0.0046
1785.00,0.0047
1784.00,0.0049
1783.00,0.0050
1782.00,0.0051
1781.00,0.0051
1780.00,0.0053
1779.00,0.0054
1778.00,0.0054
1777.00,0.0055
1776.00,0.0057
1775.00,0.0059
1774.00,0.0059
1773.00,0.0060
1772.00,0.0062
1771.00,0.0065
1770.00,0.0067
1769.00,0.0068
1768.00,0.0070
1767.00,0.0070
1766.00,0.0070
1765.00,0.0071
1764.00,0.0073
1763.00,0.0074
1762.00,0.0075
1761.00,0.0077
1760.00,0.0079
1759.00,0.0081
1758.00,0.0082
1757.00,0.0083
1756.00,0.0085
1755.00,0.0086
1754.00,0.0087
1753.00,0.0088
1752.00,0.0091
1751.00,0.0094
1750.00,0.0097
1749.00,0.0100
1748.00,0.0103
1747.00,0.0105
1746.00,0.0106
1745.00,0.0108
1744.00,0.0111
1743.00,0.0114
1742.00,0.0116
1741.00,0.0117
1740.00,0.0121
1739.00,0.0124
1738.00,0.0127
1737.00,0.0130
1736.00,0.0134
1735.00,0.0137
1734.00,0.0139
1733.00,0.0143
1732.00,0.0151
1731.00,0.0158
1730.00,0.0163
1729.00,0.0167
1728.00,0.0173
1727.00,0.0179
1726.00,0.0184
1725.00,0.0191
1724.00,0.0200
1723.00,0.0210
1722.00,0.0218
1721.00,0.0229
1720.00,0.0242
1719.00,0.0257
1718.00,0.0273
1717.00,0.0295
1716.00,0.0324
1715.00,0.0355
1714.00,0.0386
1713.00,0.0422
1712.00,0.0465
1711.00,0.0513
1710.00,0.0565
1709.00,0.0625
1708.00,0.0693
1707.00,0.0770
1706.00,0.0854
1705.00,0.0944
1704.00,0.1030
1703.00,0.1106
1702.00,0.1183
1701.00,0.1280
1700.00,0.1394
1699.00,0.1494
1698.00,0.1567
1697.00,0.1635
1696.00,0.1719
1695.00,0.1814
1694.00,0.1903
1693.00,0.1987
1692.00,0.2077
1691.00,0.2182
1690.00,0.2302
1689.00,0.2432
1688.00,0.2561
1687.00,0.2683
1686.00,0.2816
1685.00,0.2990
1684.00,0.3204
1683.00,0.3406
1682.00,0.3566
1681.00,0.3705
1680.00,0.3843
1679.00,0.3980
1678.00,0.4107
1677.00,0.4231
1676.00,0.4367
1675.00,0.4509
1674.00,0.4630
1673.00,0.4723
1672.00,0.4799
1671.00,0.4872
1670.00,0.4947
1669.00,0.5021
1668.00,0.5083
1667.00,0.5126
1666.00,0.5152
1665.00,0.5171
1664.00,0.5193
1663.00,0.5216
1662.00,0.5233
1661.00,0.5237
1660.00,0.5225
1659.00,0.5198
1658.00,0.5157
1657.00,0.5104
1656.00,0.5038
1655.00,0.4954
1654.00,0.4844
1653.00,0.4712
1652.00,0.4582
1651.00,0.4464
1650.00,0.4349
1649.00,0.4221
1648.00,0.4074
1647.00,0.3912
1646.00,0.3747
1645.00,0.3589
1644.00,0.3437
1643.00,0.3285
1642.00,0.3129
1641.00,0.2968
1640.00,0.2811
1639.00,0.2665
1638.00,0.2525
1637.00,0.2382
1636.00,0.2239
1635.00,0.2109
1634.00,0.2004
1633.00,0.1918
1632.00,0.1844
1631.00,0.1776
1630.00,0.1713
1629.00,0.1655
1628.00,0.1601
1627.00,0.1553
1626.00,0.1509
1625.00,0.1463
1624.00,0.1415
1623.00,0.1366
1622.00,0.1318
1621.00,0.1271
1620.00,0.1225
1619.00,0.1176
1618.00,0.1122
1617.00,0.1063
1616.00,0.1005
1615.00,0.0956
1614.00,0.0913
1613.00,0.0872
1612.00,0.0829
1611.00,0.0789
1610.00,0.0753
1609.00,0.0721
1608.00,0.0693
1607.00,0.0670
1606.00,0.0650
1605.00,0.0632
1604.00,0.0613
1603.00,0.0592
1602.00,0.0569
1601.00,0.0543
1600.00,0.0516
1599.00,0.0490
1598.00,0.0466
1597.00,0.0445
1596.00,0.0426
1595.00,0.0409
1594.00,0.0395
1593.00,0.0382
1592.00,0.0369
1591.00,0.0358
1590.00,0.0348
1589.00,0.0338
1588.00,0.0329
1587.00,0.0321
1586.00,0.0315
1585.00,0.0310
1584.00,0.0306
1583.00,0.0304
1582.00,0.0304
1581.00,0.0305
1580.00,0.0307
1579.00,0.0307
1578.00,0.0305
1577.00,0.0299
1576.00,0.0291
1575.00,0.0284
1574.00,0.0280
1573.00,0.0277
1572.00,0.0271
1571.00,0.0265
1570.00,0.0259
1569.00,0.0255
1568.00,0.0251
1567.00,0.0248
1566.00,0.0246
1565.00,0.0246
1564.00,0.0246
1563.00,0.0246
1562.00,0.0247
1561.00,0.0247
1560.00,0.0247
1559.00,0.0247
1558.00,0.0248
1557.00,0.0249
1556.00,0.0249
1555.00,0.0248
1554.00,0.0249
1553.00,0.0251
1552.00,0.0254
1551.00,0.0259
1550.00,0.0266
1549.00,0.0273
1548.00,0.0280
1547.00,0.0290
1546.00,0.0305
1545.00,0.0325
1544.00,0.0348
1543.00,0.0375
1542.00,0.0410
1541.00,0.0458
1540.00,0.0526
1539.00,0.0608
1538.00,0.0692
1537.00,0.0772
1536.00,0.0854
1535.00,0.0947
1534.00,0.1055
1533.00,0.1160
1532.00,0.1238
1531.00,0.1281
1530.00,0.1291
1529.00,0.1271
1528.00,0.1220
1527.00,0.1144
1526.00,0.1053
1525.00,0.0960
1524.00,0.0876
1523.00,0.0803
1522.00,0.0739
1521.00,0.0689
1520.00,0.0659
1519.00,0.0647
1518.00,0.0647
1517.00,0.0657
1516.00,0.0674
1515.00,0.0697
1514.00,0.0725
1513.00,0.0760
1512.00,0.0802
1511.00,0.0848
1510.00,0.0895
1509.00,0.0944
1508.00,0.1001
1507.00,0.1071
1506.00,0.1148
1505.00,0.1213
1504.00,0.1265
1503.00,0.1311
1502.00,0.1356
1501.00,0.1402
1500.00,0.1445
1499.00,0.1484
1498.00,0.1517
1497.00,0.1541
1496.00,0.1553
1495.00,0.1552
1494.00,0.1539
1493.00,0.1514
1492.00,0.1473
1491.00,0.1417
1490.00,0.1348
1489.00,0.1271
1488.00,0.1189
1487.00,0.1108
1486.00,0.1031
1485.00,0.0963
1484.00,0.0903
1483.00,0.0850
1482.00,0.0806
1481.00,0.0771
1480.00,0.0745
1479.00,0.0727
1478.00,0.0716
1477.00,0.0713
1476.00,0.0715
1475.00,0.0721
1474.00,0.0734
1473.00,0.0760
1472.00,0.0798
1471.00,0.0845
1470.00,0.0899
1469.00,0.0962
1468.00,0.1037
1467.00,0.1123
1466.00,0.1225
1465.00,0.1340
1464.00,0.1450
1463.00,0.1537
1462.00,0.1596
1461.00,0.1629
1460.00,0.1635
1459.00,0.1613
1458.00,0.1557
1457.00,0.1475
1456.00,0.1388
1455.00,0.1316
1454.00,0.1262
1453.00,0.1223
1452.00,0.1198
1451.00,0.1191
1450.00,0.1204
1449.00,0.1239
1448.00,0.1294
1447.00,0.1364
1446.00,0.1442
1445.00,0.1526
1444.00,0.1616
1443.00,0.1711
1442.00,0.1811
1441.00,0.1913
1440.00,0.2013
1439.00,0.2108
1438.00,0.2206
1437.00,0.2313
1436.00,0.2413
1435.00,0.2485
1434.00,0.2529
1433.00,0.2555
1432.00,0.2569
1431.00,0.2575
1430.00,0.2581
1429.00,0.2596
1428.00,0.2625
1427.00,0.2664
1426.00,0.2714
1425.00,0.2769
1424.00,0.2816
1423.00,0.2837
1422.00,0.2827
1421.00,0.2783
1420.00,0.2697
1419.00,0.2565
1418.00,0.2404
1417.00,0.2233
1416.00,0.2056
1415.00,0.1880
1414.00,0.1713
1413.00,0.1562
1412.00,0.1427
1411.00,0.1311
1410.00,0.1214
1409.00,0.1134
1408.00,0.1067
1407.00,0.1010
1406.00,0.0960
1405.00,0.0914
1404.00,0.0869
1403.00,0.0827
1402.00,0.0789
1401.00,0.0754
1400.00,0.0720
1399.00,0.0690
1398.00,0.0667
1397.00,0.0650
1396.00,0.0636
1395.00,0.0629
1394.00,0.0628
1393.00,0.0632
1392.00,0.0641
1391.00,0.0656
1390.00,0.0679
1389.00,0.0711
1388.00,0.0750
1387.00,0.0796
1386.00,0.0844
1385.00,0.0890
1384.00,0.0929
1383.00,0.0962
1382.00,0.0986
1381.00,0.1000
1380.00,0.1003
1379.00,0.0999
1378.00,0.0992
1377.00,0.0982
1376.00,0.0973
1375.00,0.0964
1374.00,0.0958
1373.00,0.0952
1372.00,0.0947
1371.00,0.0945
1370.00,0.0946
1369.00,0.0951
1368.00,0.0959
1367.00,0.0970
1366.00,0.0983
1365.00,0.0997
1364.00,0.1010
1363.00,0.1020
1362.00,0.1027
1361.00,0.1030
1360.00,0.1029
1359.00,0.1026
1358.00,0.1022
1357.00,0.1016
1356.00,0.1006
1355.00,0.0992
1354.00,0.0973
1353.00,0.0948
1352.00,0.0918
1351.00,0.0883
1350.00,0.0847
1349.00,0.0810
1348.00,0.0773
1347.00,0.0740
1346.00,0.0711
1345.00,0.0687
1344.00,0.0670
1343.00,0.0658
1342.00,0.0654
1341.00,0.0654
1340.00,0.0658
1339.00,0.0663
1338.00,0.0671
1337.00,0.0678
1336.00,0.0685
1335.00,0.0694
1334.00,0.0705
1333.00,0.0718
1332.00,0.0734
1331.00,0.0752
1330.00,0.0773
1329.00,0.0797
1328.00,0.0823
1327.00,0.0852
1326.00,0.0884
1325.00,0.0918
1324.00,0.0954
1323.00,0.0991
1322.00,0.1031
1321.00,0.1072
1320.00,0.1113
1319.00,0.1155
1318.00,0.1197
1317.00,0.1238
1316.00,0.1277
1315.00,0.1316
1314.00,0.1356
1313.00,0.1398
1312.00,0.1438
1311.00,0.1473
1310.00,0.1500
1309.00,0.1512
1308.00,0.1508
1307.00,0.1489
1306.00,0.1460
1305.00,0.1429
1304.00,0.1401
1303.00,0.1382
1302.00,0.1377
1301.00,0.1387
1300.00,0.1414
1299.00,0.1463
1298.00,0.1538
1297.00,0.1639
1296.00,0.1769
1295.00,0.1925
1294.00,0.2103
1293.00,0.2295
1292.00,0.2493
1291.00,0.2687
1290.00,0.2866
1289.00,0.3023
1288.00,0.3149
1287.00,0.3239
1286.00,0.3294
1285.00,0.3317
1284.00,0.3315
1283.00,0.3299
1282.00,0.3277
1281.00,0.3260
1280.00,0.3252
1279.00,0.3255
1278.00,0.3267
1277.00,0.3285
1276.00,0.3304
1275.00,0.3317
1274.00,0.3317
1273.00,0.3299
1272.00,0.3257
1271.00,0.3187
1270.00,0.3090
1269.00,0.2970
1268.00,0.2830
1267.00,0.2677
1266.00,0.2518
1265.00,0.2358
1264.00,0.2201
1263.00,0.2050
1262.00,0.1909
1261.00,0.1776
1260.00,0.1654
1259.00,0.1543
1258.00,0.1445
1257.00,0.1358
1256.00,0.1283
1255.00,0.1219
1254.00,0.1166
1253.00,0.1124
1252.00,0.1090
1251.00,0.1064
1250.00,0.1046
1249.00,0.1034
1248.00,0.1028
1247.00,0.1028
1246.00,0.1035
1245.00,0.1048
1244.00,0.1066
1243.00,0.1086
1242.00,0.1108
1241.00,0.1128
1240.00,0.1143
1239.00,0.1155
1238.00,0.1163
1237.00,0.1167
1236.00,0.1169
1235.00,0.1173
1234.00,0.1180
1233.00,0.1192
1232.00,0.1209
1231.00,0.1232
1230.00,0.1260
1229.00,0.1294
1228.00,0.1331
1227.00,0.1373
1226.00,0.1421
1225.00,0.1473
1224.00,0.1530
1223.00,0.1590
1222.00,0.1654
1221.00,0.1720
1220.00,0.1789
1219.00,0.1859
1218.00,0.1932
1217.00,0.2006
1216.00,0.2080
1215.00,0.2153
1214.00,0.2223
1213.00,0.2286
1212.00,0.2335
1211.00,0.2368
1210.00,0.2379
1209.00,0.2368
1208.00,0.2333
1207.00,0.2277
1206.00,0.2205
1205.00,0.2120
1204.00,0.2027
1203.00,0.1931
1202.00,0.1834
1201.00,0.1741
1200.00,0.1653
1199.00,0.1574
1198.00,0.1506
1197.00,0.1450
1196.00,0.1407
1195.00,0.1378
1194.00,0.1361
1193.00,0.1355
1192.00,0.1356
1191.00,0.1362
1190.00,0.1369
1189.00,0.1373
1188.00,0.1370
1187.00,0.1361
1186.00,0.1344
1185.00,0.1318
1184.00,0.1286
1183.00,0.1249
1182.00,0.1211
1181.00,0.1172
1180.00,0.1134
1179.00,0.1101
1178.00,0.1072
1177.00,0.1049
1176.00,0.1033
1175.00,0.1022
1174.00,0.1017
1173.00,0.1016
1172.00,0.1015
1171.00,0.1013
1170.00,0.1008
1169.00,0.1000
1168.00,0.0990
1167.00,0.0977
1166.00,0.0964
1165.00,0.0948
1164.00,0.0930
1163.00,0.0910
1162.00,0.0888
1161.00,0.0863
1160.00,0.0837
1159.00,0.0810
1158.00,0.0787
1157.00,0.0766
1156.00,0.0751
1155.00,0.0741
1154.00,0.0737
1153.00,0.0740
1152.00,0.0749
1151.00,0.0767
1150.00,0.0795
1149.00,0.0829
1148.00,0.0866
1147.00,0.0900
1146.00,0.0926
1145.00,0.0940
1144.00,0.0944
1143.00,0.0941
1142.00,0.0936
1141.00,0.0933
1140.00,0.0935
1139.00,0.0942
1138.00,0.0956
1137.00,0.0972
1136.00,0.0989
1135.00,0.1002
1134.00,0.1006
1133.00,0.0997
1132.00,0.0976
1131.00,0.0946
1130.00,0.0916
1129.00,0.0891
1128.00,0.0877
1127.00,0.0878
1126.00,0.0897
1125.00,0.0935
1124.00,0.0990
1123.00,0.1063
1122.00,0.1151
1121.00,0.1248
1120.00,0.1348
1119.00,0.1445
1118.00,0.1527
1117.00,0.1588
1116.00,0.1619
1115.00,0.1618
1114.00,0.1590
1113.00,0.1539
1112.00,0.1475
1111.00,0.1411
1110.00,0.1357
1109.00,0.1319
1108.00,0.1303
1107.00,0.1311
1106.00,0.1343
1105.00,0.1394
1104.00,0.1458
1103.00,0.1530
1102.00,0.1605
1101.00,0.1673
1100.00,0.1727
1099.00,0.1762
1098.00,0.1771
1097.00,0.1754
1096.00,0.1713
1095.00,0.1652
1094.00,0.1577
1093.00,0.1494
1092.00,0.1406
1091.00,0.1318
1090.00,0.1233
1089.00,0.1153
1088.00,0.1078
1087.00,0.1010
1086.00,0.0950
1085.00,0.0898
1084.00,0.0854
1083.00,0.0818
1082.00,0.0790
1081.00,0.0768
1080.00,0.0753
1079.00,0.0743
1078.00,0.0739
1077.00,0.0739
1076.00,0.0741
1075.00,0.0747
1074.00,0.0756
1073.00,0.0768
1072.00,0.0785
1071.00,0.0809
1070.00,0.0842
1069.00,0.0885
1068.00,0.0938
1067.00,0.1002
1066.00,0.1076
1065.00,0.1159
1064.00,0.1246
1063.00,0.1335
1062.00,0.1422
1061.00,0.1504
1060.00,0.1578
1059.00,0.1642
1058.00,0.1695
1057.00,0.1736
1056.00,0.1768
1055.00,0.1790
1054.00,0.1807
1053.00,0.1819
1052.00,0.1828
1051.00,0.1836
1050.00,0.1846
1049.00,0.1858
1048.00,0.1870
1047.00,0.1883
1046.00,0.1896
1045.00,0.1907
1044.00,0.1914
1043.00,0.1914
1042.00,0.1909
1041.00,0.1899
1040.00,0.1887
1039.00,0.1876
1038.00,0.1871
1037.00,0.1872
1036.00,0.1881
1035.00,0.1895
1034.00,0.1916
1033.00,0.1939
1032.00,0.1965
1031.00,0.1991
1030.00,0.2019
1029.00,0.2047
1028.00,0.2077
1027.00,0.2109
1026.00,0.2142
1025.00,0.2176
1024.00,0.2208
1023.00,0.2237
1022.00,0.2259
1021.00,0.2271
1020.00,0.2270
1019.00,0.2252
1018.00,0.2216
1017.00,0.2160
1016.00,0.2084
1015.00,0.1991
1014.00,0.1886
1013.00,0.1771
1012.00,0.1654
1011.00,0.1539
1010.00,0.1432
1009.00,0.1336
1008.00,0.1253
1007.00,0.1184
1006.00,0.1131
1005.00,0.1089
1004.00,0.1055
1003.00,0.1024
1002.00,0.0991
1001.00,0.0954
1000.00,0.0913
999.00,0.0868
998.00,0.0824
997.00,0.0781
996.00,0.0741
995.00,0.0706
994.00,0.0675
993.00,0.0647
992.00,0.0623
991.00,0.0603
990.00,0.0585
989.00,0.0570
988.00,0.0557
987.00,0.0546
986.00,0.0536
985.00,0.0528
984.00,0.0520
983.00,0.0513
982.00,0.0507
981.00,0.0502
980.00,0.0497
979.00,0.0493
978.00,0.0489
977.00,0.0486
976.00,0.0483
975.00,0.0480
974.00,0.0479
973.00,0.0477
972.00,0.0477
971.00,0.0478
970.00,0.0481
969.00,0.0486
968.00,0.0495
967.00,0.0507
966.00,0.0525
965.00,0.0547
964.00,0.0575
963.00,0.0610
962.00,0.0653
961.00,0.0703
960.00,0.0757
959.00,0.0816
958.00,0.0874
957.00,0.0928
956.00,0.0971
955.00,0.1001
954.00,0.1014
953.00,0.1009
952.00,0.0989
951.00,0.0955
950.00,0.0912
949.00,0.0863
948.00,0.0810
947.00,0.0759
946.00,0.0712
945.00,0.0670
944.00,0.0635
943.00,0.0608
942.00,0.0588
941.00,0.0577
940.00,0.0572
939.00,0.0573
938.00,0.0582
937.00,0.0594
936.00,0.0609
935.00,0.0623
934.00,0.0635
933.00,0.0638
932.00,0.0633
931.00,0.0620
930.00,0.0602
929.00,0.0582
928.00,0.0562
927.00,0.0543
926.00,0.0525
925.00,0.0506
924.00,0.0486
923.00,0.0466
922.00,0.0448
921.00,0.0431
920.00,0.0415
919.00,0.0401
918.00,0.0390
917.00,0.0380
916.00,0.0372
915.00,0.0365
914.00,0.0360
913.00,0.0357
912.00,0.0354
911.00,0.0352
910.00,0.0352
909.00,0.0353
908.00,0.0355
907.00,0.0358
906.00,0.0364
905.00,0.0370
904.00,0.0377
903.00,0.0386
902.00,0.0395
901.00,0.0405
900.00,0.0414
899.00,0.0422
898.00,0.0428
897.00,0.0432
896.00,0.0433
895.00,0.0430
894.00,0.0426
893.00,0.0419
892.00,0.0409
891.00,0.0398
890.00,0.0387
889.00,0.0375
888.00,0.0364
887.00,0.0354
886.00,0.0345
885.00,0.0338
884.00,0.0331
883.00,0.0326
882.00,0.0323
881.00,0.0321
880.00,0.0319
879.00,0.0318
878.00,0.0318
877.00,0.0318
876.00,0.0318
875.00,0.0318
874.00,0.0320
873.00,0.0323
872.00,0.0326
871.00,0.0332
870.00,0.0340
869.00,0.0351
868.00,0.0365
867.00,0.0383
866.00,0.0407
865.00,0.0433
864.00,0.0461
863.00,0.0492
862.00,0.0526
861.00,0.0564
860.00,0.0603
859.00,0.0637
858.00,0.0658
857.00,0.0662
856.00,0.0651
855.00,0.0637
854.00,0.0625
853.00,0.0621
852.00,0.0622
851.00,0.0628
850.00,0.0637
849.00,0.0647
848.00,0.0658
847.00,0.0668
846.00,0.0679
845.00,0.0690
844.00,0.0700
843.00,0.0708
842.00,0.0715
841.00,0.0720
840.00,0.0720
839.00,0.0720
838.00,0.0721
837.00,0.0725
836.00,0.0735
835.00,0.0753
834.00,0.0775
833.00,0.0798
832.00,0.0813
831.00,0.0815
830.00,0.0799
829.00,0.0768
828.00,0.0726
827.00,0.0683
826.00,0.0644
825.00,0.0612
824.00,0.0586
823.00,0.0565
822.00,0.0551
821.00,0.0539
820.00,0.0529
819.00,0.0521
818.00,0.0512
817.00,0.0501
816.00,0.0489
815.00,0.0478
814.00,0.0468
813.00,0.0459
812.00,0.0452
811.00,0.0448
810.00,0.0450
809.00,0.0455
808.00,0.0466
807.00,0.0482
806.00,0.0507
805.00,0.0539
804.00,0.0577
803.00,0.0619
802.00,0.0656
801.00,0.0683
800.00,0.0695
799.00,0.0695
798.00,0.0688
797.00,0.0680
796.00,0.0675
795.00,0.0674
794.00,0.0677
793.00,0.0684
792.00,0.0694
791.00,0.0706
790.00,0.0720
789.00,0.0733
788.00,0.0745
787.00,0.0755
786.00,0.0764
785.00,0.0769
784.00,0.0770
783.00,0.0768
782.00,0.0764
781.00,0.0759
780.00,0.0752
779.00,0.0744
778.00,0.0735
777.00,0.0727
776.00,0.0719
775.00,0.0714
774.00,0.0712
773.00,0.0713
772.00,0.0717
771.00,0.0720
770.00,0.0721
769.00,0.0718
768.00,0.0713
767.00,0.0708
766.00,0.0708
765.00,0.0714
764.00,0.0725
763.00,0.0743
762.00,0.0765
761.00,0.0790
760.00,0.0814
759.00,0.0835
758.00,0.0853
757.00,0.0865
756.00,0.0873
755.00,0.0877
754.00,0.0878
753.00,0.0878
752.00,0.0877
751.00,0.0875
750.00,0.0875
749.00,0.0875
748.00,0.0875
747.00,0.0876
746.00,0.0879
745.00,0.0884
744.00,0.0890
743.00,0.0897
742.00,0.0905
741.00,0.0911
740.00,0.0919
739.00,0.0932
738.00,0.0957
737.00,0.0994
736.00,0.1036
735.00,0.1074
734.00,0.1098
733.00,0.1102
732.00,0.1090
731.00,0.1071
730.00,0.1054
729.00,0.1042
728.00,0.1033
727.00,0.1024
726.00,0.1010
725.00,0.0989
724.00,0.0963
723.00,0.0939
722.00,0.0925
721.00,0.0922
720.00,0.0932
719.00,0.0952
718.00,0.0980
717.00,0.1008
716.00,0.1031
715.00,0.1043
714.00,0.1043
713.00,0.1031
712.00,0.1009
711.00,0.0982
710.00,0.0955
709.00,0.0932
708.00,0.0914
707.00,0.0903
706.00,0.0899
705.00,0.0900
704.00,0.0902
703.00,0.0906
702.00,0.0911
701.00,0.0914
700.00,0.0916
699.00,0.0916
698.00,0.0914
697.00,0.0911
696.00,0.0904
695.00,0.0896
694.00,0.0888
693.00,0.0880
692.00,0.0873
691.00,0.0869
690.00,0.0869
689.00,0.0874
688.00,0.0882
687.00,0.0895
686.00,0.0909
685.00,0.0923
684.00,0.0936
683.00,0.0948
682.00,0.0961
681.00,0.0974
680.00,0.0986
679.00,0.0997
678.00,0.1008
677.00,0.1019
676.00,0.1030
675.00,0.1044
674.00,0.1062
673.00,0.1085
672.00,0.1109
671.00,0.1132
670.00,0.1155
669.00,0.1178
668.00,0.1200
667.00,0.1217
666.00,0.1228
665.00,0.1234
664.00,0.1240
663.00,0.1249
662.00,0.1261
661.00,0.1277
660.00,0.1294
659.00,0.1313
658.00,0.1336
657.00,0.1359
656.00,0.1383
655.00,0.1407
654.00,0.1432
653.00,0.1455
652.00,0.1475
651.00,0.1493
650.00,0.1506
649.00,0.1515
648.00,0.1518
647.00,0.1515
646.00,0.1506
645.00,0.1493
644.00,0.1475
643.00,0.1455
642.00,0.1434
641.00,0.1413
640.00,0.1393
639.00,0.1374
638.00,0.1359
637.00,0.1346
636.00,0.1333
635.00,0.1322
634.00,0.1311
633.00,0.1299
632.00,0.1284
631.00,0.1268
630.00,0.1253
629.00,0.1237
628.00,0.1222
627.00,0.1209
626.00,0.1199
625.00,0.1191
624.00,0.1184
623.00,0.1179
622.00,0.1178
621.00,0.1178
620.00,0.1179
619.00,0.1181
618.00,0.1186
617.00,0.1191
616.00,0.1196
615.00,0.1200
614.00,0.1205
613.00,0.1208
612.00,0.1209
611.00,0.1208
610.00,0.1208
609.00,0.1205
608.00,0.1201
607.00,0.1197
606.00,0.1196
605.00,0.1195
604.00,0.1195
603.00,0.1197
602.00,0.1203
601.00,0.1210
600.00,0.1219
599.00,0.1229
598.00,0.1243
597.00,0.1259
596.00,0.1277
595.00,0.1297
594.00,0.1320
593.00,0.1342
592.00,0.1363
591.00,0.1384
590.00,0.1406
589.00,0.1428
588.00,0.1451
587.00,0.1475
586.00,0.1500
585.00,0.1523
584.00,0.1545
583.00,0.1566
582.00,0.1587
581.00,0.1609
580.00,0.1628
579.00,0.1648
578.00,0.1669
577.00,0.1689
576.00,0.1706
575.00,0.1722
574.00,0.1736
573.00,0.1746
572.00,0.1751
571.00,0.1754
570.00,0.1756
569.00,0.1755
568.00,0.1750
567.00,0.1741
566.00,0.1730
565.00,0.1716
564.00,0.1699
563.00,0.1679
562.00,0.1660
561.00,0.1639
560.00,0.1617
559.00,0.1594
558.00,0.1574
557.00,0.1554
556.00,0.1533
555.00,0.1514
554.00,0.1497
553.00,0.1482
552.00,0.1465
551.00,0.1449
550.00,0.1435
549.00,0.1421
548.00,0.1405
547.00,0.1389
546.00,0.1375
545.00,0.1364
544.00,0.1353
543.00,0.1346
542.00,0.1344
541.00,0.1344
540.00,0.1344
539.00,0.1342
538.00,0.1339
537.00,0.1333
536.00,0.1323
535.00,0.1314
534.00,0.1307
533.00,0.1302
532.00,0.1295
531.00,0.1289
530.00,0.1285
529.00,0.1282
528.00,0.1278
527.00,0.1275
526.00,0.1274
525.00,0.1272
524.00,0.1266
523.00,0.1261
522.00,0.1259
521.00,0.1257
520.00,0.1254
519.00,0.1252
518.00,0.1251
517.00,0.1250
516.00,0.1246
515.00,0.1243
514.00,0.1242
513.00,0.1241
512.00,0.1240
511.00,0.1241
510.00,0.1245
509.00,0.1249
508.00,0.1250
507.00,0.1251
506.00,0.1253
505.00,0.1254
504.00,0.1251
503.00,0.1249
502.00,0.1249
501.00,0.1249
500.00,0.1247
499.00,0.1247
498.00,0.1249
497.00,0.1251
496.00,0.1250
495.00,0.1250
494.00,0.1254
493.00,0.1258
492.00,0.1259
491.00,0.1259
490.00,0.1262
489.00,0.1265
488.00,0.1266
487.00,0.1267
486.00,0.1272
485.00,0.1274
484.00,0.1273
483.00,0.1271
482.00,0.1272
481.00,0.1271
480.00,0.1267
479.00,0.1264
478.00,0.1266
477.00,0.1268
476.00,0.1266
475.00,0.1265
474.00,0.1269
473.00,0.1277
472.00,0.1286
471.00,0.1297
470.00,0.1312
469.00,0.1324
468.00,0.1328
467.00,0.1328
466.00,0.1329
465.00,0.1329
464.00,0.1326
463.00,0.1325
462.00,0.1329
461.00,0.1332
460.00,0.1328
459.00,0.1323
458.00,0.1316
457.00,0.1304
456.00,0.1282
455.00,0.1260
454.00,0.1245
453.00,0.1232
452.00,0.1216
451.00,0.1202
450.00,0.1194
449.00,0.1186
448.00,0.1175
447.00,0.1163
446.00,0.1156
445.00,0.1149
444.00,0.1138
443.00,0.1128
442.00,0.1123
441.00,0.1118
440.00,0.1108
439.00,0.1101
438.00,0.1100
437.00,0.1098
436.00,0.1091
435.00,0.1083
434.00,0.1079
433.00,0.1076
432.00,0.1069
431.00,0.1065
430.00,0.1067
429.00,0.1069
428.00,0.1064
427.00,0.1060
426.00,0.1062
425.00,0.1064
424.00,0.1058
423.00,0.1053
422.00,0.1055
421.00,0.1060
420.00,0.1061
419.00,0.1063
418.00,0.1071
417.00,0.1072
416.00,0.1062
415.00,0.1055
414.00,0.1058
413.00,0.1060
412.00,0.1053
411.00,0.1052
410.00,0.1063
409.00,0.1075
408.00,0.1073
407.00,0.1070
406.00,0.1076
405.00,0.1080
404.00,0.1071
403.00,0.1066
402.00,0.1081
401.00,0.1099
400.00,0.1103
