Created as New Dataset,Sample 476 By YargerLab Date Friday, January 30 2026
cm-1,A
4000.00,0.0092
3999.00,0.0092
3998.00,0.0092
3997.00,0.0092
3996.00,0.0092
3995.00,0.0092
3994.00,0.0092
3993.00,0.0092
3992.00,0.0092
3991.00,0.0092
3990.00,0.0092
3989.00,0.0092
3988.00,0.0092
3987.00,0.0092
3986.00,0.0092
3985.00,0.0092
3984.00,0.0092
3983.00,0.0092
3982.00,0.0092
3981.00,0.0092
3980.00,0.0092
3979.00,0.0092
3978.00,0.0092
3977.00,0.0092
3976.00,0.0092
3975.00,0.0092
3974.00,0.0092
3973.00,0.0092
3972.00,0.0092
3971.00,0.0092
3970.00,0.0092
3969.00,0.0092
3968.00,0.0092
3967.00,0.0092
3966.00,0.0092
3965.00,0.0092
3964.00,0.0092
3963.00,0.0092
3962.00,0.0092
3961.00,0.0092
3960.00,0.0092
3959.00,0.0092
3958.00,0.0092
3957.00,0.0092
3956.00,0.0092
3955.00,0.0092
3954.00,0.0092
3953.00,0.0092
3952.00,0.0092
3951.00,0.0092
3950.00,0.0092
3949.00,0.0092
3948.00,0.0092
3947.00,0.0092
3946.00,0.0092
3945.00,0.0092
3944.00,0.0092
3943.00,0.0092
3942.00,0.0093
3941.00,0.0093
3940.00,0.0093
3939.00,0.0092
3938.00,0.0092
3937.00,0.0092
3936.00,0.0092
3935.00,0.0092
3934.00,0.0092
3933.00,0.0092
3932.00,0.0092
3931.00,0.0092
3930.00,0.0092
3929.00,0.0092
3928.00,0.0092
3927.00,0.0092
3926.00,0.0092
3925.00,0.0092
3924.00,0.0092
3923.00,0.0092
3922.00,0.0092
3921.00,0.0092
3920.00,0.0092
3919.00,0.0092
3918.00,0.0091
3917.00,0.0091
3916.00,0.0091
3915.00,0.0091
3914.00,0.0091
3913.00,0.0091
3912.00,0.0091
3911.00,0.0092
3910.00,0.0092
3909.00,0.0091
3908.00,0.0091
3907.00,0.0091
3906.00,0.0091
3905.00,0.0091
3904.00,0.0090
3903.00,0.0090
3902.00,0.0090
3901.00,0.0090
3900.00,0.0090
3899.00,0.0090
3898.00,0.0090
3897.00,0.0090
3896.00,0.0090
3895.00,0.0090
3894.00,0.0090
3893.00,0.0090
3892.00,0.0090
3891.00,0.0090
3890.00,0.0090
3889.00,0.0090
3888.00,0.0090
3887.00,0.0089
3886.00,0.0089
3885.00,0.0089
3884.00,0.0089
3883.00,0.0089
3882.00,0.0089
3881.00,0.0089
3880.00,0.0089
3879.00,0.0089
3878.00,0.0089
3877.00,0.0089
3876.00,0.0089
3875.00,0.0089
3874.00,0.0089
3873.00,0.0089
3872.00,0.0090
3871.00,0.0089
3870.00,0.0089
3869.00,0.0089
3868.00,0.0089
3867.00,0.0089
3866.00,0.0089
3865.00,0.0089
3864.00,0.0089
3863.00,0.0089
3862.00,0.0089
3861.00,0.0089
3860.00,0.0089
3859.00,0.0089
3858.00,0.0089
3857.00,0.0089
3856.00,0.0089
3855.00,0.0089
3854.00,0.0089
3853.00,0.0089
3852.00,0.0089
3851.00,0.0089
3850.00,0.0089
3849.00,0.0089
3848.00,0.0088
3847.00,0.0088
3846.00,0.0088
3845.00,0.0088
3844.00,0.0088
3843.00,0.0088
3842.00,0.0089
3841.00,0.0089
3840.00,0.0089
3839.00,0.0089
3838.00,0.0089
3837.00,0.0089
3836.00,0.0088
3835.00,0.0088
3834.00,0.0088
3833.00,0.0088
3832.00,0.0088
3831.00,0.0088
3830.00,0.0088
3829.00,0.0088
3828.00,0.0088
3827.00,0.0088
3826.00,0.0088
3825.00,0.0088
3824.00,0.0088
3823.00,0.0088
3822.00,0.0088
3821.00,0.0088
3820.00,0.0088
3819.00,0.0088
3818.00,0.0088
3817.00,0.0088
3816.00,0.0088
3815.00,0.0088
3814.00,0.0088
3813.00,0.0088
3812.00,0.0088
3811.00,0.0088
3810.00,0.0088
3809.00,0.0088
3808.00,0.0088
3807.00,0.0088
3806.00,0.0088
3805.00,0.0088
3804.00,0.0088
3803.00,0.0088
3802.00,0.0088
3801.00,0.0088
3800.00,0.0088
3799.00,0.0088
3798.00,0.0087
3797.00,0.0087
3796.00,0.0087
3795.00,0.0087
3794.00,0.0087
3793.00,0.0088
3792.00,0.0088
3791.00,0.0088
3790.00,0.0088
3789.00,0.0088
3788.00,0.0088
3787.00,0.0088
3786.00,0.0088
3785.00,0.0088
3784.00,0.0088
3783.00,0.0087
3782.00,0.0087
3781.00,0.0087
3780.00,0.0087
3779.00,0.0087
3778.00,0.0088
3777.00,0.0088
3776.00,0.0088
3775.00,0.0088
3774.00,0.0088
3773.00,0.0088
3772.00,0.0088
3771.00,0.0088
3770.00,0.0088
3769.00,0.0088
3768.00,0.0088
3767.00,0.0088
3766.00,0.0088
3765.00,0.0087
3764.00,0.0087
3763.00,0.0087
3762.00,0.0087
3761.00,0.0087
3760.00,0.0087
3759.00,0.0087
3758.00,0.0087
3757.00,0.0087
3756.00,0.0087
3755.00,0.0087
3754.00,0.0087
3753.00,0.0087
3752.00,0.0087
3751.00,0.0087
3750.00,0.0087
3749.00,0.0087
3748.00,0.0087
3747.00,0.0087
3746.00,0.0087
3745.00,0.0087
3744.00,0.0086
3743.00,0.0086
3742.00,0.0086
3741.00,0.0085
3740.00,0.0085
3739.00,0.0085
3738.00,0.0084
3737.00,0.0084
3736.00,0.0084
3735.00,0.0084
3734.00,0.0084
3733.00,0.0084
3732.00,0.0084
3731.00,0.0085
3730.00,0.0085
3729.00,0.0085
3728.00,0.0085
3727.00,0.0085
3726.00,0.0085
3725.00,0.0085
3724.00,0.0085
3723.00,0.0085
3722.00,0.0085
3721.00,0.0085
3720.00,0.0085
3719.00,0.0085
3718.00,0.0085
3717.00,0.0085
3716.00,0.0085
3715.00,0.0085
3714.00,0.0085
3713.00,0.0085
3712.00,0.0085
3711.00,0.0084
3710.00,0.0084
3709.00,0.0084
3708.00,0.0084
3707.00,0.0084
3706.00,0.0084
3705.00,0.0084
3704.00,0.0084
3703.00,0.0084
3702.00,0.0083
3701.00,0.0083
3700.00,0.0083
3699.00,0.0083
3698.00,0.0083
3697.00,0.0083
3696.00,0.0084
3695.00,0.0084
3694.00,0.0083
3693.00,0.0083
3692.00,0.0083
3691.00,0.0083
3690.00,0.0083
3689.00,0.0083
3688.00,0.0083
3687.00,0.0083
3686.00,0.0083
3685.00,0.0082
3684.00,0.0082
3683.00,0.0082
3682.00,0.0082
3681.00,0.0082
3680.00,0.0082
3679.00,0.0083
3678.00,0.0083
3677.00,0.0083
3676.00,0.0082
3675.00,0.0082
3674.00,0.0082
3673.00,0.0082
3672.00,0.0082
3671.00,0.0082
3670.00,0.0082
3669.00,0.0082
3668.00,0.0082
3667.00,0.0082
3666.00,0.0082
3665.00,0.0082
3664.00,0.0083
3663.00,0.0083
3662.00,0.0083
3661.00,0.0083
3660.00,0.0082
3659.00,0.0082
3658.00,0.0082
3657.00,0.0082
3656.00,0.0082
3655.00,0.0082
3654.00,0.0082
3653.00,0.0082
3652.00,0.0081
3651.00,0.0081
3650.00,0.0081
3649.00,0.0081
3648.00,0.0081
3647.00,0.0081
3646.00,0.0081
3645.00,0.0081
3644.00,0.0081
3643.00,0.0081
3642.00,0.0081
3641.00,0.0081
3640.00,0.0081
3639.00,0.0081
3638.00,0.0081
3637.00,0.0081
3636.00,0.0081
3635.00,0.0081
3634.00,0.0081
3633.00,0.0081
3632.00,0.0081
3631.00,0.0081
3630.00,0.0081
3629.00,0.0081
3628.00,0.0081
3627.00,0.0081
3626.00,0.0080
3625.00,0.0080
3624.00,0.0080
3623.00,0.0080
3622.00,0.0081
3621.00,0.0081
3620.00,0.0081
3619.00,0.0081
3618.00,0.0081
3617.00,0.0081
3616.00,0.0081
3615.00,0.0081
3614.00,0.0081
3613.00,0.0081
3612.00,0.0081
3611.00,0.0081
3610.00,0.0080
3609.00,0.0080
3608.00,0.0081
3607.00,0.0081
3606.00,0.0081
3605.00,0.0081
3604.00,0.0081
3603.00,0.0081
3602.00,0.0080
3601.00,0.0080
3600.00,0.0080
3599.00,0.0080
3598.00,0.0080
3597.00,0.0080
3596.00,0.0080
3595.00,0.0080
3594.00,0.0080
3593.00,0.0080
3592.00,0.0079
3591.00,0.0079
3590.00,0.0079
3589.00,0.0079
3588.00,0.0079
3587.00,0.0079
3586.00,0.0079
3585.00,0.0079
3584.00,0.0079
3583.00,0.0079
3582.00,0.0079
3581.00,0.0079
3580.00,0.0079
3579.00,0.0079
3578.00,0.0079
3577.00,0.0079
3576.00,0.0079
3575.00,0.0079
3574.00,0.0079
3573.00,0.0079
3572.00,0.0079
3571.00,0.0079
3570.00,0.0079
3569.00,0.0079
3568.00,0.0079
3567.00,0.0079
3566.00,0.0079
3565.00,0.0079
3564.00,0.0079
3563.00,0.0079
3562.00,0.0079
3561.00,0.0079
3560.00,0.0080
3559.00,0.0080
3558.00,0.0080
3557.00,0.0080
3556.00,0.0079
3555.00,0.0079
3554.00,0.0079
3553.00,0.0079
3552.00,0.0079
3551.00,0.0079
3550.00,0.0079
3549.00,0.0079
3548.00,0.0079
3547.00,0.0079
3546.00,0.0079
3545.00,0.0079
3544.00,0.0079
3543.00,0.0079
3542.00,0.0079
3541.00,0.0079
3540.00,0.0079
3539.00,0.0079
3538.00,0.0079
3537.00,0.0079
3536.00,0.0079
3535.00,0.0079
3534.00,0.0079
3533.00,0.0079
3532.00,0.0079
3531.00,0.0079
3530.00,0.0079
3529.00,0.0079
3528.00,0.0079
3527.00,0.0079
3526.00,0.0079
3525.00,0.0079
3524.00,0.0079
3523.00,0.0079
3522.00,0.0079
3521.00,0.0079
3520.00,0.0079
3519.00,0.0079
3518.00,0.0079
3517.00,0.0079
3516.00,0.0079
3515.00,0.0079
3514.00,0.0079
3513.00,0.0079
3512.00,0.0079
3511.00,0.0078
3510.00,0.0078
3509.00,0.0078
3508.00,0.0078
3507.00,0.0078
3506.00,0.0078
3505.00,0.0078
3504.00,0.0078
3503.00,0.0078
3502.00,0.0078
3501.00,0.0078
3500.00,0.0078
3499.00,0.0078
3498.00,0.0078
3497.00,0.0078
3496.00,0.0078
3495.00,0.0078
3494.00,0.0078
3493.00,0.0078
3492.00,0.0078
3491.00,0.0078
3490.00,0.0078
3489.00,0.0078
3488.00,0.0078
3487.00,0.0078
3486.00,0.0078
3485.00,0.0078
3484.00,0.0078
3483.00,0.0078
3482.00,0.0078
3481.00,0.0077
3480.00,0.0077
3479.00,0.0077
3478.00,0.0077
3477.00,0.0077
3476.00,0.0077
3475.00,0.0077
3474.00,0.0077
3473.00,0.0077
3472.00,0.0077
3471.00,0.0077
3470.00,0.0077
3469.00,0.0077
3468.00,0.0077
3467.00,0.0077
3466.00,0.0076
3465.00,0.0076
3464.00,0.0076
3463.00,0.0076
3462.00,0.0076
3461.00,0.0076
3460.00,0.0076
3459.00,0.0076
3458.00,0.0076
3457.00,0.0076
3456.00,0.0076
3455.00,0.0076
3454.00,0.0077
3453.00,0.0077
3452.00,0.0077
3451.00,0.0077
3450.00,0.0077
3449.00,0.0077
3448.00,0.0077
3447.00,0.0077
3446.00,0.0077
3445.00,0.0078
3444.00,0.0078
3443.00,0.0078
3442.00,0.0078
3441.00,0.0078
3440.00,0.0078
3439.00,0.0078
3438.00,0.0079
3437.00,0.0079
3436.00,0.0079
3435.00,0.0079
3434.00,0.0079
3433.00,0.0079
3432.00,0.0080
3431.00,0.0080
3430.00,0.0080
3429.00,0.0080
3428.00,0.0081
3427.00,0.0081
3426.00,0.0082
3425.00,0.0082
3424.00,0.0083
3423.00,0.0083
3422.00,0.0083
3421.00,0.0084
3420.00,0.0084
3419.00,0.0085
3418.00,0.0085
3417.00,0.0086
3416.00,0.0086
3415.00,0.0086
3414.00,0.0087
3413.00,0.0087
3412.00,0.0088
3411.00,0.0088
3410.00,0.0088
3409.00,0.0089
3408.00,0.0090
3407.00,0.0091
3406.00,0.0091
3405.00,0.0092
3404.00,0.0093
3403.00,0.0093
3402.00,0.0094
3401.00,0.0095
3400.00,0.0096
3399.00,0.0097
3398.00,0.0098
3397.00,0.0099
3396.00,0.0101
3395.00,0.0101
3394.00,0.0102
3393.00,0.0104
3392.00,0.0105
3391.00,0.0107
3390.00,0.0109
3389.00,0.0111
3388.00,0.0113
3387.00,0.0115
3386.00,0.0117
3385.00,0.0119
3384.00,0.0121
3383.00,0.0123
3382.00,0.0125
3381.00,0.0127
3380.00,0.0130
3379.00,0.0132
3378.00,0.0134
3377.00,0.0137
3376.00,0.0139
3375.00,0.0142
3374.00,0.0144
3373.00,0.0146
3372.00,0.0147
3371.00,0.0149
3370.00,0.0152
3369.00,0.0155
3368.00,0.0159
3367.00,0.0164
3366.00,0.0169
3365.00,0.0175
3364.00,0.0180
3363.00,0.0185
3362.00,0.0191
3361.00,0.0197
3360.00,0.0203
3359.00,0.0210
3358.00,0.0218
3357.00,0.0226
3356.00,0.0234
3355.00,0.0242
3354.00,0.0250
3353.00,0.0259
3352.00,0.0268
3351.00,0.0279
3350.00,0.0291
3349.00,0.0304
3348.00,0.0319
3347.00,0.0334
3346.00,0.0350
3345.00,0.0368
3344.00,0.0387
3343.00,0.0408
3342.00,0.0430
3341.00,0.0454
3340.00,0.0478
3339.00,0.0503
3338.00,0.0529
3337.00,0.0555
3336.00,0.0579
3335.00,0.0601
3334.00,0.0619
3333.00,0.0635
3332.00,0.0647
3331.00,0.0655
3330.00,0.0662
3329.00,0.0665
3328.00,0.0668
3327.00,0.0668
3326.00,0.0669
3325.00,0.0668
3324.00,0.0666
3323.00,0.0664
3322.00,0.0659
3321.00,0.0652
3320.00,0.0643
3319.00,0.0631
3318.00,0.0618
3317.00,0.0603
3316.00,0.0586
3315.00,0.0569
3314.00,0.0551
3313.00,0.0533
3312.00,0.0516
3311.00,0.0499
3310.00,0.0482
3309.00,0.0466
3308.00,0.0452
3307.00,0.0438
3306.00,0.0426
3305.00,0.0414
3304.00,0.0404
3303.00,0.0395
3302.00,0.0387
3301.00,0.0379
3300.00,0.0371
3299.00,0.0365
3298.00,0.0358
3297.00,0.0352
3296.00,0.0346
3295.00,0.0340
3294.00,0.0335
3293.00,0.0330
3292.00,0.0325
3291.00,0.0320
3290.00,0.0315
3289.00,0.0310
3288.00,0.0305
3287.00,0.0299
3286.00,0.0294
3285.00,0.0288
3284.00,0.0283
3283.00,0.0278
3282.00,0.0274
3281.00,0.0270
3280.00,0.0266
3279.00,0.0263
3278.00,0.0260
3277.00,0.0258
3276.00,0.0257
3275.00,0.0255
3274.00,0.0254
3273.00,0.0253
3272.00,0.0252
3271.00,0.0252
3270.00,0.0252
3269.00,0.0252
3268.00,0.0252
3267.00,0.0252
3266.00,0.0251
3265.00,0.0251
3264.00,0.0250
3263.00,0.0250
3262.00,0.0249
3261.00,0.0248
3260.00,0.0247
3259.00,0.0245
3258.00,0.0244
3257.00,0.0243
3256.00,0.0242
3255.00,0.0241
3254.00,0.0240
3253.00,0.0240
3252.00,0.0239
3251.00,0.0238
3250.00,0.0238
3249.00,0.0237
3248.00,0.0237
3247.00,0.0237
3246.00,0.0238
3245.00,0.0238
3244.00,0.0238
3243.00,0.0238
3242.00,0.0238
3241.00,0.0237
3240.00,0.0236
3239.00,0.0235
3238.00,0.0233
3237.00,0.0231
3236.00,0.0228
3235.00,0.0225
3234.00,0.0222
3233.00,0.0219
3232.00,0.0216
3231.00,0.0213
3230.00,0.0210
3229.00,0.0206
3228.00,0.0203
3227.00,0.0199
3226.00,0.0196
3225.00,0.0193
3224.00,0.0189
3223.00,0.0186
3222.00,0.0183
3221.00,0.0180
3220.00,0.0177
3219.00,0.0175
3218.00,0.0172
3217.00,0.0170
3216.00,0.0168
3215.00,0.0166
3214.00,0.0164
3213.00,0.0162
3212.00,0.0160
3211.00,0.0159
3210.00,0.0157
3209.00,0.0155
3208.00,0.0154
3207.00,0.0152
3206.00,0.0150
3205.00,0.0149
3204.00,0.0148
3203.00,0.0146
3202.00,0.0145
3201.00,0.0144
3200.00,0.0143
3199.00,0.0141
3198.00,0.0140
3197.00,0.0139
3196.00,0.0138
3195.00,0.0137
3194.00,0.0137
3193.00,0.0136
3192.00,0.0135
3191.00,0.0135
3190.00,0.0134
3189.00,0.0134
3188.00,0.0133
3187.00,0.0133
3186.00,0.0133
3185.00,0.0132
3184.00,0.0132
3183.00,0.0132
3182.00,0.0132
3181.00,0.0132
3180.00,0.0132
3179.00,0.0132
3178.00,0.0132
3177.00,0.0131
3176.00,0.0131
3175.00,0.0130
3174.00,0.0130
3173.00,0.0129
3172.00,0.0129
3171.00,0.0128
3170.00,0.0128
3169.00,0.0128
3168.00,0.0127
3167.00,0.0127
3166.00,0.0127
3165.00,0.0127
3164.00,0.0126
3163.00,0.0126
3162.00,0.0126
3161.00,0.0126
3160.00,0.0126
3159.00,0.0126
3158.00,0.0126
3157.00,0.0126
3156.00,0.0126
3155.00,0.0126
3154.00,0.0126
3153.00,0.0126
3152.00,0.0127
3151.00,0.0127
3150.00,0.0128
3149.00,0.0128
3148.00,0.0129
3147.00,0.0129
3146.00,0.0129
3145.00,0.0130
3144.00,0.0130
3143.00,0.0130
3142.00,0.0130
3141.00,0.0131
3140.00,0.0131
3139.00,0.0132
3138.00,0.0132
3137.00,0.0133
3136.00,0.0134
3135.00,0.0134
3134.00,0.0135
3133.00,0.0136
3132.00,0.0136
3131.00,0.0137
3130.00,0.0138
3129.00,0.0139
3128.00,0.0140
3127.00,0.0142
3126.00,0.0143
3125.00,0.0144
3124.00,0.0145
3123.00,0.0147
3122.00,0.0149
3121.00,0.0151
3120.00,0.0153
3119.00,0.0155
3118.00,0.0157
3117.00,0.0160
3116.00,0.0162
3115.00,0.0165
3114.00,0.0168
3113.00,0.0171
3112.00,0.0174
3111.00,0.0177
3110.00,0.0181
3109.00,0.0184
3108.00,0.0186
3107.00,0.0189
3106.00,0.0191
3105.00,0.0192
3104.00,0.0193
3103.00,0.0193
3102.00,0.0193
3101.00,0.0192
3100.00,0.0191
3099.00,0.0189
3098.00,0.0187
3097.00,0.0184
3096.00,0.0182
3095.00,0.0179
3094.00,0.0176
3093.00,0.0174
3092.00,0.0172
3091.00,0.0171
3090.00,0.0170
3089.00,0.0170
3088.00,0.0170
3087.00,0.0170
3086.00,0.0171
3085.00,0.0172
3084.00,0.0172
3083.00,0.0172
3082.00,0.0171
3081.00,0.0171
3080.00,0.0170
3079.00,0.0169
3078.00,0.0167
3077.00,0.0165
3076.00,0.0163
3075.00,0.0159
3074.00,0.0155
3073.00,0.0151
3072.00,0.0148
3071.00,0.0146
3070.00,0.0144
3069.00,0.0143
3068.00,0.0143
3067.00,0.0143
3066.00,0.0145
3065.00,0.0146
3064.00,0.0148
3063.00,0.0148
3062.00,0.0148
3061.00,0.0148
3060.00,0.0146
3059.00,0.0144
3058.00,0.0142
3057.00,0.0140
3056.00,0.0139
3055.00,0.0138
3054.00,0.0137
3053.00,0.0136
3052.00,0.0135
3051.00,0.0135
3050.00,0.0135
3049.00,0.0135
3048.00,0.0135
3047.00,0.0135
3046.00,0.0135
3045.00,0.0135
3044.00,0.0135
3043.00,0.0136
3042.00,0.0137
3041.00,0.0139
3040.00,0.0141
3039.00,0.0142
3038.00,0.0144
3037.00,0.0145
3036.00,0.0145
3035.00,0.0146
3034.00,0.0148
3033.00,0.0149
3032.00,0.0151
3031.00,0.0153
3030.00,0.0154
3029.00,0.0155
3028.00,0.0156
3027.00,0.0156
3026.00,0.0156
3025.00,0.0156
3024.00,0.0155
3023.00,0.0154
3022.00,0.0153
3021.00,0.0153
3020.00,0.0152
3019.00,0.0151
3018.00,0.0151
3017.00,0.0151
3016.00,0.0151
3015.00,0.0152
3014.00,0.0153
3013.00,0.0156
3012.00,0.0159
3011.00,0.0163
3010.00,0.0168
3009.00,0.0173
3008.00,0.0179
3007.00,0.0185
3006.00,0.0191
3005.00,0.0198
3004.00,0.0204
3003.00,0.0210
3002.00,0.0215
3001.00,0.0220
3000.00,0.0223
2999.00,0.0225
2998.00,0.0226
2997.00,0.0226
2996.00,0.0223
2995.00,0.0219
2994.00,0.0214
2993.00,0.0208
2992.00,0.0201
2991.00,0.0195
2990.00,0.0190
2989.00,0.0185
2988.00,0.0181
2987.00,0.0178
2986.00,0.0175
2985.00,0.0173
2984.00,0.0171
2983.00,0.0170
2982.00,0.0168
2981.00,0.0167
2980.00,0.0167
2979.00,0.0167
2978.00,0.0167
2977.00,0.0166
2976.00,0.0166
2975.00,0.0166
2974.00,0.0167
2973.00,0.0168
2972.00,0.0170
2971.00,0.0172
2970.00,0.0175
2969.00,0.0178
2968.00,0.0183
2967.00,0.0188
2966.00,0.0195
2965.00,0.0203
2964.00,0.0214
2963.00,0.0226
2962.00,0.0240
2961.00,0.0256
2960.00,0.0272
2959.00,0.0288
2958.00,0.0303
2957.00,0.0315
2956.00,0.0324
2955.00,0.0329
2954.00,0.0330
2953.00,0.0326
2952.00,0.0318
2951.00,0.0307
2950.00,0.0294
2949.00,0.0280
2948.00,0.0266
2947.00,0.0253
2946.00,0.0241
2945.00,0.0231
2944.00,0.0222
2943.00,0.0216
2942.00,0.0210
2941.00,0.0206
2940.00,0.0202
2939.00,0.0199
2938.00,0.0197
2937.00,0.0195
2936.00,0.0194
2935.00,0.0194
2934.00,0.0193
2933.00,0.0192
2932.00,0.0191
2931.00,0.0190
2930.00,0.0188
2929.00,0.0186
2928.00,0.0184
2927.00,0.0181
2926.00,0.0179
2925.00,0.0176
2924.00,0.0173
2923.00,0.0171
2922.00,0.0168
2921.00,0.0166
2920.00,0.0163
2919.00,0.0161
2918.00,0.0160
2917.00,0.0159
2916.00,0.0157
2915.00,0.0157
2914.00,0.0156
2913.00,0.0155
2912.00,0.0155
2911.00,0.0154
2910.00,0.0154
2909.00,0.0153
2908.00,0.0152
2907.00,0.0151
2906.00,0.0150
2905.00,0.0149
2904.00,0.0148
2903.00,0.0147
2902.00,0.0146
2901.00,0.0146
2900.00,0.0145
2899.00,0.0144
2898.00,0.0142
2897.00,0.0141
2896.00,0.0140
2895.00,0.0139
2894.00,0.0139
2893.00,0.0139
2892.00,0.0139
2891.00,0.0139
2890.00,0.0139
2889.00,0.0140
2888.00,0.0140
2887.00,0.0141
2886.00,0.0142
2885.00,0.0142
2884.00,0.0143
2883.00,0.0143
2882.00,0.0143
2881.00,0.0144
2880.00,0.0144
2879.00,0.0145
2878.00,0.0146
2877.00,0.0146
2876.00,0.0147
2875.00,0.0148
2874.00,0.0149
2873.00,0.0151
2872.00,0.0152
2871.00,0.0153
2870.00,0.0154
2869.00,0.0153
2868.00,0.0152
2867.00,0.0150
2866.00,0.0149
2865.00,0.0147
2864.00,0.0145
2863.00,0.0144
2862.00,0.0142
2861.00,0.0140
2860.00,0.0138
2859.00,0.0137
2858.00,0.0137
2857.00,0.0136
2856.00,0.0136
2855.00,0.0136
2854.00,0.0136
2853.00,0.0136
2852.00,0.0137
2851.00,0.0139
2850.00,0.0141
2849.00,0.0144
2848.00,0.0147
2847.00,0.0151
2846.00,0.0155
2845.00,0.0157
2844.00,0.0159
2843.00,0.0159
2842.00,0.0157
2841.00,0.0154
2840.00,0.0151
2839.00,0.0147
2838.00,0.0143
2837.00,0.0140
2836.00,0.0137
2835.00,0.0134
2834.00,0.0132
2833.00,0.0130
2832.00,0.0128
2831.00,0.0127
2830.00,0.0126
2829.00,0.0126
2828.00,0.0125
2827.00,0.0125
2826.00,0.0125
2825.00,0.0124
2824.00,0.0124
2823.00,0.0124
2822.00,0.0124
2821.00,0.0124
2820.00,0.0124
2819.00,0.0125
2818.00,0.0125
2817.00,0.0125
2816.00,0.0125
2815.00,0.0125
2814.00,0.0125
2813.00,0.0125
2812.00,0.0126
2811.00,0.0126
2810.00,0.0126
2809.00,0.0125
2808.00,0.0125
2807.00,0.0125
2806.00,0.0125
2805.00,0.0124
2804.00,0.0124
2803.00,0.0123
2802.00,0.0122
2801.00,0.0121
2800.00,0.0120
2799.00,0.0119
2798.00,0.0118
2797.00,0.0117
2796.00,0.0116
2795.00,0.0115
2794.00,0.0114
2793.00,0.0113
2792.00,0.0112
2791.00,0.0111
2790.00,0.0110
2789.00,0.0109
2788.00,0.0108
2787.00,0.0107
2786.00,0.0107
2785.00,0.0106
2784.00,0.0105
2783.00,0.0105
2782.00,0.0104
2781.00,0.0104
2780.00,0.0103
2779.00,0.0103
2778.00,0.0103
2777.00,0.0103
2776.00,0.0103
2775.00,0.0102
2774.00,0.0102
2773.00,0.0102
2772.00,0.0102
2771.00,0.0102
2770.00,0.0102
2769.00,0.0102
2768.00,0.0102
2767.00,0.0102
2766.00,0.0101
2765.00,0.0101
2764.00,0.0101
2763.00,0.0101
2762.00,0.0101
2761.00,0.0101
2760.00,0.0101
2759.00,0.0100
2758.00,0.0100
2757.00,0.0100
2756.00,0.0100
2755.00,0.0100
2754.00,0.0100
2753.00,0.0100
2752.00,0.0100
2751.00,0.0099
2750.00,0.0099
2749.00,0.0099
2748.00,0.0099
2747.00,0.0099
2746.00,0.0099
2745.00,0.0099
2744.00,0.0099
2743.00,0.0099
2742.00,0.0099
2741.00,0.0099
2740.00,0.0099
2739.00,0.0098
2738.00,0.0098
2737.00,0.0098
2736.00,0.0098
2735.00,0.0098
2734.00,0.0097
2733.00,0.0097
2732.00,0.0098
2731.00,0.0098
2730.00,0.0098
2729.00,0.0098
2728.00,0.0098
2727.00,0.0098
2726.00,0.0098
2725.00,0.0098
2724.00,0.0098
2723.00,0.0099
2722.00,0.0099
2721.00,0.0099
2720.00,0.0099
2719.00,0.0099
2718.00,0.0099
2717.00,0.0099
2716.00,0.0098
2715.00,0.0098
2714.00,0.0098
2713.00,0.0098
2712.00,0.0098
2711.00,0.0098
2710.00,0.0097
2709.00,0.0097
2708.00,0.0097
2707.00,0.0097
2706.00,0.0097
2705.00,0.0097
2704.00,0.0097
2703.00,0.0097
2702.00,0.0097
2701.00,0.0097
2700.00,0.0097
2699.00,0.0097
2698.00,0.0097
2697.00,0.0097
2696.00,0.0097
2695.00,0.0097
2694.00,0.0097
2693.00,0.0097
2692.00,0.0097
2691.00,0.0096
2690.00,0.0096
2689.00,0.0096
2688.00,0.0096
2687.00,0.0095
2686.00,0.0095
2685.00,0.0095
2684.00,0.0095
2683.00,0.0095
2682.00,0.0096
2681.00,0.0096
2680.00,0.0096
2679.00,0.0096
2678.00,0.0096
2677.00,0.0096
2676.00,0.0096
2675.00,0.0096
2674.00,0.0096
2673.00,0.0096
2672.00,0.0096
2671.00,0.0096
2670.00,0.0096
2669.00,0.0096
2668.00,0.0096
2667.00,0.0096
2666.00,0.0096
2665.00,0.0096
2664.00,0.0096
2663.00,0.0097
2662.00,0.0097
2661.00,0.0098
2660.00,0.0098
2659.00,0.0098
2658.00,0.0098
2657.00,0.0098
2656.00,0.0098
2655.00,0.0098
2654.00,0.0098
2653.00,0.0098
2652.00,0.0098
2651.00,0.0099
2650.00,0.0099
2649.00,0.0099
2648.00,0.0099
2647.00,0.0099
2646.00,0.0099
2645.00,0.0099
2644.00,0.0099
2643.00,0.0099
2642.00,0.0099
2641.00,0.0099
2640.00,0.0099
2639.00,0.0098
2638.00,0.0098
2637.00,0.0098
2636.00,0.0097
2635.00,0.0097
2634.00,0.0097
2633.00,0.0097
2632.00,0.0097
2631.00,0.0097
2630.00,0.0097
2629.00,0.0097
2628.00,0.0097
2627.00,0.0098
2626.00,0.0098
2625.00,0.0098
2624.00,0.0098
2623.00,0.0098
2622.00,0.0099
2621.00,0.0099
2620.00,0.0099
2619.00,0.0099
2618.00,0.0099
2617.00,0.0099
2616.00,0.0099
2615.00,0.0099
2614.00,0.0098
2613.00,0.0098
2612.00,0.0098
2611.00,0.0097
2610.00,0.0097
2609.00,0.0097
2608.00,0.0096
2607.00,0.0096
2606.00,0.0096
2605.00,0.0095
2604.00,0.0095
2603.00,0.0095
2602.00,0.0095
2601.00,0.0094
2600.00,0.0094
2599.00,0.0093
2598.00,0.0093
2597.00,0.0093
2596.00,0.0093
2595.00,0.0092
2594.00,0.0092
2593.00,0.0092
2592.00,0.0092
2591.00,0.0091
2590.00,0.0091
2589.00,0.0091
2588.00,0.0091
2587.00,0.0091
2586.00,0.0090
2585.00,0.0090
2584.00,0.0089
2583.00,0.0089
2582.00,0.0089
2581.00,0.0089
2580.00,0.0089
2579.00,0.0089
2578.00,0.0088
2577.00,0.0088
2576.00,0.0088
2575.00,0.0087
2574.00,0.0087
2573.00,0.0087
2572.00,0.0087
2571.00,0.0086
2570.00,0.0086
2569.00,0.0086
2568.00,0.0086
2567.00,0.0085
2566.00,0.0085
2565.00,0.0085
2564.00,0.0085
2563.00,0.0085
2562.00,0.0085
2561.00,0.0085
2560.00,0.0085
2559.00,0.0085
2558.00,0.0085
2557.00,0.0085
2556.00,0.0086
2555.00,0.0086
2554.00,0.0086
2553.00,0.0086
2552.00,0.0086
2551.00,0.0086
2550.00,0.0086
2549.00,0.0086
2548.00,0.0087
2547.00,0.0087
2546.00,0.0087
2545.00,0.0087
2544.00,0.0087
2543.00,0.0087
2542.00,0.0087
2541.00,0.0087
2540.00,0.0087
2539.00,0.0087
2538.00,0.0087
2537.00,0.0087
2536.00,0.0087
2535.00,0.0087
2534.00,0.0087
2533.00,0.0086
2532.00,0.0086
2531.00,0.0086
2530.00,0.0086
2529.00,0.0086
2528.00,0.0086
2527.00,0.0085
2526.00,0.0085
2525.00,0.0085
2524.00,0.0084
2523.00,0.0084
2522.00,0.0084
2521.00,0.0083
2520.00,0.0083
2519.00,0.0083
2518.00,0.0083
2517.00,0.0083
2516.00,0.0083
2515.00,0.0083
2514.00,0.0082
2513.00,0.0082
2512.00,0.0083
2511.00,0.0083
2510.00,0.0083
2509.00,0.0083
2508.00,0.0083
2507.00,0.0082
2506.00,0.0082
2505.00,0.0082
2504.00,0.0082
2503.00,0.0082
2502.00,0.0081
2501.00,0.0081
2500.00,0.0082
2499.00,0.0082
2498.00,0.0082
2497.00,0.0082
2496.00,0.0082
2495.00,0.0083
2494.00,0.0083
2493.00,0.0084
2492.00,0.0084
2491.00,0.0085
2490.00,0.0085
2489.00,0.0085
2488.00,0.0085
2487.00,0.0085
2486.00,0.0084
2485.00,0.0084
2484.00,0.0083
2483.00,0.0083
2482.00,0.0082
2481.00,0.0082
2480.00,0.0082
2479.00,0.0082
2478.00,0.0082
2477.00,0.0081
2476.00,0.0081
2475.00,0.0081
2474.00,0.0081
2473.00,0.0081
2472.00,0.0081
2471.00,0.0081
2470.00,0.0081
2469.00,0.0082
2468.00,0.0082
2467.00,0.0082
2466.00,0.0082
2465.00,0.0082
2464.00,0.0083
2463.00,0.0083
2462.00,0.0083
2461.00,0.0084
2460.00,0.0084
2459.00,0.0085
2458.00,0.0085
2457.00,0.0086
2456.00,0.0086
2455.00,0.0087
2454.00,0.0087
2453.00,0.0087
2452.00,0.0087
2451.00,0.0087
2450.00,0.0086
2449.00,0.0086
2448.00,0.0085
2447.00,0.0085
2446.00,0.0084
2445.00,0.0083
2444.00,0.0083
2443.00,0.0083
2442.00,0.0082
2441.00,0.0082
2440.00,0.0082
2439.00,0.0082
2438.00,0.0081
2437.00,0.0081
2436.00,0.0081
2435.00,0.0080
2434.00,0.0080
2433.00,0.0080
2432.00,0.0080
2431.00,0.0080
2430.00,0.0079
2429.00,0.0079
2428.00,0.0079
2427.00,0.0079
2426.00,0.0080
2425.00,0.0080
2424.00,0.0080
2423.00,0.0080
2422.00,0.0080
2421.00,0.0080
2420.00,0.0080
2419.00,0.0080
2418.00,0.0079
2417.00,0.0079
2416.00,0.0079
2415.00,0.0079
2414.00,0.0079
2413.00,0.0079
2412.00,0.0078
2411.00,0.0078
2410.00,0.0078
2409.00,0.0078
2408.00,0.0077
2407.00,0.0076
2406.00,0.0076
2405.00,0.0075
2404.00,0.0076
2403.00,0.0076
2402.00,0.0076
2401.00,0.0076
2400.00,0.0076
2399.00,0.0076
2398.00,0.0076
2397.00,0.0076
2396.00,0.0076
2395.00,0.0075
2394.00,0.0075
2393.00,0.0075
2392.00,0.0075
2391.00,0.0074
2390.00,0.0074
2389.00,0.0074
2388.00,0.0074
2387.00,0.0074
2386.00,0.0073
2385.00,0.0073
2384.00,0.0073
2383.00,0.0072
2382.00,0.0072
2381.00,0.0072
2380.00,0.0071
2379.00,0.0072
2378.00,0.0072
2377.00,0.0072
2376.00,0.0072
2375.00,0.0072
2374.00,0.0071
2373.00,0.0071
2372.00,0.0071
2371.00,0.0070
2370.00,0.0070
2369.00,0.0069
2368.00,0.0069
2367.00,0.0069
2366.00,0.0069
2365.00,0.0070
2364.00,0.0070
2363.00,0.0071
2362.00,0.0071
2361.00,0.0071
2360.00,0.0071
2359.00,0.0071
2358.00,0.0071
2357.00,0.0072
2356.00,0.0072
2355.00,0.0072
2354.00,0.0072
2353.00,0.0071
2352.00,0.0071
2351.00,0.0072
2350.00,0.0072
2349.00,0.0073
2348.00,0.0073
2347.00,0.0074
2346.00,0.0074
2345.00,0.0073
2344.00,0.0073
2343.00,0.0072
2342.00,0.0073
2341.00,0.0074
2340.00,0.0075
2339.00,0.0076
2338.00,0.0076
2337.00,0.0076
2336.00,0.0076
2335.00,0.0076
2334.00,0.0076
2333.00,0.0076
2332.00,0.0075
2331.00,0.0075
2330.00,0.0075
2329.00,0.0077
2328.00,0.0080
2327.00,0.0084
2326.00,0.0088
2325.00,0.0089
2324.00,0.0088
2323.00,0.0085
2322.00,0.0083
2321.00,0.0081
2320.00,0.0080
2319.00,0.0079
2318.00,0.0077
2317.00,0.0076
2316.00,0.0076
2315.00,0.0075
2314.00,0.0074
2313.00,0.0073
2312.00,0.0072
2311.00,0.0071
2310.00,0.0071
2309.00,0.0071
2308.00,0.0071
2307.00,0.0071
2306.00,0.0071
2305.00,0.0071
2304.00,0.0072
2303.00,0.0072
2302.00,0.0072
2301.00,0.0072
2300.00,0.0072
2299.00,0.0073
2298.00,0.0074
2297.00,0.0075
2296.00,0.0076
2295.00,0.0077
2294.00,0.0079
2293.00,0.0080
2292.00,0.0081
2291.00,0.0083
2290.00,0.0084
2289.00,0.0084
2288.00,0.0085
2287.00,0.0084
2286.00,0.0084
2285.00,0.0083
2284.00,0.0082
2283.00,0.0081
2282.00,0.0081
2281.00,0.0080
2280.00,0.0080
2279.00,0.0080
2278.00,0.0079
2277.00,0.0078
2276.00,0.0078
2275.00,0.0078
2274.00,0.0078
2273.00,0.0077
2272.00,0.0077
2271.00,0.0077
2270.00,0.0076
2269.00,0.0075
2268.00,0.0075
2267.00,0.0074
2266.00,0.0072
2265.00,0.0072
2264.00,0.0071
2263.00,0.0072
2262.00,0.0072
2261.00,0.0073
2260.00,0.0073
2259.00,0.0072
2258.00,0.0071
2257.00,0.0070
2256.00,0.0068
2255.00,0.0067
2254.00,0.0066
2253.00,0.0066
2252.00,0.0067
2251.00,0.0067
2250.00,0.0066
2249.00,0.0066
2248.00,0.0066
2247.00,0.0066
2246.00,0.0065
2245.00,0.0064
2244.00,0.0064
2243.00,0.0064
2242.00,0.0064
2241.00,0.0065
2240.00,0.0066
2239.00,0.0066
2238.00,0.0065
2237.00,0.0064
2236.00,0.0064
2235.00,0.0063
2234.00,0.0063
2233.00,0.0062
2232.00,0.0062
2231.00,0.0063
2230.00,0.0062
2229.00,0.0062
2228.00,0.0062
2227.00,0.0062
2226.00,0.0062
2225.00,0.0063
2224.00,0.0064
2223.00,0.0064
2222.00,0.0063
2221.00,0.0063
2220.00,0.0063
2219.00,0.0063
2218.00,0.0063
2217.00,0.0063
2216.00,0.0063
2215.00,0.0062
2214.00,0.0061
2213.00,0.0060
2212.00,0.0060
2211.00,0.0059
2210.00,0.0059
2209.00,0.0059
2208.00,0.0060
2207.00,0.0060
2206.00,0.0060
2205.00,0.0061
2204.00,0.0061
2203.00,0.0061
2202.00,0.0060
2201.00,0.0060
2200.00,0.0060
2199.00,0.0060
2198.00,0.0059
2197.00,0.0060
2196.00,0.0060
2195.00,0.0061
2194.00,0.0060
2193.00,0.0060
2192.00,0.0061
2191.00,0.0061
2190.00,0.0061
2189.00,0.0062
2188.00,0.0063
2187.00,0.0063
2186.00,0.0063
2185.00,0.0062
2184.00,0.0060
2183.00,0.0057
2182.00,0.0055
2181.00,0.0055
2180.00,0.0056
2179.00,0.0057
2178.00,0.0057
2177.00,0.0057
2176.00,0.0057
2175.00,0.0058
2174.00,0.0060
2173.00,0.0062
2172.00,0.0064
2171.00,0.0067
2170.00,0.0069
2169.00,0.0071
2168.00,0.0073
2167.00,0.0073
2166.00,0.0073
2165.00,0.0075
2164.00,0.0077
2163.00,0.0076
2162.00,0.0069
2161.00,0.0056
2160.00,0.0040
2159.00,0.0027
2158.00,0.0021
2157.00,0.0024
2156.00,0.0030
2155.00,0.0035
2154.00,0.0038
2153.00,0.0041
2152.00,0.0043
2151.00,0.0045
2150.00,0.0046
2149.00,0.0046
2148.00,0.0046
2147.00,0.0045
2146.00,0.0044
2145.00,0.0043
2144.00,0.0043
2143.00,0.0044
2142.00,0.0044
2141.00,0.0045
2140.00,0.0046
2139.00,0.0045
2138.00,0.0042
2137.00,0.0038
2136.00,0.0036
2135.00,0.0035
2134.00,0.0035
2133.00,0.0037
2132.00,0.0039
2131.00,0.0041
2130.00,0.0042
2129.00,0.0044
2128.00,0.0046
2127.00,0.0048
2126.00,0.0048
2125.00,0.0049
2124.00,0.0051
2123.00,0.0052
2122.00,0.0053
2121.00,0.0054
2120.00,0.0055
2119.00,0.0055
2118.00,0.0056
2117.00,0.0057
2116.00,0.0058
2115.00,0.0058
2114.00,0.0058
2113.00,0.0058
2112.00,0.0058
2111.00,0.0058
2110.00,0.0057
2109.00,0.0057
2108.00,0.0057
2107.00,0.0058
2106.00,0.0058
2105.00,0.0059
2104.00,0.0059
2103.00,0.0059
2102.00,0.0059
2101.00,0.0059
2100.00,0.0059
2099.00,0.0058
2098.00,0.0057
2097.00,0.0055
2096.00,0.0054
2095.00,0.0054
2094.00,0.0055
2093.00,0.0057
2092.00,0.0058
2091.00,0.0059
2090.00,0.0059
2089.00,0.0059
2088.00,0.0061
2087.00,0.0061
2086.00,0.0061
2085.00,0.0062
2084.00,0.0062
2083.00,0.0062
2082.00,0.0062
2081.00,0.0063
2080.00,0.0063
2079.00,0.0063
2078.00,0.0062
2077.00,0.0061
2076.00,0.0061
2075.00,0.0061
2074.00,0.0060
2073.00,0.0061
2072.00,0.0062
2071.00,0.0062
2070.00,0.0061
2069.00,0.0062
2068.00,0.0062
2067.00,0.0061
2066.00,0.0060
2065.00,0.0059
2064.00,0.0058
2063.00,0.0057
2062.00,0.0057
2061.00,0.0056
2060.00,0.0057
2059.00,0.0057
2058.00,0.0057
2057.00,0.0056
2056.00,0.0055
2055.00,0.0055
2054.00,0.0057
2053.00,0.0061
2052.00,0.0064
2051.00,0.0063
2050.00,0.0059
2049.00,0.0054
2048.00,0.0050
2047.00,0.0047
2046.00,0.0046
2045.00,0.0045
2044.00,0.0046
2043.00,0.0046
2042.00,0.0045
2041.00,0.0044
2040.00,0.0044
2039.00,0.0045
2038.00,0.0044
2037.00,0.0043
2036.00,0.0042
2035.00,0.0039
2034.00,0.0036
2033.00,0.0035
2032.00,0.0037
2031.00,0.0039
2030.00,0.0040
2029.00,0.0042
2028.00,0.0044
2027.00,0.0045
2026.00,0.0044
2025.00,0.0043
2024.00,0.0043
2023.00,0.0043
2022.00,0.0042
2021.00,0.0042
2020.00,0.0044
2019.00,0.0045
2018.00,0.0046
2017.00,0.0047
2016.00,0.0047
2015.00,0.0047
2014.00,0.0046
2013.00,0.0046
2012.00,0.0047
2011.00,0.0047
2010.00,0.0047
2009.00,0.0047
2008.00,0.0047
2007.00,0.0048
2006.00,0.0049
2005.00,0.0052
2004.00,0.0056
2003.00,0.0058
2002.00,0.0059
2001.00,0.0060
2000.00,0.0061
1999.00,0.0060
1998.00,0.0059
1997.00,0.0058
1996.00,0.0057
1995.00,0.0057
1994.00,0.0057
1993.00,0.0058
1992.00,0.0059
1991.00,0.0059
1990.00,0.0059
1989.00,0.0058
1988.00,0.0059
1987.00,0.0059
1986.00,0.0058
1985.00,0.0059
1984.00,0.0061
1983.00,0.0065
1982.00,0.0067
1981.00,0.0067
1980.00,0.0064
1979.00,0.0056
1978.00,0.0047
1977.00,0.0041
1976.00,0.0040
1975.00,0.0041
1974.00,0.0042
1973.00,0.0045
1972.00,0.0047
1971.00,0.0047
1970.00,0.0046
1969.00,0.0046
1968.00,0.0048
1967.00,0.0049
1966.00,0.0049
1965.00,0.0049
1964.00,0.0049
1963.00,0.0049
1962.00,0.0047
1961.00,0.0045
1960.00,0.0044
1959.00,0.0044
1958.00,0.0043
1957.00,0.0044
1956.00,0.0046
1955.00,0.0046
1954.00,0.0045
1953.00,0.0045
1952.00,0.0046
1951.00,0.0046
1950.00,0.0047
1949.00,0.0047
1948.00,0.0047
1947.00,0.0047
1946.00,0.0046
1945.00,0.0047
1944.00,0.0050
1943.00,0.0051
1942.00,0.0051
1941.00,0.0052
1940.00,0.0051
1939.00,0.0051
1938.00,0.0050
1937.00,0.0051
1936.00,0.0052
1935.00,0.0053
1934.00,0.0054
1933.00,0.0056
1932.00,0.0057
1931.00,0.0058
1930.00,0.0058
1929.00,0.0058
1928.00,0.0058
1927.00,0.0058
1926.00,0.0058
1925.00,0.0058
1924.00,0.0058
1923.00,0.0057
1922.00,0.0057
1921.00,0.0059
1920.00,0.0062
1919.00,0.0063
1918.00,0.0062
1917.00,0.0060
1916.00,0.0059
1915.00,0.0057
1914.00,0.0056
1913.00,0.0055
1912.00,0.0055
1911.00,0.0054
1910.00,0.0052
1909.00,0.0052
1908.00,0.0052
1907.00,0.0052
1906.00,0.0052
1905.00,0.0051
1904.00,0.0051
1903.00,0.0051
1902.00,0.0050
1901.00,0.0050
1900.00,0.0050
1899.00,0.0050
1898.00,0.0049
1897.00,0.0049
1896.00,0.0049
1895.00,0.0049
1894.00,0.0049
1893.00,0.0050
1892.00,0.0052
1891.00,0.0053
1890.00,0.0053
1889.00,0.0053
1888.00,0.0052
1887.00,0.0051
1886.00,0.0050
1885.00,0.0049
1884.00,0.0049
1883.00,0.0049
1882.00,0.0048
1881.00,0.0048
1880.00,0.0048
1879.00,0.0048
1878.00,0.0047
1877.00,0.0047
1876.00,0.0047
1875.00,0.0047
1874.00,0.0047
1873.00,0.0049
1872.00,0.0052
1871.00,0.0054
1870.00,0.0054
1869.00,0.0052
1868.00,0.0050
1867.00,0.0049
1866.00,0.0048
1865.00,0.0048
1864.00,0.0049
1863.00,0.0049
1862.00,0.0048
1861.00,0.0049
1860.00,0.0049
1859.00,0.0049
1858.00,0.0049
1857.00,0.0050
1856.00,0.0051
1855.00,0.0052
1854.00,0.0053
1853.00,0.0054
1852.00,0.0056
1851.00,0.0057
1850.00,0.0058
1849.00,0.0058
1848.00,0.0060
1847.00,0.0061
1846.00,0.0062
1845.00,0.0062
1844.00,0.0060
1843.00,0.0057
1842.00,0.0054
1841.00,0.0051
1840.00,0.0049
1839.00,0.0048
1838.00,0.0047
1837.00,0.0047
1836.00,0.0047
1835.00,0.0048
1834.00,0.0050
1833.00,0.0052
1832.00,0.0055
1831.00,0.0055
1830.00,0.0052
1829.00,0.0052
1828.00,0.0054
1827.00,0.0057
1826.00,0.0058
1825.00,0.0057
1824.00,0.0055
1823.00,0.0052
1822.00,0.0049
1821.00,0.0047
1820.00,0.0047
1819.00,0.0047
1818.00,0.0046
1817.00,0.0045
1816.00,0.0046
1815.00,0.0046
1814.00,0.0047
1813.00,0.0048
1812.00,0.0048
1811.00,0.0048
1810.00,0.0048
1809.00,0.0049
1808.00,0.0049
1807.00,0.0050
1806.00,0.0050
1805.00,0.0053
1804.00,0.0057
1803.00,0.0061
1802.00,0.0063
1801.00,0.0062
1800.00,0.0060
1799.00,0.0058
1798.00,0.0056
1797.00,0.0055
1796.00,0.0057
1795.00,0.0059
1794.00,0.0061
1793.00,0.0063
1792.00,0.0064
1791.00,0.0065
1790.00,0.0063
1789.00,0.0060
1788.00,0.0060
1787.00,0.0061
1786.00,0.0063
1785.00,0.0064
1784.00,0.0064
1783.00,0.0055
1782.00,0.0055
1781.00,0.0055
1780.00,0.0056
1779.00,0.0056
1778.00,0.0056
1777.00,0.0057
1776.00,0.0057
1775.00,0.0057
1774.00,0.0056
1773.00,0.0055
1772.00,0.0055
1771.00,0.0056
1770.00,0.0056
1769.00,0.0058
1768.00,0.0059
1767.00,0.0061
1766.00,0.0062
1765.00,0.0063
1764.00,0.0064
1763.00,0.0075
1762.00,0.0076
1761.00,0.0077
1760.00,0.0077
1759.00,0.0079
1758.00,0.0080
1757.00,0.0081
1756.00,0.0081
1755.00,0.0080
1754.00,0.0079
1753.00,0.0079
1752.00,0.0080
1751.00,0.0081
1750.00,0.0079
1749.00,0.0077
1748.00,0.0076
1747.00,0.0076
1746.00,0.0076
1745.00,0.0077
1744.00,0.0079
1743.00,0.0082
1742.00,0.0083
1741.00,0.0084
1740.00,0.0084
1739.00,0.0085
1738.00,0.0086
1737.00,0.0088
1736.00,0.0089
1735.00,0.0086
1734.00,0.0082
1733.00,0.0081
1732.00,0.0086
1731.00,0.0093
1730.00,0.0098
1729.00,0.0101
1728.00,0.0103
1727.00,0.0104
1726.00,0.0106
1725.00,0.0108
1724.00,0.0113
1723.00,0.0118
1722.00,0.0125
1721.00,0.0134
1720.00,0.0143
1719.00,0.0146
1718.00,0.0147
1717.00,0.0158
1716.00,0.0181
1715.00,0.0207
1714.00,0.0230
1713.00,0.0249
1712.00,0.0267
1711.00,0.0286
1710.00,0.0305
1709.00,0.0327
1708.00,0.0351
1707.00,0.0374
1706.00,0.0396
1705.00,0.0421
1704.00,0.0446
1703.00,0.0468
1702.00,0.0492
1701.00,0.0523
1700.00,0.0554
1699.00,0.0575
1698.00,0.0591
1697.00,0.0628
1696.00,0.0708
1695.00,0.0827
1694.00,0.0959
1693.00,0.1096
1692.00,0.1242
1691.00,0.1399
1690.00,0.1548
1689.00,0.1663
1688.00,0.1725
1687.00,0.1738
1686.00,0.1729
1685.00,0.1739
1684.00,0.1799
1683.00,0.1892
1682.00,0.1984
1681.00,0.2071
1680.00,0.2160
1679.00,0.2237
1678.00,0.2280
1677.00,0.2275
1676.00,0.2218
1675.00,0.2110
1674.00,0.1970
1673.00,0.1820
1672.00,0.1668
1671.00,0.1518
1670.00,0.1375
1669.00,0.1249
1668.00,0.1146
1667.00,0.1061
1666.00,0.0990
1665.00,0.0929
1664.00,0.0874
1663.00,0.0826
1662.00,0.0788
1661.00,0.0755
1660.00,0.0727
1659.00,0.0704
1658.00,0.0690
1657.00,0.0683
1656.00,0.0679
1655.00,0.0682
1654.00,0.0709
1653.00,0.0778
1652.00,0.0862
1651.00,0.0929
1650.00,0.0981
1649.00,0.1018
1648.00,0.1040
1647.00,0.1048
1646.00,0.1039
1645.00,0.1008
1644.00,0.0958
1643.00,0.0899
1642.00,0.0837
1641.00,0.0779
1640.00,0.0729
1639.00,0.0687
1638.00,0.0654
1637.00,0.0631
1636.00,0.0627
1635.00,0.0645
1634.00,0.0671
1633.00,0.0698
1632.00,0.0725
1631.00,0.0756
1630.00,0.0788
1629.00,0.0817
1628.00,0.0840
1627.00,0.0855
1626.00,0.0863
1625.00,0.0865
1624.00,0.0864
1623.00,0.0865
1622.00,0.0867
1621.00,0.0864
1620.00,0.0853
1619.00,0.0833
1618.00,0.0807
1617.00,0.0782
1616.00,0.0764
1615.00,0.0749
1614.00,0.0729
1613.00,0.0700
1612.00,0.0668
1611.00,0.0638
1610.00,0.0616
1609.00,0.0604
1608.00,0.0606
1607.00,0.0621
1606.00,0.0645
1605.00,0.0665
1604.00,0.0671
1603.00,0.0654
1602.00,0.0618
1601.00,0.0568
1600.00,0.0516
1599.00,0.0468
1598.00,0.0429
1597.00,0.0396
1596.00,0.0369
1595.00,0.0347
1594.00,0.0330
1593.00,0.0315
1592.00,0.0300
1591.00,0.0286
1590.00,0.0274
1589.00,0.0263
1588.00,0.0253
1587.00,0.0244
1586.00,0.0237
1585.00,0.0231
1584.00,0.0227
1583.00,0.0225
1582.00,0.0225
1581.00,0.0229
1580.00,0.0234
1579.00,0.0237
1578.00,0.0239
1577.00,0.0246
1576.00,0.0263
1575.00,0.0284
1574.00,0.0297
1573.00,0.0296
1572.00,0.0283
1571.00,0.0264
1570.00,0.0245
1569.00,0.0230
1568.00,0.0219
1567.00,0.0210
1566.00,0.0202
1565.00,0.0196
1564.00,0.0191
1563.00,0.0187
1562.00,0.0186
1561.00,0.0188
1560.00,0.0187
1559.00,0.0180
1558.00,0.0188
1557.00,0.0195
1556.00,0.0194
1555.00,0.0193
1554.00,0.0194
1553.00,0.0199
1552.00,0.0205
1551.00,0.0211
1550.00,0.0218
1549.00,0.0225
1548.00,0.0233
1547.00,0.0243
1546.00,0.0257
1545.00,0.0271
1544.00,0.0282
1543.00,0.0291
1542.00,0.0300
1541.00,0.0314
1540.00,0.0349
1539.00,0.0413
1538.00,0.0489
1537.00,0.0569
1536.00,0.0659
1535.00,0.0776
1534.00,0.0933
1533.00,0.1120
1532.00,0.1302
1531.00,0.1462
1530.00,0.1604
1529.00,0.1730
1528.00,0.1825
1527.00,0.1877
1526.00,0.1878
1525.00,0.1830
1524.00,0.1747
1523.00,0.1639
1522.00,0.1517
1521.00,0.1397
1520.00,0.1295
1519.00,0.1206
1518.00,0.1123
1517.00,0.1044
1516.00,0.0975
1515.00,0.0919
1514.00,0.0870
1513.00,0.0827
1512.00,0.0795
1511.00,0.0776
1510.00,0.0765
1509.00,0.0761
1508.00,0.0771
1507.00,0.0818
1506.00,0.0905
1505.00,0.0992
1504.00,0.1070
1503.00,0.1149
1502.00,0.1235
1501.00,0.1328
1500.00,0.1424
1499.00,0.1513
1498.00,0.1593
1497.00,0.1660
1496.00,0.1712
1495.00,0.1743
1494.00,0.1753
1493.00,0.1745
1492.00,0.1724
1491.00,0.1695
1490.00,0.1659
1489.00,0.1614
1488.00,0.1560
1487.00,0.1501
1486.00,0.1440
1485.00,0.1378
1484.00,0.1316
1483.00,0.1257
1482.00,0.1204
1481.00,0.1156
1480.00,0.1114
1479.00,0.1079
1478.00,0.1047
1477.00,0.1017
1476.00,0.0982
1475.00,0.0945
1474.00,0.0908
1473.00,0.0875
1472.00,0.0849
1471.00,0.0828
1470.00,0.0808
1469.00,0.0792
1468.00,0.0781
1467.00,0.0774
1466.00,0.0769
1465.00,0.0765
1464.00,0.0757
1463.00,0.0745
1462.00,0.0733
1461.00,0.0722
1460.00,0.0712
1459.00,0.0702
1458.00,0.0695
1457.00,0.0694
1456.00,0.0693
1455.00,0.0687
1454.00,0.0680
1453.00,0.0675
1452.00,0.0674
1451.00,0.0681
1450.00,0.0695
1449.00,0.0717
1448.00,0.0747
1447.00,0.0783
1446.00,0.0821
1445.00,0.0857
1444.00,0.0889
1443.00,0.0914
1442.00,0.0934
1441.00,0.0958
1440.00,0.0992
1439.00,0.1046
1438.00,0.1132
1437.00,0.1251
1436.00,0.1382
1435.00,0.1496
1434.00,0.1588
1433.00,0.1660
1432.00,0.1703
1431.00,0.1700
1430.00,0.1645
1429.00,0.1552
1428.00,0.1441
1427.00,0.1327
1426.00,0.1220
1425.00,0.1123
1424.00,0.1036
1423.00,0.0962
1422.00,0.0899
1421.00,0.0845
1420.00,0.0796
1419.00,0.0748
1418.00,0.0703
1417.00,0.0661
1416.00,0.0622
1415.00,0.0586
1414.00,0.0554
1413.00,0.0526
1412.00,0.0501
1411.00,0.0479
1410.00,0.0460
1409.00,0.0442
1408.00,0.0427
1407.00,0.0415
1406.00,0.0404
1405.00,0.0393
1404.00,0.0382
1403.00,0.0372
1402.00,0.0365
1401.00,0.0361
1400.00,0.0359
1399.00,0.0358
1398.00,0.0358
1397.00,0.0358
1396.00,0.0360
1395.00,0.0365
1394.00,0.0373
1393.00,0.0381
1392.00,0.0391
1391.00,0.0406
1390.00,0.0427
1389.00,0.0451
1388.00,0.0475
1387.00,0.0497
1386.00,0.0514
1385.00,0.0529
1384.00,0.0546
1383.00,0.0568
1382.00,0.0594
1381.00,0.0619
1380.00,0.0636
1379.00,0.0638
1378.00,0.0622
1377.00,0.0592
1376.00,0.0553
1375.00,0.0512
1374.00,0.0475
1373.00,0.0444
1372.00,0.0419
1371.00,0.0401
1370.00,0.0389
1369.00,0.0383
1368.00,0.0383
1367.00,0.0388
1366.00,0.0401
1365.00,0.0420
1364.00,0.0445
1363.00,0.0475
1362.00,0.0510
1361.00,0.0546
1360.00,0.0583
1359.00,0.0624
1358.00,0.0673
1357.00,0.0732
1356.00,0.0806
1355.00,0.0900
1354.00,0.1020
1353.00,0.1167
1352.00,0.1335
1351.00,0.1507
1350.00,0.1655
1349.00,0.1751
1348.00,0.1778
1347.00,0.1745
1346.00,0.1676
1345.00,0.1601
1344.00,0.1541
1343.00,0.1502
1342.00,0.1478
1341.00,0.1457
1340.00,0.1427
1339.00,0.1382
1338.00,0.1320
1337.00,0.1243
1336.00,0.1158
1335.00,0.1072
1334.00,0.0989
1333.00,0.0913
1332.00,0.0849
1331.00,0.0798
1330.00,0.0762
1329.00,0.0739
1328.00,0.0729
1327.00,0.0733
1326.00,0.0752
1325.00,0.0789
1324.00,0.0845
1323.00,0.0916
1322.00,0.0995
1321.00,0.1072
1320.00,0.1140
1319.00,0.1198
1318.00,0.1248
1317.00,0.1297
1316.00,0.1351
1315.00,0.1410
1314.00,0.1471
1313.00,0.1528
1312.00,0.1577
1311.00,0.1615
1310.00,0.1638
1309.00,0.1640
1308.00,0.1618
1307.00,0.1574
1306.00,0.1512
1305.00,0.1440
1304.00,0.1366
1303.00,0.1293
1302.00,0.1225
1301.00,0.1162
1300.00,0.1106
1299.00,0.1058
1298.00,0.1018
1297.00,0.0986
1296.00,0.0963
1295.00,0.0951
1294.00,0.0949
1293.00,0.0955
1292.00,0.0964
1291.00,0.0969
1290.00,0.0967
1289.00,0.0954
1288.00,0.0934
1287.00,0.0910
1286.00,0.0885
1285.00,0.0863
1284.00,0.0842
1283.00,0.0824
1282.00,0.0809
1281.00,0.0796
1280.00,0.0786
1279.00,0.0778
1278.00,0.0773
1277.00,0.0771
1276.00,0.0770
1275.00,0.0773
1274.00,0.0778
1273.00,0.0785
1272.00,0.0793
1271.00,0.0797
1270.00,0.0794
1269.00,0.0780
1268.00,0.0754
1267.00,0.0718
1266.00,0.0677
1265.00,0.0635
1264.00,0.0595
1263.00,0.0559
1262.00,0.0530
1261.00,0.0505
1260.00,0.0485
1259.00,0.0470
1258.00,0.0459
1257.00,0.0452
1256.00,0.0448
1255.00,0.0447
1254.00,0.0449
1253.00,0.0453
1252.00,0.0458
1251.00,0.0464
1250.00,0.0472
1249.00,0.0482
1248.00,0.0493
1247.00,0.0507
1246.00,0.0525
1245.00,0.0549
1244.00,0.0579
1243.00,0.0618
1242.00,0.0670
1241.00,0.0735
1240.00,0.0811
1239.00,0.0892
1238.00,0.0974
1237.00,0.1055
1236.00,0.1143
1235.00,0.1249
1234.00,0.1381
1233.00,0.1540
1232.00,0.1721
1231.00,0.1920
1230.00,0.2129
1229.00,0.2340
1228.00,0.2542
1227.00,0.2721
1226.00,0.2862
1225.00,0.2953
1224.00,0.2990
1223.00,0.2976
1222.00,0.2922
1221.00,0.2840
1220.00,0.2744
1219.00,0.2641
1218.00,0.2539
1217.00,0.2438
1216.00,0.2340
1215.00,0.2244
1214.00,0.2149
1213.00,0.2053
1212.00,0.1958
1211.00,0.1863
1210.00,0.1769
1209.00,0.1678
1208.00,0.1590
1207.00,0.1507
1206.00,0.1428
1205.00,0.1354
1204.00,0.1286
1203.00,0.1224
1202.00,0.1171
1201.00,0.1128
1200.00,0.1100
1199.00,0.1090
1198.00,0.1104
1197.00,0.1146
1196.00,0.1219
1195.00,0.1325
1194.00,0.1456
1193.00,0.1601
1192.00,0.1740
1191.00,0.1853
1190.00,0.1921
1189.00,0.1933
1188.00,0.1893
1187.00,0.1811
1186.00,0.1707
1185.00,0.1597
1184.00,0.1491
1183.00,0.1393
1182.00,0.1302
1181.00,0.1217
1180.00,0.1136
1179.00,0.1061
1178.00,0.0994
1177.00,0.0937
1176.00,0.0888
1175.00,0.0849
1174.00,0.0819
1173.00,0.0799
1172.00,0.0788
1171.00,0.0789
1170.00,0.0805
1169.00,0.0840
1168.00,0.0894
1167.00,0.0963
1166.00,0.1035
1165.00,0.1093
1164.00,0.1118
1163.00,0.1100
1162.00,0.1045
1161.00,0.0969
1160.00,0.0890
1159.00,0.0827
1158.00,0.0793
1157.00,0.0797
1156.00,0.0842
1155.00,0.0928
1154.00,0.1036
1153.00,0.1135
1152.00,0.1190
1151.00,0.1185
1150.00,0.1127
1149.00,0.1042
1148.00,0.0954
1147.00,0.0875
1146.00,0.0807
1145.00,0.0748
1144.00,0.0699
1143.00,0.0658
1142.00,0.0630
1141.00,0.0613
1140.00,0.0609
1139.00,0.0616
1138.00,0.0629
1137.00,0.0645
1136.00,0.0660
1135.00,0.0673
1134.00,0.0686
1133.00,0.0702
1132.00,0.0726
1131.00,0.0763
1130.00,0.0820
1129.00,0.0904
1128.00,0.1020
1127.00,0.1173
1126.00,0.1361
1125.00,0.1578
1124.00,0.1811
1123.00,0.2036
1122.00,0.2231
1121.00,0.2373
1120.00,0.2450
1119.00,0.2462
1118.00,0.2419
1117.00,0.2335
1116.00,0.2226
1115.00,0.2103
1114.00,0.1978
1113.00,0.1858
1112.00,0.1753
1111.00,0.1667
1110.00,0.1608
1109.00,0.1578
1108.00,0.1582
1107.00,0.1622
1106.00,0.1695
1105.00,0.1792
1104.00,0.1901
1103.00,0.2003
1102.00,0.2077
1101.00,0.2111
1100.00,0.2097
1099.00,0.2043
1098.00,0.1960
1097.00,0.1860
1096.00,0.1753
1095.00,0.1648
1094.00,0.1546
1093.00,0.1449
1092.00,0.1358
1091.00,0.1273
1090.00,0.1194
1089.00,0.1121
1088.00,0.1055
1087.00,0.0996
1086.00,0.0944
1085.00,0.0898
1084.00,0.0857
1083.00,0.0822
1082.00,0.0792
1081.00,0.0765
1080.00,0.0742
1079.00,0.0722
1078.00,0.0706
1077.00,0.0693
1076.00,0.0684
1075.00,0.0680
1074.00,0.0682
1073.00,0.0688
1072.00,0.0694
1071.00,0.0695
1070.00,0.0687
1069.00,0.0671
1068.00,0.0651
1067.00,0.0631
1066.00,0.0617
1065.00,0.0612
1064.00,0.0618
1063.00,0.0637
1062.00,0.0672
1061.00,0.0723
1060.00,0.0792
1059.00,0.0876
1058.00,0.0968
1057.00,0.1054
1056.00,0.1121
1055.00,0.1159
1054.00,0.1166
1053.00,0.1147
1052.00,0.1114
1051.00,0.1077
1050.00,0.1041
1049.00,0.1003
1048.00,0.0961
1047.00,0.0915
1046.00,0.0872
1045.00,0.0834
1044.00,0.0806
1043.00,0.0787
1042.00,0.0776
1041.00,0.0773
1040.00,0.0774
1039.00,0.0780
1038.00,0.0789
1037.00,0.0801
1036.00,0.0813
1035.00,0.0827
1034.00,0.0843
1033.00,0.0863
1032.00,0.0891
1031.00,0.0929
1030.00,0.0980
1029.00,0.1046
1028.00,0.1129
1027.00,0.1228
1026.00,0.1339
1025.00,0.1454
1024.00,0.1562
1023.00,0.1650
1022.00,0.1707
1021.00,0.1726
1020.00,0.1708
1019.00,0.1659
1018.00,0.1587
1017.00,0.1501
1016.00,0.1409
1015.00,0.1317
1014.00,0.1228
1013.00,0.1146
1012.00,0.1070
1011.00,0.1003
1010.00,0.0944
1009.00,0.0892
1008.00,0.0846
1007.00,0.0806
1006.00,0.0772
1005.00,0.0746
1004.00,0.0727
1003.00,0.0711
1002.00,0.0696
1001.00,0.0677
1000.00,0.0655
999.00,0.0632
998.00,0.0609
997.00,0.0588
996.00,0.0570
995.00,0.0553
994.00,0.0538
993.00,0.0525
992.00,0.0513
991.00,0.0502
990.00,0.0492
989.00,0.0483
988.00,0.0475
987.00,0.0467
986.00,0.0460
985.00,0.0453
984.00,0.0447
983.00,0.0442
982.00,0.0437
981.00,0.0432
980.00,0.0428
979.00,0.0423
978.00,0.0419
977.00,0.0415
976.00,0.0412
975.00,0.0410
974.00,0.0410
973.00,0.0415
972.00,0.0423
971.00,0.0432
970.00,0.0440
969.00,0.0443
968.00,0.0441
967.00,0.0438
966.00,0.0439
965.00,0.0449
964.00,0.0466
963.00,0.0483
962.00,0.0491
961.00,0.0487
960.00,0.0476
959.00,0.0470
958.00,0.0477
957.00,0.0494
956.00,0.0515
955.00,0.0531
954.00,0.0534
953.00,0.0522
952.00,0.0501
951.00,0.0476
950.00,0.0452
949.00,0.0430
948.00,0.0412
947.00,0.0396
946.00,0.0384
945.00,0.0373
944.00,0.0363
943.00,0.0355
942.00,0.0347
941.00,0.0340
940.00,0.0334
939.00,0.0328
938.00,0.0323
937.00,0.0318
936.00,0.0314
935.00,0.0310
934.00,0.0306
933.00,0.0303
932.00,0.0300
931.00,0.0297
930.00,0.0294
929.00,0.0291
928.00,0.0288
927.00,0.0285
926.00,0.0283
925.00,0.0282
924.00,0.0280
923.00,0.0277
922.00,0.0275
921.00,0.0273
920.00,0.0270
919.00,0.0268
918.00,0.0267
917.00,0.0265
916.00,0.0263
915.00,0.0261
914.00,0.0259
913.00,0.0257
912.00,0.0255
911.00,0.0252
910.00,0.0250
909.00,0.0248
908.00,0.0246
907.00,0.0244
906.00,0.0243
905.00,0.0241
904.00,0.0240
903.00,0.0238
902.00,0.0237
901.00,0.0235
900.00,0.0234
899.00,0.0232
898.00,0.0231
897.00,0.0229
896.00,0.0228
895.00,0.0226
894.00,0.0225
893.00,0.0224
892.00,0.0223
891.00,0.0222
890.00,0.0222
889.00,0.0222
888.00,0.0223
887.00,0.0227
886.00,0.0234
885.00,0.0242
884.00,0.0247
883.00,0.0247
882.00,0.0241
881.00,0.0232
880.00,0.0222
879.00,0.0215
878.00,0.0210
877.00,0.0208
876.00,0.0205
875.00,0.0203
874.00,0.0201
873.00,0.0200
872.00,0.0200
871.00,0.0199
870.00,0.0200
869.00,0.0201
868.00,0.0202
867.00,0.0205
866.00,0.0212
865.00,0.0225
864.00,0.0251
863.00,0.0303
862.00,0.0402
861.00,0.0554
860.00,0.0727
859.00,0.0847
858.00,0.0852
857.00,0.0748
856.00,0.0599
855.00,0.0469
854.00,0.0380
853.00,0.0325
852.00,0.0290
851.00,0.0269
850.00,0.0257
849.00,0.0248
848.00,0.0242
847.00,0.0239
846.00,0.0239
845.00,0.0239
844.00,0.0242
843.00,0.0248
842.00,0.0260
841.00,0.0279
840.00,0.0313
839.00,0.0371
838.00,0.0458
837.00,0.0570
836.00,0.0692
835.00,0.0811
834.00,0.0918
833.00,0.1020
832.00,0.1127
831.00,0.1234
830.00,0.1317
829.00,0.1350
828.00,0.1320
827.00,0.1237
826.00,0.1124
825.00,0.1002
824.00,0.0886
823.00,0.0784
822.00,0.0698
821.00,0.0623
820.00,0.0557
819.00,0.0500
818.00,0.0452
817.00,0.0411
816.00,0.0377
815.00,0.0350
814.00,0.0332
813.00,0.0321
812.00,0.0319
811.00,0.0327
810.00,0.0342
809.00,0.0363
808.00,0.0382
807.00,0.0395
806.00,0.0394
805.00,0.0378
804.00,0.0354
803.00,0.0333
802.00,0.0324
801.00,0.0332
800.00,0.0367
799.00,0.0445
798.00,0.0588
797.00,0.0806
796.00,0.1079
795.00,0.1344
794.00,0.1513
793.00,0.1532
792.00,0.1427
791.00,0.1269
790.00,0.1115
789.00,0.0981
788.00,0.0865
787.00,0.0761
786.00,0.0674
785.00,0.0603
784.00,0.0549
783.00,0.0508
782.00,0.0477
781.00,0.0453
780.00,0.0434
779.00,0.0419
778.00,0.0410
777.00,0.0409
776.00,0.0419
775.00,0.0443
774.00,0.0477
773.00,0.0503
772.00,0.0509
771.00,0.0495
770.00,0.0474
769.00,0.0470
768.00,0.0505
767.00,0.0592
766.00,0.0735
765.00,0.0911
764.00,0.1077
763.00,0.1180
762.00,0.1189
761.00,0.1117
760.00,0.1003
759.00,0.0887
758.00,0.0789
757.00,0.0714
756.00,0.0657
755.00,0.0617
754.00,0.0592
753.00,0.0582
752.00,0.0592
751.00,0.0628
750.00,0.0701
749.00,0.0818
748.00,0.0979
747.00,0.1164
746.00,0.1333
745.00,0.1437
744.00,0.1448
743.00,0.1375
742.00,0.1250
741.00,0.1109
740.00,0.0971
739.00,0.0848
738.00,0.0742
737.00,0.0654
736.00,0.0581
735.00,0.0523
734.00,0.0478
733.00,0.0442
732.00,0.0413
731.00,0.0390
730.00,0.0373
729.00,0.0359
728.00,0.0348
727.00,0.0340
726.00,0.0336
725.00,0.0334
724.00,0.0335
723.00,0.0340
722.00,0.0351
721.00,0.0370
720.00,0.0401
719.00,0.0453
718.00,0.0536
717.00,0.0667
716.00,0.0856
715.00,0.1097
714.00,0.1350
713.00,0.1543
712.00,0.1617
711.00,0.1558
710.00,0.1409
709.00,0.1225
708.00,0.1049
707.00,0.0903
706.00,0.0792
705.00,0.0710
704.00,0.0651
703.00,0.0608
702.00,0.0578
701.00,0.0558
700.00,0.0547
699.00,0.0544
698.00,0.0550
697.00,0.0565
696.00,0.0590
695.00,0.0626
694.00,0.0675
693.00,0.0737
692.00,0.0812
691.00,0.0898
690.00,0.0992
689.00,0.1083
688.00,0.1155
687.00,0.1192
686.00,0.1183
685.00,0.1129
684.00,0.1045
683.00,0.0952
682.00,0.0871
681.00,0.0810
680.00,0.0774
679.00,0.0765
678.00,0.0781
677.00,0.0817
676.00,0.0863
675.00,0.0906
674.00,0.0931
673.00,0.0925
672.00,0.0893
671.00,0.0848
670.00,0.0805
669.00,0.0772
668.00,0.0755
667.00,0.0752
666.00,0.0752
665.00,0.0752
664.00,0.0751
663.00,0.0748
662.00,0.0739
661.00,0.0724
660.00,0.0703
659.00,0.0678
658.00,0.0651
657.00,0.0623
656.00,0.0594
655.00,0.0567
654.00,0.0542
653.00,0.0517
652.00,0.0493
651.00,0.0471
650.00,0.0453
649.00,0.0436
648.00,0.0419
647.00,0.0404
646.00,0.0390
645.00,0.0377
644.00,0.0364
643.00,0.0353
642.00,0.0343
641.00,0.0333
640.00,0.0323
639.00,0.0314
638.00,0.0309
637.00,0.0305
636.00,0.0302
635.00,0.0302
634.00,0.0306
633.00,0.0316
632.00,0.0332
631.00,0.0360
630.00,0.0403
629.00,0.0467
628.00,0.0552
627.00,0.0657
626.00,0.0771
625.00,0.0870
624.00,0.0935
623.00,0.0955
622.00,0.0933
621.00,0.0882
620.00,0.0816
619.00,0.0749
618.00,0.0689
617.00,0.0639
616.00,0.0599
615.00,0.0570
614.00,0.0554
613.00,0.0549
612.00,0.0555
611.00,0.0571
610.00,0.0593
609.00,0.0611
608.00,0.0613
607.00,0.0598
606.00,0.0569
605.00,0.0532
604.00,0.0494
603.00,0.0461
602.00,0.0437
601.00,0.0418
600.00,0.0402
599.00,0.0392
598.00,0.0388
597.00,0.0389
596.00,0.0398
595.00,0.0418
594.00,0.0451
593.00,0.0492
592.00,0.0532
591.00,0.0559
590.00,0.0564
589.00,0.0554
588.00,0.0542
587.00,0.0548
586.00,0.0572
585.00,0.0599
584.00,0.0608
583.00,0.0590
582.00,0.0552
581.00,0.0506
580.00,0.0464
579.00,0.0432
578.00,0.0411
577.00,0.0396
576.00,0.0383
575.00,0.0375
574.00,0.0371
573.00,0.0371
572.00,0.0375
571.00,0.0383
570.00,0.0398
569.00,0.0416
568.00,0.0432
567.00,0.0449
566.00,0.0466
565.00,0.0480
564.00,0.0485
563.00,0.0479
562.00,0.0463
561.00,0.0439
560.00,0.0410
559.00,0.0384
558.00,0.0363
557.00,0.0347
556.00,0.0332
555.00,0.0320
554.00,0.0311
553.00,0.0303
552.00,0.0295
551.00,0.0289
550.00,0.0286
549.00,0.0283
548.00,0.0278
547.00,0.0273
546.00,0.0271
545.00,0.0268
544.00,0.0264
543.00,0.0260
542.00,0.0260
541.00,0.0259
540.00,0.0255
539.00,0.0253
538.00,0.0252
537.00,0.0250
536.00,0.0247
535.00,0.0244
534.00,0.0243
533.00,0.0242
532.00,0.0238
531.00,0.0235
530.00,0.0235
529.00,0.0234
528.00,0.0233
527.00,0.0233
526.00,0.0234
525.00,0.0233
524.00,0.0227
523.00,0.0223
522.00,0.0224
521.00,0.0225
520.00,0.0225
519.00,0.0226
518.00,0.0231
517.00,0.0237
516.00,0.0244
515.00,0.0255
514.00,0.0272
513.00,0.0285
512.00,0.0288
511.00,0.0282
510.00,0.0271
509.00,0.0257
508.00,0.0243
507.00,0.0234
506.00,0.0232
505.00,0.0232
504.00,0.0231
503.00,0.0230
502.00,0.0229
501.00,0.0225
500.00,0.0217
499.00,0.0210
498.00,0.0209
497.00,0.0208
496.00,0.0207
495.00,0.0207
494.00,0.0210
493.00,0.0212
492.00,0.0209
491.00,0.0207
490.00,0.0208
489.00,0.0211
488.00,0.0212
487.00,0.0213
486.00,0.0216
485.00,0.0218
484.00,0.0219
483.00,0.0222
482.00,0.0231
481.00,0.0240
480.00,0.0248
479.00,0.0258
478.00,0.0275
477.00,0.0295
476.00,0.0316
475.00,0.0344
474.00,0.0382
473.00,0.0427
472.00,0.0472
471.00,0.0517
470.00,0.0560
469.00,0.0593
468.00,0.0609
467.00,0.0611
466.00,0.0601
465.00,0.0579
464.00,0.0547
463.00,0.0513
462.00,0.0483
461.00,0.0454
460.00,0.0428
459.00,0.0407
458.00,0.0393
457.00,0.0374
456.00,0.0349
455.00,0.0328
454.00,0.0319
453.00,0.0312
452.00,0.0301
451.00,0.0290
450.00,0.0284
449.00,0.0280
448.00,0.0274
447.00,0.0268
446.00,0.0267
445.00,0.0265
444.00,0.0258
443.00,0.0249
442.00,0.0245
441.00,0.0240
440.00,0.0234
439.00,0.0232
438.00,0.0239
437.00,0.0244
436.00,0.0239
435.00,0.0230
434.00,0.0226
433.00,0.0224
432.00,0.0221
431.00,0.0220
430.00,0.0226
429.00,0.0231
428.00,0.0232
427.00,0.0235
426.00,0.0248
425.00,0.0263
424.00,0.0271
423.00,0.0281
422.00,0.0299
421.00,0.0323
420.00,0.0350
419.00,0.0384
418.00,0.0426
417.00,0.0457
416.00,0.0474
415.00,0.0495
414.00,0.0523
413.00,0.0542
412.00,0.0542
411.00,0.0539
410.00,0.0547
409.00,0.0557
408.00,0.0555
407.00,0.0545
406.00,0.0527
405.00,0.0489
404.00,0.0433
403.00,0.0384
402.00,0.0362
401.00,0.0354
400.00,0.0339
