Created as New Dataset,Sample 499 By YargerLab Date Monday, February 02 2026
cm-1,A
4000.00,0.0613
3999.00,0.0613
3998.00,0.0612
3997.00,0.0612
3996.00,0.0612
3995.00,0.0612
3994.00,0.0612
3993.00,0.0611
3992.00,0.0611
3991.00,0.0611
3990.00,0.0610
3989.00,0.0610
3988.00,0.0609
3987.00,0.0609
3986.00,0.0609
3985.00,0.0608
3984.00,0.0608
3983.00,0.0608
3982.00,0.0607
3981.00,0.0607
3980.00,0.0607
3979.00,0.0607
3978.00,0.0606
3977.00,0.0606
3976.00,0.0605
3975.00,0.0605
3974.00,0.0605
3973.00,0.0604
3972.00,0.0604
3971.00,0.0604
3970.00,0.0604
3969.00,0.0603
3968.00,0.0603
3967.00,0.0603
3966.00,0.0603
3965.00,0.0602
3964.00,0.0602
3963.00,0.0602
3962.00,0.0601
3961.00,0.0601
3960.00,0.0600
3959.00,0.0600
3958.00,0.0600
3957.00,0.0599
3956.00,0.0599
3955.00,0.0599
3954.00,0.0599
3953.00,0.0599
3952.00,0.0599
3951.00,0.0599
3950.00,0.0599
3949.00,0.0599
3948.00,0.0598
3947.00,0.0598
3946.00,0.0598
3945.00,0.0598
3944.00,0.0598
3943.00,0.0597
3942.00,0.0596
3941.00,0.0596
3940.00,0.0596
3939.00,0.0596
3938.00,0.0595
3937.00,0.0595
3936.00,0.0594
3935.00,0.0594
3934.00,0.0594
3933.00,0.0594
3932.00,0.0594
3931.00,0.0593
3930.00,0.0593
3929.00,0.0593
3928.00,0.0593
3927.00,0.0592
3926.00,0.0592
3925.00,0.0591
3924.00,0.0591
3923.00,0.0591
3922.00,0.0591
3921.00,0.0592
3920.00,0.0592
3919.00,0.0592
3918.00,0.0592
3917.00,0.0591
3916.00,0.0590
3915.00,0.0590
3914.00,0.0589
3913.00,0.0588
3912.00,0.0588
3911.00,0.0587
3910.00,0.0586
3909.00,0.0586
3908.00,0.0586
3907.00,0.0586
3906.00,0.0586
3905.00,0.0587
3904.00,0.0588
3903.00,0.0590
3902.00,0.0591
3901.00,0.0591
3900.00,0.0591
3899.00,0.0590
3898.00,0.0588
3897.00,0.0587
3896.00,0.0586
3895.00,0.0585
3894.00,0.0584
3893.00,0.0583
3892.00,0.0582
3891.00,0.0582
3890.00,0.0582
3889.00,0.0582
3888.00,0.0584
3887.00,0.0584
3886.00,0.0584
3885.00,0.0584
3884.00,0.0583
3883.00,0.0584
3882.00,0.0584
3881.00,0.0583
3880.00,0.0582
3879.00,0.0581
3878.00,0.0581
3877.00,0.0581
3876.00,0.0581
3875.00,0.0580
3874.00,0.0579
3873.00,0.0578
3872.00,0.0579
3871.00,0.0580
3870.00,0.0580
3869.00,0.0580
3868.00,0.0579
3867.00,0.0580
3866.00,0.0580
3865.00,0.0579
3864.00,0.0578
3863.00,0.0577
3862.00,0.0577
3861.00,0.0577
3860.00,0.0576
3859.00,0.0575
3858.00,0.0573
3857.00,0.0571
3856.00,0.0570
3855.00,0.0571
3854.00,0.0572
3853.00,0.0573
3852.00,0.0575
3851.00,0.0576
3850.00,0.0577
3849.00,0.0576
3848.00,0.0574
3847.00,0.0573
3846.00,0.0572
3845.00,0.0571
3844.00,0.0571
3843.00,0.0571
3842.00,0.0571
3841.00,0.0571
3840.00,0.0571
3839.00,0.0571
3838.00,0.0571
3837.00,0.0571
3836.00,0.0571
3835.00,0.0571
3834.00,0.0571
3833.00,0.0570
3832.00,0.0569
3831.00,0.0568
3830.00,0.0568
3829.00,0.0567
3828.00,0.0567
3827.00,0.0566
3826.00,0.0565
3825.00,0.0565
3824.00,0.0565
3823.00,0.0566
3822.00,0.0567
3821.00,0.0566
3820.00,0.0565
3819.00,0.0565
3818.00,0.0566
3817.00,0.0566
3816.00,0.0565
3815.00,0.0563
3814.00,0.0562
3813.00,0.0561
3812.00,0.0561
3811.00,0.0560
3810.00,0.0558
3809.00,0.0558
3808.00,0.0558
3807.00,0.0558
3806.00,0.0558
3805.00,0.0559
3804.00,0.0560
3803.00,0.0561
3802.00,0.0561
3801.00,0.0559
3800.00,0.0559
3799.00,0.0559
3798.00,0.0559
3797.00,0.0559
3796.00,0.0558
3795.00,0.0556
3794.00,0.0555
3793.00,0.0554
3792.00,0.0553
3791.00,0.0552
3790.00,0.0551
3789.00,0.0551
3788.00,0.0550
3787.00,0.0550
3786.00,0.0550
3785.00,0.0550
3784.00,0.0550
3783.00,0.0550
3782.00,0.0550
3781.00,0.0551
3780.00,0.0550
3779.00,0.0550
3778.00,0.0549
3777.00,0.0549
3776.00,0.0548
3775.00,0.0548
3774.00,0.0548
3773.00,0.0548
3772.00,0.0548
3771.00,0.0548
3770.00,0.0548
3769.00,0.0548
3768.00,0.0549
3767.00,0.0549
3766.00,0.0549
3765.00,0.0548
3764.00,0.0547
3763.00,0.0547
3762.00,0.0548
3761.00,0.0548
3760.00,0.0547
3759.00,0.0547
3758.00,0.0546
3757.00,0.0546
3756.00,0.0546
3755.00,0.0547
3754.00,0.0547
3753.00,0.0548
3752.00,0.0548
3751.00,0.0549
3750.00,0.0550
3749.00,0.0551
3748.00,0.0552
3747.00,0.0552
3746.00,0.0552
3745.00,0.0552
3744.00,0.0550
3743.00,0.0549
3742.00,0.0548
3741.00,0.0548
3740.00,0.0548
3739.00,0.0548
3738.00,0.0549
3737.00,0.0549
3736.00,0.0548
3735.00,0.0547
3734.00,0.0546
3733.00,0.0545
3732.00,0.0545
3731.00,0.0544
3730.00,0.0542
3729.00,0.0542
3728.00,0.0542
3727.00,0.0541
3726.00,0.0540
3725.00,0.0540
3724.00,0.0539
3723.00,0.0539
3722.00,0.0538
3721.00,0.0537
3720.00,0.0537
3719.00,0.0536
3718.00,0.0535
3717.00,0.0534
3716.00,0.0534
3715.00,0.0534
3714.00,0.0534
3713.00,0.0535
3712.00,0.0535
3711.00,0.0535
3710.00,0.0535
3709.00,0.0535
3708.00,0.0535
3707.00,0.0534
3706.00,0.0533
3705.00,0.0532
3704.00,0.0532
3703.00,0.0531
3702.00,0.0530
3701.00,0.0529
3700.00,0.0529
3699.00,0.0529
3698.00,0.0529
3697.00,0.0529
3696.00,0.0528
3695.00,0.0528
3694.00,0.0528
3693.00,0.0529
3692.00,0.0529
3691.00,0.0529
3690.00,0.0530
3689.00,0.0531
3688.00,0.0532
3687.00,0.0533
3686.00,0.0533
3685.00,0.0533
3684.00,0.0533
3683.00,0.0533
3682.00,0.0533
3681.00,0.0533
3680.00,0.0533
3679.00,0.0534
3678.00,0.0535
3677.00,0.0537
3676.00,0.0538
3675.00,0.0538
3674.00,0.0538
3673.00,0.0540
3672.00,0.0541
3671.00,0.0542
3670.00,0.0541
3669.00,0.0539
3668.00,0.0538
3667.00,0.0537
3666.00,0.0537
3665.00,0.0536
3664.00,0.0535
3663.00,0.0535
3662.00,0.0534
3661.00,0.0534
3660.00,0.0534
3659.00,0.0535
3658.00,0.0537
3657.00,0.0538
3656.00,0.0539
3655.00,0.0540
3654.00,0.0541
3653.00,0.0544
3652.00,0.0546
3651.00,0.0548
3650.00,0.0550
3649.00,0.0552
3648.00,0.0553
3647.00,0.0554
3646.00,0.0554
3645.00,0.0553
3644.00,0.0552
3643.00,0.0552
3642.00,0.0551
3641.00,0.0551
3640.00,0.0551
3639.00,0.0551
3638.00,0.0552
3637.00,0.0553
3636.00,0.0554
3635.00,0.0556
3634.00,0.0557
3633.00,0.0559
3632.00,0.0561
3631.00,0.0564
3630.00,0.0567
3629.00,0.0569
3628.00,0.0571
3627.00,0.0572
3626.00,0.0574
3625.00,0.0574
3624.00,0.0574
3623.00,0.0574
3622.00,0.0575
3621.00,0.0576
3620.00,0.0578
3619.00,0.0580
3618.00,0.0582
3617.00,0.0585
3616.00,0.0588
3615.00,0.0590
3614.00,0.0592
3613.00,0.0593
3612.00,0.0595
3611.00,0.0597
3610.00,0.0600
3609.00,0.0602
3608.00,0.0603
3607.00,0.0604
3606.00,0.0605
3605.00,0.0606
3604.00,0.0607
3603.00,0.0608
3602.00,0.0610
3601.00,0.0611
3600.00,0.0613
3599.00,0.0616
3598.00,0.0619
3597.00,0.0621
3596.00,0.0624
3595.00,0.0626
3594.00,0.0629
3593.00,0.0631
3592.00,0.0634
3591.00,0.0636
3590.00,0.0640
3589.00,0.0643
3588.00,0.0646
3587.00,0.0649
3586.00,0.0652
3585.00,0.0654
3584.00,0.0657
3583.00,0.0658
3582.00,0.0660
3581.00,0.0662
3580.00,0.0664
3579.00,0.0666
3578.00,0.0669
3577.00,0.0672
3576.00,0.0675
3575.00,0.0678
3574.00,0.0681
3573.00,0.0684
3572.00,0.0687
3571.00,0.0690
3570.00,0.0694
3569.00,0.0699
3568.00,0.0704
3567.00,0.0709
3566.00,0.0713
3565.00,0.0716
3564.00,0.0718
3563.00,0.0720
3562.00,0.0722
3561.00,0.0723
3560.00,0.0725
3559.00,0.0727
3558.00,0.0730
3557.00,0.0733
3556.00,0.0736
3555.00,0.0738
3554.00,0.0741
3553.00,0.0744
3552.00,0.0747
3551.00,0.0750
3550.00,0.0753
3549.00,0.0756
3548.00,0.0759
3547.00,0.0761
3546.00,0.0764
3545.00,0.0767
3544.00,0.0769
3543.00,0.0772
3542.00,0.0774
3541.00,0.0776
3540.00,0.0778
3539.00,0.0779
3538.00,0.0781
3537.00,0.0783
3536.00,0.0786
3535.00,0.0788
3534.00,0.0790
3533.00,0.0792
3532.00,0.0793
3531.00,0.0795
3530.00,0.0797
3529.00,0.0800
3528.00,0.0802
3527.00,0.0805
3526.00,0.0807
3525.00,0.0809
3524.00,0.0810
3523.00,0.0811
3522.00,0.0812
3521.00,0.0813
3520.00,0.0814
3519.00,0.0815
3518.00,0.0816
3517.00,0.0817
3516.00,0.0818
3515.00,0.0820
3514.00,0.0821
3513.00,0.0822
3512.00,0.0824
3511.00,0.0825
3510.00,0.0827
3509.00,0.0828
3508.00,0.0829
3507.00,0.0830
3506.00,0.0831
3505.00,0.0832
3504.00,0.0833
3503.00,0.0834
3502.00,0.0835
3501.00,0.0836
3500.00,0.0837
3499.00,0.0837
3498.00,0.0838
3497.00,0.0839
3496.00,0.0839
3495.00,0.0840
3494.00,0.0841
3493.00,0.0842
3492.00,0.0842
3491.00,0.0843
3490.00,0.0844
3489.00,0.0845
3488.00,0.0845
3487.00,0.0846
3486.00,0.0847
3485.00,0.0848
3484.00,0.0849
3483.00,0.0849
3482.00,0.0850
3481.00,0.0851
3480.00,0.0852
3479.00,0.0852
3478.00,0.0853
3477.00,0.0854
3476.00,0.0855
3475.00,0.0855
3474.00,0.0856
3473.00,0.0856
3472.00,0.0857
3471.00,0.0857
3470.00,0.0858
3469.00,0.0858
3468.00,0.0859
3467.00,0.0860
3466.00,0.0860
3465.00,0.0861
3464.00,0.0862
3463.00,0.0862
3462.00,0.0863
3461.00,0.0863
3460.00,0.0864
3459.00,0.0864
3458.00,0.0864
3457.00,0.0865
3456.00,0.0865
3455.00,0.0865
3454.00,0.0866
3453.00,0.0866
3452.00,0.0866
3451.00,0.0866
3450.00,0.0867
3449.00,0.0867
3448.00,0.0867
3447.00,0.0867
3446.00,0.0868
3445.00,0.0868
3444.00,0.0868
3443.00,0.0868
3442.00,0.0868
3441.00,0.0867
3440.00,0.0867
3439.00,0.0866
3438.00,0.0866
3437.00,0.0866
3436.00,0.0865
3435.00,0.0865
3434.00,0.0865
3433.00,0.0865
3432.00,0.0865
3431.00,0.0865
3430.00,0.0864
3429.00,0.0864
3428.00,0.0864
3427.00,0.0863
3426.00,0.0863
3425.00,0.0862
3424.00,0.0861
3423.00,0.0861
3422.00,0.0860
3421.00,0.0860
3420.00,0.0859
3419.00,0.0859
3418.00,0.0858
3417.00,0.0857
3416.00,0.0856
3415.00,0.0855
3414.00,0.0853
3413.00,0.0852
3412.00,0.0852
3411.00,0.0851
3410.00,0.0850
3409.00,0.0849
3408.00,0.0848
3407.00,0.0847
3406.00,0.0845
3405.00,0.0844
3404.00,0.0842
3403.00,0.0840
3402.00,0.0838
3401.00,0.0836
3400.00,0.0835
3399.00,0.0835
3398.00,0.0834
3397.00,0.0833
3396.00,0.0831
3395.00,0.0830
3394.00,0.0828
3393.00,0.0826
3392.00,0.0825
3391.00,0.0823
3390.00,0.0822
3389.00,0.0821
3388.00,0.0820
3387.00,0.0819
3386.00,0.0817
3385.00,0.0816
3384.00,0.0814
3383.00,0.0812
3382.00,0.0810
3381.00,0.0808
3380.00,0.0806
3379.00,0.0805
3378.00,0.0803
3377.00,0.0801
3376.00,0.0799
3375.00,0.0797
3374.00,0.0795
3373.00,0.0792
3372.00,0.0789
3371.00,0.0786
3370.00,0.0783
3369.00,0.0781
3368.00,0.0779
3367.00,0.0779
3366.00,0.0778
3365.00,0.0777
3364.00,0.0776
3363.00,0.0774
3362.00,0.0772
3361.00,0.0770
3360.00,0.0769
3359.00,0.0767
3358.00,0.0766
3357.00,0.0764
3356.00,0.0762
3355.00,0.0760
3354.00,0.0757
3353.00,0.0754
3352.00,0.0751
3351.00,0.0749
3350.00,0.0748
3349.00,0.0748
3348.00,0.0748
3347.00,0.0747
3346.00,0.0745
3345.00,0.0743
3344.00,0.0741
3343.00,0.0739
3342.00,0.0737
3341.00,0.0734
3340.00,0.0732
3339.00,0.0730
3338.00,0.0729
3337.00,0.0729
3336.00,0.0729
3335.00,0.0729
3334.00,0.0728
3333.00,0.0727
3332.00,0.0726
3331.00,0.0724
3330.00,0.0723
3329.00,0.0721
3328.00,0.0718
3327.00,0.0716
3326.00,0.0714
3325.00,0.0713
3324.00,0.0713
3323.00,0.0713
3322.00,0.0713
3321.00,0.0712
3320.00,0.0711
3319.00,0.0710
3318.00,0.0709
3317.00,0.0708
3316.00,0.0707
3315.00,0.0705
3314.00,0.0704
3313.00,0.0702
3312.00,0.0700
3311.00,0.0697
3310.00,0.0694
3309.00,0.0690
3308.00,0.0688
3307.00,0.0686
3306.00,0.0685
3305.00,0.0686
3304.00,0.0688
3303.00,0.0690
3302.00,0.0691
3301.00,0.0691
3300.00,0.0690
3299.00,0.0688
3298.00,0.0685
3297.00,0.0682
3296.00,0.0680
3295.00,0.0679
3294.00,0.0678
3293.00,0.0677
3292.00,0.0677
3291.00,0.0678
3290.00,0.0679
3289.00,0.0679
3288.00,0.0679
3287.00,0.0678
3286.00,0.0676
3285.00,0.0675
3284.00,0.0674
3283.00,0.0672
3282.00,0.0671
3281.00,0.0670
3280.00,0.0668
3279.00,0.0666
3278.00,0.0664
3277.00,0.0662
3276.00,0.0660
3275.00,0.0657
3274.00,0.0655
3273.00,0.0652
3272.00,0.0649
3271.00,0.0648
3270.00,0.0647
3269.00,0.0648
3268.00,0.0648
3267.00,0.0648
3266.00,0.0647
3265.00,0.0646
3264.00,0.0645
3263.00,0.0643
3262.00,0.0641
3261.00,0.0639
3260.00,0.0637
3259.00,0.0635
3258.00,0.0633
3257.00,0.0630
3256.00,0.0628
3255.00,0.0627
3254.00,0.0626
3253.00,0.0625
3252.00,0.0623
3251.00,0.0621
3250.00,0.0619
3249.00,0.0616
3248.00,0.0613
3247.00,0.0612
3246.00,0.0610
3245.00,0.0610
3244.00,0.0608
3243.00,0.0607
3242.00,0.0605
3241.00,0.0604
3240.00,0.0602
3239.00,0.0600
3238.00,0.0598
3237.00,0.0595
3236.00,0.0593
3235.00,0.0590
3234.00,0.0588
3233.00,0.0587
3232.00,0.0586
3231.00,0.0586
3230.00,0.0585
3229.00,0.0583
3228.00,0.0582
3227.00,0.0580
3226.00,0.0578
3225.00,0.0576
3224.00,0.0575
3223.00,0.0573
3222.00,0.0571
3221.00,0.0569
3220.00,0.0567
3219.00,0.0566
3218.00,0.0564
3217.00,0.0563
3216.00,0.0561
3215.00,0.0560
3214.00,0.0558
3213.00,0.0557
3212.00,0.0555
3211.00,0.0553
3210.00,0.0552
3209.00,0.0550
3208.00,0.0548
3207.00,0.0546
3206.00,0.0545
3205.00,0.0543
3204.00,0.0542
3203.00,0.0540
3202.00,0.0539
3201.00,0.0538
3200.00,0.0536
3199.00,0.0535
3198.00,0.0534
3197.00,0.0532
3196.00,0.0531
3195.00,0.0529
3194.00,0.0528
3193.00,0.0526
3192.00,0.0525
3191.00,0.0523
3190.00,0.0522
3189.00,0.0521
3188.00,0.0519
3187.00,0.0518
3186.00,0.0517
3185.00,0.0516
3184.00,0.0515
3183.00,0.0514
3182.00,0.0512
3181.00,0.0511
3180.00,0.0510
3179.00,0.0509
3178.00,0.0508
3177.00,0.0507
3176.00,0.0506
3175.00,0.0504
3174.00,0.0503
3173.00,0.0502
3172.00,0.0501
3171.00,0.0500
3170.00,0.0499
3169.00,0.0498
3168.00,0.0497
3167.00,0.0496
3166.00,0.0495
3165.00,0.0494
3164.00,0.0493
3163.00,0.0492
3162.00,0.0491
3161.00,0.0490
3160.00,0.0489
3159.00,0.0487
3158.00,0.0486
3157.00,0.0485
3156.00,0.0483
3155.00,0.0482
3154.00,0.0480
3153.00,0.0479
3152.00,0.0478
3151.00,0.0478
3150.00,0.0478
3149.00,0.0478
3148.00,0.0477
3147.00,0.0476
3146.00,0.0475
3145.00,0.0474
3144.00,0.0473
3143.00,0.0472
3142.00,0.0471
3141.00,0.0469
3140.00,0.0468
3139.00,0.0468
3138.00,0.0467
3137.00,0.0467
3136.00,0.0467
3135.00,0.0467
3134.00,0.0467
3133.00,0.0466
3132.00,0.0465
3131.00,0.0464
3130.00,0.0463
3129.00,0.0462
3128.00,0.0462
3127.00,0.0461
3126.00,0.0461
3125.00,0.0460
3124.00,0.0459
3123.00,0.0457
3122.00,0.0456
3121.00,0.0454
3120.00,0.0453
3119.00,0.0452
3118.00,0.0451
3117.00,0.0451
3116.00,0.0451
3115.00,0.0451
3114.00,0.0451
3113.00,0.0452
3112.00,0.0451
3111.00,0.0451
3110.00,0.0450
3109.00,0.0449
3108.00,0.0449
3107.00,0.0449
3106.00,0.0449
3105.00,0.0449
3104.00,0.0448
3103.00,0.0447
3102.00,0.0446
3101.00,0.0445
3100.00,0.0445
3099.00,0.0445
3098.00,0.0445
3097.00,0.0445
3096.00,0.0444
3095.00,0.0443
3094.00,0.0442
3093.00,0.0441
3092.00,0.0440
3091.00,0.0439
3090.00,0.0438
3089.00,0.0437
3088.00,0.0437
3087.00,0.0436
3086.00,0.0435
3085.00,0.0434
3084.00,0.0433
3083.00,0.0433
3082.00,0.0432
3081.00,0.0431
3080.00,0.0430
3079.00,0.0430
3078.00,0.0430
3077.00,0.0430
3076.00,0.0431
3075.00,0.0431
3074.00,0.0431
3073.00,0.0431
3072.00,0.0431
3071.00,0.0430
3070.00,0.0429
3069.00,0.0428
3068.00,0.0427
3067.00,0.0427
3066.00,0.0427
3065.00,0.0427
3064.00,0.0427
3063.00,0.0427
3062.00,0.0427
3061.00,0.0426
3060.00,0.0426
3059.00,0.0425
3058.00,0.0425
3057.00,0.0425
3056.00,0.0425
3055.00,0.0424
3054.00,0.0424
3053.00,0.0423
3052.00,0.0423
3051.00,0.0423
3050.00,0.0422
3049.00,0.0422
3048.00,0.0422
3047.00,0.0421
3046.00,0.0420
3045.00,0.0420
3044.00,0.0419
3043.00,0.0419
3042.00,0.0419
3041.00,0.0419
3040.00,0.0420
3039.00,0.0420
3038.00,0.0420
3037.00,0.0420
3036.00,0.0420
3035.00,0.0419
3034.00,0.0419
3033.00,0.0420
3032.00,0.0421
3031.00,0.0421
3030.00,0.0421
3029.00,0.0422
3028.00,0.0422
3027.00,0.0422
3026.00,0.0422
3025.00,0.0423
3024.00,0.0424
3023.00,0.0424
3022.00,0.0425
3021.00,0.0426
3020.00,0.0426
3019.00,0.0427
3018.00,0.0427
3017.00,0.0428
3016.00,0.0430
3015.00,0.0431
3014.00,0.0433
3013.00,0.0436
3012.00,0.0439
3011.00,0.0442
3010.00,0.0446
3009.00,0.0450
3008.00,0.0454
3007.00,0.0459
3006.00,0.0463
3005.00,0.0467
3004.00,0.0471
3003.00,0.0476
3002.00,0.0481
3001.00,0.0486
3000.00,0.0491
2999.00,0.0497
2998.00,0.0503
2997.00,0.0509
2996.00,0.0516
2995.00,0.0522
2994.00,0.0529
2993.00,0.0535
2992.00,0.0543
2991.00,0.0550
2990.00,0.0558
2989.00,0.0565
2988.00,0.0572
2987.00,0.0578
2986.00,0.0585
2985.00,0.0591
2984.00,0.0596
2983.00,0.0601
2982.00,0.0606
2981.00,0.0611
2980.00,0.0616
2979.00,0.0621
2978.00,0.0626
2977.00,0.0631
2976.00,0.0636
2975.00,0.0641
2974.00,0.0646
2973.00,0.0651
2972.00,0.0656
2971.00,0.0661
2970.00,0.0666
2969.00,0.0671
2968.00,0.0676
2967.00,0.0681
2966.00,0.0685
2965.00,0.0690
2964.00,0.0694
2963.00,0.0698
2962.00,0.0703
2961.00,0.0707
2960.00,0.0710
2959.00,0.0714
2958.00,0.0716
2957.00,0.0718
2956.00,0.0720
2955.00,0.0721
2954.00,0.0721
2953.00,0.0722
2952.00,0.0722
2951.00,0.0721
2950.00,0.0720
2949.00,0.0718
2948.00,0.0715
2947.00,0.0711
2946.00,0.0708
2945.00,0.0704
2944.00,0.0701
2943.00,0.0698
2942.00,0.0695
2941.00,0.0692
2940.00,0.0690
2939.00,0.0687
2938.00,0.0685
2937.00,0.0683
2936.00,0.0682
2935.00,0.0682
2934.00,0.0681
2933.00,0.0681
2932.00,0.0681
2931.00,0.0682
2930.00,0.0683
2929.00,0.0685
2928.00,0.0687
2927.00,0.0689
2926.00,0.0690
2925.00,0.0692
2924.00,0.0692
2923.00,0.0693
2922.00,0.0692
2921.00,0.0691
2920.00,0.0689
2919.00,0.0686
2918.00,0.0682
2917.00,0.0678
2916.00,0.0674
2915.00,0.0669
2914.00,0.0664
2913.00,0.0660
2912.00,0.0655
2911.00,0.0651
2910.00,0.0647
2909.00,0.0642
2908.00,0.0638
2907.00,0.0634
2906.00,0.0631
2905.00,0.0628
2904.00,0.0627
2903.00,0.0625
2902.00,0.0625
2901.00,0.0625
2900.00,0.0625
2899.00,0.0625
2898.00,0.0625
2897.00,0.0625
2896.00,0.0626
2895.00,0.0628
2894.00,0.0629
2893.00,0.0630
2892.00,0.0630
2891.00,0.0630
2890.00,0.0631
2889.00,0.0631
2888.00,0.0630
2887.00,0.0630
2886.00,0.0630
2885.00,0.0629
2884.00,0.0629
2883.00,0.0628
2882.00,0.0627
2881.00,0.0626
2880.00,0.0625
2879.00,0.0624
2878.00,0.0622
2877.00,0.0620
2876.00,0.0617
2875.00,0.0613
2874.00,0.0610
2873.00,0.0609
2872.00,0.0607
2871.00,0.0606
2870.00,0.0604
2869.00,0.0602
2868.00,0.0599
2867.00,0.0596
2866.00,0.0594
2865.00,0.0591
2864.00,0.0588
2863.00,0.0584
2862.00,0.0580
2861.00,0.0576
2860.00,0.0572
2859.00,0.0569
2858.00,0.0565
2857.00,0.0560
2856.00,0.0555
2855.00,0.0550
2854.00,0.0544
2853.00,0.0538
2852.00,0.0532
2851.00,0.0526
2850.00,0.0520
2849.00,0.0514
2848.00,0.0508
2847.00,0.0502
2846.00,0.0497
2845.00,0.0493
2844.00,0.0488
2843.00,0.0483
2842.00,0.0478
2841.00,0.0473
2840.00,0.0468
2839.00,0.0464
2838.00,0.0461
2837.00,0.0459
2836.00,0.0456
2835.00,0.0454
2834.00,0.0451
2833.00,0.0448
2832.00,0.0445
2831.00,0.0442
2830.00,0.0439
2829.00,0.0436
2828.00,0.0433
2827.00,0.0430
2826.00,0.0427
2825.00,0.0424
2824.00,0.0421
2823.00,0.0418
2822.00,0.0415
2821.00,0.0413
2820.00,0.0411
2819.00,0.0409
2818.00,0.0407
2817.00,0.0405
2816.00,0.0404
2815.00,0.0402
2814.00,0.0400
2813.00,0.0399
2812.00,0.0397
2811.00,0.0395
2810.00,0.0394
2809.00,0.0393
2808.00,0.0392
2807.00,0.0392
2806.00,0.0391
2805.00,0.0390
2804.00,0.0389
2803.00,0.0388
2802.00,0.0387
2801.00,0.0386
2800.00,0.0385
2799.00,0.0384
2798.00,0.0383
2797.00,0.0382
2796.00,0.0382
2795.00,0.0381
2794.00,0.0381
2793.00,0.0380
2792.00,0.0379
2791.00,0.0379
2790.00,0.0378
2789.00,0.0377
2788.00,0.0377
2787.00,0.0377
2786.00,0.0377
2785.00,0.0377
2784.00,0.0376
2783.00,0.0376
2782.00,0.0375
2781.00,0.0374
2780.00,0.0374
2779.00,0.0373
2778.00,0.0372
2777.00,0.0371
2776.00,0.0371
2775.00,0.0370
2774.00,0.0370
2773.00,0.0369
2772.00,0.0369
2771.00,0.0369
2770.00,0.0369
2769.00,0.0368
2768.00,0.0368
2767.00,0.0367
2766.00,0.0367
2765.00,0.0366
2764.00,0.0366
2763.00,0.0366
2762.00,0.0365
2761.00,0.0365
2760.00,0.0365
2759.00,0.0364
2758.00,0.0364
2757.00,0.0364
2756.00,0.0364
2755.00,0.0363
2754.00,0.0363
2753.00,0.0363
2752.00,0.0362
2751.00,0.0362
2750.00,0.0361
2749.00,0.0361
2748.00,0.0361
2747.00,0.0361
2746.00,0.0361
2745.00,0.0361
2744.00,0.0360
2743.00,0.0360
2742.00,0.0360
2741.00,0.0360
2740.00,0.0360
2739.00,0.0359
2738.00,0.0359
2737.00,0.0359
2736.00,0.0359
2735.00,0.0359
2734.00,0.0358
2733.00,0.0358
2732.00,0.0358
2731.00,0.0357
2730.00,0.0357
2729.00,0.0357
2728.00,0.0356
2727.00,0.0356
2726.00,0.0356
2725.00,0.0355
2724.00,0.0355
2723.00,0.0355
2722.00,0.0355
2721.00,0.0354
2720.00,0.0354
2719.00,0.0354
2718.00,0.0354
2717.00,0.0354
2716.00,0.0353
2715.00,0.0353
2714.00,0.0353
2713.00,0.0352
2712.00,0.0352
2711.00,0.0352
2710.00,0.0351
2709.00,0.0351
2708.00,0.0351
2707.00,0.0351
2706.00,0.0350
2705.00,0.0350
2704.00,0.0350
2703.00,0.0349
2702.00,0.0349
2701.00,0.0348
2700.00,0.0348
2699.00,0.0347
2698.00,0.0347
2697.00,0.0347
2696.00,0.0347
2695.00,0.0346
2694.00,0.0346
2693.00,0.0346
2692.00,0.0346
2691.00,0.0345
2690.00,0.0345
2689.00,0.0344
2688.00,0.0344
2687.00,0.0344
2686.00,0.0344
2685.00,0.0344
2684.00,0.0343
2683.00,0.0343
2682.00,0.0342
2681.00,0.0342
2680.00,0.0341
2679.00,0.0341
2678.00,0.0341
2677.00,0.0341
2676.00,0.0341
2675.00,0.0341
2674.00,0.0341
2673.00,0.0341
2672.00,0.0340
2671.00,0.0340
2670.00,0.0340
2669.00,0.0340
2668.00,0.0340
2667.00,0.0340
2666.00,0.0341
2665.00,0.0341
2664.00,0.0341
2663.00,0.0341
2662.00,0.0341
2661.00,0.0341
2660.00,0.0341
2659.00,0.0341
2658.00,0.0341
2657.00,0.0340
2656.00,0.0340
2655.00,0.0340
2654.00,0.0340
2653.00,0.0340
2652.00,0.0340
2651.00,0.0340
2650.00,0.0339
2649.00,0.0339
2648.00,0.0339
2647.00,0.0339
2646.00,0.0338
2645.00,0.0338
2644.00,0.0338
2643.00,0.0338
2642.00,0.0337
2641.00,0.0337
2640.00,0.0336
2639.00,0.0336
2638.00,0.0336
2637.00,0.0336
2636.00,0.0335
2635.00,0.0335
2634.00,0.0335
2633.00,0.0335
2632.00,0.0335
2631.00,0.0335
2630.00,0.0335
2629.00,0.0334
2628.00,0.0334
2627.00,0.0334
2626.00,0.0334
2625.00,0.0333
2624.00,0.0333
2623.00,0.0333
2622.00,0.0333
2621.00,0.0332
2620.00,0.0332
2619.00,0.0332
2618.00,0.0332
2617.00,0.0332
2616.00,0.0331
2615.00,0.0331
2614.00,0.0330
2613.00,0.0330
2612.00,0.0329
2611.00,0.0329
2610.00,0.0329
2609.00,0.0330
2608.00,0.0330
2607.00,0.0329
2606.00,0.0329
2605.00,0.0329
2604.00,0.0329
2603.00,0.0329
2602.00,0.0329
2601.00,0.0329
2600.00,0.0329
2599.00,0.0328
2598.00,0.0328
2597.00,0.0328
2596.00,0.0328
2595.00,0.0327
2594.00,0.0327
2593.00,0.0327
2592.00,0.0326
2591.00,0.0326
2590.00,0.0326
2589.00,0.0326
2588.00,0.0326
2587.00,0.0326
2586.00,0.0326
2585.00,0.0326
2584.00,0.0326
2583.00,0.0326
2582.00,0.0325
2581.00,0.0325
2580.00,0.0325
2579.00,0.0324
2578.00,0.0324
2577.00,0.0324
2576.00,0.0324
2575.00,0.0323
2574.00,0.0323
2573.00,0.0323
2572.00,0.0323
2571.00,0.0323
2570.00,0.0322
2569.00,0.0322
2568.00,0.0322
2567.00,0.0322
2566.00,0.0322
2565.00,0.0321
2564.00,0.0321
2563.00,0.0321
2562.00,0.0320
2561.00,0.0320
2560.00,0.0320
2559.00,0.0319
2558.00,0.0319
2557.00,0.0318
2556.00,0.0318
2555.00,0.0318
2554.00,0.0318
2553.00,0.0318
2552.00,0.0317
2551.00,0.0317
2550.00,0.0317
2549.00,0.0317
2548.00,0.0317
2547.00,0.0317
2546.00,0.0316
2545.00,0.0316
2544.00,0.0315
2543.00,0.0315
2542.00,0.0314
2541.00,0.0314
2540.00,0.0314
2539.00,0.0314
2538.00,0.0313
2537.00,0.0313
2536.00,0.0313
2535.00,0.0313
2534.00,0.0312
2533.00,0.0312
2532.00,0.0311
2531.00,0.0311
2530.00,0.0311
2529.00,0.0311
2528.00,0.0311
2527.00,0.0311
2526.00,0.0310
2525.00,0.0310
2524.00,0.0310
2523.00,0.0309
2522.00,0.0309
2521.00,0.0308
2520.00,0.0308
2519.00,0.0308
2518.00,0.0308
2517.00,0.0308
2516.00,0.0308
2515.00,0.0308
2514.00,0.0308
2513.00,0.0308
2512.00,0.0308
2511.00,0.0308
2510.00,0.0308
2509.00,0.0308
2508.00,0.0308
2507.00,0.0307
2506.00,0.0307
2505.00,0.0307
2504.00,0.0306
2503.00,0.0306
2502.00,0.0306
2501.00,0.0306
2500.00,0.0306
2499.00,0.0305
2498.00,0.0305
2497.00,0.0305
2496.00,0.0305
2495.00,0.0305
2494.00,0.0305
2493.00,0.0304
2492.00,0.0304
2491.00,0.0304
2490.00,0.0303
2489.00,0.0303
2488.00,0.0302
2487.00,0.0302
2486.00,0.0302
2485.00,0.0302
2484.00,0.0301
2483.00,0.0301
2482.00,0.0301
2481.00,0.0301
2480.00,0.0301
2479.00,0.0300
2478.00,0.0300
2477.00,0.0300
2476.00,0.0300
2475.00,0.0299
2474.00,0.0299
2473.00,0.0299
2472.00,0.0299
2471.00,0.0299
2470.00,0.0298
2469.00,0.0298
2468.00,0.0298
2467.00,0.0298
2466.00,0.0297
2465.00,0.0297
2464.00,0.0297
2463.00,0.0297
2462.00,0.0297
2461.00,0.0297
2460.00,0.0297
2459.00,0.0297
2458.00,0.0297
2457.00,0.0297
2456.00,0.0298
2455.00,0.0298
2454.00,0.0297
2453.00,0.0297
2452.00,0.0297
2451.00,0.0296
2450.00,0.0295
2449.00,0.0295
2448.00,0.0295
2447.00,0.0295
2446.00,0.0295
2445.00,0.0295
2444.00,0.0295
2443.00,0.0295
2442.00,0.0295
2441.00,0.0295
2440.00,0.0295
2439.00,0.0294
2438.00,0.0294
2437.00,0.0294
2436.00,0.0293
2435.00,0.0293
2434.00,0.0293
2433.00,0.0292
2432.00,0.0292
2431.00,0.0292
2430.00,0.0292
2429.00,0.0292
2428.00,0.0292
2427.00,0.0292
2426.00,0.0292
2425.00,0.0291
2424.00,0.0291
2423.00,0.0291
2422.00,0.0291
2421.00,0.0290
2420.00,0.0290
2419.00,0.0290
2418.00,0.0290
2417.00,0.0290
2416.00,0.0290
2415.00,0.0291
2414.00,0.0291
2413.00,0.0290
2412.00,0.0290
2411.00,0.0290
2410.00,0.0289
2409.00,0.0289
2408.00,0.0289
2407.00,0.0289
2406.00,0.0289
2405.00,0.0289
2404.00,0.0289
2403.00,0.0289
2402.00,0.0288
2401.00,0.0288
2400.00,0.0288
2399.00,0.0288
2398.00,0.0288
2397.00,0.0287
2396.00,0.0287
2395.00,0.0287
2394.00,0.0286
2393.00,0.0286
2392.00,0.0286
2391.00,0.0286
2390.00,0.0285
2389.00,0.0285
2388.00,0.0285
2387.00,0.0284
2386.00,0.0283
2385.00,0.0283
2384.00,0.0282
2383.00,0.0282
2382.00,0.0281
2381.00,0.0281
2380.00,0.0281
2379.00,0.0280
2378.00,0.0280
2377.00,0.0280
2376.00,0.0280
2375.00,0.0279
2374.00,0.0278
2373.00,0.0278
2372.00,0.0277
2371.00,0.0276
2370.00,0.0275
2369.00,0.0274
2368.00,0.0274
2367.00,0.0275
2366.00,0.0275
2365.00,0.0275
2364.00,0.0276
2363.00,0.0276
2362.00,0.0276
2361.00,0.0276
2360.00,0.0276
2359.00,0.0276
2358.00,0.0275
2357.00,0.0275
2356.00,0.0275
2355.00,0.0275
2354.00,0.0275
2353.00,0.0276
2352.00,0.0275
2351.00,0.0275
2350.00,0.0274
2349.00,0.0274
2348.00,0.0275
2347.00,0.0276
2346.00,0.0276
2345.00,0.0275
2344.00,0.0273
2343.00,0.0272
2342.00,0.0272
2341.00,0.0273
2340.00,0.0274
2339.00,0.0275
2338.00,0.0275
2337.00,0.0275
2336.00,0.0275
2335.00,0.0275
2334.00,0.0275
2333.00,0.0276
2332.00,0.0276
2331.00,0.0275
2330.00,0.0275
2329.00,0.0276
2328.00,0.0278
2327.00,0.0281
2326.00,0.0283
2325.00,0.0283
2324.00,0.0282
2323.00,0.0279
2322.00,0.0278
2321.00,0.0276
2320.00,0.0275
2319.00,0.0275
2318.00,0.0274
2317.00,0.0274
2316.00,0.0275
2315.00,0.0275
2314.00,0.0275
2313.00,0.0275
2312.00,0.0274
2311.00,0.0273
2310.00,0.0272
2309.00,0.0271
2308.00,0.0271
2307.00,0.0270
2306.00,0.0270
2305.00,0.0270
2304.00,0.0271
2303.00,0.0271
2302.00,0.0271
2301.00,0.0271
2300.00,0.0271
2299.00,0.0271
2298.00,0.0271
2297.00,0.0272
2296.00,0.0272
2295.00,0.0273
2294.00,0.0273
2293.00,0.0274
2292.00,0.0274
2291.00,0.0275
2290.00,0.0276
2289.00,0.0276
2288.00,0.0277
2287.00,0.0277
2286.00,0.0276
2285.00,0.0276
2284.00,0.0275
2283.00,0.0275
2282.00,0.0274
2281.00,0.0274
2280.00,0.0274
2279.00,0.0273
2278.00,0.0273
2277.00,0.0273
2276.00,0.0273
2275.00,0.0273
2274.00,0.0273
2273.00,0.0273
2272.00,0.0273
2271.00,0.0273
2270.00,0.0272
2269.00,0.0272
2268.00,0.0271
2267.00,0.0271
2266.00,0.0270
2265.00,0.0270
2264.00,0.0270
2263.00,0.0270
2262.00,0.0270
2261.00,0.0271
2260.00,0.0271
2259.00,0.0271
2258.00,0.0270
2257.00,0.0269
2256.00,0.0268
2255.00,0.0268
2254.00,0.0267
2253.00,0.0267
2252.00,0.0267
2251.00,0.0268
2250.00,0.0268
2249.00,0.0268
2248.00,0.0268
2247.00,0.0268
2246.00,0.0268
2245.00,0.0268
2244.00,0.0268
2243.00,0.0268
2242.00,0.0268
2241.00,0.0267
2240.00,0.0267
2239.00,0.0267
2238.00,0.0266
2237.00,0.0266
2236.00,0.0266
2235.00,0.0267
2234.00,0.0267
2233.00,0.0267
2232.00,0.0268
2231.00,0.0268
2230.00,0.0267
2229.00,0.0267
2228.00,0.0267
2227.00,0.0267
2226.00,0.0267
2225.00,0.0266
2224.00,0.0266
2223.00,0.0266
2222.00,0.0266
2221.00,0.0266
2220.00,0.0267
2219.00,0.0267
2218.00,0.0267
2217.00,0.0266
2216.00,0.0266
2215.00,0.0266
2214.00,0.0265
2213.00,0.0265
2212.00,0.0265
2211.00,0.0266
2210.00,0.0266
2209.00,0.0267
2208.00,0.0267
2207.00,0.0267
2206.00,0.0266
2205.00,0.0265
2204.00,0.0265
2203.00,0.0266
2202.00,0.0266
2201.00,0.0267
2200.00,0.0268
2199.00,0.0268
2198.00,0.0268
2197.00,0.0267
2196.00,0.0267
2195.00,0.0268
2194.00,0.0268
2193.00,0.0269
2192.00,0.0269
2191.00,0.0270
2190.00,0.0270
2189.00,0.0270
2188.00,0.0271
2187.00,0.0270
2186.00,0.0269
2185.00,0.0267
2184.00,0.0266
2183.00,0.0265
2182.00,0.0264
2181.00,0.0264
2180.00,0.0265
2179.00,0.0265
2178.00,0.0264
2177.00,0.0262
2176.00,0.0262
2175.00,0.0263
2174.00,0.0264
2173.00,0.0266
2172.00,0.0268
2171.00,0.0270
2170.00,0.0271
2169.00,0.0272
2168.00,0.0273
2167.00,0.0273
2166.00,0.0273
2165.00,0.0274
2164.00,0.0276
2163.00,0.0275
2162.00,0.0268
2161.00,0.0258
2160.00,0.0247
2159.00,0.0240
2158.00,0.0239
2157.00,0.0241
2156.00,0.0245
2155.00,0.0247
2154.00,0.0247
2153.00,0.0248
2152.00,0.0249
2151.00,0.0249
2150.00,0.0248
2149.00,0.0248
2148.00,0.0248
2147.00,0.0248
2146.00,0.0247
2145.00,0.0248
2144.00,0.0248
2143.00,0.0248
2142.00,0.0247
2141.00,0.0247
2140.00,0.0246
2139.00,0.0245
2138.00,0.0243
2137.00,0.0242
2136.00,0.0241
2135.00,0.0240
2134.00,0.0240
2133.00,0.0241
2132.00,0.0243
2131.00,0.0244
2130.00,0.0244
2129.00,0.0245
2128.00,0.0246
2127.00,0.0246
2126.00,0.0246
2125.00,0.0246
2124.00,0.0247
2123.00,0.0248
2122.00,0.0248
2121.00,0.0249
2120.00,0.0249
2119.00,0.0249
2118.00,0.0249
2117.00,0.0250
2116.00,0.0250
2115.00,0.0250
2114.00,0.0249
2113.00,0.0248
2112.00,0.0248
2111.00,0.0247
2110.00,0.0247
2109.00,0.0247
2108.00,0.0247
2107.00,0.0246
2106.00,0.0246
2105.00,0.0245
2104.00,0.0245
2103.00,0.0245
2102.00,0.0244
2101.00,0.0244
2100.00,0.0243
2099.00,0.0242
2098.00,0.0241
2097.00,0.0239
2096.00,0.0239
2095.00,0.0238
2094.00,0.0238
2093.00,0.0238
2092.00,0.0239
2091.00,0.0239
2090.00,0.0240
2089.00,0.0240
2088.00,0.0240
2087.00,0.0239
2086.00,0.0238
2085.00,0.0238
2084.00,0.0238
2083.00,0.0238
2082.00,0.0238
2081.00,0.0238
2080.00,0.0238
2079.00,0.0239
2078.00,0.0238
2077.00,0.0238
2076.00,0.0238
2075.00,0.0237
2074.00,0.0236
2073.00,0.0236
2072.00,0.0236
2071.00,0.0235
2070.00,0.0235
2069.00,0.0234
2068.00,0.0234
2067.00,0.0233
2066.00,0.0232
2065.00,0.0232
2064.00,0.0233
2063.00,0.0233
2062.00,0.0232
2061.00,0.0231
2060.00,0.0231
2059.00,0.0232
2058.00,0.0231
2057.00,0.0231
2056.00,0.0230
2055.00,0.0231
2054.00,0.0232
2053.00,0.0235
2052.00,0.0237
2051.00,0.0236
2050.00,0.0232
2049.00,0.0229
2048.00,0.0227
2047.00,0.0227
2046.00,0.0227
2045.00,0.0228
2044.00,0.0229
2043.00,0.0230
2042.00,0.0229
2041.00,0.0229
2040.00,0.0229
2039.00,0.0230
2038.00,0.0230
2037.00,0.0230
2036.00,0.0230
2035.00,0.0228
2034.00,0.0225
2033.00,0.0223
2032.00,0.0223
2031.00,0.0222
2030.00,0.0220
2029.00,0.0219
2028.00,0.0219
2027.00,0.0219
2026.00,0.0219
2025.00,0.0220
2024.00,0.0221
2023.00,0.0223
2022.00,0.0223
2021.00,0.0224
2020.00,0.0224
2019.00,0.0224
2018.00,0.0222
2017.00,0.0221
2016.00,0.0222
2015.00,0.0221
2014.00,0.0220
2013.00,0.0220
2012.00,0.0221
2011.00,0.0220
2010.00,0.0219
2009.00,0.0217
2008.00,0.0215
2007.00,0.0213
2006.00,0.0212
2005.00,0.0212
2004.00,0.0213
2003.00,0.0213
2002.00,0.0213
2001.00,0.0213
2000.00,0.0214
1999.00,0.0213
1998.00,0.0213
1997.00,0.0213
1996.00,0.0214
1995.00,0.0215
1994.00,0.0216
1993.00,0.0217
1992.00,0.0218
1991.00,0.0219
1990.00,0.0218
1989.00,0.0218
1988.00,0.0219
1987.00,0.0219
1986.00,0.0218
1985.00,0.0219
1984.00,0.0221
1983.00,0.0223
1982.00,0.0223
1981.00,0.0223
1980.00,0.0220
1979.00,0.0215
1978.00,0.0210
1977.00,0.0207
1976.00,0.0208
1975.00,0.0208
1974.00,0.0207
1973.00,0.0207
1972.00,0.0207
1971.00,0.0208
1970.00,0.0207
1969.00,0.0208
1968.00,0.0209
1967.00,0.0209
1966.00,0.0208
1965.00,0.0207
1964.00,0.0207
1963.00,0.0206
1962.00,0.0203
1961.00,0.0200
1960.00,0.0199
1959.00,0.0199
1958.00,0.0200
1957.00,0.0201
1956.00,0.0203
1955.00,0.0203
1954.00,0.0202
1953.00,0.0202
1952.00,0.0201
1951.00,0.0200
1950.00,0.0199
1949.00,0.0199
1948.00,0.0200
1947.00,0.0200
1946.00,0.0200
1945.00,0.0200
1944.00,0.0201
1943.00,0.0201
1942.00,0.0200
1941.00,0.0199
1940.00,0.0198
1939.00,0.0198
1938.00,0.0197
1937.00,0.0197
1936.00,0.0197
1935.00,0.0197
1934.00,0.0197
1933.00,0.0197
1932.00,0.0197
1931.00,0.0197
1930.00,0.0196
1929.00,0.0196
1928.00,0.0196
1927.00,0.0196
1926.00,0.0196
1925.00,0.0196
1924.00,0.0196
1923.00,0.0196
1922.00,0.0195
1921.00,0.0195
1920.00,0.0195
1919.00,0.0195
1918.00,0.0194
1917.00,0.0194
1916.00,0.0194
1915.00,0.0194
1914.00,0.0194
1913.00,0.0193
1912.00,0.0193
1911.00,0.0193
1910.00,0.0193
1909.00,0.0193
1908.00,0.0193
1907.00,0.0193
1906.00,0.0192
1905.00,0.0191
1904.00,0.0190
1903.00,0.0190
1902.00,0.0189
1901.00,0.0189
1900.00,0.0189
1899.00,0.0189
1898.00,0.0189
1897.00,0.0189
1896.00,0.0190
1895.00,0.0190
1894.00,0.0189
1893.00,0.0189
1892.00,0.0190
1891.00,0.0190
1890.00,0.0189
1889.00,0.0188
1888.00,0.0188
1887.00,0.0188
1886.00,0.0187
1885.00,0.0187
1884.00,0.0187
1883.00,0.0187
1882.00,0.0187
1881.00,0.0187
1880.00,0.0187
1879.00,0.0186
1878.00,0.0186
1877.00,0.0185
1876.00,0.0186
1875.00,0.0186
1874.00,0.0186
1873.00,0.0186
1872.00,0.0187
1871.00,0.0187
1870.00,0.0186
1869.00,0.0186
1868.00,0.0186
1867.00,0.0186
1866.00,0.0185
1865.00,0.0185
1864.00,0.0185
1863.00,0.0185
1862.00,0.0184
1861.00,0.0184
1860.00,0.0184
1859.00,0.0184
1858.00,0.0183
1857.00,0.0183
1856.00,0.0184
1855.00,0.0184
1854.00,0.0183
1853.00,0.0183
1852.00,0.0183
1851.00,0.0184
1850.00,0.0184
1849.00,0.0184
1848.00,0.0185
1847.00,0.0185
1846.00,0.0184
1845.00,0.0184
1844.00,0.0183
1843.00,0.0182
1842.00,0.0182
1841.00,0.0182
1840.00,0.0183
1839.00,0.0183
1838.00,0.0182
1837.00,0.0182
1836.00,0.0182
1835.00,0.0182
1834.00,0.0181
1833.00,0.0181
1832.00,0.0181
1831.00,0.0181
1830.00,0.0181
1829.00,0.0180
1828.00,0.0180
1827.00,0.0181
1826.00,0.0180
1825.00,0.0180
1824.00,0.0180
1823.00,0.0180
1822.00,0.0179
1821.00,0.0178
1820.00,0.0177
1819.00,0.0176
1818.00,0.0175
1817.00,0.0174
1816.00,0.0175
1815.00,0.0175
1814.00,0.0176
1813.00,0.0176
1812.00,0.0177
1811.00,0.0176
1810.00,0.0176
1809.00,0.0175
1808.00,0.0175
1807.00,0.0175
1806.00,0.0174
1805.00,0.0174
1804.00,0.0175
1803.00,0.0175
1802.00,0.0175
1801.00,0.0175
1800.00,0.0176
1799.00,0.0176
1798.00,0.0175
1797.00,0.0176
1796.00,0.0176
1795.00,0.0176
1794.00,0.0176
1793.00,0.0175
1792.00,0.0175
1791.00,0.0175
1790.00,0.0174
1789.00,0.0175
1788.00,0.0175
1787.00,0.0175
1786.00,0.0174
1785.00,0.0174
1784.00,0.0174
1783.00,0.0175
1782.00,0.0175
1781.00,0.0175
1780.00,0.0176
1779.00,0.0176
1778.00,0.0175
1777.00,0.0176
1776.00,0.0176
1775.00,0.0177
1774.00,0.0177
1773.00,0.0176
1772.00,0.0177
1771.00,0.0177
1770.00,0.0177
1769.00,0.0178
1768.00,0.0179
1767.00,0.0178
1766.00,0.0178
1765.00,0.0178
1764.00,0.0178
1763.00,0.0178
1762.00,0.0177
1761.00,0.0177
1760.00,0.0178
1759.00,0.0180
1758.00,0.0180
1757.00,0.0180
1756.00,0.0181
1755.00,0.0181
1754.00,0.0182
1753.00,0.0183
1752.00,0.0185
1751.00,0.0186
1750.00,0.0187
1749.00,0.0188
1748.00,0.0189
1747.00,0.0189
1746.00,0.0189
1745.00,0.0189
1744.00,0.0190
1743.00,0.0190
1742.00,0.0189
1741.00,0.0189
1740.00,0.0190
1739.00,0.0191
1738.00,0.0191
1737.00,0.0192
1736.00,0.0194
1735.00,0.0196
1734.00,0.0196
1733.00,0.0198
1732.00,0.0201
1731.00,0.0204
1730.00,0.0205
1729.00,0.0206
1728.00,0.0207
1727.00,0.0209
1726.00,0.0210
1725.00,0.0212
1724.00,0.0216
1723.00,0.0219
1722.00,0.0221
1721.00,0.0223
1720.00,0.0227
1719.00,0.0232
1718.00,0.0236
1717.00,0.0241
1716.00,0.0247
1715.00,0.0252
1714.00,0.0257
1713.00,0.0263
1712.00,0.0271
1711.00,0.0278
1710.00,0.0286
1709.00,0.0295
1708.00,0.0307
1707.00,0.0321
1706.00,0.0337
1705.00,0.0355
1704.00,0.0373
1703.00,0.0389
1702.00,0.0408
1701.00,0.0441
1700.00,0.0488
1699.00,0.0531
1698.00,0.0566
1697.00,0.0608
1696.00,0.0666
1695.00,0.0729
1694.00,0.0786
1693.00,0.0837
1692.00,0.0892
1691.00,0.0954
1690.00,0.1022
1689.00,0.1093
1688.00,0.1157
1687.00,0.1214
1686.00,0.1276
1685.00,0.1370
1684.00,0.1495
1683.00,0.1605
1682.00,0.1681
1681.00,0.1744
1680.00,0.1810
1679.00,0.1875
1678.00,0.1934
1677.00,0.1996
1676.00,0.2079
1675.00,0.2176
1674.00,0.2260
1673.00,0.2321
1672.00,0.2373
1671.00,0.2434
1670.00,0.2514
1669.00,0.2605
1668.00,0.2685
1667.00,0.2741
1666.00,0.2778
1665.00,0.2815
1664.00,0.2868
1663.00,0.2941
1662.00,0.3016
1661.00,0.3078
1660.00,0.3125
1659.00,0.3161
1658.00,0.3186
1657.00,0.3197
1656.00,0.3196
1655.00,0.3199
1654.00,0.3247
1653.00,0.3352
1652.00,0.3429
1651.00,0.3428
1650.00,0.3381
1649.00,0.3325
1648.00,0.3286
1647.00,0.3265
1646.00,0.3241
1645.00,0.3196
1644.00,0.3129
1643.00,0.3049
1642.00,0.2960
1641.00,0.2869
1640.00,0.2776
1639.00,0.2681
1638.00,0.2583
1637.00,0.2485
1636.00,0.2392
1635.00,0.2304
1634.00,0.2217
1633.00,0.2127
1632.00,0.2036
1631.00,0.1948
1630.00,0.1863
1629.00,0.1782
1628.00,0.1707
1627.00,0.1637
1626.00,0.1571
1625.00,0.1508
1624.00,0.1448
1623.00,0.1392
1622.00,0.1342
1621.00,0.1292
1620.00,0.1244
1619.00,0.1197
1618.00,0.1152
1617.00,0.1111
1616.00,0.1074
1615.00,0.1041
1614.00,0.1007
1613.00,0.0972
1612.00,0.0937
1611.00,0.0905
1610.00,0.0875
1609.00,0.0847
1608.00,0.0819
1607.00,0.0793
1606.00,0.0768
1605.00,0.0744
1604.00,0.0721
1603.00,0.0699
1602.00,0.0679
1601.00,0.0659
1600.00,0.0640
1599.00,0.0623
1598.00,0.0607
1597.00,0.0591
1596.00,0.0576
1595.00,0.0562
1594.00,0.0549
1593.00,0.0536
1592.00,0.0524
1591.00,0.0513
1590.00,0.0502
1589.00,0.0491
1588.00,0.0481
1587.00,0.0471
1586.00,0.0462
1585.00,0.0454
1584.00,0.0445
1583.00,0.0438
1582.00,0.0430
1581.00,0.0423
1580.00,0.0416
1579.00,0.0409
1578.00,0.0403
1577.00,0.0396
1576.00,0.0391
1575.00,0.0386
1574.00,0.0382
1573.00,0.0378
1572.00,0.0373
1571.00,0.0369
1570.00,0.0365
1569.00,0.0361
1568.00,0.0358
1567.00,0.0355
1566.00,0.0352
1565.00,0.0348
1564.00,0.0344
1563.00,0.0340
1562.00,0.0336
1561.00,0.0330
1560.00,0.0327
1559.00,0.0328
1558.00,0.0327
1557.00,0.0325
1556.00,0.0323
1555.00,0.0322
1554.00,0.0320
1553.00,0.0319
1552.00,0.0317
1551.00,0.0316
1550.00,0.0315
1549.00,0.0313
1548.00,0.0311
1547.00,0.0309
1546.00,0.0307
1545.00,0.0306
1544.00,0.0304
1543.00,0.0302
1542.00,0.0300
1541.00,0.0300
1540.00,0.0298
1539.00,0.0296
1538.00,0.0295
1537.00,0.0294
1536.00,0.0294
1535.00,0.0293
1534.00,0.0292
1533.00,0.0292
1532.00,0.0291
1531.00,0.0290
1530.00,0.0290
1529.00,0.0289
1528.00,0.0289
1527.00,0.0288
1526.00,0.0288
1525.00,0.0288
1524.00,0.0287
1523.00,0.0287
1522.00,0.0287
1521.00,0.0288
1520.00,0.0289
1519.00,0.0290
1518.00,0.0293
1517.00,0.0296
1516.00,0.0299
1515.00,0.0301
1514.00,0.0303
1513.00,0.0307
1512.00,0.0313
1511.00,0.0319
1510.00,0.0327
1509.00,0.0337
1508.00,0.0351
1507.00,0.0373
1506.00,0.0399
1505.00,0.0424
1504.00,0.0446
1503.00,0.0468
1502.00,0.0493
1501.00,0.0521
1500.00,0.0550
1499.00,0.0581
1498.00,0.0612
1497.00,0.0643
1496.00,0.0669
1495.00,0.0685
1494.00,0.0692
1493.00,0.0691
1492.00,0.0682
1491.00,0.0666
1490.00,0.0645
1489.00,0.0619
1488.00,0.0589
1487.00,0.0556
1486.00,0.0526
1485.00,0.0500
1484.00,0.0477
1483.00,0.0458
1482.00,0.0443
1481.00,0.0433
1480.00,0.0427
1479.00,0.0425
1478.00,0.0428
1477.00,0.0437
1476.00,0.0451
1475.00,0.0469
1474.00,0.0496
1473.00,0.0536
1472.00,0.0588
1471.00,0.0641
1470.00,0.0694
1469.00,0.0751
1468.00,0.0811
1467.00,0.0878
1466.00,0.0955
1465.00,0.1041
1464.00,0.1119
1463.00,0.1173
1462.00,0.1202
1461.00,0.1212
1460.00,0.1204
1459.00,0.1179
1458.00,0.1139
1457.00,0.1086
1456.00,0.1030
1455.00,0.0980
1454.00,0.0939
1453.00,0.0907
1452.00,0.0884
1451.00,0.0873
1450.00,0.0876
1449.00,0.0894
1448.00,0.0928
1447.00,0.0973
1446.00,0.1023
1445.00,0.1077
1444.00,0.1137
1443.00,0.1199
1442.00,0.1261
1441.00,0.1320
1440.00,0.1370
1439.00,0.1410
1438.00,0.1449
1437.00,0.1492
1436.00,0.1531
1435.00,0.1552
1434.00,0.1556
1433.00,0.1554
1432.00,0.1556
1431.00,0.1565
1430.00,0.1586
1429.00,0.1620
1428.00,0.1665
1427.00,0.1713
1426.00,0.1766
1425.00,0.1824
1424.00,0.1878
1423.00,0.1912
1422.00,0.1917
1421.00,0.1895
1420.00,0.1848
1419.00,0.1772
1418.00,0.1677
1417.00,0.1570
1416.00,0.1458
1415.00,0.1342
1414.00,0.1231
1413.00,0.1127
1412.00,0.1034
1411.00,0.0950
1410.00,0.0877
1409.00,0.0816
1408.00,0.0762
1407.00,0.0716
1406.00,0.0677
1405.00,0.0642
1404.00,0.0612
1403.00,0.0586
1402.00,0.0565
1401.00,0.0546
1400.00,0.0530
1399.00,0.0516
1398.00,0.0505
1397.00,0.0496
1396.00,0.0488
1395.00,0.0483
1394.00,0.0480
1393.00,0.0480
1392.00,0.0481
1391.00,0.0484
1390.00,0.0489
1389.00,0.0497
1388.00,0.0507
1387.00,0.0522
1386.00,0.0538
1385.00,0.0555
1384.00,0.0571
1383.00,0.0589
1382.00,0.0608
1381.00,0.0627
1380.00,0.0644
1379.00,0.0661
1378.00,0.0675
1377.00,0.0688
1376.00,0.0698
1375.00,0.0706
1374.00,0.0712
1373.00,0.0714
1372.00,0.0712
1371.00,0.0707
1370.00,0.0700
1369.00,0.0690
1368.00,0.0678
1367.00,0.0663
1366.00,0.0647
1365.00,0.0630
1364.00,0.0611
1363.00,0.0591
1362.00,0.0571
1361.00,0.0552
1360.00,0.0533
1359.00,0.0517
1358.00,0.0502
1357.00,0.0489
1356.00,0.0476
1355.00,0.0465
1354.00,0.0456
1353.00,0.0447
1352.00,0.0439
1351.00,0.0432
1350.00,0.0426
1349.00,0.0420
1348.00,0.0415
1347.00,0.0411
1346.00,0.0408
1345.00,0.0406
1344.00,0.0404
1343.00,0.0404
1342.00,0.0405
1341.00,0.0407
1340.00,0.0410
1339.00,0.0414
1338.00,0.0418
1337.00,0.0424
1336.00,0.0430
1335.00,0.0437
1334.00,0.0446
1333.00,0.0456
1332.00,0.0468
1331.00,0.0482
1330.00,0.0498
1329.00,0.0517
1328.00,0.0538
1327.00,0.0561
1326.00,0.0586
1325.00,0.0613
1324.00,0.0641
1323.00,0.0670
1322.00,0.0697
1321.00,0.0723
1320.00,0.0747
1319.00,0.0766
1318.00,0.0780
1317.00,0.0788
1316.00,0.0789
1315.00,0.0784
1314.00,0.0774
1313.00,0.0759
1312.00,0.0742
1311.00,0.0724
1310.00,0.0708
1309.00,0.0694
1308.00,0.0683
1307.00,0.0677
1306.00,0.0678
1305.00,0.0684
1304.00,0.0699
1303.00,0.0721
1302.00,0.0754
1301.00,0.0797
1300.00,0.0853
1299.00,0.0922
1298.00,0.1004
1297.00,0.1100
1296.00,0.1209
1295.00,0.1326
1294.00,0.1449
1293.00,0.1574
1292.00,0.1695
1291.00,0.1809
1290.00,0.1911
1289.00,0.1996
1288.00,0.2061
1287.00,0.2104
1286.00,0.2123
1285.00,0.2120
1284.00,0.2097
1283.00,0.2061
1282.00,0.2018
1281.00,0.1976
1280.00,0.1943
1279.00,0.1921
1278.00,0.1913
1277.00,0.1917
1276.00,0.1932
1275.00,0.1951
1274.00,0.1970
1273.00,0.1985
1272.00,0.1992
1271.00,0.1986
1270.00,0.1966
1269.00,0.1932
1268.00,0.1885
1267.00,0.1827
1266.00,0.1760
1265.00,0.1688
1264.00,0.1613
1263.00,0.1538
1262.00,0.1464
1261.00,0.1393
1260.00,0.1327
1259.00,0.1264
1258.00,0.1207
1257.00,0.1155
1256.00,0.1108
1255.00,0.1065
1254.00,0.1027
1253.00,0.0994
1252.00,0.0964
1251.00,0.0939
1250.00,0.0917
1249.00,0.0898
1248.00,0.0883
1247.00,0.0872
1246.00,0.0863
1245.00,0.0857
1244.00,0.0855
1243.00,0.0855
1242.00,0.0857
1241.00,0.0862
1240.00,0.0869
1239.00,0.0878
1238.00,0.0889
1237.00,0.0901
1236.00,0.0914
1235.00,0.0928
1234.00,0.0941
1233.00,0.0953
1232.00,0.0964
1231.00,0.0973
1230.00,0.0979
1229.00,0.0983
1228.00,0.0984
1227.00,0.0984
1226.00,0.0982
1225.00,0.0979
1224.00,0.0976
1223.00,0.0972
1222.00,0.0969
1221.00,0.0965
1220.00,0.0961
1219.00,0.0955
1218.00,0.0948
1217.00,0.0940
1216.00,0.0929
1215.00,0.0917
1214.00,0.0903
1213.00,0.0889
1212.00,0.0873
1211.00,0.0857
1210.00,0.0841
1209.00,0.0825
1208.00,0.0809
1207.00,0.0794
1206.00,0.0779
1205.00,0.0765
1204.00,0.0752
1203.00,0.0739
1202.00,0.0727
1201.00,0.0715
1200.00,0.0704
1199.00,0.0693
1198.00,0.0683
1197.00,0.0674
1196.00,0.0665
1195.00,0.0656
1194.00,0.0648
1193.00,0.0641
1192.00,0.0635
1191.00,0.0630
1190.00,0.0625
1189.00,0.0621
1188.00,0.0617
1187.00,0.0614
1186.00,0.0613
1185.00,0.0611
1184.00,0.0611
1183.00,0.0612
1182.00,0.0614
1181.00,0.0617
1180.00,0.0622
1179.00,0.0629
1178.00,0.0636
1177.00,0.0645
1176.00,0.0654
1175.00,0.0664
1174.00,0.0675
1173.00,0.0685
1172.00,0.0693
1171.00,0.0700
1170.00,0.0705
1169.00,0.0707
1168.00,0.0707
1167.00,0.0703
1166.00,0.0697
1165.00,0.0689
1164.00,0.0678
1163.00,0.0667
1162.00,0.0654
1161.00,0.0641
1160.00,0.0628
1159.00,0.0616
1158.00,0.0604
1157.00,0.0593
1156.00,0.0582
1155.00,0.0572
1154.00,0.0563
1153.00,0.0555
1152.00,0.0547
1151.00,0.0539
1150.00,0.0532
1149.00,0.0525
1148.00,0.0517
1147.00,0.0510
1146.00,0.0503
1145.00,0.0497
1144.00,0.0490
1143.00,0.0483
1142.00,0.0476
1141.00,0.0469
1140.00,0.0462
1139.00,0.0455
1138.00,0.0449
1137.00,0.0443
1136.00,0.0439
1135.00,0.0434
1134.00,0.0431
1133.00,0.0429
1132.00,0.0427
1131.00,0.0425
1130.00,0.0425
1129.00,0.0424
1128.00,0.0424
1127.00,0.0425
1126.00,0.0426
1125.00,0.0427
1124.00,0.0428
1123.00,0.0428
1122.00,0.0428
1121.00,0.0429
1120.00,0.0429
1119.00,0.0430
1118.00,0.0431
1117.00,0.0431
1116.00,0.0431
1115.00,0.0431
1114.00,0.0432
1113.00,0.0432
1112.00,0.0432
1111.00,0.0431
1110.00,0.0432
1109.00,0.0432
1108.00,0.0432
1107.00,0.0432
1106.00,0.0432
1105.00,0.0432
1104.00,0.0432
1103.00,0.0432
1102.00,0.0432
1101.00,0.0433
1100.00,0.0433
1099.00,0.0433
1098.00,0.0434
1097.00,0.0434
1096.00,0.0435
1095.00,0.0435
1094.00,0.0436
1093.00,0.0435
1092.00,0.0435
1091.00,0.0435
1090.00,0.0435
1089.00,0.0435
1088.00,0.0435
1087.00,0.0435
1086.00,0.0434
1085.00,0.0434
1084.00,0.0435
1083.00,0.0436
1082.00,0.0437
1081.00,0.0440
1080.00,0.0444
1079.00,0.0448
1078.00,0.0452
1077.00,0.0457
1076.00,0.0460
1075.00,0.0461
1074.00,0.0461
1073.00,0.0460
1072.00,0.0457
1071.00,0.0453
1070.00,0.0449
1069.00,0.0445
1068.00,0.0441
1067.00,0.0438
1066.00,0.0436
1065.00,0.0435
1064.00,0.0434
1063.00,0.0435
1062.00,0.0436
1061.00,0.0436
1060.00,0.0437
1059.00,0.0438
1058.00,0.0439
1057.00,0.0440
1056.00,0.0440
1055.00,0.0441
1054.00,0.0441
1053.00,0.0442
1052.00,0.0444
1051.00,0.0446
1050.00,0.0448
1049.00,0.0450
1048.00,0.0452
1047.00,0.0454
1046.00,0.0455
1045.00,0.0455
1044.00,0.0455
1043.00,0.0454
1042.00,0.0454
1041.00,0.0454
1040.00,0.0454
1039.00,0.0455
1038.00,0.0457
1037.00,0.0460
1036.00,0.0462
1035.00,0.0465
1034.00,0.0468
1033.00,0.0471
1032.00,0.0474
1031.00,0.0477
1030.00,0.0481
1029.00,0.0485
1028.00,0.0490
1027.00,0.0496
1026.00,0.0502
1025.00,0.0510
1024.00,0.0518
1023.00,0.0527
1022.00,0.0537
1021.00,0.0545
1020.00,0.0552
1019.00,0.0555
1018.00,0.0556
1017.00,0.0552
1016.00,0.0543
1015.00,0.0531
1014.00,0.0516
1013.00,0.0499
1012.00,0.0483
1011.00,0.0469
1010.00,0.0458
1009.00,0.0451
1008.00,0.0448
1007.00,0.0448
1006.00,0.0452
1005.00,0.0457
1004.00,0.0464
1003.00,0.0469
1002.00,0.0470
1001.00,0.0468
1000.00,0.0462
999.00,0.0453
998.00,0.0443
997.00,0.0432
996.00,0.0421
995.00,0.0411
994.00,0.0402
993.00,0.0394
992.00,0.0388
991.00,0.0382
990.00,0.0377
989.00,0.0373
988.00,0.0370
987.00,0.0367
986.00,0.0364
985.00,0.0361
984.00,0.0359
983.00,0.0356
982.00,0.0353
981.00,0.0351
980.00,0.0348
979.00,0.0345
978.00,0.0343
977.00,0.0340
976.00,0.0338
975.00,0.0336
974.00,0.0334
973.00,0.0332
972.00,0.0330
971.00,0.0328
970.00,0.0327
969.00,0.0326
968.00,0.0325
967.00,0.0324
966.00,0.0323
965.00,0.0323
964.00,0.0323
963.00,0.0323
962.00,0.0324
961.00,0.0325
960.00,0.0326
959.00,0.0328
958.00,0.0328
957.00,0.0329
956.00,0.0329
955.00,0.0329
954.00,0.0328
953.00,0.0327
952.00,0.0325
951.00,0.0323
950.00,0.0321
949.00,0.0320
948.00,0.0318
947.00,0.0317
946.00,0.0318
945.00,0.0319
944.00,0.0322
943.00,0.0326
942.00,0.0331
941.00,0.0339
940.00,0.0348
939.00,0.0359
938.00,0.0370
937.00,0.0383
936.00,0.0394
935.00,0.0404
934.00,0.0410
933.00,0.0410
932.00,0.0407
931.00,0.0400
930.00,0.0392
929.00,0.0384
928.00,0.0378
927.00,0.0372
926.00,0.0367
925.00,0.0363
924.00,0.0358
923.00,0.0353
922.00,0.0349
921.00,0.0345
920.00,0.0342
919.00,0.0339
918.00,0.0337
917.00,0.0335
916.00,0.0334
915.00,0.0333
914.00,0.0332
913.00,0.0331
912.00,0.0331
911.00,0.0331
910.00,0.0332
909.00,0.0334
908.00,0.0336
907.00,0.0338
906.00,0.0341
905.00,0.0345
904.00,0.0349
903.00,0.0354
902.00,0.0359
901.00,0.0365
900.00,0.0370
899.00,0.0374
898.00,0.0378
897.00,0.0380
896.00,0.0381
895.00,0.0380
894.00,0.0379
893.00,0.0375
892.00,0.0371
891.00,0.0366
890.00,0.0360
889.00,0.0354
888.00,0.0349
887.00,0.0343
886.00,0.0338
885.00,0.0334
884.00,0.0330
883.00,0.0327
882.00,0.0324
881.00,0.0322
880.00,0.0320
879.00,0.0319
878.00,0.0319
877.00,0.0319
876.00,0.0319
875.00,0.0320
874.00,0.0320
873.00,0.0322
872.00,0.0323
871.00,0.0326
870.00,0.0328
869.00,0.0332
868.00,0.0335
867.00,0.0340
866.00,0.0345
865.00,0.0351
864.00,0.0357
863.00,0.0365
862.00,0.0373
861.00,0.0382
860.00,0.0393
859.00,0.0404
858.00,0.0416
857.00,0.0430
856.00,0.0445
855.00,0.0461
854.00,0.0476
853.00,0.0492
852.00,0.0507
851.00,0.0522
850.00,0.0535
849.00,0.0547
848.00,0.0557
847.00,0.0564
846.00,0.0570
845.00,0.0573
844.00,0.0573
843.00,0.0571
842.00,0.0566
841.00,0.0560
840.00,0.0552
839.00,0.0544
838.00,0.0534
837.00,0.0524
836.00,0.0513
835.00,0.0503
834.00,0.0492
833.00,0.0481
832.00,0.0471
831.00,0.0460
830.00,0.0450
829.00,0.0440
828.00,0.0430
827.00,0.0422
826.00,0.0414
825.00,0.0406
824.00,0.0400
823.00,0.0394
822.00,0.0389
821.00,0.0384
820.00,0.0379
819.00,0.0375
818.00,0.0371
817.00,0.0368
816.00,0.0365
815.00,0.0362
814.00,0.0360
813.00,0.0358
812.00,0.0357
811.00,0.0355
810.00,0.0353
809.00,0.0352
808.00,0.0351
807.00,0.0350
806.00,0.0350
805.00,0.0349
804.00,0.0349
803.00,0.0349
802.00,0.0349
801.00,0.0350
800.00,0.0350
799.00,0.0351
798.00,0.0352
797.00,0.0353
796.00,0.0355
795.00,0.0356
794.00,0.0358
793.00,0.0359
792.00,0.0361
791.00,0.0363
790.00,0.0365
789.00,0.0367
788.00,0.0369
787.00,0.0371
786.00,0.0374
785.00,0.0376
784.00,0.0379
783.00,0.0382
782.00,0.0385
781.00,0.0388
780.00,0.0390
779.00,0.0394
778.00,0.0398
777.00,0.0402
776.00,0.0406
775.00,0.0410
774.00,0.0415
773.00,0.0419
772.00,0.0424
771.00,0.0428
770.00,0.0433
769.00,0.0438
768.00,0.0444
767.00,0.0450
766.00,0.0456
765.00,0.0463
764.00,0.0470
763.00,0.0478
762.00,0.0486
761.00,0.0494
760.00,0.0503
759.00,0.0512
758.00,0.0522
757.00,0.0532
756.00,0.0543
755.00,0.0553
754.00,0.0563
753.00,0.0574
752.00,0.0585
751.00,0.0596
750.00,0.0607
749.00,0.0618
748.00,0.0629
747.00,0.0639
746.00,0.0650
745.00,0.0660
744.00,0.0671
743.00,0.0682
742.00,0.0692
741.00,0.0703
740.00,0.0713
739.00,0.0724
738.00,0.0734
737.00,0.0742
736.00,0.0750
735.00,0.0755
734.00,0.0757
733.00,0.0756
732.00,0.0753
731.00,0.0746
730.00,0.0737
729.00,0.0725
728.00,0.0712
727.00,0.0700
726.00,0.0687
725.00,0.0676
724.00,0.0667
723.00,0.0658
722.00,0.0650
721.00,0.0644
720.00,0.0638
719.00,0.0634
718.00,0.0631
717.00,0.0629
716.00,0.0628
715.00,0.0627
714.00,0.0627
713.00,0.0627
712.00,0.0627
711.00,0.0628
710.00,0.0630
709.00,0.0632
708.00,0.0635
707.00,0.0638
706.00,0.0641
705.00,0.0644
704.00,0.0647
703.00,0.0651
702.00,0.0654
701.00,0.0658
700.00,0.0662
699.00,0.0667
698.00,0.0671
697.00,0.0676
696.00,0.0681
695.00,0.0687
694.00,0.0692
693.00,0.0698
692.00,0.0704
691.00,0.0710
690.00,0.0716
689.00,0.0723
688.00,0.0731
687.00,0.0740
686.00,0.0749
685.00,0.0758
684.00,0.0768
683.00,0.0777
682.00,0.0787
681.00,0.0796
680.00,0.0805
679.00,0.0814
678.00,0.0823
677.00,0.0832
676.00,0.0842
675.00,0.0852
674.00,0.0863
673.00,0.0874
672.00,0.0884
671.00,0.0891
670.00,0.0898
669.00,0.0909
668.00,0.0930
667.00,0.0955
666.00,0.0974
665.00,0.0990
664.00,0.1005
663.00,0.1023
662.00,0.1042
661.00,0.1062
660.00,0.1083
659.00,0.1105
658.00,0.1127
657.00,0.1149
656.00,0.1172
655.00,0.1195
654.00,0.1217
653.00,0.1237
652.00,0.1256
651.00,0.1272
650.00,0.1285
649.00,0.1294
648.00,0.1301
647.00,0.1305
646.00,0.1303
645.00,0.1299
644.00,0.1292
643.00,0.1282
642.00,0.1270
641.00,0.1258
640.00,0.1246
639.00,0.1234
638.00,0.1221
637.00,0.1210
636.00,0.1199
635.00,0.1188
634.00,0.1177
633.00,0.1167
632.00,0.1158
631.00,0.1150
630.00,0.1143
629.00,0.1136
628.00,0.1131
627.00,0.1125
626.00,0.1120
625.00,0.1116
624.00,0.1111
623.00,0.1107
622.00,0.1104
621.00,0.1102
620.00,0.1101
619.00,0.1100
618.00,0.1100
617.00,0.1101
616.00,0.1102
615.00,0.1104
614.00,0.1105
613.00,0.1107
612.00,0.1109
611.00,0.1111
610.00,0.1112
609.00,0.1112
608.00,0.1113
607.00,0.1115
606.00,0.1117
605.00,0.1120
604.00,0.1124
603.00,0.1127
602.00,0.1130
601.00,0.1133
600.00,0.1138
599.00,0.1143
598.00,0.1148
597.00,0.1154
596.00,0.1161
595.00,0.1169
594.00,0.1177
593.00,0.1186
592.00,0.1198
591.00,0.1210
590.00,0.1223
589.00,0.1237
588.00,0.1252
587.00,0.1269
586.00,0.1287
585.00,0.1307
584.00,0.1328
583.00,0.1350
582.00,0.1370
581.00,0.1390
580.00,0.1410
579.00,0.1429
578.00,0.1444
577.00,0.1457
576.00,0.1469
575.00,0.1478
574.00,0.1484
573.00,0.1488
572.00,0.1492
571.00,0.1493
570.00,0.1492
569.00,0.1488
568.00,0.1482
567.00,0.1475
566.00,0.1466
565.00,0.1456
564.00,0.1446
563.00,0.1437
562.00,0.1426
561.00,0.1415
560.00,0.1404
559.00,0.1394
558.00,0.1384
557.00,0.1376
556.00,0.1369
555.00,0.1363
554.00,0.1356
553.00,0.1349
552.00,0.1344
551.00,0.1339
550.00,0.1333
549.00,0.1328
548.00,0.1323
547.00,0.1317
546.00,0.1310
545.00,0.1304
544.00,0.1299
543.00,0.1294
542.00,0.1289
541.00,0.1285
540.00,0.1283
539.00,0.1280
538.00,0.1277
537.00,0.1275
536.00,0.1274
535.00,0.1274
534.00,0.1274
533.00,0.1274
532.00,0.1275
531.00,0.1275
530.00,0.1274
529.00,0.1273
528.00,0.1274
527.00,0.1276
526.00,0.1277
525.00,0.1277
524.00,0.1277
523.00,0.1275
522.00,0.1273
521.00,0.1272
520.00,0.1272
519.00,0.1272
518.00,0.1273
517.00,0.1274
516.00,0.1275
515.00,0.1274
514.00,0.1272
513.00,0.1270
512.00,0.1269
511.00,0.1268
510.00,0.1266
509.00,0.1265
508.00,0.1267
507.00,0.1269
506.00,0.1270
505.00,0.1271
504.00,0.1271
503.00,0.1272
502.00,0.1272
501.00,0.1273
500.00,0.1273
499.00,0.1273
498.00,0.1273
497.00,0.1274
496.00,0.1276
495.00,0.1279
494.00,0.1280
493.00,0.1280
492.00,0.1281
491.00,0.1282
490.00,0.1283
489.00,0.1284
488.00,0.1285
487.00,0.1286
486.00,0.1285
485.00,0.1285
484.00,0.1287
483.00,0.1288
482.00,0.1288
481.00,0.1288
480.00,0.1290
479.00,0.1293
478.00,0.1294
477.00,0.1294
476.00,0.1294
475.00,0.1293
474.00,0.1292
473.00,0.1292
472.00,0.1293
471.00,0.1294
470.00,0.1293
469.00,0.1293
468.00,0.1294
467.00,0.1294
466.00,0.1292
465.00,0.1289
464.00,0.1287
463.00,0.1287
462.00,0.1285
461.00,0.1282
460.00,0.1280
459.00,0.1278
458.00,0.1274
457.00,0.1270
456.00,0.1265
455.00,0.1259
454.00,0.1251
453.00,0.1244
452.00,0.1238
451.00,0.1233
450.00,0.1227
449.00,0.1221
448.00,0.1218
447.00,0.1213
446.00,0.1206
445.00,0.1197
444.00,0.1190
443.00,0.1182
442.00,0.1174
441.00,0.1169
440.00,0.1166
439.00,0.1160
438.00,0.1152
437.00,0.1145
436.00,0.1143
435.00,0.1141
434.00,0.1137
433.00,0.1132
432.00,0.1129
431.00,0.1125
430.00,0.1119
429.00,0.1113
428.00,0.1109
427.00,0.1105
426.00,0.1099
425.00,0.1093
424.00,0.1092
423.00,0.1090
422.00,0.1083
421.00,0.1073
420.00,0.1065
419.00,0.1063
418.00,0.1062
417.00,0.1061
416.00,0.1057
415.00,0.1050
414.00,0.1039
413.00,0.1030
412.00,0.1026
411.00,0.1023
410.00,0.1018
409.00,0.1012
408.00,0.1009
407.00,0.1008
406.00,0.1004
405.00,0.1000
404.00,0.0999
403.00,0.0998
402.00,0.0994
401.00,0.0992
400.00,0.0995
