Created as New Dataset,Sample 446 By YargerLab Date Tuesday, January 27 2026
cm-1,A
4000.00,0.0049
3999.00,0.0049
3998.00,0.0049
3997.00,0.0049
3996.00,0.0049
3995.00,0.0049
3994.00,0.0049
3993.00,0.0049
3992.00,0.0049
3991.00,0.0049
3990.00,0.0049
3989.00,0.0049
3988.00,0.0049
3987.00,0.0049
3986.00,0.0049
3985.00,0.0048
3984.00,0.0048
3983.00,0.0048
3982.00,0.0049
3981.00,0.0049
3980.00,0.0049
3979.00,0.0049
3978.00,0.0049
3977.00,0.0049
3976.00,0.0049
3975.00,0.0049
3974.00,0.0049
3973.00,0.0049
3972.00,0.0049
3971.00,0.0049
3970.00,0.0048
3969.00,0.0048
3968.00,0.0048
3967.00,0.0048
3966.00,0.0048
3965.00,0.0049
3964.00,0.0049
3963.00,0.0049
3962.00,0.0049
3961.00,0.0049
3960.00,0.0049
3959.00,0.0048
3958.00,0.0048
3957.00,0.0048
3956.00,0.0048
3955.00,0.0048
3954.00,0.0048
3953.00,0.0048
3952.00,0.0049
3951.00,0.0049
3950.00,0.0049
3949.00,0.0049
3948.00,0.0049
3947.00,0.0049
3946.00,0.0049
3945.00,0.0049
3944.00,0.0049
3943.00,0.0049
3942.00,0.0049
3941.00,0.0049
3940.00,0.0049
3939.00,0.0049
3938.00,0.0049
3937.00,0.0049
3936.00,0.0049
3935.00,0.0048
3934.00,0.0048
3933.00,0.0048
3932.00,0.0048
3931.00,0.0049
3930.00,0.0049
3929.00,0.0049
3928.00,0.0049
3927.00,0.0049
3926.00,0.0049
3925.00,0.0049
3924.00,0.0049
3923.00,0.0049
3922.00,0.0049
3921.00,0.0049
3920.00,0.0049
3919.00,0.0049
3918.00,0.0049
3917.00,0.0049
3916.00,0.0049
3915.00,0.0049
3914.00,0.0049
3913.00,0.0049
3912.00,0.0049
3911.00,0.0049
3910.00,0.0049
3909.00,0.0049
3908.00,0.0049
3907.00,0.0049
3906.00,0.0049
3905.00,0.0049
3904.00,0.0049
3903.00,0.0049
3902.00,0.0050
3901.00,0.0050
3900.00,0.0050
3899.00,0.0050
3898.00,0.0050
3897.00,0.0050
3896.00,0.0050
3895.00,0.0050
3894.00,0.0050
3893.00,0.0050
3892.00,0.0049
3891.00,0.0049
3890.00,0.0050
3889.00,0.0050
3888.00,0.0050
3887.00,0.0050
3886.00,0.0050
3885.00,0.0050
3884.00,0.0049
3883.00,0.0049
3882.00,0.0049
3881.00,0.0049
3880.00,0.0049
3879.00,0.0049
3878.00,0.0049
3877.00,0.0049
3876.00,0.0049
3875.00,0.0049
3874.00,0.0050
3873.00,0.0050
3872.00,0.0050
3871.00,0.0050
3870.00,0.0049
3869.00,0.0049
3868.00,0.0049
3867.00,0.0049
3866.00,0.0049
3865.00,0.0049
3864.00,0.0049
3863.00,0.0049
3862.00,0.0049
3861.00,0.0050
3860.00,0.0050
3859.00,0.0050
3858.00,0.0050
3857.00,0.0050
3856.00,0.0050
3855.00,0.0051
3854.00,0.0050
3853.00,0.0050
3852.00,0.0050
3851.00,0.0050
3850.00,0.0050
3849.00,0.0049
3848.00,0.0049
3847.00,0.0049
3846.00,0.0049
3845.00,0.0049
3844.00,0.0049
3843.00,0.0049
3842.00,0.0050
3841.00,0.0050
3840.00,0.0050
3839.00,0.0050
3838.00,0.0050
3837.00,0.0050
3836.00,0.0050
3835.00,0.0050
3834.00,0.0050
3833.00,0.0050
3832.00,0.0050
3831.00,0.0049
3830.00,0.0049
3829.00,0.0049
3828.00,0.0049
3827.00,0.0049
3826.00,0.0049
3825.00,0.0049
3824.00,0.0050
3823.00,0.0050
3822.00,0.0050
3821.00,0.0050
3820.00,0.0050
3819.00,0.0050
3818.00,0.0050
3817.00,0.0050
3816.00,0.0050
3815.00,0.0050
3814.00,0.0049
3813.00,0.0049
3812.00,0.0049
3811.00,0.0049
3810.00,0.0049
3809.00,0.0049
3808.00,0.0049
3807.00,0.0049
3806.00,0.0049
3805.00,0.0049
3804.00,0.0049
3803.00,0.0049
3802.00,0.0049
3801.00,0.0049
3800.00,0.0049
3799.00,0.0049
3798.00,0.0050
3797.00,0.0050
3796.00,0.0049
3795.00,0.0049
3794.00,0.0049
3793.00,0.0050
3792.00,0.0050
3791.00,0.0050
3790.00,0.0050
3789.00,0.0050
3788.00,0.0050
3787.00,0.0050
3786.00,0.0050
3785.00,0.0049
3784.00,0.0049
3783.00,0.0049
3782.00,0.0049
3781.00,0.0049
3780.00,0.0049
3779.00,0.0049
3778.00,0.0049
3777.00,0.0050
3776.00,0.0050
3775.00,0.0050
3774.00,0.0050
3773.00,0.0050
3772.00,0.0050
3771.00,0.0049
3770.00,0.0049
3769.00,0.0049
3768.00,0.0049
3767.00,0.0049
3766.00,0.0050
3765.00,0.0050
3764.00,0.0050
3763.00,0.0050
3762.00,0.0050
3761.00,0.0050
3760.00,0.0050
3759.00,0.0050
3758.00,0.0049
3757.00,0.0050
3756.00,0.0050
3755.00,0.0050
3754.00,0.0050
3753.00,0.0051
3752.00,0.0051
3751.00,0.0051
3750.00,0.0051
3749.00,0.0051
3748.00,0.0051
3747.00,0.0051
3746.00,0.0051
3745.00,0.0051
3744.00,0.0051
3743.00,0.0051
3742.00,0.0051
3741.00,0.0051
3740.00,0.0051
3739.00,0.0051
3738.00,0.0051
3737.00,0.0051
3736.00,0.0051
3735.00,0.0051
3734.00,0.0050
3733.00,0.0050
3732.00,0.0050
3731.00,0.0050
3730.00,0.0050
3729.00,0.0050
3728.00,0.0050
3727.00,0.0050
3726.00,0.0050
3725.00,0.0050
3724.00,0.0050
3723.00,0.0050
3722.00,0.0049
3721.00,0.0049
3720.00,0.0049
3719.00,0.0049
3718.00,0.0049
3717.00,0.0049
3716.00,0.0049
3715.00,0.0050
3714.00,0.0050
3713.00,0.0050
3712.00,0.0050
3711.00,0.0050
3710.00,0.0050
3709.00,0.0050
3708.00,0.0050
3707.00,0.0050
3706.00,0.0050
3705.00,0.0049
3704.00,0.0049
3703.00,0.0049
3702.00,0.0049
3701.00,0.0049
3700.00,0.0049
3699.00,0.0049
3698.00,0.0049
3697.00,0.0049
3696.00,0.0049
3695.00,0.0049
3694.00,0.0049
3693.00,0.0049
3692.00,0.0049
3691.00,0.0049
3690.00,0.0050
3689.00,0.0050
3688.00,0.0050
3687.00,0.0050
3686.00,0.0051
3685.00,0.0051
3684.00,0.0051
3683.00,0.0051
3682.00,0.0052
3681.00,0.0052
3680.00,0.0052
3679.00,0.0053
3678.00,0.0053
3677.00,0.0053
3676.00,0.0053
3675.00,0.0053
3674.00,0.0053
3673.00,0.0053
3672.00,0.0053
3671.00,0.0053
3670.00,0.0053
3669.00,0.0053
3668.00,0.0053
3667.00,0.0053
3666.00,0.0053
3665.00,0.0053
3664.00,0.0053
3663.00,0.0054
3662.00,0.0054
3661.00,0.0054
3660.00,0.0054
3659.00,0.0054
3658.00,0.0055
3657.00,0.0055
3656.00,0.0056
3655.00,0.0057
3654.00,0.0057
3653.00,0.0058
3652.00,0.0058
3651.00,0.0058
3650.00,0.0058
3649.00,0.0058
3648.00,0.0058
3647.00,0.0058
3646.00,0.0059
3645.00,0.0059
3644.00,0.0060
3643.00,0.0060
3642.00,0.0060
3641.00,0.0061
3640.00,0.0061
3639.00,0.0062
3638.00,0.0062
3637.00,0.0063
3636.00,0.0063
3635.00,0.0064
3634.00,0.0065
3633.00,0.0066
3632.00,0.0067
3631.00,0.0067
3630.00,0.0068
3629.00,0.0068
3628.00,0.0068
3627.00,0.0069
3626.00,0.0070
3625.00,0.0070
3624.00,0.0070
3623.00,0.0071
3622.00,0.0071
3621.00,0.0072
3620.00,0.0072
3619.00,0.0073
3618.00,0.0074
3617.00,0.0075
3616.00,0.0076
3615.00,0.0077
3614.00,0.0078
3613.00,0.0078
3612.00,0.0079
3611.00,0.0080
3610.00,0.0081
3609.00,0.0082
3608.00,0.0082
3607.00,0.0083
3606.00,0.0084
3605.00,0.0085
3604.00,0.0085
3603.00,0.0086
3602.00,0.0087
3601.00,0.0088
3600.00,0.0088
3599.00,0.0089
3598.00,0.0090
3597.00,0.0091
3596.00,0.0092
3595.00,0.0093
3594.00,0.0094
3593.00,0.0095
3592.00,0.0096
3591.00,0.0097
3590.00,0.0098
3589.00,0.0099
3588.00,0.0101
3587.00,0.0102
3586.00,0.0103
3585.00,0.0104
3584.00,0.0105
3583.00,0.0106
3582.00,0.0107
3581.00,0.0109
3580.00,0.0110
3579.00,0.0111
3578.00,0.0113
3577.00,0.0114
3576.00,0.0115
3575.00,0.0116
3574.00,0.0118
3573.00,0.0119
3572.00,0.0120
3571.00,0.0122
3570.00,0.0123
3569.00,0.0124
3568.00,0.0125
3567.00,0.0126
3566.00,0.0127
3565.00,0.0128
3564.00,0.0129
3563.00,0.0130
3562.00,0.0131
3561.00,0.0133
3560.00,0.0134
3559.00,0.0135
3558.00,0.0137
3557.00,0.0138
3556.00,0.0139
3555.00,0.0140
3554.00,0.0141
3553.00,0.0142
3552.00,0.0143
3551.00,0.0144
3550.00,0.0145
3549.00,0.0146
3548.00,0.0147
3547.00,0.0148
3546.00,0.0148
3545.00,0.0149
3544.00,0.0150
3543.00,0.0151
3542.00,0.0152
3541.00,0.0152
3540.00,0.0153
3539.00,0.0154
3538.00,0.0155
3537.00,0.0156
3536.00,0.0156
3535.00,0.0157
3534.00,0.0157
3533.00,0.0158
3532.00,0.0159
3531.00,0.0160
3530.00,0.0160
3529.00,0.0161
3528.00,0.0162
3527.00,0.0162
3526.00,0.0162
3525.00,0.0162
3524.00,0.0163
3523.00,0.0163
3522.00,0.0163
3521.00,0.0164
3520.00,0.0165
3519.00,0.0165
3518.00,0.0166
3517.00,0.0166
3516.00,0.0166
3515.00,0.0167
3514.00,0.0167
3513.00,0.0167
3512.00,0.0167
3511.00,0.0168
3510.00,0.0168
3509.00,0.0168
3508.00,0.0169
3507.00,0.0169
3506.00,0.0169
3505.00,0.0170
3504.00,0.0170
3503.00,0.0170
3502.00,0.0170
3501.00,0.0170
3500.00,0.0171
3499.00,0.0171
3498.00,0.0171
3497.00,0.0171
3496.00,0.0171
3495.00,0.0172
3494.00,0.0172
3493.00,0.0172
3492.00,0.0172
3491.00,0.0172
3490.00,0.0173
3489.00,0.0173
3488.00,0.0173
3487.00,0.0174
3486.00,0.0174
3485.00,0.0174
3484.00,0.0175
3483.00,0.0175
3482.00,0.0175
3481.00,0.0175
3480.00,0.0175
3479.00,0.0175
3478.00,0.0175
3477.00,0.0176
3476.00,0.0176
3475.00,0.0176
3474.00,0.0176
3473.00,0.0176
3472.00,0.0177
3471.00,0.0177
3470.00,0.0177
3469.00,0.0177
3468.00,0.0177
3467.00,0.0177
3466.00,0.0177
3465.00,0.0178
3464.00,0.0178
3463.00,0.0178
3462.00,0.0178
3461.00,0.0178
3460.00,0.0178
3459.00,0.0178
3458.00,0.0178
3457.00,0.0178
3456.00,0.0178
3455.00,0.0178
3454.00,0.0178
3453.00,0.0178
3452.00,0.0178
3451.00,0.0178
3450.00,0.0178
3449.00,0.0179
3448.00,0.0179
3447.00,0.0179
3446.00,0.0178
3445.00,0.0178
3444.00,0.0178
3443.00,0.0177
3442.00,0.0177
3441.00,0.0177
3440.00,0.0177
3439.00,0.0177
3438.00,0.0177
3437.00,0.0176
3436.00,0.0176
3435.00,0.0176
3434.00,0.0176
3433.00,0.0176
3432.00,0.0175
3431.00,0.0175
3430.00,0.0175
3429.00,0.0174
3428.00,0.0174
3427.00,0.0174
3426.00,0.0174
3425.00,0.0173
3424.00,0.0173
3423.00,0.0172
3422.00,0.0172
3421.00,0.0171
3420.00,0.0171
3419.00,0.0170
3418.00,0.0170
3417.00,0.0170
3416.00,0.0170
3415.00,0.0169
3414.00,0.0169
3413.00,0.0168
3412.00,0.0168
3411.00,0.0167
3410.00,0.0167
3409.00,0.0167
3408.00,0.0167
3407.00,0.0166
3406.00,0.0166
3405.00,0.0165
3404.00,0.0164
3403.00,0.0164
3402.00,0.0163
3401.00,0.0163
3400.00,0.0162
3399.00,0.0162
3398.00,0.0162
3397.00,0.0161
3396.00,0.0161
3395.00,0.0160
3394.00,0.0160
3393.00,0.0159
3392.00,0.0159
3391.00,0.0158
3390.00,0.0158
3389.00,0.0158
3388.00,0.0157
3387.00,0.0157
3386.00,0.0156
3385.00,0.0156
3384.00,0.0155
3383.00,0.0154
3382.00,0.0154
3381.00,0.0154
3380.00,0.0153
3379.00,0.0153
3378.00,0.0153
3377.00,0.0152
3376.00,0.0152
3375.00,0.0151
3374.00,0.0151
3373.00,0.0150
3372.00,0.0149
3371.00,0.0148
3370.00,0.0147
3369.00,0.0147
3368.00,0.0146
3367.00,0.0146
3366.00,0.0146
3365.00,0.0146
3364.00,0.0146
3363.00,0.0146
3362.00,0.0145
3361.00,0.0145
3360.00,0.0145
3359.00,0.0145
3358.00,0.0145
3357.00,0.0144
3356.00,0.0144
3355.00,0.0144
3354.00,0.0143
3353.00,0.0143
3352.00,0.0142
3351.00,0.0142
3350.00,0.0142
3349.00,0.0142
3348.00,0.0142
3347.00,0.0142
3346.00,0.0142
3345.00,0.0142
3344.00,0.0141
3343.00,0.0141
3342.00,0.0140
3341.00,0.0139
3340.00,0.0138
3339.00,0.0138
3338.00,0.0138
3337.00,0.0138
3336.00,0.0138
3335.00,0.0138
3334.00,0.0139
3333.00,0.0139
3332.00,0.0139
3331.00,0.0138
3330.00,0.0138
3329.00,0.0137
3328.00,0.0137
3327.00,0.0136
3326.00,0.0136
3325.00,0.0135
3324.00,0.0136
3323.00,0.0136
3322.00,0.0136
3321.00,0.0135
3320.00,0.0135
3319.00,0.0135
3318.00,0.0135
3317.00,0.0134
3316.00,0.0134
3315.00,0.0134
3314.00,0.0134
3313.00,0.0133
3312.00,0.0132
3311.00,0.0131
3310.00,0.0129
3309.00,0.0128
3308.00,0.0128
3307.00,0.0127
3306.00,0.0127
3305.00,0.0128
3304.00,0.0128
3303.00,0.0129
3302.00,0.0130
3301.00,0.0130
3300.00,0.0129
3299.00,0.0129
3298.00,0.0128
3297.00,0.0128
3296.00,0.0127
3295.00,0.0127
3294.00,0.0126
3293.00,0.0126
3292.00,0.0126
3291.00,0.0126
3290.00,0.0127
3289.00,0.0127
3288.00,0.0127
3287.00,0.0127
3286.00,0.0126
3285.00,0.0126
3284.00,0.0126
3283.00,0.0125
3282.00,0.0125
3281.00,0.0124
3280.00,0.0124
3279.00,0.0123
3278.00,0.0123
3277.00,0.0122
3276.00,0.0121
3275.00,0.0121
3274.00,0.0120
3273.00,0.0119
3272.00,0.0118
3271.00,0.0118
3270.00,0.0118
3269.00,0.0119
3268.00,0.0119
3267.00,0.0119
3266.00,0.0118
3265.00,0.0118
3264.00,0.0117
3263.00,0.0117
3262.00,0.0116
3261.00,0.0116
3260.00,0.0115
3259.00,0.0115
3258.00,0.0114
3257.00,0.0114
3256.00,0.0113
3255.00,0.0113
3254.00,0.0113
3253.00,0.0113
3252.00,0.0112
3251.00,0.0112
3250.00,0.0111
3249.00,0.0110
3248.00,0.0110
3247.00,0.0109
3246.00,0.0109
3245.00,0.0109
3244.00,0.0109
3243.00,0.0108
3242.00,0.0108
3241.00,0.0107
3240.00,0.0107
3239.00,0.0106
3238.00,0.0106
3237.00,0.0105
3236.00,0.0104
3235.00,0.0103
3234.00,0.0103
3233.00,0.0103
3232.00,0.0103
3231.00,0.0103
3230.00,0.0102
3229.00,0.0102
3228.00,0.0102
3227.00,0.0101
3226.00,0.0101
3225.00,0.0100
3224.00,0.0100
3223.00,0.0100
3222.00,0.0099
3221.00,0.0099
3220.00,0.0099
3219.00,0.0098
3218.00,0.0097
3217.00,0.0097
3216.00,0.0096
3215.00,0.0096
3214.00,0.0096
3213.00,0.0095
3212.00,0.0095
3211.00,0.0095
3210.00,0.0094
3209.00,0.0094
3208.00,0.0093
3207.00,0.0093
3206.00,0.0092
3205.00,0.0092
3204.00,0.0092
3203.00,0.0091
3202.00,0.0091
3201.00,0.0091
3200.00,0.0090
3199.00,0.0090
3198.00,0.0089
3197.00,0.0089
3196.00,0.0089
3195.00,0.0088
3194.00,0.0088
3193.00,0.0088
3192.00,0.0088
3191.00,0.0088
3190.00,0.0087
3189.00,0.0087
3188.00,0.0087
3187.00,0.0086
3186.00,0.0086
3185.00,0.0086
3184.00,0.0086
3183.00,0.0085
3182.00,0.0085
3181.00,0.0085
3180.00,0.0085
3179.00,0.0084
3178.00,0.0084
3177.00,0.0083
3176.00,0.0083
3175.00,0.0083
3174.00,0.0083
3173.00,0.0083
3172.00,0.0082
3171.00,0.0082
3170.00,0.0082
3169.00,0.0081
3168.00,0.0081
3167.00,0.0080
3166.00,0.0080
3165.00,0.0080
3164.00,0.0080
3163.00,0.0080
3162.00,0.0080
3161.00,0.0080
3160.00,0.0080
3159.00,0.0079
3158.00,0.0079
3157.00,0.0079
3156.00,0.0078
3155.00,0.0078
3154.00,0.0077
3153.00,0.0077
3152.00,0.0077
3151.00,0.0077
3150.00,0.0077
3149.00,0.0077
3148.00,0.0077
3147.00,0.0077
3146.00,0.0077
3145.00,0.0077
3144.00,0.0076
3143.00,0.0076
3142.00,0.0076
3141.00,0.0075
3140.00,0.0075
3139.00,0.0075
3138.00,0.0075
3137.00,0.0075
3136.00,0.0075
3135.00,0.0075
3134.00,0.0075
3133.00,0.0075
3132.00,0.0075
3131.00,0.0074
3130.00,0.0074
3129.00,0.0074
3128.00,0.0074
3127.00,0.0074
3126.00,0.0074
3125.00,0.0074
3124.00,0.0074
3123.00,0.0074
3122.00,0.0074
3121.00,0.0074
3120.00,0.0074
3119.00,0.0073
3118.00,0.0073
3117.00,0.0073
3116.00,0.0073
3115.00,0.0073
3114.00,0.0073
3113.00,0.0073
3112.00,0.0073
3111.00,0.0073
3110.00,0.0073
3109.00,0.0073
3108.00,0.0073
3107.00,0.0073
3106.00,0.0073
3105.00,0.0072
3104.00,0.0072
3103.00,0.0072
3102.00,0.0072
3101.00,0.0072
3100.00,0.0071
3099.00,0.0071
3098.00,0.0071
3097.00,0.0071
3096.00,0.0071
3095.00,0.0071
3094.00,0.0071
3093.00,0.0071
3092.00,0.0070
3091.00,0.0070
3090.00,0.0070
3089.00,0.0070
3088.00,0.0070
3087.00,0.0069
3086.00,0.0069
3085.00,0.0069
3084.00,0.0069
3083.00,0.0069
3082.00,0.0069
3081.00,0.0069
3080.00,0.0069
3079.00,0.0069
3078.00,0.0068
3077.00,0.0068
3076.00,0.0068
3075.00,0.0069
3074.00,0.0069
3073.00,0.0069
3072.00,0.0069
3071.00,0.0069
3070.00,0.0068
3069.00,0.0068
3068.00,0.0068
3067.00,0.0068
3066.00,0.0068
3065.00,0.0068
3064.00,0.0068
3063.00,0.0068
3062.00,0.0068
3061.00,0.0068
3060.00,0.0068
3059.00,0.0068
3058.00,0.0068
3057.00,0.0068
3056.00,0.0068
3055.00,0.0068
3054.00,0.0068
3053.00,0.0068
3052.00,0.0068
3051.00,0.0068
3050.00,0.0068
3049.00,0.0068
3048.00,0.0068
3047.00,0.0068
3046.00,0.0068
3045.00,0.0068
3044.00,0.0068
3043.00,0.0068
3042.00,0.0069
3041.00,0.0069
3040.00,0.0069
3039.00,0.0069
3038.00,0.0068
3037.00,0.0068
3036.00,0.0068
3035.00,0.0069
3034.00,0.0069
3033.00,0.0069
3032.00,0.0069
3031.00,0.0070
3030.00,0.0070
3029.00,0.0070
3028.00,0.0070
3027.00,0.0071
3026.00,0.0071
3025.00,0.0071
3024.00,0.0072
3023.00,0.0072
3022.00,0.0072
3021.00,0.0073
3020.00,0.0074
3019.00,0.0074
3018.00,0.0075
3017.00,0.0076
3016.00,0.0077
3015.00,0.0077
3014.00,0.0078
3013.00,0.0079
3012.00,0.0081
3011.00,0.0082
3010.00,0.0084
3009.00,0.0086
3008.00,0.0087
3007.00,0.0089
3006.00,0.0091
3005.00,0.0093
3004.00,0.0095
3003.00,0.0098
3002.00,0.0101
3001.00,0.0103
3000.00,0.0106
2999.00,0.0109
2998.00,0.0112
2997.00,0.0115
2996.00,0.0119
2995.00,0.0123
2994.00,0.0126
2993.00,0.0130
2992.00,0.0133
2991.00,0.0137
2990.00,0.0140
2989.00,0.0144
2988.00,0.0148
2987.00,0.0151
2986.00,0.0154
2985.00,0.0158
2984.00,0.0161
2983.00,0.0164
2982.00,0.0167
2981.00,0.0169
2980.00,0.0172
2979.00,0.0175
2978.00,0.0177
2977.00,0.0180
2976.00,0.0182
2975.00,0.0184
2974.00,0.0186
2973.00,0.0189
2972.00,0.0191
2971.00,0.0193
2970.00,0.0195
2969.00,0.0197
2968.00,0.0199
2967.00,0.0202
2966.00,0.0204
2965.00,0.0206
2964.00,0.0208
2963.00,0.0210
2962.00,0.0212
2961.00,0.0215
2960.00,0.0217
2959.00,0.0220
2958.00,0.0222
2957.00,0.0225
2956.00,0.0227
2955.00,0.0228
2954.00,0.0230
2953.00,0.0231
2952.00,0.0232
2951.00,0.0233
2950.00,0.0234
2949.00,0.0234
2948.00,0.0233
2947.00,0.0233
2946.00,0.0232
2945.00,0.0231
2944.00,0.0229
2943.00,0.0228
2942.00,0.0226
2941.00,0.0225
2940.00,0.0223
2939.00,0.0222
2938.00,0.0220
2937.00,0.0219
2936.00,0.0218
2935.00,0.0217
2934.00,0.0217
2933.00,0.0217
2932.00,0.0217
2931.00,0.0217
2930.00,0.0217
2929.00,0.0218
2928.00,0.0219
2927.00,0.0220
2926.00,0.0221
2925.00,0.0221
2924.00,0.0222
2923.00,0.0223
2922.00,0.0223
2921.00,0.0223
2920.00,0.0223
2919.00,0.0223
2918.00,0.0222
2917.00,0.0221
2916.00,0.0219
2915.00,0.0218
2914.00,0.0216
2913.00,0.0214
2912.00,0.0212
2911.00,0.0210
2910.00,0.0207
2909.00,0.0205
2908.00,0.0203
2907.00,0.0201
2906.00,0.0199
2905.00,0.0197
2904.00,0.0196
2903.00,0.0196
2902.00,0.0195
2901.00,0.0195
2900.00,0.0195
2899.00,0.0195
2898.00,0.0196
2897.00,0.0196
2896.00,0.0197
2895.00,0.0198
2894.00,0.0198
2893.00,0.0199
2892.00,0.0200
2891.00,0.0200
2890.00,0.0200
2889.00,0.0201
2888.00,0.0201
2887.00,0.0201
2886.00,0.0202
2885.00,0.0202
2884.00,0.0202
2883.00,0.0202
2882.00,0.0202
2881.00,0.0202
2880.00,0.0201
2879.00,0.0201
2878.00,0.0200
2877.00,0.0199
2876.00,0.0198
2875.00,0.0197
2874.00,0.0196
2873.00,0.0195
2872.00,0.0194
2871.00,0.0193
2870.00,0.0192
2869.00,0.0190
2868.00,0.0189
2867.00,0.0188
2866.00,0.0186
2865.00,0.0185
2864.00,0.0184
2863.00,0.0182
2862.00,0.0180
2861.00,0.0179
2860.00,0.0177
2859.00,0.0175
2858.00,0.0173
2857.00,0.0171
2856.00,0.0169
2855.00,0.0166
2854.00,0.0164
2853.00,0.0162
2852.00,0.0159
2851.00,0.0156
2850.00,0.0153
2849.00,0.0151
2848.00,0.0148
2847.00,0.0146
2846.00,0.0143
2845.00,0.0141
2844.00,0.0139
2843.00,0.0137
2842.00,0.0135
2841.00,0.0133
2840.00,0.0131
2839.00,0.0129
2838.00,0.0127
2837.00,0.0125
2836.00,0.0124
2835.00,0.0122
2834.00,0.0120
2833.00,0.0119
2832.00,0.0117
2831.00,0.0115
2830.00,0.0113
2829.00,0.0111
2828.00,0.0110
2827.00,0.0108
2826.00,0.0106
2825.00,0.0104
2824.00,0.0102
2823.00,0.0101
2822.00,0.0099
2821.00,0.0098
2820.00,0.0097
2819.00,0.0095
2818.00,0.0094
2817.00,0.0093
2816.00,0.0092
2815.00,0.0091
2814.00,0.0091
2813.00,0.0090
2812.00,0.0089
2811.00,0.0088
2810.00,0.0087
2809.00,0.0086
2808.00,0.0086
2807.00,0.0086
2806.00,0.0086
2805.00,0.0085
2804.00,0.0085
2803.00,0.0085
2802.00,0.0084
2801.00,0.0084
2800.00,0.0083
2799.00,0.0083
2798.00,0.0083
2797.00,0.0082
2796.00,0.0082
2795.00,0.0082
2794.00,0.0081
2793.00,0.0081
2792.00,0.0081
2791.00,0.0081
2790.00,0.0081
2789.00,0.0081
2788.00,0.0081
2787.00,0.0080
2786.00,0.0080
2785.00,0.0080
2784.00,0.0079
2783.00,0.0079
2782.00,0.0079
2781.00,0.0078
2780.00,0.0078
2779.00,0.0078
2778.00,0.0078
2777.00,0.0078
2776.00,0.0077
2775.00,0.0077
2774.00,0.0077
2773.00,0.0076
2772.00,0.0076
2771.00,0.0076
2770.00,0.0076
2769.00,0.0076
2768.00,0.0076
2767.00,0.0076
2766.00,0.0075
2765.00,0.0075
2764.00,0.0075
2763.00,0.0075
2762.00,0.0075
2761.00,0.0074
2760.00,0.0074
2759.00,0.0074
2758.00,0.0074
2757.00,0.0074
2756.00,0.0074
2755.00,0.0074
2754.00,0.0074
2753.00,0.0074
2752.00,0.0074
2751.00,0.0074
2750.00,0.0074
2749.00,0.0074
2748.00,0.0074
2747.00,0.0074
2746.00,0.0073
2745.00,0.0073
2744.00,0.0074
2743.00,0.0074
2742.00,0.0074
2741.00,0.0074
2740.00,0.0074
2739.00,0.0074
2738.00,0.0073
2737.00,0.0073
2736.00,0.0073
2735.00,0.0073
2734.00,0.0073
2733.00,0.0073
2732.00,0.0073
2731.00,0.0073
2730.00,0.0073
2729.00,0.0073
2728.00,0.0073
2727.00,0.0073
2726.00,0.0073
2725.00,0.0073
2724.00,0.0073
2723.00,0.0073
2722.00,0.0073
2721.00,0.0072
2720.00,0.0072
2719.00,0.0072
2718.00,0.0072
2717.00,0.0072
2716.00,0.0072
2715.00,0.0072
2714.00,0.0072
2713.00,0.0072
2712.00,0.0072
2711.00,0.0072
2710.00,0.0072
2709.00,0.0072
2708.00,0.0072
2707.00,0.0072
2706.00,0.0072
2705.00,0.0071
2704.00,0.0071
2703.00,0.0071
2702.00,0.0071
2701.00,0.0071
2700.00,0.0071
2699.00,0.0070
2698.00,0.0070
2697.00,0.0070
2696.00,0.0070
2695.00,0.0070
2694.00,0.0070
2693.00,0.0070
2692.00,0.0070
2691.00,0.0069
2690.00,0.0070
2689.00,0.0070
2688.00,0.0070
2687.00,0.0070
2686.00,0.0070
2685.00,0.0070
2684.00,0.0070
2683.00,0.0069
2682.00,0.0069
2681.00,0.0069
2680.00,0.0070
2679.00,0.0070
2678.00,0.0069
2677.00,0.0069
2676.00,0.0069
2675.00,0.0069
2674.00,0.0069
2673.00,0.0069
2672.00,0.0069
2671.00,0.0070
2670.00,0.0070
2669.00,0.0070
2668.00,0.0070
2667.00,0.0070
2666.00,0.0071
2665.00,0.0071
2664.00,0.0071
2663.00,0.0072
2662.00,0.0072
2661.00,0.0073
2660.00,0.0073
2659.00,0.0073
2658.00,0.0073
2657.00,0.0074
2656.00,0.0074
2655.00,0.0074
2654.00,0.0074
2653.00,0.0074
2652.00,0.0074
2651.00,0.0074
2650.00,0.0074
2649.00,0.0074
2648.00,0.0074
2647.00,0.0074
2646.00,0.0074
2645.00,0.0074
2644.00,0.0074
2643.00,0.0074
2642.00,0.0074
2641.00,0.0074
2640.00,0.0074
2639.00,0.0074
2638.00,0.0074
2637.00,0.0074
2636.00,0.0074
2635.00,0.0074
2634.00,0.0074
2633.00,0.0073
2632.00,0.0073
2631.00,0.0073
2630.00,0.0073
2629.00,0.0073
2628.00,0.0073
2627.00,0.0073
2626.00,0.0073
2625.00,0.0073
2624.00,0.0073
2623.00,0.0072
2622.00,0.0072
2621.00,0.0072
2620.00,0.0072
2619.00,0.0072
2618.00,0.0072
2617.00,0.0071
2616.00,0.0071
2615.00,0.0071
2614.00,0.0071
2613.00,0.0071
2612.00,0.0071
2611.00,0.0071
2610.00,0.0071
2609.00,0.0071
2608.00,0.0072
2607.00,0.0072
2606.00,0.0071
2605.00,0.0071
2604.00,0.0071
2603.00,0.0070
2602.00,0.0070
2601.00,0.0070
2600.00,0.0070
2599.00,0.0070
2598.00,0.0071
2597.00,0.0071
2596.00,0.0071
2595.00,0.0070
2594.00,0.0070
2593.00,0.0070
2592.00,0.0070
2591.00,0.0070
2590.00,0.0070
2589.00,0.0070
2588.00,0.0070
2587.00,0.0070
2586.00,0.0070
2585.00,0.0070
2584.00,0.0070
2583.00,0.0070
2582.00,0.0070
2581.00,0.0070
2580.00,0.0070
2579.00,0.0070
2578.00,0.0070
2577.00,0.0070
2576.00,0.0070
2575.00,0.0070
2574.00,0.0070
2573.00,0.0070
2572.00,0.0070
2571.00,0.0070
2570.00,0.0070
2569.00,0.0070
2568.00,0.0070
2567.00,0.0070
2566.00,0.0070
2565.00,0.0070
2564.00,0.0070
2563.00,0.0070
2562.00,0.0069
2561.00,0.0069
2560.00,0.0069
2559.00,0.0069
2558.00,0.0069
2557.00,0.0068
2556.00,0.0068
2555.00,0.0069
2554.00,0.0069
2553.00,0.0069
2552.00,0.0069
2551.00,0.0068
2550.00,0.0068
2549.00,0.0067
2548.00,0.0067
2547.00,0.0068
2546.00,0.0068
2545.00,0.0068
2544.00,0.0068
2543.00,0.0068
2542.00,0.0067
2541.00,0.0067
2540.00,0.0067
2539.00,0.0068
2538.00,0.0068
2537.00,0.0068
2536.00,0.0068
2535.00,0.0068
2534.00,0.0067
2533.00,0.0067
2532.00,0.0067
2531.00,0.0067
2530.00,0.0067
2529.00,0.0067
2528.00,0.0067
2527.00,0.0067
2526.00,0.0067
2525.00,0.0067
2524.00,0.0067
2523.00,0.0067
2522.00,0.0067
2521.00,0.0066
2520.00,0.0066
2519.00,0.0066
2518.00,0.0066
2517.00,0.0065
2516.00,0.0066
2515.00,0.0066
2514.00,0.0066
2513.00,0.0066
2512.00,0.0066
2511.00,0.0066
2510.00,0.0066
2509.00,0.0066
2508.00,0.0066
2507.00,0.0066
2506.00,0.0066
2505.00,0.0066
2504.00,0.0066
2503.00,0.0066
2502.00,0.0066
2501.00,0.0066
2500.00,0.0066
2499.00,0.0066
2498.00,0.0065
2497.00,0.0065
2496.00,0.0065
2495.00,0.0065
2494.00,0.0065
2493.00,0.0065
2492.00,0.0065
2491.00,0.0065
2490.00,0.0065
2489.00,0.0065
2488.00,0.0065
2487.00,0.0065
2486.00,0.0065
2485.00,0.0065
2484.00,0.0065
2483.00,0.0065
2482.00,0.0065
2481.00,0.0065
2480.00,0.0065
2479.00,0.0065
2478.00,0.0065
2477.00,0.0065
2476.00,0.0065
2475.00,0.0065
2474.00,0.0065
2473.00,0.0065
2472.00,0.0065
2471.00,0.0065
2470.00,0.0065
2469.00,0.0064
2468.00,0.0064
2467.00,0.0064
2466.00,0.0064
2465.00,0.0064
2464.00,0.0064
2463.00,0.0064
2462.00,0.0065
2461.00,0.0065
2460.00,0.0065
2459.00,0.0066
2458.00,0.0066
2457.00,0.0066
2456.00,0.0066
2455.00,0.0066
2454.00,0.0066
2453.00,0.0066
2452.00,0.0066
2451.00,0.0066
2450.00,0.0066
2449.00,0.0066
2448.00,0.0066
2447.00,0.0065
2446.00,0.0065
2445.00,0.0065
2444.00,0.0065
2443.00,0.0065
2442.00,0.0065
2441.00,0.0065
2440.00,0.0064
2439.00,0.0064
2438.00,0.0064
2437.00,0.0064
2436.00,0.0064
2435.00,0.0065
2434.00,0.0065
2433.00,0.0065
2432.00,0.0065
2431.00,0.0064
2430.00,0.0064
2429.00,0.0064
2428.00,0.0064
2427.00,0.0064
2426.00,0.0064
2425.00,0.0064
2424.00,0.0064
2423.00,0.0064
2422.00,0.0065
2421.00,0.0065
2420.00,0.0065
2419.00,0.0065
2418.00,0.0065
2417.00,0.0065
2416.00,0.0065
2415.00,0.0065
2414.00,0.0065
2413.00,0.0065
2412.00,0.0065
2411.00,0.0065
2410.00,0.0064
2409.00,0.0064
2408.00,0.0063
2407.00,0.0063
2406.00,0.0062
2405.00,0.0062
2404.00,0.0062
2403.00,0.0062
2402.00,0.0062
2401.00,0.0062
2400.00,0.0062
2399.00,0.0063
2398.00,0.0063
2397.00,0.0063
2396.00,0.0063
2395.00,0.0063
2394.00,0.0063
2393.00,0.0063
2392.00,0.0063
2391.00,0.0062
2390.00,0.0062
2389.00,0.0062
2388.00,0.0062
2387.00,0.0062
2386.00,0.0061
2385.00,0.0061
2384.00,0.0061
2383.00,0.0061
2382.00,0.0061
2381.00,0.0062
2380.00,0.0062
2379.00,0.0062
2378.00,0.0061
2377.00,0.0061
2376.00,0.0061
2375.00,0.0061
2374.00,0.0061
2373.00,0.0061
2372.00,0.0061
2371.00,0.0061
2370.00,0.0061
2369.00,0.0061
2368.00,0.0061
2367.00,0.0061
2366.00,0.0061
2365.00,0.0061
2364.00,0.0062
2363.00,0.0063
2362.00,0.0063
2361.00,0.0064
2360.00,0.0063
2359.00,0.0063
2358.00,0.0063
2357.00,0.0062
2356.00,0.0062
2355.00,0.0061
2354.00,0.0061
2353.00,0.0061
2352.00,0.0060
2351.00,0.0061
2350.00,0.0062
2349.00,0.0064
2348.00,0.0066
2347.00,0.0067
2346.00,0.0067
2345.00,0.0066
2344.00,0.0066
2343.00,0.0066
2342.00,0.0066
2341.00,0.0066
2340.00,0.0067
2339.00,0.0067
2338.00,0.0067
2337.00,0.0067
2336.00,0.0067
2335.00,0.0067
2334.00,0.0066
2333.00,0.0066
2332.00,0.0066
2331.00,0.0066
2330.00,0.0067
2329.00,0.0069
2328.00,0.0072
2327.00,0.0076
2326.00,0.0079
2325.00,0.0079
2324.00,0.0078
2323.00,0.0076
2322.00,0.0074
2321.00,0.0073
2320.00,0.0072
2319.00,0.0072
2318.00,0.0072
2317.00,0.0072
2316.00,0.0072
2315.00,0.0071
2314.00,0.0071
2313.00,0.0071
2312.00,0.0071
2311.00,0.0071
2310.00,0.0070
2309.00,0.0070
2308.00,0.0070
2307.00,0.0069
2306.00,0.0069
2305.00,0.0069
2304.00,0.0070
2303.00,0.0070
2302.00,0.0070
2301.00,0.0071
2300.00,0.0071
2299.00,0.0071
2298.00,0.0071
2297.00,0.0071
2296.00,0.0072
2295.00,0.0072
2294.00,0.0072
2293.00,0.0073
2292.00,0.0074
2291.00,0.0074
2290.00,0.0075
2289.00,0.0076
2288.00,0.0077
2287.00,0.0077
2286.00,0.0077
2285.00,0.0077
2284.00,0.0076
2283.00,0.0075
2282.00,0.0073
2281.00,0.0073
2280.00,0.0072
2279.00,0.0072
2278.00,0.0072
2277.00,0.0072
2276.00,0.0071
2275.00,0.0071
2274.00,0.0071
2273.00,0.0071
2272.00,0.0071
2271.00,0.0071
2270.00,0.0070
2269.00,0.0069
2268.00,0.0069
2267.00,0.0068
2266.00,0.0068
2265.00,0.0069
2264.00,0.0069
2263.00,0.0069
2262.00,0.0069
2261.00,0.0069
2260.00,0.0069
2259.00,0.0069
2258.00,0.0069
2257.00,0.0068
2256.00,0.0068
2255.00,0.0067
2254.00,0.0067
2253.00,0.0066
2252.00,0.0066
2251.00,0.0066
2250.00,0.0066
2249.00,0.0066
2248.00,0.0067
2247.00,0.0067
2246.00,0.0067
2245.00,0.0067
2244.00,0.0068
2243.00,0.0068
2242.00,0.0068
2241.00,0.0068
2240.00,0.0069
2239.00,0.0069
2238.00,0.0069
2237.00,0.0068
2236.00,0.0068
2235.00,0.0068
2234.00,0.0068
2233.00,0.0068
2232.00,0.0068
2231.00,0.0069
2230.00,0.0069
2229.00,0.0069
2228.00,0.0069
2227.00,0.0069
2226.00,0.0069
2225.00,0.0069
2224.00,0.0069
2223.00,0.0069
2222.00,0.0068
2221.00,0.0067
2220.00,0.0067
2219.00,0.0067
2218.00,0.0066
2217.00,0.0066
2216.00,0.0066
2215.00,0.0066
2214.00,0.0066
2213.00,0.0066
2212.00,0.0066
2211.00,0.0066
2210.00,0.0067
2209.00,0.0067
2208.00,0.0067
2207.00,0.0067
2206.00,0.0067
2205.00,0.0067
2204.00,0.0066
2203.00,0.0066
2202.00,0.0065
2201.00,0.0065
2200.00,0.0065
2199.00,0.0066
2198.00,0.0067
2197.00,0.0068
2196.00,0.0068
2195.00,0.0068
2194.00,0.0067
2193.00,0.0068
2192.00,0.0069
2191.00,0.0071
2190.00,0.0071
2189.00,0.0072
2188.00,0.0072
2187.00,0.0073
2186.00,0.0072
2185.00,0.0070
2184.00,0.0067
2183.00,0.0064
2182.00,0.0061
2181.00,0.0061
2180.00,0.0063
2179.00,0.0064
2178.00,0.0064
2177.00,0.0064
2176.00,0.0064
2175.00,0.0065
2174.00,0.0067
2173.00,0.0069
2172.00,0.0071
2171.00,0.0074
2170.00,0.0075
2169.00,0.0076
2168.00,0.0076
2167.00,0.0077
2166.00,0.0078
2165.00,0.0080
2164.00,0.0082
2163.00,0.0081
2162.00,0.0075
2161.00,0.0063
2160.00,0.0048
2159.00,0.0037
2158.00,0.0033
2157.00,0.0035
2156.00,0.0040
2155.00,0.0044
2154.00,0.0047
2153.00,0.0049
2152.00,0.0050
2151.00,0.0051
2150.00,0.0051
2149.00,0.0050
2148.00,0.0050
2147.00,0.0050
2146.00,0.0049
2145.00,0.0048
2144.00,0.0048
2143.00,0.0049
2142.00,0.0050
2141.00,0.0051
2140.00,0.0051
2139.00,0.0051
2138.00,0.0050
2137.00,0.0048
2136.00,0.0047
2135.00,0.0045
2134.00,0.0045
2133.00,0.0046
2132.00,0.0048
2131.00,0.0050
2130.00,0.0052
2129.00,0.0053
2128.00,0.0054
2127.00,0.0055
2126.00,0.0056
2125.00,0.0057
2124.00,0.0058
2123.00,0.0059
2122.00,0.0060
2121.00,0.0061
2120.00,0.0062
2119.00,0.0064
2118.00,0.0064
2117.00,0.0065
2116.00,0.0065
2115.00,0.0065
2114.00,0.0065
2113.00,0.0065
2112.00,0.0066
2111.00,0.0066
2110.00,0.0066
2109.00,0.0065
2108.00,0.0065
2107.00,0.0066
2106.00,0.0066
2105.00,0.0066
2104.00,0.0066
2103.00,0.0066
2102.00,0.0066
2101.00,0.0066
2100.00,0.0066
2099.00,0.0065
2098.00,0.0063
2097.00,0.0061
2096.00,0.0059
2095.00,0.0058
2094.00,0.0058
2093.00,0.0059
2092.00,0.0061
2091.00,0.0062
2090.00,0.0063
2089.00,0.0064
2088.00,0.0064
2087.00,0.0065
2086.00,0.0064
2085.00,0.0064
2084.00,0.0065
2083.00,0.0066
2082.00,0.0067
2081.00,0.0067
2080.00,0.0067
2079.00,0.0067
2078.00,0.0066
2077.00,0.0066
2076.00,0.0066
2075.00,0.0067
2074.00,0.0067
2073.00,0.0066
2072.00,0.0066
2071.00,0.0065
2070.00,0.0064
2069.00,0.0063
2068.00,0.0063
2067.00,0.0063
2066.00,0.0063
2065.00,0.0062
2064.00,0.0062
2063.00,0.0061
2062.00,0.0061
2061.00,0.0062
2060.00,0.0063
2059.00,0.0064
2058.00,0.0065
2057.00,0.0065
2056.00,0.0064
2055.00,0.0064
2054.00,0.0066
2053.00,0.0070
2052.00,0.0073
2051.00,0.0073
2050.00,0.0070
2049.00,0.0066
2048.00,0.0064
2047.00,0.0064
2046.00,0.0065
2045.00,0.0065
2044.00,0.0066
2043.00,0.0067
2042.00,0.0066
2041.00,0.0066
2040.00,0.0065
2039.00,0.0064
2038.00,0.0062
2037.00,0.0060
2036.00,0.0058
2035.00,0.0057
2034.00,0.0056
2033.00,0.0056
2032.00,0.0056
2031.00,0.0057
2030.00,0.0057
2029.00,0.0057
2028.00,0.0057
2027.00,0.0055
2026.00,0.0053
2025.00,0.0052
2024.00,0.0053
2023.00,0.0054
2022.00,0.0055
2021.00,0.0055
2020.00,0.0054
2019.00,0.0053
2018.00,0.0053
2017.00,0.0054
2016.00,0.0055
2015.00,0.0057
2014.00,0.0057
2013.00,0.0057
2012.00,0.0056
2011.00,0.0055
2010.00,0.0053
2009.00,0.0050
2008.00,0.0048
2007.00,0.0047
2006.00,0.0045
2005.00,0.0046
2004.00,0.0047
2003.00,0.0048
2002.00,0.0049
2001.00,0.0050
2000.00,0.0051
1999.00,0.0052
1998.00,0.0053
1997.00,0.0054
1996.00,0.0055
1995.00,0.0055
1994.00,0.0055
1993.00,0.0055
1992.00,0.0055
1991.00,0.0056
1990.00,0.0056
1989.00,0.0057
1988.00,0.0059
1987.00,0.0060
1986.00,0.0060
1985.00,0.0060
1984.00,0.0061
1983.00,0.0063
1982.00,0.0066
1981.00,0.0068
1980.00,0.0067
1979.00,0.0061
1978.00,0.0053
1977.00,0.0047
1976.00,0.0045
1975.00,0.0045
1974.00,0.0045
1973.00,0.0046
1972.00,0.0047
1971.00,0.0048
1970.00,0.0048
1969.00,0.0049
1968.00,0.0049
1967.00,0.0049
1966.00,0.0048
1965.00,0.0047
1964.00,0.0047
1963.00,0.0046
1962.00,0.0044
1961.00,0.0042
1960.00,0.0040
1959.00,0.0040
1958.00,0.0040
1957.00,0.0042
1956.00,0.0045
1955.00,0.0047
1954.00,0.0048
1953.00,0.0047
1952.00,0.0046
1951.00,0.0046
1950.00,0.0046
1949.00,0.0047
1948.00,0.0048
1947.00,0.0049
1946.00,0.0049
1945.00,0.0048
1944.00,0.0048
1943.00,0.0048
1942.00,0.0047
1941.00,0.0048
1940.00,0.0048
1939.00,0.0049
1938.00,0.0049
1937.00,0.0048
1936.00,0.0048
1935.00,0.0047
1934.00,0.0047
1933.00,0.0047
1932.00,0.0048
1931.00,0.0048
1930.00,0.0048
1929.00,0.0048
1928.00,0.0048
1927.00,0.0048
1926.00,0.0048
1925.00,0.0048
1924.00,0.0048
1923.00,0.0049
1922.00,0.0049
1921.00,0.0050
1920.00,0.0050
1919.00,0.0050
1918.00,0.0050
1917.00,0.0049
1916.00,0.0050
1915.00,0.0050
1914.00,0.0050
1913.00,0.0051
1912.00,0.0051
1911.00,0.0051
1910.00,0.0050
1909.00,0.0050
1908.00,0.0051
1907.00,0.0051
1906.00,0.0051
1905.00,0.0051
1904.00,0.0051
1903.00,0.0050
1902.00,0.0050
1901.00,0.0050
1900.00,0.0050
1899.00,0.0050
1898.00,0.0050
1897.00,0.0050
1896.00,0.0050
1895.00,0.0050
1894.00,0.0050
1893.00,0.0050
1892.00,0.0050
1891.00,0.0050
1890.00,0.0049
1889.00,0.0049
1888.00,0.0049
1887.00,0.0049
1886.00,0.0049
1885.00,0.0049
1884.00,0.0049
1883.00,0.0049
1882.00,0.0049
1881.00,0.0050
1880.00,0.0050
1879.00,0.0050
1878.00,0.0050
1877.00,0.0050
1876.00,0.0050
1875.00,0.0050
1874.00,0.0049
1873.00,0.0049
1872.00,0.0049
1871.00,0.0049
1870.00,0.0049
1869.00,0.0049
1868.00,0.0049
1867.00,0.0049
1866.00,0.0049
1865.00,0.0049
1864.00,0.0049
1863.00,0.0050
1862.00,0.0050
1861.00,0.0049
1860.00,0.0050
1859.00,0.0050
1858.00,0.0049
1857.00,0.0049
1856.00,0.0049
1855.00,0.0049
1854.00,0.0049
1853.00,0.0049
1852.00,0.0049
1851.00,0.0049
1850.00,0.0049
1849.00,0.0049
1848.00,0.0050
1847.00,0.0050
1846.00,0.0050
1845.00,0.0050
1844.00,0.0050
1843.00,0.0050
1842.00,0.0049
1841.00,0.0049
1840.00,0.0049
1839.00,0.0049
1838.00,0.0049
1837.00,0.0048
1836.00,0.0049
1835.00,0.0049
1834.00,0.0049
1833.00,0.0049
1832.00,0.0049
1831.00,0.0049
1830.00,0.0049
1829.00,0.0050
1828.00,0.0050
1827.00,0.0050
1826.00,0.0049
1825.00,0.0049
1824.00,0.0049
1823.00,0.0048
1822.00,0.0048
1821.00,0.0048
1820.00,0.0047
1819.00,0.0047
1818.00,0.0046
1817.00,0.0045
1816.00,0.0046
1815.00,0.0046
1814.00,0.0047
1813.00,0.0047
1812.00,0.0047
1811.00,0.0047
1810.00,0.0047
1809.00,0.0047
1808.00,0.0047
1807.00,0.0048
1806.00,0.0047
1805.00,0.0047
1804.00,0.0047
1803.00,0.0047
1802.00,0.0047
1801.00,0.0047
1800.00,0.0047
1799.00,0.0048
1798.00,0.0048
1797.00,0.0048
1796.00,0.0048
1795.00,0.0048
1794.00,0.0048
1793.00,0.0047
1792.00,0.0047
1791.00,0.0047
1790.00,0.0047
1789.00,0.0047
1788.00,0.0047
1787.00,0.0047
1786.00,0.0047
1785.00,0.0047
1784.00,0.0047
1783.00,0.0047
1782.00,0.0047
1781.00,0.0048
1780.00,0.0048
1779.00,0.0048
1778.00,0.0047
1777.00,0.0047
1776.00,0.0048
1775.00,0.0048
1774.00,0.0048
1773.00,0.0048
1772.00,0.0048
1771.00,0.0049
1770.00,0.0049
1769.00,0.0049
1768.00,0.0049
1767.00,0.0049
1766.00,0.0049
1765.00,0.0049
1764.00,0.0049
1763.00,0.0049
1762.00,0.0049
1761.00,0.0049
1760.00,0.0049
1759.00,0.0050
1758.00,0.0050
1757.00,0.0050
1756.00,0.0051
1755.00,0.0051
1754.00,0.0051
1753.00,0.0052
1752.00,0.0052
1751.00,0.0053
1750.00,0.0053
1749.00,0.0054
1748.00,0.0055
1747.00,0.0056
1746.00,0.0057
1745.00,0.0057
1744.00,0.0057
1743.00,0.0058
1742.00,0.0058
1741.00,0.0058
1740.00,0.0058
1739.00,0.0059
1738.00,0.0060
1737.00,0.0061
1736.00,0.0062
1735.00,0.0062
1734.00,0.0062
1733.00,0.0062
1732.00,0.0064
1731.00,0.0066
1730.00,0.0067
1729.00,0.0069
1728.00,0.0070
1727.00,0.0072
1726.00,0.0073
1725.00,0.0075
1724.00,0.0077
1723.00,0.0080
1722.00,0.0082
1721.00,0.0084
1720.00,0.0087
1719.00,0.0091
1718.00,0.0094
1717.00,0.0098
1716.00,0.0103
1715.00,0.0108
1714.00,0.0113
1713.00,0.0119
1712.00,0.0125
1711.00,0.0133
1710.00,0.0141
1709.00,0.0150
1708.00,0.0160
1707.00,0.0172
1706.00,0.0186
1705.00,0.0200
1704.00,0.0216
1703.00,0.0232
1702.00,0.0249
1701.00,0.0271
1700.00,0.0297
1699.00,0.0323
1698.00,0.0349
1697.00,0.0376
1696.00,0.0409
1695.00,0.0443
1694.00,0.0475
1693.00,0.0507
1692.00,0.0540
1691.00,0.0576
1690.00,0.0613
1689.00,0.0651
1688.00,0.0688
1687.00,0.0724
1686.00,0.0761
1685.00,0.0801
1684.00,0.0843
1683.00,0.0881
1682.00,0.0916
1681.00,0.0952
1680.00,0.0988
1679.00,0.1023
1678.00,0.1057
1677.00,0.1090
1676.00,0.1122
1675.00,0.1150
1674.00,0.1176
1673.00,0.1202
1672.00,0.1229
1671.00,0.1254
1670.00,0.1273
1669.00,0.1289
1668.00,0.1303
1667.00,0.1319
1666.00,0.1337
1665.00,0.1354
1664.00,0.1369
1663.00,0.1380
1662.00,0.1387
1661.00,0.1394
1660.00,0.1403
1659.00,0.1414
1658.00,0.1423
1657.00,0.1434
1656.00,0.1446
1655.00,0.1455
1654.00,0.1446
1653.00,0.1417
1652.00,0.1387
1651.00,0.1374
1650.00,0.1372
1649.00,0.1369
1648.00,0.1354
1647.00,0.1323
1646.00,0.1281
1645.00,0.1241
1644.00,0.1208
1643.00,0.1179
1642.00,0.1147
1641.00,0.1113
1640.00,0.1078
1639.00,0.1046
1638.00,0.1014
1637.00,0.0978
1636.00,0.0933
1635.00,0.0887
1634.00,0.0848
1633.00,0.0818
1632.00,0.0794
1631.00,0.0770
1630.00,0.0744
1629.00,0.0717
1628.00,0.0690
1627.00,0.0666
1626.00,0.0643
1625.00,0.0622
1624.00,0.0599
1623.00,0.0576
1622.00,0.0555
1621.00,0.0537
1620.00,0.0522
1619.00,0.0507
1618.00,0.0491
1617.00,0.0472
1616.00,0.0453
1615.00,0.0437
1614.00,0.0425
1613.00,0.0413
1612.00,0.0401
1611.00,0.0389
1610.00,0.0377
1609.00,0.0365
1608.00,0.0354
1607.00,0.0344
1606.00,0.0334
1605.00,0.0325
1604.00,0.0316
1603.00,0.0308
1602.00,0.0300
1601.00,0.0293
1600.00,0.0285
1599.00,0.0278
1598.00,0.0271
1597.00,0.0265
1596.00,0.0259
1595.00,0.0254
1594.00,0.0248
1593.00,0.0243
1592.00,0.0237
1591.00,0.0232
1590.00,0.0228
1589.00,0.0223
1588.00,0.0219
1587.00,0.0214
1586.00,0.0210
1585.00,0.0207
1584.00,0.0203
1583.00,0.0200
1582.00,0.0196
1581.00,0.0193
1580.00,0.0191
1579.00,0.0188
1578.00,0.0186
1577.00,0.0183
1576.00,0.0179
1575.00,0.0176
1574.00,0.0174
1573.00,0.0172
1572.00,0.0170
1571.00,0.0169
1570.00,0.0167
1569.00,0.0165
1568.00,0.0163
1567.00,0.0161
1566.00,0.0160
1565.00,0.0158
1564.00,0.0157
1563.00,0.0156
1562.00,0.0155
1561.00,0.0153
1560.00,0.0150
1559.00,0.0148
1558.00,0.0147
1557.00,0.0146
1556.00,0.0145
1555.00,0.0145
1554.00,0.0144
1553.00,0.0143
1552.00,0.0143
1551.00,0.0142
1550.00,0.0141
1549.00,0.0141
1548.00,0.0140
1547.00,0.0138
1546.00,0.0138
1545.00,0.0137
1544.00,0.0136
1543.00,0.0136
1542.00,0.0136
1541.00,0.0135
1540.00,0.0134
1539.00,0.0132
1538.00,0.0131
1537.00,0.0130
1536.00,0.0130
1535.00,0.0129
1534.00,0.0128
1533.00,0.0127
1532.00,0.0127
1531.00,0.0127
1530.00,0.0126
1529.00,0.0126
1528.00,0.0126
1527.00,0.0126
1526.00,0.0126
1525.00,0.0125
1524.00,0.0125
1523.00,0.0125
1522.00,0.0124
1521.00,0.0124
1520.00,0.0124
1519.00,0.0125
1518.00,0.0126
1517.00,0.0127
1516.00,0.0127
1515.00,0.0128
1514.00,0.0129
1513.00,0.0131
1512.00,0.0133
1511.00,0.0136
1510.00,0.0140
1509.00,0.0144
1508.00,0.0150
1507.00,0.0158
1506.00,0.0167
1505.00,0.0176
1504.00,0.0186
1503.00,0.0197
1502.00,0.0209
1501.00,0.0223
1500.00,0.0237
1499.00,0.0252
1498.00,0.0266
1497.00,0.0280
1496.00,0.0292
1495.00,0.0301
1494.00,0.0308
1493.00,0.0312
1492.00,0.0313
1491.00,0.0310
1490.00,0.0303
1489.00,0.0293
1488.00,0.0281
1487.00,0.0268
1486.00,0.0254
1485.00,0.0241
1484.00,0.0229
1483.00,0.0218
1482.00,0.0208
1481.00,0.0200
1480.00,0.0195
1479.00,0.0191
1478.00,0.0190
1477.00,0.0192
1476.00,0.0196
1475.00,0.0202
1474.00,0.0212
1473.00,0.0226
1472.00,0.0244
1471.00,0.0265
1470.00,0.0288
1469.00,0.0314
1468.00,0.0343
1467.00,0.0374
1466.00,0.0408
1465.00,0.0444
1464.00,0.0478
1463.00,0.0506
1462.00,0.0526
1461.00,0.0541
1460.00,0.0548
1459.00,0.0546
1458.00,0.0532
1457.00,0.0505
1456.00,0.0475
1455.00,0.0449
1454.00,0.0430
1453.00,0.0415
1452.00,0.0402
1451.00,0.0392
1450.00,0.0388
1449.00,0.0389
1448.00,0.0395
1447.00,0.0406
1446.00,0.0422
1445.00,0.0441
1444.00,0.0464
1443.00,0.0490
1442.00,0.0517
1441.00,0.0545
1440.00,0.0573
1439.00,0.0600
1438.00,0.0625
1437.00,0.0650
1436.00,0.0671
1435.00,0.0689
1434.00,0.0703
1433.00,0.0717
1432.00,0.0729
1431.00,0.0741
1430.00,0.0754
1429.00,0.0771
1428.00,0.0792
1427.00,0.0816
1426.00,0.0844
1425.00,0.0875
1424.00,0.0904
1423.00,0.0928
1422.00,0.0945
1421.00,0.0954
1420.00,0.0948
1419.00,0.0926
1418.00,0.0892
1417.00,0.0853
1416.00,0.0810
1415.00,0.0761
1414.00,0.0709
1413.00,0.0657
1412.00,0.0606
1411.00,0.0557
1410.00,0.0513
1409.00,0.0474
1408.00,0.0440
1407.00,0.0409
1406.00,0.0382
1405.00,0.0359
1404.00,0.0337
1403.00,0.0320
1402.00,0.0305
1401.00,0.0294
1400.00,0.0283
1399.00,0.0273
1398.00,0.0266
1397.00,0.0260
1396.00,0.0255
1395.00,0.0251
1394.00,0.0249
1393.00,0.0248
1392.00,0.0247
1391.00,0.0248
1390.00,0.0251
1389.00,0.0254
1388.00,0.0258
1387.00,0.0263
1386.00,0.0269
1385.00,0.0276
1384.00,0.0283
1383.00,0.0291
1382.00,0.0299
1381.00,0.0308
1380.00,0.0317
1379.00,0.0325
1378.00,0.0334
1377.00,0.0342
1376.00,0.0348
1375.00,0.0354
1374.00,0.0358
1373.00,0.0361
1372.00,0.0361
1371.00,0.0360
1370.00,0.0357
1369.00,0.0352
1368.00,0.0346
1367.00,0.0338
1366.00,0.0330
1365.00,0.0321
1364.00,0.0311
1363.00,0.0301
1362.00,0.0290
1361.00,0.0280
1360.00,0.0270
1359.00,0.0261
1358.00,0.0253
1357.00,0.0246
1356.00,0.0239
1355.00,0.0233
1354.00,0.0228
1353.00,0.0223
1352.00,0.0218
1351.00,0.0214
1350.00,0.0211
1349.00,0.0207
1348.00,0.0204
1347.00,0.0201
1346.00,0.0199
1345.00,0.0197
1344.00,0.0196
1343.00,0.0195
1342.00,0.0194
1341.00,0.0194
1340.00,0.0194
1339.00,0.0195
1338.00,0.0196
1337.00,0.0197
1336.00,0.0199
1335.00,0.0201
1334.00,0.0205
1333.00,0.0209
1332.00,0.0214
1331.00,0.0219
1330.00,0.0226
1329.00,0.0234
1328.00,0.0243
1327.00,0.0253
1326.00,0.0264
1325.00,0.0276
1324.00,0.0289
1323.00,0.0302
1322.00,0.0315
1321.00,0.0328
1320.00,0.0340
1319.00,0.0350
1318.00,0.0359
1317.00,0.0365
1316.00,0.0368
1315.00,0.0369
1314.00,0.0367
1313.00,0.0362
1312.00,0.0356
1311.00,0.0350
1310.00,0.0343
1309.00,0.0337
1308.00,0.0332
1307.00,0.0329
1306.00,0.0328
1305.00,0.0330
1304.00,0.0334
1303.00,0.0342
1302.00,0.0354
1301.00,0.0370
1300.00,0.0391
1299.00,0.0417
1298.00,0.0449
1297.00,0.0487
1296.00,0.0531
1295.00,0.0579
1294.00,0.0632
1293.00,0.0687
1292.00,0.0742
1291.00,0.0797
1290.00,0.0849
1289.00,0.0896
1288.00,0.0936
1287.00,0.0969
1286.00,0.0992
1285.00,0.1006
1284.00,0.1010
1283.00,0.1006
1282.00,0.0996
1281.00,0.0982
1280.00,0.0968
1279.00,0.0955
1278.00,0.0947
1277.00,0.0944
1276.00,0.0946
1275.00,0.0953
1274.00,0.0963
1273.00,0.0973
1272.00,0.0982
1271.00,0.0989
1270.00,0.0991
1269.00,0.0987
1268.00,0.0978
1267.00,0.0962
1266.00,0.0942
1265.00,0.0916
1264.00,0.0888
1263.00,0.0857
1262.00,0.0825
1261.00,0.0792
1260.00,0.0759
1259.00,0.0727
1258.00,0.0696
1257.00,0.0668
1256.00,0.0641
1255.00,0.0616
1254.00,0.0594
1253.00,0.0574
1252.00,0.0555
1251.00,0.0539
1250.00,0.0525
1249.00,0.0512
1248.00,0.0502
1247.00,0.0493
1246.00,0.0486
1245.00,0.0480
1244.00,0.0475
1243.00,0.0472
1242.00,0.0471
1241.00,0.0471
1240.00,0.0472
1239.00,0.0475
1238.00,0.0479
1237.00,0.0483
1236.00,0.0488
1235.00,0.0494
1234.00,0.0500
1233.00,0.0505
1232.00,0.0510
1231.00,0.0514
1230.00,0.0517
1229.00,0.0519
1228.00,0.0520
1227.00,0.0519
1226.00,0.0518
1225.00,0.0515
1224.00,0.0512
1223.00,0.0508
1222.00,0.0504
1221.00,0.0500
1220.00,0.0495
1219.00,0.0489
1218.00,0.0484
1217.00,0.0478
1216.00,0.0472
1215.00,0.0465
1214.00,0.0457
1213.00,0.0450
1212.00,0.0442
1211.00,0.0434
1210.00,0.0426
1209.00,0.0418
1208.00,0.0411
1207.00,0.0404
1206.00,0.0397
1205.00,0.0391
1204.00,0.0385
1203.00,0.0380
1202.00,0.0375
1201.00,0.0370
1200.00,0.0365
1199.00,0.0360
1198.00,0.0356
1197.00,0.0351
1196.00,0.0347
1195.00,0.0343
1194.00,0.0340
1193.00,0.0336
1192.00,0.0333
1191.00,0.0331
1190.00,0.0329
1189.00,0.0327
1188.00,0.0325
1187.00,0.0324
1186.00,0.0323
1185.00,0.0323
1184.00,0.0322
1183.00,0.0322
1182.00,0.0323
1181.00,0.0324
1180.00,0.0325
1179.00,0.0327
1178.00,0.0330
1177.00,0.0334
1176.00,0.0338
1175.00,0.0342
1174.00,0.0347
1173.00,0.0352
1172.00,0.0356
1171.00,0.0361
1170.00,0.0364
1169.00,0.0367
1168.00,0.0368
1167.00,0.0367
1166.00,0.0366
1165.00,0.0363
1164.00,0.0359
1163.00,0.0354
1162.00,0.0348
1161.00,0.0341
1160.00,0.0334
1159.00,0.0327
1158.00,0.0320
1157.00,0.0314
1156.00,0.0308
1155.00,0.0301
1154.00,0.0296
1153.00,0.0290
1152.00,0.0285
1151.00,0.0280
1150.00,0.0276
1149.00,0.0272
1148.00,0.0267
1147.00,0.0262
1146.00,0.0258
1145.00,0.0253
1144.00,0.0249
1143.00,0.0244
1142.00,0.0241
1141.00,0.0237
1140.00,0.0232
1139.00,0.0229
1138.00,0.0225
1137.00,0.0223
1136.00,0.0221
1135.00,0.0219
1134.00,0.0218
1133.00,0.0218
1132.00,0.0217
1131.00,0.0217
1130.00,0.0218
1129.00,0.0219
1128.00,0.0220
1127.00,0.0221
1126.00,0.0223
1125.00,0.0224
1124.00,0.0225
1123.00,0.0226
1122.00,0.0228
1121.00,0.0229
1120.00,0.0230
1119.00,0.0230
1118.00,0.0231
1117.00,0.0232
1116.00,0.0232
1115.00,0.0232
1114.00,0.0233
1113.00,0.0233
1112.00,0.0234
1111.00,0.0234
1110.00,0.0234
1109.00,0.0235
1108.00,0.0235
1107.00,0.0235
1106.00,0.0236
1105.00,0.0236
1104.00,0.0236
1103.00,0.0236
1102.00,0.0236
1101.00,0.0236
1100.00,0.0236
1099.00,0.0236
1098.00,0.0236
1097.00,0.0236
1096.00,0.0236
1095.00,0.0236
1094.00,0.0236
1093.00,0.0237
1092.00,0.0237
1091.00,0.0237
1090.00,0.0238
1089.00,0.0238
1088.00,0.0238
1087.00,0.0238
1086.00,0.0238
1085.00,0.0239
1084.00,0.0240
1083.00,0.0241
1082.00,0.0243
1081.00,0.0246
1080.00,0.0248
1079.00,0.0251
1078.00,0.0253
1077.00,0.0256
1076.00,0.0258
1075.00,0.0259
1074.00,0.0261
1073.00,0.0261
1072.00,0.0260
1071.00,0.0258
1070.00,0.0255
1069.00,0.0253
1068.00,0.0251
1067.00,0.0248
1066.00,0.0246
1065.00,0.0244
1064.00,0.0241
1063.00,0.0239
1062.00,0.0237
1061.00,0.0235
1060.00,0.0233
1059.00,0.0231
1058.00,0.0231
1057.00,0.0230
1056.00,0.0229
1055.00,0.0228
1054.00,0.0227
1053.00,0.0227
1052.00,0.0226
1051.00,0.0225
1050.00,0.0225
1049.00,0.0224
1048.00,0.0223
1047.00,0.0223
1046.00,0.0222
1045.00,0.0222
1044.00,0.0222
1043.00,0.0222
1042.00,0.0222
1041.00,0.0221
1040.00,0.0221
1039.00,0.0220
1038.00,0.0221
1037.00,0.0221
1036.00,0.0222
1035.00,0.0223
1034.00,0.0224
1033.00,0.0226
1032.00,0.0227
1031.00,0.0229
1030.00,0.0231
1029.00,0.0233
1028.00,0.0236
1027.00,0.0240
1026.00,0.0244
1025.00,0.0249
1024.00,0.0255
1023.00,0.0260
1022.00,0.0266
1021.00,0.0271
1020.00,0.0275
1019.00,0.0278
1018.00,0.0280
1017.00,0.0280
1016.00,0.0278
1015.00,0.0274
1014.00,0.0269
1013.00,0.0262
1012.00,0.0255
1011.00,0.0248
1010.00,0.0243
1009.00,0.0240
1008.00,0.0237
1007.00,0.0237
1006.00,0.0238
1005.00,0.0240
1004.00,0.0243
1003.00,0.0246
1002.00,0.0249
1001.00,0.0250
1000.00,0.0250
999.00,0.0248
998.00,0.0246
997.00,0.0242
996.00,0.0238
995.00,0.0233
994.00,0.0229
993.00,0.0225
992.00,0.0220
991.00,0.0216
990.00,0.0213
989.00,0.0210
988.00,0.0207
987.00,0.0204
986.00,0.0202
985.00,0.0201
984.00,0.0199
983.00,0.0197
982.00,0.0195
981.00,0.0194
980.00,0.0192
979.00,0.0190
978.00,0.0188
977.00,0.0187
976.00,0.0185
975.00,0.0184
974.00,0.0183
973.00,0.0182
972.00,0.0181
971.00,0.0179
970.00,0.0179
969.00,0.0178
968.00,0.0177
967.00,0.0176
966.00,0.0175
965.00,0.0174
964.00,0.0173
963.00,0.0172
962.00,0.0171
961.00,0.0170
960.00,0.0169
959.00,0.0168
958.00,0.0167
957.00,0.0167
956.00,0.0166
955.00,0.0165
954.00,0.0164
953.00,0.0164
952.00,0.0163
951.00,0.0163
950.00,0.0163
949.00,0.0163
948.00,0.0163
947.00,0.0163
946.00,0.0164
945.00,0.0165
944.00,0.0166
943.00,0.0169
942.00,0.0172
941.00,0.0176
940.00,0.0181
939.00,0.0186
938.00,0.0192
937.00,0.0198
936.00,0.0205
935.00,0.0211
934.00,0.0215
933.00,0.0217
932.00,0.0217
931.00,0.0214
930.00,0.0209
929.00,0.0205
928.00,0.0201
927.00,0.0199
926.00,0.0197
925.00,0.0195
924.00,0.0192
923.00,0.0190
922.00,0.0188
921.00,0.0186
920.00,0.0183
919.00,0.0181
918.00,0.0180
917.00,0.0179
916.00,0.0177
915.00,0.0176
914.00,0.0175
913.00,0.0174
912.00,0.0172
911.00,0.0172
910.00,0.0172
909.00,0.0173
908.00,0.0174
907.00,0.0175
906.00,0.0177
905.00,0.0179
904.00,0.0182
903.00,0.0184
902.00,0.0188
901.00,0.0192
900.00,0.0194
899.00,0.0197
898.00,0.0200
897.00,0.0202
896.00,0.0203
895.00,0.0203
894.00,0.0203
893.00,0.0203
892.00,0.0201
891.00,0.0199
890.00,0.0196
889.00,0.0194
888.00,0.0191
887.00,0.0189
886.00,0.0187
885.00,0.0184
884.00,0.0182
883.00,0.0179
882.00,0.0178
881.00,0.0177
880.00,0.0176
879.00,0.0175
878.00,0.0174
877.00,0.0174
876.00,0.0173
875.00,0.0173
874.00,0.0174
873.00,0.0175
872.00,0.0175
871.00,0.0176
870.00,0.0177
869.00,0.0178
868.00,0.0180
867.00,0.0182
866.00,0.0185
865.00,0.0188
864.00,0.0191
863.00,0.0195
862.00,0.0199
861.00,0.0204
860.00,0.0209
859.00,0.0216
858.00,0.0223
857.00,0.0231
856.00,0.0238
855.00,0.0246
854.00,0.0254
853.00,0.0263
852.00,0.0272
851.00,0.0280
850.00,0.0288
849.00,0.0296
848.00,0.0301
847.00,0.0306
846.00,0.0310
845.00,0.0312
844.00,0.0313
843.00,0.0312
842.00,0.0311
841.00,0.0308
840.00,0.0304
839.00,0.0299
838.00,0.0294
837.00,0.0289
836.00,0.0283
835.00,0.0277
834.00,0.0272
833.00,0.0266
832.00,0.0260
831.00,0.0253
830.00,0.0247
829.00,0.0241
828.00,0.0234
827.00,0.0229
826.00,0.0223
825.00,0.0218
824.00,0.0213
823.00,0.0209
822.00,0.0205
821.00,0.0202
820.00,0.0199
819.00,0.0196
818.00,0.0193
817.00,0.0191
816.00,0.0189
815.00,0.0187
814.00,0.0185
813.00,0.0183
812.00,0.0181
811.00,0.0180
810.00,0.0179
809.00,0.0179
808.00,0.0178
807.00,0.0176
806.00,0.0176
805.00,0.0175
804.00,0.0174
803.00,0.0174
802.00,0.0174
801.00,0.0173
800.00,0.0173
799.00,0.0172
798.00,0.0172
797.00,0.0172
796.00,0.0171
795.00,0.0170
794.00,0.0171
793.00,0.0171
792.00,0.0171
791.00,0.0172
790.00,0.0173
789.00,0.0174
788.00,0.0174
787.00,0.0174
786.00,0.0175
785.00,0.0175
784.00,0.0175
783.00,0.0176
782.00,0.0177
781.00,0.0178
780.00,0.0178
779.00,0.0178
778.00,0.0179
777.00,0.0180
776.00,0.0181
775.00,0.0183
774.00,0.0184
773.00,0.0186
772.00,0.0187
771.00,0.0189
770.00,0.0192
769.00,0.0195
768.00,0.0197
767.00,0.0200
766.00,0.0203
765.00,0.0207
764.00,0.0210
763.00,0.0213
762.00,0.0217
761.00,0.0222
760.00,0.0226
759.00,0.0230
758.00,0.0235
757.00,0.0240
756.00,0.0243
755.00,0.0248
754.00,0.0253
753.00,0.0258
752.00,0.0262
751.00,0.0266
750.00,0.0271
749.00,0.0276
748.00,0.0281
747.00,0.0285
746.00,0.0290
745.00,0.0295
744.00,0.0299
743.00,0.0303
742.00,0.0308
741.00,0.0312
740.00,0.0316
739.00,0.0320
738.00,0.0324
737.00,0.0329
736.00,0.0332
735.00,0.0335
734.00,0.0338
733.00,0.0339
732.00,0.0337
731.00,0.0334
730.00,0.0329
729.00,0.0324
728.00,0.0317
727.00,0.0310
726.00,0.0303
725.00,0.0296
724.00,0.0290
723.00,0.0285
722.00,0.0280
721.00,0.0276
720.00,0.0272
719.00,0.0268
718.00,0.0265
717.00,0.0263
716.00,0.0262
715.00,0.0261
714.00,0.0260
713.00,0.0259
712.00,0.0258
711.00,0.0257
710.00,0.0257
709.00,0.0257
708.00,0.0257
707.00,0.0258
706.00,0.0260
705.00,0.0262
704.00,0.0263
703.00,0.0265
702.00,0.0267
701.00,0.0269
700.00,0.0271
699.00,0.0272
698.00,0.0275
697.00,0.0277
696.00,0.0279
695.00,0.0282
694.00,0.0286
693.00,0.0289
692.00,0.0292
691.00,0.0295
690.00,0.0299
689.00,0.0303
688.00,0.0306
687.00,0.0309
686.00,0.0313
685.00,0.0317
684.00,0.0320
683.00,0.0324
682.00,0.0328
681.00,0.0332
680.00,0.0335
679.00,0.0339
678.00,0.0344
677.00,0.0349
676.00,0.0353
675.00,0.0357
674.00,0.0363
673.00,0.0368
672.00,0.0372
671.00,0.0377
670.00,0.0382
669.00,0.0387
668.00,0.0393
667.00,0.0402
666.00,0.0412
665.00,0.0421
664.00,0.0429
663.00,0.0438
662.00,0.0448
661.00,0.0458
660.00,0.0467
659.00,0.0478
658.00,0.0490
657.00,0.0502
656.00,0.0514
655.00,0.0525
654.00,0.0536
653.00,0.0545
652.00,0.0553
651.00,0.0559
650.00,0.0565
649.00,0.0569
648.00,0.0571
647.00,0.0571
646.00,0.0570
645.00,0.0568
644.00,0.0563
643.00,0.0558
642.00,0.0553
641.00,0.0546
640.00,0.0539
639.00,0.0531
638.00,0.0524
637.00,0.0517
636.00,0.0510
635.00,0.0505
634.00,0.0501
633.00,0.0496
632.00,0.0490
631.00,0.0485
630.00,0.0481
629.00,0.0477
628.00,0.0472
627.00,0.0468
626.00,0.0464
625.00,0.0461
624.00,0.0458
623.00,0.0455
622.00,0.0454
621.00,0.0454
620.00,0.0452
619.00,0.0450
618.00,0.0450
617.00,0.0449
616.00,0.0448
615.00,0.0447
614.00,0.0448
613.00,0.0448
612.00,0.0448
611.00,0.0447
610.00,0.0448
609.00,0.0449
608.00,0.0449
607.00,0.0449
606.00,0.0450
605.00,0.0452
604.00,0.0452
603.00,0.0454
602.00,0.0457
601.00,0.0460
600.00,0.0461
599.00,0.0463
598.00,0.0466
597.00,0.0470
596.00,0.0473
595.00,0.0477
594.00,0.0481
593.00,0.0485
592.00,0.0489
591.00,0.0493
590.00,0.0499
589.00,0.0505
588.00,0.0511
587.00,0.0519
586.00,0.0528
585.00,0.0538
584.00,0.0547
583.00,0.0557
582.00,0.0569
581.00,0.0581
580.00,0.0591
579.00,0.0601
578.00,0.0610
577.00,0.0619
576.00,0.0624
575.00,0.0629
574.00,0.0635
573.00,0.0639
572.00,0.0641
571.00,0.0643
570.00,0.0644
569.00,0.0644
568.00,0.0641
567.00,0.0636
566.00,0.0632
565.00,0.0626
564.00,0.0618
563.00,0.0612
562.00,0.0607
561.00,0.0602
560.00,0.0594
559.00,0.0586
558.00,0.0581
557.00,0.0576
556.00,0.0571
555.00,0.0567
554.00,0.0564
553.00,0.0562
552.00,0.0557
551.00,0.0552
550.00,0.0549
549.00,0.0547
548.00,0.0543
547.00,0.0540
546.00,0.0538
545.00,0.0536
544.00,0.0533
543.00,0.0529
542.00,0.0527
541.00,0.0525
540.00,0.0522
539.00,0.0521
538.00,0.0522
537.00,0.0522
536.00,0.0521
535.00,0.0519
534.00,0.0518
533.00,0.0518
532.00,0.0516
531.00,0.0516
530.00,0.0518
529.00,0.0520
528.00,0.0519
527.00,0.0518
526.00,0.0518
525.00,0.0519
524.00,0.0519
523.00,0.0519
522.00,0.0521
521.00,0.0523
520.00,0.0522
519.00,0.0521
518.00,0.0521
517.00,0.0521
516.00,0.0520
515.00,0.0521
514.00,0.0523
513.00,0.0524
512.00,0.0523
511.00,0.0522
510.00,0.0524
509.00,0.0526
508.00,0.0526
507.00,0.0525
506.00,0.0526
505.00,0.0526
504.00,0.0525
503.00,0.0525
502.00,0.0527
501.00,0.0529
500.00,0.0529
499.00,0.0528
498.00,0.0530
497.00,0.0531
496.00,0.0531
495.00,0.0531
494.00,0.0533
493.00,0.0536
492.00,0.0536
491.00,0.0538
490.00,0.0542
489.00,0.0545
488.00,0.0546
487.00,0.0546
486.00,0.0550
485.00,0.0553
484.00,0.0554
483.00,0.0556
482.00,0.0561
481.00,0.0565
480.00,0.0565
479.00,0.0564
478.00,0.0566
477.00,0.0569
476.00,0.0570
475.00,0.0574
474.00,0.0581
473.00,0.0587
472.00,0.0587
471.00,0.0585
470.00,0.0585
469.00,0.0584
468.00,0.0580
467.00,0.0575
466.00,0.0574
465.00,0.0574
464.00,0.0573
463.00,0.0573
462.00,0.0575
461.00,0.0576
460.00,0.0572
459.00,0.0569
458.00,0.0569
457.00,0.0566
456.00,0.0559
455.00,0.0554
454.00,0.0554
453.00,0.0555
452.00,0.0551
451.00,0.0546
450.00,0.0546
449.00,0.0547
448.00,0.0545
447.00,0.0542
446.00,0.0541
445.00,0.0536
444.00,0.0528
443.00,0.0522
442.00,0.0522
441.00,0.0522
440.00,0.0517
439.00,0.0512
438.00,0.0513
437.00,0.0513
436.00,0.0508
435.00,0.0505
434.00,0.0507
433.00,0.0507
432.00,0.0500
431.00,0.0494
430.00,0.0494
429.00,0.0494
428.00,0.0488
427.00,0.0480
426.00,0.0477
425.00,0.0475
424.00,0.0473
423.00,0.0475
422.00,0.0484
421.00,0.0488
420.00,0.0481
419.00,0.0472
418.00,0.0475
417.00,0.0477
416.00,0.0471
415.00,0.0464
414.00,0.0465
413.00,0.0468
412.00,0.0463
411.00,0.0457
410.00,0.0457
409.00,0.0457
408.00,0.0452
407.00,0.0453
406.00,0.0466
405.00,0.0477
404.00,0.0474
403.00,0.0468
402.00,0.0469
401.00,0.0466
400.00,0.0453
