Created as New Dataset,Sample 452 By YargerLab Date Tuesday, January 27 2026
cm-1,A
4000.00,0.0045
3999.00,0.0045
3998.00,0.0045
3997.00,0.0045
3996.00,0.0045
3995.00,0.0045
3994.00,0.0045
3993.00,0.0045
3992.00,0.0045
3991.00,0.0045
3990.00,0.0045
3989.00,0.0045
3988.00,0.0045
3987.00,0.0045
3986.00,0.0045
3985.00,0.0045
3984.00,0.0044
3983.00,0.0044
3982.00,0.0045
3981.00,0.0045
3980.00,0.0045
3979.00,0.0045
3978.00,0.0045
3977.00,0.0045
3976.00,0.0045
3975.00,0.0045
3974.00,0.0045
3973.00,0.0045
3972.00,0.0045
3971.00,0.0045
3970.00,0.0045
3969.00,0.0045
3968.00,0.0045
3967.00,0.0045
3966.00,0.0045
3965.00,0.0045
3964.00,0.0044
3963.00,0.0044
3962.00,0.0044
3961.00,0.0044
3960.00,0.0044
3959.00,0.0044
3958.00,0.0045
3957.00,0.0045
3956.00,0.0045
3955.00,0.0045
3954.00,0.0045
3953.00,0.0045
3952.00,0.0045
3951.00,0.0045
3950.00,0.0045
3949.00,0.0045
3948.00,0.0045
3947.00,0.0045
3946.00,0.0045
3945.00,0.0045
3944.00,0.0045
3943.00,0.0045
3942.00,0.0044
3941.00,0.0044
3940.00,0.0044
3939.00,0.0045
3938.00,0.0045
3937.00,0.0045
3936.00,0.0045
3935.00,0.0045
3934.00,0.0045
3933.00,0.0045
3932.00,0.0045
3931.00,0.0045
3930.00,0.0044
3929.00,0.0044
3928.00,0.0044
3927.00,0.0044
3926.00,0.0044
3925.00,0.0044
3924.00,0.0044
3923.00,0.0044
3922.00,0.0045
3921.00,0.0045
3920.00,0.0045
3919.00,0.0045
3918.00,0.0045
3917.00,0.0045
3916.00,0.0045
3915.00,0.0045
3914.00,0.0045
3913.00,0.0045
3912.00,0.0045
3911.00,0.0045
3910.00,0.0045
3909.00,0.0045
3908.00,0.0045
3907.00,0.0045
3906.00,0.0046
3905.00,0.0046
3904.00,0.0045
3903.00,0.0045
3902.00,0.0045
3901.00,0.0045
3900.00,0.0044
3899.00,0.0044
3898.00,0.0044
3897.00,0.0044
3896.00,0.0045
3895.00,0.0045
3894.00,0.0045
3893.00,0.0045
3892.00,0.0045
3891.00,0.0045
3890.00,0.0045
3889.00,0.0045
3888.00,0.0045
3887.00,0.0045
3886.00,0.0045
3885.00,0.0045
3884.00,0.0045
3883.00,0.0045
3882.00,0.0045
3881.00,0.0045
3880.00,0.0045
3879.00,0.0045
3878.00,0.0045
3877.00,0.0045
3876.00,0.0045
3875.00,0.0045
3874.00,0.0045
3873.00,0.0045
3872.00,0.0045
3871.00,0.0045
3870.00,0.0045
3869.00,0.0045
3868.00,0.0045
3867.00,0.0045
3866.00,0.0045
3865.00,0.0045
3864.00,0.0045
3863.00,0.0045
3862.00,0.0045
3861.00,0.0045
3860.00,0.0045
3859.00,0.0045
3858.00,0.0045
3857.00,0.0045
3856.00,0.0045
3855.00,0.0045
3854.00,0.0046
3853.00,0.0046
3852.00,0.0046
3851.00,0.0046
3850.00,0.0046
3849.00,0.0046
3848.00,0.0045
3847.00,0.0045
3846.00,0.0045
3845.00,0.0045
3844.00,0.0045
3843.00,0.0045
3842.00,0.0046
3841.00,0.0046
3840.00,0.0046
3839.00,0.0045
3838.00,0.0045
3837.00,0.0045
3836.00,0.0045
3835.00,0.0045
3834.00,0.0045
3833.00,0.0045
3832.00,0.0045
3831.00,0.0045
3830.00,0.0045
3829.00,0.0045
3828.00,0.0045
3827.00,0.0045
3826.00,0.0045
3825.00,0.0045
3824.00,0.0045
3823.00,0.0045
3822.00,0.0046
3821.00,0.0046
3820.00,0.0046
3819.00,0.0046
3818.00,0.0046
3817.00,0.0046
3816.00,0.0046
3815.00,0.0046
3814.00,0.0046
3813.00,0.0045
3812.00,0.0045
3811.00,0.0045
3810.00,0.0045
3809.00,0.0045
3808.00,0.0046
3807.00,0.0046
3806.00,0.0046
3805.00,0.0046
3804.00,0.0046
3803.00,0.0046
3802.00,0.0046
3801.00,0.0046
3800.00,0.0045
3799.00,0.0045
3798.00,0.0045
3797.00,0.0046
3796.00,0.0046
3795.00,0.0046
3794.00,0.0046
3793.00,0.0045
3792.00,0.0045
3791.00,0.0045
3790.00,0.0045
3789.00,0.0045
3788.00,0.0045
3787.00,0.0045
3786.00,0.0045
3785.00,0.0045
3784.00,0.0045
3783.00,0.0045
3782.00,0.0046
3781.00,0.0046
3780.00,0.0045
3779.00,0.0045
3778.00,0.0045
3777.00,0.0045
3776.00,0.0045
3775.00,0.0045
3774.00,0.0045
3773.00,0.0045
3772.00,0.0045
3771.00,0.0045
3770.00,0.0045
3769.00,0.0045
3768.00,0.0045
3767.00,0.0045
3766.00,0.0045
3765.00,0.0045
3764.00,0.0045
3763.00,0.0045
3762.00,0.0045
3761.00,0.0046
3760.00,0.0046
3759.00,0.0046
3758.00,0.0045
3757.00,0.0045
3756.00,0.0045
3755.00,0.0045
3754.00,0.0045
3753.00,0.0046
3752.00,0.0046
3751.00,0.0046
3750.00,0.0045
3749.00,0.0045
3748.00,0.0045
3747.00,0.0045
3746.00,0.0045
3745.00,0.0045
3744.00,0.0044
3743.00,0.0044
3742.00,0.0044
3741.00,0.0045
3740.00,0.0045
3739.00,0.0045
3738.00,0.0045
3737.00,0.0045
3736.00,0.0045
3735.00,0.0045
3734.00,0.0044
3733.00,0.0044
3732.00,0.0044
3731.00,0.0044
3730.00,0.0044
3729.00,0.0044
3728.00,0.0044
3727.00,0.0044
3726.00,0.0044
3725.00,0.0044
3724.00,0.0043
3723.00,0.0043
3722.00,0.0043
3721.00,0.0042
3720.00,0.0042
3719.00,0.0042
3718.00,0.0042
3717.00,0.0042
3716.00,0.0042
3715.00,0.0042
3714.00,0.0042
3713.00,0.0042
3712.00,0.0041
3711.00,0.0041
3710.00,0.0041
3709.00,0.0041
3708.00,0.0041
3707.00,0.0042
3706.00,0.0042
3705.00,0.0041
3704.00,0.0041
3703.00,0.0041
3702.00,0.0041
3701.00,0.0041
3700.00,0.0041
3699.00,0.0041
3698.00,0.0042
3697.00,0.0042
3696.00,0.0042
3695.00,0.0042
3694.00,0.0042
3693.00,0.0043
3692.00,0.0043
3691.00,0.0044
3690.00,0.0044
3689.00,0.0044
3688.00,0.0044
3687.00,0.0044
3686.00,0.0044
3685.00,0.0044
3684.00,0.0043
3683.00,0.0043
3682.00,0.0043
3681.00,0.0043
3680.00,0.0044
3679.00,0.0044
3678.00,0.0045
3677.00,0.0045
3676.00,0.0045
3675.00,0.0045
3674.00,0.0045
3673.00,0.0045
3672.00,0.0045
3671.00,0.0045
3670.00,0.0045
3669.00,0.0045
3668.00,0.0045
3667.00,0.0045
3666.00,0.0045
3665.00,0.0045
3664.00,0.0046
3663.00,0.0046
3662.00,0.0046
3661.00,0.0046
3660.00,0.0047
3659.00,0.0047
3658.00,0.0047
3657.00,0.0047
3656.00,0.0047
3655.00,0.0048
3654.00,0.0048
3653.00,0.0049
3652.00,0.0049
3651.00,0.0050
3650.00,0.0051
3649.00,0.0051
3648.00,0.0052
3647.00,0.0052
3646.00,0.0052
3645.00,0.0053
3644.00,0.0053
3643.00,0.0053
3642.00,0.0053
3641.00,0.0053
3640.00,0.0053
3639.00,0.0054
3638.00,0.0054
3637.00,0.0055
3636.00,0.0055
3635.00,0.0056
3634.00,0.0057
3633.00,0.0058
3632.00,0.0058
3631.00,0.0059
3630.00,0.0059
3629.00,0.0059
3628.00,0.0060
3627.00,0.0060
3626.00,0.0061
3625.00,0.0062
3624.00,0.0062
3623.00,0.0063
3622.00,0.0064
3621.00,0.0065
3620.00,0.0065
3619.00,0.0066
3618.00,0.0067
3617.00,0.0067
3616.00,0.0067
3615.00,0.0068
3614.00,0.0069
3613.00,0.0069
3612.00,0.0070
3611.00,0.0070
3610.00,0.0071
3609.00,0.0072
3608.00,0.0073
3607.00,0.0073
3606.00,0.0074
3605.00,0.0074
3604.00,0.0075
3603.00,0.0076
3602.00,0.0077
3601.00,0.0078
3600.00,0.0078
3599.00,0.0079
3598.00,0.0080
3597.00,0.0080
3596.00,0.0081
3595.00,0.0082
3594.00,0.0083
3593.00,0.0084
3592.00,0.0085
3591.00,0.0086
3590.00,0.0087
3589.00,0.0088
3588.00,0.0089
3587.00,0.0090
3586.00,0.0091
3585.00,0.0092
3584.00,0.0093
3583.00,0.0093
3582.00,0.0094
3581.00,0.0096
3580.00,0.0097
3579.00,0.0098
3578.00,0.0099
3577.00,0.0099
3576.00,0.0100
3575.00,0.0101
3574.00,0.0102
3573.00,0.0104
3572.00,0.0105
3571.00,0.0106
3570.00,0.0107
3569.00,0.0108
3568.00,0.0109
3567.00,0.0110
3566.00,0.0111
3565.00,0.0113
3564.00,0.0114
3563.00,0.0115
3562.00,0.0116
3561.00,0.0116
3560.00,0.0117
3559.00,0.0118
3558.00,0.0119
3557.00,0.0119
3556.00,0.0120
3555.00,0.0121
3554.00,0.0122
3553.00,0.0123
3552.00,0.0124
3551.00,0.0125
3550.00,0.0126
3549.00,0.0127
3548.00,0.0128
3547.00,0.0128
3546.00,0.0129
3545.00,0.0129
3544.00,0.0130
3543.00,0.0131
3542.00,0.0131
3541.00,0.0132
3540.00,0.0132
3539.00,0.0133
3538.00,0.0133
3537.00,0.0134
3536.00,0.0135
3535.00,0.0135
3534.00,0.0136
3533.00,0.0136
3532.00,0.0137
3531.00,0.0137
3530.00,0.0138
3529.00,0.0138
3528.00,0.0138
3527.00,0.0139
3526.00,0.0139
3525.00,0.0139
3524.00,0.0139
3523.00,0.0140
3522.00,0.0140
3521.00,0.0140
3520.00,0.0140
3519.00,0.0141
3518.00,0.0141
3517.00,0.0141
3516.00,0.0141
3515.00,0.0142
3514.00,0.0142
3513.00,0.0142
3512.00,0.0142
3511.00,0.0142
3510.00,0.0142
3509.00,0.0142
3508.00,0.0142
3507.00,0.0143
3506.00,0.0143
3505.00,0.0143
3504.00,0.0143
3503.00,0.0143
3502.00,0.0144
3501.00,0.0144
3500.00,0.0144
3499.00,0.0145
3498.00,0.0145
3497.00,0.0145
3496.00,0.0144
3495.00,0.0144
3494.00,0.0144
3493.00,0.0144
3492.00,0.0144
3491.00,0.0145
3490.00,0.0145
3489.00,0.0145
3488.00,0.0145
3487.00,0.0145
3486.00,0.0145
3485.00,0.0145
3484.00,0.0145
3483.00,0.0145
3482.00,0.0145
3481.00,0.0146
3480.00,0.0146
3479.00,0.0146
3478.00,0.0147
3477.00,0.0146
3476.00,0.0146
3475.00,0.0146
3474.00,0.0146
3473.00,0.0146
3472.00,0.0147
3471.00,0.0147
3470.00,0.0147
3469.00,0.0147
3468.00,0.0147
3467.00,0.0147
3466.00,0.0147
3465.00,0.0147
3464.00,0.0147
3463.00,0.0147
3462.00,0.0147
3461.00,0.0147
3460.00,0.0147
3459.00,0.0147
3458.00,0.0148
3457.00,0.0147
3456.00,0.0147
3455.00,0.0147
3454.00,0.0147
3453.00,0.0147
3452.00,0.0147
3451.00,0.0147
3450.00,0.0147
3449.00,0.0147
3448.00,0.0147
3447.00,0.0147
3446.00,0.0146
3445.00,0.0146
3444.00,0.0146
3443.00,0.0146
3442.00,0.0145
3441.00,0.0145
3440.00,0.0145
3439.00,0.0144
3438.00,0.0144
3437.00,0.0144
3436.00,0.0143
3435.00,0.0143
3434.00,0.0143
3433.00,0.0143
3432.00,0.0142
3431.00,0.0142
3430.00,0.0142
3429.00,0.0141
3428.00,0.0141
3427.00,0.0140
3426.00,0.0140
3425.00,0.0140
3424.00,0.0140
3423.00,0.0139
3422.00,0.0139
3421.00,0.0139
3420.00,0.0139
3419.00,0.0138
3418.00,0.0138
3417.00,0.0137
3416.00,0.0137
3415.00,0.0136
3414.00,0.0136
3413.00,0.0135
3412.00,0.0135
3411.00,0.0135
3410.00,0.0134
3409.00,0.0134
3408.00,0.0134
3407.00,0.0134
3406.00,0.0133
3405.00,0.0132
3404.00,0.0131
3403.00,0.0131
3402.00,0.0130
3401.00,0.0129
3400.00,0.0129
3399.00,0.0129
3398.00,0.0129
3397.00,0.0129
3396.00,0.0129
3395.00,0.0128
3394.00,0.0127
3393.00,0.0127
3392.00,0.0126
3391.00,0.0126
3390.00,0.0126
3389.00,0.0125
3388.00,0.0125
3387.00,0.0125
3386.00,0.0124
3385.00,0.0124
3384.00,0.0124
3383.00,0.0124
3382.00,0.0123
3381.00,0.0123
3380.00,0.0123
3379.00,0.0122
3378.00,0.0122
3377.00,0.0122
3376.00,0.0121
3375.00,0.0121
3374.00,0.0120
3373.00,0.0119
3372.00,0.0119
3371.00,0.0118
3370.00,0.0118
3369.00,0.0117
3368.00,0.0117
3367.00,0.0117
3366.00,0.0118
3365.00,0.0118
3364.00,0.0118
3363.00,0.0118
3362.00,0.0118
3361.00,0.0117
3360.00,0.0117
3359.00,0.0117
3358.00,0.0117
3357.00,0.0118
3356.00,0.0118
3355.00,0.0117
3354.00,0.0117
3353.00,0.0116
3352.00,0.0115
3351.00,0.0115
3350.00,0.0115
3349.00,0.0115
3348.00,0.0115
3347.00,0.0116
3346.00,0.0116
3345.00,0.0115
3344.00,0.0115
3343.00,0.0115
3342.00,0.0114
3341.00,0.0114
3340.00,0.0113
3339.00,0.0113
3338.00,0.0113
3337.00,0.0114
3336.00,0.0114
3335.00,0.0115
3334.00,0.0115
3333.00,0.0115
3332.00,0.0115
3331.00,0.0114
3330.00,0.0114
3329.00,0.0114
3328.00,0.0113
3327.00,0.0112
3326.00,0.0112
3325.00,0.0112
3324.00,0.0112
3323.00,0.0113
3322.00,0.0113
3321.00,0.0113
3320.00,0.0113
3319.00,0.0113
3318.00,0.0112
3317.00,0.0112
3316.00,0.0112
3315.00,0.0112
3314.00,0.0111
3313.00,0.0111
3312.00,0.0110
3311.00,0.0109
3310.00,0.0107
3309.00,0.0106
3308.00,0.0105
3307.00,0.0104
3306.00,0.0104
3305.00,0.0105
3304.00,0.0106
3303.00,0.0107
3302.00,0.0108
3301.00,0.0109
3300.00,0.0109
3299.00,0.0108
3298.00,0.0107
3297.00,0.0106
3296.00,0.0105
3295.00,0.0105
3294.00,0.0104
3293.00,0.0104
3292.00,0.0104
3291.00,0.0105
3290.00,0.0105
3289.00,0.0105
3288.00,0.0105
3287.00,0.0105
3286.00,0.0105
3285.00,0.0105
3284.00,0.0105
3283.00,0.0105
3282.00,0.0104
3281.00,0.0104
3280.00,0.0103
3279.00,0.0103
3278.00,0.0102
3277.00,0.0102
3276.00,0.0101
3275.00,0.0101
3274.00,0.0100
3273.00,0.0099
3272.00,0.0098
3271.00,0.0098
3270.00,0.0098
3269.00,0.0099
3268.00,0.0099
3267.00,0.0099
3266.00,0.0099
3265.00,0.0098
3264.00,0.0098
3263.00,0.0098
3262.00,0.0097
3261.00,0.0097
3260.00,0.0097
3259.00,0.0096
3258.00,0.0096
3257.00,0.0095
3256.00,0.0094
3255.00,0.0094
3254.00,0.0094
3253.00,0.0094
3252.00,0.0093
3251.00,0.0093
3250.00,0.0093
3249.00,0.0092
3248.00,0.0091
3247.00,0.0091
3246.00,0.0091
3245.00,0.0091
3244.00,0.0091
3243.00,0.0090
3242.00,0.0090
3241.00,0.0090
3240.00,0.0089
3239.00,0.0089
3238.00,0.0088
3237.00,0.0088
3236.00,0.0087
3235.00,0.0087
3234.00,0.0086
3233.00,0.0086
3232.00,0.0086
3231.00,0.0086
3230.00,0.0086
3229.00,0.0086
3228.00,0.0085
3227.00,0.0085
3226.00,0.0085
3225.00,0.0085
3224.00,0.0084
3223.00,0.0084
3222.00,0.0083
3221.00,0.0083
3220.00,0.0083
3219.00,0.0083
3218.00,0.0082
3217.00,0.0082
3216.00,0.0082
3215.00,0.0082
3214.00,0.0081
3213.00,0.0081
3212.00,0.0081
3211.00,0.0081
3210.00,0.0081
3209.00,0.0080
3208.00,0.0080
3207.00,0.0079
3206.00,0.0079
3205.00,0.0079
3204.00,0.0078
3203.00,0.0078
3202.00,0.0078
3201.00,0.0078
3200.00,0.0078
3199.00,0.0077
3198.00,0.0077
3197.00,0.0077
3196.00,0.0077
3195.00,0.0076
3194.00,0.0076
3193.00,0.0076
3192.00,0.0076
3191.00,0.0075
3190.00,0.0075
3189.00,0.0075
3188.00,0.0075
3187.00,0.0075
3186.00,0.0074
3185.00,0.0074
3184.00,0.0074
3183.00,0.0074
3182.00,0.0073
3181.00,0.0073
3180.00,0.0073
3179.00,0.0072
3178.00,0.0072
3177.00,0.0072
3176.00,0.0072
3175.00,0.0072
3174.00,0.0072
3173.00,0.0072
3172.00,0.0072
3171.00,0.0072
3170.00,0.0072
3169.00,0.0072
3168.00,0.0072
3167.00,0.0072
3166.00,0.0071
3165.00,0.0071
3164.00,0.0071
3163.00,0.0071
3162.00,0.0071
3161.00,0.0070
3160.00,0.0070
3159.00,0.0070
3158.00,0.0070
3157.00,0.0070
3156.00,0.0070
3155.00,0.0070
3154.00,0.0069
3153.00,0.0069
3152.00,0.0069
3151.00,0.0069
3150.00,0.0069
3149.00,0.0069
3148.00,0.0068
3147.00,0.0068
3146.00,0.0068
3145.00,0.0068
3144.00,0.0068
3143.00,0.0067
3142.00,0.0067
3141.00,0.0067
3140.00,0.0067
3139.00,0.0067
3138.00,0.0068
3137.00,0.0068
3136.00,0.0068
3135.00,0.0068
3134.00,0.0067
3133.00,0.0067
3132.00,0.0067
3131.00,0.0067
3130.00,0.0067
3129.00,0.0067
3128.00,0.0067
3127.00,0.0067
3126.00,0.0067
3125.00,0.0067
3124.00,0.0067
3123.00,0.0067
3122.00,0.0067
3121.00,0.0066
3120.00,0.0066
3119.00,0.0066
3118.00,0.0066
3117.00,0.0066
3116.00,0.0066
3115.00,0.0066
3114.00,0.0066
3113.00,0.0066
3112.00,0.0066
3111.00,0.0066
3110.00,0.0065
3109.00,0.0065
3108.00,0.0065
3107.00,0.0065
3106.00,0.0065
3105.00,0.0066
3104.00,0.0066
3103.00,0.0066
3102.00,0.0066
3101.00,0.0065
3100.00,0.0065
3099.00,0.0065
3098.00,0.0065
3097.00,0.0065
3096.00,0.0065
3095.00,0.0065
3094.00,0.0065
3093.00,0.0064
3092.00,0.0064
3091.00,0.0064
3090.00,0.0064
3089.00,0.0064
3088.00,0.0064
3087.00,0.0064
3086.00,0.0063
3085.00,0.0063
3084.00,0.0063
3083.00,0.0063
3082.00,0.0063
3081.00,0.0062
3080.00,0.0062
3079.00,0.0062
3078.00,0.0062
3077.00,0.0062
3076.00,0.0062
3075.00,0.0062
3074.00,0.0063
3073.00,0.0062
3072.00,0.0062
3071.00,0.0062
3070.00,0.0062
3069.00,0.0062
3068.00,0.0062
3067.00,0.0062
3066.00,0.0062
3065.00,0.0062
3064.00,0.0062
3063.00,0.0062
3062.00,0.0062
3061.00,0.0062
3060.00,0.0062
3059.00,0.0062
3058.00,0.0062
3057.00,0.0061
3056.00,0.0061
3055.00,0.0061
3054.00,0.0061
3053.00,0.0061
3052.00,0.0061
3051.00,0.0061
3050.00,0.0061
3049.00,0.0061
3048.00,0.0061
3047.00,0.0061
3046.00,0.0060
3045.00,0.0060
3044.00,0.0060
3043.00,0.0060
3042.00,0.0060
3041.00,0.0060
3040.00,0.0061
3039.00,0.0061
3038.00,0.0061
3037.00,0.0061
3036.00,0.0061
3035.00,0.0061
3034.00,0.0061
3033.00,0.0061
3032.00,0.0061
3031.00,0.0061
3030.00,0.0061
3029.00,0.0061
3028.00,0.0062
3027.00,0.0062
3026.00,0.0062
3025.00,0.0062
3024.00,0.0063
3023.00,0.0063
3022.00,0.0064
3021.00,0.0064
3020.00,0.0065
3019.00,0.0065
3018.00,0.0065
3017.00,0.0066
3016.00,0.0066
3015.00,0.0067
3014.00,0.0068
3013.00,0.0069
3012.00,0.0070
3011.00,0.0072
3010.00,0.0074
3009.00,0.0076
3008.00,0.0077
3007.00,0.0079
3006.00,0.0081
3005.00,0.0083
3004.00,0.0086
3003.00,0.0088
3002.00,0.0091
3001.00,0.0093
3000.00,0.0096
2999.00,0.0099
2998.00,0.0102
2997.00,0.0105
2996.00,0.0108
2995.00,0.0111
2994.00,0.0114
2993.00,0.0117
2992.00,0.0120
2991.00,0.0123
2990.00,0.0127
2989.00,0.0130
2988.00,0.0134
2987.00,0.0137
2986.00,0.0140
2985.00,0.0143
2984.00,0.0145
2983.00,0.0147
2982.00,0.0150
2981.00,0.0153
2980.00,0.0156
2979.00,0.0159
2978.00,0.0162
2977.00,0.0164
2976.00,0.0166
2975.00,0.0167
2974.00,0.0169
2973.00,0.0171
2972.00,0.0173
2971.00,0.0176
2970.00,0.0178
2969.00,0.0180
2968.00,0.0182
2967.00,0.0184
2966.00,0.0186
2965.00,0.0189
2964.00,0.0192
2963.00,0.0194
2962.00,0.0197
2961.00,0.0200
2960.00,0.0202
2959.00,0.0204
2958.00,0.0206
2957.00,0.0208
2956.00,0.0210
2955.00,0.0212
2954.00,0.0213
2953.00,0.0214
2952.00,0.0215
2951.00,0.0216
2950.00,0.0216
2949.00,0.0217
2948.00,0.0216
2947.00,0.0216
2946.00,0.0215
2945.00,0.0214
2944.00,0.0213
2943.00,0.0212
2942.00,0.0210
2941.00,0.0209
2940.00,0.0207
2939.00,0.0206
2938.00,0.0205
2937.00,0.0204
2936.00,0.0203
2935.00,0.0203
2934.00,0.0202
2933.00,0.0203
2932.00,0.0203
2931.00,0.0203
2930.00,0.0203
2929.00,0.0204
2928.00,0.0204
2927.00,0.0205
2926.00,0.0205
2925.00,0.0206
2924.00,0.0207
2923.00,0.0207
2922.00,0.0208
2921.00,0.0208
2920.00,0.0208
2919.00,0.0208
2918.00,0.0207
2917.00,0.0207
2916.00,0.0205
2915.00,0.0204
2914.00,0.0202
2913.00,0.0201
2912.00,0.0199
2911.00,0.0197
2910.00,0.0195
2909.00,0.0193
2908.00,0.0191
2907.00,0.0189
2906.00,0.0187
2905.00,0.0186
2904.00,0.0185
2903.00,0.0184
2902.00,0.0184
2901.00,0.0184
2900.00,0.0184
2899.00,0.0185
2898.00,0.0185
2897.00,0.0186
2896.00,0.0186
2895.00,0.0187
2894.00,0.0188
2893.00,0.0188
2892.00,0.0189
2891.00,0.0190
2890.00,0.0191
2889.00,0.0191
2888.00,0.0191
2887.00,0.0192
2886.00,0.0192
2885.00,0.0192
2884.00,0.0192
2883.00,0.0192
2882.00,0.0192
2881.00,0.0192
2880.00,0.0191
2879.00,0.0191
2878.00,0.0190
2877.00,0.0189
2876.00,0.0188
2875.00,0.0187
2874.00,0.0185
2873.00,0.0184
2872.00,0.0183
2871.00,0.0182
2870.00,0.0181
2869.00,0.0179
2868.00,0.0178
2867.00,0.0176
2866.00,0.0175
2865.00,0.0173
2864.00,0.0171
2863.00,0.0170
2862.00,0.0168
2861.00,0.0167
2860.00,0.0165
2859.00,0.0164
2858.00,0.0163
2857.00,0.0161
2856.00,0.0159
2855.00,0.0157
2854.00,0.0155
2853.00,0.0153
2852.00,0.0151
2851.00,0.0149
2850.00,0.0146
2849.00,0.0143
2848.00,0.0140
2847.00,0.0137
2846.00,0.0134
2845.00,0.0131
2844.00,0.0129
2843.00,0.0127
2842.00,0.0126
2841.00,0.0124
2840.00,0.0122
2839.00,0.0121
2838.00,0.0119
2837.00,0.0118
2836.00,0.0116
2835.00,0.0115
2834.00,0.0113
2833.00,0.0110
2832.00,0.0108
2831.00,0.0106
2830.00,0.0103
2829.00,0.0101
2828.00,0.0099
2827.00,0.0097
2826.00,0.0095
2825.00,0.0093
2824.00,0.0092
2823.00,0.0090
2822.00,0.0088
2821.00,0.0087
2820.00,0.0086
2819.00,0.0085
2818.00,0.0083
2817.00,0.0082
2816.00,0.0082
2815.00,0.0081
2814.00,0.0080
2813.00,0.0080
2812.00,0.0079
2811.00,0.0079
2810.00,0.0078
2809.00,0.0078
2808.00,0.0078
2807.00,0.0077
2806.00,0.0077
2805.00,0.0077
2804.00,0.0077
2803.00,0.0077
2802.00,0.0077
2801.00,0.0076
2800.00,0.0076
2799.00,0.0076
2798.00,0.0076
2797.00,0.0076
2796.00,0.0076
2795.00,0.0076
2794.00,0.0075
2793.00,0.0075
2792.00,0.0075
2791.00,0.0075
2790.00,0.0075
2789.00,0.0075
2788.00,0.0074
2787.00,0.0074
2786.00,0.0074
2785.00,0.0074
2784.00,0.0074
2783.00,0.0074
2782.00,0.0074
2781.00,0.0074
2780.00,0.0074
2779.00,0.0073
2778.00,0.0073
2777.00,0.0072
2776.00,0.0072
2775.00,0.0072
2774.00,0.0072
2773.00,0.0072
2772.00,0.0072
2771.00,0.0071
2770.00,0.0071
2769.00,0.0071
2768.00,0.0071
2767.00,0.0071
2766.00,0.0071
2765.00,0.0071
2764.00,0.0070
2763.00,0.0070
2762.00,0.0070
2761.00,0.0070
2760.00,0.0070
2759.00,0.0070
2758.00,0.0070
2757.00,0.0070
2756.00,0.0070
2755.00,0.0070
2754.00,0.0070
2753.00,0.0070
2752.00,0.0070
2751.00,0.0070
2750.00,0.0070
2749.00,0.0070
2748.00,0.0070
2747.00,0.0070
2746.00,0.0070
2745.00,0.0070
2744.00,0.0070
2743.00,0.0070
2742.00,0.0070
2741.00,0.0070
2740.00,0.0070
2739.00,0.0070
2738.00,0.0070
2737.00,0.0070
2736.00,0.0070
2735.00,0.0070
2734.00,0.0069
2733.00,0.0069
2732.00,0.0069
2731.00,0.0069
2730.00,0.0069
2729.00,0.0069
2728.00,0.0069
2727.00,0.0069
2726.00,0.0069
2725.00,0.0069
2724.00,0.0069
2723.00,0.0069
2722.00,0.0069
2721.00,0.0069
2720.00,0.0069
2719.00,0.0069
2718.00,0.0069
2717.00,0.0069
2716.00,0.0069
2715.00,0.0068
2714.00,0.0068
2713.00,0.0068
2712.00,0.0068
2711.00,0.0068
2710.00,0.0068
2709.00,0.0068
2708.00,0.0068
2707.00,0.0068
2706.00,0.0067
2705.00,0.0067
2704.00,0.0067
2703.00,0.0067
2702.00,0.0067
2701.00,0.0067
2700.00,0.0067
2699.00,0.0067
2698.00,0.0067
2697.00,0.0067
2696.00,0.0067
2695.00,0.0066
2694.00,0.0066
2693.00,0.0066
2692.00,0.0067
2691.00,0.0067
2690.00,0.0066
2689.00,0.0066
2688.00,0.0066
2687.00,0.0066
2686.00,0.0066
2685.00,0.0066
2684.00,0.0066
2683.00,0.0066
2682.00,0.0065
2681.00,0.0065
2680.00,0.0065
2679.00,0.0065
2678.00,0.0065
2677.00,0.0066
2676.00,0.0066
2675.00,0.0066
2674.00,0.0066
2673.00,0.0066
2672.00,0.0066
2671.00,0.0066
2670.00,0.0066
2669.00,0.0066
2668.00,0.0066
2667.00,0.0066
2666.00,0.0067
2665.00,0.0067
2664.00,0.0068
2663.00,0.0068
2662.00,0.0069
2661.00,0.0069
2660.00,0.0069
2659.00,0.0069
2658.00,0.0069
2657.00,0.0069
2656.00,0.0070
2655.00,0.0070
2654.00,0.0070
2653.00,0.0070
2652.00,0.0070
2651.00,0.0070
2650.00,0.0070
2649.00,0.0070
2648.00,0.0070
2647.00,0.0070
2646.00,0.0070
2645.00,0.0070
2644.00,0.0070
2643.00,0.0070
2642.00,0.0070
2641.00,0.0070
2640.00,0.0070
2639.00,0.0070
2638.00,0.0070
2637.00,0.0070
2636.00,0.0070
2635.00,0.0070
2634.00,0.0070
2633.00,0.0070
2632.00,0.0069
2631.00,0.0069
2630.00,0.0069
2629.00,0.0069
2628.00,0.0069
2627.00,0.0069
2626.00,0.0068
2625.00,0.0068
2624.00,0.0068
2623.00,0.0068
2622.00,0.0068
2621.00,0.0068
2620.00,0.0068
2619.00,0.0068
2618.00,0.0068
2617.00,0.0068
2616.00,0.0068
2615.00,0.0068
2614.00,0.0068
2613.00,0.0068
2612.00,0.0067
2611.00,0.0067
2610.00,0.0067
2609.00,0.0067
2608.00,0.0067
2607.00,0.0067
2606.00,0.0067
2605.00,0.0067
2604.00,0.0067
2603.00,0.0067
2602.00,0.0067
2601.00,0.0067
2600.00,0.0067
2599.00,0.0067
2598.00,0.0067
2597.00,0.0067
2596.00,0.0067
2595.00,0.0067
2594.00,0.0067
2593.00,0.0067
2592.00,0.0067
2591.00,0.0067
2590.00,0.0067
2589.00,0.0067
2588.00,0.0067
2587.00,0.0067
2586.00,0.0067
2585.00,0.0067
2584.00,0.0067
2583.00,0.0067
2582.00,0.0067
2581.00,0.0068
2580.00,0.0068
2579.00,0.0067
2578.00,0.0067
2577.00,0.0067
2576.00,0.0067
2575.00,0.0067
2574.00,0.0067
2573.00,0.0067
2572.00,0.0067
2571.00,0.0067
2570.00,0.0067
2569.00,0.0067
2568.00,0.0067
2567.00,0.0066
2566.00,0.0066
2565.00,0.0066
2564.00,0.0066
2563.00,0.0066
2562.00,0.0066
2561.00,0.0066
2560.00,0.0066
2559.00,0.0065
2558.00,0.0065
2557.00,0.0065
2556.00,0.0065
2555.00,0.0065
2554.00,0.0065
2553.00,0.0065
2552.00,0.0065
2551.00,0.0065
2550.00,0.0064
2549.00,0.0064
2548.00,0.0064
2547.00,0.0064
2546.00,0.0064
2545.00,0.0064
2544.00,0.0065
2543.00,0.0065
2542.00,0.0065
2541.00,0.0065
2540.00,0.0065
2539.00,0.0064
2538.00,0.0064
2537.00,0.0064
2536.00,0.0064
2535.00,0.0065
2534.00,0.0064
2533.00,0.0064
2532.00,0.0064
2531.00,0.0064
2530.00,0.0063
2529.00,0.0063
2528.00,0.0063
2527.00,0.0062
2526.00,0.0062
2525.00,0.0062
2524.00,0.0062
2523.00,0.0062
2522.00,0.0062
2521.00,0.0062
2520.00,0.0062
2519.00,0.0063
2518.00,0.0063
2517.00,0.0063
2516.00,0.0063
2515.00,0.0063
2514.00,0.0062
2513.00,0.0062
2512.00,0.0063
2511.00,0.0063
2510.00,0.0063
2509.00,0.0063
2508.00,0.0063
2507.00,0.0063
2506.00,0.0063
2505.00,0.0062
2504.00,0.0062
2503.00,0.0062
2502.00,0.0061
2501.00,0.0061
2500.00,0.0061
2499.00,0.0062
2498.00,0.0062
2497.00,0.0062
2496.00,0.0062
2495.00,0.0062
2494.00,0.0062
2493.00,0.0062
2492.00,0.0062
2491.00,0.0063
2490.00,0.0063
2489.00,0.0062
2488.00,0.0062
2487.00,0.0062
2486.00,0.0061
2485.00,0.0061
2484.00,0.0062
2483.00,0.0062
2482.00,0.0062
2481.00,0.0062
2480.00,0.0062
2479.00,0.0062
2478.00,0.0062
2477.00,0.0062
2476.00,0.0062
2475.00,0.0061
2474.00,0.0061
2473.00,0.0061
2472.00,0.0061
2471.00,0.0061
2470.00,0.0061
2469.00,0.0061
2468.00,0.0061
2467.00,0.0061
2466.00,0.0061
2465.00,0.0061
2464.00,0.0061
2463.00,0.0061
2462.00,0.0061
2461.00,0.0061
2460.00,0.0062
2459.00,0.0062
2458.00,0.0063
2457.00,0.0063
2456.00,0.0063
2455.00,0.0063
2454.00,0.0063
2453.00,0.0063
2452.00,0.0062
2451.00,0.0062
2450.00,0.0062
2449.00,0.0062
2448.00,0.0062
2447.00,0.0062
2446.00,0.0062
2445.00,0.0062
2444.00,0.0062
2443.00,0.0062
2442.00,0.0062
2441.00,0.0061
2440.00,0.0061
2439.00,0.0061
2438.00,0.0061
2437.00,0.0061
2436.00,0.0061
2435.00,0.0061
2434.00,0.0061
2433.00,0.0061
2432.00,0.0061
2431.00,0.0061
2430.00,0.0061
2429.00,0.0061
2428.00,0.0061
2427.00,0.0061
2426.00,0.0061
2425.00,0.0060
2424.00,0.0060
2423.00,0.0060
2422.00,0.0060
2421.00,0.0060
2420.00,0.0061
2419.00,0.0061
2418.00,0.0061
2417.00,0.0061
2416.00,0.0061
2415.00,0.0061
2414.00,0.0061
2413.00,0.0060
2412.00,0.0060
2411.00,0.0060
2410.00,0.0060
2409.00,0.0060
2408.00,0.0059
2407.00,0.0059
2406.00,0.0059
2405.00,0.0059
2404.00,0.0059
2403.00,0.0059
2402.00,0.0059
2401.00,0.0059
2400.00,0.0059
2399.00,0.0059
2398.00,0.0060
2397.00,0.0060
2396.00,0.0060
2395.00,0.0060
2394.00,0.0059
2393.00,0.0059
2392.00,0.0059
2391.00,0.0058
2390.00,0.0058
2389.00,0.0058
2388.00,0.0057
2387.00,0.0057
2386.00,0.0057
2385.00,0.0056
2384.00,0.0056
2383.00,0.0056
2382.00,0.0056
2381.00,0.0056
2380.00,0.0056
2379.00,0.0056
2378.00,0.0056
2377.00,0.0055
2376.00,0.0055
2375.00,0.0055
2374.00,0.0055
2373.00,0.0055
2372.00,0.0055
2371.00,0.0055
2370.00,0.0054
2369.00,0.0054
2368.00,0.0054
2367.00,0.0054
2366.00,0.0054
2365.00,0.0055
2364.00,0.0056
2363.00,0.0056
2362.00,0.0056
2361.00,0.0055
2360.00,0.0055
2359.00,0.0055
2358.00,0.0055
2357.00,0.0055
2356.00,0.0056
2355.00,0.0055
2354.00,0.0055
2353.00,0.0055
2352.00,0.0056
2351.00,0.0056
2350.00,0.0056
2349.00,0.0056
2348.00,0.0057
2347.00,0.0057
2346.00,0.0058
2345.00,0.0058
2344.00,0.0058
2343.00,0.0058
2342.00,0.0058
2341.00,0.0058
2340.00,0.0059
2339.00,0.0059
2338.00,0.0059
2337.00,0.0059
2336.00,0.0059
2335.00,0.0060
2334.00,0.0060
2333.00,0.0060
2332.00,0.0060
2331.00,0.0060
2330.00,0.0060
2329.00,0.0062
2328.00,0.0065
2327.00,0.0068
2326.00,0.0071
2325.00,0.0071
2324.00,0.0070
2323.00,0.0068
2322.00,0.0067
2321.00,0.0065
2320.00,0.0064
2319.00,0.0063
2318.00,0.0061
2317.00,0.0061
2316.00,0.0061
2315.00,0.0061
2314.00,0.0061
2313.00,0.0061
2312.00,0.0061
2311.00,0.0061
2310.00,0.0062
2309.00,0.0062
2308.00,0.0063
2307.00,0.0063
2306.00,0.0063
2305.00,0.0063
2304.00,0.0063
2303.00,0.0063
2302.00,0.0063
2301.00,0.0064
2300.00,0.0064
2299.00,0.0064
2298.00,0.0064
2297.00,0.0065
2296.00,0.0066
2295.00,0.0067
2294.00,0.0068
2293.00,0.0068
2292.00,0.0069
2291.00,0.0070
2290.00,0.0070
2289.00,0.0071
2288.00,0.0071
2287.00,0.0071
2286.00,0.0071
2285.00,0.0070
2284.00,0.0069
2283.00,0.0069
2282.00,0.0069
2281.00,0.0068
2280.00,0.0068
2279.00,0.0068
2278.00,0.0067
2277.00,0.0067
2276.00,0.0066
2275.00,0.0066
2274.00,0.0065
2273.00,0.0065
2272.00,0.0065
2271.00,0.0066
2270.00,0.0066
2269.00,0.0065
2268.00,0.0064
2267.00,0.0063
2266.00,0.0063
2265.00,0.0063
2264.00,0.0063
2263.00,0.0064
2262.00,0.0064
2261.00,0.0064
2260.00,0.0065
2259.00,0.0065
2258.00,0.0064
2257.00,0.0064
2256.00,0.0064
2255.00,0.0063
2254.00,0.0063
2253.00,0.0063
2252.00,0.0064
2251.00,0.0064
2250.00,0.0064
2249.00,0.0064
2248.00,0.0064
2247.00,0.0065
2246.00,0.0065
2245.00,0.0065
2244.00,0.0064
2243.00,0.0064
2242.00,0.0063
2241.00,0.0064
2240.00,0.0064
2239.00,0.0064
2238.00,0.0064
2237.00,0.0064
2236.00,0.0064
2235.00,0.0065
2234.00,0.0065
2233.00,0.0065
2232.00,0.0065
2231.00,0.0065
2230.00,0.0064
2229.00,0.0064
2228.00,0.0065
2227.00,0.0065
2226.00,0.0065
2225.00,0.0065
2224.00,0.0065
2223.00,0.0064
2222.00,0.0063
2221.00,0.0063
2220.00,0.0064
2219.00,0.0064
2218.00,0.0063
2217.00,0.0063
2216.00,0.0063
2215.00,0.0064
2214.00,0.0065
2213.00,0.0066
2212.00,0.0066
2211.00,0.0065
2210.00,0.0064
2209.00,0.0062
2208.00,0.0061
2207.00,0.0061
2206.00,0.0062
2205.00,0.0063
2204.00,0.0064
2203.00,0.0064
2202.00,0.0064
2201.00,0.0064
2200.00,0.0064
2199.00,0.0064
2198.00,0.0064
2197.00,0.0063
2196.00,0.0063
2195.00,0.0064
2194.00,0.0064
2193.00,0.0065
2192.00,0.0066
2191.00,0.0066
2190.00,0.0066
2189.00,0.0065
2188.00,0.0065
2187.00,0.0065
2186.00,0.0065
2185.00,0.0065
2184.00,0.0065
2183.00,0.0063
2182.00,0.0062
2181.00,0.0062
2180.00,0.0064
2179.00,0.0065
2178.00,0.0064
2177.00,0.0062
2176.00,0.0060
2175.00,0.0059
2174.00,0.0060
2173.00,0.0061
2172.00,0.0064
2171.00,0.0067
2170.00,0.0070
2169.00,0.0072
2168.00,0.0073
2167.00,0.0073
2166.00,0.0073
2165.00,0.0074
2164.00,0.0075
2163.00,0.0074
2162.00,0.0068
2161.00,0.0058
2160.00,0.0046
2159.00,0.0036
2158.00,0.0032
2157.00,0.0032
2156.00,0.0035
2155.00,0.0038
2154.00,0.0040
2153.00,0.0042
2152.00,0.0045
2151.00,0.0046
2150.00,0.0046
2149.00,0.0045
2148.00,0.0046
2147.00,0.0046
2146.00,0.0047
2145.00,0.0049
2144.00,0.0051
2143.00,0.0051
2142.00,0.0051
2141.00,0.0051
2140.00,0.0052
2139.00,0.0052
2138.00,0.0050
2137.00,0.0047
2136.00,0.0043
2135.00,0.0041
2134.00,0.0042
2133.00,0.0044
2132.00,0.0046
2131.00,0.0049
2130.00,0.0050
2129.00,0.0051
2128.00,0.0052
2127.00,0.0053
2126.00,0.0053
2125.00,0.0054
2124.00,0.0055
2123.00,0.0056
2122.00,0.0056
2121.00,0.0057
2120.00,0.0058
2119.00,0.0059
2118.00,0.0061
2117.00,0.0062
2116.00,0.0063
2115.00,0.0064
2114.00,0.0063
2113.00,0.0063
2112.00,0.0062
2111.00,0.0062
2110.00,0.0062
2109.00,0.0062
2108.00,0.0062
2107.00,0.0062
2106.00,0.0062
2105.00,0.0062
2104.00,0.0062
2103.00,0.0062
2102.00,0.0062
2101.00,0.0061
2100.00,0.0061
2099.00,0.0060
2098.00,0.0059
2097.00,0.0058
2096.00,0.0057
2095.00,0.0056
2094.00,0.0057
2093.00,0.0058
2092.00,0.0060
2091.00,0.0061
2090.00,0.0061
2089.00,0.0061
2088.00,0.0062
2087.00,0.0062
2086.00,0.0063
2085.00,0.0063
2084.00,0.0063
2083.00,0.0063
2082.00,0.0062
2081.00,0.0061
2080.00,0.0061
2079.00,0.0060
2078.00,0.0060
2077.00,0.0060
2076.00,0.0060
2075.00,0.0060
2074.00,0.0060
2073.00,0.0060
2072.00,0.0061
2071.00,0.0061
2070.00,0.0061
2069.00,0.0061
2068.00,0.0061
2067.00,0.0061
2066.00,0.0060
2065.00,0.0060
2064.00,0.0060
2063.00,0.0060
2062.00,0.0059
2061.00,0.0059
2060.00,0.0059
2059.00,0.0060
2058.00,0.0060
2057.00,0.0060
2056.00,0.0059
2055.00,0.0060
2054.00,0.0062
2053.00,0.0066
2052.00,0.0070
2051.00,0.0069
2050.00,0.0066
2049.00,0.0062
2048.00,0.0060
2047.00,0.0059
2046.00,0.0059
2045.00,0.0059
2044.00,0.0060
2043.00,0.0060
2042.00,0.0059
2041.00,0.0059
2040.00,0.0059
2039.00,0.0059
2038.00,0.0057
2037.00,0.0055
2036.00,0.0054
2035.00,0.0053
2034.00,0.0053
2033.00,0.0052
2032.00,0.0052
2031.00,0.0051
2030.00,0.0049
2029.00,0.0049
2028.00,0.0050
2027.00,0.0052
2026.00,0.0053
2025.00,0.0054
2024.00,0.0055
2023.00,0.0055
2022.00,0.0055
2021.00,0.0055
2020.00,0.0056
2019.00,0.0056
2018.00,0.0055
2017.00,0.0056
2016.00,0.0056
2015.00,0.0056
2014.00,0.0055
2013.00,0.0055
2012.00,0.0056
2011.00,0.0057
2010.00,0.0056
2009.00,0.0054
2008.00,0.0052
2007.00,0.0050
2006.00,0.0049
2005.00,0.0048
2004.00,0.0049
2003.00,0.0049
2002.00,0.0049
2001.00,0.0050
2000.00,0.0051
1999.00,0.0053
1998.00,0.0053
1997.00,0.0054
1996.00,0.0055
1995.00,0.0055
1994.00,0.0055
1993.00,0.0056
1992.00,0.0057
1991.00,0.0058
1990.00,0.0059
1989.00,0.0060
1988.00,0.0061
1987.00,0.0062
1986.00,0.0061
1985.00,0.0061
1984.00,0.0062
1983.00,0.0064
1982.00,0.0064
1981.00,0.0064
1980.00,0.0060
1979.00,0.0054
1978.00,0.0048
1977.00,0.0045
1976.00,0.0045
1975.00,0.0045
1974.00,0.0045
1973.00,0.0046
1972.00,0.0046
1971.00,0.0046
1970.00,0.0046
1969.00,0.0046
1968.00,0.0047
1967.00,0.0047
1966.00,0.0047
1965.00,0.0048
1964.00,0.0048
1963.00,0.0046
1962.00,0.0044
1961.00,0.0042
1960.00,0.0042
1959.00,0.0043
1958.00,0.0043
1957.00,0.0044
1956.00,0.0046
1955.00,0.0046
1954.00,0.0047
1953.00,0.0047
1952.00,0.0047
1951.00,0.0047
1950.00,0.0046
1949.00,0.0046
1948.00,0.0047
1947.00,0.0048
1946.00,0.0048
1945.00,0.0048
1944.00,0.0048
1943.00,0.0048
1942.00,0.0048
1941.00,0.0048
1940.00,0.0049
1939.00,0.0049
1938.00,0.0048
1937.00,0.0048
1936.00,0.0049
1935.00,0.0049
1934.00,0.0049
1933.00,0.0049
1932.00,0.0049
1931.00,0.0049
1930.00,0.0049
1929.00,0.0049
1928.00,0.0049
1927.00,0.0049
1926.00,0.0049
1925.00,0.0050
1924.00,0.0051
1923.00,0.0052
1922.00,0.0052
1921.00,0.0052
1920.00,0.0052
1919.00,0.0052
1918.00,0.0051
1917.00,0.0051
1916.00,0.0051
1915.00,0.0051
1914.00,0.0051
1913.00,0.0051
1912.00,0.0051
1911.00,0.0051
1910.00,0.0051
1909.00,0.0051
1908.00,0.0051
1907.00,0.0050
1906.00,0.0050
1905.00,0.0050
1904.00,0.0050
1903.00,0.0050
1902.00,0.0049
1901.00,0.0049
1900.00,0.0049
1899.00,0.0050
1898.00,0.0050
1897.00,0.0051
1896.00,0.0051
1895.00,0.0050
1894.00,0.0050
1893.00,0.0050
1892.00,0.0051
1891.00,0.0051
1890.00,0.0051
1889.00,0.0051
1888.00,0.0051
1887.00,0.0051
1886.00,0.0051
1885.00,0.0051
1884.00,0.0051
1883.00,0.0051
1882.00,0.0051
1881.00,0.0050
1880.00,0.0050
1879.00,0.0050
1878.00,0.0050
1877.00,0.0049
1876.00,0.0050
1875.00,0.0050
1874.00,0.0050
1873.00,0.0050
1872.00,0.0050
1871.00,0.0051
1870.00,0.0051
1869.00,0.0051
1868.00,0.0051
1867.00,0.0051
1866.00,0.0051
1865.00,0.0051
1864.00,0.0051
1863.00,0.0051
1862.00,0.0050
1861.00,0.0050
1860.00,0.0050
1859.00,0.0049
1858.00,0.0049
1857.00,0.0049
1856.00,0.0050
1855.00,0.0050
1854.00,0.0050
1853.00,0.0050
1852.00,0.0051
1851.00,0.0051
1850.00,0.0051
1849.00,0.0050
1848.00,0.0050
1847.00,0.0050
1846.00,0.0050
1845.00,0.0050
1844.00,0.0050
1843.00,0.0050
1842.00,0.0049
1841.00,0.0049
1840.00,0.0049
1839.00,0.0049
1838.00,0.0050
1837.00,0.0050
1836.00,0.0050
1835.00,0.0050
1834.00,0.0050
1833.00,0.0050
1832.00,0.0050
1831.00,0.0050
1830.00,0.0049
1829.00,0.0049
1828.00,0.0049
1827.00,0.0049
1826.00,0.0049
1825.00,0.0049
1824.00,0.0049
1823.00,0.0049
1822.00,0.0048
1821.00,0.0047
1820.00,0.0047
1819.00,0.0046
1818.00,0.0045
1817.00,0.0045
1816.00,0.0045
1815.00,0.0046
1814.00,0.0047
1813.00,0.0047
1812.00,0.0048
1811.00,0.0048
1810.00,0.0048
1809.00,0.0047
1808.00,0.0047
1807.00,0.0047
1806.00,0.0047
1805.00,0.0047
1804.00,0.0048
1803.00,0.0048
1802.00,0.0048
1801.00,0.0048
1800.00,0.0048
1799.00,0.0048
1798.00,0.0048
1797.00,0.0048
1796.00,0.0048
1795.00,0.0049
1794.00,0.0048
1793.00,0.0048
1792.00,0.0048
1791.00,0.0048
1790.00,0.0048
1789.00,0.0048
1788.00,0.0048
1787.00,0.0048
1786.00,0.0048
1785.00,0.0048
1784.00,0.0048
1783.00,0.0048
1782.00,0.0049
1781.00,0.0049
1780.00,0.0049
1779.00,0.0049
1778.00,0.0048
1777.00,0.0049
1776.00,0.0049
1775.00,0.0050
1774.00,0.0050
1773.00,0.0050
1772.00,0.0050
1771.00,0.0050
1770.00,0.0049
1769.00,0.0050
1768.00,0.0050
1767.00,0.0050
1766.00,0.0050
1765.00,0.0051
1764.00,0.0051
1763.00,0.0051
1762.00,0.0051
1761.00,0.0051
1760.00,0.0052
1759.00,0.0052
1758.00,0.0052
1757.00,0.0053
1756.00,0.0053
1755.00,0.0054
1754.00,0.0055
1753.00,0.0055
1752.00,0.0056
1751.00,0.0057
1750.00,0.0057
1749.00,0.0057
1748.00,0.0058
1747.00,0.0059
1746.00,0.0059
1745.00,0.0059
1744.00,0.0060
1743.00,0.0061
1742.00,0.0061
1741.00,0.0061
1740.00,0.0061
1739.00,0.0062
1738.00,0.0063
1737.00,0.0064
1736.00,0.0065
1735.00,0.0066
1734.00,0.0066
1733.00,0.0067
1732.00,0.0069
1731.00,0.0071
1730.00,0.0071
1729.00,0.0072
1728.00,0.0074
1727.00,0.0076
1726.00,0.0077
1725.00,0.0079
1724.00,0.0081
1723.00,0.0084
1722.00,0.0086
1721.00,0.0088
1720.00,0.0091
1719.00,0.0095
1718.00,0.0099
1717.00,0.0104
1716.00,0.0109
1715.00,0.0114
1714.00,0.0119
1713.00,0.0125
1712.00,0.0132
1711.00,0.0140
1710.00,0.0148
1709.00,0.0158
1708.00,0.0169
1707.00,0.0183
1706.00,0.0198
1705.00,0.0214
1704.00,0.0231
1703.00,0.0246
1702.00,0.0262
1701.00,0.0287
1700.00,0.0321
1699.00,0.0352
1698.00,0.0378
1697.00,0.0406
1696.00,0.0441
1695.00,0.0480
1694.00,0.0515
1693.00,0.0546
1692.00,0.0577
1691.00,0.0611
1690.00,0.0649
1689.00,0.0687
1688.00,0.0723
1687.00,0.0756
1686.00,0.0790
1685.00,0.0836
1684.00,0.0893
1683.00,0.0944
1682.00,0.0982
1681.00,0.1014
1680.00,0.1047
1679.00,0.1079
1678.00,0.1108
1677.00,0.1138
1676.00,0.1172
1675.00,0.1211
1674.00,0.1244
1673.00,0.1270
1672.00,0.1290
1671.00,0.1311
1670.00,0.1334
1669.00,0.1359
1668.00,0.1380
1667.00,0.1395
1666.00,0.1405
1665.00,0.1413
1664.00,0.1423
1663.00,0.1435
1662.00,0.1447
1661.00,0.1456
1660.00,0.1462
1659.00,0.1465
1658.00,0.1466
1657.00,0.1463
1656.00,0.1457
1655.00,0.1450
1654.00,0.1446
1653.00,0.1447
1652.00,0.1444
1651.00,0.1431
1650.00,0.1407
1649.00,0.1379
1648.00,0.1348
1647.00,0.1315
1646.00,0.1281
1645.00,0.1245
1644.00,0.1208
1643.00,0.1169
1642.00,0.1128
1641.00,0.1087
1640.00,0.1047
1639.00,0.1009
1638.00,0.0972
1637.00,0.0934
1636.00,0.0897
1635.00,0.0864
1634.00,0.0834
1633.00,0.0805
1632.00,0.0776
1631.00,0.0749
1630.00,0.0722
1629.00,0.0696
1628.00,0.0671
1627.00,0.0648
1626.00,0.0627
1625.00,0.0605
1624.00,0.0584
1623.00,0.0565
1622.00,0.0546
1621.00,0.0529
1620.00,0.0512
1619.00,0.0495
1618.00,0.0478
1617.00,0.0462
1616.00,0.0448
1615.00,0.0435
1614.00,0.0422
1613.00,0.0408
1612.00,0.0395
1611.00,0.0383
1610.00,0.0371
1609.00,0.0360
1608.00,0.0350
1607.00,0.0340
1606.00,0.0331
1605.00,0.0322
1604.00,0.0313
1603.00,0.0305
1602.00,0.0297
1601.00,0.0290
1600.00,0.0283
1599.00,0.0276
1598.00,0.0270
1597.00,0.0264
1596.00,0.0258
1595.00,0.0252
1594.00,0.0247
1593.00,0.0242
1592.00,0.0237
1591.00,0.0232
1590.00,0.0228
1589.00,0.0224
1588.00,0.0219
1587.00,0.0215
1586.00,0.0211
1585.00,0.0207
1584.00,0.0204
1583.00,0.0200
1582.00,0.0197
1581.00,0.0194
1580.00,0.0191
1579.00,0.0189
1578.00,0.0186
1577.00,0.0184
1576.00,0.0181
1575.00,0.0179
1574.00,0.0177
1573.00,0.0174
1572.00,0.0172
1571.00,0.0169
1570.00,0.0167
1569.00,0.0166
1568.00,0.0164
1567.00,0.0162
1566.00,0.0161
1565.00,0.0159
1564.00,0.0158
1563.00,0.0156
1562.00,0.0155
1561.00,0.0152
1560.00,0.0151
1559.00,0.0151
1558.00,0.0150
1557.00,0.0150
1556.00,0.0149
1555.00,0.0148
1554.00,0.0147
1553.00,0.0146
1552.00,0.0145
1551.00,0.0144
1550.00,0.0143
1549.00,0.0142
1548.00,0.0141
1547.00,0.0140
1546.00,0.0140
1545.00,0.0140
1544.00,0.0139
1543.00,0.0139
1542.00,0.0138
1541.00,0.0137
1540.00,0.0136
1539.00,0.0135
1538.00,0.0134
1537.00,0.0134
1536.00,0.0133
1535.00,0.0132
1534.00,0.0131
1533.00,0.0131
1532.00,0.0130
1531.00,0.0130
1530.00,0.0130
1529.00,0.0129
1528.00,0.0129
1527.00,0.0129
1526.00,0.0129
1525.00,0.0129
1524.00,0.0129
1523.00,0.0128
1522.00,0.0128
1521.00,0.0128
1520.00,0.0129
1519.00,0.0129
1518.00,0.0129
1517.00,0.0130
1516.00,0.0131
1515.00,0.0132
1514.00,0.0133
1513.00,0.0135
1512.00,0.0137
1511.00,0.0140
1510.00,0.0144
1509.00,0.0149
1508.00,0.0155
1507.00,0.0163
1506.00,0.0172
1505.00,0.0182
1504.00,0.0192
1503.00,0.0201
1502.00,0.0212
1501.00,0.0224
1500.00,0.0237
1499.00,0.0251
1498.00,0.0266
1497.00,0.0281
1496.00,0.0294
1495.00,0.0304
1494.00,0.0310
1493.00,0.0313
1492.00,0.0313
1491.00,0.0311
1490.00,0.0305
1489.00,0.0297
1488.00,0.0285
1487.00,0.0271
1486.00,0.0257
1485.00,0.0243
1484.00,0.0231
1483.00,0.0219
1482.00,0.0209
1481.00,0.0201
1480.00,0.0195
1479.00,0.0191
1478.00,0.0190
1477.00,0.0191
1476.00,0.0195
1475.00,0.0201
1474.00,0.0211
1473.00,0.0226
1472.00,0.0246
1471.00,0.0268
1470.00,0.0290
1469.00,0.0315
1468.00,0.0341
1467.00,0.0371
1466.00,0.0404
1465.00,0.0441
1464.00,0.0476
1463.00,0.0503
1462.00,0.0521
1461.00,0.0533
1460.00,0.0537
1459.00,0.0533
1458.00,0.0521
1457.00,0.0501
1456.00,0.0477
1455.00,0.0454
1454.00,0.0433
1453.00,0.0415
1452.00,0.0401
1451.00,0.0391
1450.00,0.0385
1449.00,0.0385
1448.00,0.0391
1447.00,0.0401
1446.00,0.0415
1445.00,0.0433
1444.00,0.0454
1443.00,0.0478
1442.00,0.0504
1441.00,0.0532
1440.00,0.0558
1439.00,0.0584
1438.00,0.0611
1437.00,0.0642
1436.00,0.0673
1435.00,0.0697
1434.00,0.0714
1433.00,0.0728
1432.00,0.0741
1431.00,0.0756
1430.00,0.0773
1429.00,0.0793
1428.00,0.0817
1427.00,0.0843
1426.00,0.0871
1425.00,0.0903
1424.00,0.0936
1423.00,0.0962
1422.00,0.0979
1421.00,0.0987
1420.00,0.0985
1419.00,0.0971
1418.00,0.0944
1417.00,0.0906
1416.00,0.0860
1415.00,0.0807
1414.00,0.0752
1413.00,0.0696
1412.00,0.0643
1411.00,0.0591
1410.00,0.0545
1409.00,0.0503
1408.00,0.0467
1407.00,0.0434
1406.00,0.0405
1405.00,0.0380
1404.00,0.0358
1403.00,0.0339
1402.00,0.0323
1401.00,0.0309
1400.00,0.0297
1399.00,0.0287
1398.00,0.0279
1397.00,0.0273
1396.00,0.0267
1395.00,0.0263
1394.00,0.0260
1393.00,0.0259
1392.00,0.0258
1391.00,0.0259
1390.00,0.0260
1389.00,0.0263
1388.00,0.0268
1387.00,0.0274
1386.00,0.0281
1385.00,0.0288
1384.00,0.0296
1383.00,0.0303
1382.00,0.0312
1381.00,0.0321
1380.00,0.0330
1379.00,0.0339
1378.00,0.0347
1377.00,0.0355
1376.00,0.0362
1375.00,0.0367
1374.00,0.0372
1373.00,0.0375
1372.00,0.0375
1371.00,0.0374
1370.00,0.0371
1369.00,0.0366
1368.00,0.0360
1367.00,0.0353
1366.00,0.0344
1365.00,0.0335
1364.00,0.0325
1363.00,0.0314
1362.00,0.0303
1361.00,0.0292
1360.00,0.0282
1359.00,0.0272
1358.00,0.0263
1357.00,0.0255
1356.00,0.0248
1355.00,0.0241
1354.00,0.0235
1353.00,0.0229
1352.00,0.0224
1351.00,0.0219
1350.00,0.0215
1349.00,0.0211
1348.00,0.0207
1347.00,0.0204
1346.00,0.0201
1345.00,0.0199
1344.00,0.0198
1343.00,0.0197
1342.00,0.0196
1341.00,0.0196
1340.00,0.0196
1339.00,0.0197
1338.00,0.0197
1337.00,0.0199
1336.00,0.0200
1335.00,0.0202
1334.00,0.0205
1333.00,0.0208
1332.00,0.0213
1331.00,0.0218
1330.00,0.0225
1329.00,0.0233
1328.00,0.0241
1327.00,0.0251
1326.00,0.0262
1325.00,0.0274
1324.00,0.0286
1323.00,0.0299
1322.00,0.0312
1321.00,0.0326
1320.00,0.0338
1319.00,0.0349
1318.00,0.0358
1317.00,0.0365
1316.00,0.0370
1315.00,0.0371
1314.00,0.0370
1313.00,0.0366
1312.00,0.0361
1311.00,0.0354
1310.00,0.0347
1309.00,0.0342
1308.00,0.0337
1307.00,0.0334
1306.00,0.0333
1305.00,0.0334
1304.00,0.0338
1303.00,0.0345
1302.00,0.0356
1301.00,0.0371
1300.00,0.0390
1299.00,0.0415
1298.00,0.0445
1297.00,0.0482
1296.00,0.0523
1295.00,0.0570
1294.00,0.0622
1293.00,0.0677
1292.00,0.0734
1291.00,0.0791
1290.00,0.0846
1289.00,0.0897
1288.00,0.0942
1287.00,0.0980
1286.00,0.1008
1285.00,0.1026
1284.00,0.1034
1283.00,0.1032
1282.00,0.1023
1281.00,0.1010
1280.00,0.0995
1279.00,0.0982
1278.00,0.0973
1277.00,0.0970
1276.00,0.0973
1275.00,0.0980
1274.00,0.0991
1273.00,0.1003
1272.00,0.1015
1271.00,0.1024
1270.00,0.1028
1269.00,0.1026
1268.00,0.1019
1267.00,0.1005
1266.00,0.0986
1265.00,0.0962
1264.00,0.0933
1263.00,0.0902
1262.00,0.0869
1261.00,0.0836
1260.00,0.0802
1259.00,0.0769
1258.00,0.0738
1257.00,0.0708
1256.00,0.0680
1255.00,0.0655
1254.00,0.0631
1253.00,0.0609
1252.00,0.0590
1251.00,0.0573
1250.00,0.0557
1249.00,0.0544
1248.00,0.0533
1247.00,0.0523
1246.00,0.0515
1245.00,0.0509
1244.00,0.0504
1243.00,0.0501
1242.00,0.0499
1241.00,0.0498
1240.00,0.0499
1239.00,0.0501
1238.00,0.0505
1237.00,0.0509
1236.00,0.0514
1235.00,0.0519
1234.00,0.0525
1233.00,0.0530
1232.00,0.0535
1231.00,0.0539
1230.00,0.0542
1229.00,0.0544
1228.00,0.0544
1227.00,0.0543
1226.00,0.0541
1225.00,0.0539
1224.00,0.0535
1223.00,0.0531
1222.00,0.0527
1221.00,0.0521
1220.00,0.0516
1219.00,0.0510
1218.00,0.0504
1217.00,0.0497
1216.00,0.0490
1215.00,0.0482
1214.00,0.0474
1213.00,0.0466
1212.00,0.0458
1211.00,0.0449
1210.00,0.0442
1209.00,0.0434
1208.00,0.0427
1207.00,0.0420
1206.00,0.0413
1205.00,0.0407
1204.00,0.0401
1203.00,0.0395
1202.00,0.0390
1201.00,0.0385
1200.00,0.0380
1199.00,0.0376
1198.00,0.0371
1197.00,0.0367
1196.00,0.0363
1195.00,0.0359
1194.00,0.0356
1193.00,0.0352
1192.00,0.0349
1191.00,0.0346
1190.00,0.0344
1189.00,0.0342
1188.00,0.0340
1187.00,0.0338
1186.00,0.0337
1185.00,0.0336
1184.00,0.0335
1183.00,0.0335
1182.00,0.0335
1181.00,0.0336
1180.00,0.0337
1179.00,0.0339
1178.00,0.0342
1177.00,0.0345
1176.00,0.0349
1175.00,0.0353
1174.00,0.0358
1173.00,0.0363
1172.00,0.0368
1171.00,0.0373
1170.00,0.0376
1169.00,0.0379
1168.00,0.0381
1167.00,0.0381
1166.00,0.0380
1165.00,0.0377
1164.00,0.0374
1163.00,0.0369
1162.00,0.0363
1161.00,0.0357
1160.00,0.0350
1159.00,0.0344
1158.00,0.0337
1157.00,0.0330
1156.00,0.0324
1155.00,0.0318
1154.00,0.0312
1153.00,0.0306
1152.00,0.0300
1151.00,0.0295
1150.00,0.0290
1149.00,0.0285
1148.00,0.0280
1147.00,0.0275
1146.00,0.0270
1145.00,0.0265
1144.00,0.0260
1143.00,0.0255
1142.00,0.0251
1141.00,0.0247
1140.00,0.0242
1139.00,0.0238
1138.00,0.0235
1137.00,0.0232
1136.00,0.0229
1135.00,0.0227
1134.00,0.0226
1133.00,0.0225
1132.00,0.0225
1131.00,0.0225
1130.00,0.0226
1129.00,0.0226
1128.00,0.0227
1127.00,0.0228
1126.00,0.0229
1125.00,0.0230
1124.00,0.0232
1123.00,0.0233
1122.00,0.0234
1121.00,0.0235
1120.00,0.0236
1119.00,0.0236
1118.00,0.0236
1117.00,0.0237
1116.00,0.0237
1115.00,0.0237
1114.00,0.0238
1113.00,0.0238
1112.00,0.0238
1111.00,0.0239
1110.00,0.0239
1109.00,0.0239
1108.00,0.0239
1107.00,0.0239
1106.00,0.0239
1105.00,0.0239
1104.00,0.0239
1103.00,0.0239
1102.00,0.0239
1101.00,0.0240
1100.00,0.0240
1099.00,0.0240
1098.00,0.0240
1097.00,0.0241
1096.00,0.0241
1095.00,0.0241
1094.00,0.0241
1093.00,0.0241
1092.00,0.0241
1091.00,0.0241
1090.00,0.0242
1089.00,0.0242
1088.00,0.0242
1087.00,0.0242
1086.00,0.0242
1085.00,0.0243
1084.00,0.0243
1083.00,0.0244
1082.00,0.0246
1081.00,0.0248
1080.00,0.0251
1079.00,0.0253
1078.00,0.0256
1077.00,0.0258
1076.00,0.0259
1075.00,0.0260
1074.00,0.0260
1073.00,0.0260
1072.00,0.0258
1071.00,0.0255
1070.00,0.0251
1069.00,0.0248
1068.00,0.0244
1067.00,0.0240
1066.00,0.0236
1065.00,0.0232
1064.00,0.0228
1063.00,0.0224
1062.00,0.0221
1061.00,0.0218
1060.00,0.0215
1059.00,0.0213
1058.00,0.0211
1057.00,0.0209
1056.00,0.0207
1055.00,0.0205
1054.00,0.0204
1053.00,0.0203
1052.00,0.0203
1051.00,0.0203
1050.00,0.0202
1049.00,0.0202
1048.00,0.0202
1047.00,0.0201
1046.00,0.0200
1045.00,0.0200
1044.00,0.0200
1043.00,0.0200
1042.00,0.0200
1041.00,0.0200
1040.00,0.0200
1039.00,0.0199
1038.00,0.0199
1037.00,0.0195
1036.00,0.0188
1035.00,0.0177
1034.00,0.0168
1033.00,0.0167
1032.00,0.0175
1031.00,0.0188
1030.00,0.0201
1029.00,0.0210
1028.00,0.0216
1027.00,0.0222
1026.00,0.0227
1025.00,0.0232
1024.00,0.0237
1023.00,0.0243
1022.00,0.0248
1021.00,0.0254
1020.00,0.0258
1019.00,0.0262
1018.00,0.0263
1017.00,0.0263
1016.00,0.0261
1015.00,0.0257
1014.00,0.0252
1013.00,0.0246
1012.00,0.0239
1011.00,0.0233
1010.00,0.0228
1009.00,0.0225
1008.00,0.0223
1007.00,0.0223
1006.00,0.0224
1005.00,0.0226
1004.00,0.0229
1003.00,0.0233
1002.00,0.0236
1001.00,0.0238
1000.00,0.0238
999.00,0.0238
998.00,0.0236
997.00,0.0234
996.00,0.0231
995.00,0.0227
994.00,0.0224
993.00,0.0220
992.00,0.0217
991.00,0.0213
990.00,0.0211
989.00,0.0208
988.00,0.0206
987.00,0.0204
986.00,0.0203
985.00,0.0201
984.00,0.0200
983.00,0.0198
982.00,0.0197
981.00,0.0196
980.00,0.0195
979.00,0.0194
978.00,0.0193
977.00,0.0192
976.00,0.0191
975.00,0.0190
974.00,0.0188
973.00,0.0187
972.00,0.0186
971.00,0.0185
970.00,0.0184
969.00,0.0183
968.00,0.0182
967.00,0.0181
966.00,0.0180
965.00,0.0178
964.00,0.0177
963.00,0.0176
962.00,0.0175
961.00,0.0175
960.00,0.0174
959.00,0.0174
958.00,0.0173
957.00,0.0172
956.00,0.0171
955.00,0.0170
954.00,0.0170
953.00,0.0169
952.00,0.0169
951.00,0.0169
950.00,0.0168
949.00,0.0168
948.00,0.0169
947.00,0.0169
946.00,0.0170
945.00,0.0172
944.00,0.0174
943.00,0.0176
942.00,0.0179
941.00,0.0184
940.00,0.0188
939.00,0.0193
938.00,0.0199
937.00,0.0205
936.00,0.0212
935.00,0.0217
934.00,0.0222
933.00,0.0224
932.00,0.0224
931.00,0.0221
930.00,0.0218
929.00,0.0214
928.00,0.0210
927.00,0.0207
926.00,0.0205
925.00,0.0203
924.00,0.0200
923.00,0.0198
922.00,0.0196
921.00,0.0194
920.00,0.0192
919.00,0.0190
918.00,0.0189
917.00,0.0187
916.00,0.0186
915.00,0.0185
914.00,0.0183
913.00,0.0182
912.00,0.0181
911.00,0.0181
910.00,0.0181
909.00,0.0182
908.00,0.0183
907.00,0.0185
906.00,0.0186
905.00,0.0188
904.00,0.0191
903.00,0.0194
902.00,0.0197
901.00,0.0200
900.00,0.0204
899.00,0.0207
898.00,0.0210
897.00,0.0212
896.00,0.0213
895.00,0.0213
894.00,0.0213
893.00,0.0212
892.00,0.0211
891.00,0.0209
890.00,0.0206
889.00,0.0203
888.00,0.0200
887.00,0.0197
886.00,0.0195
885.00,0.0193
884.00,0.0192
883.00,0.0190
882.00,0.0188
881.00,0.0187
880.00,0.0186
879.00,0.0185
878.00,0.0184
877.00,0.0184
876.00,0.0184
875.00,0.0184
874.00,0.0184
873.00,0.0184
872.00,0.0185
871.00,0.0186
870.00,0.0187
869.00,0.0189
868.00,0.0191
867.00,0.0193
866.00,0.0196
865.00,0.0198
864.00,0.0202
863.00,0.0206
862.00,0.0211
861.00,0.0216
860.00,0.0222
859.00,0.0228
858.00,0.0235
857.00,0.0243
856.00,0.0251
855.00,0.0260
854.00,0.0269
853.00,0.0278
852.00,0.0286
851.00,0.0295
850.00,0.0303
849.00,0.0310
848.00,0.0317
847.00,0.0322
846.00,0.0325
845.00,0.0328
844.00,0.0329
843.00,0.0329
842.00,0.0327
841.00,0.0324
840.00,0.0321
839.00,0.0316
838.00,0.0311
837.00,0.0305
836.00,0.0299
835.00,0.0293
834.00,0.0287
833.00,0.0281
832.00,0.0275
831.00,0.0268
830.00,0.0261
829.00,0.0255
828.00,0.0249
827.00,0.0244
826.00,0.0238
825.00,0.0233
824.00,0.0228
823.00,0.0223
822.00,0.0219
821.00,0.0215
820.00,0.0212
819.00,0.0209
818.00,0.0206
817.00,0.0203
816.00,0.0201
815.00,0.0199
814.00,0.0198
813.00,0.0196
812.00,0.0194
811.00,0.0192
810.00,0.0190
809.00,0.0188
808.00,0.0187
807.00,0.0186
806.00,0.0185
805.00,0.0184
804.00,0.0183
803.00,0.0182
802.00,0.0181
801.00,0.0181
800.00,0.0180
799.00,0.0180
798.00,0.0179
797.00,0.0179
796.00,0.0179
795.00,0.0179
794.00,0.0179
793.00,0.0179
792.00,0.0180
791.00,0.0179
790.00,0.0179
789.00,0.0180
788.00,0.0180
787.00,0.0181
786.00,0.0182
785.00,0.0182
784.00,0.0183
783.00,0.0183
782.00,0.0183
781.00,0.0183
780.00,0.0183
779.00,0.0184
778.00,0.0185
777.00,0.0186
776.00,0.0187
775.00,0.0188
774.00,0.0190
773.00,0.0191
772.00,0.0193
771.00,0.0195
770.00,0.0198
769.00,0.0200
768.00,0.0202
767.00,0.0205
766.00,0.0207
765.00,0.0210
764.00,0.0215
763.00,0.0219
762.00,0.0223
761.00,0.0227
760.00,0.0231
759.00,0.0236
758.00,0.0240
757.00,0.0244
756.00,0.0249
755.00,0.0253
754.00,0.0258
753.00,0.0262
752.00,0.0266
751.00,0.0271
750.00,0.0275
749.00,0.0280
748.00,0.0285
747.00,0.0289
746.00,0.0294
745.00,0.0298
744.00,0.0302
743.00,0.0307
742.00,0.0312
741.00,0.0317
740.00,0.0322
739.00,0.0326
738.00,0.0330
737.00,0.0334
736.00,0.0338
735.00,0.0341
734.00,0.0343
733.00,0.0343
732.00,0.0342
731.00,0.0339
730.00,0.0334
729.00,0.0328
728.00,0.0323
727.00,0.0316
726.00,0.0310
725.00,0.0303
724.00,0.0297
723.00,0.0291
722.00,0.0284
721.00,0.0279
720.00,0.0274
719.00,0.0271
718.00,0.0268
717.00,0.0265
716.00,0.0264
715.00,0.0262
714.00,0.0261
713.00,0.0260
712.00,0.0260
711.00,0.0259
710.00,0.0259
709.00,0.0259
708.00,0.0259
707.00,0.0259
706.00,0.0259
705.00,0.0260
704.00,0.0262
703.00,0.0263
702.00,0.0265
701.00,0.0267
700.00,0.0269
699.00,0.0271
698.00,0.0273
697.00,0.0276
696.00,0.0279
695.00,0.0282
694.00,0.0285
693.00,0.0289
692.00,0.0292
691.00,0.0295
690.00,0.0298
689.00,0.0301
688.00,0.0305
687.00,0.0309
686.00,0.0313
685.00,0.0318
684.00,0.0323
683.00,0.0327
682.00,0.0331
681.00,0.0335
680.00,0.0339
679.00,0.0343
678.00,0.0347
677.00,0.0351
676.00,0.0355
675.00,0.0360
674.00,0.0364
673.00,0.0370
672.00,0.0377
671.00,0.0383
670.00,0.0390
669.00,0.0401
668.00,0.0414
667.00,0.0423
666.00,0.0429
665.00,0.0433
664.00,0.0438
663.00,0.0446
662.00,0.0455
661.00,0.0465
660.00,0.0477
659.00,0.0488
658.00,0.0500
657.00,0.0512
656.00,0.0523
655.00,0.0534
654.00,0.0544
653.00,0.0554
652.00,0.0562
651.00,0.0570
650.00,0.0576
649.00,0.0580
648.00,0.0582
647.00,0.0582
646.00,0.0580
645.00,0.0578
644.00,0.0575
643.00,0.0571
642.00,0.0565
641.00,0.0558
640.00,0.0550
639.00,0.0542
638.00,0.0535
637.00,0.0528
636.00,0.0521
635.00,0.0515
634.00,0.0508
633.00,0.0502
632.00,0.0496
631.00,0.0490
630.00,0.0485
629.00,0.0480
628.00,0.0476
627.00,0.0472
626.00,0.0468
625.00,0.0465
624.00,0.0463
623.00,0.0460
622.00,0.0458
621.00,0.0457
620.00,0.0455
619.00,0.0454
618.00,0.0453
617.00,0.0451
616.00,0.0450
615.00,0.0450
614.00,0.0450
613.00,0.0450
612.00,0.0450
611.00,0.0450
610.00,0.0451
609.00,0.0451
608.00,0.0452
607.00,0.0454
606.00,0.0455
605.00,0.0456
604.00,0.0458
603.00,0.0459
602.00,0.0460
601.00,0.0461
600.00,0.0462
599.00,0.0464
598.00,0.0467
597.00,0.0470
596.00,0.0474
595.00,0.0477
594.00,0.0480
593.00,0.0484
592.00,0.0489
591.00,0.0494
590.00,0.0501
589.00,0.0508
588.00,0.0516
587.00,0.0525
586.00,0.0534
585.00,0.0544
584.00,0.0554
583.00,0.0564
582.00,0.0574
581.00,0.0584
580.00,0.0595
579.00,0.0606
578.00,0.0616
577.00,0.0625
576.00,0.0632
575.00,0.0639
574.00,0.0644
573.00,0.0650
572.00,0.0654
571.00,0.0657
570.00,0.0658
569.00,0.0657
568.00,0.0655
567.00,0.0650
566.00,0.0644
565.00,0.0638
564.00,0.0631
563.00,0.0625
562.00,0.0618
561.00,0.0611
560.00,0.0605
559.00,0.0599
558.00,0.0594
557.00,0.0590
556.00,0.0585
555.00,0.0580
554.00,0.0574
553.00,0.0568
552.00,0.0563
551.00,0.0560
550.00,0.0557
549.00,0.0554
548.00,0.0550
547.00,0.0547
546.00,0.0543
545.00,0.0539
544.00,0.0535
543.00,0.0532
542.00,0.0530
541.00,0.0528
540.00,0.0526
539.00,0.0525
538.00,0.0523
537.00,0.0522
536.00,0.0521
535.00,0.0520
534.00,0.0520
533.00,0.0519
532.00,0.0519
531.00,0.0519
530.00,0.0519
529.00,0.0520
528.00,0.0522
527.00,0.0524
526.00,0.0525
525.00,0.0524
524.00,0.0522
523.00,0.0521
522.00,0.0521
521.00,0.0521
520.00,0.0522
519.00,0.0521
518.00,0.0520
517.00,0.0521
516.00,0.0522
515.00,0.0523
514.00,0.0522
513.00,0.0521
512.00,0.0520
511.00,0.0520
510.00,0.0520
509.00,0.0521
508.00,0.0523
507.00,0.0524
506.00,0.0525
505.00,0.0526
504.00,0.0526
503.00,0.0527
502.00,0.0527
501.00,0.0527
500.00,0.0527
499.00,0.0528
498.00,0.0529
497.00,0.0531
496.00,0.0532
495.00,0.0534
494.00,0.0535
493.00,0.0537
492.00,0.0539
491.00,0.0539
490.00,0.0539
489.00,0.0539
488.00,0.0540
487.00,0.0542
486.00,0.0545
485.00,0.0548
484.00,0.0552
483.00,0.0554
482.00,0.0555
481.00,0.0556
480.00,0.0559
479.00,0.0561
478.00,0.0564
477.00,0.0567
476.00,0.0570
475.00,0.0575
474.00,0.0580
473.00,0.0584
472.00,0.0586
471.00,0.0584
470.00,0.0579
469.00,0.0576
468.00,0.0575
467.00,0.0575
466.00,0.0575
465.00,0.0574
464.00,0.0574
463.00,0.0574
462.00,0.0574
461.00,0.0573
460.00,0.0572
459.00,0.0570
458.00,0.0566
457.00,0.0560
456.00,0.0556
455.00,0.0554
454.00,0.0553
453.00,0.0555
452.00,0.0556
451.00,0.0556
450.00,0.0554
449.00,0.0551
448.00,0.0547
447.00,0.0543
446.00,0.0540
445.00,0.0538
444.00,0.0538
443.00,0.0539
442.00,0.0538
441.00,0.0535
440.00,0.0531
439.00,0.0528
438.00,0.0527
437.00,0.0528
436.00,0.0529
435.00,0.0526
434.00,0.0521
433.00,0.0516
432.00,0.0512
431.00,0.0509
430.00,0.0506
429.00,0.0503
428.00,0.0501
427.00,0.0498
426.00,0.0494
425.00,0.0489
424.00,0.0483
423.00,0.0478
422.00,0.0476
421.00,0.0480
420.00,0.0490
419.00,0.0501
418.00,0.0503
417.00,0.0498
416.00,0.0490
415.00,0.0485
414.00,0.0483
413.00,0.0483
412.00,0.0485
411.00,0.0488
410.00,0.0492
409.00,0.0493
408.00,0.0489
407.00,0.0480
406.00,0.0473
405.00,0.0475
404.00,0.0481
403.00,0.0482
402.00,0.0475
401.00,0.0467
400.00,0.0464
