3997.65486	-0.00361
3995.59527	-0.00372
3993.53569	-0.00354
3991.47610	-0.00305
3989.41652	-0.00258
3987.35693	-0.00220
3985.29735	-0.00179
3983.23776	-0.00185
3981.17817	-0.00244
3979.11859	-0.00285
3977.05900	-0.00284
3974.99942	-0.00267
3972.93983	-0.00242
3970.88025	-0.00197
3968.82066	-0.00164
3966.76108	-0.00183
3964.70149	-0.00226
3962.64191	-0.00246
3960.58232	-0.00254
3958.52274	-0.00269
3956.46315	-0.00284
3954.40357	-0.00311
3952.34398	-0.00346
3950.28440	-0.00369
3948.22481	-0.00390
3946.16523	-0.00429
3944.10564	-0.00477
3942.04606	-0.00481
3939.98647	-0.00416
3937.92689	-0.00361
3935.86730	-0.00346
3933.80772	-0.00305
3931.74813	-0.00267
3929.68855	-0.00309
3927.62896	-0.00363
3925.56937	-0.00363
3923.50979	-0.00328
3921.45020	-0.00279
3919.39062	-0.00257
3917.33103	-0.00289
3915.27145	-0.00316
3913.21186	-0.00298
3911.15228	-0.00270
3909.09269	-0.00264
3907.03311	-0.00275
3904.97352	-0.00272
3902.91394	-0.00253
3900.85435	-0.00251
3898.79477	-0.00281
3896.73518	-0.00312
3894.67560	-0.00281
3892.61601	-0.00185
3890.55643	-0.00145
3888.49684	-0.00202
3886.43726	-0.00253
3884.37767	-0.00271
3882.31809	-0.00298
3880.25850	-0.00320
3878.19892	-0.00304
3876.13933	-0.00266
3874.07974	-0.00263
3872.02016	-0.00316
3869.96057	-0.00362
3867.90099	-0.00327
3865.84140	-0.00250
3863.78182	-0.00235
3861.72223	-0.00300
3859.66265	-0.00353
3857.60306	-0.00344
3855.54348	-0.00284
3853.48389	-0.00208
3851.42431	-0.00187
3849.36472	-0.00241
3847.30514	-0.00310
3845.24555	-0.00326
3843.18597	-0.00266
3841.12638	-0.00200
3839.06680	-0.00224
3837.00721	-0.00331
3834.94763	-0.00415
3832.88804	-0.00417
3830.82846	-0.00369
3828.76887	-0.00317
3826.70929	-0.00288
3824.64970	-0.00294
3822.59012	-0.00327
3820.53053	-0.00348
3818.47094	-0.00357
3816.41136	-0.00413
3814.35177	-0.00480
3812.29219	-0.00491
3810.23260	-0.00460
3808.17302	-0.00427
3806.11343	-0.00424
3804.05385	-0.00439
3801.99426	-0.00418
3799.93468	-0.00372
3797.87509	-0.00372
3795.81551	-0.00397
3793.75592	-0.00388
3791.69634	-0.00339
3789.63675	-0.00265
3787.57717	-0.00225
3785.51758	-0.00277
3783.45800	-0.00376
3781.39841	-0.00421
3779.33883	-0.00366
3777.27924	-0.00249
3775.21966	-0.00175
3773.16007	-0.00206
3771.10049	-0.00273
3769.04090	-0.00279
3766.98132	-0.00262
3764.92173	-0.00285
3762.86214	-0.00312
3760.80256	-0.00295
3758.74297	-0.00240
3756.68339	-0.00175
3754.62380	-0.00123
3752.56422	-0.00116
3750.50463	-0.00163
3748.44505	-0.00187
3746.38546	-0.00139
3744.32588	-0.00088
3742.26629	-0.00083
3740.20671	-0.00066
3738.14712	0.00010
3736.08754	0.00123
3734.02795	0.00174
3731.96837	0.00091
3729.90878	-0.00030
3727.84920	-0.00083
3725.78961	-0.00052
3723.73003	-0.00006
3721.67044	-0.00025
3719.61086	-0.00094
3717.55127	-0.00138
3715.49169	-0.00109
3713.43210	-0.00034
3711.37251	0.00014
3709.31293	0.00005
3707.25334	-0.00028
3705.19376	-0.00066
3703.13417	-0.00094
3701.07459	-0.00082
3699.01500	-0.00043
3696.95542	-0.00040
3694.89583	-0.00072
3692.83625	-0.00044
3690.77666	0.00084
3688.71708	0.00203
3686.65749	0.00220
3684.59791	0.00214
3682.53832	0.00261
3680.47874	0.00338
3678.41915	0.00391
3676.35957	0.00418
3674.29998	0.00490
3672.24040	0.00591
3670.18081	0.00647
3668.12123	0.00703
3666.06164	0.00826
3664.00206	0.00954
3661.94247	0.01021
3659.88289	0.01088
3657.82330	0.01257
3655.76371	0.01487
3653.70413	0.01618
3651.64454	0.01666
3649.58496	0.01788
3647.52537	0.02003
3645.46579	0.02184
3643.40620	0.02278
3641.34662	0.02324
3639.28703	0.02417
3637.22745	0.02632
3635.16786	0.02916
3633.10828	0.03166
3631.04869	0.03383
3628.98911	0.03575
3626.92952	0.03677
3624.86994	0.03744
3622.81035	0.03900
3620.75077	0.04170
3618.69118	0.04466
3616.63160	0.04642
3614.57201	0.04697
3612.51243	0.04765
3610.45284	0.04935
3608.39326	0.05195
3606.33367	0.05440
3604.27408	0.05585
3602.21450	0.05688
3600.15491	0.05848
3598.09533	0.06077
3596.03574	0.06321
3593.97616	0.06518
3591.91657	0.06682
3589.85699	0.06893
3587.79740	0.07157
3585.73782	0.07357
3583.67823	0.07475
3581.61865	0.07608
3579.55906	0.07804
3577.49948	0.08065
3575.43989	0.08365
3573.38031	0.08630
3571.32072	0.08839
3569.26114	0.09073
3567.20155	0.09391
3565.14197	0.09701
3563.08238	0.09905
3561.02280	0.10085
3558.96321	0.10303
3556.90363	0.10512
3554.84404	0.10675
3552.78446	0.10850
3550.72487	0.11103
3548.66528	0.11410
3546.60570	0.11706
3544.54611	0.11928
3542.48653	0.12080
3540.42694	0.12238
3538.36736	0.12456
3536.30777	0.12732
3534.24819	0.13000
3532.18860	0.13199
3530.12902	0.13378
3528.06943	0.13604
3526.00985	0.13879
3523.95026	0.14151
3521.89068	0.14353
3519.83109	0.14475
3517.77151	0.14595
3515.71192	0.14775
3513.65234	0.14994
3511.59275	0.15188
3509.53317	0.15350
3507.47358	0.15513
3505.41400	0.15660
3503.35441	0.15781
3501.29483	0.15943
3499.23524	0.16156
3497.17565	0.16314
3495.11607	0.16363
3493.05648	0.16418
3490.99690	0.16591
3488.93731	0.16819
3486.87773	0.16989
3484.81814	0.17081
3482.75856	0.17168
3480.69897	0.17317
3478.63939	0.17482
3476.57980	0.17606
3474.52022	0.17720
3472.46063	0.17841
3470.40105	0.17926
3468.34146	0.17992
3466.28188	0.18110
3464.22229	0.18262
3462.16271	0.18363
3460.10312	0.18425
3458.04354	0.18555
3455.98395	0.18755
3453.92437	0.18903
3451.86478	0.18946
3449.80520	0.18956
3447.74561	0.19034
3445.68603	0.19191
3443.62644	0.19366
3441.56685	0.19543
3439.50727	0.19689
3437.44768	0.19784
3435.38810	0.19897
3433.32851	0.20046
3431.26893	0.20190
3429.20934	0.20341
3427.14976	0.20527
3425.09017	0.20701
3423.03059	0.20817
3420.97100	0.20956
3418.91142	0.21172
3416.85183	0.21413
3414.79225	0.21647
3412.73266	0.21873
3410.67308	0.22103
3408.61349	0.22328
3406.55391	0.22496
3404.49432	0.22631
3402.43474	0.22829
3400.37515	0.23076
3398.31557	0.23326
3396.25598	0.23577
3394.19640	0.23818
3392.13681	0.24019
3390.07723	0.24195
3388.01764	0.24411
3385.95805	0.24674
3383.89847	0.24950
3381.83888	0.25245
3379.77930	0.25548
3377.71971	0.25824
3375.66013	0.26068
3373.60054	0.26307
3371.54096	0.26564
3369.48137	0.26838
3367.42179	0.27127
3365.36220	0.27420
3363.30262	0.27690
3361.24303	0.27976
3359.18345	0.28335
3357.12386	0.28740
3355.06428	0.29112
3353.00469	0.29451
3350.94511	0.29807
3348.88552	0.30159
3346.82594	0.30482
3344.76635	0.30835
3342.70677	0.31262
3340.64718	0.31733
3338.58760	0.32215
3336.52801	0.32676
3334.46842	0.33118
3332.40884	0.33565
3330.34925	0.34012
3328.28967	0.34480
3326.23008	0.34996
3324.17050	0.35522
3322.11091	0.36013
3320.05133	0.36511
3317.99174	0.37069
3315.93216	0.37639
3313.87257	0.38173
3311.81299	0.38705
3309.75340	0.39284
3307.69382	0.39907
3305.63423	0.40525
3303.57465	0.41106
3301.51506	0.41650
3299.45548	0.42195
3297.39589	0.42819
3295.33631	0.43445
3293.27672	0.43942
3291.21714	0.44346
3289.15755	0.44710
3287.09797	0.45048
3285.03838	0.45392
3282.97880	0.45716
3280.91921	0.45951
3278.85962	0.46075
3276.80004	0.46085
3274.74045	0.46022
3272.68087	0.45907
3270.62128	0.45656
3268.56170	0.45232
3266.50211	0.44739
3264.44253	0.44251
3262.38294	0.43768
3260.32336	0.43271
3258.26377	0.42744
3256.20419	0.42177
3254.14460	0.41601
3252.08502	0.41064
3250.02543	0.40561
3247.96585	0.40057
3245.90626	0.39526
3243.84668	0.38993
3241.78709	0.38482
3239.72751	0.37997
3237.66792	0.37565
3235.60834	0.37147
3233.54875	0.36658
3231.48917	0.36111
3229.42958	0.35588
3227.36999	0.35154
3225.31041	0.34784
3223.25082	0.34390
3221.19124	0.33936
3219.13165	0.33471
3217.07207	0.33041
3215.01248	0.32610
3212.95290	0.32147
3210.89331	0.31687
3208.83373	0.31230
3206.77414	0.30765
3204.71456	0.30314
3202.65497	0.29850
3200.59539	0.29354
3198.53580	0.28872
3196.47622	0.28422
3194.41663	0.27967
3192.35705	0.27484
3190.29746	0.26984
3188.23788	0.26500
3186.17829	0.26039
3184.11871	0.25571
3182.05912	0.25086
3179.99954	0.24604
3177.93995	0.24131
3175.88037	0.23642
3173.82078	0.23135
3171.76119	0.22658
3169.70161	0.22230
3167.64202	0.21811
3165.58244	0.21377
3163.52285	0.20928
3161.46327	0.20471
3159.40368	0.20048
3157.34410	0.19689
3155.28451	0.19344
3153.22493	0.18984
3151.16534	0.18664
3149.10576	0.18383
3147.04617	0.18095
3144.98659	0.17785
3142.92700	0.17483
3140.86742	0.17261
3138.80783	0.17083
3136.74825	0.16865
3134.68866	0.16651
3132.62908	0.16505
3130.56949	0.16393
3128.50991	0.16258
3126.45032	0.16102
3124.39074	0.15992
3122.33115	0.15992
3120.27156	0.16043
3118.21198	0.16068
3116.15239	0.16085
3114.09281	0.16103
3112.03322	0.16141
3109.97364	0.16228
3107.91405	0.16302
3105.85447	0.16326
3103.79488	0.16369
3101.73530	0.16484
3099.67571	0.16637
3097.61613	0.16775
3095.55654	0.16920
3093.49696	0.17121
3091.43737	0.17357
3089.37779	0.17568
3087.31820	0.17727
3085.25862	0.17857
3083.19903	0.17981
3081.13945	0.18086
3079.07986	0.18155
3077.02028	0.18181
3074.96069	0.18159
3072.90111	0.18116
3070.84152	0.18113
3068.78194	0.18137
3066.72235	0.18094
3064.66276	0.17954
3062.60318	0.17761
3060.54359	0.17542
3058.48401	0.17299
3056.42442	0.17048
3054.36484	0.16822
3052.30525	0.16591
3050.24567	0.16278
3048.18608	0.15887
3046.12650	0.15527
3044.06691	0.15226
3042.00733	0.14894
3039.94774	0.14496
3037.88816	0.14104
3035.82857	0.13772
3033.76899	0.13484
3031.70940	0.13202
3029.64982	0.12909
3027.59023	0.12635
3025.53065	0.12385
3023.47106	0.12125
3021.41148	0.11874
3019.35189	0.11653
3017.29231	0.11443
3015.23272	0.11249
3013.17313	0.11083
3011.11355	0.10931
3009.05396	0.10784
3006.99438	0.10667
3004.93479	0.10617
3002.87521	0.10632
3000.81562	0.10697
2998.75604	0.10814
2996.69645	0.10968
2994.63687	0.11132
2992.57728	0.11302
2990.51770	0.11481
2988.45811	0.11648
2986.39853	0.11800
2984.33894	0.11959
2982.27936	0.12095
2980.21977	0.12132
2978.16019	0.12069
2976.10060	0.11985
2974.04102	0.11892
2971.98143	0.11757
2969.92185	0.11612
2967.86226	0.11511
2965.80268	0.11424
2963.74309	0.11305
2961.68351	0.11175
2959.62392	0.11058
2957.56433	0.10934
2955.50475	0.10848
2953.44516	0.10902
2951.38558	0.11100
2949.32599	0.11373
2947.26641	0.11677
2945.20682	0.11994
2943.14724	0.12321
2941.08765	0.12606
2939.02807	0.12785
2936.96848	0.12834
2934.90890	0.12745
2932.84931	0.12517
2930.78973	0.12155
2928.73014	0.11641
2926.67056	0.10957
2924.61097	0.10124
2922.55139	0.09167
2920.49180	0.08074
2918.43222	0.06887
2916.37263	0.05963
2914.31305	0.05786
2912.25346	0.06265
2910.19388	0.06826
2908.13429	0.07152
2906.07471	0.07257
2904.01512	0.07218
2901.95553	0.07123
2899.89595	0.07060
2897.83636	0.07041
2895.77678	0.07009
2893.71719	0.06941
2891.65761	0.06881
2889.59802	0.06872
2887.53844	0.06924
2885.47885	0.07008
2883.41927	0.07098
2881.35968	0.07191
2879.30010	0.07263
2877.24051	0.07272
2875.18093	0.07204
2873.12134	0.07063
2871.06176	0.06868
2869.00217	0.06652
2866.94259	0.06440
2864.88300	0.06227
2862.82342	0.06020
2860.76383	0.05839
2858.70425	0.05651
2856.64466	0.05385
2854.58508	0.04962
2852.52549	0.04256
2850.46590	0.03342
2848.40632	0.02771
2846.34673	0.03003
2844.28715	0.03694
2842.22756	0.04269
2840.16798	0.04596
2838.10839	0.04784
2836.04881	0.04892
2833.98922	0.04923
2831.92964	0.04926
2829.87005	0.04957
2827.81047	0.04981
2825.75088	0.04951
2823.69130	0.04892
2821.63171	0.04876
2819.57213	0.04912
2817.51254	0.04908
2815.45296	0.04832
2813.39337	0.04755
2811.33379	0.04717
2809.27420	0.04685
2807.21462	0.04634
2805.15503	0.04599
2803.09545	0.04560
2801.03586	0.04487
2798.97628	0.04417
2796.91669	0.04361
2794.85710	0.04307
2792.79752	0.04248
2790.73793	0.04176
2788.67835	0.04093
2786.61876	0.03993
2784.55918	0.03893
2782.49959	0.03823
2780.44001	0.03780
2778.38042	0.03725
2776.32084	0.03649
2774.26125	0.03576
2772.20167	0.03521
2770.14208	0.03475
2768.08250	0.03408
2766.02291	0.03319
2763.96333	0.03249
2761.90374	0.03213
2759.84416	0.03180
2757.78457	0.03122
2755.72499	0.03039
2753.66540	0.02956
2751.60582	0.02907
2749.54623	0.02889
2747.48665	0.02863
2745.42706	0.02818
2743.36747	0.02768
2741.30789	0.02710
2739.24830	0.02652
2737.18872	0.02598
2735.12913	0.02544
2733.06955	0.02500
2731.00996	0.02479
2728.95038	0.02466
2726.89079	0.02458
2724.83121	0.02448
2722.77162	0.02408
2720.71204	0.02340
2718.65245	0.02293
2716.59287	0.02277
2714.53328	0.02244
2712.47370	0.02189
2710.41411	0.02161
2708.35453	0.02175
2706.29494	0.02181
2704.23536	0.02147
2702.17577	0.02103
2700.11619	0.02087
2698.05660	0.02091
2695.99702	0.02085
2693.93743	0.02062
2691.87785	0.02032
2689.81826	0.02007
2687.75867	0.02001
2685.69909	0.02005
2683.63950	0.01991
2681.57992	0.01956
2679.52033	0.01920
2677.46075	0.01904
2675.40116	0.01919
2673.34158	0.01915
2671.28199	0.01874
2669.22241	0.01840
2667.16282	0.01835
2665.10324	0.01855
2663.04365	0.01877
2660.98407	0.01867
2658.92448	0.01839
2656.86490	0.01823
2654.80531	0.01807
2652.74573	0.01783
2650.68614	0.01769
2648.62656	0.01769
2646.56697	0.01770
2644.50739	0.01764
2642.44780	0.01761
2640.38822	0.01763
2638.32863	0.01743
2636.26904	0.01694
2634.20946	0.01661
2632.14987	0.01653
2630.09029	0.01660
2628.03070	0.01676
2625.97112	0.01684
2623.91153	0.01671
2621.85195	0.01643
2619.79236	0.01635
2617.73278	0.01638
2615.67319	0.01618
2613.61361	0.01593
2611.55402	0.01596
2609.49444	0.01606
2607.43485	0.01578
2605.37527	0.01533
2603.31568	0.01496
2601.25610	0.01428
2599.19651	0.01358
2597.13693	0.01365
2595.07734	0.01409
2593.01776	0.01416
2590.95817	0.01402
2588.89859	0.01379
2586.83900	0.01340
2584.77942	0.01305
2582.71983	0.01282
2580.66024	0.01253
2578.60066	0.01219
2576.54107	0.01207
2574.48149	0.01227
2572.42190	0.01236
2570.36232	0.01189
2568.30273	0.01121
2566.24315	0.01098
2564.18356	0.01102
2562.12398	0.01089
2560.06439	0.01052
2558.00481	0.01011
2555.94522	0.00993
2553.88564	0.00989
2551.82605	0.00983
2549.76647	0.00970
2547.70688	0.00945
2545.64730	0.00947
2543.58771	0.00966
2541.52813	0.00935
2539.46854	0.00873
2537.40896	0.00873
2535.34937	0.00953
2533.28979	0.01020
2531.23020	0.00999
2529.17062	0.00933
2527.11103	0.00895
2525.05144	0.00870
2522.99186	0.00858
2520.93227	0.00893
2518.87269	0.00934
2516.81310	0.00939
2514.75352	0.00945
2512.69393	0.00959
2510.63435	0.00927
2508.57476	0.00860
2506.51518	0.00823
2504.45559	0.00824
2502.39601	0.00823
2500.33642	0.00791
2498.27684	0.00736
2496.21725	0.00695
2494.15767	0.00721
2492.09808	0.00791
2490.03850	0.00813
2487.97891	0.00802
2485.91933	0.00815
2483.85974	0.00828
2481.80016	0.00818
2479.74057	0.00789
2477.68099	0.00757
2475.62140	0.00729
2473.56181	0.00708
2471.50223	0.00722
2469.44264	0.00762
2467.38306	0.00759
2465.32347	0.00738
2463.26389	0.00749
2461.20430	0.00762
2459.14472	0.00772
2457.08513	0.00778
2455.02555	0.00756
2452.96596	0.00716
2450.90638	0.00691
2448.84679	0.00697
2446.78721	0.00712
2444.72762	0.00719
2442.66804	0.00711
2440.60845	0.00699
2438.54887	0.00697
2436.48928	0.00682
2434.42970	0.00660
2432.37011	0.00649
2430.31053	0.00655
2428.25094	0.00694
2426.19136	0.00722
2424.13177	0.00700
2422.07219	0.00669
2420.01260	0.00647
2417.95301	0.00614
2415.89343	0.00574
2413.83384	0.00548
2411.77426	0.00561
2409.71467	0.00589
2407.65509	0.00579
2405.59550	0.00556
2403.53592	0.00577
2401.47633	0.00604
2399.41675	0.00567
2397.35716	0.00545
2395.29758	0.00570
2393.23799	0.00609
2391.17841	0.00626
2389.11882	0.00619
2387.05924	0.00614
2384.99965	0.00617
2382.94007	0.00610
2380.88048	0.00580
2378.82090	0.00541
2376.76131	0.00516
2374.70173	0.00516
2372.64214	0.00528
2370.58256	0.00491
2368.52297	0.00402
2366.46338	0.00340
2364.40380	0.00333
2362.34421	0.00338
2360.28463	0.00360
2358.22504	0.00435
2356.16546	0.00534
2354.10587	0.00590
2352.04629	0.00618
2349.98670	0.00659
2347.92712	0.00670
2345.86753	0.00588
2343.80795	0.00469
2341.74836	0.00406
2339.68878	0.00418
2337.62919	0.00463
2335.56961	0.00494
2333.51002	0.00493
2331.45044	0.00490
2329.39085	0.00533
2327.33127	0.00647
2325.27168	0.00765
2323.21210	0.00783
2321.15251	0.00722
2319.09293	0.00671
2317.03334	0.00672
2314.97376	0.00712
2312.91417	0.00751
2310.85458	0.00761
2308.79500	0.00766
2306.73541	0.00783
2304.67583	0.00791
2302.61624	0.00762
2300.55666	0.00715
2298.49707	0.00708
2296.43749	0.00742
2294.37790	0.00741
2292.31832	0.00715
2290.25873	0.00732
2288.19915	0.00790
2286.13956	0.00822
2284.07998	0.00794
2282.02039	0.00730
2279.96081	0.00694
2277.90122	0.00697
2275.84164	0.00685
2273.78205	0.00662
2271.72247	0.00684
2269.66288	0.00744
2267.60330	0.00792
2265.54371	0.00798
2263.48413	0.00771
2261.42454	0.00734
2259.36495	0.00681
2257.30537	0.00609
2255.24578	0.00566
2253.18620	0.00613
2251.12661	0.00726
2249.06703	0.00785
2247.00744	0.00756
2244.94786	0.00690
2242.88827	0.00643
2240.82869	0.00621
2238.76910	0.00644
2236.70952	0.00688
2234.64993	0.00673
2232.59035	0.00619
2230.53076	0.00603
2228.47118	0.00615
2226.41159	0.00563
2224.35201	0.00472
2222.29242	0.00472
2220.23284	0.00546
2218.17325	0.00584
2216.11367	0.00639
2214.05408	0.00740
2211.99450	0.00730
2209.93491	0.00668
2207.87533	0.00742
2205.81574	0.00844
2203.75615	0.00853
2201.69657	0.00812
2199.63698	0.00731
2197.57740	0.00674
2195.51781	0.00640
2193.45823	0.00607
2191.39864	0.00670
2189.33906	0.00791
2187.27947	0.00846
2185.21989	0.00836
2183.16030	0.00812
2181.10072	0.00735
2179.04113	0.00614
2176.98155	0.00549
2174.92196	0.00506
2172.86238	0.00455
2170.80279	0.00549
2168.74321	0.00752
2166.68362	0.00787
2164.62404	0.00671
2162.56445	0.00697
2160.50487	0.00791
2158.44528	0.00741
2156.38570	0.00677
2154.32611	0.00651
2152.26652	0.00619
2150.20694	0.00588
2148.14735	0.00560
2146.08777	0.00565
2144.02818	0.00612
2141.96860	0.00650
2139.90901	0.00629
2137.84943	0.00551
2135.78984	0.00489
2133.73026	0.00531
2131.67067	0.00632
2129.61109	0.00707
2127.55150	0.00746
2125.49192	0.00750
2123.43233	0.00733
2121.37275	0.00762
2119.31316	0.00836
2117.25358	0.00900
2115.19399	0.00931
2113.13441	0.00921
2111.07482	0.00883
2109.01524	0.00869
2106.95565	0.00905
2104.89607	0.00935
2102.83648	0.00917
2100.77690	0.00918
2098.71731	0.00946
2096.65772	0.00913
2094.59814	0.00845
2092.53855	0.00809
2090.47897	0.00770
2088.41938	0.00720
2086.35980	0.00724
2084.30021	0.00774
2082.24063	0.00801
2080.18104	0.00791
2078.12146	0.00772
2076.06187	0.00743
2074.00229	0.00705
2071.94270	0.00700
2069.88312	0.00725
2067.82353	0.00774
2065.76395	0.00838
2063.70436	0.00847
2061.64478	0.00780
2059.58519	0.00697
2057.52561	0.00638
2055.46602	0.00605
2053.40644	0.00611
2051.34685	0.00671
2049.28727	0.00718
2047.22768	0.00697
2045.16810	0.00648
2043.10851	0.00613
2041.04892	0.00618
2038.98934	0.00650
2036.92975	0.00624
2034.87017	0.00545
2032.81058	0.00513
2030.75100	0.00493
2028.69141	0.00406
2026.63183	0.00370
2024.57224	0.00472
2022.51266	0.00583
2020.45307	0.00580
2018.39349	0.00485
2016.33390	0.00389
2014.27432	0.00422
2012.21473	0.00545
2010.15515	0.00575
2008.09556	0.00498
2006.03598	0.00391
2003.97639	0.00316
2001.91681	0.00351
1999.85722	0.00478
1997.79764	0.00595
1995.73805	0.00638
1993.67847	0.00586
1991.61888	0.00501
1989.55929	0.00480
1987.49971	0.00526
1985.44012	0.00607
1983.38054	0.00710
1981.32095	0.00787
1979.26137	0.00715
1977.20178	0.00498
1975.14220	0.00338
1973.08261	0.00309
1971.02303	0.00328
1968.96344	0.00343
1966.90386	0.00333
1964.84427	0.00327
1962.78469	0.00364
1960.72510	0.00428
1958.66552	0.00485
1956.60593	0.00503
1954.54635	0.00502
1952.48676	0.00534
1950.42718	0.00572
1948.36759	0.00538
1946.30801	0.00444
1944.24842	0.00375
1942.18884	0.00383
1940.12925	0.00432
1938.06967	0.00471
1936.01008	0.00490
1933.95049	0.00478
1931.89091	0.00442
1929.83132	0.00426
1927.77174	0.00428
1925.71215	0.00401
1923.65257	0.00371
1921.59298	0.00413
1919.53340	0.00508
1917.47381	0.00566
1915.41423	0.00546
1913.35464	0.00501
1911.29506	0.00498
1909.23547	0.00542
1907.17589	0.00583
1905.11630	0.00582
1903.05672	0.00553
1900.99713	0.00541
1898.93755	0.00557
1896.87796	0.00577
1894.81838	0.00585
1892.75879	0.00593
1890.69921	0.00623
1888.63962	0.00656
1886.58004	0.00654
1884.52045	0.00630
1882.46086	0.00606
1880.40128	0.00580
1878.34169	0.00567
1876.28211	0.00582
1874.22252	0.00614
1872.16294	0.00653
1870.10335	0.00657
1868.04377	0.00613
1865.98418	0.00595
1863.92460	0.00613
1861.86501	0.00618
1859.80543	0.00608
1857.74584	0.00612
1855.68626	0.00629
1853.62667	0.00653
1851.56709	0.00668
1849.50750	0.00662
1847.44792	0.00647
1845.38833	0.00657
1843.32875	0.00689
1841.26916	0.00709
1839.20958	0.00717
1837.14999	0.00728
1835.09041	0.00732
1833.03082	0.00728
1830.97124	0.00727
1828.91165	0.00739
1826.85206	0.00769
1824.79248	0.00806
1822.73289	0.00821
1820.67331	0.00813
1818.61372	0.00816
1816.55414	0.00842
1814.49455	0.00867
1812.43497	0.00873
1810.37538	0.00874
1808.31580	0.00896
1806.25621	0.00932
1804.19663	0.00961
1802.13704	0.00970
1800.07746	0.00977
1798.01787	0.00992
1795.95829	0.01012
1793.89870	0.01050
1791.83912	0.01100
1789.77953	0.01118
1787.71995	0.01115
1785.66036	0.01134
1783.60078	0.01171
1781.54119	0.01197
1779.48161	0.01209
1777.42202	0.01222
1775.36243	0.01243
1773.30285	0.01274
1771.24326	0.01311
1769.18368	0.01338
1767.12409	0.01361
1765.06451	0.01399
1763.00492	0.01447
1760.94534	0.01481
1758.88575	0.01502
1756.82617	0.01531
1754.76658	0.01570
1752.70700	0.01609
1750.64741	0.01660
1748.58783	0.01715
1746.52824	0.01763
1744.46866	0.01812
1742.40907	0.01862
1740.34949	0.01910
1738.28990	0.01962
1736.23032	0.02030
1734.17073	0.02141
1732.11115	0.02269
1730.05156	0.02359
1727.99198	0.02435
1725.93239	0.02534
1723.87281	0.02674
1721.81322	0.02833
1719.75363	0.03037
1717.69405	0.03363
1715.63446	0.03817
1713.57488	0.04317
1711.51529	0.04883
1709.45571	0.05589
1707.39612	0.06566
1705.33654	0.07864
1703.27695	0.09247
1701.21737	0.10723
1699.15778	0.12366
1697.09820	0.13843
1695.03861	0.15161
1692.97903	0.16326
1690.91944	0.17434
1688.85986	0.18625
1686.80027	0.19893
1684.74069	0.21571
1682.68110	0.23566
1680.62152	0.25138
1678.56193	0.26432
1676.50235	0.27947
1674.44276	0.29774
1672.38318	0.31584
1670.32359	0.33515
1668.26401	0.35656
1666.20442	0.37483
1664.14483	0.39223
1662.08525	0.41330
1660.02566	0.43400
1657.96608	0.45000
1655.90649	0.46465
1653.84691	0.48633
1651.78732	0.51166
1649.72774	0.52621
1647.66815	0.53718
1645.60857	0.55085
1643.54898	0.56086
1641.48940	0.56613
1639.42981	0.56945
1637.37023	0.57232
1635.31064	0.57495
1633.25106	0.57535
1631.19147	0.57322
1629.13189	0.57017
1627.07230	0.56676
1625.01272	0.56188
1622.95313	0.55382
1620.89355	0.54166
1618.83396	0.52360
1616.77438	0.49667
1614.71479	0.46567
1612.65520	0.43625
1610.59562	0.40516
1608.53603	0.37115
1606.47645	0.33848
1604.41686	0.31034
1602.35728	0.28695
1600.29769	0.26827
1598.23811	0.25382
1596.17852	0.24197
1594.11894	0.23149
1592.05935	0.22247
1589.99977	0.21537
1587.94018	0.21058
1585.88060	0.20831
1583.82101	0.20845
1581.76143	0.21047
1579.70184	0.21395
1577.64226	0.22034
1575.58267	0.23070
1573.52309	0.24135
1571.46350	0.25183
1569.40392	0.26604
1567.34433	0.28230
1565.28475	0.29704
1563.22516	0.30952
1561.16558	0.32257
1559.10599	0.34417
1557.04640	0.36973
1554.98682	0.38703
1552.92723	0.40082
1550.86765	0.41555
1548.80806	0.43037
1546.74848	0.44311
1544.68889	0.45459
1542.62931	0.46768
1540.56972	0.48470
1538.51014	0.50148
1536.45055	0.51171
1534.39097	0.52056
1532.33138	0.53146
1530.27180	0.54016
1528.21221	0.54617
1526.15263	0.55148
1524.09304	0.55637
1522.03346	0.56264
1519.97387	0.57147
1517.91429	0.58113
1515.85470	0.58918
1513.79512	0.59143
1511.73553	0.58668
1509.67595	0.57590
1507.61636	0.55659
1505.55677	0.53098
1503.49719	0.50894
1501.43760	0.48872
1499.37802	0.46466
1497.31843	0.43586
1495.25885	0.40746
1493.19926	0.38378
1491.13968	0.36048
1489.08009	0.33393
1487.02051	0.30933
1484.96092	0.29018
1482.90134	0.27439
1480.84175	0.26025
1478.78217	0.24837
1476.72258	0.23884
1474.66300	0.23107
1472.60341	0.22541
1470.54383	0.22228
1468.48424	0.22105
1466.42466	0.22129
1464.36507	0.22346
1462.30549	0.22706
1460.24590	0.23182
1458.18632	0.23977
1456.12673	0.25053
1454.06715	0.25836
1452.00756	0.26217
1449.94797	0.26350
1447.88839	0.26227
1445.82880	0.25822
1443.76922	0.25197
1441.70963	0.24447
1439.65005	0.23635
1437.59046	0.22716
1435.53088	0.21733
1433.47129	0.20931
1431.41171	0.20363
1429.35212	0.19998
1427.29254	0.19862
1425.23295	0.19955
1423.17337	0.20243
1421.11378	0.20703
1419.05420	0.21361
1416.99461	0.22075
1414.93503	0.22624
1412.87544	0.23008
1410.81586	0.23244
1408.75627	0.23285
1406.69669	0.23111
1404.63710	0.22748
1402.57752	0.22285
1400.51793	0.21828
1398.45834	0.21463
1396.39876	0.21272
1394.33917	0.21270
1392.27959	0.21390
1390.22000	0.21562
1388.16042	0.21768
1386.10083	0.21958
1384.04125	0.22058
1381.98166	0.22063
1379.92208	0.21992
1377.86249	0.21839
1375.80291	0.21591
1373.74332	0.21236
1371.68374	0.20770
1369.62415	0.20189
1367.56457	0.19504
1365.50498	0.18765
1363.44540	0.18002
1361.38581	0.17285
1359.32623	0.16721
1357.26664	0.16327
1355.20706	0.16080
1353.14747	0.15974
1351.08789	0.16010
1349.02830	0.16188
1346.96872	0.16498
1344.90913	0.16909
1342.84954	0.17379
1340.78996	0.17882
1338.73037	0.18364
1336.67079	0.18709
1334.61120	0.18857
1332.55162	0.18812
1330.49203	0.18584
1328.43245	0.18195
1326.37286	0.17705
1324.31328	0.17200
1322.25369	0.16755
1320.19411	0.16415
1318.13452	0.16192
1316.07494	0.16079
1314.01535	0.16059
1311.95577	0.16110
1309.89618	0.16203
1307.83660	0.16317
1305.77701	0.16443
1303.71743	0.16579
1301.65784	0.16716
1299.59826	0.16855
1297.53867	0.17005
1295.47909	0.17164
1293.41950	0.17322
1291.35991	0.17472
1289.30033	0.17621
1287.24074	0.17775
1285.18116	0.17946
1283.12157	0.18159
1281.06199	0.18436
1279.00240	0.18788
1276.94282	0.19220
1274.88323	0.19719
1272.82365	0.20274
1270.76406	0.20854
1268.70448	0.21410
1266.64489	0.21917
1264.58531	0.22376
1262.52572	0.22805
1260.46614	0.23238
1258.40655	0.23697
1256.34697	0.24188
1254.28738	0.24714
1252.22780	0.25278
1250.16821	0.25887
1248.10863	0.26524
1246.04904	0.27171
1243.98946	0.27809
1241.92987	0.28410
1239.87029	0.28947
1237.81070	0.29396
1235.75111	0.29723
1233.69153	0.29879
1231.63194	0.29826
1229.57236	0.29538
1227.51277	0.29004
1225.45319	0.28237
1223.39360	0.27280
1221.33402	0.26190
1219.27443	0.25002
1217.21485	0.23747
1215.15526	0.22469
1213.09568	0.21215
1211.03609	0.20029
1208.97651	0.18934
1206.91692	0.17924
1204.85734	0.16985
1202.79775	0.16113
1200.73817	0.15323
1198.67858	0.14634
1196.61900	0.14049
1194.55941	0.13577
1192.49983	0.13219
1190.44024	0.12959
1188.38066	0.12791
1186.32107	0.12711
1184.26149	0.12724
1182.20190	0.12853
1180.14231	0.13120
1178.08273	0.13522
1176.02314	0.13993
1173.96356	0.14436
1171.90397	0.14775
1169.84439	0.14972
1167.78480	0.15044
1165.72522	0.15028
1163.66563	0.14939
1161.60605	0.14772
1159.54646	0.14534
1157.48688	0.14239
1155.42729	0.13893
1153.36771	0.13504
1151.30812	0.13093
1149.24854	0.12682
1147.18895	0.12288
1145.12937	0.11917
1143.06978	0.11589
1141.01020	0.11312
1138.95061	0.11072
1136.89103	0.10868
1134.83144	0.10712
1132.77186	0.10601
1130.71227	0.10512
1128.65268	0.10438
1126.59310	0.10398
1124.53351	0.10383
1122.47393	0.10357
1120.41434	0.10314
1118.35476	0.10267
1116.29517	0.10232
1114.23559	0.10211
1112.17600	0.10206
1110.11642	0.10232
1108.05683	0.10287
1105.99725	0.10344
1103.93766	0.10352
1101.87808	0.10275
1099.81849	0.10125
1097.75891	0.09961
1095.69932	0.09852
1093.63974	0.09836
1091.58015	0.09931
1089.52057	0.10147
1087.46098	0.10475
1085.40140	0.10891
1083.34181	0.11355
1081.28223	0.11822
1079.22264	0.12268
1077.16306	0.12668
1075.10347	0.12994
1073.04388	0.13245
1070.98430	0.13414
1068.92471	0.13496
1066.86513	0.13530
1064.80554	0.13551
1062.74596	0.13581
1060.68637	0.13639
1058.62679	0.13697
1056.56720	0.13698
1054.50762	0.13596
1052.44803	0.13384
1050.38845	0.13095
1048.32886	0.12750
1046.26928	0.12358
1044.20969	0.11951
1042.15011	0.11575
1040.09052	0.11253
1038.03094	0.10976
1035.97135	0.10744
1033.91177	0.10570
1031.85218	0.10437
1029.79260	0.10314
1027.73301	0.10198
1025.67343	0.10115
1023.61384	0.10122
1021.55425	0.10305
1019.49467	0.10675
1017.43508	0.11096
1015.37550	0.11375
1013.31591	0.11401
1011.25633	0.11165
1009.19674	0.10734
1007.13716	0.10210
1005.07757	0.09694
1003.01799	0.09232
1000.95840	0.08822
998.89882	0.08455
996.83923	0.08110
994.77965	0.07771
992.72006	0.07440
990.66048	0.07118
988.60089	0.06833
986.54131	0.06624
984.48172	0.06512
982.42214	0.06481
980.36255	0.06491
978.30297	0.06511
976.24338	0.06522
974.18380	0.06502
972.12421	0.06452
970.06463	0.06396
968.00504	0.06360
965.94545	0.06357
963.88587	0.06393
961.82628	0.06449
959.76670	0.06496
957.70711	0.06544
955.64753	0.06606
953.58794	0.06666
951.52836	0.06715
949.46877	0.06753
947.40919	0.06772
945.34960	0.06765
943.29002	0.06733
941.23043	0.06681
939.17085	0.06609
937.11126	0.06515
935.05168	0.06412
932.99209	0.06311
930.93251	0.06215
928.87292	0.06121
926.81334	0.06020
924.75375	0.05914
922.69417	0.05802
920.63458	0.05680
918.57500	0.05555
916.51541	0.05446
914.45582	0.05354
912.39624	0.05270
910.33665	0.05193
908.27707	0.05122
906.21748	0.05059
904.15790	0.05016
902.09831	0.04992
900.03873	0.04970
897.97914	0.04944
895.91956	0.04920
893.85997	0.04901
891.80039	0.04886
889.74080	0.04882
887.68122	0.04896
885.62163	0.04929
883.56205	0.04971
881.50246	0.05004
879.44288	0.05022
877.38329	0.05043
875.32371	0.05081
873.26412	0.05131
871.20454	0.05190
869.14495	0.05265
867.08537	0.05374
865.02578	0.05519
862.96620	0.05681
860.90661	0.05846
858.84702	0.06028
856.78744	0.06216
854.72785	0.06382
852.66827	0.06504
850.60868	0.06564
848.54910	0.06573
846.48951	0.06569
844.42993	0.06591
842.37034	0.06661
840.31076	0.06779
838.25117	0.06919
836.19159	0.07059
834.13200	0.07194
832.07242	0.07312
830.01283	0.07392
827.95325	0.07423
825.89366	0.07412
823.83408	0.07377
821.77449	0.07347
819.71491	0.07345
817.65532	0.07380
815.59574	0.07449
813.53615	0.07539
811.47657	0.07633
809.41698	0.07711
807.35740	0.07778
805.29781	0.07855
803.23822	0.07930
801.17864	0.07980
799.11905	0.08009
797.05947	0.08041
794.99988	0.08101
792.94030	0.08184
790.88071	0.08268
788.82113	0.08371
786.76154	0.08501
784.70196	0.08634
782.64237	0.08760
780.58279	0.08891
778.52320	0.09018
776.46362	0.09138
774.40403	0.09268
772.34445	0.09407
770.28486	0.09541
768.22528	0.09667
766.16569	0.09802
764.10611	0.09936
762.04652	0.10060
759.98694	0.10197
757.92735	0.10352
755.86777	0.10505
753.80818	0.10671
751.74859	0.10873
749.68901	0.11073
747.62942	0.11243
745.56984	0.11401
743.51025	0.11557
741.45067	0.11716
739.39108	0.11899
737.33150	0.12103
735.27191	0.12305
733.21233	0.12490
731.15274	0.12651
729.09316	0.12805
727.03357	0.12971
724.97399	0.13145
722.91440	0.13309
720.85482	0.13459
718.79523	0.13611
716.73565	0.13785
714.67606	0.13971
712.61648	0.14159
710.55689	0.14354
708.49731	0.14549
706.43772	0.14742
704.37814	0.14948
702.31855	0.15143
700.25897	0.15298
698.19938	0.15435
696.13979	0.15573
694.08021	0.15700
692.02062	0.15814
689.96104	0.15937
687.90145	0.16077
685.84187	0.16215
683.78228	0.16333
681.72270	0.16440
679.66311	0.16551
677.60353	0.16653
675.54394	0.16737
673.48436	0.16818
671.42477	0.16890
669.36519	0.16977
667.30560	0.17112
665.24602	0.17197
663.18643	0.17238
661.12685	0.17301
659.06726	0.17361
657.00768	0.17397
654.94809	0.17443
652.88851	0.17504
650.82892	0.17548
648.76934	0.17572
646.70975	0.17588
644.65016	0.17598
642.59058	0.17604
640.53099	0.17608
638.47141	0.17611
636.41182	0.17619
634.35224	0.17629
632.29265	0.17627
630.23307	0.17616
628.17348	0.17604
626.11390	0.17597
624.05431	0.17592
621.99473	0.17596
619.93514	0.17598
617.87556	0.17591
615.81597	0.17591
613.75639	0.17607
611.69680	0.17616
609.63722	0.17625
607.57763	0.17649
605.51805	0.17646
603.45846	0.17600
601.39888	0.17556
599.33929	0.17527
597.27971	0.17508
595.22012	0.17503
593.16054	0.17497
591.10095	0.17495
589.04136	0.17522
586.98178	0.17575
584.92219	0.17631
582.86261	0.17694
580.80302	0.17785
578.74344	0.17891
576.68385	0.17985
574.62427	0.18073
572.56468	0.18180
570.50510	0.18303
568.44551	0.18425
566.38593	0.18547
564.32634	0.18694
562.26676	0.18867
560.20717	0.19070
558.14759	0.19300
556.08800	0.19529
554.02842	0.19736
551.96883	0.19914
549.90925	0.20062
547.84966	0.20175
545.79008	0.20238
543.73049	0.20253
541.67091	0.20240
539.61132	0.20195
537.55173	0.20105
535.49215	0.20007
533.43256	0.19951
531.37298	0.19915
529.31339	0.19834
527.25381	0.19714
525.19422	0.19619
523.13464	0.19571
521.07505	0.19545
519.01547	0.19530
516.95588	0.19516
514.89630	0.19482
512.83671	0.19437
510.77713	0.19398
508.71754	0.19347
506.65796	0.19266
504.59837	0.19173
502.53879	0.19091
500.47920	0.19010
498.41962	0.18929
496.36003	0.18870
494.30045	0.18842
492.24086	0.18821
490.18128	0.18779
488.12169	0.18710
486.06211	0.18601
484.00252	0.18451
481.94293	0.18304
479.88335	0.18176
477.82376	0.18030
475.76418	0.17871
473.70459	0.17762
471.64501	0.17706
469.58542	0.17620
467.52584	0.17477
465.46625	0.17322
463.40667	0.17185
461.34708	0.17063
459.28750	0.16937
457.22791	0.16791
455.16833	0.16661
453.10874	0.16565
451.04916	0.16490
448.98957	0.16411
446.92999	0.16283
444.87040	0.16133
442.81082	0.16048
440.75123	0.16006
438.69165	0.15919
436.63206	0.15775
434.57248	0.15636
432.51289	0.15563
430.45330	0.15558
428.39372	0.15568
426.33413	0.15535
424.27455	0.15473
422.21496	0.15411
420.15538	0.15358
418.09579	0.15320
416.03621	0.15255
413.97662	0.15152
411.91704	0.15062
409.85745	0.14993
407.79787	0.14915
405.73828	0.14830
403.67870	0.14736
401.61911	0.14622
399.55953	0.14501
