3997.70013	0.00762
3995.64052	0.00721
3993.58092	0.00652
3991.52131	0.00644
3989.46170	0.00668
3987.40209	0.00637
3985.34248	0.00620
3983.28287	0.00676
3981.22327	0.00709
3979.16366	0.00687
3977.10405	0.00707
3975.04444	0.00725
3972.98483	0.00711
3970.92522	0.00737
3968.86561	0.00780
3966.80601	0.00768
3964.74640	0.00729
3962.68679	0.00738
3960.62718	0.00748
3958.56757	0.00727
3956.50796	0.00670
3954.44835	0.00605
3952.38875	0.00618
3950.32914	0.00693
3948.26953	0.00691
3946.20992	0.00619
3944.15031	0.00675
3942.09070	0.00687
3940.03109	0.00567
3937.97149	0.00534
3935.91188	0.00585
3933.85227	0.00706
3931.79266	0.00716
3929.73305	0.00531
3927.67344	0.00455
3925.61384	0.00606
3923.55423	0.00650
3921.49462	0.00632
3919.43501	0.00748
3917.37540	0.00824
3915.31579	0.00717
3913.25618	0.00613
3911.19658	0.00574
3909.13697	0.00473
3907.07736	0.00505
3905.01775	0.00664
3902.95814	0.00600
3900.89853	0.00525
3898.83892	0.00474
3896.77932	0.00233
3894.71971	0.00247
3892.66010	0.00595
3890.60049	0.00592
3888.54088	0.00421
3886.48127	0.00657
3884.42166	0.00591
3882.36206	0.00533
3880.30245	0.00666
3878.24284	0.00380
3876.18323	0.00312
3874.12362	0.00409
3872.06401	0.00433
3870.00441	0.00537
3867.94480	0.00270
3865.88519	0.00314
3863.82558	0.00518
3861.76597	0.00352
3859.70636	0.00048
3857.64675	-0.00016
3855.58715	0.00592
3853.52754	0.01153
3851.46793	0.00582
3849.40832	0.00107
3847.34871	0.00177
3845.28910	0.00400
3843.22949	0.00431
3841.16989	0.00399
3839.11028	0.00616
3837.05067	0.00628
3834.99106	0.00405
3832.93145	0.00402
3830.87184	0.00419
3828.81223	0.00418
3826.75263	0.00420
3824.69302	0.00299
3822.63341	0.00566
3820.57380	0.00577
3818.51419	0.00262
3816.45458	0.00535
3814.39498	0.00476
3812.33537	0.00213
3810.27576	0.00285
3808.21615	0.00530
3806.15654	0.00335
3804.09693	0.00141
3802.03732	0.00565
3799.97772	0.00507
3797.91811	0.00379
3795.85850	0.00454
3793.79889	0.00360
3791.73928	0.00399
3789.67967	0.00506
3787.62006	0.00586
3785.56046	0.00646
3783.50085	0.00547
3781.44124	0.00539
3779.38163	0.00636
3777.32202	0.00476
3775.26241	0.00353
3773.20280	0.00449
3771.14320	0.00688
3769.08359	0.00690
3767.02398	0.00560
3764.96437	0.00419
3762.90476	0.00237
3760.84515	0.00425
3758.78555	0.00539
3756.72594	0.00290
3754.66633	0.00277
3752.60672	0.00742
3750.54711	0.00857
3748.48750	0.00246
3746.42789	0.00275
3744.36829	0.00741
3742.30868	0.00346
3740.24907	0.00096
3738.18946	0.00366
3736.12985	0.00613
3734.07024	0.00530
3732.01063	0.00383
3729.95103	0.00256
3727.89142	0.00405
3725.83181	0.00615
3723.77220	0.00650
3721.71259	0.00652
3719.65298	0.00568
3717.59337	0.00375
3715.53377	0.00281
3713.47416	0.00591
3711.41455	0.00845
3709.35494	0.00592
3707.29533	0.00297
3705.23572	0.00328
3703.17612	0.00623
3701.11651	0.00716
3699.05690	0.00565
3696.99729	0.00528
3694.93768	0.00454
3692.87807	0.00481
3690.81846	0.00791
3688.75886	0.00950
3686.69925	0.00648
3684.63964	0.00530
3682.58003	0.00694
3680.52042	0.00766
3678.46081	0.00871
3676.40120	0.01198
3674.34160	0.00901
3672.28199	0.00692
3670.22238	0.01239
3668.16277	0.01242
3666.10316	0.01014
3664.04355	0.01060
3661.98394	0.01094
3659.92434	0.01093
3657.86473	0.01307
3655.80512	0.01331
3653.74551	0.01045
3651.68590	0.01349
3649.62629	0.01836
3647.56669	0.01755
3645.50708	0.01517
3643.44747	0.01622
3641.38786	0.01911
3639.32825	0.02080
3637.26864	0.02123
3635.20903	0.02081
3633.14943	0.01990
3631.08982	0.02342
3629.03021	0.03005
3626.97060	0.02843
3624.91099	0.02497
3622.85138	0.02572
3620.79177	0.02933
3618.73217	0.03084
3616.67256	0.02923
3614.61295	0.03015
3612.55334	0.03195
3610.49373	0.03350
3608.43412	0.03613
3606.37451	0.03632
3604.31491	0.03580
3602.25530	0.03760
3600.19569	0.03957
3598.13608	0.04047
3596.07647	0.04202
3594.01686	0.04292
3591.95726	0.04250
3589.89765	0.04478
3587.83804	0.04857
3585.77843	0.04851
3583.71882	0.04797
3581.65921	0.04997
3579.59960	0.05231
3577.54000	0.05399
3575.48039	0.05532
3573.42078	0.05559
3571.36117	0.05578
3569.30156	0.05873
3567.24195	0.06216
3565.18234	0.06188
3563.12274	0.06175
3561.06313	0.06389
3559.00352	0.06595
3556.94391	0.06715
3554.88430	0.06838
3552.82469	0.06942
3550.76508	0.06931
3548.70548	0.07034
3546.64587	0.07331
3544.58626	0.07529
3542.52665	0.07590
3540.46704	0.07679
3538.40743	0.07885
3536.34783	0.08121
3534.28822	0.08233
3532.22861	0.08304
3530.16900	0.08446
3528.10939	0.08593
3526.04978	0.08672
3523.99017	0.08737
3521.93057	0.08796
3519.87096	0.08905
3517.81135	0.09068
3515.75174	0.09180
3513.69213	0.09272
3511.63252	0.09430
3509.57291	0.09591
3507.51331	0.09620
3505.45370	0.09671
3503.39409	0.09799
3501.33448	0.09856
3499.27487	0.09940
3497.21526	0.10095
3495.15565	0.10218
3493.09605	0.10300
3491.03644	0.10369
3488.97683	0.10435
3486.91722	0.10502
3484.85761	0.10578
3482.79800	0.10671
3480.73840	0.10719
3478.67879	0.10785
3476.61918	0.10913
3474.55957	0.11009
3472.49996	0.11073
3470.44035	0.11152
3468.38074	0.11232
3466.32114	0.11294
3464.26153	0.11370
3462.20192	0.11442
3460.14231	0.11467
3458.08270	0.11500
3456.02309	0.11556
3453.96348	0.11651
3451.90388	0.11748
3449.84427	0.11832
3447.78466	0.11972
3445.72505	0.12048
3443.66544	0.12119
3441.60583	0.12214
3439.54622	0.12254
3437.48662	0.12319
3435.42701	0.12394
3433.36740	0.12483
3431.30779	0.12593
3429.24818	0.12688
3427.18857	0.12796
3425.12897	0.12914
3423.06936	0.13022
3421.00975	0.13146
3418.95014	0.13259
3416.89053	0.13364
3414.83092	0.13453
3412.77131	0.13514
3410.71171	0.13607
3408.65210	0.13741
3406.59249	0.13884
3404.53288	0.14039
3402.47327	0.14173
3400.41366	0.14283
3398.35405	0.14453
3396.29445	0.14627
3394.23484	0.14768
3392.17523	0.14873
3390.11562	0.14950
3388.05601	0.15078
3385.99640	0.15232
3383.93679	0.15366
3381.87719	0.15526
3379.81758	0.15725
3377.75797	0.15928
3375.69836	0.16112
3373.63875	0.16250
3371.57914	0.16356
3369.51954	0.16479
3367.45993	0.16651
3365.40032	0.16840
3363.34071	0.17039
3361.28110	0.17265
3359.22149	0.17451
3357.16188	0.17576
3355.10228	0.17717
3353.04267	0.17953
3350.98306	0.18244
3348.92345	0.18483
3346.86384	0.18646
3344.80423	0.18769
3342.74462	0.18897
3340.68502	0.19088
3338.62541	0.19330
3336.56580	0.19536
3334.50619	0.19687
3332.44658	0.19851
3330.38697	0.20048
3328.32736	0.20273
3326.26776	0.20516
3324.20815	0.20716
3322.14854	0.20887
3320.08893	0.21106
3318.02932	0.21377
3315.96971	0.21643
3313.91011	0.21858
3311.85050	0.22038
3309.79089	0.22253
3307.73128	0.22479
3305.67167	0.22666
3303.61206	0.22849
3301.55245	0.23012
3299.49285	0.23151
3297.43324	0.23271
3295.37363	0.23390
3293.31402	0.23580
3291.25441	0.23780
3289.19480	0.23863
3287.13519	0.23887
3285.07559	0.23956
3283.01598	0.24052
3280.95637	0.24103
3278.89676	0.24116
3276.83715	0.24130
3274.77754	0.24145
3272.71793	0.24149
3270.65833	0.24130
3268.59872	0.24076
3266.53911	0.23974
3264.47950	0.23841
3262.41989	0.23702
3260.36028	0.23570
3258.30068	0.23442
3256.24107	0.23280
3254.18146	0.23092
3252.12185	0.22918
3250.06224	0.22757
3248.00263	0.22595
3245.94302	0.22456
3243.88342	0.22298
3241.82381	0.22115
3239.76420	0.21945
3237.70459	0.21775
3235.64498	0.21576
3233.58537	0.21358
3231.52576	0.21178
3229.46616	0.21046
3227.40655	0.20914
3225.34694	0.20753
3223.28733	0.20567
3221.22772	0.20355
3219.16811	0.20111
3217.10850	0.19889
3215.04890	0.19755
3212.98929	0.19629
3210.92968	0.19437
3208.87007	0.19204
3206.81046	0.18993
3204.75085	0.18829
3202.69125	0.18640
3200.63164	0.18415
3198.57203	0.18198
3196.51242	0.17965
3194.45281	0.17712
3192.39320	0.17467
3190.33359	0.17230
3188.27399	0.17011
3186.21438	0.16809
3184.15477	0.16591
3182.09516	0.16335
3180.03555	0.16075
3177.97594	0.15839
3175.91633	0.15608
3173.85673	0.15375
3171.79712	0.15155
3169.73751	0.14961
3167.67790	0.14775
3165.61829	0.14568
3163.55868	0.14339
3161.49907	0.14101
3159.43947	0.13875
3157.37986	0.13668
3155.32025	0.13461
3153.26064	0.13258
3151.20103	0.13056
3149.14142	0.12849
3147.08182	0.12685
3145.02221	0.12556
3142.96260	0.12414
3140.90299	0.12265
3138.84338	0.12128
3136.78377	0.11998
3134.72416	0.11900
3132.66456	0.11815
3130.60495	0.11702
3128.54534	0.11613
3126.48573	0.11573
3124.42612	0.11549
3122.36651	0.11539
3120.30690	0.11553
3118.24730	0.11577
3116.18769	0.11562
3114.12808	0.11496
3112.06847	0.11461
3110.00886	0.11496
3107.94925	0.11522
3105.88965	0.11503
3103.83004	0.11505
3101.77043	0.11573
3099.71082	0.11649
3097.65121	0.11691
3095.59160	0.11737
3093.53199	0.11836
3091.47239	0.11984
3089.41278	0.12075
3087.35317	0.12082
3085.29356	0.12110
3083.23395	0.12209
3081.17434	0.12315
3079.11473	0.12376
3077.05513	0.12380
3074.99552	0.12319
3072.93591	0.12253
3070.87630	0.12261
3068.81669	0.12288
3066.75708	0.12248
3064.69747	0.12155
3062.63787	0.12046
3060.57826	0.11937
3058.51865	0.11840
3056.45904	0.11731
3054.39943	0.11589
3052.33982	0.11447
3050.28022	0.11325
3048.22061	0.11206
3046.16100	0.11063
3044.10139	0.10887
3042.04178	0.10674
3039.98217	0.10424
3037.92256	0.10198
3035.86296	0.10023
3033.80335	0.09860
3031.74374	0.09688
3029.68413	0.09501
3027.62452	0.09323
3025.56491	0.09176
3023.50530	0.09037
3021.44570	0.08894
3019.38609	0.08751
3017.32648	0.08618
3015.26687	0.08487
3013.20726	0.08354
3011.14765	0.08240
3009.08804	0.08144
3007.02844	0.08059
3004.96883	0.08008
3002.90922	0.08004
3000.84961	0.08027
2998.79000	0.08056
2996.73039	0.08071
2994.67079	0.08107
2992.61118	0.08188
2990.55157	0.08283
2988.49196	0.08387
2986.43235	0.08469
2984.37274	0.08500
2982.31313	0.08508
2980.25353	0.08510
2978.19392	0.08493
2976.13431	0.08447
2974.07470	0.08386
2972.01509	0.08335
2969.95548	0.08304
2967.89587	0.08275
2965.83627	0.08239
2963.77666	0.08214
2961.71705	0.08210
2959.65744	0.08210
2957.59783	0.08199
2955.53822	0.08182
2953.47861	0.08196
2951.41901	0.08263
2949.35940	0.08362
2947.29979	0.08484
2945.24018	0.08629
2943.18057	0.08769
2941.12096	0.08903
2939.06136	0.09040
2937.00175	0.09121
2934.94214	0.09104
2932.88253	0.09017
2930.82292	0.08895
2928.76331	0.08745
2926.70370	0.08570
2924.64410	0.08378
2922.58449	0.08170
2920.52488	0.07975
2918.46527	0.07806
2916.40566	0.07618
2914.34605	0.07393
2912.28644	0.07142
2910.22684	0.06873
2908.16723	0.06636
2906.10762	0.06462
2904.04801	0.06332
2901.98840	0.06230
2899.92879	0.06136
2897.86918	0.06047
2895.80958	0.05956
2893.74997	0.05856
2891.69036	0.05780
2889.63075	0.05744
2887.57114	0.05715
2885.51153	0.05669
2883.45193	0.05636
2881.39232	0.05651
2879.33271	0.05673
2877.27310	0.05648
2875.21349	0.05579
2873.15388	0.05479
2871.09427	0.05351
2869.03467	0.05205
2866.97506	0.05079
2864.91545	0.04996
2862.85584	0.04932
2860.79623	0.04879
2858.73662	0.04841
2856.67701	0.04822
2854.61741	0.04817
2852.55780	0.04790
2850.49819	0.04728
2848.43858	0.04635
2846.37897	0.04532
2844.31936	0.04440
2842.25975	0.04369
2840.20015	0.04337
2838.14054	0.04314
2836.08093	0.04255
2834.02132	0.04183
2831.96171	0.04144
2829.90210	0.04131
2827.84250	0.04099
2825.78289	0.04063
2823.72328	0.04054
2821.66367	0.04032
2819.60406	0.03975
2817.54445	0.03926
2815.48484	0.03897
2813.42524	0.03879
2811.36563	0.03876
2809.30602	0.03844
2807.24641	0.03766
2805.18680	0.03688
2803.12719	0.03630
2801.06758	0.03588
2799.00798	0.03553
2796.94837	0.03511
2794.88876	0.03457
2792.82915	0.03395
2790.76954	0.03351
2788.70993	0.03328
2786.65032	0.03286
2784.59072	0.03207
2782.53111	0.03128
2780.47150	0.03103
2778.41189	0.03113
2776.35228	0.03096
2774.29267	0.03042
2772.23307	0.02974
2770.17346	0.02911
2768.11385	0.02869
2766.05424	0.02841
2763.99463	0.02806
2761.93502	0.02767
2759.87541	0.02735
2757.81581	0.02696
2755.75620	0.02650
2753.69659	0.02607
2751.63698	0.02563
2749.57737	0.02511
2747.51776	0.02476
2745.45815	0.02470
2743.39855	0.02454
2741.33894	0.02414
2739.27933	0.02383
2737.21972	0.02364
2735.16011	0.02343
2733.10050	0.02320
2731.04089	0.02288
2728.98129	0.02256
2726.92168	0.02245
2724.86207	0.02234
2722.80246	0.02204
2720.74285	0.02171
2718.68324	0.02155
2716.62364	0.02147
2714.56403	0.02113
2712.50442	0.02056
2710.44481	0.02024
2708.38520	0.02019
2706.32559	0.02027
2704.26598	0.02035
2702.20638	0.02022
2700.14677	0.02003
2698.08716	0.02012
2696.02755	0.02020
2693.96794	0.01980
2691.90833	0.01921
2689.84872	0.01902
2687.78912	0.01906
2685.72951	0.01879
2683.66990	0.01842
2681.61029	0.01839
2679.55068	0.01845
2677.49107	0.01838
2675.43146	0.01836
2673.37186	0.01839
2671.31225	0.01822
2669.25264	0.01793
2667.19303	0.01772
2665.13342	0.01758
2663.07381	0.01757
2661.01421	0.01759
2658.95460	0.01761
2656.89499	0.01764
2654.83538	0.01772
2652.77577	0.01796
2650.71616	0.01811
2648.65655	0.01777
2646.59695	0.01722
2644.53734	0.01678
2642.47773	0.01647
2640.41812	0.01641
2638.35851	0.01657
2636.29890	0.01673
2634.23929	0.01680
2632.17969	0.01679
2630.12008	0.01672
2628.06047	0.01651
2626.00086	0.01619
2623.94125	0.01599
2621.88164	0.01588
2619.82203	0.01579
2617.76243	0.01584
2615.70282	0.01577
2613.64321	0.01543
2611.58360	0.01518
2609.52399	0.01526
2607.46438	0.01546
2605.40478	0.01540
2603.34517	0.01517
2601.28556	0.01512
2599.22595	0.01509
2597.16634	0.01480
2595.10673	0.01448
2593.04712	0.01424
2590.98752	0.01398
2588.92791	0.01382
2586.86830	0.01380
2584.80869	0.01389
2582.74908	0.01393
2580.68947	0.01357
2578.62986	0.01300
2576.57026	0.01287
2574.51065	0.01307
2572.45104	0.01309
2570.39143	0.01308
2568.33182	0.01305
2566.27221	0.01248
2564.21260	0.01169
2562.15300	0.01149
2560.09339	0.01183
2558.03378	0.01213
2555.97417	0.01202
2553.91456	0.01165
2551.85495	0.01140
2549.79535	0.01153
2547.73574	0.01183
2545.67613	0.01173
2543.61652	0.01122
2541.55691	0.01105
2539.49730	0.01140
2537.43769	0.01164
2535.37809	0.01163
2533.31848	0.01157
2531.25887	0.01134
2529.19926	0.01087
2527.13965	0.01066
2525.08004	0.01087
2523.02043	0.01087
2520.96083	0.01067
2518.90122	0.01086
2516.84161	0.01133
2514.78200	0.01160
2512.72239	0.01147
2510.66278	0.01093
2508.60317	0.01041
2506.54357	0.01032
2504.48396	0.01053
2502.42435	0.01066
2500.36474	0.01049
2498.30513	0.01024
2496.24552	0.01018
2494.18592	0.01023
2492.12631	0.01031
2490.06670	0.01056
2488.00709	0.01055
2485.94748	0.01010
2483.88787	0.00972
2481.82826	0.00949
2479.76866	0.00937
2477.70905	0.00954
2475.64944	0.00994
2473.58983	0.01006
2471.53022	0.00994
2469.47061	0.00989
2467.41100	0.00976
2465.35140	0.00969
2463.29179	0.00985
2461.23218	0.00988
2459.17257	0.00987
2457.11296	0.01015
2455.05335	0.01017
2452.99374	0.00968
2450.93414	0.00936
2448.87453	0.00946
2446.81492	0.00961
2444.75531	0.00953
2442.69570	0.00921
2440.63609	0.00880
2438.57649	0.00846
2436.51688	0.00835
2434.45727	0.00854
2432.39766	0.00878
2430.33805	0.00883
2428.27844	0.00896
2426.21883	0.00900
2424.15923	0.00869
2422.09962	0.00844
2420.04001	0.00860
2417.98040	0.00890
2415.92079	0.00892
2413.86118	0.00884
2411.80157	0.00889
2409.74197	0.00874
2407.68236	0.00841
2405.62275	0.00821
2403.56314	0.00823
2401.50353	0.00835
2399.44392	0.00822
2397.38431	0.00818
2395.32471	0.00826
2393.26510	0.00821
2391.20549	0.00812
2389.14588	0.00835
2387.08627	0.00866
2385.02666	0.00859
2382.96706	0.00821
2380.90745	0.00800
2378.84784	0.00806
2376.78823	0.00812
2374.72862	0.00807
2372.66901	0.00789
2370.60940	0.00742
2368.54980	0.00695
2366.49019	0.00703
2364.43058	0.00770
2362.37097	0.00857
2360.31136	0.00883
2358.25175	0.00812
2356.19214	0.00740
2354.13254	0.00763
2352.07293	0.00859
2350.01332	0.00944
2347.95371	0.00953
2345.89410	0.00893
2343.83449	0.00834
2341.77488	0.00828
2339.71528	0.00834
2337.65567	0.00838
2335.59606	0.00858
2333.53645	0.00875
2331.47684	0.00887
2329.41723	0.00906
2327.35763	0.00945
2325.29802	0.01011
2323.23841	0.01057
2321.17880	0.01044
2319.11919	0.01008
2317.05958	0.00976
2314.99997	0.00940
2312.94037	0.00927
2310.88076	0.00949
2308.82115	0.00955
2306.76154	0.00931
2304.70193	0.00904
2302.64232	0.00894
2300.58271	0.00910
2298.52311	0.00932
2296.46350	0.00947
2294.40389	0.00965
2292.34428	0.00981
2290.28467	0.00952
2288.22506	0.00878
2286.16545	0.00845
2284.10585	0.00885
2282.04624	0.00928
2279.98663	0.00909
2277.92702	0.00856
2275.86741	0.00842
2273.80780	0.00850
2271.74820	0.00842
2269.68859	0.00832
2267.62898	0.00817
2265.56937	0.00783
2263.50976	0.00771
2261.45015	0.00822
2259.39054	0.00867
2257.33094	0.00833
2255.27133	0.00777
2253.21172	0.00764
2251.15211	0.00772
2249.09250	0.00763
2247.03289	0.00767
2244.97328	0.00788
2242.91368	0.00801
2240.85407	0.00847
2238.79446	0.00890
2236.73485	0.00855
2234.67524	0.00795
2232.61563	0.00780
2230.55602	0.00762
2228.49642	0.00704
2226.43681	0.00660
2224.37720	0.00619
2222.31759	0.00558
2220.25798	0.00539
2218.19837	0.00575
2216.13877	0.00638
2214.07916	0.00711
2212.01955	0.00746
2209.95994	0.00732
2207.90033	0.00749
2205.84072	0.00785
2203.78111	0.00740
2201.72151	0.00676
2199.66190	0.00637
2197.60229	0.00556
2195.54268	0.00554
2193.48307	0.00677
2191.42346	0.00754
2189.36385	0.00765
2187.30425	0.00769
2185.24464	0.00768
2183.18503	0.00760
2181.12542	0.00711
2179.06581	0.00640
2177.00620	0.00605
2174.94659	0.00617
2172.88699	0.00683
2170.82738	0.00744
2168.76777	0.00790
2166.70816	0.00902
2164.64855	0.01007
2162.58894	0.00910
2160.52934	0.00562
2158.46973	0.00225
2156.41012	0.00182
2154.35051	0.00332
2152.29090	0.00498
2150.23129	0.00597
2148.17168	0.00550
2146.11208	0.00489
2144.05247	0.00574
2141.99286	0.00670
2139.93325	0.00644
2137.87364	0.00526
2135.81403	0.00442
2133.75442	0.00489
2131.69482	0.00605
2129.63521	0.00708
2127.57560	0.00771
2125.51599	0.00756
2123.45638	0.00695
2121.39677	0.00690
2119.33716	0.00739
2117.27756	0.00793
2115.21795	0.00848
2113.15834	0.00865
2111.09873	0.00805
2109.03912	0.00753
2106.97951	0.00782
2104.91991	0.00805
2102.86030	0.00768
2100.80069	0.00698
2098.74108	0.00631
2096.68147	0.00630
2094.62186	0.00691
2092.56225	0.00748
2090.50265	0.00774
2088.44304	0.00773
2086.38343	0.00758
2084.32382	0.00724
2082.26421	0.00690
2080.20460	0.00700
2078.14499	0.00746
2076.08539	0.00795
2074.02578	0.00824
2071.96617	0.00825
2069.90656	0.00807
2067.84695	0.00786
2065.78734	0.00758
2063.72773	0.00729
2061.66813	0.00749
2059.60852	0.00754
2057.54891	0.00732
2055.48930	0.00762
2053.42969	0.00786
2051.37008	0.00769
2049.31048	0.00771
2047.25087	0.00754
2045.19126	0.00679
2043.13165	0.00678
2041.07204	0.00749
2039.01243	0.00727
2036.95282	0.00671
2034.89322	0.00659
2032.83361	0.00599
2030.77400	0.00510
2028.71439	0.00476
2026.65478	0.00482
2024.59517	0.00540
2022.53556	0.00589
2020.47596	0.00532
2018.41635	0.00484
2016.35674	0.00500
2014.29713	0.00530
2012.23752	0.00573
2010.17791	0.00577
2008.11830	0.00538
2006.05870	0.00507
2003.99909	0.00475
2001.93948	0.00440
1999.87987	0.00467
1997.82026	0.00546
1995.76065	0.00580
1993.70105	0.00601
1991.64144	0.00674
1989.58183	0.00725
1987.52222	0.00687
1985.46261	0.00555
1983.40300	0.00478
1981.34339	0.00466
1979.28379	0.00391
1977.22418	0.00293
1975.16457	0.00285
1973.10496	0.00309
1971.04535	0.00295
1968.98574	0.00334
1966.92613	0.00424
1964.86653	0.00470
1962.80692	0.00474
1960.74731	0.00405
1958.68770	0.00331
1956.62809	0.00340
1954.56848	0.00413
1952.50887	0.00456
1950.44927	0.00393
1948.38966	0.00346
1946.33005	0.00397
1944.27044	0.00483
1942.21083	0.00514
1940.15122	0.00460
1938.09162	0.00431
1936.03201	0.00419
1933.97240	0.00413
1931.91279	0.00434
1929.85318	0.00472
1927.79357	0.00474
1925.73396	0.00454
1923.67436	0.00459
1921.61475	0.00398
1919.55514	0.00417
1917.49553	0.00501
1915.43592	0.00466
1913.37631	0.00460
1911.31670	0.00502
1909.25710	0.00522
1907.19749	0.00506
1905.13788	0.00514
1903.07827	0.00537
1901.01866	0.00555
1898.95905	0.00577
1896.89944	0.00601
1894.83984	0.00577
1892.78023	0.00521
1890.72062	0.00561
1888.66101	0.00570
1886.60140	0.00522
1884.54179	0.00547
1882.48219	0.00586
1880.42258	0.00613
1878.36297	0.00628
1876.30336	0.00612
1874.24375	0.00561
1872.18414	0.00536
1870.12453	0.00621
1868.06493	0.00649
1866.00532	0.00543
1863.94571	0.00506
1861.88610	0.00553
1859.82649	0.00581
1857.76688	0.00570
1855.70727	0.00558
1853.64767	0.00550
1851.58806	0.00525
1849.52845	0.00504
1847.46884	0.00514
1845.40923	0.00609
1843.34962	0.00619
1841.29002	0.00504
1839.23041	0.00527
1837.17080	0.00595
1835.11119	0.00561
1833.05158	0.00534
1830.99197	0.00618
1828.93236	0.00604
1826.87276	0.00553
1824.81315	0.00612
1822.75354	0.00616
1820.69393	0.00632
1818.63432	0.00684
1816.57471	0.00682
1814.51510	0.00651
1812.45550	0.00689
1810.39589	0.00728
1808.33628	0.00711
1806.27667	0.00691
1804.21706	0.00700
1802.15745	0.00756
1800.09784	0.00770
1798.03824	0.00693
1795.97863	0.00666
1793.91902	0.00795
1791.85941	0.00887
1789.79980	0.00770
1787.74019	0.00730
1785.68059	0.00808
1783.62098	0.00839
1781.56137	0.00863
1779.50176	0.00839
1777.44215	0.00752
1775.38254	0.00775
1773.32293	0.00937
1771.26333	0.00966
1769.20372	0.00893
1767.14411	0.00872
1765.08450	0.00871
1763.02489	0.00989
1760.96528	0.01029
1758.90567	0.01006
1756.84607	0.01057
1754.78646	0.01019
1752.72685	0.01069
1750.66724	0.01189
1748.60763	0.01174
1746.54802	0.01132
1744.48841	0.01173
1742.42881	0.01273
1740.36920	0.01362
1738.30959	0.01307
1736.24998	0.01400
1734.19037	0.01687
1732.13076	0.01628
1730.07116	0.01585
1728.01155	0.01678
1725.95194	0.01778
1723.89233	0.01845
1721.83272	0.01839
1719.77311	0.02012
1717.71350	0.02324
1715.65390	0.02447
1713.59429	0.02561
1711.53468	0.02809
1709.47507	0.03184
1707.41546	0.03695
1705.35585	0.04209
1703.29624	0.04674
1701.23664	0.05506
1699.17703	0.06400
1697.11742	0.07307
1695.05781	0.08250
1692.99820	0.08900
1690.93859	0.09604
1688.87898	0.10305
1686.81938	0.11106
1684.75977	0.12339
1682.70016	0.13325
1680.64055	0.13948
1678.58094	0.14695
1676.52133	0.15701
1674.46173	0.16669
1672.40212	0.17508
1670.34251	0.18635
1668.28290	0.19705
1666.22329	0.20504
1664.16368	0.21508
1662.10407	0.22629
1660.04447	0.23442
1657.98486	0.24024
1655.92525	0.24845
1653.86564	0.26175
1651.80603	0.26970
1649.74642	0.27288
1647.68681	0.28081
1645.62721	0.28786
1643.56760	0.29027
1641.50799	0.29183
1639.44838	0.29355
1637.38877	0.29652
1635.32916	0.29809
1633.26955	0.29465
1631.20995	0.29102
1629.15034	0.28818
1627.09073	0.28343
1625.03112	0.27756
1622.97151	0.27015
1620.91190	0.26039
1618.85230	0.25235
1616.79269	0.24397
1614.73308	0.23179
1612.67347	0.22031
1610.61386	0.20942
1608.55425	0.19635
1606.49464	0.18229
1604.43504	0.16963
1602.37543	0.15884
1600.31582	0.14977
1598.25621	0.14249
1596.19660	0.13637
1594.13699	0.13058
1592.07738	0.12535
1590.01778	0.12131
1587.95817	0.11860
1585.89856	0.11726
1583.83895	0.11711
1581.77934	0.11759
1579.71973	0.11919
1577.66012	0.12404
1575.60052	0.12962
1573.54091	0.13270
1571.48130	0.13857
1569.42169	0.14734
1567.36208	0.15439
1565.30247	0.16047
1563.24287	0.16583
1561.18326	0.17470
1559.12365	0.18901
1557.06404	0.19832
1555.00443	0.20503
1552.94482	0.21297
1550.88521	0.22127
1548.82561	0.22826
1546.76600	0.23383
1544.70639	0.23986
1542.64678	0.24728
1540.58717	0.25641
1538.52756	0.26084
1536.46795	0.26210
1534.40835	0.26672
1532.34874	0.27063
1530.28913	0.27167
1528.22952	0.27327
1526.16991	0.27446
1524.11030	0.27534
1522.05069	0.27820
1519.99109	0.28079
1517.93148	0.28446
1515.87187	0.28830
1513.81226	0.28855
1511.75265	0.28581
1509.69304	0.28187
1507.63344	0.27610
1505.57383	0.26385
1503.51422	0.25093
1501.45461	0.24183
1499.39500	0.23259
1497.33539	0.22014
1495.27578	0.20559
1493.21618	0.19338
1491.15657	0.18371
1489.09696	0.17198
1487.03735	0.15945
1484.97774	0.14974
1482.91813	0.14261
1480.85852	0.13603
1478.79892	0.12986
1476.73931	0.12542
1474.67970	0.12287
1472.62009	0.12133
1470.56048	0.11877
1468.50087	0.11761
1466.44126	0.11960
1464.38166	0.12165
1462.32205	0.12208
1460.26244	0.12462
1458.20283	0.13077
1456.14322	0.13536
1454.08361	0.13632
1452.02401	0.13718
1449.96440	0.13786
1447.90479	0.13674
1445.84518	0.13325
1443.78557	0.12893
1441.72596	0.12434
1439.66635	0.12003
1437.60675	0.11675
1435.54714	0.11231
1433.48753	0.10818
1431.42792	0.10708
1429.36831	0.10701
1427.30870	0.10701
1425.24909	0.10829
1423.18949	0.11004
1421.12988	0.11303
1419.07027	0.11787
1417.01066	0.12137
1414.95105	0.12385
1412.89144	0.12634
1410.83183	0.12773
1408.77223	0.12739
1406.71262	0.12587
1404.65301	0.12286
1402.59340	0.11853
1400.53379	0.11503
1398.47418	0.11224
1396.41458	0.11042
1394.35497	0.11019
1392.29536	0.11035
1390.23575	0.11167
1388.17614	0.11420
1386.11653	0.11594
1384.05692	0.11670
1381.99732	0.11748
1379.93771	0.11781
1377.87810	0.11740
1375.81849	0.11667
1373.75888	0.11507
1371.69927	0.11209
1369.63966	0.10885
1367.58006	0.10509
1365.52045	0.10117
1363.46084	0.09787
1361.40123	0.09446
1359.34162	0.09148
1357.28201	0.08985
1355.22240	0.08907
1353.16280	0.08881
1351.10319	0.08943
1349.04358	0.09108
1346.98397	0.09340
1344.92436	0.09597
1342.86475	0.09871
1340.80515	0.10190
1338.74554	0.10480
1336.68593	0.10652
1334.62632	0.10738
1332.56671	0.10739
1330.50710	0.10628
1328.44749	0.10418
1326.38789	0.10151
1324.32828	0.09856
1322.26867	0.09579
1320.20906	0.09365
1318.14945	0.09206
1316.08984	0.09113
1314.03023	0.09118
1311.97063	0.09175
1309.91102	0.09260
1307.85141	0.09375
1305.79180	0.09497
1303.73219	0.09614
1301.67258	0.09725
1299.61297	0.09833
1297.55337	0.09944
1295.49376	0.10055
1293.43415	0.10157
1291.37454	0.10247
1289.31493	0.10330
1287.25532	0.10410
1285.19572	0.10491
1283.13611	0.10590
1281.07650	0.10721
1279.01689	0.10885
1276.95728	0.11071
1274.89767	0.11282
1272.83806	0.11532
1270.77846	0.11800
1268.71885	0.12065
1266.65924	0.12329
1264.59963	0.12589
1262.54002	0.12837
1260.48041	0.13082
1258.42080	0.13337
1256.36120	0.13609
1254.30159	0.13897
1252.24198	0.14197
1250.18237	0.14517
1248.12276	0.14852
1246.06315	0.15189
1244.00354	0.15512
1241.94394	0.15797
1239.88433	0.16035
1237.82472	0.16231
1235.76511	0.16373
1233.70550	0.16423
1231.64589	0.16352
1229.58629	0.16167
1227.52668	0.15881
1225.46707	0.15493
1223.40746	0.15005
1221.34785	0.14439
1219.28824	0.13819
1217.22863	0.13176
1215.16903	0.12531
1213.10942	0.11896
1211.04981	0.11301
1208.99020	0.10760
1206.93059	0.10264
1204.87098	0.09801
1202.81137	0.09370
1200.75177	0.08981
1198.69216	0.08640
1196.63255	0.08347
1194.57294	0.08117
1192.51333	0.07954
1190.45372	0.07841
1188.39411	0.07764
1186.33451	0.07734
1184.27490	0.07765
1182.21529	0.07859
1180.15568	0.08019
1178.09607	0.08230
1176.03646	0.08456
1173.97686	0.08662
1171.91725	0.08811
1169.85764	0.08887
1167.79803	0.08904
1165.73842	0.08884
1163.67881	0.08830
1161.61920	0.08734
1159.55960	0.08603
1157.49999	0.08450
1155.44038	0.08284
1153.38077	0.08098
1151.32116	0.07892
1149.26155	0.07696
1147.20194	0.07517
1145.14234	0.07348
1143.08273	0.07198
1141.02312	0.07067
1138.96351	0.06964
1136.90390	0.06892
1134.84429	0.06833
1132.78468	0.06778
1130.72508	0.06741
1128.66547	0.06726
1126.60586	0.06724
1124.54625	0.06731
1122.48664	0.06752
1120.42703	0.06781
1118.36743	0.06796
1116.30782	0.06793
1114.24821	0.06782
1112.18860	0.06781
1110.12899	0.06809
1108.06938	0.06853
1106.00977	0.06881
1103.95017	0.06873
1101.89056	0.06817
1099.83095	0.06708
1097.77134	0.06582
1095.71173	0.06481
1093.65212	0.06439
1091.59251	0.06468
1089.53291	0.06564
1087.47330	0.06718
1085.41369	0.06925
1083.35408	0.07162
1081.29447	0.07399
1079.23486	0.07632
1077.17525	0.07844
1075.11565	0.08009
1073.05604	0.08131
1070.99643	0.08216
1068.93682	0.08263
1066.87721	0.08288
1064.81760	0.08314
1062.75800	0.08358
1060.69839	0.08422
1058.63878	0.08485
1056.57917	0.08526
1054.51956	0.08525
1052.45995	0.08458
1050.40034	0.08316
1048.34074	0.08123
1046.28113	0.07907
1044.22152	0.07697
1042.16191	0.07514
1040.10230	0.07355
1038.04269	0.07213
1035.98308	0.07108
1033.92348	0.07051
1031.86387	0.07023
1029.80426	0.07001
1027.74465	0.06962
1025.68504	0.06921
1023.62543	0.06936
1021.56582	0.07065
1019.50622	0.07304
1017.44661	0.07571
1015.38700	0.07747
1013.32739	0.07750
1011.26778	0.07583
1009.20817	0.07291
1007.14857	0.06916
1005.08896	0.06512
1003.02935	0.06136
1000.96974	0.05810
998.91013	0.05524
996.85052	0.05272
994.79091	0.05058
992.73131	0.04879
990.67170	0.04723
988.61209	0.04578
986.55248	0.04449
984.49287	0.04351
982.43326	0.04286
980.37365	0.04239
978.31405	0.04205
976.25444	0.04191
974.19483	0.04199
972.13522	0.04216
970.07561	0.04234
968.01600	0.04262
965.95639	0.04312
963.89679	0.04371
961.83718	0.04422
959.77757	0.04469
957.71796	0.04527
955.65835	0.04595
953.59874	0.04654
951.53914	0.04695
949.47953	0.04726
947.41992	0.04750
945.36031	0.04751
943.30070	0.04717
941.24109	0.04668
939.18148	0.04617
937.12188	0.04548
935.06227	0.04457
933.00266	0.04375
930.94305	0.04309
928.88344	0.04250
926.82383	0.04187
924.76422	0.04119
922.70462	0.04056
920.64501	0.04006
918.58540	0.03965
916.52579	0.03922
914.46618	0.03873
912.40657	0.03820
910.34696	0.03768
908.28736	0.03719
906.22775	0.03683
904.16814	0.03665
902.10853	0.03651
900.04892	0.03639
897.98931	0.03626
895.92971	0.03602
893.87010	0.03580
891.81049	0.03578
889.75088	0.03578
887.69127	0.03572
885.63166	0.03574
883.57205	0.03583
881.51245	0.03599
879.45284	0.03628
877.39323	0.03665
875.33362	0.03698
873.27401	0.03729
871.21440	0.03765
869.15479	0.03808
867.09519	0.03870
865.03558	0.03954
862.97597	0.04049
860.91636	0.04144
858.85675	0.04255
856.79714	0.04378
854.73753	0.04478
852.67793	0.04546
850.61832	0.04578
848.55871	0.04573
846.49910	0.04560
844.43949	0.04570
842.37988	0.04613
840.32028	0.04694
838.26067	0.04797
836.20106	0.04889
834.14145	0.04962
832.08184	0.05019
830.02223	0.05053
827.96262	0.05068
825.90302	0.05073
823.84341	0.05079
821.78380	0.05085
819.72419	0.05087
817.66458	0.05088
815.60497	0.05109
813.54536	0.05152
811.48576	0.05217
809.42615	0.05301
807.36654	0.05379
805.30693	0.05435
803.24732	0.05478
801.18771	0.05512
799.12810	0.05527
797.06850	0.05533
795.00889	0.05553
792.94928	0.05592
790.88967	0.05650
788.83006	0.05720
786.77045	0.05778
784.71085	0.05814
782.65124	0.05858
780.59163	0.05919
778.53202	0.05987
776.47241	0.06054
774.41280	0.06111
772.35319	0.06156
770.29359	0.06218
768.23398	0.06302
766.17437	0.06383
764.11476	0.06458
762.05515	0.06537
759.99554	0.06621
757.93593	0.06706
755.87633	0.06793
753.81672	0.06897
751.75711	0.07002
749.69750	0.07101
747.63789	0.07200
745.57828	0.07286
743.51867	0.07373
741.45907	0.07469
739.39946	0.07544
737.33985	0.07601
735.28024	0.07678
733.22063	0.07770
731.16102	0.07864
729.10142	0.07967
727.04181	0.08059
724.98220	0.08131
722.92259	0.08212
720.86298	0.08309
718.80337	0.08398
716.74376	0.08474
714.68416	0.08546
712.62455	0.08630
710.56494	0.08735
708.50533	0.08849
706.44572	0.08956
704.38611	0.09049
702.32650	0.09137
700.26690	0.09233
698.20729	0.09329
696.14768	0.09414
694.08807	0.09496
692.02846	0.09582
689.96885	0.09664
687.90924	0.09731
685.84964	0.09799
683.79003	0.09883
681.73042	0.09968
679.67081	0.10043
677.61120	0.10102
675.55159	0.10147
673.49199	0.10193
671.43238	0.10249
669.37277	0.10319
667.31316	0.10392
665.25355	0.10444
663.19394	0.10487
661.13433	0.10533
659.07473	0.10580
657.01512	0.10634
654.95551	0.10675
652.89590	0.10687
650.83629	0.10693
648.77668	0.10708
646.71707	0.10724
644.65747	0.10748
642.59786	0.10774
640.53825	0.10779
638.47864	0.10783
636.41903	0.10811
634.35942	0.10841
632.29981	0.10852
630.24021	0.10858
628.18060	0.10866
626.12099	0.10887
624.06138	0.10911
622.00177	0.10918
619.94216	0.10915
617.88256	0.10912
615.82295	0.10902
613.76334	0.10881
611.70373	0.10865
609.64412	0.10869
607.58451	0.10903
605.52490	0.10939
603.46530	0.10949
601.40569	0.10956
599.34608	0.10976
597.28647	0.10998
595.22686	0.11028
593.16725	0.11073
591.10764	0.11104
589.04804	0.11119
586.98843	0.11166
584.92882	0.11251
582.86921	0.11338
580.80960	0.11401
578.74999	0.11449
576.69039	0.11511
574.63078	0.11566
572.57117	0.11611
570.51156	0.11671
568.45195	0.11750
566.39234	0.11843
564.33273	0.11947
562.27313	0.12050
560.21352	0.12137
558.15391	0.12211
556.09430	0.12289
554.03469	0.12361
551.97508	0.12424
549.91547	0.12494
547.85587	0.12550
545.79626	0.12586
543.73665	0.12624
541.67704	0.12670
539.61743	0.12689
537.55782	0.12670
535.49821	0.12641
533.43861	0.12625
531.37900	0.12610
529.31939	0.12588
527.25978	0.12567
525.20017	0.12521
523.14056	0.12475
521.08096	0.12468
519.02135	0.12452
516.96174	0.12417
514.90213	0.12413
512.84252	0.12444
510.78291	0.12471
508.72330	0.12466
506.66370	0.12398
504.60409	0.12313
502.54448	0.12276
500.48487	0.12244
498.42526	0.12216
496.36565	0.12205
494.30604	0.12186
492.24644	0.12162
490.18683	0.12143
488.12722	0.12143
486.06761	0.12134
484.00800	0.12071
481.94839	0.11971
479.88878	0.11899
477.82918	0.11853
475.76957	0.11786
473.70996	0.11710
471.65035	0.11651
469.59074	0.11613
467.53113	0.11572
465.47153	0.11491
463.41192	0.11392
461.35231	0.11302
459.29270	0.11230
457.23309	0.11140
455.17348	0.11062
453.11387	0.11055
451.05427	0.11047
448.99466	0.11014
446.93505	0.10989
444.87544	0.10965
442.81583	0.10915
440.75622	0.10858
438.69661	0.10841
436.63701	0.10810
434.57740	0.10707
432.51779	0.10637
430.45818	0.10647
428.39857	0.10635
426.33896	0.10563
424.27935	0.10493
422.21975	0.10490
420.16014	0.10567
418.10053	0.10583
416.04092	0.10493
413.98131	0.10428
411.92170	0.10398
409.86210	0.10372
407.80249	0.10335
405.74288	0.10273
403.68327	0.10185
401.62366	0.10093
399.56405	0.10022
