Created as New Dataset,Sample 629 By YargerLab Date Monday, March 09 2026
cm-1,A
4000.00,0.0148
3999.00,0.0148
3998.00,0.0148
3997.00,0.0148
3996.00,0.0148
3995.00,0.0148
3994.00,0.0148
3993.00,0.0148
3992.00,0.0148
3991.00,0.0148
3990.00,0.0148
3989.00,0.0148
3988.00,0.0148
3987.00,0.0148
3986.00,0.0148
3985.00,0.0148
3984.00,0.0148
3983.00,0.0148
3982.00,0.0148
3981.00,0.0148
3980.00,0.0149
3979.00,0.0149
3978.00,0.0149
3977.00,0.0149
3976.00,0.0149
3975.00,0.0149
3974.00,0.0149
3973.00,0.0149
3972.00,0.0149
3971.00,0.0149
3970.00,0.0149
3969.00,0.0149
3968.00,0.0149
3967.00,0.0149
3966.00,0.0149
3965.00,0.0149
3964.00,0.0149
3963.00,0.0149
3962.00,0.0148
3961.00,0.0148
3960.00,0.0148
3959.00,0.0148
3958.00,0.0148
3957.00,0.0148
3956.00,0.0148
3955.00,0.0148
3954.00,0.0148
3953.00,0.0148
3952.00,0.0148
3951.00,0.0148
3950.00,0.0148
3949.00,0.0148
3948.00,0.0148
3947.00,0.0148
3946.00,0.0148
3945.00,0.0148
3944.00,0.0148
3943.00,0.0148
3942.00,0.0148
3941.00,0.0148
3940.00,0.0148
3939.00,0.0148
3938.00,0.0148
3937.00,0.0148
3936.00,0.0148
3935.00,0.0148
3934.00,0.0148
3933.00,0.0148
3932.00,0.0148
3931.00,0.0148
3930.00,0.0148
3929.00,0.0148
3928.00,0.0148
3927.00,0.0148
3926.00,0.0148
3925.00,0.0148
3924.00,0.0148
3923.00,0.0148
3922.00,0.0149
3921.00,0.0149
3920.00,0.0149
3919.00,0.0149
3918.00,0.0149
3917.00,0.0149
3916.00,0.0149
3915.00,0.0149
3914.00,0.0148
3913.00,0.0148
3912.00,0.0148
3911.00,0.0148
3910.00,0.0148
3909.00,0.0148
3908.00,0.0148
3907.00,0.0148
3906.00,0.0148
3905.00,0.0148
3904.00,0.0149
3903.00,0.0149
3902.00,0.0149
3901.00,0.0149
3900.00,0.0149
3899.00,0.0149
3898.00,0.0149
3897.00,0.0149
3896.00,0.0149
3895.00,0.0148
3894.00,0.0148
3893.00,0.0148
3892.00,0.0148
3891.00,0.0148
3890.00,0.0148
3889.00,0.0148
3888.00,0.0148
3887.00,0.0149
3886.00,0.0148
3885.00,0.0148
3884.00,0.0148
3883.00,0.0148
3882.00,0.0148
3881.00,0.0148
3880.00,0.0148
3879.00,0.0148
3878.00,0.0148
3877.00,0.0148
3876.00,0.0148
3875.00,0.0148
3874.00,0.0148
3873.00,0.0148
3872.00,0.0148
3871.00,0.0148
3870.00,0.0148
3869.00,0.0148
3868.00,0.0148
3867.00,0.0148
3866.00,0.0148
3865.00,0.0148
3864.00,0.0148
3863.00,0.0148
3862.00,0.0148
3861.00,0.0148
3860.00,0.0148
3859.00,0.0148
3858.00,0.0148
3857.00,0.0148
3856.00,0.0148
3855.00,0.0148
3854.00,0.0147
3853.00,0.0148
3852.00,0.0148
3851.00,0.0148
3850.00,0.0148
3849.00,0.0148
3848.00,0.0148
3847.00,0.0148
3846.00,0.0148
3845.00,0.0148
3844.00,0.0148
3843.00,0.0148
3842.00,0.0148
3841.00,0.0148
3840.00,0.0148
3839.00,0.0148
3838.00,0.0148
3837.00,0.0148
3836.00,0.0148
3835.00,0.0148
3834.00,0.0148
3833.00,0.0148
3832.00,0.0148
3831.00,0.0147
3830.00,0.0147
3829.00,0.0147
3828.00,0.0147
3827.00,0.0147
3826.00,0.0147
3825.00,0.0147
3824.00,0.0147
3823.00,0.0148
3822.00,0.0148
3821.00,0.0148
3820.00,0.0147
3819.00,0.0148
3818.00,0.0148
3817.00,0.0148
3816.00,0.0148
3815.00,0.0147
3814.00,0.0147
3813.00,0.0147
3812.00,0.0147
3811.00,0.0147
3810.00,0.0147
3809.00,0.0147
3808.00,0.0147
3807.00,0.0147
3806.00,0.0147
3805.00,0.0147
3804.00,0.0147
3803.00,0.0147
3802.00,0.0147
3801.00,0.0147
3800.00,0.0146
3799.00,0.0146
3798.00,0.0147
3797.00,0.0147
3796.00,0.0147
3795.00,0.0147
3794.00,0.0146
3793.00,0.0146
3792.00,0.0146
3791.00,0.0146
3790.00,0.0146
3789.00,0.0146
3788.00,0.0146
3787.00,0.0146
3786.00,0.0146
3785.00,0.0146
3784.00,0.0146
3783.00,0.0146
3782.00,0.0147
3781.00,0.0147
3780.00,0.0147
3779.00,0.0146
3778.00,0.0146
3777.00,0.0146
3776.00,0.0146
3775.00,0.0146
3774.00,0.0146
3773.00,0.0146
3772.00,0.0146
3771.00,0.0146
3770.00,0.0146
3769.00,0.0146
3768.00,0.0146
3767.00,0.0147
3766.00,0.0147
3765.00,0.0146
3764.00,0.0146
3763.00,0.0146
3762.00,0.0146
3761.00,0.0146
3760.00,0.0146
3759.00,0.0146
3758.00,0.0146
3757.00,0.0147
3756.00,0.0147
3755.00,0.0147
3754.00,0.0147
3753.00,0.0147
3752.00,0.0148
3751.00,0.0148
3750.00,0.0148
3749.00,0.0148
3748.00,0.0148
3747.00,0.0148
3746.00,0.0148
3745.00,0.0148
3744.00,0.0147
3743.00,0.0147
3742.00,0.0147
3741.00,0.0147
3740.00,0.0147
3739.00,0.0147
3738.00,0.0147
3737.00,0.0147
3736.00,0.0147
3735.00,0.0146
3734.00,0.0146
3733.00,0.0146
3732.00,0.0146
3731.00,0.0146
3730.00,0.0145
3729.00,0.0145
3728.00,0.0145
3727.00,0.0145
3726.00,0.0145
3725.00,0.0145
3724.00,0.0145
3723.00,0.0145
3722.00,0.0145
3721.00,0.0145
3720.00,0.0145
3719.00,0.0145
3718.00,0.0144
3717.00,0.0144
3716.00,0.0144
3715.00,0.0145
3714.00,0.0145
3713.00,0.0145
3712.00,0.0145
3711.00,0.0145
3710.00,0.0144
3709.00,0.0144
3708.00,0.0144
3707.00,0.0144
3706.00,0.0143
3705.00,0.0143
3704.00,0.0143
3703.00,0.0143
3702.00,0.0142
3701.00,0.0142
3700.00,0.0142
3699.00,0.0142
3698.00,0.0142
3697.00,0.0142
3696.00,0.0142
3695.00,0.0142
3694.00,0.0143
3693.00,0.0143
3692.00,0.0143
3691.00,0.0143
3690.00,0.0143
3689.00,0.0143
3688.00,0.0143
3687.00,0.0143
3686.00,0.0143
3685.00,0.0143
3684.00,0.0143
3683.00,0.0143
3682.00,0.0143
3681.00,0.0143
3680.00,0.0143
3679.00,0.0144
3678.00,0.0144
3677.00,0.0144
3676.00,0.0145
3675.00,0.0145
3674.00,0.0145
3673.00,0.0146
3672.00,0.0146
3671.00,0.0146
3670.00,0.0145
3669.00,0.0145
3668.00,0.0145
3667.00,0.0145
3666.00,0.0144
3665.00,0.0144
3664.00,0.0144
3663.00,0.0144
3662.00,0.0144
3661.00,0.0144
3660.00,0.0144
3659.00,0.0144
3658.00,0.0144
3657.00,0.0144
3656.00,0.0144
3655.00,0.0144
3654.00,0.0144
3653.00,0.0144
3652.00,0.0144
3651.00,0.0145
3650.00,0.0145
3649.00,0.0145
3648.00,0.0145
3647.00,0.0145
3646.00,0.0145
3645.00,0.0145
3644.00,0.0144
3643.00,0.0144
3642.00,0.0144
3641.00,0.0143
3640.00,0.0143
3639.00,0.0143
3638.00,0.0143
3637.00,0.0142
3636.00,0.0142
3635.00,0.0142
3634.00,0.0142
3633.00,0.0142
3632.00,0.0142
3631.00,0.0142
3630.00,0.0143
3629.00,0.0143
3628.00,0.0143
3627.00,0.0143
3626.00,0.0143
3625.00,0.0142
3624.00,0.0142
3623.00,0.0142
3622.00,0.0142
3621.00,0.0142
3620.00,0.0142
3619.00,0.0142
3618.00,0.0142
3617.00,0.0143
3616.00,0.0143
3615.00,0.0143
3614.00,0.0143
3613.00,0.0143
3612.00,0.0144
3611.00,0.0144
3610.00,0.0144
3609.00,0.0144
3608.00,0.0144
3607.00,0.0143
3606.00,0.0143
3605.00,0.0143
3604.00,0.0143
3603.00,0.0142
3602.00,0.0142
3601.00,0.0142
3600.00,0.0142
3599.00,0.0142
3598.00,0.0142
3597.00,0.0142
3596.00,0.0142
3595.00,0.0142
3594.00,0.0142
3593.00,0.0142
3592.00,0.0143
3591.00,0.0143
3590.00,0.0143
3589.00,0.0143
3588.00,0.0143
3587.00,0.0143
3586.00,0.0143
3585.00,0.0143
3584.00,0.0143
3583.00,0.0143
3582.00,0.0143
3581.00,0.0142
3580.00,0.0142
3579.00,0.0142
3578.00,0.0142
3577.00,0.0143
3576.00,0.0143
3575.00,0.0143
3574.00,0.0143
3573.00,0.0143
3572.00,0.0143
3571.00,0.0144
3570.00,0.0144
3569.00,0.0144
3568.00,0.0144
3567.00,0.0145
3566.00,0.0145
3565.00,0.0145
3564.00,0.0145
3563.00,0.0146
3562.00,0.0146
3561.00,0.0146
3560.00,0.0146
3559.00,0.0146
3558.00,0.0146
3557.00,0.0146
3556.00,0.0146
3555.00,0.0146
3554.00,0.0147
3553.00,0.0147
3552.00,0.0147
3551.00,0.0148
3550.00,0.0148
3549.00,0.0149
3548.00,0.0149
3547.00,0.0150
3546.00,0.0150
3545.00,0.0150
3544.00,0.0151
3543.00,0.0151
3542.00,0.0151
3541.00,0.0152
3540.00,0.0152
3539.00,0.0152
3538.00,0.0153
3537.00,0.0153
3536.00,0.0153
3535.00,0.0154
3534.00,0.0154
3533.00,0.0155
3532.00,0.0155
3531.00,0.0156
3530.00,0.0156
3529.00,0.0157
3528.00,0.0158
3527.00,0.0158
3526.00,0.0159
3525.00,0.0160
3524.00,0.0160
3523.00,0.0161
3522.00,0.0161
3521.00,0.0162
3520.00,0.0162
3519.00,0.0163
3518.00,0.0163
3517.00,0.0164
3516.00,0.0165
3515.00,0.0166
3514.00,0.0166
3513.00,0.0167
3512.00,0.0167
3511.00,0.0168
3510.00,0.0169
3509.00,0.0170
3508.00,0.0170
3507.00,0.0171
3506.00,0.0172
3505.00,0.0173
3504.00,0.0174
3503.00,0.0175
3502.00,0.0176
3501.00,0.0176
3500.00,0.0177
3499.00,0.0178
3498.00,0.0179
3497.00,0.0180
3496.00,0.0181
3495.00,0.0182
3494.00,0.0183
3493.00,0.0184
3492.00,0.0185
3491.00,0.0186
3490.00,0.0187
3489.00,0.0189
3488.00,0.0190
3487.00,0.0191
3486.00,0.0192
3485.00,0.0194
3484.00,0.0195
3483.00,0.0196
3482.00,0.0198
3481.00,0.0199
3480.00,0.0201
3479.00,0.0202
3478.00,0.0203
3477.00,0.0204
3476.00,0.0206
3475.00,0.0207
3474.00,0.0209
3473.00,0.0210
3472.00,0.0212
3471.00,0.0214
3470.00,0.0215
3469.00,0.0217
3468.00,0.0219
3467.00,0.0220
3466.00,0.0222
3465.00,0.0223
3464.00,0.0225
3463.00,0.0227
3462.00,0.0228
3461.00,0.0230
3460.00,0.0232
3459.00,0.0233
3458.00,0.0235
3457.00,0.0236
3456.00,0.0238
3455.00,0.0240
3454.00,0.0241
3453.00,0.0243
3452.00,0.0245
3451.00,0.0247
3450.00,0.0249
3449.00,0.0251
3448.00,0.0253
3447.00,0.0255
3446.00,0.0257
3445.00,0.0259
3444.00,0.0261
3443.00,0.0263
3442.00,0.0265
3441.00,0.0267
3440.00,0.0270
3439.00,0.0272
3438.00,0.0275
3437.00,0.0277
3436.00,0.0279
3435.00,0.0282
3434.00,0.0285
3433.00,0.0287
3432.00,0.0290
3431.00,0.0293
3430.00,0.0296
3429.00,0.0299
3428.00,0.0302
3427.00,0.0305
3426.00,0.0308
3425.00,0.0311
3424.00,0.0315
3423.00,0.0318
3422.00,0.0321
3421.00,0.0325
3420.00,0.0328
3419.00,0.0332
3418.00,0.0335
3417.00,0.0338
3416.00,0.0341
3415.00,0.0344
3414.00,0.0347
3413.00,0.0350
3412.00,0.0353
3411.00,0.0356
3410.00,0.0358
3409.00,0.0361
3408.00,0.0363
3407.00,0.0365
3406.00,0.0366
3405.00,0.0368
3404.00,0.0369
3403.00,0.0370
3402.00,0.0371
3401.00,0.0372
3400.00,0.0372
3399.00,0.0372
3398.00,0.0371
3397.00,0.0371
3396.00,0.0370
3395.00,0.0370
3394.00,0.0369
3393.00,0.0368
3392.00,0.0367
3391.00,0.0365
3390.00,0.0363
3389.00,0.0361
3388.00,0.0359
3387.00,0.0357
3386.00,0.0355
3385.00,0.0353
3384.00,0.0351
3383.00,0.0349
3382.00,0.0347
3381.00,0.0345
3380.00,0.0343
3379.00,0.0340
3378.00,0.0338
3377.00,0.0336
3376.00,0.0334
3375.00,0.0331
3374.00,0.0329
3373.00,0.0327
3372.00,0.0325
3371.00,0.0324
3370.00,0.0322
3369.00,0.0320
3368.00,0.0318
3367.00,0.0317
3366.00,0.0315
3365.00,0.0313
3364.00,0.0311
3363.00,0.0309
3362.00,0.0307
3361.00,0.0306
3360.00,0.0304
3359.00,0.0303
3358.00,0.0301
3357.00,0.0300
3356.00,0.0299
3355.00,0.0298
3354.00,0.0297
3353.00,0.0296
3352.00,0.0295
3351.00,0.0294
3350.00,0.0293
3349.00,0.0291
3348.00,0.0290
3347.00,0.0290
3346.00,0.0289
3345.00,0.0288
3344.00,0.0288
3343.00,0.0287
3342.00,0.0287
3341.00,0.0286
3340.00,0.0286
3339.00,0.0285
3338.00,0.0285
3337.00,0.0285
3336.00,0.0284
3335.00,0.0284
3334.00,0.0284
3333.00,0.0284
3332.00,0.0283
3331.00,0.0283
3330.00,0.0283
3329.00,0.0283
3328.00,0.0284
3327.00,0.0284
3326.00,0.0284
3325.00,0.0284
3324.00,0.0284
3323.00,0.0285
3322.00,0.0285
3321.00,0.0285
3320.00,0.0286
3319.00,0.0286
3318.00,0.0286
3317.00,0.0287
3316.00,0.0287
3315.00,0.0288
3314.00,0.0289
3313.00,0.0289
3312.00,0.0290
3311.00,0.0291
3310.00,0.0292
3309.00,0.0293
3308.00,0.0294
3307.00,0.0295
3306.00,0.0296
3305.00,0.0297
3304.00,0.0298
3303.00,0.0299
3302.00,0.0300
3301.00,0.0300
3300.00,0.0301
3299.00,0.0302
3298.00,0.0304
3297.00,0.0305
3296.00,0.0306
3295.00,0.0307
3294.00,0.0309
3293.00,0.0310
3292.00,0.0311
3291.00,0.0313
3290.00,0.0313
3289.00,0.0314
3288.00,0.0315
3287.00,0.0317
3286.00,0.0318
3285.00,0.0319
3284.00,0.0321
3283.00,0.0322
3282.00,0.0324
3281.00,0.0325
3280.00,0.0326
3279.00,0.0328
3278.00,0.0329
3277.00,0.0331
3276.00,0.0332
3275.00,0.0334
3274.00,0.0335
3273.00,0.0337
3272.00,0.0339
3271.00,0.0340
3270.00,0.0342
3269.00,0.0343
3268.00,0.0344
3267.00,0.0345
3266.00,0.0347
3265.00,0.0348
3264.00,0.0350
3263.00,0.0351
3262.00,0.0353
3261.00,0.0354
3260.00,0.0356
3259.00,0.0357
3258.00,0.0358
3257.00,0.0360
3256.00,0.0362
3255.00,0.0363
3254.00,0.0365
3253.00,0.0366
3252.00,0.0368
3251.00,0.0369
3250.00,0.0370
3249.00,0.0372
3248.00,0.0373
3247.00,0.0374
3246.00,0.0375
3245.00,0.0376
3244.00,0.0378
3243.00,0.0378
3242.00,0.0379
3241.00,0.0380
3240.00,0.0381
3239.00,0.0381
3238.00,0.0382
3237.00,0.0382
3236.00,0.0382
3235.00,0.0382
3234.00,0.0382
3233.00,0.0382
3232.00,0.0383
3231.00,0.0383
3230.00,0.0383
3229.00,0.0383
3228.00,0.0383
3227.00,0.0383
3226.00,0.0383
3225.00,0.0383
3224.00,0.0382
3223.00,0.0382
3222.00,0.0381
3221.00,0.0381
3220.00,0.0380
3219.00,0.0379
3218.00,0.0378
3217.00,0.0377
3216.00,0.0376
3215.00,0.0375
3214.00,0.0374
3213.00,0.0373
3212.00,0.0371
3211.00,0.0370
3210.00,0.0369
3209.00,0.0367
3208.00,0.0366
3207.00,0.0364
3206.00,0.0363
3205.00,0.0361
3204.00,0.0359
3203.00,0.0358
3202.00,0.0356
3201.00,0.0354
3200.00,0.0352
3199.00,0.0350
3198.00,0.0349
3197.00,0.0347
3196.00,0.0345
3195.00,0.0343
3194.00,0.0341
3193.00,0.0339
3192.00,0.0337
3191.00,0.0336
3190.00,0.0334
3189.00,0.0332
3188.00,0.0329
3187.00,0.0327
3186.00,0.0325
3185.00,0.0324
3184.00,0.0322
3183.00,0.0320
3182.00,0.0318
3181.00,0.0316
3180.00,0.0314
3179.00,0.0312
3178.00,0.0310
3177.00,0.0308
3176.00,0.0306
3175.00,0.0304
3174.00,0.0302
3173.00,0.0300
3172.00,0.0298
3171.00,0.0296
3170.00,0.0294
3169.00,0.0292
3168.00,0.0290
3167.00,0.0288
3166.00,0.0286
3165.00,0.0284
3164.00,0.0282
3163.00,0.0280
3162.00,0.0278
3161.00,0.0276
3160.00,0.0275
3159.00,0.0273
3158.00,0.0271
3157.00,0.0269
3156.00,0.0267
3155.00,0.0265
3154.00,0.0263
3153.00,0.0261
3152.00,0.0259
3151.00,0.0258
3150.00,0.0256
3149.00,0.0254
3148.00,0.0253
3147.00,0.0251
3146.00,0.0249
3145.00,0.0248
3144.00,0.0246
3143.00,0.0245
3142.00,0.0243
3141.00,0.0241
3140.00,0.0240
3139.00,0.0238
3138.00,0.0237
3137.00,0.0236
3136.00,0.0235
3135.00,0.0233
3134.00,0.0232
3133.00,0.0231
3132.00,0.0230
3131.00,0.0229
3130.00,0.0228
3129.00,0.0227
3128.00,0.0226
3127.00,0.0225
3126.00,0.0224
3125.00,0.0223
3124.00,0.0222
3123.00,0.0221
3122.00,0.0220
3121.00,0.0219
3120.00,0.0219
3119.00,0.0218
3118.00,0.0217
3117.00,0.0215
3116.00,0.0214
3115.00,0.0213
3114.00,0.0212
3113.00,0.0211
3112.00,0.0210
3111.00,0.0209
3110.00,0.0207
3109.00,0.0206
3108.00,0.0205
3107.00,0.0204
3106.00,0.0203
3105.00,0.0202
3104.00,0.0201
3103.00,0.0200
3102.00,0.0199
3101.00,0.0199
3100.00,0.0198
3099.00,0.0197
3098.00,0.0197
3097.00,0.0196
3096.00,0.0196
3095.00,0.0196
3094.00,0.0196
3093.00,0.0196
3092.00,0.0196
3091.00,0.0197
3090.00,0.0197
3089.00,0.0198
3088.00,0.0199
3087.00,0.0199
3086.00,0.0199
3085.00,0.0199
3084.00,0.0199
3083.00,0.0199
3082.00,0.0199
3081.00,0.0199
3080.00,0.0198
3079.00,0.0198
3078.00,0.0197
3077.00,0.0197
3076.00,0.0196
3075.00,0.0195
3074.00,0.0195
3073.00,0.0195
3072.00,0.0194
3071.00,0.0194
3070.00,0.0193
3069.00,0.0193
3068.00,0.0193
3067.00,0.0193
3066.00,0.0193
3065.00,0.0193
3064.00,0.0193
3063.00,0.0193
3062.00,0.0193
3061.00,0.0193
3060.00,0.0194
3059.00,0.0194
3058.00,0.0194
3057.00,0.0195
3056.00,0.0195
3055.00,0.0196
3054.00,0.0196
3053.00,0.0196
3052.00,0.0195
3051.00,0.0195
3050.00,0.0195
3049.00,0.0195
3048.00,0.0194
3047.00,0.0194
3046.00,0.0194
3045.00,0.0193
3044.00,0.0194
3043.00,0.0194
3042.00,0.0194
3041.00,0.0195
3040.00,0.0196
3039.00,0.0197
3038.00,0.0198
3037.00,0.0200
3036.00,0.0201
3035.00,0.0202
3034.00,0.0203
3033.00,0.0204
3032.00,0.0204
3031.00,0.0204
3030.00,0.0203
3029.00,0.0202
3028.00,0.0200
3027.00,0.0199
3026.00,0.0197
3025.00,0.0196
3024.00,0.0194
3023.00,0.0193
3022.00,0.0192
3021.00,0.0191
3020.00,0.0190
3019.00,0.0189
3018.00,0.0189
3017.00,0.0188
3016.00,0.0188
3015.00,0.0188
3014.00,0.0189
3013.00,0.0189
3012.00,0.0190
3011.00,0.0191
3010.00,0.0192
3009.00,0.0193
3008.00,0.0195
3007.00,0.0198
3006.00,0.0200
3005.00,0.0203
3004.00,0.0207
3003.00,0.0211
3002.00,0.0215
3001.00,0.0219
3000.00,0.0224
2999.00,0.0229
2998.00,0.0235
2997.00,0.0241
2996.00,0.0248
2995.00,0.0254
2994.00,0.0260
2993.00,0.0265
2992.00,0.0270
2991.00,0.0273
2990.00,0.0277
2989.00,0.0280
2988.00,0.0284
2987.00,0.0289
2986.00,0.0296
2985.00,0.0304
2984.00,0.0314
2983.00,0.0327
2982.00,0.0340
2981.00,0.0352
2980.00,0.0363
2979.00,0.0371
2978.00,0.0375
2977.00,0.0376
2976.00,0.0378
2975.00,0.0383
2974.00,0.0392
2973.00,0.0405
2972.00,0.0420
2971.00,0.0433
2970.00,0.0444
2969.00,0.0452
2968.00,0.0456
2967.00,0.0460
2966.00,0.0464
2965.00,0.0470
2964.00,0.0477
2963.00,0.0485
2962.00,0.0492
2961.00,0.0497
2960.00,0.0500
2959.00,0.0498
2958.00,0.0492
2957.00,0.0482
2956.00,0.0469
2955.00,0.0455
2954.00,0.0441
2953.00,0.0429
2952.00,0.0417
2951.00,0.0408
2950.00,0.0402
2949.00,0.0398
2948.00,0.0397
2947.00,0.0399
2946.00,0.0404
2945.00,0.0411
2944.00,0.0419
2943.00,0.0429
2942.00,0.0441
2941.00,0.0454
2940.00,0.0469
2939.00,0.0486
2938.00,0.0506
2937.00,0.0529
2936.00,0.0555
2935.00,0.0584
2934.00,0.0615
2933.00,0.0646
2932.00,0.0678
2931.00,0.0708
2930.00,0.0734
2929.00,0.0756
2928.00,0.0771
2927.00,0.0779
2926.00,0.0779
2925.00,0.0773
2924.00,0.0761
2923.00,0.0745
2922.00,0.0726
2921.00,0.0706
2920.00,0.0685
2919.00,0.0664
2918.00,0.0643
2917.00,0.0622
2916.00,0.0603
2915.00,0.0585
2914.00,0.0568
2913.00,0.0553
2912.00,0.0539
2911.00,0.0526
2910.00,0.0515
2909.00,0.0504
2908.00,0.0494
2907.00,0.0485
2906.00,0.0476
2905.00,0.0467
2904.00,0.0459
2903.00,0.0451
2902.00,0.0443
2901.00,0.0436
2900.00,0.0429
2899.00,0.0422
2898.00,0.0415
2897.00,0.0409
2896.00,0.0403
2895.00,0.0398
2894.00,0.0393
2893.00,0.0388
2892.00,0.0384
2891.00,0.0380
2890.00,0.0376
2889.00,0.0372
2888.00,0.0369
2887.00,0.0366
2886.00,0.0363
2885.00,0.0360
2884.00,0.0358
2883.00,0.0357
2882.00,0.0358
2881.00,0.0359
2880.00,0.0363
2879.00,0.0368
2878.00,0.0375
2877.00,0.0383
2876.00,0.0393
2875.00,0.0402
2874.00,0.0410
2873.00,0.0415
2872.00,0.0418
2871.00,0.0418
2870.00,0.0416
2869.00,0.0413
2868.00,0.0410
2867.00,0.0409
2866.00,0.0412
2865.00,0.0417
2864.00,0.0428
2863.00,0.0442
2862.00,0.0461
2861.00,0.0483
2860.00,0.0506
2859.00,0.0528
2858.00,0.0546
2857.00,0.0560
2856.00,0.0568
2855.00,0.0570
2854.00,0.0568
2853.00,0.0563
2852.00,0.0553
2851.00,0.0539
2850.00,0.0520
2849.00,0.0498
2848.00,0.0474
2847.00,0.0450
2846.00,0.0428
2845.00,0.0408
2844.00,0.0390
2843.00,0.0374
2842.00,0.0360
2841.00,0.0348
2840.00,0.0338
2839.00,0.0329
2838.00,0.0322
2837.00,0.0315
2836.00,0.0310
2835.00,0.0304
2834.00,0.0300
2833.00,0.0295
2832.00,0.0291
2831.00,0.0287
2830.00,0.0283
2829.00,0.0279
2828.00,0.0276
2827.00,0.0272
2826.00,0.0269
2825.00,0.0266
2824.00,0.0263
2823.00,0.0261
2822.00,0.0258
2821.00,0.0256
2820.00,0.0254
2819.00,0.0252
2818.00,0.0250
2817.00,0.0248
2816.00,0.0246
2815.00,0.0244
2814.00,0.0243
2813.00,0.0241
2812.00,0.0238
2811.00,0.0236
2810.00,0.0234
2809.00,0.0233
2808.00,0.0231
2807.00,0.0229
2806.00,0.0227
2805.00,0.0225
2804.00,0.0223
2803.00,0.0221
2802.00,0.0220
2801.00,0.0218
2800.00,0.0216
2799.00,0.0215
2798.00,0.0214
2797.00,0.0212
2796.00,0.0211
2795.00,0.0210
2794.00,0.0209
2793.00,0.0208
2792.00,0.0207
2791.00,0.0206
2790.00,0.0205
2789.00,0.0204
2788.00,0.0203
2787.00,0.0203
2786.00,0.0202
2785.00,0.0201
2784.00,0.0200
2783.00,0.0200
2782.00,0.0199
2781.00,0.0198
2780.00,0.0198
2779.00,0.0197
2778.00,0.0197
2777.00,0.0196
2776.00,0.0196
2775.00,0.0195
2774.00,0.0195
2773.00,0.0195
2772.00,0.0194
2771.00,0.0194
2770.00,0.0194
2769.00,0.0194
2768.00,0.0193
2767.00,0.0193
2766.00,0.0193
2765.00,0.0193
2764.00,0.0192
2763.00,0.0192
2762.00,0.0192
2761.00,0.0192
2760.00,0.0192
2759.00,0.0192
2758.00,0.0192
2757.00,0.0192
2756.00,0.0192
2755.00,0.0192
2754.00,0.0192
2753.00,0.0192
2752.00,0.0192
2751.00,0.0192
2750.00,0.0192
2749.00,0.0192
2748.00,0.0192
2747.00,0.0192
2746.00,0.0193
2745.00,0.0193
2744.00,0.0193
2743.00,0.0193
2742.00,0.0193
2741.00,0.0194
2740.00,0.0194
2739.00,0.0195
2738.00,0.0196
2737.00,0.0196
2736.00,0.0197
2735.00,0.0198
2734.00,0.0199
2733.00,0.0199
2732.00,0.0200
2731.00,0.0200
2730.00,0.0200
2729.00,0.0200
2728.00,0.0200
2727.00,0.0200
2726.00,0.0199
2725.00,0.0198
2724.00,0.0198
2723.00,0.0197
2722.00,0.0197
2721.00,0.0196
2720.00,0.0196
2719.00,0.0196
2718.00,0.0195
2717.00,0.0195
2716.00,0.0194
2715.00,0.0194
2714.00,0.0194
2713.00,0.0193
2712.00,0.0193
2711.00,0.0193
2710.00,0.0193
2709.00,0.0193
2708.00,0.0193
2707.00,0.0193
2706.00,0.0192
2705.00,0.0192
2704.00,0.0192
2703.00,0.0192
2702.00,0.0192
2701.00,0.0192
2700.00,0.0191
2699.00,0.0191
2698.00,0.0191
2697.00,0.0190
2696.00,0.0190
2695.00,0.0190
2694.00,0.0189
2693.00,0.0189
2692.00,0.0189
2691.00,0.0188
2690.00,0.0188
2689.00,0.0188
2688.00,0.0187
2687.00,0.0187
2686.00,0.0187
2685.00,0.0187
2684.00,0.0187
2683.00,0.0186
2682.00,0.0186
2681.00,0.0186
2680.00,0.0186
2679.00,0.0186
2678.00,0.0186
2677.00,0.0186
2676.00,0.0186
2675.00,0.0186
2674.00,0.0186
2673.00,0.0186
2672.00,0.0187
2671.00,0.0187
2670.00,0.0187
2669.00,0.0187
2668.00,0.0188
2667.00,0.0188
2666.00,0.0189
2665.00,0.0190
2664.00,0.0190
2663.00,0.0191
2662.00,0.0191
2661.00,0.0192
2660.00,0.0192
2659.00,0.0192
2658.00,0.0193
2657.00,0.0193
2656.00,0.0193
2655.00,0.0193
2654.00,0.0193
2653.00,0.0193
2652.00,0.0193
2651.00,0.0193
2650.00,0.0193
2649.00,0.0193
2648.00,0.0193
2647.00,0.0193
2646.00,0.0193
2645.00,0.0193
2644.00,0.0193
2643.00,0.0192
2642.00,0.0192
2641.00,0.0192
2640.00,0.0192
2639.00,0.0191
2638.00,0.0191
2637.00,0.0190
2636.00,0.0190
2635.00,0.0189
2634.00,0.0189
2633.00,0.0188
2632.00,0.0188
2631.00,0.0187
2630.00,0.0186
2629.00,0.0186
2628.00,0.0186
2627.00,0.0185
2626.00,0.0185
2625.00,0.0184
2624.00,0.0184
2623.00,0.0184
2622.00,0.0184
2621.00,0.0183
2620.00,0.0183
2619.00,0.0183
2618.00,0.0183
2617.00,0.0183
2616.00,0.0183
2615.00,0.0183
2614.00,0.0183
2613.00,0.0182
2612.00,0.0182
2611.00,0.0182
2610.00,0.0182
2609.00,0.0182
2608.00,0.0183
2607.00,0.0183
2606.00,0.0183
2605.00,0.0183
2604.00,0.0183
2603.00,0.0183
2602.00,0.0183
2601.00,0.0183
2600.00,0.0183
2599.00,0.0184
2598.00,0.0184
2597.00,0.0184
2596.00,0.0184
2595.00,0.0184
2594.00,0.0184
2593.00,0.0185
2592.00,0.0185
2591.00,0.0185
2590.00,0.0185
2589.00,0.0185
2588.00,0.0184
2587.00,0.0184
2586.00,0.0184
2585.00,0.0184
2584.00,0.0184
2583.00,0.0184
2582.00,0.0184
2581.00,0.0183
2580.00,0.0183
2579.00,0.0182
2578.00,0.0182
2577.00,0.0182
2576.00,0.0182
2575.00,0.0181
2574.00,0.0181
2573.00,0.0181
2572.00,0.0180
2571.00,0.0180
2570.00,0.0180
2569.00,0.0180
2568.00,0.0180
2567.00,0.0181
2566.00,0.0181
2565.00,0.0181
2564.00,0.0181
2563.00,0.0180
2562.00,0.0180
2561.00,0.0179
2560.00,0.0179
2559.00,0.0178
2558.00,0.0178
2557.00,0.0177
2556.00,0.0177
2555.00,0.0176
2554.00,0.0176
2553.00,0.0175
2552.00,0.0175
2551.00,0.0175
2550.00,0.0175
2549.00,0.0175
2548.00,0.0175
2547.00,0.0175
2546.00,0.0175
2545.00,0.0175
2544.00,0.0175
2543.00,0.0175
2542.00,0.0175
2541.00,0.0175
2540.00,0.0175
2539.00,0.0176
2538.00,0.0176
2537.00,0.0176
2536.00,0.0176
2535.00,0.0176
2534.00,0.0176
2533.00,0.0176
2532.00,0.0176
2531.00,0.0176
2530.00,0.0175
2529.00,0.0175
2528.00,0.0175
2527.00,0.0175
2526.00,0.0174
2525.00,0.0174
2524.00,0.0174
2523.00,0.0173
2522.00,0.0172
2521.00,0.0172
2520.00,0.0172
2519.00,0.0171
2518.00,0.0171
2517.00,0.0171
2516.00,0.0171
2515.00,0.0171
2514.00,0.0171
2513.00,0.0171
2512.00,0.0171
2511.00,0.0171
2510.00,0.0171
2509.00,0.0170
2508.00,0.0170
2507.00,0.0169
2506.00,0.0169
2505.00,0.0169
2504.00,0.0168
2503.00,0.0168
2502.00,0.0168
2501.00,0.0168
2500.00,0.0167
2499.00,0.0167
2498.00,0.0167
2497.00,0.0167
2496.00,0.0167
2495.00,0.0167
2494.00,0.0166
2493.00,0.0166
2492.00,0.0166
2491.00,0.0166
2490.00,0.0166
2489.00,0.0165
2488.00,0.0165
2487.00,0.0165
2486.00,0.0165
2485.00,0.0165
2484.00,0.0165
2483.00,0.0165
2482.00,0.0165
2481.00,0.0165
2480.00,0.0164
2479.00,0.0164
2478.00,0.0164
2477.00,0.0164
2476.00,0.0164
2475.00,0.0164
2474.00,0.0164
2473.00,0.0164
2472.00,0.0163
2471.00,0.0163
2470.00,0.0163
2469.00,0.0163
2468.00,0.0163
2467.00,0.0163
2466.00,0.0163
2465.00,0.0162
2464.00,0.0162
2463.00,0.0163
2462.00,0.0163
2461.00,0.0163
2460.00,0.0164
2459.00,0.0164
2458.00,0.0164
2457.00,0.0164
2456.00,0.0164
2455.00,0.0165
2454.00,0.0165
2453.00,0.0165
2452.00,0.0165
2451.00,0.0164
2450.00,0.0164
2449.00,0.0164
2448.00,0.0163
2447.00,0.0163
2446.00,0.0163
2445.00,0.0162
2444.00,0.0162
2443.00,0.0162
2442.00,0.0162
2441.00,0.0161
2440.00,0.0161
2439.00,0.0161
2438.00,0.0161
2437.00,0.0161
2436.00,0.0161
2435.00,0.0161
2434.00,0.0161
2433.00,0.0161
2432.00,0.0161
2431.00,0.0161
2430.00,0.0160
2429.00,0.0160
2428.00,0.0160
2427.00,0.0159
2426.00,0.0159
2425.00,0.0159
2424.00,0.0158
2423.00,0.0158
2422.00,0.0158
2421.00,0.0158
2420.00,0.0158
2419.00,0.0158
2418.00,0.0158
2417.00,0.0158
2416.00,0.0159
2415.00,0.0159
2414.00,0.0159
2413.00,0.0159
2412.00,0.0159
2411.00,0.0159
2410.00,0.0159
2409.00,0.0159
2408.00,0.0158
2407.00,0.0158
2406.00,0.0158
2405.00,0.0158
2404.00,0.0158
2403.00,0.0158
2402.00,0.0158
2401.00,0.0158
2400.00,0.0158
2399.00,0.0157
2398.00,0.0157
2397.00,0.0157
2396.00,0.0157
2395.00,0.0157
2394.00,0.0157
2393.00,0.0157
2392.00,0.0157
2391.00,0.0157
2390.00,0.0157
2389.00,0.0157
2388.00,0.0157
2387.00,0.0156
2386.00,0.0156
2385.00,0.0156
2384.00,0.0155
2383.00,0.0155
2382.00,0.0154
2381.00,0.0153
2380.00,0.0153
2379.00,0.0153
2378.00,0.0153
2377.00,0.0154
2376.00,0.0154
2375.00,0.0154
2374.00,0.0154
2373.00,0.0154
2372.00,0.0154
2371.00,0.0154
2370.00,0.0154
2369.00,0.0153
2368.00,0.0153
2367.00,0.0153
2366.00,0.0153
2365.00,0.0154
2364.00,0.0154
2363.00,0.0154
2362.00,0.0154
2361.00,0.0154
2360.00,0.0155
2359.00,0.0154
2358.00,0.0154
2357.00,0.0154
2356.00,0.0154
2355.00,0.0155
2354.00,0.0155
2353.00,0.0155
2352.00,0.0154
2351.00,0.0154
2350.00,0.0154
2349.00,0.0155
2348.00,0.0156
2347.00,0.0158
2346.00,0.0158
2345.00,0.0158
2344.00,0.0157
2343.00,0.0157
2342.00,0.0157
2341.00,0.0157
2340.00,0.0158
2339.00,0.0158
2338.00,0.0158
2337.00,0.0157
2336.00,0.0157
2335.00,0.0157
2334.00,0.0157
2333.00,0.0157
2332.00,0.0156
2331.00,0.0156
2330.00,0.0157
2329.00,0.0158
2328.00,0.0162
2327.00,0.0166
2326.00,0.0169
2325.00,0.0170
2324.00,0.0169
2323.00,0.0166
2322.00,0.0164
2321.00,0.0162
2320.00,0.0161
2319.00,0.0160
2318.00,0.0160
2317.00,0.0160
2316.00,0.0159
2315.00,0.0159
2314.00,0.0159
2313.00,0.0158
2312.00,0.0157
2311.00,0.0156
2310.00,0.0156
2309.00,0.0155
2308.00,0.0155
2307.00,0.0156
2306.00,0.0156
2305.00,0.0157
2304.00,0.0157
2303.00,0.0158
2302.00,0.0158
2301.00,0.0158
2300.00,0.0159
2299.00,0.0159
2298.00,0.0159
2297.00,0.0160
2296.00,0.0161
2295.00,0.0162
2294.00,0.0163
2293.00,0.0164
2292.00,0.0165
2291.00,0.0166
2290.00,0.0167
2289.00,0.0168
2288.00,0.0168
2287.00,0.0168
2286.00,0.0168
2285.00,0.0167
2284.00,0.0166
2283.00,0.0165
2282.00,0.0165
2281.00,0.0164
2280.00,0.0163
2279.00,0.0163
2278.00,0.0162
2277.00,0.0162
2276.00,0.0161
2275.00,0.0161
2274.00,0.0160
2273.00,0.0160
2272.00,0.0159
2271.00,0.0159
2270.00,0.0158
2269.00,0.0158
2268.00,0.0157
2267.00,0.0156
2266.00,0.0156
2265.00,0.0156
2264.00,0.0155
2263.00,0.0155
2262.00,0.0155
2261.00,0.0155
2260.00,0.0155
2259.00,0.0155
2258.00,0.0155
2257.00,0.0154
2256.00,0.0153
2255.00,0.0152
2254.00,0.0151
2253.00,0.0152
2252.00,0.0152
2251.00,0.0153
2250.00,0.0154
2249.00,0.0154
2248.00,0.0154
2247.00,0.0154
2246.00,0.0154
2245.00,0.0154
2244.00,0.0154
2243.00,0.0155
2242.00,0.0155
2241.00,0.0155
2240.00,0.0155
2239.00,0.0155
2238.00,0.0154
2237.00,0.0154
2236.00,0.0155
2235.00,0.0154
2234.00,0.0154
2233.00,0.0154
2232.00,0.0154
2231.00,0.0154
2230.00,0.0155
2229.00,0.0154
2228.00,0.0154
2227.00,0.0154
2226.00,0.0154
2225.00,0.0154
2224.00,0.0154
2223.00,0.0154
2222.00,0.0154
2221.00,0.0153
2220.00,0.0153
2219.00,0.0152
2218.00,0.0152
2217.00,0.0151
2216.00,0.0151
2215.00,0.0151
2214.00,0.0151
2213.00,0.0151
2212.00,0.0151
2211.00,0.0152
2210.00,0.0152
2209.00,0.0152
2208.00,0.0152
2207.00,0.0152
2206.00,0.0152
2205.00,0.0152
2204.00,0.0153
2203.00,0.0153
2202.00,0.0152
2201.00,0.0152
2200.00,0.0152
2199.00,0.0152
2198.00,0.0152
2197.00,0.0152
2196.00,0.0152
2195.00,0.0153
2194.00,0.0154
2193.00,0.0154
2192.00,0.0155
2191.00,0.0155
2190.00,0.0154
2189.00,0.0154
2188.00,0.0154
2187.00,0.0154
2186.00,0.0153
2185.00,0.0151
2184.00,0.0149
2183.00,0.0147
2182.00,0.0146
2181.00,0.0146
2180.00,0.0147
2179.00,0.0147
2178.00,0.0147
2177.00,0.0146
2176.00,0.0145
2175.00,0.0144
2174.00,0.0145
2173.00,0.0147
2172.00,0.0150
2171.00,0.0152
2170.00,0.0153
2169.00,0.0154
2168.00,0.0155
2167.00,0.0155
2166.00,0.0156
2165.00,0.0158
2164.00,0.0161
2163.00,0.0162
2162.00,0.0157
2161.00,0.0146
2160.00,0.0132
2159.00,0.0119
2158.00,0.0113
2157.00,0.0113
2156.00,0.0116
2155.00,0.0120
2154.00,0.0124
2153.00,0.0126
2152.00,0.0128
2151.00,0.0129
2150.00,0.0130
2149.00,0.0130
2148.00,0.0130
2147.00,0.0130
2146.00,0.0131
2145.00,0.0131
2144.00,0.0131
2143.00,0.0132
2142.00,0.0132
2141.00,0.0133
2140.00,0.0134
2139.00,0.0134
2138.00,0.0133
2137.00,0.0130
2136.00,0.0127
2135.00,0.0125
2134.00,0.0125
2133.00,0.0126
2132.00,0.0128
2131.00,0.0130
2130.00,0.0132
2129.00,0.0133
2128.00,0.0135
2127.00,0.0136
2126.00,0.0137
2125.00,0.0138
2124.00,0.0139
2123.00,0.0141
2122.00,0.0141
2121.00,0.0142
2120.00,0.0142
2119.00,0.0143
2118.00,0.0143
2117.00,0.0144
2116.00,0.0146
2115.00,0.0146
2114.00,0.0147
2113.00,0.0146
2112.00,0.0146
2111.00,0.0146
2110.00,0.0145
2109.00,0.0145
2108.00,0.0144
2107.00,0.0144
2106.00,0.0144
2105.00,0.0145
2104.00,0.0145
2103.00,0.0145
2102.00,0.0144
2101.00,0.0144
2100.00,0.0144
2099.00,0.0143
2098.00,0.0142
2097.00,0.0140
2096.00,0.0139
2095.00,0.0138
2094.00,0.0138
2093.00,0.0139
2092.00,0.0140
2091.00,0.0141
2090.00,0.0142
2089.00,0.0143
2088.00,0.0144
2087.00,0.0144
2086.00,0.0145
2085.00,0.0146
2084.00,0.0147
2083.00,0.0147
2082.00,0.0147
2081.00,0.0147
2080.00,0.0147
2079.00,0.0147
2078.00,0.0147
2077.00,0.0146
2076.00,0.0146
2075.00,0.0146
2074.00,0.0146
2073.00,0.0145
2072.00,0.0145
2071.00,0.0145
2070.00,0.0145
2069.00,0.0144
2068.00,0.0143
2067.00,0.0142
2066.00,0.0142
2065.00,0.0142
2064.00,0.0142
2063.00,0.0142
2062.00,0.0141
2061.00,0.0141
2060.00,0.0141
2059.00,0.0142
2058.00,0.0142
2057.00,0.0142
2056.00,0.0140
2055.00,0.0140
2054.00,0.0141
2053.00,0.0145
2052.00,0.0148
2051.00,0.0148
2050.00,0.0145
2049.00,0.0141
2048.00,0.0139
2047.00,0.0138
2046.00,0.0138
2045.00,0.0138
2044.00,0.0138
2043.00,0.0137
2042.00,0.0137
2041.00,0.0137
2040.00,0.0138
2039.00,0.0139
2038.00,0.0139
2037.00,0.0138
2036.00,0.0137
2035.00,0.0136
2034.00,0.0135
2033.00,0.0134
2032.00,0.0134
2031.00,0.0134
2030.00,0.0133
2029.00,0.0133
2028.00,0.0132
2027.00,0.0132
2026.00,0.0131
2025.00,0.0131
2024.00,0.0131
2023.00,0.0131
2022.00,0.0130
2021.00,0.0130
2020.00,0.0130
2019.00,0.0130
2018.00,0.0130
2017.00,0.0129
2016.00,0.0129
2015.00,0.0130
2014.00,0.0130
2013.00,0.0131
2012.00,0.0132
2011.00,0.0132
2010.00,0.0131
2009.00,0.0128
2008.00,0.0125
2007.00,0.0123
2006.00,0.0123
2005.00,0.0125
2004.00,0.0127
2003.00,0.0128
2002.00,0.0130
2001.00,0.0131
2000.00,0.0132
1999.00,0.0133
1998.00,0.0135
1997.00,0.0136
1996.00,0.0137
1995.00,0.0137
1994.00,0.0136
1993.00,0.0135
1992.00,0.0135
1991.00,0.0135
1990.00,0.0136
1989.00,0.0136
1988.00,0.0137
1987.00,0.0139
1986.00,0.0140
1985.00,0.0143
1984.00,0.0145
1983.00,0.0147
1982.00,0.0150
1981.00,0.0150
1980.00,0.0148
1979.00,0.0142
1978.00,0.0136
1977.00,0.0131
1976.00,0.0129
1975.00,0.0129
1974.00,0.0129
1973.00,0.0129
1972.00,0.0129
1971.00,0.0129
1970.00,0.0129
1969.00,0.0128
1968.00,0.0128
1967.00,0.0127
1966.00,0.0127
1965.00,0.0128
1964.00,0.0128
1963.00,0.0129
1962.00,0.0128
1961.00,0.0127
1960.00,0.0127
1959.00,0.0127
1958.00,0.0128
1957.00,0.0129
1956.00,0.0131
1955.00,0.0132
1954.00,0.0132
1953.00,0.0133
1952.00,0.0133
1951.00,0.0133
1950.00,0.0134
1949.00,0.0135
1948.00,0.0135
1947.00,0.0135
1946.00,0.0134
1945.00,0.0133
1944.00,0.0132
1943.00,0.0131
1942.00,0.0131
1941.00,0.0132
1940.00,0.0133
1939.00,0.0134
1938.00,0.0134
1937.00,0.0134
1936.00,0.0134
1935.00,0.0135
1934.00,0.0135
1933.00,0.0136
1932.00,0.0137
1931.00,0.0138
1930.00,0.0138
1929.00,0.0138
1928.00,0.0138
1927.00,0.0138
1926.00,0.0138
1925.00,0.0138
1924.00,0.0138
1923.00,0.0138
1922.00,0.0139
1921.00,0.0140
1920.00,0.0140
1919.00,0.0140
1918.00,0.0140
1917.00,0.0140
1916.00,0.0141
1915.00,0.0142
1914.00,0.0143
1913.00,0.0144
1912.00,0.0147
1911.00,0.0150
1910.00,0.0153
1909.00,0.0156
1908.00,0.0157
1907.00,0.0156
1906.00,0.0155
1905.00,0.0152
1904.00,0.0150
1903.00,0.0148
1902.00,0.0146
1901.00,0.0145
1900.00,0.0145
1899.00,0.0145
1898.00,0.0145
1897.00,0.0146
1896.00,0.0147
1895.00,0.0148
1894.00,0.0149
1893.00,0.0150
1892.00,0.0149
1891.00,0.0147
1890.00,0.0145
1889.00,0.0144
1888.00,0.0143
1887.00,0.0143
1886.00,0.0143
1885.00,0.0143
1884.00,0.0143
1883.00,0.0142
1882.00,0.0142
1881.00,0.0142
1880.00,0.0142
1879.00,0.0142
1878.00,0.0142
1877.00,0.0142
1876.00,0.0142
1875.00,0.0142
1874.00,0.0142
1873.00,0.0142
1872.00,0.0142
1871.00,0.0141
1870.00,0.0141
1869.00,0.0140
1868.00,0.0140
1867.00,0.0141
1866.00,0.0142
1865.00,0.0143
1864.00,0.0143
1863.00,0.0143
1862.00,0.0143
1861.00,0.0143
1860.00,0.0143
1859.00,0.0143
1858.00,0.0143
1857.00,0.0143
1856.00,0.0144
1855.00,0.0144
1854.00,0.0144
1853.00,0.0145
1852.00,0.0145
1851.00,0.0146
1850.00,0.0146
1849.00,0.0147
1848.00,0.0147
1847.00,0.0148
1846.00,0.0148
1845.00,0.0149
1844.00,0.0148
1843.00,0.0148
1842.00,0.0147
1841.00,0.0147
1840.00,0.0146
1839.00,0.0146
1838.00,0.0145
1837.00,0.0144
1836.00,0.0144
1835.00,0.0144
1834.00,0.0143
1833.00,0.0143
1832.00,0.0143
1831.00,0.0142
1830.00,0.0142
1829.00,0.0141
1828.00,0.0142
1827.00,0.0142
1826.00,0.0142
1825.00,0.0142
1824.00,0.0142
1823.00,0.0143
1822.00,0.0143
1821.00,0.0143
1820.00,0.0143
1819.00,0.0142
1818.00,0.0141
1817.00,0.0140
1816.00,0.0141
1815.00,0.0142
1814.00,0.0142
1813.00,0.0142
1812.00,0.0143
1811.00,0.0143
1810.00,0.0143
1809.00,0.0143
1808.00,0.0143
1807.00,0.0144
1806.00,0.0144
1805.00,0.0144
1804.00,0.0144
1803.00,0.0144
1802.00,0.0143
1801.00,0.0144
1800.00,0.0145
1799.00,0.0146
1798.00,0.0147
1797.00,0.0147
1796.00,0.0148
1795.00,0.0148
1794.00,0.0148
1793.00,0.0148
1792.00,0.0147
1791.00,0.0147
1790.00,0.0147
1789.00,0.0147
1788.00,0.0147
1787.00,0.0147
1786.00,0.0146
1785.00,0.0146
1784.00,0.0146
1783.00,0.0146
1782.00,0.0146
1781.00,0.0146
1780.00,0.0146
1779.00,0.0147
1778.00,0.0148
1777.00,0.0149
1776.00,0.0150
1775.00,0.0151
1774.00,0.0152
1773.00,0.0152
1772.00,0.0152
1771.00,0.0151
1770.00,0.0150
1769.00,0.0149
1768.00,0.0148
1767.00,0.0148
1766.00,0.0148
1765.00,0.0148
1764.00,0.0148
1763.00,0.0148
1762.00,0.0148
1761.00,0.0149
1760.00,0.0150
1759.00,0.0150
1758.00,0.0149
1757.00,0.0148
1756.00,0.0147
1755.00,0.0146
1754.00,0.0146
1753.00,0.0145
1752.00,0.0144
1751.00,0.0143
1750.00,0.0141
1749.00,0.0141
1748.00,0.0141
1747.00,0.0141
1746.00,0.0141
1745.00,0.0140
1744.00,0.0140
1743.00,0.0140
1742.00,0.0140
1741.00,0.0141
1740.00,0.0141
1739.00,0.0141
1738.00,0.0140
1737.00,0.0141
1736.00,0.0141
1735.00,0.0141
1734.00,0.0141
1733.00,0.0141
1732.00,0.0142
1731.00,0.0143
1730.00,0.0144
1729.00,0.0145
1728.00,0.0146
1727.00,0.0147
1726.00,0.0148
1725.00,0.0148
1724.00,0.0149
1723.00,0.0149
1722.00,0.0150
1721.00,0.0150
1720.00,0.0150
1719.00,0.0150
1718.00,0.0150
1717.00,0.0149
1716.00,0.0150
1715.00,0.0151
1714.00,0.0152
1713.00,0.0153
1712.00,0.0154
1711.00,0.0154
1710.00,0.0155
1709.00,0.0154
1708.00,0.0153
1707.00,0.0152
1706.00,0.0151
1705.00,0.0149
1704.00,0.0148
1703.00,0.0147
1702.00,0.0147
1701.00,0.0147
1700.00,0.0145
1699.00,0.0144
1698.00,0.0143
1697.00,0.0143
1696.00,0.0142
1695.00,0.0141
1694.00,0.0139
1693.00,0.0137
1692.00,0.0136
1691.00,0.0134
1690.00,0.0131
1689.00,0.0129
1688.00,0.0127
1687.00,0.0125
1686.00,0.0123
1685.00,0.0121
1684.00,0.0117
1683.00,0.0114
1682.00,0.0112
1681.00,0.0111
1680.00,0.0110
1679.00,0.0108
1678.00,0.0107
1677.00,0.0106
1676.00,0.0105
1675.00,0.0103
1674.00,0.0102
1673.00,0.0101
1672.00,0.0099
1671.00,0.0098
1670.00,0.0097
1669.00,0.0096
1668.00,0.0096
1667.00,0.0096
1666.00,0.0095
1665.00,0.0094
1664.00,0.0094
1663.00,0.0093
1662.00,0.0093
1661.00,0.0093
1660.00,0.0093
1659.00,0.0093
1658.00,0.0093
1657.00,0.0091
1656.00,0.0090
1655.00,0.0090
1654.00,0.0091
1653.00,0.0095
1652.00,0.0099
1651.00,0.0101
1650.00,0.0101
1649.00,0.0101
1648.00,0.0103
1647.00,0.0107
1646.00,0.0111
1645.00,0.0116
1644.00,0.0121
1643.00,0.0126
1642.00,0.0130
1641.00,0.0135
1640.00,0.0140
1639.00,0.0144
1638.00,0.0147
1637.00,0.0153
1636.00,0.0163
1635.00,0.0176
1634.00,0.0193
1633.00,0.0213
1632.00,0.0239
1631.00,0.0273
1630.00,0.0319
1629.00,0.0378
1628.00,0.0448
1627.00,0.0521
1626.00,0.0587
1625.00,0.0645
1624.00,0.0699
1623.00,0.0744
1622.00,0.0772
1621.00,0.0781
1620.00,0.0775
1619.00,0.0755
1618.00,0.0720
1617.00,0.0674
1616.00,0.0632
1615.00,0.0607
1614.00,0.0599
1613.00,0.0602
1612.00,0.0612
1611.00,0.0619
1610.00,0.0617
1609.00,0.0603
1608.00,0.0577
1607.00,0.0544
1606.00,0.0508
1605.00,0.0471
1604.00,0.0436
1603.00,0.0405
1602.00,0.0377
1601.00,0.0354
1600.00,0.0335
1599.00,0.0322
1598.00,0.0312
1597.00,0.0306
1596.00,0.0306
1595.00,0.0311
1594.00,0.0322
1593.00,0.0340
1592.00,0.0367
1591.00,0.0401
1590.00,0.0443
1589.00,0.0489
1588.00,0.0538
1587.00,0.0583
1586.00,0.0622
1585.00,0.0651
1584.00,0.0670
1583.00,0.0678
1582.00,0.0677
1581.00,0.0667
1580.00,0.0652
1579.00,0.0633
1578.00,0.0609
1577.00,0.0579
1576.00,0.0546
1575.00,0.0515
1574.00,0.0491
1573.00,0.0472
1572.00,0.0458
1571.00,0.0446
1570.00,0.0435
1569.00,0.0426
1568.00,0.0416
1567.00,0.0405
1566.00,0.0389
1565.00,0.0369
1564.00,0.0349
1563.00,0.0330
1562.00,0.0314
1561.00,0.0298
1560.00,0.0281
1559.00,0.0262
1558.00,0.0249
1557.00,0.0241
1556.00,0.0235
1555.00,0.0231
1554.00,0.0227
1553.00,0.0223
1552.00,0.0219
1551.00,0.0215
1550.00,0.0212
1549.00,0.0210
1548.00,0.0208
1547.00,0.0206
1546.00,0.0204
1545.00,0.0201
1544.00,0.0198
1543.00,0.0196
1542.00,0.0195
1541.00,0.0194
1540.00,0.0193
1539.00,0.0193
1538.00,0.0193
1537.00,0.0191
1536.00,0.0190
1535.00,0.0188
1534.00,0.0187
1533.00,0.0185
1532.00,0.0184
1531.00,0.0184
1530.00,0.0184
1529.00,0.0184
1528.00,0.0184
1527.00,0.0184
1526.00,0.0185
1525.00,0.0187
1524.00,0.0188
1523.00,0.0190
1522.00,0.0193
1521.00,0.0196
1520.00,0.0199
1519.00,0.0203
1518.00,0.0208
1517.00,0.0214
1516.00,0.0222
1515.00,0.0229
1514.00,0.0237
1513.00,0.0243
1512.00,0.0248
1511.00,0.0252
1510.00,0.0254
1509.00,0.0255
1508.00,0.0256
1507.00,0.0258
1506.00,0.0261
1505.00,0.0265
1504.00,0.0269
1503.00,0.0274
1502.00,0.0282
1501.00,0.0297
1500.00,0.0321
1499.00,0.0355
1498.00,0.0396
1497.00,0.0435
1496.00,0.0459
1495.00,0.0460
1494.00,0.0444
1493.00,0.0417
1492.00,0.0385
1491.00,0.0352
1490.00,0.0323
1489.00,0.0300
1488.00,0.0284
1487.00,0.0272
1486.00,0.0264
1485.00,0.0257
1484.00,0.0252
1483.00,0.0249
1482.00,0.0246
1481.00,0.0245
1480.00,0.0246
1479.00,0.0247
1478.00,0.0249
1477.00,0.0251
1476.00,0.0255
1475.00,0.0260
1474.00,0.0268
1473.00,0.0282
1472.00,0.0302
1471.00,0.0330
1470.00,0.0362
1469.00,0.0397
1468.00,0.0432
1467.00,0.0462
1466.00,0.0480
1465.00,0.0484
1464.00,0.0479
1463.00,0.0471
1462.00,0.0467
1461.00,0.0466
1460.00,0.0467
1459.00,0.0470
1458.00,0.0472
1457.00,0.0471
1456.00,0.0468
1455.00,0.0462
1454.00,0.0456
1453.00,0.0453
1452.00,0.0452
1451.00,0.0454
1450.00,0.0458
1449.00,0.0462
1448.00,0.0467
1447.00,0.0473
1446.00,0.0481
1445.00,0.0492
1444.00,0.0505
1443.00,0.0519
1442.00,0.0532
1441.00,0.0542
1440.00,0.0550
1439.00,0.0556
1438.00,0.0562
1437.00,0.0570
1436.00,0.0584
1435.00,0.0599
1434.00,0.0616
1433.00,0.0632
1432.00,0.0647
1431.00,0.0659
1430.00,0.0665
1429.00,0.0666
1428.00,0.0660
1427.00,0.0648
1426.00,0.0632
1425.00,0.0615
1424.00,0.0598
1423.00,0.0582
1422.00,0.0569
1421.00,0.0556
1420.00,0.0543
1419.00,0.0529
1418.00,0.0518
1417.00,0.0508
1416.00,0.0501
1415.00,0.0497
1414.00,0.0495
1413.00,0.0496
1412.00,0.0502
1411.00,0.0513
1410.00,0.0530
1409.00,0.0553
1408.00,0.0582
1407.00,0.0617
1406.00,0.0658
1405.00,0.0705
1404.00,0.0753
1403.00,0.0795
1402.00,0.0828
1401.00,0.0851
1400.00,0.0863
1399.00,0.0860
1398.00,0.0844
1397.00,0.0815
1396.00,0.0778
1395.00,0.0733
1394.00,0.0688
1393.00,0.0649
1392.00,0.0617
1391.00,0.0594
1390.00,0.0582
1389.00,0.0586
1388.00,0.0602
1387.00,0.0621
1386.00,0.0627
1385.00,0.0617
1384.00,0.0598
1383.00,0.0581
1382.00,0.0573
1381.00,0.0574
1380.00,0.0578
1379.00,0.0580
1378.00,0.0576
1377.00,0.0566
1376.00,0.0548
1375.00,0.0523
1374.00,0.0496
1373.00,0.0473
1372.00,0.0459
1371.00,0.0456
1370.00,0.0464
1369.00,0.0485
1368.00,0.0517
1367.00,0.0554
1366.00,0.0587
1365.00,0.0609
1364.00,0.0624
1363.00,0.0641
1362.00,0.0670
1361.00,0.0705
1360.00,0.0729
1359.00,0.0727
1358.00,0.0700
1357.00,0.0661
1356.00,0.0623
1355.00,0.0595
1354.00,0.0576
1353.00,0.0564
1352.00,0.0557
1351.00,0.0555
1350.00,0.0557
1349.00,0.0561
1348.00,0.0565
1347.00,0.0567
1346.00,0.0565
1345.00,0.0558
1344.00,0.0547
1343.00,0.0532
1342.00,0.0515
1341.00,0.0497
1340.00,0.0478
1339.00,0.0461
1338.00,0.0448
1337.00,0.0440
1336.00,0.0437
1335.00,0.0439
1334.00,0.0444
1333.00,0.0450
1332.00,0.0457
1331.00,0.0462
1330.00,0.0464
1329.00,0.0464
1328.00,0.0461
1327.00,0.0455
1326.00,0.0448
1325.00,0.0439
1324.00,0.0432
1323.00,0.0426
1322.00,0.0421
1321.00,0.0418
1320.00,0.0415
1319.00,0.0411
1318.00,0.0406
1317.00,0.0399
1316.00,0.0392
1315.00,0.0386
1314.00,0.0382
1313.00,0.0380
1312.00,0.0381
1311.00,0.0386
1310.00,0.0395
1309.00,0.0408
1308.00,0.0426
1307.00,0.0448
1306.00,0.0475
1305.00,0.0509
1304.00,0.0548
1303.00,0.0588
1302.00,0.0621
1301.00,0.0639
1300.00,0.0639
1299.00,0.0623
1298.00,0.0600
1297.00,0.0577
1296.00,0.0558
1295.00,0.0544
1294.00,0.0531
1293.00,0.0517
1292.00,0.0502
1291.00,0.0488
1290.00,0.0480
1289.00,0.0480
1288.00,0.0489
1287.00,0.0507
1286.00,0.0529
1285.00,0.0551
1284.00,0.0566
1283.00,0.0572
1282.00,0.0564
1281.00,0.0545
1280.00,0.0515
1279.00,0.0481
1278.00,0.0447
1277.00,0.0416
1276.00,0.0391
1275.00,0.0370
1274.00,0.0354
1273.00,0.0341
1272.00,0.0330
1271.00,0.0321
1270.00,0.0313
1269.00,0.0308
1268.00,0.0304
1267.00,0.0302
1266.00,0.0300
1265.00,0.0299
1264.00,0.0296
1263.00,0.0293
1262.00,0.0289
1261.00,0.0285
1260.00,0.0281
1259.00,0.0278
1258.00,0.0277
1257.00,0.0276
1256.00,0.0276
1255.00,0.0278
1254.00,0.0281
1253.00,0.0286
1252.00,0.0293
1251.00,0.0303
1250.00,0.0317
1249.00,0.0335
1248.00,0.0357
1247.00,0.0382
1246.00,0.0409
1245.00,0.0434
1244.00,0.0455
1243.00,0.0471
1242.00,0.0482
1241.00,0.0491
1240.00,0.0501
1239.00,0.0515
1238.00,0.0536
1237.00,0.0562
1236.00,0.0590
1235.00,0.0613
1234.00,0.0627
1233.00,0.0629
1232.00,0.0617
1231.00,0.0595
1230.00,0.0566
1229.00,0.0535
1228.00,0.0507
1227.00,0.0481
1226.00,0.0461
1225.00,0.0445
1224.00,0.0433
1223.00,0.0425
1222.00,0.0422
1221.00,0.0424
1220.00,0.0431
1219.00,0.0444
1218.00,0.0461
1217.00,0.0481
1216.00,0.0502
1215.00,0.0519
1214.00,0.0529
1213.00,0.0528
1212.00,0.0518
1211.00,0.0499
1210.00,0.0478
1209.00,0.0456
1208.00,0.0438
1207.00,0.0425
1206.00,0.0419
1205.00,0.0421
1204.00,0.0431
1203.00,0.0450
1202.00,0.0477
1201.00,0.0510
1200.00,0.0549
1199.00,0.0593
1198.00,0.0641
1197.00,0.0689
1196.00,0.0732
1195.00,0.0763
1194.00,0.0775
1193.00,0.0769
1192.00,0.0748
1191.00,0.0715
1190.00,0.0676
1189.00,0.0634
1188.00,0.0592
1187.00,0.0552
1186.00,0.0516
1185.00,0.0484
1184.00,0.0458
1183.00,0.0437
1182.00,0.0420
1181.00,0.0406
1180.00,0.0395
1179.00,0.0387
1178.00,0.0381
1177.00,0.0375
1176.00,0.0371
1175.00,0.0368
1174.00,0.0367
1173.00,0.0366
1172.00,0.0367
1171.00,0.0369
1170.00,0.0372
1169.00,0.0376
1168.00,0.0381
1167.00,0.0387
1166.00,0.0396
1165.00,0.0408
1164.00,0.0423
1163.00,0.0442
1162.00,0.0468
1161.00,0.0504
1160.00,0.0552
1159.00,0.0615
1158.00,0.0692
1157.00,0.0777
1156.00,0.0855
1155.00,0.0910
1154.00,0.0927
1153.00,0.0902
1152.00,0.0845
1151.00,0.0773
1150.00,0.0702
1149.00,0.0644
1148.00,0.0600
1147.00,0.0571
1146.00,0.0553
1145.00,0.0541
1144.00,0.0535
1143.00,0.0532
1142.00,0.0532
1141.00,0.0535
1140.00,0.0541
1139.00,0.0551
1138.00,0.0566
1137.00,0.0587
1136.00,0.0617
1135.00,0.0658
1134.00,0.0715
1133.00,0.0790
1132.00,0.0880
1131.00,0.0976
1130.00,0.1064
1129.00,0.1129
1128.00,0.1163
1127.00,0.1168
1126.00,0.1149
1125.00,0.1115
1124.00,0.1070
1123.00,0.1020
1122.00,0.0970
1121.00,0.0925
1120.00,0.0889
1119.00,0.0863
1118.00,0.0846
1117.00,0.0838
1116.00,0.0835
1115.00,0.0835
1114.00,0.0835
1113.00,0.0833
1112.00,0.0827
1111.00,0.0819
1110.00,0.0810
1109.00,0.0802
1108.00,0.0796
1107.00,0.0796
1106.00,0.0802
1105.00,0.0817
1104.00,0.0843
1103.00,0.0882
1102.00,0.0929
1101.00,0.0978
1100.00,0.1016
1099.00,0.1033
1098.00,0.1026
1097.00,0.0997
1096.00,0.0956
1095.00,0.0911
1094.00,0.0870
1093.00,0.0836
1092.00,0.0811
1091.00,0.0793
1090.00,0.0782
1089.00,0.0776
1088.00,0.0772
1087.00,0.0770
1086.00,0.0769
1085.00,0.0770
1084.00,0.0773
1083.00,0.0779
1082.00,0.0787
1081.00,0.0795
1080.00,0.0803
1079.00,0.0810
1078.00,0.0818
1077.00,0.0826
1076.00,0.0834
1075.00,0.0842
1074.00,0.0850
1073.00,0.0860
1072.00,0.0869
1071.00,0.0880
1070.00,0.0892
1069.00,0.0904
1068.00,0.0917
1067.00,0.0931
1066.00,0.0947
1065.00,0.0964
1064.00,0.0986
1063.00,0.1013
1062.00,0.1050
1061.00,0.1098
1060.00,0.1161
1059.00,0.1240
1058.00,0.1336
1057.00,0.1443
1056.00,0.1549
1055.00,0.1643
1054.00,0.1715
1053.00,0.1766
1052.00,0.1801
1051.00,0.1828
1050.00,0.1847
1049.00,0.1854
1048.00,0.1841
1047.00,0.1804
1046.00,0.1746
1045.00,0.1673
1044.00,0.1591
1043.00,0.1507
1042.00,0.1428
1041.00,0.1357
1040.00,0.1300
1039.00,0.1256
1038.00,0.1227
1037.00,0.1210
1036.00,0.1202
1035.00,0.1200
1034.00,0.1204
1033.00,0.1216
1032.00,0.1244
1031.00,0.1295
1030.00,0.1373
1029.00,0.1469
1028.00,0.1565
1027.00,0.1636
1026.00,0.1659
1025.00,0.1628
1024.00,0.1553
1023.00,0.1455
1022.00,0.1354
1021.00,0.1264
1020.00,0.1186
1019.00,0.1122
1018.00,0.1069
1017.00,0.1026
1016.00,0.0990
1015.00,0.0960
1014.00,0.0936
1013.00,0.0917
1012.00,0.0901
1011.00,0.0892
1010.00,0.0890
1009.00,0.0896
1008.00,0.0909
1007.00,0.0928
1006.00,0.0951
1005.00,0.0971
1004.00,0.0985
1003.00,0.0986
1002.00,0.0976
1001.00,0.0955
1000.00,0.0930
999.00,0.0903
998.00,0.0879
997.00,0.0856
996.00,0.0835
995.00,0.0816
994.00,0.0798
993.00,0.0779
992.00,0.0756
991.00,0.0730
990.00,0.0703
989.00,0.0676
988.00,0.0652
987.00,0.0630
986.00,0.0611
985.00,0.0594
984.00,0.0580
983.00,0.0567
982.00,0.0556
981.00,0.0546
980.00,0.0538
979.00,0.0532
978.00,0.0528
977.00,0.0524
976.00,0.0521
975.00,0.0517
974.00,0.0514
973.00,0.0510
972.00,0.0506
971.00,0.0503
970.00,0.0502
969.00,0.0501
968.00,0.0502
967.00,0.0504
966.00,0.0509
965.00,0.0516
964.00,0.0525
963.00,0.0535
962.00,0.0543
961.00,0.0547
960.00,0.0545
959.00,0.0541
958.00,0.0536
957.00,0.0534
956.00,0.0533
955.00,0.0533
954.00,0.0535
953.00,0.0538
952.00,0.0541
951.00,0.0547
950.00,0.0556
949.00,0.0565
948.00,0.0573
947.00,0.0577
946.00,0.0579
945.00,0.0580
944.00,0.0582
943.00,0.0585
942.00,0.0589
941.00,0.0593
940.00,0.0596
939.00,0.0596
938.00,0.0595
937.00,0.0591
936.00,0.0587
935.00,0.0585
934.00,0.0584
933.00,0.0584
932.00,0.0583
931.00,0.0578
930.00,0.0570
929.00,0.0562
928.00,0.0556
927.00,0.0553
926.00,0.0555
925.00,0.0561
924.00,0.0571
923.00,0.0582
922.00,0.0588
921.00,0.0586
920.00,0.0574
919.00,0.0554
918.00,0.0530
917.00,0.0506
916.00,0.0485
915.00,0.0468
914.00,0.0455
913.00,0.0445
912.00,0.0436
911.00,0.0430
910.00,0.0425
909.00,0.0422
908.00,0.0420
907.00,0.0419
906.00,0.0421
905.00,0.0427
904.00,0.0437
903.00,0.0452
902.00,0.0474
901.00,0.0497
900.00,0.0516
899.00,0.0525
898.00,0.0521
897.00,0.0506
896.00,0.0485
895.00,0.0468
894.00,0.0460
893.00,0.0465
892.00,0.0483
891.00,0.0506
890.00,0.0519
889.00,0.0512
888.00,0.0487
887.00,0.0454
886.00,0.0425
885.00,0.0405
884.00,0.0393
883.00,0.0387
882.00,0.0385
881.00,0.0387
880.00,0.0392
879.00,0.0405
878.00,0.0427
877.00,0.0460
876.00,0.0505
875.00,0.0560
874.00,0.0626
873.00,0.0698
872.00,0.0768
871.00,0.0825
870.00,0.0859
869.00,0.0860
868.00,0.0829
867.00,0.0780
866.00,0.0727
865.00,0.0677
864.00,0.0630
863.00,0.0586
862.00,0.0545
861.00,0.0509
860.00,0.0480
859.00,0.0463
858.00,0.0461
857.00,0.0474
856.00,0.0499
855.00,0.0531
854.00,0.0563
853.00,0.0593
852.00,0.0622
851.00,0.0653
850.00,0.0680
849.00,0.0693
848.00,0.0683
847.00,0.0654
846.00,0.0616
845.00,0.0577
844.00,0.0543
843.00,0.0516
842.00,0.0500
841.00,0.0493
840.00,0.0496
839.00,0.0513
838.00,0.0546
837.00,0.0590
836.00,0.0637
835.00,0.0678
834.00,0.0706
833.00,0.0716
832.00,0.0707
831.00,0.0680
830.00,0.0638
829.00,0.0586
828.00,0.0531
827.00,0.0484
826.00,0.0453
825.00,0.0447
824.00,0.0473
823.00,0.0543
822.00,0.0648
821.00,0.0757
820.00,0.0833
819.00,0.0871
818.00,0.0900
817.00,0.0943
816.00,0.0979
815.00,0.0961
814.00,0.0869
813.00,0.0735
812.00,0.0607
811.00,0.0512
810.00,0.0449
809.00,0.0408
808.00,0.0380
807.00,0.0360
806.00,0.0345
805.00,0.0333
804.00,0.0323
803.00,0.0316
802.00,0.0311
801.00,0.0306
800.00,0.0302
799.00,0.0298
798.00,0.0295
797.00,0.0292
796.00,0.0290
795.00,0.0288
794.00,0.0286
793.00,0.0284
792.00,0.0282
791.00,0.0280
790.00,0.0279
789.00,0.0278
788.00,0.0277
787.00,0.0276
786.00,0.0275
785.00,0.0274
784.00,0.0273
783.00,0.0273
782.00,0.0274
781.00,0.0275
780.00,0.0277
779.00,0.0282
778.00,0.0293
777.00,0.0310
776.00,0.0330
775.00,0.0348
774.00,0.0355
773.00,0.0347
772.00,0.0330
771.00,0.0312
770.00,0.0299
769.00,0.0291
768.00,0.0286
767.00,0.0284
766.00,0.0283
765.00,0.0284
764.00,0.0286
763.00,0.0291
762.00,0.0299
761.00,0.0306
760.00,0.0312
759.00,0.0315
758.00,0.0313
757.00,0.0308
756.00,0.0301
755.00,0.0294
754.00,0.0289
753.00,0.0286
752.00,0.0284
751.00,0.0283
750.00,0.0284
749.00,0.0285
748.00,0.0286
747.00,0.0287
746.00,0.0290
745.00,0.0293
744.00,0.0297
743.00,0.0304
742.00,0.0313
741.00,0.0326
740.00,0.0345
739.00,0.0373
738.00,0.0414
737.00,0.0464
736.00,0.0512
735.00,0.0545
734.00,0.0553
733.00,0.0539
732.00,0.0519
731.00,0.0506
730.00,0.0506
729.00,0.0511
728.00,0.0509
727.00,0.0493
726.00,0.0466
725.00,0.0433
724.00,0.0402
723.00,0.0380
722.00,0.0366
721.00,0.0361
720.00,0.0362
719.00,0.0371
718.00,0.0387
717.00,0.0406
716.00,0.0424
715.00,0.0436
714.00,0.0439
713.00,0.0434
712.00,0.0424
711.00,0.0413
710.00,0.0403
709.00,0.0394
708.00,0.0389
707.00,0.0387
706.00,0.0388
705.00,0.0392
704.00,0.0398
703.00,0.0407
702.00,0.0417
701.00,0.0428
700.00,0.0438
699.00,0.0447
698.00,0.0453
697.00,0.0452
696.00,0.0445
695.00,0.0435
694.00,0.0425
693.00,0.0420
692.00,0.0422
691.00,0.0434
690.00,0.0452
689.00,0.0470
688.00,0.0480
687.00,0.0478
686.00,0.0468
685.00,0.0454
684.00,0.0441
683.00,0.0434
682.00,0.0433
681.00,0.0437
680.00,0.0444
679.00,0.0454
678.00,0.0468
677.00,0.0486
676.00,0.0506
675.00,0.0529
674.00,0.0553
673.00,0.0575
672.00,0.0590
671.00,0.0600
670.00,0.0605
669.00,0.0602
668.00,0.0593
667.00,0.0586
666.00,0.0583
665.00,0.0584
664.00,0.0589
663.00,0.0597
662.00,0.0603
661.00,0.0603
660.00,0.0594
659.00,0.0578
658.00,0.0559
657.00,0.0540
656.00,0.0523
655.00,0.0510
654.00,0.0500
653.00,0.0493
652.00,0.0487
651.00,0.0483
650.00,0.0480
649.00,0.0477
648.00,0.0474
647.00,0.0472
646.00,0.0471
645.00,0.0470
644.00,0.0468
643.00,0.0467
642.00,0.0467
641.00,0.0467
640.00,0.0467
639.00,0.0467
638.00,0.0468
637.00,0.0470
636.00,0.0470
635.00,0.0472
634.00,0.0475
633.00,0.0477
632.00,0.0479
631.00,0.0482
630.00,0.0486
629.00,0.0491
628.00,0.0497
627.00,0.0504
626.00,0.0515
625.00,0.0528
624.00,0.0541
623.00,0.0557
622.00,0.0574
621.00,0.0589
620.00,0.0598
619.00,0.0600
618.00,0.0595
617.00,0.0583
616.00,0.0566
615.00,0.0549
614.00,0.0535
613.00,0.0525
612.00,0.0520
611.00,0.0521
610.00,0.0531
609.00,0.0549
608.00,0.0575
607.00,0.0608
606.00,0.0645
605.00,0.0681
604.00,0.0709
603.00,0.0729
602.00,0.0741
601.00,0.0746
600.00,0.0746
599.00,0.0743
598.00,0.0741
597.00,0.0738
596.00,0.0734
595.00,0.0730
594.00,0.0727
593.00,0.0723
592.00,0.0717
591.00,0.0709
590.00,0.0702
589.00,0.0696
588.00,0.0689
587.00,0.0683
586.00,0.0681
585.00,0.0681
584.00,0.0682
583.00,0.0686
582.00,0.0693
581.00,0.0703
580.00,0.0717
579.00,0.0739
578.00,0.0765
577.00,0.0788
576.00,0.0796
575.00,0.0786
574.00,0.0765
573.00,0.0738
572.00,0.0711
571.00,0.0690
570.00,0.0675
569.00,0.0663
568.00,0.0656
567.00,0.0656
566.00,0.0666
565.00,0.0681
564.00,0.0699
563.00,0.0721
562.00,0.0746
561.00,0.0770
560.00,0.0784
559.00,0.0787
558.00,0.0778
557.00,0.0761
556.00,0.0741
555.00,0.0722
554.00,0.0711
553.00,0.0706
552.00,0.0708
551.00,0.0717
550.00,0.0735
549.00,0.0759
548.00,0.0785
547.00,0.0807
546.00,0.0822
545.00,0.0824
544.00,0.0812
543.00,0.0792
542.00,0.0771
541.00,0.0752
540.00,0.0735
539.00,0.0722
538.00,0.0716
537.00,0.0714
536.00,0.0716
535.00,0.0726
534.00,0.0744
533.00,0.0765
532.00,0.0783
531.00,0.0792
530.00,0.0790
529.00,0.0777
528.00,0.0755
527.00,0.0730
526.00,0.0708
525.00,0.0689
524.00,0.0673
523.00,0.0660
522.00,0.0650
521.00,0.0642
520.00,0.0632
519.00,0.0623
518.00,0.0617
517.00,0.0613
516.00,0.0608
515.00,0.0606
514.00,0.0607
513.00,0.0608
512.00,0.0608
511.00,0.0610
510.00,0.0616
509.00,0.0624
508.00,0.0629
507.00,0.0633
506.00,0.0637
505.00,0.0637
504.00,0.0630
503.00,0.0621
502.00,0.0614
501.00,0.0608
500.00,0.0603
499.00,0.0599
498.00,0.0599
497.00,0.0601
496.00,0.0603
495.00,0.0608
494.00,0.0617
493.00,0.0624
492.00,0.0627
491.00,0.0626
490.00,0.0623
489.00,0.0618
488.00,0.0611
487.00,0.0605
486.00,0.0602
485.00,0.0599
484.00,0.0594
483.00,0.0590
482.00,0.0591
481.00,0.0591
480.00,0.0589
479.00,0.0588
478.00,0.0588
477.00,0.0587
476.00,0.0583
475.00,0.0579
474.00,0.0579
473.00,0.0580
472.00,0.0578
471.00,0.0577
470.00,0.0579
469.00,0.0579
468.00,0.0574
467.00,0.0570
466.00,0.0571
465.00,0.0570
464.00,0.0565
463.00,0.0560
462.00,0.0559
461.00,0.0560
460.00,0.0559
459.00,0.0558
458.00,0.0561
457.00,0.0563
456.00,0.0559
455.00,0.0553
454.00,0.0550
453.00,0.0547
452.00,0.0541
451.00,0.0536
450.00,0.0536
449.00,0.0535
448.00,0.0529
447.00,0.0524
446.00,0.0523
445.00,0.0523
444.00,0.0521
443.00,0.0522
442.00,0.0527
441.00,0.0532
440.00,0.0532
439.00,0.0530
438.00,0.0529
437.00,0.0527
436.00,0.0519
435.00,0.0513
434.00,0.0513
433.00,0.0515
432.00,0.0511
431.00,0.0507
430.00,0.0506
429.00,0.0504
428.00,0.0497
427.00,0.0493
426.00,0.0494
425.00,0.0493
424.00,0.0485
423.00,0.0479
422.00,0.0482
421.00,0.0483
420.00,0.0476
419.00,0.0470
418.00,0.0477
417.00,0.0484
416.00,0.0485
415.00,0.0487
414.00,0.0499
413.00,0.0511
412.00,0.0519
411.00,0.0528
410.00,0.0542
409.00,0.0543
408.00,0.0524
407.00,0.0501
406.00,0.0495
405.00,0.0494
404.00,0.0486
403.00,0.0478
402.00,0.0480
401.00,0.0482
400.00,0.0472
