Created as New Dataset,Sample 623 By YargerLab Date Monday, March 09 2026
cm-1,A
4000.00,0.0085
3999.00,0.0085
3998.00,0.0085
3997.00,0.0085
3996.00,0.0085
3995.00,0.0085
3994.00,0.0085
3993.00,0.0085
3992.00,0.0085
3991.00,0.0085
3990.00,0.0085
3989.00,0.0085
3988.00,0.0085
3987.00,0.0085
3986.00,0.0085
3985.00,0.0085
3984.00,0.0085
3983.00,0.0085
3982.00,0.0085
3981.00,0.0085
3980.00,0.0085
3979.00,0.0085
3978.00,0.0085
3977.00,0.0085
3976.00,0.0085
3975.00,0.0085
3974.00,0.0085
3973.00,0.0085
3972.00,0.0085
3971.00,0.0085
3970.00,0.0085
3969.00,0.0085
3968.00,0.0085
3967.00,0.0085
3966.00,0.0085
3965.00,0.0085
3964.00,0.0085
3963.00,0.0085
3962.00,0.0085
3961.00,0.0085
3960.00,0.0085
3959.00,0.0085
3958.00,0.0085
3957.00,0.0085
3956.00,0.0085
3955.00,0.0085
3954.00,0.0085
3953.00,0.0085
3952.00,0.0085
3951.00,0.0085
3950.00,0.0086
3949.00,0.0086
3948.00,0.0085
3947.00,0.0085
3946.00,0.0085
3945.00,0.0085
3944.00,0.0085
3943.00,0.0085
3942.00,0.0085
3941.00,0.0085
3940.00,0.0085
3939.00,0.0085
3938.00,0.0085
3937.00,0.0085
3936.00,0.0085
3935.00,0.0085
3934.00,0.0086
3933.00,0.0086
3932.00,0.0086
3931.00,0.0086
3930.00,0.0086
3929.00,0.0086
3928.00,0.0086
3927.00,0.0085
3926.00,0.0085
3925.00,0.0085
3924.00,0.0085
3923.00,0.0085
3922.00,0.0085
3921.00,0.0085
3920.00,0.0086
3919.00,0.0086
3918.00,0.0086
3917.00,0.0086
3916.00,0.0086
3915.00,0.0086
3914.00,0.0086
3913.00,0.0086
3912.00,0.0086
3911.00,0.0086
3910.00,0.0086
3909.00,0.0086
3908.00,0.0086
3907.00,0.0085
3906.00,0.0085
3905.00,0.0085
3904.00,0.0086
3903.00,0.0086
3902.00,0.0086
3901.00,0.0086
3900.00,0.0085
3899.00,0.0085
3898.00,0.0085
3897.00,0.0085
3896.00,0.0085
3895.00,0.0085
3894.00,0.0085
3893.00,0.0085
3892.00,0.0085
3891.00,0.0085
3890.00,0.0085
3889.00,0.0085
3888.00,0.0085
3887.00,0.0085
3886.00,0.0085
3885.00,0.0085
3884.00,0.0086
3883.00,0.0085
3882.00,0.0085
3881.00,0.0085
3880.00,0.0085
3879.00,0.0085
3878.00,0.0085
3877.00,0.0085
3876.00,0.0085
3875.00,0.0085
3874.00,0.0085
3873.00,0.0085
3872.00,0.0085
3871.00,0.0085
3870.00,0.0085
3869.00,0.0085
3868.00,0.0085
3867.00,0.0085
3866.00,0.0085
3865.00,0.0085
3864.00,0.0085
3863.00,0.0085
3862.00,0.0085
3861.00,0.0085
3860.00,0.0085
3859.00,0.0085
3858.00,0.0085
3857.00,0.0085
3856.00,0.0085
3855.00,0.0085
3854.00,0.0084
3853.00,0.0084
3852.00,0.0084
3851.00,0.0084
3850.00,0.0084
3849.00,0.0084
3848.00,0.0085
3847.00,0.0085
3846.00,0.0085
3845.00,0.0085
3844.00,0.0085
3843.00,0.0085
3842.00,0.0085
3841.00,0.0085
3840.00,0.0085
3839.00,0.0085
3838.00,0.0085
3837.00,0.0085
3836.00,0.0085
3835.00,0.0085
3834.00,0.0085
3833.00,0.0085
3832.00,0.0085
3831.00,0.0085
3830.00,0.0085
3829.00,0.0085
3828.00,0.0085
3827.00,0.0085
3826.00,0.0085
3825.00,0.0085
3824.00,0.0085
3823.00,0.0085
3822.00,0.0085
3821.00,0.0085
3820.00,0.0085
3819.00,0.0085
3818.00,0.0085
3817.00,0.0085
3816.00,0.0085
3815.00,0.0085
3814.00,0.0085
3813.00,0.0085
3812.00,0.0085
3811.00,0.0085
3810.00,0.0085
3809.00,0.0085
3808.00,0.0085
3807.00,0.0085
3806.00,0.0085
3805.00,0.0085
3804.00,0.0085
3803.00,0.0084
3802.00,0.0084
3801.00,0.0084
3800.00,0.0085
3799.00,0.0085
3798.00,0.0085
3797.00,0.0085
3796.00,0.0085
3795.00,0.0085
3794.00,0.0085
3793.00,0.0085
3792.00,0.0085
3791.00,0.0085
3790.00,0.0085
3789.00,0.0085
3788.00,0.0085
3787.00,0.0085
3786.00,0.0085
3785.00,0.0085
3784.00,0.0085
3783.00,0.0085
3782.00,0.0085
3781.00,0.0085
3780.00,0.0085
3779.00,0.0085
3778.00,0.0085
3777.00,0.0085
3776.00,0.0085
3775.00,0.0085
3774.00,0.0085
3773.00,0.0085
3772.00,0.0085
3771.00,0.0085
3770.00,0.0085
3769.00,0.0085
3768.00,0.0085
3767.00,0.0085
3766.00,0.0085
3765.00,0.0085
3764.00,0.0085
3763.00,0.0085
3762.00,0.0085
3761.00,0.0085
3760.00,0.0085
3759.00,0.0085
3758.00,0.0085
3757.00,0.0085
3756.00,0.0085
3755.00,0.0085
3754.00,0.0085
3753.00,0.0085
3752.00,0.0085
3751.00,0.0085
3750.00,0.0085
3749.00,0.0085
3748.00,0.0085
3747.00,0.0084
3746.00,0.0084
3745.00,0.0084
3744.00,0.0084
3743.00,0.0085
3742.00,0.0085
3741.00,0.0085
3740.00,0.0085
3739.00,0.0085
3738.00,0.0085
3737.00,0.0085
3736.00,0.0084
3735.00,0.0084
3734.00,0.0084
3733.00,0.0083
3732.00,0.0083
3731.00,0.0084
3730.00,0.0084
3729.00,0.0084
3728.00,0.0084
3727.00,0.0084
3726.00,0.0084
3725.00,0.0084
3724.00,0.0084
3723.00,0.0084
3722.00,0.0085
3721.00,0.0085
3720.00,0.0085
3719.00,0.0085
3718.00,0.0085
3717.00,0.0085
3716.00,0.0085
3715.00,0.0084
3714.00,0.0084
3713.00,0.0084
3712.00,0.0084
3711.00,0.0084
3710.00,0.0084
3709.00,0.0083
3708.00,0.0083
3707.00,0.0083
3706.00,0.0083
3705.00,0.0083
3704.00,0.0083
3703.00,0.0083
3702.00,0.0083
3701.00,0.0083
3700.00,0.0083
3699.00,0.0083
3698.00,0.0083
3697.00,0.0083
3696.00,0.0083
3695.00,0.0083
3694.00,0.0083
3693.00,0.0083
3692.00,0.0083
3691.00,0.0083
3690.00,0.0083
3689.00,0.0083
3688.00,0.0083
3687.00,0.0083
3686.00,0.0083
3685.00,0.0083
3684.00,0.0084
3683.00,0.0084
3682.00,0.0084
3681.00,0.0084
3680.00,0.0084
3679.00,0.0085
3678.00,0.0085
3677.00,0.0085
3676.00,0.0085
3675.00,0.0085
3674.00,0.0086
3673.00,0.0086
3672.00,0.0086
3671.00,0.0086
3670.00,0.0086
3669.00,0.0086
3668.00,0.0086
3667.00,0.0086
3666.00,0.0086
3665.00,0.0086
3664.00,0.0086
3663.00,0.0086
3662.00,0.0086
3661.00,0.0086
3660.00,0.0087
3659.00,0.0087
3658.00,0.0087
3657.00,0.0087
3656.00,0.0087
3655.00,0.0087
3654.00,0.0087
3653.00,0.0086
3652.00,0.0086
3651.00,0.0086
3650.00,0.0086
3649.00,0.0087
3648.00,0.0087
3647.00,0.0087
3646.00,0.0087
3645.00,0.0087
3644.00,0.0087
3643.00,0.0087
3642.00,0.0087
3641.00,0.0087
3640.00,0.0087
3639.00,0.0087
3638.00,0.0087
3637.00,0.0087
3636.00,0.0086
3635.00,0.0086
3634.00,0.0086
3633.00,0.0086
3632.00,0.0086
3631.00,0.0086
3630.00,0.0087
3629.00,0.0087
3628.00,0.0087
3627.00,0.0087
3626.00,0.0087
3625.00,0.0087
3624.00,0.0087
3623.00,0.0087
3622.00,0.0087
3621.00,0.0087
3620.00,0.0087
3619.00,0.0087
3618.00,0.0087
3617.00,0.0088
3616.00,0.0088
3615.00,0.0088
3614.00,0.0088
3613.00,0.0089
3612.00,0.0089
3611.00,0.0089
3610.00,0.0090
3609.00,0.0090
3608.00,0.0090
3607.00,0.0090
3606.00,0.0089
3605.00,0.0089
3604.00,0.0090
3603.00,0.0090
3602.00,0.0090
3601.00,0.0090
3600.00,0.0090
3599.00,0.0090
3598.00,0.0090
3597.00,0.0090
3596.00,0.0090
3595.00,0.0090
3594.00,0.0091
3593.00,0.0091
3592.00,0.0091
3591.00,0.0091
3590.00,0.0092
3589.00,0.0092
3588.00,0.0092
3587.00,0.0092
3586.00,0.0092
3585.00,0.0092
3584.00,0.0092
3583.00,0.0092
3582.00,0.0093
3581.00,0.0093
3580.00,0.0093
3579.00,0.0093
3578.00,0.0093
3577.00,0.0094
3576.00,0.0094
3575.00,0.0094
3574.00,0.0094
3573.00,0.0094
3572.00,0.0095
3571.00,0.0095
3570.00,0.0095
3569.00,0.0096
3568.00,0.0096
3567.00,0.0096
3566.00,0.0097
3565.00,0.0097
3564.00,0.0097
3563.00,0.0097
3562.00,0.0098
3561.00,0.0098
3560.00,0.0098
3559.00,0.0098
3558.00,0.0098
3557.00,0.0099
3556.00,0.0099
3555.00,0.0099
3554.00,0.0100
3553.00,0.0100
3552.00,0.0101
3551.00,0.0101
3550.00,0.0102
3549.00,0.0102
3548.00,0.0103
3547.00,0.0103
3546.00,0.0103
3545.00,0.0104
3544.00,0.0104
3543.00,0.0104
3542.00,0.0105
3541.00,0.0105
3540.00,0.0106
3539.00,0.0106
3538.00,0.0107
3537.00,0.0107
3536.00,0.0108
3535.00,0.0108
3534.00,0.0109
3533.00,0.0109
3532.00,0.0110
3531.00,0.0111
3530.00,0.0111
3529.00,0.0112
3528.00,0.0113
3527.00,0.0113
3526.00,0.0114
3525.00,0.0115
3524.00,0.0115
3523.00,0.0116
3522.00,0.0117
3521.00,0.0117
3520.00,0.0118
3519.00,0.0119
3518.00,0.0120
3517.00,0.0120
3516.00,0.0121
3515.00,0.0122
3514.00,0.0123
3513.00,0.0124
3512.00,0.0125
3511.00,0.0125
3510.00,0.0126
3509.00,0.0127
3508.00,0.0128
3507.00,0.0129
3506.00,0.0130
3505.00,0.0131
3504.00,0.0132
3503.00,0.0133
3502.00,0.0134
3501.00,0.0135
3500.00,0.0136
3499.00,0.0137
3498.00,0.0138
3497.00,0.0139
3496.00,0.0140
3495.00,0.0141
3494.00,0.0142
3493.00,0.0143
3492.00,0.0144
3491.00,0.0145
3490.00,0.0146
3489.00,0.0147
3488.00,0.0148
3487.00,0.0149
3486.00,0.0150
3485.00,0.0150
3484.00,0.0151
3483.00,0.0152
3482.00,0.0153
3481.00,0.0154
3480.00,0.0155
3479.00,0.0156
3478.00,0.0157
3477.00,0.0157
3476.00,0.0158
3475.00,0.0159
3474.00,0.0160
3473.00,0.0160
3472.00,0.0161
3471.00,0.0162
3470.00,0.0163
3469.00,0.0163
3468.00,0.0164
3467.00,0.0165
3466.00,0.0165
3465.00,0.0166
3464.00,0.0166
3463.00,0.0167
3462.00,0.0167
3461.00,0.0168
3460.00,0.0168
3459.00,0.0168
3458.00,0.0169
3457.00,0.0169
3456.00,0.0169
3455.00,0.0169
3454.00,0.0169
3453.00,0.0170
3452.00,0.0170
3451.00,0.0170
3450.00,0.0171
3449.00,0.0171
3448.00,0.0171
3447.00,0.0171
3446.00,0.0172
3445.00,0.0172
3444.00,0.0172
3443.00,0.0172
3442.00,0.0172
3441.00,0.0173
3440.00,0.0173
3439.00,0.0174
3438.00,0.0174
3437.00,0.0174
3436.00,0.0175
3435.00,0.0175
3434.00,0.0175
3433.00,0.0176
3432.00,0.0176
3431.00,0.0176
3430.00,0.0177
3429.00,0.0177
3428.00,0.0177
3427.00,0.0178
3426.00,0.0178
3425.00,0.0179
3424.00,0.0179
3423.00,0.0180
3422.00,0.0180
3421.00,0.0181
3420.00,0.0181
3419.00,0.0182
3418.00,0.0182
3417.00,0.0182
3416.00,0.0183
3415.00,0.0183
3414.00,0.0184
3413.00,0.0184
3412.00,0.0184
3411.00,0.0185
3410.00,0.0185
3409.00,0.0185
3408.00,0.0186
3407.00,0.0186
3406.00,0.0186
3405.00,0.0186
3404.00,0.0186
3403.00,0.0186
3402.00,0.0185
3401.00,0.0185
3400.00,0.0185
3399.00,0.0184
3398.00,0.0183
3397.00,0.0183
3396.00,0.0182
3395.00,0.0182
3394.00,0.0181
3393.00,0.0181
3392.00,0.0180
3391.00,0.0179
3390.00,0.0178
3389.00,0.0178
3388.00,0.0177
3387.00,0.0176
3386.00,0.0175
3385.00,0.0174
3384.00,0.0173
3383.00,0.0172
3382.00,0.0172
3381.00,0.0171
3380.00,0.0170
3379.00,0.0169
3378.00,0.0168
3377.00,0.0167
3376.00,0.0166
3375.00,0.0166
3374.00,0.0165
3373.00,0.0164
3372.00,0.0163
3371.00,0.0162
3370.00,0.0162
3369.00,0.0161
3368.00,0.0160
3367.00,0.0160
3366.00,0.0159
3365.00,0.0158
3364.00,0.0157
3363.00,0.0156
3362.00,0.0155
3361.00,0.0155
3360.00,0.0154
3359.00,0.0153
3358.00,0.0153
3357.00,0.0152
3356.00,0.0152
3355.00,0.0151
3354.00,0.0151
3353.00,0.0150
3352.00,0.0150
3351.00,0.0149
3350.00,0.0148
3349.00,0.0148
3348.00,0.0147
3347.00,0.0146
3346.00,0.0146
3345.00,0.0146
3344.00,0.0145
3343.00,0.0145
3342.00,0.0144
3341.00,0.0144
3340.00,0.0144
3339.00,0.0143
3338.00,0.0143
3337.00,0.0143
3336.00,0.0142
3335.00,0.0142
3334.00,0.0142
3333.00,0.0141
3332.00,0.0141
3331.00,0.0141
3330.00,0.0140
3329.00,0.0140
3328.00,0.0140
3327.00,0.0140
3326.00,0.0140
3325.00,0.0140
3324.00,0.0139
3323.00,0.0139
3322.00,0.0139
3321.00,0.0139
3320.00,0.0138
3319.00,0.0138
3318.00,0.0138
3317.00,0.0138
3316.00,0.0138
3315.00,0.0138
3314.00,0.0138
3313.00,0.0138
3312.00,0.0138
3311.00,0.0138
3310.00,0.0138
3309.00,0.0138
3308.00,0.0138
3307.00,0.0139
3306.00,0.0139
3305.00,0.0139
3304.00,0.0139
3303.00,0.0139
3302.00,0.0139
3301.00,0.0138
3300.00,0.0138
3299.00,0.0138
3298.00,0.0138
3297.00,0.0139
3296.00,0.0139
3295.00,0.0139
3294.00,0.0140
3293.00,0.0140
3292.00,0.0140
3291.00,0.0140
3290.00,0.0140
3289.00,0.0140
3288.00,0.0140
3287.00,0.0140
3286.00,0.0140
3285.00,0.0141
3284.00,0.0141
3283.00,0.0141
3282.00,0.0142
3281.00,0.0142
3280.00,0.0142
3279.00,0.0142
3278.00,0.0143
3277.00,0.0143
3276.00,0.0143
3275.00,0.0144
3274.00,0.0144
3273.00,0.0144
3272.00,0.0145
3271.00,0.0145
3270.00,0.0145
3269.00,0.0146
3268.00,0.0146
3267.00,0.0146
3266.00,0.0146
3265.00,0.0146
3264.00,0.0147
3263.00,0.0147
3262.00,0.0148
3261.00,0.0148
3260.00,0.0148
3259.00,0.0149
3258.00,0.0149
3257.00,0.0149
3256.00,0.0149
3255.00,0.0150
3254.00,0.0150
3253.00,0.0151
3252.00,0.0151
3251.00,0.0151
3250.00,0.0152
3249.00,0.0152
3248.00,0.0152
3247.00,0.0153
3246.00,0.0153
3245.00,0.0153
3244.00,0.0153
3243.00,0.0153
3242.00,0.0153
3241.00,0.0154
3240.00,0.0154
3239.00,0.0154
3238.00,0.0154
3237.00,0.0154
3236.00,0.0154
3235.00,0.0154
3234.00,0.0154
3233.00,0.0154
3232.00,0.0154
3231.00,0.0154
3230.00,0.0154
3229.00,0.0154
3228.00,0.0154
3227.00,0.0154
3226.00,0.0154
3225.00,0.0154
3224.00,0.0154
3223.00,0.0154
3222.00,0.0154
3221.00,0.0154
3220.00,0.0153
3219.00,0.0153
3218.00,0.0153
3217.00,0.0152
3216.00,0.0152
3215.00,0.0152
3214.00,0.0152
3213.00,0.0152
3212.00,0.0151
3211.00,0.0151
3210.00,0.0150
3209.00,0.0150
3208.00,0.0150
3207.00,0.0149
3206.00,0.0149
3205.00,0.0149
3204.00,0.0148
3203.00,0.0148
3202.00,0.0147
3201.00,0.0147
3200.00,0.0146
3199.00,0.0146
3198.00,0.0145
3197.00,0.0145
3196.00,0.0144
3195.00,0.0144
3194.00,0.0143
3193.00,0.0143
3192.00,0.0143
3191.00,0.0142
3190.00,0.0142
3189.00,0.0141
3188.00,0.0140
3187.00,0.0140
3186.00,0.0139
3185.00,0.0139
3184.00,0.0138
3183.00,0.0138
3182.00,0.0138
3181.00,0.0137
3180.00,0.0136
3179.00,0.0136
3178.00,0.0135
3177.00,0.0135
3176.00,0.0134
3175.00,0.0134
3174.00,0.0133
3173.00,0.0133
3172.00,0.0133
3171.00,0.0132
3170.00,0.0132
3169.00,0.0131
3168.00,0.0131
3167.00,0.0130
3166.00,0.0129
3165.00,0.0129
3164.00,0.0128
3163.00,0.0128
3162.00,0.0127
3161.00,0.0127
3160.00,0.0127
3159.00,0.0126
3158.00,0.0126
3157.00,0.0125
3156.00,0.0125
3155.00,0.0124
3154.00,0.0124
3153.00,0.0123
3152.00,0.0123
3151.00,0.0122
3150.00,0.0122
3149.00,0.0121
3148.00,0.0121
3147.00,0.0120
3146.00,0.0120
3145.00,0.0120
3144.00,0.0120
3143.00,0.0119
3142.00,0.0119
3141.00,0.0118
3140.00,0.0118
3139.00,0.0117
3138.00,0.0117
3137.00,0.0116
3136.00,0.0116
3135.00,0.0116
3134.00,0.0115
3133.00,0.0115
3132.00,0.0115
3131.00,0.0114
3130.00,0.0114
3129.00,0.0114
3128.00,0.0114
3127.00,0.0113
3126.00,0.0113
3125.00,0.0113
3124.00,0.0113
3123.00,0.0113
3122.00,0.0112
3121.00,0.0112
3120.00,0.0112
3119.00,0.0111
3118.00,0.0111
3117.00,0.0111
3116.00,0.0111
3115.00,0.0110
3114.00,0.0110
3113.00,0.0109
3112.00,0.0109
3111.00,0.0109
3110.00,0.0109
3109.00,0.0108
3108.00,0.0108
3107.00,0.0108
3106.00,0.0107
3105.00,0.0107
3104.00,0.0107
3103.00,0.0106
3102.00,0.0106
3101.00,0.0106
3100.00,0.0106
3099.00,0.0105
3098.00,0.0105
3097.00,0.0105
3096.00,0.0105
3095.00,0.0105
3094.00,0.0105
3093.00,0.0105
3092.00,0.0105
3091.00,0.0105
3090.00,0.0105
3089.00,0.0106
3088.00,0.0106
3087.00,0.0106
3086.00,0.0106
3085.00,0.0106
3084.00,0.0106
3083.00,0.0106
3082.00,0.0106
3081.00,0.0105
3080.00,0.0105
3079.00,0.0105
3078.00,0.0105
3077.00,0.0104
3076.00,0.0104
3075.00,0.0104
3074.00,0.0104
3073.00,0.0104
3072.00,0.0104
3071.00,0.0104
3070.00,0.0104
3069.00,0.0104
3068.00,0.0104
3067.00,0.0104
3066.00,0.0103
3065.00,0.0103
3064.00,0.0103
3063.00,0.0103
3062.00,0.0103
3061.00,0.0103
3060.00,0.0103
3059.00,0.0104
3058.00,0.0104
3057.00,0.0104
3056.00,0.0104
3055.00,0.0105
3054.00,0.0105
3053.00,0.0105
3052.00,0.0104
3051.00,0.0104
3050.00,0.0104
3049.00,0.0104
3048.00,0.0104
3047.00,0.0104
3046.00,0.0104
3045.00,0.0104
3044.00,0.0104
3043.00,0.0104
3042.00,0.0104
3041.00,0.0104
3040.00,0.0104
3039.00,0.0105
3038.00,0.0105
3037.00,0.0105
3036.00,0.0106
3035.00,0.0106
3034.00,0.0107
3033.00,0.0107
3032.00,0.0108
3031.00,0.0108
3030.00,0.0108
3029.00,0.0107
3028.00,0.0107
3027.00,0.0107
3026.00,0.0106
3025.00,0.0106
3024.00,0.0106
3023.00,0.0106
3022.00,0.0106
3021.00,0.0106
3020.00,0.0106
3019.00,0.0106
3018.00,0.0106
3017.00,0.0106
3016.00,0.0107
3015.00,0.0107
3014.00,0.0108
3013.00,0.0109
3012.00,0.0110
3011.00,0.0111
3010.00,0.0112
3009.00,0.0113
3008.00,0.0114
3007.00,0.0116
3006.00,0.0118
3005.00,0.0120
3004.00,0.0122
3003.00,0.0125
3002.00,0.0127
3001.00,0.0130
3000.00,0.0132
2999.00,0.0135
2998.00,0.0139
2997.00,0.0142
2996.00,0.0146
2995.00,0.0149
2994.00,0.0153
2993.00,0.0156
2992.00,0.0159
2991.00,0.0162
2990.00,0.0164
2989.00,0.0167
2988.00,0.0170
2987.00,0.0173
2986.00,0.0176
2985.00,0.0181
2984.00,0.0186
2983.00,0.0192
2982.00,0.0197
2981.00,0.0202
2980.00,0.0206
2979.00,0.0208
2978.00,0.0209
2977.00,0.0209
2976.00,0.0210
2975.00,0.0210
2974.00,0.0213
2973.00,0.0216
2972.00,0.0221
2971.00,0.0225
2970.00,0.0228
2969.00,0.0230
2968.00,0.0231
2967.00,0.0231
2966.00,0.0232
2965.00,0.0234
2964.00,0.0236
2963.00,0.0238
2962.00,0.0241
2961.00,0.0243
2960.00,0.0245
2959.00,0.0245
2958.00,0.0245
2957.00,0.0243
2956.00,0.0241
2955.00,0.0238
2954.00,0.0234
2953.00,0.0231
2952.00,0.0229
2951.00,0.0227
2950.00,0.0226
2949.00,0.0226
2948.00,0.0227
2947.00,0.0228
2946.00,0.0231
2945.00,0.0234
2944.00,0.0237
2943.00,0.0241
2942.00,0.0246
2941.00,0.0251
2940.00,0.0256
2939.00,0.0262
2938.00,0.0269
2937.00,0.0276
2936.00,0.0284
2935.00,0.0292
2934.00,0.0301
2933.00,0.0310
2932.00,0.0320
2931.00,0.0329
2930.00,0.0337
2929.00,0.0344
2928.00,0.0349
2927.00,0.0352
2926.00,0.0354
2925.00,0.0354
2924.00,0.0352
2923.00,0.0349
2922.00,0.0345
2921.00,0.0341
2920.00,0.0337
2919.00,0.0332
2918.00,0.0328
2917.00,0.0324
2916.00,0.0320
2915.00,0.0316
2914.00,0.0313
2913.00,0.0311
2912.00,0.0308
2911.00,0.0306
2910.00,0.0303
2909.00,0.0302
2908.00,0.0300
2907.00,0.0298
2906.00,0.0296
2905.00,0.0295
2904.00,0.0293
2903.00,0.0291
2902.00,0.0289
2901.00,0.0287
2900.00,0.0285
2899.00,0.0284
2898.00,0.0282
2897.00,0.0280
2896.00,0.0278
2895.00,0.0277
2894.00,0.0275
2893.00,0.0273
2892.00,0.0272
2891.00,0.0270
2890.00,0.0269
2889.00,0.0268
2888.00,0.0266
2887.00,0.0265
2886.00,0.0263
2885.00,0.0262
2884.00,0.0260
2883.00,0.0259
2882.00,0.0258
2881.00,0.0257
2880.00,0.0257
2879.00,0.0257
2878.00,0.0258
2877.00,0.0259
2876.00,0.0260
2875.00,0.0262
2874.00,0.0263
2873.00,0.0264
2872.00,0.0263
2871.00,0.0262
2870.00,0.0260
2869.00,0.0257
2868.00,0.0255
2867.00,0.0253
2866.00,0.0251
2865.00,0.0251
2864.00,0.0251
2863.00,0.0253
2862.00,0.0257
2861.00,0.0261
2860.00,0.0266
2859.00,0.0271
2858.00,0.0276
2857.00,0.0279
2856.00,0.0281
2855.00,0.0282
2854.00,0.0282
2853.00,0.0281
2852.00,0.0279
2851.00,0.0276
2850.00,0.0272
2849.00,0.0268
2848.00,0.0263
2847.00,0.0258
2846.00,0.0254
2845.00,0.0250
2844.00,0.0246
2843.00,0.0243
2842.00,0.0241
2841.00,0.0239
2840.00,0.0237
2839.00,0.0235
2838.00,0.0234
2837.00,0.0233
2836.00,0.0231
2835.00,0.0230
2834.00,0.0229
2833.00,0.0227
2832.00,0.0225
2831.00,0.0223
2830.00,0.0221
2829.00,0.0219
2828.00,0.0216
2827.00,0.0214
2826.00,0.0212
2825.00,0.0210
2824.00,0.0208
2823.00,0.0206
2822.00,0.0204
2821.00,0.0203
2820.00,0.0201
2819.00,0.0200
2818.00,0.0198
2817.00,0.0197
2816.00,0.0195
2815.00,0.0193
2814.00,0.0191
2813.00,0.0189
2812.00,0.0187
2811.00,0.0185
2810.00,0.0182
2809.00,0.0180
2808.00,0.0177
2807.00,0.0174
2806.00,0.0171
2805.00,0.0169
2804.00,0.0166
2803.00,0.0163
2802.00,0.0161
2801.00,0.0159
2800.00,0.0157
2799.00,0.0155
2798.00,0.0153
2797.00,0.0152
2796.00,0.0150
2795.00,0.0149
2794.00,0.0148
2793.00,0.0147
2792.00,0.0146
2791.00,0.0145
2790.00,0.0144
2789.00,0.0144
2788.00,0.0143
2787.00,0.0142
2786.00,0.0142
2785.00,0.0141
2784.00,0.0140
2783.00,0.0140
2782.00,0.0139
2781.00,0.0139
2780.00,0.0138
2779.00,0.0138
2778.00,0.0137
2777.00,0.0137
2776.00,0.0136
2775.00,0.0136
2774.00,0.0136
2773.00,0.0135
2772.00,0.0135
2771.00,0.0135
2770.00,0.0134
2769.00,0.0134
2768.00,0.0134
2767.00,0.0134
2766.00,0.0133
2765.00,0.0133
2764.00,0.0133
2763.00,0.0133
2762.00,0.0133
2761.00,0.0133
2760.00,0.0132
2759.00,0.0132
2758.00,0.0132
2757.00,0.0132
2756.00,0.0132
2755.00,0.0132
2754.00,0.0131
2753.00,0.0131
2752.00,0.0131
2751.00,0.0131
2750.00,0.0131
2749.00,0.0131
2748.00,0.0131
2747.00,0.0131
2746.00,0.0131
2745.00,0.0131
2744.00,0.0131
2743.00,0.0131
2742.00,0.0131
2741.00,0.0131
2740.00,0.0131
2739.00,0.0131
2738.00,0.0131
2737.00,0.0131
2736.00,0.0131
2735.00,0.0131
2734.00,0.0131
2733.00,0.0131
2732.00,0.0132
2731.00,0.0132
2730.00,0.0131
2729.00,0.0131
2728.00,0.0131
2727.00,0.0131
2726.00,0.0131
2725.00,0.0131
2724.00,0.0131
2723.00,0.0131
2722.00,0.0130
2721.00,0.0130
2720.00,0.0130
2719.00,0.0130
2718.00,0.0129
2717.00,0.0129
2716.00,0.0129
2715.00,0.0129
2714.00,0.0128
2713.00,0.0128
2712.00,0.0128
2711.00,0.0128
2710.00,0.0128
2709.00,0.0128
2708.00,0.0128
2707.00,0.0128
2706.00,0.0127
2705.00,0.0127
2704.00,0.0127
2703.00,0.0127
2702.00,0.0127
2701.00,0.0127
2700.00,0.0126
2699.00,0.0126
2698.00,0.0126
2697.00,0.0126
2696.00,0.0126
2695.00,0.0126
2694.00,0.0126
2693.00,0.0126
2692.00,0.0126
2691.00,0.0125
2690.00,0.0125
2689.00,0.0125
2688.00,0.0125
2687.00,0.0125
2686.00,0.0125
2685.00,0.0125
2684.00,0.0125
2683.00,0.0125
2682.00,0.0124
2681.00,0.0124
2680.00,0.0124
2679.00,0.0124
2678.00,0.0124
2677.00,0.0124
2676.00,0.0124
2675.00,0.0124
2674.00,0.0124
2673.00,0.0124
2672.00,0.0124
2671.00,0.0125
2670.00,0.0125
2669.00,0.0125
2668.00,0.0125
2667.00,0.0126
2666.00,0.0126
2665.00,0.0127
2664.00,0.0127
2663.00,0.0127
2662.00,0.0128
2661.00,0.0128
2660.00,0.0128
2659.00,0.0129
2658.00,0.0129
2657.00,0.0129
2656.00,0.0129
2655.00,0.0129
2654.00,0.0129
2653.00,0.0129
2652.00,0.0129
2651.00,0.0129
2650.00,0.0129
2649.00,0.0129
2648.00,0.0129
2647.00,0.0129
2646.00,0.0129
2645.00,0.0129
2644.00,0.0129
2643.00,0.0129
2642.00,0.0129
2641.00,0.0129
2640.00,0.0129
2639.00,0.0129
2638.00,0.0128
2637.00,0.0128
2636.00,0.0128
2635.00,0.0128
2634.00,0.0127
2633.00,0.0127
2632.00,0.0127
2631.00,0.0127
2630.00,0.0126
2629.00,0.0126
2628.00,0.0126
2627.00,0.0126
2626.00,0.0126
2625.00,0.0126
2624.00,0.0125
2623.00,0.0125
2622.00,0.0125
2621.00,0.0125
2620.00,0.0125
2619.00,0.0125
2618.00,0.0124
2617.00,0.0124
2616.00,0.0125
2615.00,0.0125
2614.00,0.0125
2613.00,0.0124
2612.00,0.0124
2611.00,0.0124
2610.00,0.0124
2609.00,0.0124
2608.00,0.0124
2607.00,0.0124
2606.00,0.0124
2605.00,0.0124
2604.00,0.0124
2603.00,0.0124
2602.00,0.0124
2601.00,0.0124
2600.00,0.0124
2599.00,0.0124
2598.00,0.0123
2597.00,0.0123
2596.00,0.0124
2595.00,0.0124
2594.00,0.0124
2593.00,0.0124
2592.00,0.0124
2591.00,0.0124
2590.00,0.0124
2589.00,0.0124
2588.00,0.0123
2587.00,0.0123
2586.00,0.0123
2585.00,0.0123
2584.00,0.0123
2583.00,0.0123
2582.00,0.0123
2581.00,0.0122
2580.00,0.0122
2579.00,0.0122
2578.00,0.0122
2577.00,0.0122
2576.00,0.0122
2575.00,0.0121
2574.00,0.0121
2573.00,0.0121
2572.00,0.0121
2571.00,0.0121
2570.00,0.0121
2569.00,0.0121
2568.00,0.0121
2567.00,0.0121
2566.00,0.0121
2565.00,0.0121
2564.00,0.0121
2563.00,0.0120
2562.00,0.0120
2561.00,0.0120
2560.00,0.0120
2559.00,0.0120
2558.00,0.0119
2557.00,0.0119
2556.00,0.0119
2555.00,0.0118
2554.00,0.0118
2553.00,0.0118
2552.00,0.0118
2551.00,0.0118
2550.00,0.0118
2549.00,0.0118
2548.00,0.0118
2547.00,0.0117
2546.00,0.0117
2545.00,0.0117
2544.00,0.0117
2543.00,0.0117
2542.00,0.0117
2541.00,0.0117
2540.00,0.0117
2539.00,0.0117
2538.00,0.0118
2537.00,0.0118
2536.00,0.0118
2535.00,0.0117
2534.00,0.0117
2533.00,0.0117
2532.00,0.0117
2531.00,0.0117
2530.00,0.0117
2529.00,0.0117
2528.00,0.0117
2527.00,0.0117
2526.00,0.0117
2525.00,0.0117
2524.00,0.0116
2523.00,0.0116
2522.00,0.0116
2521.00,0.0115
2520.00,0.0115
2519.00,0.0115
2518.00,0.0115
2517.00,0.0116
2516.00,0.0116
2515.00,0.0116
2514.00,0.0116
2513.00,0.0116
2512.00,0.0116
2511.00,0.0116
2510.00,0.0116
2509.00,0.0116
2508.00,0.0115
2507.00,0.0115
2506.00,0.0115
2505.00,0.0115
2504.00,0.0114
2503.00,0.0114
2502.00,0.0114
2501.00,0.0114
2500.00,0.0114
2499.00,0.0114
2498.00,0.0114
2497.00,0.0114
2496.00,0.0114
2495.00,0.0114
2494.00,0.0114
2493.00,0.0114
2492.00,0.0113
2491.00,0.0113
2490.00,0.0113
2489.00,0.0113
2488.00,0.0113
2487.00,0.0113
2486.00,0.0113
2485.00,0.0113
2484.00,0.0113
2483.00,0.0113
2482.00,0.0113
2481.00,0.0113
2480.00,0.0112
2479.00,0.0112
2478.00,0.0112
2477.00,0.0112
2476.00,0.0112
2475.00,0.0112
2474.00,0.0112
2473.00,0.0112
2472.00,0.0112
2471.00,0.0112
2470.00,0.0112
2469.00,0.0112
2468.00,0.0112
2467.00,0.0112
2466.00,0.0112
2465.00,0.0112
2464.00,0.0112
2463.00,0.0112
2462.00,0.0113
2461.00,0.0113
2460.00,0.0113
2459.00,0.0114
2458.00,0.0114
2457.00,0.0114
2456.00,0.0114
2455.00,0.0114
2454.00,0.0114
2453.00,0.0114
2452.00,0.0114
2451.00,0.0114
2450.00,0.0114
2449.00,0.0113
2448.00,0.0113
2447.00,0.0113
2446.00,0.0113
2445.00,0.0113
2444.00,0.0113
2443.00,0.0113
2442.00,0.0112
2441.00,0.0112
2440.00,0.0112
2439.00,0.0112
2438.00,0.0112
2437.00,0.0112
2436.00,0.0112
2435.00,0.0112
2434.00,0.0112
2433.00,0.0112
2432.00,0.0112
2431.00,0.0112
2430.00,0.0112
2429.00,0.0112
2428.00,0.0112
2427.00,0.0111
2426.00,0.0111
2425.00,0.0111
2424.00,0.0111
2423.00,0.0110
2422.00,0.0110
2421.00,0.0110
2420.00,0.0110
2419.00,0.0110
2418.00,0.0110
2417.00,0.0110
2416.00,0.0110
2415.00,0.0111
2414.00,0.0111
2413.00,0.0111
2412.00,0.0111
2411.00,0.0111
2410.00,0.0111
2409.00,0.0110
2408.00,0.0110
2407.00,0.0110
2406.00,0.0110
2405.00,0.0110
2404.00,0.0110
2403.00,0.0110
2402.00,0.0110
2401.00,0.0110
2400.00,0.0110
2399.00,0.0110
2398.00,0.0109
2397.00,0.0109
2396.00,0.0110
2395.00,0.0110
2394.00,0.0110
2393.00,0.0110
2392.00,0.0110
2391.00,0.0110
2390.00,0.0110
2389.00,0.0110
2388.00,0.0109
2387.00,0.0109
2386.00,0.0109
2385.00,0.0109
2384.00,0.0108
2383.00,0.0108
2382.00,0.0107
2381.00,0.0107
2380.00,0.0107
2379.00,0.0107
2378.00,0.0107
2377.00,0.0107
2376.00,0.0108
2375.00,0.0108
2374.00,0.0108
2373.00,0.0107
2372.00,0.0107
2371.00,0.0107
2370.00,0.0106
2369.00,0.0106
2368.00,0.0106
2367.00,0.0106
2366.00,0.0106
2365.00,0.0107
2364.00,0.0107
2363.00,0.0108
2362.00,0.0108
2361.00,0.0108
2360.00,0.0108
2359.00,0.0108
2358.00,0.0108
2357.00,0.0109
2356.00,0.0109
2355.00,0.0109
2354.00,0.0109
2353.00,0.0109
2352.00,0.0108
2351.00,0.0108
2350.00,0.0109
2349.00,0.0110
2348.00,0.0111
2347.00,0.0112
2346.00,0.0112
2345.00,0.0111
2344.00,0.0111
2343.00,0.0112
2342.00,0.0113
2341.00,0.0113
2340.00,0.0113
2339.00,0.0113
2338.00,0.0113
2337.00,0.0113
2336.00,0.0113
2335.00,0.0113
2334.00,0.0113
2333.00,0.0112
2332.00,0.0112
2331.00,0.0112
2330.00,0.0112
2329.00,0.0114
2328.00,0.0118
2327.00,0.0121
2326.00,0.0125
2325.00,0.0126
2324.00,0.0125
2323.00,0.0123
2322.00,0.0121
2321.00,0.0119
2320.00,0.0119
2319.00,0.0118
2318.00,0.0118
2317.00,0.0118
2316.00,0.0118
2315.00,0.0117
2314.00,0.0117
2313.00,0.0116
2312.00,0.0116
2311.00,0.0116
2310.00,0.0115
2309.00,0.0115
2308.00,0.0115
2307.00,0.0115
2306.00,0.0115
2305.00,0.0116
2304.00,0.0116
2303.00,0.0117
2302.00,0.0117
2301.00,0.0117
2300.00,0.0117
2299.00,0.0118
2298.00,0.0118
2297.00,0.0118
2296.00,0.0119
2295.00,0.0119
2294.00,0.0120
2293.00,0.0121
2292.00,0.0122
2291.00,0.0123
2290.00,0.0124
2289.00,0.0124
2288.00,0.0124
2287.00,0.0124
2286.00,0.0124
2285.00,0.0124
2284.00,0.0123
2283.00,0.0123
2282.00,0.0122
2281.00,0.0121
2280.00,0.0121
2279.00,0.0120
2278.00,0.0119
2277.00,0.0119
2276.00,0.0119
2275.00,0.0118
2274.00,0.0118
2273.00,0.0118
2272.00,0.0117
2271.00,0.0117
2270.00,0.0117
2269.00,0.0116
2268.00,0.0116
2267.00,0.0116
2266.00,0.0116
2265.00,0.0115
2264.00,0.0115
2263.00,0.0115
2262.00,0.0114
2261.00,0.0115
2260.00,0.0115
2259.00,0.0115
2258.00,0.0115
2257.00,0.0114
2256.00,0.0113
2255.00,0.0112
2254.00,0.0112
2253.00,0.0112
2252.00,0.0113
2251.00,0.0113
2250.00,0.0114
2249.00,0.0114
2248.00,0.0114
2247.00,0.0114
2246.00,0.0114
2245.00,0.0114
2244.00,0.0114
2243.00,0.0114
2242.00,0.0114
2241.00,0.0114
2240.00,0.0114
2239.00,0.0114
2238.00,0.0114
2237.00,0.0114
2236.00,0.0114
2235.00,0.0113
2234.00,0.0113
2233.00,0.0113
2232.00,0.0113
2231.00,0.0113
2230.00,0.0113
2229.00,0.0113
2228.00,0.0113
2227.00,0.0114
2226.00,0.0114
2225.00,0.0114
2224.00,0.0114
2223.00,0.0114
2222.00,0.0113
2221.00,0.0113
2220.00,0.0112
2219.00,0.0112
2218.00,0.0112
2217.00,0.0112
2216.00,0.0111
2215.00,0.0111
2214.00,0.0112
2213.00,0.0112
2212.00,0.0113
2211.00,0.0113
2210.00,0.0113
2209.00,0.0112
2208.00,0.0112
2207.00,0.0112
2206.00,0.0112
2205.00,0.0112
2204.00,0.0112
2203.00,0.0113
2202.00,0.0113
2201.00,0.0112
2200.00,0.0112
2199.00,0.0112
2198.00,0.0112
2197.00,0.0112
2196.00,0.0113
2195.00,0.0113
2194.00,0.0114
2193.00,0.0114
2192.00,0.0114
2191.00,0.0114
2190.00,0.0115
2189.00,0.0115
2188.00,0.0115
2187.00,0.0115
2186.00,0.0115
2185.00,0.0113
2184.00,0.0111
2183.00,0.0109
2182.00,0.0108
2181.00,0.0108
2180.00,0.0109
2179.00,0.0109
2178.00,0.0108
2177.00,0.0107
2176.00,0.0106
2175.00,0.0106
2174.00,0.0107
2173.00,0.0109
2172.00,0.0112
2171.00,0.0114
2170.00,0.0115
2169.00,0.0116
2168.00,0.0116
2167.00,0.0117
2166.00,0.0118
2165.00,0.0120
2164.00,0.0122
2163.00,0.0123
2162.00,0.0119
2161.00,0.0109
2160.00,0.0096
2159.00,0.0084
2158.00,0.0078
2157.00,0.0077
2156.00,0.0080
2155.00,0.0083
2154.00,0.0086
2153.00,0.0089
2152.00,0.0091
2151.00,0.0093
2150.00,0.0094
2149.00,0.0094
2148.00,0.0094
2147.00,0.0095
2146.00,0.0095
2145.00,0.0095
2144.00,0.0096
2143.00,0.0096
2142.00,0.0096
2141.00,0.0096
2140.00,0.0097
2139.00,0.0097
2138.00,0.0097
2137.00,0.0095
2136.00,0.0093
2135.00,0.0091
2134.00,0.0090
2133.00,0.0091
2132.00,0.0092
2131.00,0.0095
2130.00,0.0097
2129.00,0.0098
2128.00,0.0100
2127.00,0.0101
2126.00,0.0102
2125.00,0.0103
2124.00,0.0104
2123.00,0.0105
2122.00,0.0106
2121.00,0.0106
2120.00,0.0107
2119.00,0.0108
2118.00,0.0108
2117.00,0.0109
2116.00,0.0110
2115.00,0.0111
2114.00,0.0111
2113.00,0.0111
2112.00,0.0111
2111.00,0.0111
2110.00,0.0110
2109.00,0.0110
2108.00,0.0110
2107.00,0.0110
2106.00,0.0111
2105.00,0.0111
2104.00,0.0111
2103.00,0.0111
2102.00,0.0110
2101.00,0.0110
2100.00,0.0110
2099.00,0.0110
2098.00,0.0109
2097.00,0.0107
2096.00,0.0106
2095.00,0.0105
2094.00,0.0105
2093.00,0.0106
2092.00,0.0107
2091.00,0.0108
2090.00,0.0109
2089.00,0.0110
2088.00,0.0111
2087.00,0.0111
2086.00,0.0112
2085.00,0.0112
2084.00,0.0112
2083.00,0.0112
2082.00,0.0113
2081.00,0.0113
2080.00,0.0113
2079.00,0.0113
2078.00,0.0113
2077.00,0.0113
2076.00,0.0113
2075.00,0.0113
2074.00,0.0113
2073.00,0.0112
2072.00,0.0112
2071.00,0.0112
2070.00,0.0111
2069.00,0.0111
2068.00,0.0111
2067.00,0.0110
2066.00,0.0110
2065.00,0.0110
2064.00,0.0110
2063.00,0.0110
2062.00,0.0109
2061.00,0.0109
2060.00,0.0109
2059.00,0.0110
2058.00,0.0110
2057.00,0.0110
2056.00,0.0109
2055.00,0.0109
2054.00,0.0110
2053.00,0.0114
2052.00,0.0117
2051.00,0.0119
2050.00,0.0117
2049.00,0.0114
2048.00,0.0111
2047.00,0.0110
2046.00,0.0109
2045.00,0.0108
2044.00,0.0107
2043.00,0.0107
2042.00,0.0106
2041.00,0.0106
2040.00,0.0107
2039.00,0.0107
2038.00,0.0107
2037.00,0.0106
2036.00,0.0105
2035.00,0.0103
2034.00,0.0102
2033.00,0.0101
2032.00,0.0101
2031.00,0.0101
2030.00,0.0100
2029.00,0.0099
2028.00,0.0099
2027.00,0.0098
2026.00,0.0098
2025.00,0.0099
2024.00,0.0099
2023.00,0.0098
2022.00,0.0098
2021.00,0.0098
2020.00,0.0098
2019.00,0.0098
2018.00,0.0098
2017.00,0.0098
2016.00,0.0098
2015.00,0.0099
2014.00,0.0099
2013.00,0.0100
2012.00,0.0101
2011.00,0.0101
2010.00,0.0099
2009.00,0.0097
2008.00,0.0094
2007.00,0.0091
2006.00,0.0091
2005.00,0.0092
2004.00,0.0094
2003.00,0.0096
2002.00,0.0098
2001.00,0.0099
2000.00,0.0100
1999.00,0.0102
1998.00,0.0103
1997.00,0.0104
1996.00,0.0104
1995.00,0.0104
1994.00,0.0103
1993.00,0.0104
1992.00,0.0104
1991.00,0.0105
1990.00,0.0105
1989.00,0.0105
1988.00,0.0105
1987.00,0.0106
1986.00,0.0107
1985.00,0.0109
1984.00,0.0111
1983.00,0.0113
1982.00,0.0116
1981.00,0.0116
1980.00,0.0114
1979.00,0.0109
1978.00,0.0103
1977.00,0.0098
1976.00,0.0096
1975.00,0.0095
1974.00,0.0095
1973.00,0.0095
1972.00,0.0095
1971.00,0.0095
1970.00,0.0095
1969.00,0.0095
1968.00,0.0095
1967.00,0.0096
1966.00,0.0095
1965.00,0.0095
1964.00,0.0095
1963.00,0.0095
1962.00,0.0095
1961.00,0.0095
1960.00,0.0095
1959.00,0.0095
1958.00,0.0095
1957.00,0.0096
1956.00,0.0098
1955.00,0.0099
1954.00,0.0099
1953.00,0.0099
1952.00,0.0099
1951.00,0.0099
1950.00,0.0100
1949.00,0.0100
1948.00,0.0101
1947.00,0.0101
1946.00,0.0101
1945.00,0.0101
1944.00,0.0100
1943.00,0.0100
1942.00,0.0100
1941.00,0.0100
1940.00,0.0101
1939.00,0.0101
1938.00,0.0101
1937.00,0.0101
1936.00,0.0102
1935.00,0.0102
1934.00,0.0102
1933.00,0.0103
1932.00,0.0103
1931.00,0.0104
1930.00,0.0104
1929.00,0.0104
1928.00,0.0104
1927.00,0.0104
1926.00,0.0104
1925.00,0.0104
1924.00,0.0104
1923.00,0.0105
1922.00,0.0105
1921.00,0.0106
1920.00,0.0106
1919.00,0.0106
1918.00,0.0106
1917.00,0.0105
1916.00,0.0106
1915.00,0.0106
1914.00,0.0106
1913.00,0.0106
1912.00,0.0107
1911.00,0.0108
1910.00,0.0109
1909.00,0.0110
1908.00,0.0111
1907.00,0.0111
1906.00,0.0110
1905.00,0.0110
1904.00,0.0110
1903.00,0.0109
1902.00,0.0108
1901.00,0.0108
1900.00,0.0107
1899.00,0.0107
1898.00,0.0108
1897.00,0.0108
1896.00,0.0109
1895.00,0.0109
1894.00,0.0109
1893.00,0.0109
1892.00,0.0109
1891.00,0.0109
1890.00,0.0108
1889.00,0.0108
1888.00,0.0108
1887.00,0.0108
1886.00,0.0108
1885.00,0.0108
1884.00,0.0108
1883.00,0.0108
1882.00,0.0108
1881.00,0.0108
1880.00,0.0108
1879.00,0.0108
1878.00,0.0108
1877.00,0.0108
1876.00,0.0108
1875.00,0.0108
1874.00,0.0108
1873.00,0.0108
1872.00,0.0108
1871.00,0.0108
1870.00,0.0107
1869.00,0.0107
1868.00,0.0107
1867.00,0.0108
1866.00,0.0108
1865.00,0.0109
1864.00,0.0109
1863.00,0.0109
1862.00,0.0109
1861.00,0.0109
1860.00,0.0109
1859.00,0.0109
1858.00,0.0109
1857.00,0.0109
1856.00,0.0110
1855.00,0.0110
1854.00,0.0110
1853.00,0.0110
1852.00,0.0110
1851.00,0.0110
1850.00,0.0110
1849.00,0.0111
1848.00,0.0111
1847.00,0.0111
1846.00,0.0111
1845.00,0.0111
1844.00,0.0111
1843.00,0.0111
1842.00,0.0111
1841.00,0.0111
1840.00,0.0111
1839.00,0.0111
1838.00,0.0111
1837.00,0.0111
1836.00,0.0111
1835.00,0.0111
1834.00,0.0110
1833.00,0.0110
1832.00,0.0110
1831.00,0.0110
1830.00,0.0110
1829.00,0.0110
1828.00,0.0110
1827.00,0.0110
1826.00,0.0111
1825.00,0.0111
1824.00,0.0111
1823.00,0.0111
1822.00,0.0111
1821.00,0.0111
1820.00,0.0111
1819.00,0.0110
1818.00,0.0109
1817.00,0.0109
1816.00,0.0109
1815.00,0.0109
1814.00,0.0110
1813.00,0.0110
1812.00,0.0111
1811.00,0.0111
1810.00,0.0111
1809.00,0.0112
1808.00,0.0112
1807.00,0.0112
1806.00,0.0112
1805.00,0.0112
1804.00,0.0113
1803.00,0.0113
1802.00,0.0113
1801.00,0.0113
1800.00,0.0113
1799.00,0.0114
1798.00,0.0114
1797.00,0.0114
1796.00,0.0114
1795.00,0.0114
1794.00,0.0114
1793.00,0.0114
1792.00,0.0114
1791.00,0.0114
1790.00,0.0114
1789.00,0.0115
1788.00,0.0115
1787.00,0.0115
1786.00,0.0114
1785.00,0.0114
1784.00,0.0114
1783.00,0.0114
1782.00,0.0114
1781.00,0.0114
1780.00,0.0114
1779.00,0.0114
1778.00,0.0115
1777.00,0.0115
1776.00,0.0115
1775.00,0.0115
1774.00,0.0116
1773.00,0.0116
1772.00,0.0116
1771.00,0.0116
1770.00,0.0116
1769.00,0.0116
1768.00,0.0116
1767.00,0.0116
1766.00,0.0115
1765.00,0.0115
1764.00,0.0115
1763.00,0.0115
1762.00,0.0115
1761.00,0.0115
1760.00,0.0116
1759.00,0.0116
1758.00,0.0116
1757.00,0.0116
1756.00,0.0115
1755.00,0.0115
1754.00,0.0115
1753.00,0.0114
1752.00,0.0114
1751.00,0.0113
1750.00,0.0113
1749.00,0.0112
1748.00,0.0112
1747.00,0.0112
1746.00,0.0112
1745.00,0.0111
1744.00,0.0111
1743.00,0.0111
1742.00,0.0111
1741.00,0.0111
1740.00,0.0111
1739.00,0.0110
1738.00,0.0111
1737.00,0.0111
1736.00,0.0111
1735.00,0.0111
1734.00,0.0111
1733.00,0.0112
1732.00,0.0112
1731.00,0.0113
1730.00,0.0114
1729.00,0.0114
1728.00,0.0115
1727.00,0.0116
1726.00,0.0116
1725.00,0.0116
1724.00,0.0117
1723.00,0.0117
1722.00,0.0117
1721.00,0.0117
1720.00,0.0117
1719.00,0.0117
1718.00,0.0117
1717.00,0.0117
1716.00,0.0116
1715.00,0.0117
1714.00,0.0117
1713.00,0.0117
1712.00,0.0117
1711.00,0.0117
1710.00,0.0117
1709.00,0.0117
1708.00,0.0117
1707.00,0.0116
1706.00,0.0115
1705.00,0.0115
1704.00,0.0114
1703.00,0.0114
1702.00,0.0114
1701.00,0.0113
1700.00,0.0112
1699.00,0.0111
1698.00,0.0111
1697.00,0.0111
1696.00,0.0109
1695.00,0.0108
1694.00,0.0106
1693.00,0.0105
1692.00,0.0103
1691.00,0.0102
1690.00,0.0100
1689.00,0.0099
1688.00,0.0097
1687.00,0.0095
1686.00,0.0093
1685.00,0.0091
1684.00,0.0088
1683.00,0.0086
1682.00,0.0085
1681.00,0.0083
1680.00,0.0082
1679.00,0.0080
1678.00,0.0078
1677.00,0.0077
1676.00,0.0075
1675.00,0.0074
1674.00,0.0073
1673.00,0.0071
1672.00,0.0070
1671.00,0.0069
1670.00,0.0068
1669.00,0.0067
1668.00,0.0067
1667.00,0.0067
1666.00,0.0066
1665.00,0.0065
1664.00,0.0064
1663.00,0.0063
1662.00,0.0064
1661.00,0.0064
1660.00,0.0064
1659.00,0.0064
1658.00,0.0063
1657.00,0.0062
1656.00,0.0062
1655.00,0.0061
1654.00,0.0062
1653.00,0.0064
1652.00,0.0067
1651.00,0.0068
1650.00,0.0068
1649.00,0.0068
1648.00,0.0069
1647.00,0.0071
1646.00,0.0074
1645.00,0.0076
1644.00,0.0078
1643.00,0.0080
1642.00,0.0082
1641.00,0.0084
1640.00,0.0086
1639.00,0.0087
1638.00,0.0088
1637.00,0.0090
1636.00,0.0093
1635.00,0.0096
1634.00,0.0101
1633.00,0.0106
1632.00,0.0114
1631.00,0.0123
1630.00,0.0136
1629.00,0.0152
1628.00,0.0171
1627.00,0.0191
1626.00,0.0211
1625.00,0.0229
1624.00,0.0246
1623.00,0.0261
1622.00,0.0272
1621.00,0.0279
1620.00,0.0283
1619.00,0.0282
1618.00,0.0275
1617.00,0.0263
1616.00,0.0250
1615.00,0.0242
1614.00,0.0239
1613.00,0.0240
1612.00,0.0244
1611.00,0.0248
1610.00,0.0251
1609.00,0.0251
1608.00,0.0248
1607.00,0.0242
1606.00,0.0234
1605.00,0.0225
1604.00,0.0216
1603.00,0.0207
1602.00,0.0198
1601.00,0.0190
1600.00,0.0183
1599.00,0.0177
1598.00,0.0173
1597.00,0.0170
1596.00,0.0168
1595.00,0.0168
1594.00,0.0169
1593.00,0.0173
1592.00,0.0179
1591.00,0.0188
1590.00,0.0198
1589.00,0.0211
1588.00,0.0224
1587.00,0.0237
1586.00,0.0248
1585.00,0.0257
1584.00,0.0263
1583.00,0.0266
1582.00,0.0266
1581.00,0.0265
1580.00,0.0262
1579.00,0.0258
1578.00,0.0253
1577.00,0.0246
1576.00,0.0237
1575.00,0.0228
1574.00,0.0221
1573.00,0.0217
1572.00,0.0213
1571.00,0.0210
1570.00,0.0207
1569.00,0.0203
1568.00,0.0201
1567.00,0.0198
1566.00,0.0193
1565.00,0.0188
1564.00,0.0182
1563.00,0.0177
1562.00,0.0172
1561.00,0.0167
1560.00,0.0160
1559.00,0.0153
1558.00,0.0147
1557.00,0.0145
1556.00,0.0143
1555.00,0.0142
1554.00,0.0140
1553.00,0.0138
1552.00,0.0137
1551.00,0.0135
1550.00,0.0134
1549.00,0.0133
1548.00,0.0132
1547.00,0.0131
1546.00,0.0130
1545.00,0.0129
1544.00,0.0127
1543.00,0.0126
1542.00,0.0126
1541.00,0.0125
1540.00,0.0125
1539.00,0.0124
1538.00,0.0124
1537.00,0.0124
1536.00,0.0124
1535.00,0.0123
1534.00,0.0122
1533.00,0.0122
1532.00,0.0122
1531.00,0.0122
1530.00,0.0122
1529.00,0.0122
1528.00,0.0122
1527.00,0.0122
1526.00,0.0122
1525.00,0.0123
1524.00,0.0123
1523.00,0.0124
1522.00,0.0124
1521.00,0.0125
1520.00,0.0125
1519.00,0.0126
1518.00,0.0128
1517.00,0.0130
1516.00,0.0132
1515.00,0.0134
1514.00,0.0137
1513.00,0.0139
1512.00,0.0141
1511.00,0.0143
1510.00,0.0144
1509.00,0.0145
1508.00,0.0146
1507.00,0.0146
1506.00,0.0146
1505.00,0.0147
1504.00,0.0148
1503.00,0.0149
1502.00,0.0152
1501.00,0.0156
1500.00,0.0162
1499.00,0.0172
1498.00,0.0186
1497.00,0.0199
1496.00,0.0209
1495.00,0.0213
1494.00,0.0211
1493.00,0.0205
1492.00,0.0197
1491.00,0.0187
1490.00,0.0179
1489.00,0.0172
1488.00,0.0168
1487.00,0.0165
1486.00,0.0163
1485.00,0.0162
1484.00,0.0162
1483.00,0.0162
1482.00,0.0164
1481.00,0.0165
1480.00,0.0168
1479.00,0.0170
1478.00,0.0173
1477.00,0.0177
1476.00,0.0180
1475.00,0.0185
1474.00,0.0189
1473.00,0.0195
1472.00,0.0203
1471.00,0.0213
1470.00,0.0224
1469.00,0.0237
1468.00,0.0250
1467.00,0.0262
1466.00,0.0271
1465.00,0.0276
1464.00,0.0277
1463.00,0.0276
1462.00,0.0276
1461.00,0.0277
1460.00,0.0279
1459.00,0.0281
1458.00,0.0283
1457.00,0.0283
1456.00,0.0281
1455.00,0.0279
1454.00,0.0278
1453.00,0.0277
1452.00,0.0277
1451.00,0.0277
1450.00,0.0278
1449.00,0.0278
1448.00,0.0278
1447.00,0.0277
1446.00,0.0277
1445.00,0.0279
1444.00,0.0280
1443.00,0.0282
1442.00,0.0283
1441.00,0.0284
1440.00,0.0284
1439.00,0.0283
1438.00,0.0282
1437.00,0.0280
1436.00,0.0280
1435.00,0.0282
1434.00,0.0286
1433.00,0.0291
1432.00,0.0296
1431.00,0.0300
1430.00,0.0303
1429.00,0.0305
1428.00,0.0305
1427.00,0.0303
1426.00,0.0301
1425.00,0.0297
1424.00,0.0293
1423.00,0.0289
1422.00,0.0287
1421.00,0.0284
1420.00,0.0281
1419.00,0.0278
1418.00,0.0275
1417.00,0.0273
1416.00,0.0272
1415.00,0.0271
1414.00,0.0271
1413.00,0.0272
1412.00,0.0273
1411.00,0.0276
1410.00,0.0281
1409.00,0.0287
1408.00,0.0295
1407.00,0.0305
1406.00,0.0316
1405.00,0.0328
1404.00,0.0342
1403.00,0.0354
1402.00,0.0364
1401.00,0.0372
1400.00,0.0376
1399.00,0.0377
1398.00,0.0374
1397.00,0.0369
1396.00,0.0361
1395.00,0.0351
1394.00,0.0339
1393.00,0.0329
1392.00,0.0322
1391.00,0.0316
1390.00,0.0313
1389.00,0.0314
1388.00,0.0319
1387.00,0.0325
1386.00,0.0329
1385.00,0.0330
1384.00,0.0329
1383.00,0.0327
1382.00,0.0328
1381.00,0.0331
1380.00,0.0336
1379.00,0.0339
1378.00,0.0341
1377.00,0.0341
1376.00,0.0338
1375.00,0.0333
1374.00,0.0325
1373.00,0.0317
1372.00,0.0312
1371.00,0.0309
1370.00,0.0309
1369.00,0.0312
1368.00,0.0319
1367.00,0.0327
1366.00,0.0334
1365.00,0.0338
1364.00,0.0339
1363.00,0.0339
1362.00,0.0343
1361.00,0.0351
1360.00,0.0359
1359.00,0.0361
1358.00,0.0355
1357.00,0.0345
1356.00,0.0333
1355.00,0.0323
1354.00,0.0316
1353.00,0.0312
1352.00,0.0310
1351.00,0.0309
1350.00,0.0310
1349.00,0.0313
1348.00,0.0316
1347.00,0.0318
1346.00,0.0320
1345.00,0.0320
1344.00,0.0318
1343.00,0.0316
1342.00,0.0312
1341.00,0.0307
1340.00,0.0302
1339.00,0.0297
1338.00,0.0293
1337.00,0.0289
1336.00,0.0288
1335.00,0.0288
1334.00,0.0289
1333.00,0.0291
1332.00,0.0293
1331.00,0.0295
1330.00,0.0297
1329.00,0.0297
1328.00,0.0297
1327.00,0.0296
1326.00,0.0294
1325.00,0.0292
1324.00,0.0290
1323.00,0.0288
1322.00,0.0286
1321.00,0.0286
1320.00,0.0285
1319.00,0.0284
1318.00,0.0284
1317.00,0.0282
1316.00,0.0281
1315.00,0.0279
1314.00,0.0277
1313.00,0.0276
1312.00,0.0276
1311.00,0.0277
1310.00,0.0278
1309.00,0.0280
1308.00,0.0284
1307.00,0.0288
1306.00,0.0294
1305.00,0.0302
1304.00,0.0312
1303.00,0.0324
1302.00,0.0334
1301.00,0.0340
1300.00,0.0341
1299.00,0.0337
1298.00,0.0329
1297.00,0.0320
1296.00,0.0313
1295.00,0.0308
1294.00,0.0303
1293.00,0.0298
1292.00,0.0293
1291.00,0.0288
1290.00,0.0283
1289.00,0.0281
1288.00,0.0282
1287.00,0.0286
1286.00,0.0292
1285.00,0.0299
1284.00,0.0306
1283.00,0.0310
1282.00,0.0311
1281.00,0.0307
1280.00,0.0301
1279.00,0.0291
1278.00,0.0281
1277.00,0.0270
1276.00,0.0261
1275.00,0.0254
1274.00,0.0247
1273.00,0.0243
1272.00,0.0238
1271.00,0.0235
1270.00,0.0232
1269.00,0.0230
1268.00,0.0228
1267.00,0.0227
1266.00,0.0225
1265.00,0.0224
1264.00,0.0222
1263.00,0.0219
1262.00,0.0217
1261.00,0.0214
1260.00,0.0211
1259.00,0.0208
1258.00,0.0206
1257.00,0.0205
1256.00,0.0204
1255.00,0.0203
1254.00,0.0202
1253.00,0.0202
1252.00,0.0203
1251.00,0.0205
1250.00,0.0207
1249.00,0.0211
1248.00,0.0216
1247.00,0.0223
1246.00,0.0230
1245.00,0.0237
1244.00,0.0243
1243.00,0.0249
1242.00,0.0253
1241.00,0.0256
1240.00,0.0259
1239.00,0.0263
1238.00,0.0269
1237.00,0.0277
1236.00,0.0286
1235.00,0.0294
1234.00,0.0300
1233.00,0.0302
1232.00,0.0301
1231.00,0.0295
1230.00,0.0287
1229.00,0.0278
1228.00,0.0269
1227.00,0.0262
1226.00,0.0256
1225.00,0.0251
1224.00,0.0249
1223.00,0.0247
1222.00,0.0248
1221.00,0.0250
1220.00,0.0255
1219.00,0.0261
1218.00,0.0269
1217.00,0.0279
1216.00,0.0289
1215.00,0.0298
1214.00,0.0305
1213.00,0.0309
1212.00,0.0309
1211.00,0.0306
1210.00,0.0301
1209.00,0.0296
1208.00,0.0292
1207.00,0.0288
1206.00,0.0287
1205.00,0.0289
1204.00,0.0293
1203.00,0.0299
1202.00,0.0308
1201.00,0.0318
1200.00,0.0331
1199.00,0.0344
1198.00,0.0359
1197.00,0.0375
1196.00,0.0390
1195.00,0.0403
1194.00,0.0411
1193.00,0.0414
1192.00,0.0412
1191.00,0.0406
1190.00,0.0397
1189.00,0.0386
1188.00,0.0374
1187.00,0.0361
1186.00,0.0349
1185.00,0.0338
1184.00,0.0328
1183.00,0.0319
1182.00,0.0312
1181.00,0.0306
1180.00,0.0302
1179.00,0.0298
1178.00,0.0296
1177.00,0.0294
1176.00,0.0293
1175.00,0.0293
1174.00,0.0294
1173.00,0.0295
1172.00,0.0298
1171.00,0.0301
1170.00,0.0305
1169.00,0.0310
1168.00,0.0316
1167.00,0.0323
1166.00,0.0330
1165.00,0.0339
1164.00,0.0350
1163.00,0.0362
1162.00,0.0375
1161.00,0.0392
1160.00,0.0412
1159.00,0.0436
1158.00,0.0464
1157.00,0.0495
1156.00,0.0526
1155.00,0.0551
1154.00,0.0566
1153.00,0.0569
1152.00,0.0561
1151.00,0.0547
1150.00,0.0530
1149.00,0.0514
1148.00,0.0502
1147.00,0.0494
1146.00,0.0489
1145.00,0.0487
1144.00,0.0487
1143.00,0.0488
1142.00,0.0491
1141.00,0.0495
1140.00,0.0501
1139.00,0.0508
1138.00,0.0518
1137.00,0.0531
1136.00,0.0547
1135.00,0.0567
1134.00,0.0593
1133.00,0.0625
1132.00,0.0662
1131.00,0.0702
1130.00,0.0741
1129.00,0.0773
1128.00,0.0797
1127.00,0.0812
1126.00,0.0820
1125.00,0.0823
1124.00,0.0821
1123.00,0.0816
1122.00,0.0808
1121.00,0.0799
1120.00,0.0793
1119.00,0.0788
1118.00,0.0787
1117.00,0.0788
1116.00,0.0790
1115.00,0.0794
1114.00,0.0797
1113.00,0.0800
1112.00,0.0801
1111.00,0.0800
1110.00,0.0798
1109.00,0.0797
1108.00,0.0796
1107.00,0.0797
1106.00,0.0799
1105.00,0.0805
1104.00,0.0815
1103.00,0.0830
1102.00,0.0849
1101.00,0.0868
1100.00,0.0885
1099.00,0.0894
1098.00,0.0894
1097.00,0.0886
1096.00,0.0873
1095.00,0.0857
1094.00,0.0843
1093.00,0.0831
1092.00,0.0822
1091.00,0.0817
1090.00,0.0815
1089.00,0.0816
1088.00,0.0819
1087.00,0.0822
1086.00,0.0826
1085.00,0.0832
1084.00,0.0839
1083.00,0.0849
1082.00,0.0859
1081.00,0.0871
1080.00,0.0882
1079.00,0.0892
1078.00,0.0902
1077.00,0.0912
1076.00,0.0922
1075.00,0.0932
1074.00,0.0942
1073.00,0.0952
1072.00,0.0963
1071.00,0.0974
1070.00,0.0984
1069.00,0.0996
1068.00,0.1007
1067.00,0.1018
1066.00,0.1030
1065.00,0.1042
1064.00,0.1055
1063.00,0.1070
1062.00,0.1088
1061.00,0.1109
1060.00,0.1135
1059.00,0.1166
1058.00,0.1201
1057.00,0.1239
1056.00,0.1277
1055.00,0.1309
1054.00,0.1333
1053.00,0.1349
1052.00,0.1357
1051.00,0.1361
1050.00,0.1362
1049.00,0.1360
1048.00,0.1353
1047.00,0.1341
1046.00,0.1322
1045.00,0.1299
1044.00,0.1273
1043.00,0.1245
1042.00,0.1216
1041.00,0.1188
1040.00,0.1163
1039.00,0.1142
1038.00,0.1126
1037.00,0.1115
1036.00,0.1107
1035.00,0.1101
1034.00,0.1097
1033.00,0.1095
1032.00,0.1097
1031.00,0.1107
1030.00,0.1124
1029.00,0.1147
1028.00,0.1171
1027.00,0.1189
1026.00,0.1194
1025.00,0.1186
1024.00,0.1166
1023.00,0.1138
1022.00,0.1105
1021.00,0.1074
1020.00,0.1044
1019.00,0.1018
1018.00,0.0994
1017.00,0.0973
1016.00,0.0954
1015.00,0.0938
1014.00,0.0923
1013.00,0.0909
1012.00,0.0898
1011.00,0.0888
1010.00,0.0880
1009.00,0.0874
1008.00,0.0872
1007.00,0.0871
1006.00,0.0871
1005.00,0.0870
1004.00,0.0868
1003.00,0.0863
1002.00,0.0852
1001.00,0.0838
1000.00,0.0822
999.00,0.0804
998.00,0.0787
997.00,0.0770
996.00,0.0754
995.00,0.0739
994.00,0.0725
993.00,0.0710
992.00,0.0695
991.00,0.0679
990.00,0.0662
989.00,0.0645
988.00,0.0629
987.00,0.0615
986.00,0.0601
985.00,0.0589
984.00,0.0577
983.00,0.0567
982.00,0.0557
981.00,0.0548
980.00,0.0540
979.00,0.0533
978.00,0.0527
977.00,0.0522
976.00,0.0518
975.00,0.0513
974.00,0.0509
973.00,0.0505
972.00,0.0502
971.00,0.0500
970.00,0.0499
969.00,0.0498
968.00,0.0499
967.00,0.0501
966.00,0.0505
965.00,0.0509
964.00,0.0516
963.00,0.0523
962.00,0.0530
961.00,0.0537
960.00,0.0542
959.00,0.0546
958.00,0.0550
957.00,0.0554
956.00,0.0559
955.00,0.0565
954.00,0.0571
953.00,0.0577
952.00,0.0583
951.00,0.0590
950.00,0.0597
949.00,0.0605
948.00,0.0612
947.00,0.0617
946.00,0.0620
945.00,0.0621
944.00,0.0622
943.00,0.0622
942.00,0.0621
941.00,0.0619
940.00,0.0616
939.00,0.0611
938.00,0.0604
937.00,0.0597
936.00,0.0589
935.00,0.0583
934.00,0.0578
933.00,0.0575
932.00,0.0571
931.00,0.0567
930.00,0.0562
929.00,0.0557
928.00,0.0552
927.00,0.0548
926.00,0.0546
925.00,0.0545
924.00,0.0545
923.00,0.0546
922.00,0.0546
921.00,0.0543
920.00,0.0536
919.00,0.0527
918.00,0.0515
917.00,0.0503
916.00,0.0492
915.00,0.0483
914.00,0.0474
913.00,0.0468
912.00,0.0462
911.00,0.0457
910.00,0.0453
909.00,0.0449
908.00,0.0446
907.00,0.0443
906.00,0.0440
905.00,0.0439
904.00,0.0439
903.00,0.0441
902.00,0.0445
901.00,0.0451
900.00,0.0457
899.00,0.0460
898.00,0.0458
897.00,0.0452
896.00,0.0444
895.00,0.0436
894.00,0.0431
893.00,0.0431
892.00,0.0436
891.00,0.0444
890.00,0.0449
889.00,0.0447
888.00,0.0438
887.00,0.0424
886.00,0.0411
885.00,0.0400
884.00,0.0392
883.00,0.0385
882.00,0.0380
881.00,0.0375
880.00,0.0372
879.00,0.0370
878.00,0.0372
877.00,0.0379
876.00,0.0389
875.00,0.0404
874.00,0.0422
873.00,0.0442
872.00,0.0462
871.00,0.0479
870.00,0.0490
869.00,0.0493
868.00,0.0487
867.00,0.0475
866.00,0.0461
865.00,0.0446
864.00,0.0432
863.00,0.0417
862.00,0.0403
861.00,0.0390
860.00,0.0380
859.00,0.0372
858.00,0.0369
857.00,0.0371
856.00,0.0378
855.00,0.0387
854.00,0.0398
853.00,0.0408
852.00,0.0419
851.00,0.0431
850.00,0.0443
849.00,0.0452
848.00,0.0454
847.00,0.0448
846.00,0.0436
845.00,0.0421
844.00,0.0408
843.00,0.0396
842.00,0.0388
841.00,0.0383
840.00,0.0381
839.00,0.0384
838.00,0.0392
837.00,0.0404
836.00,0.0419
835.00,0.0433
834.00,0.0444
833.00,0.0450
832.00,0.0449
831.00,0.0443
830.00,0.0430
829.00,0.0412
828.00,0.0393
827.00,0.0374
826.00,0.0360
825.00,0.0353
824.00,0.0357
823.00,0.0375
822.00,0.0406
821.00,0.0441
820.00,0.0466
819.00,0.0479
818.00,0.0486
817.00,0.0498
816.00,0.0514
815.00,0.0521
814.00,0.0507
813.00,0.0474
812.00,0.0436
811.00,0.0402
810.00,0.0377
809.00,0.0359
808.00,0.0346
807.00,0.0337
806.00,0.0330
805.00,0.0325
804.00,0.0320
803.00,0.0317
802.00,0.0313
801.00,0.0310
800.00,0.0308
799.00,0.0305
798.00,0.0303
797.00,0.0301
796.00,0.0300
795.00,0.0298
794.00,0.0297
793.00,0.0295
792.00,0.0294
791.00,0.0292
790.00,0.0291
789.00,0.0290
788.00,0.0289
787.00,0.0288
786.00,0.0287
785.00,0.0286
784.00,0.0285
783.00,0.0285
782.00,0.0284
781.00,0.0284
780.00,0.0284
779.00,0.0285
778.00,0.0288
777.00,0.0293
776.00,0.0301
775.00,0.0309
774.00,0.0313
773.00,0.0311
772.00,0.0304
771.00,0.0297
770.00,0.0291
769.00,0.0288
768.00,0.0285
767.00,0.0284
766.00,0.0283
765.00,0.0282
764.00,0.0283
763.00,0.0284
762.00,0.0287
761.00,0.0290
760.00,0.0292
759.00,0.0294
758.00,0.0293
757.00,0.0291
756.00,0.0288
755.00,0.0285
754.00,0.0283
753.00,0.0281
752.00,0.0279
751.00,0.0278
750.00,0.0278
749.00,0.0278
748.00,0.0278
747.00,0.0278
746.00,0.0279
745.00,0.0280
744.00,0.0281
743.00,0.0282
742.00,0.0285
741.00,0.0288
740.00,0.0294
739.00,0.0303
738.00,0.0316
737.00,0.0332
736.00,0.0349
735.00,0.0363
734.00,0.0368
733.00,0.0366
732.00,0.0360
731.00,0.0357
730.00,0.0358
729.00,0.0361
728.00,0.0363
727.00,0.0360
726.00,0.0352
725.00,0.0341
724.00,0.0329
723.00,0.0320
722.00,0.0314
721.00,0.0311
720.00,0.0311
719.00,0.0314
718.00,0.0319
717.00,0.0327
716.00,0.0336
715.00,0.0343
714.00,0.0346
713.00,0.0347
712.00,0.0344
711.00,0.0341
710.00,0.0337
709.00,0.0333
708.00,0.0330
707.00,0.0329
706.00,0.0329
705.00,0.0330
704.00,0.0332
703.00,0.0334
702.00,0.0337
701.00,0.0341
700.00,0.0345
699.00,0.0349
698.00,0.0352
697.00,0.0352
696.00,0.0350
695.00,0.0347
694.00,0.0342
693.00,0.0339
692.00,0.0338
691.00,0.0342
690.00,0.0348
689.00,0.0355
688.00,0.0360
687.00,0.0362
686.00,0.0359
685.00,0.0355
684.00,0.0352
683.00,0.0350
682.00,0.0351
681.00,0.0354
680.00,0.0358
679.00,0.0364
678.00,0.0371
677.00,0.0380
676.00,0.0391
675.00,0.0404
674.00,0.0416
673.00,0.0428
672.00,0.0438
671.00,0.0445
670.00,0.0450
669.00,0.0452
668.00,0.0452
667.00,0.0452
666.00,0.0452
665.00,0.0454
664.00,0.0458
663.00,0.0463
662.00,0.0467
661.00,0.0469
660.00,0.0468
659.00,0.0463
658.00,0.0456
657.00,0.0449
656.00,0.0443
655.00,0.0438
654.00,0.0433
653.00,0.0430
652.00,0.0428
651.00,0.0426
650.00,0.0424
649.00,0.0422
648.00,0.0421
647.00,0.0420
646.00,0.0419
645.00,0.0419
644.00,0.0418
643.00,0.0418
642.00,0.0417
641.00,0.0418
640.00,0.0418
639.00,0.0419
638.00,0.0420
637.00,0.0421
636.00,0.0422
635.00,0.0424
634.00,0.0425
633.00,0.0426
632.00,0.0428
631.00,0.0429
630.00,0.0431
629.00,0.0433
628.00,0.0437
627.00,0.0441
626.00,0.0446
625.00,0.0452
624.00,0.0459
623.00,0.0467
622.00,0.0476
621.00,0.0485
620.00,0.0492
619.00,0.0496
618.00,0.0497
617.00,0.0495
616.00,0.0491
615.00,0.0486
614.00,0.0480
613.00,0.0475
612.00,0.0472
611.00,0.0472
610.00,0.0474
609.00,0.0480
608.00,0.0490
607.00,0.0503
606.00,0.0516
605.00,0.0530
604.00,0.0541
603.00,0.0550
602.00,0.0555
601.00,0.0558
600.00,0.0559
599.00,0.0560
598.00,0.0561
597.00,0.0561
596.00,0.0561
595.00,0.0561
594.00,0.0561
593.00,0.0561
592.00,0.0561
591.00,0.0560
590.00,0.0557
589.00,0.0555
588.00,0.0553
587.00,0.0552
586.00,0.0551
585.00,0.0552
584.00,0.0553
583.00,0.0554
582.00,0.0556
581.00,0.0559
580.00,0.0566
579.00,0.0576
578.00,0.0588
577.00,0.0600
576.00,0.0609
575.00,0.0611
574.00,0.0605
573.00,0.0597
572.00,0.0588
571.00,0.0580
570.00,0.0573
569.00,0.0567
568.00,0.0563
567.00,0.0562
566.00,0.0564
565.00,0.0570
564.00,0.0577
563.00,0.0586
562.00,0.0595
561.00,0.0604
560.00,0.0610
559.00,0.0612
558.00,0.0610
557.00,0.0604
556.00,0.0597
555.00,0.0590
554.00,0.0585
553.00,0.0583
552.00,0.0583
551.00,0.0587
550.00,0.0592
549.00,0.0601
548.00,0.0613
547.00,0.0624
546.00,0.0632
545.00,0.0635
544.00,0.0633
543.00,0.0627
542.00,0.0619
541.00,0.0611
540.00,0.0604
539.00,0.0599
538.00,0.0594
537.00,0.0591
536.00,0.0592
535.00,0.0597
534.00,0.0604
533.00,0.0612
532.00,0.0621
531.00,0.0626
530.00,0.0626
529.00,0.0622
528.00,0.0616
527.00,0.0609
526.00,0.0601
525.00,0.0594
524.00,0.0588
523.00,0.0584
522.00,0.0580
521.00,0.0576
520.00,0.0573
519.00,0.0568
518.00,0.0563
517.00,0.0559
516.00,0.0556
515.00,0.0556
514.00,0.0556
513.00,0.0556
512.00,0.0557
511.00,0.0559
510.00,0.0561
509.00,0.0563
508.00,0.0567
507.00,0.0570
506.00,0.0571
505.00,0.0571
504.00,0.0570
503.00,0.0567
502.00,0.0563
501.00,0.0560
500.00,0.0558
499.00,0.0557
498.00,0.0556
497.00,0.0556
496.00,0.0558
495.00,0.0561
494.00,0.0565
493.00,0.0570
492.00,0.0573
491.00,0.0573
490.00,0.0571
489.00,0.0568
488.00,0.0567
487.00,0.0567
486.00,0.0566
485.00,0.0565
484.00,0.0564
483.00,0.0563
482.00,0.0563
481.00,0.0564
480.00,0.0564
479.00,0.0564
478.00,0.0562
477.00,0.0561
476.00,0.0560
475.00,0.0560
474.00,0.0560
473.00,0.0559
472.00,0.0560
471.00,0.0561
470.00,0.0559
469.00,0.0557
468.00,0.0556
467.00,0.0555
466.00,0.0553
465.00,0.0551
464.00,0.0549
463.00,0.0547
462.00,0.0545
461.00,0.0545
460.00,0.0548
459.00,0.0549
458.00,0.0547
457.00,0.0543
456.00,0.0539
455.00,0.0535
454.00,0.0532
453.00,0.0530
452.00,0.0530
451.00,0.0529
450.00,0.0526
449.00,0.0522
448.00,0.0519
447.00,0.0516
446.00,0.0513
445.00,0.0510
444.00,0.0511
443.00,0.0513
442.00,0.0513
441.00,0.0512
440.00,0.0511
439.00,0.0510
438.00,0.0507
437.00,0.0504
436.00,0.0502
435.00,0.0499
434.00,0.0497
433.00,0.0496
432.00,0.0497
431.00,0.0497
430.00,0.0493
429.00,0.0488
428.00,0.0485
427.00,0.0485
426.00,0.0484
425.00,0.0483
424.00,0.0480
423.00,0.0478
422.00,0.0476
421.00,0.0476
420.00,0.0474
419.00,0.0472
418.00,0.0470
417.00,0.0471
416.00,0.0475
415.00,0.0478
414.00,0.0480
413.00,0.0483
412.00,0.0490
411.00,0.0498
410.00,0.0502
409.00,0.0500
408.00,0.0493
407.00,0.0484
406.00,0.0478
405.00,0.0476
404.00,0.0476
403.00,0.0472
402.00,0.0460
401.00,0.0450
400.00,0.0446
