3997.70013	0.01236
3995.64052	0.01278
3993.58092	0.01291
3991.52131	0.01269
3989.46170	0.01258
3987.40209	0.01254
3985.34248	0.01228
3983.28287	0.01191
3981.22327	0.01178
3979.16366	0.01204
3977.10405	0.01235
3975.04444	0.01232
3972.98483	0.01235
3970.92522	0.01274
3968.86561	0.01317
3966.80601	0.01332
3964.74640	0.01337
3962.68679	0.01382
3960.62718	0.01451
3958.56757	0.01450
3956.50796	0.01354
3954.44835	0.01252
3952.38875	0.01215
3950.32914	0.01214
3948.26953	0.01217
3946.20992	0.01237
3944.15031	0.01261
3942.09070	0.01257
3940.03109	0.01233
3937.97149	0.01219
3935.91188	0.01241
3933.85227	0.01291
3931.79266	0.01296
3929.73305	0.01245
3927.67344	0.01218
3925.61384	0.01213
3923.55423	0.01171
3921.49462	0.01110
3919.43501	0.01112
3917.37540	0.01178
3915.31579	0.01220
3913.25618	0.01200
3911.19658	0.01149
3909.13697	0.01120
3907.07736	0.01134
3905.01775	0.01181
3902.95814	0.01231
3900.89853	0.01239
3898.83892	0.01225
3896.77932	0.01246
3894.71971	0.01284
3892.66010	0.01298
3890.60049	0.01289
3888.54088	0.01291
3886.48127	0.01285
3884.42166	0.01221
3882.36206	0.01151
3880.30245	0.01145
3878.24284	0.01177
3876.18323	0.01209
3874.12362	0.01247
3872.06401	0.01268
3870.00441	0.01258
3867.94480	0.01250
3865.88519	0.01228
3863.82558	0.01193
3861.76597	0.01206
3859.70636	0.01256
3857.64675	0.01270
3855.58715	0.01232
3853.52754	0.01201
3851.46793	0.01225
3849.40832	0.01280
3847.34871	0.01336
3845.28910	0.01341
3843.22949	0.01278
3841.16989	0.01226
3839.11028	0.01247
3837.05067	0.01322
3834.99106	0.01408
3832.93145	0.01465
3830.87184	0.01481
3828.81223	0.01443
3826.75263	0.01374
3824.69302	0.01368
3822.63341	0.01437
3820.57380	0.01478
3818.51419	0.01473
3816.45458	0.01464
3814.39498	0.01430
3812.33537	0.01390
3810.27576	0.01385
3808.21615	0.01421
3806.15654	0.01487
3804.09693	0.01518
3802.03732	0.01461
3799.97772	0.01408
3797.91811	0.01445
3795.85850	0.01506
3793.79889	0.01551
3791.73928	0.01605
3789.67967	0.01662
3787.62006	0.01685
3785.56046	0.01664
3783.50085	0.01630
3781.44124	0.01627
3779.38163	0.01666
3777.32202	0.01716
3775.26241	0.01741
3773.20280	0.01735
3771.14320	0.01731
3769.08359	0.01771
3767.02398	0.01842
3764.96437	0.01904
3762.90476	0.01970
3760.84515	0.02038
3758.78555	0.02067
3756.72594	0.02064
3754.66633	0.02049
3752.60672	0.02039
3750.54711	0.02067
3748.48750	0.02120
3746.42789	0.02148
3744.36829	0.02178
3742.30868	0.02251
3740.24907	0.02345
3738.18946	0.02407
3736.12985	0.02440
3734.07024	0.02491
3732.01063	0.02531
3729.95103	0.02530
3727.89142	0.02576
3725.83181	0.02711
3723.77220	0.02810
3721.71259	0.02809
3719.65298	0.02818
3717.59337	0.02893
3715.53377	0.03002
3713.47416	0.03142
3711.41455	0.03358
3709.35494	0.03595
3707.29533	0.03770
3705.23572	0.03915
3703.17612	0.04115
3701.11651	0.04385
3699.05690	0.04646
3696.99729	0.04863
3694.93768	0.05080
3692.87807	0.05333
3690.81846	0.05680
3688.75886	0.06109
3686.69925	0.06521
3684.63964	0.06892
3682.58003	0.07285
3680.52042	0.07703
3678.46081	0.08109
3676.40120	0.08557
3674.34160	0.09112
3672.28199	0.09694
3670.22238	0.10331
3668.16277	0.11011
3666.10316	0.11617
3664.04355	0.12231
3661.98394	0.12932
3659.92434	0.13658
3657.86473	0.14355
3655.80512	0.15037
3653.74551	0.15617
3651.68590	0.16135
3649.62629	0.16850
3647.56669	0.17774
3645.50708	0.18584
3643.44747	0.19221
3641.38786	0.19844
3639.32825	0.20516
3637.26864	0.21163
3635.20903	0.21732
3633.14943	0.22265
3631.08982	0.22846
3629.03021	0.23583
3626.97060	0.24326
3624.91099	0.24853
3622.85138	0.25284
3620.79177	0.25794
3618.73217	0.26440
3616.67256	0.27121
3614.61295	0.27759
3612.55334	0.28381
3610.49373	0.28969
3608.43412	0.29533
3606.37451	0.30059
3604.31491	0.30529
3602.25530	0.31028
3600.19569	0.31586
3598.13608	0.32156
3596.07647	0.32764
3594.01686	0.33441
3591.95726	0.34065
3589.89765	0.34539
3587.83804	0.35048
3585.77843	0.35717
3583.71882	0.36436
3581.65921	0.37119
3579.59960	0.37769
3577.54000	0.38397
3575.48039	0.39022
3573.42078	0.39617
3571.36117	0.40148
3569.30156	0.40746
3567.24195	0.41604
3565.18234	0.42542
3563.12274	0.43236
3561.06313	0.43803
3559.00352	0.44432
3556.94391	0.45087
3554.88430	0.45729
3552.82469	0.46424
3550.76508	0.47121
3548.70548	0.47745
3546.64587	0.48430
3544.58626	0.49277
3542.52665	0.50126
3540.46704	0.50818
3538.40743	0.51428
3536.34783	0.52139
3534.28822	0.52936
3532.22861	0.53679
3530.16900	0.54397
3528.10939	0.55154
3526.04978	0.55926
3523.99017	0.56716
3521.93057	0.57499
3519.87096	0.58212
3517.81135	0.58901
3515.75174	0.59625
3513.69213	0.60357
3511.63252	0.61083
3509.57291	0.61823
3507.51331	0.62559
3505.45370	0.63285
3503.39409	0.64089
3501.33448	0.64921
3499.27487	0.65642
3497.21526	0.66336
3495.15565	0.67099
3493.09605	0.67860
3491.03644	0.68598
3488.97683	0.69374
3486.91722	0.70201
3484.85761	0.71027
3482.79800	0.71794
3480.73840	0.72505
3478.67879	0.73216
3476.61918	0.73993
3474.55957	0.74820
3472.49996	0.75599
3470.44035	0.76319
3468.38074	0.77075
3466.32114	0.77894
3464.26153	0.78680
3462.20192	0.79389
3460.14231	0.80119
3458.08270	0.80975
3456.02309	0.81860
3453.96348	0.82618
3451.90388	0.83318
3449.84427	0.84089
3447.78466	0.84905
3445.72505	0.85729
3443.66544	0.86539
3441.60583	0.87310
3439.54622	0.88020
3437.48662	0.88733
3435.42701	0.89515
3433.36740	0.90322
3431.30779	0.91084
3429.24818	0.91809
3427.18857	0.92552
3425.12897	0.93306
3423.06936	0.94079
3421.00975	0.94868
3418.95014	0.95643
3416.89053	0.96371
3414.83092	0.97020
3412.77131	0.97649
3410.71171	0.98326
3408.65210	0.98986
3406.59249	0.99552
3404.53288	1.00085
3402.47327	1.00677
3400.41366	1.01330
3398.35405	1.02008
3396.29445	1.02650
3394.23484	1.03178
3392.17523	1.03607
3390.11562	1.03997
3388.05601	1.04484
3385.99640	1.05082
3383.93679	1.05597
3381.87719	1.05931
3379.81758	1.06169
3377.75797	1.06437
3375.69836	1.06811
3373.63875	1.07263
3371.57914	1.07594
3369.51954	1.07726
3367.45993	1.07892
3365.40032	1.08232
3363.34071	1.08599
3361.28110	1.08856
3359.22149	1.08993
3357.16188	1.09084
3355.10228	1.09205
3353.04267	1.09286
3350.98306	1.09316
3348.92345	1.09426
3346.86384	1.09566
3344.80423	1.09595
3342.74462	1.09601
3340.68502	1.09675
3338.62541	1.09736
3336.56580	1.09756
3334.50619	1.09742
3332.44658	1.09639
3330.38697	1.09543
3328.32736	1.09540
3326.26776	1.09534
3324.20815	1.09494
3322.14854	1.09472
3320.08893	1.09466
3318.02932	1.09445
3315.96971	1.09390
3313.91011	1.09296
3311.85050	1.09196
3309.79089	1.09110
3307.73128	1.09029
3305.67167	1.08968
3303.61206	1.08928
3301.55245	1.08904
3299.49285	1.08856
3297.43324	1.08765
3295.37363	1.08713
3293.31402	1.08712
3291.25441	1.08690
3289.19480	1.08609
3287.13519	1.08498
3285.07559	1.08438
3283.01598	1.08409
3280.95637	1.08290
3278.89676	1.08115
3276.83715	1.08004
3274.77754	1.07913
3272.71793	1.07810
3270.65833	1.07749
3268.59872	1.07677
3266.53911	1.07558
3264.47950	1.07399
3262.41989	1.07188
3260.36028	1.07008
3258.30068	1.06854
3256.24107	1.06650
3254.18146	1.06415
3252.12185	1.06148
3250.06224	1.05895
3248.00263	1.05689
3245.94302	1.05466
3243.88342	1.05189
3241.82381	1.04863
3239.76420	1.04550
3237.70459	1.04296
3235.64498	1.03989
3233.58537	1.03518
3231.52576	1.02974
3229.46616	1.02488
3227.40655	1.02041
3225.34694	1.01568
3223.28733	1.01070
3221.22772	1.00566
3219.16811	1.00051
3217.10850	0.99477
3215.04890	0.98831
3212.98929	0.98174
3210.92968	0.97526
3208.87007	0.96832
3206.81046	0.96084
3204.75085	0.95352
3202.69125	0.94660
3200.63164	0.93921
3198.57203	0.93096
3196.51242	0.92257
3194.45281	0.91405
3192.39320	0.90523
3190.33359	0.89635
3188.27399	0.88720
3186.21438	0.87758
3184.15477	0.86766
3182.09516	0.85795
3180.03555	0.84886
3177.97594	0.83976
3175.91633	0.82988
3173.85673	0.81968
3171.79712	0.80946
3169.73751	0.79891
3167.67790	0.78818
3165.61829	0.77768
3163.55868	0.76760
3161.49907	0.75767
3159.43947	0.74715
3157.37986	0.73619
3155.32025	0.72542
3153.26064	0.71500
3151.20103	0.70469
3149.14142	0.69410
3147.08182	0.68343
3145.02221	0.67304
3142.96260	0.66275
3140.90299	0.65240
3138.84338	0.64220
3136.78377	0.63232
3134.72416	0.62256
3132.66456	0.61256
3130.60495	0.60237
3128.54534	0.59236
3126.48573	0.58265
3124.42612	0.57297
3122.36651	0.56329
3120.30690	0.55351
3118.24730	0.54360
3116.18769	0.53423
3114.12808	0.52538
3112.06847	0.51634
3110.00886	0.50734
3107.94925	0.49871
3105.88965	0.49016
3103.83004	0.48178
3101.77043	0.47349
3099.71082	0.46488
3097.65121	0.45637
3095.59160	0.44839
3093.53199	0.44062
3091.47239	0.43271
3089.41278	0.42461
3087.35317	0.41660
3085.29356	0.40902
3083.23395	0.40178
3081.17434	0.39484
3079.11473	0.38824
3077.05513	0.38141
3074.99552	0.37416
3072.93591	0.36699
3070.87630	0.35997
3068.81669	0.35279
3066.75708	0.34574
3064.69747	0.33899
3062.63787	0.33226
3060.57826	0.32556
3058.51865	0.31914
3056.45904	0.31296
3054.39943	0.30682
3052.33982	0.30084
3050.28022	0.29501
3048.22061	0.28913
3046.16100	0.28318
3044.10139	0.27723
3042.04178	0.27146
3039.98217	0.26600
3037.92256	0.26069
3035.86296	0.25526
3033.80335	0.24976
3031.74374	0.24464
3029.68413	0.24002
3027.62452	0.23555
3025.56491	0.23098
3023.50530	0.22627
3021.44570	0.22138
3019.38609	0.21659
3017.32648	0.21197
3015.26687	0.20757
3013.20726	0.20360
3011.14765	0.19982
3009.08804	0.19612
3007.02844	0.19257
3004.96883	0.18895
3002.90922	0.18519
3000.84961	0.18146
2998.79000	0.17793
2996.73039	0.17453
2994.67079	0.17135
2992.61118	0.16842
2990.55157	0.16530
2988.49196	0.16204
2986.43235	0.15898
2984.37274	0.15613
2982.31313	0.15336
2980.25353	0.15062
2978.19392	0.14780
2976.13431	0.14478
2974.07470	0.14194
2972.01509	0.13943
2969.95548	0.13697
2967.89587	0.13461
2965.83627	0.13241
2963.77666	0.13021
2961.71705	0.12797
2959.65744	0.12573
2957.59783	0.12356
2955.53822	0.12149
2953.47861	0.11925
2951.41901	0.11692
2949.35940	0.11498
2947.29979	0.11318
2945.24018	0.11105
2943.18057	0.10898
2941.12096	0.10719
2939.06136	0.10530
2937.00175	0.10326
2934.94214	0.10133
2932.88253	0.09952
2930.82292	0.09755
2928.76331	0.09555
2926.70370	0.09382
2924.64410	0.09211
2922.58449	0.09029
2920.52488	0.08835
2918.46527	0.08621
2916.40566	0.08435
2914.34605	0.08294
2912.28644	0.08140
2910.22684	0.07956
2908.16723	0.07772
2906.10762	0.07606
2904.04801	0.07449
2901.98840	0.07283
2899.92879	0.07134
2897.86918	0.07033
2895.80958	0.06951
2893.74997	0.06847
2891.69036	0.06715
2889.63075	0.06572
2887.57114	0.06444
2885.51153	0.06339
2883.45193	0.06242
2881.39232	0.06142
2879.33271	0.06055
2877.27310	0.05972
2875.21349	0.05870
2873.15388	0.05748
2871.09427	0.05614
2869.03467	0.05483
2866.97506	0.05377
2864.91545	0.05304
2862.85584	0.05240
2860.79623	0.05153
2858.73662	0.05069
2856.67701	0.05017
2854.61741	0.04955
2852.55780	0.04856
2850.49819	0.04750
2848.43858	0.04656
2846.37897	0.04567
2844.31936	0.04473
2842.25975	0.04390
2840.20015	0.04333
2838.14054	0.04286
2836.08093	0.04225
2834.02132	0.04148
2831.96171	0.04076
2829.90210	0.04006
2827.84250	0.03930
2825.78289	0.03871
2823.72328	0.03818
2821.66367	0.03748
2819.60406	0.03688
2817.54445	0.03648
2815.48484	0.03596
2813.42524	0.03532
2811.36563	0.03479
2809.30602	0.03423
2807.24641	0.03354
2805.18680	0.03304
2803.12719	0.03268
2801.06758	0.03225
2799.00798	0.03192
2796.94837	0.03169
2794.88876	0.03135
2792.82915	0.03096
2790.76954	0.03056
2788.70993	0.02985
2786.65032	0.02918
2784.59072	0.02898
2782.53111	0.02866
2780.47150	0.02791
2778.41189	0.02739
2776.35228	0.02729
2774.29267	0.02722
2772.23307	0.02702
2770.17346	0.02666
2768.11385	0.02617
2766.05424	0.02577
2763.99463	0.02552
2761.93502	0.02525
2759.87541	0.02492
2757.81581	0.02461
2755.75620	0.02432
2753.69659	0.02415
2751.63698	0.02412
2749.57737	0.02376
2747.51776	0.02305
2745.45815	0.02258
2743.39855	0.02245
2741.33894	0.02232
2739.27933	0.02199
2737.21972	0.02161
2735.16011	0.02136
2733.10050	0.02121
2731.04089	0.02093
2728.98129	0.02049
2726.92168	0.02039
2724.86207	0.02067
2722.80246	0.02064
2720.74285	0.02018
2718.68324	0.01978
2716.62364	0.01970
2714.56403	0.01977
2712.50442	0.01963
2710.44481	0.01925
2708.38520	0.01901
2706.32559	0.01905
2704.26598	0.01904
2702.20638	0.01874
2700.14677	0.01850
2698.08716	0.01843
2696.02755	0.01819
2693.96794	0.01799
2691.90833	0.01811
2689.84872	0.01825
2687.78912	0.01811
2685.72951	0.01784
2683.66990	0.01774
2681.61029	0.01778
2679.55068	0.01772
2677.49107	0.01754
2675.43146	0.01731
2673.37186	0.01725
2671.31225	0.01736
2669.25264	0.01737
2667.19303	0.01714
2665.13342	0.01678
2663.07381	0.01659
2661.01421	0.01664
2658.95460	0.01680
2656.89499	0.01700
2654.83538	0.01696
2652.77577	0.01670
2650.71616	0.01653
2648.65655	0.01645
2646.59695	0.01629
2644.53734	0.01620
2642.47773	0.01621
2640.41812	0.01619
2638.35851	0.01622
2636.29890	0.01615
2634.23929	0.01590
2632.17969	0.01586
2630.12008	0.01593
2628.06047	0.01563
2626.00086	0.01507
2623.94125	0.01468
2621.88164	0.01470
2619.82203	0.01514
2617.76243	0.01543
2615.70282	0.01524
2613.64321	0.01514
2611.58360	0.01528
2609.52399	0.01529
2607.46438	0.01515
2605.40478	0.01486
2603.34517	0.01442
2601.28556	0.01425
2599.22595	0.01452
2597.16634	0.01486
2595.10673	0.01509
2593.04712	0.01508
2590.98752	0.01480
2588.92791	0.01488
2586.86830	0.01543
2584.80869	0.01567
2582.74908	0.01530
2580.68947	0.01492
2578.62986	0.01496
2576.57026	0.01504
2574.51065	0.01496
2572.45104	0.01503
2570.39143	0.01514
2568.33182	0.01510
2566.27221	0.01489
2564.21260	0.01455
2562.15300	0.01444
2560.09339	0.01459
2558.03378	0.01478
2555.97417	0.01514
2553.91456	0.01553
2551.85495	0.01579
2549.79535	0.01603
2547.73574	0.01614
2545.67613	0.01603
2543.61652	0.01580
2541.55691	0.01545
2539.49730	0.01527
2537.43769	0.01537
2535.37809	0.01529
2533.31848	0.01512
2531.25887	0.01533
2529.19926	0.01570
2527.13965	0.01597
2525.08004	0.01615
2523.02043	0.01617
2520.96083	0.01606
2518.90122	0.01613
2516.84161	0.01620
2514.78200	0.01612
2512.72239	0.01634
2510.66278	0.01674
2508.60317	0.01681
2506.54357	0.01645
2504.48396	0.01591
2502.42435	0.01563
2500.36474	0.01583
2498.30513	0.01631
2496.24552	0.01684
2494.18592	0.01724
2492.12631	0.01739
2490.06670	0.01753
2488.00709	0.01761
2485.94748	0.01727
2483.88787	0.01684
2481.82826	0.01660
2479.76866	0.01640
2477.70905	0.01642
2475.64944	0.01668
2473.58983	0.01697
2471.53022	0.01719
2469.47061	0.01729
2467.41100	0.01739
2465.35140	0.01772
2463.29179	0.01810
2461.23218	0.01825
2459.17257	0.01840
2457.11296	0.01861
2455.05335	0.01870
2452.99374	0.01854
2450.93414	0.01830
2448.87453	0.01863
2446.81492	0.01928
2444.75531	0.01949
2442.69570	0.01928
2440.63609	0.01908
2438.57649	0.01913
2436.51688	0.01926
2434.45727	0.01926
2432.39766	0.01928
2430.33805	0.01945
2428.27844	0.01980
2426.21883	0.02000
2424.15923	0.01998
2422.09962	0.02019
2420.04001	0.02054
2417.98040	0.02046
2415.92079	0.02023
2413.86118	0.02047
2411.80157	0.02090
2409.74197	0.02110
2407.68236	0.02101
2405.62275	0.02068
2403.56314	0.02048
2401.50353	0.02066
2399.44392	0.02098
2397.38431	0.02131
2395.32471	0.02151
2393.26510	0.02164
2391.20549	0.02199
2389.14588	0.02251
2387.08627	0.02278
2385.02666	0.02270
2382.96706	0.02271
2380.90745	0.02314
2378.84784	0.02385
2376.78823	0.02485
2374.72862	0.02454
2372.66901	0.02438
2370.60940	0.02527
2368.54980	0.02527
2366.49019	0.02644
2364.43058	0.02656
2362.37097	0.02612
2360.31136	0.02768
2358.25175	0.02711
2356.19214	0.02671
2354.13254	0.02624
2352.07293	0.02603
2350.01332	0.02946
2347.95371	0.02872
2345.89410	0.02630
2343.83449	0.02715
2341.77488	0.02633
2339.71528	0.02815
2337.65567	0.02924
2335.59606	0.02809
2333.53645	0.02885
2331.47684	0.02804
2329.41723	0.02934
2327.35763	0.02794
2325.29802	0.02797
2323.23841	0.02740
2321.17880	0.02723
2319.11919	0.02717
2317.05958	0.02720
2314.99997	0.02764
2312.94037	0.02768
2310.88076	0.02754
2308.82115	0.02770
2306.76154	0.02805
2304.70193	0.02875
2302.64232	0.02926
2300.58271	0.02927
2298.52311	0.02908
2296.46350	0.02887
2294.40389	0.02853
2292.34428	0.02850
2290.28467	0.02864
2288.22506	0.02879
2286.16545	0.02899
2284.10585	0.02923
2282.04624	0.02910
2279.98663	0.02856
2277.92702	0.02835
2275.86741	0.02881
2273.80780	0.02915
2271.74820	0.02903
2269.68859	0.02937
2267.62898	0.03010
2265.56937	0.03029
2263.50976	0.03011
2261.45015	0.03013
2259.39054	0.02996
2257.33094	0.02955
2255.27133	0.02957
2253.21172	0.03027
2251.15211	0.03097
2249.09250	0.03134
2247.03289	0.03176
2244.97328	0.03202
2242.91368	0.03202
2240.85407	0.03190
2238.79446	0.03136
2236.73485	0.03095
2234.67524	0.03066
2232.61563	0.03061
2230.55602	0.03143
2228.49642	0.03236
2226.43681	0.03283
2224.37720	0.03319
2222.31759	0.03324
2220.25798	0.03292
2218.19837	0.03275
2216.13877	0.03284
2214.07916	0.03313
2212.01955	0.03335
2209.95994	0.03361
2207.90033	0.03345
2205.84072	0.03243
2203.78111	0.03168
2201.72151	0.03164
2199.66190	0.03204
2197.60229	0.03271
2195.54268	0.03320
2193.48307	0.03396
2191.42346	0.03503
2189.36385	0.03522
2187.30425	0.03431
2185.24464	0.03321
2183.18503	0.03251
2181.12542	0.03260
2179.06581	0.03345
2177.00620	0.03419
2174.94659	0.03471
2172.88699	0.03524
2170.82738	0.03427
2168.76777	0.03119
2166.70816	0.02893
2164.64855	0.02947
2162.58894	0.03073
2160.52934	0.03070
2158.46973	0.03024
2156.41012	0.03101
2154.35051	0.03238
2152.29090	0.03331
2150.23129	0.03436
2148.17168	0.03581
2146.11208	0.03648
2144.05247	0.03611
2141.99286	0.03626
2139.93325	0.03718
2137.87364	0.03789
2135.81403	0.03812
2133.75442	0.03806
2131.69482	0.03801
2129.63521	0.03837
2127.57560	0.03893
2125.51599	0.03930
2123.45638	0.03962
2121.39677	0.03966
2119.33716	0.03919
2117.27756	0.03893
2115.21795	0.03906
2113.15834	0.03896
2111.09873	0.03885
2109.03912	0.03899
2106.97951	0.03898
2104.91991	0.03915
2102.86030	0.03974
2100.80069	0.03987
2098.74108	0.03950
2096.68147	0.03927
2094.62186	0.03889
2092.56225	0.03810
2090.50265	0.03753
2088.44304	0.03753
2086.38343	0.03765
2084.32382	0.03769
2082.26421	0.03787
2080.20460	0.03783
2078.14499	0.03737
2076.08539	0.03705
2074.02578	0.03694
2071.96617	0.03655
2069.90656	0.03571
2067.84695	0.03492
2065.78734	0.03484
2063.72773	0.03497
2061.66813	0.03436
2059.60852	0.03355
2057.54891	0.03337
2055.48930	0.03333
2053.42969	0.03303
2051.37008	0.03250
2049.31048	0.03165
2047.25087	0.03074
2045.19126	0.03038
2043.13165	0.03024
2041.07204	0.02975
2039.01243	0.02913
2036.95282	0.02847
2034.89322	0.02780
2032.83361	0.02701
2030.77400	0.02624
2028.71439	0.02580
2026.65478	0.02562
2024.59517	0.02606
2022.53556	0.02694
2020.47596	0.02699
2018.41635	0.02658
2016.35674	0.02687
2014.29713	0.02670
2012.23752	0.02557
2010.17791	0.02512
2008.11830	0.02581
2006.05870	0.02661
2003.99909	0.02687
2001.93948	0.02678
1999.87987	0.02643
1997.82026	0.02565
1995.76065	0.02504
1993.70105	0.02514
1991.64144	0.02494
1989.58183	0.02409
1987.52222	0.02387
1985.46261	0.02413
1983.40300	0.02363
1981.34339	0.02295
1979.28379	0.02304
1977.22418	0.02308
1975.16457	0.02279
1973.10496	0.02262
1971.04535	0.02237
1968.98574	0.02266
1966.92613	0.02370
1964.86653	0.02393
1962.80692	0.02286
1960.74731	0.02129
1958.68770	0.02029
1956.62809	0.02072
1954.56848	0.02191
1952.50887	0.02255
1950.44927	0.02254
1948.38966	0.02236
1946.33005	0.02204
1944.27044	0.02166
1942.21083	0.02185
1940.15122	0.02246
1938.09162	0.02256
1936.03201	0.02237
1933.97240	0.02260
1931.91279	0.02298
1929.85318	0.02291
1927.79357	0.02251
1925.73396	0.02230
1923.67436	0.02224
1921.61475	0.02206
1919.55514	0.02175
1917.49553	0.02147
1915.43592	0.02141
1913.37631	0.02143
1911.31670	0.02144
1909.25710	0.02170
1907.19749	0.02208
1905.13788	0.02217
1903.07827	0.02209
1901.01866	0.02192
1898.95905	0.02163
1896.89944	0.02154
1894.83984	0.02175
1892.78023	0.02185
1890.72062	0.02189
1888.66101	0.02219
1886.60140	0.02235
1884.54179	0.02205
1882.48219	0.02174
1880.42258	0.02176
1878.36297	0.02185
1876.30336	0.02183
1874.24375	0.02187
1872.18414	0.02195
1870.12453	0.02176
1868.06493	0.02153
1866.00532	0.02169
1863.94571	0.02193
1861.88610	0.02196
1859.82649	0.02200
1857.76688	0.02224
1855.70727	0.02251
1853.64767	0.02266
1851.58806	0.02276
1849.52845	0.02290
1847.46884	0.02300
1845.40923	0.02296
1843.34962	0.02296
1841.29002	0.02323
1839.23041	0.02359
1837.17080	0.02370
1835.11119	0.02362
1833.05158	0.02367
1830.99197	0.02388
1828.93236	0.02410
1826.87276	0.02429
1824.81315	0.02453
1822.75354	0.02485
1820.69393	0.02508
1818.63432	0.02514
1816.57471	0.02516
1814.51510	0.02521
1812.45550	0.02527
1810.39589	0.02541
1808.33628	0.02573
1806.27667	0.02608
1804.21706	0.02636
1802.15745	0.02666
1800.09784	0.02710
1798.03824	0.02749
1795.97863	0.02768
1793.91902	0.02781
1791.85941	0.02812
1789.79980	0.02871
1787.74019	0.02935
1785.68059	0.02980
1783.62098	0.03002
1781.56137	0.03019
1779.50176	0.03049
1777.44215	0.03090
1775.38254	0.03133
1773.32293	0.03187
1771.26333	0.03255
1769.20372	0.03320
1767.14411	0.03376
1765.08450	0.03431
1763.02489	0.03492
1760.96528	0.03567
1758.90567	0.03654
1756.84607	0.03754
1754.78646	0.03862
1752.72685	0.03954
1750.66724	0.04037
1748.60763	0.04140
1746.54802	0.04269
1744.48841	0.04400
1742.42881	0.04530
1740.36920	0.04667
1738.30959	0.04795
1736.24998	0.04918
1734.19037	0.05096
1732.13076	0.05315
1730.07116	0.05516
1728.01155	0.05711
1725.95194	0.05909
1723.89233	0.06125
1721.83272	0.06344
1719.77311	0.06570
1717.71350	0.06860
1715.65390	0.07211
1713.59429	0.07552
1711.53468	0.07872
1709.47507	0.08193
1707.41546	0.08560
1705.35585	0.08989
1703.29624	0.09415
1701.23664	0.09898
1699.17703	0.10522
1697.11742	0.11198
1695.05781	0.11889
1692.99820	0.12507
1690.93859	0.13071
1688.87898	0.13655
1686.81938	0.14264
1684.75977	0.15080
1682.70016	0.16076
1680.64055	0.16870
1678.58094	0.17502
1676.52133	0.18204
1674.46173	0.19026
1672.40212	0.19832
1670.34251	0.20695
1668.28290	0.21652
1666.22329	0.22453
1664.16368	0.23180
1662.10407	0.24028
1660.04447	0.24834
1657.98486	0.25421
1655.92525	0.25933
1653.86564	0.26748
1651.80603	0.27759
1649.74642	0.28348
1647.68681	0.28760
1645.62721	0.29268
1643.56760	0.29648
1641.50799	0.29823
1639.44838	0.29879
1637.38877	0.29881
1635.32916	0.29836
1633.26955	0.29650
1631.20995	0.29285
1629.15034	0.28780
1627.09073	0.28176
1625.03112	0.27481
1622.97151	0.26686
1620.91190	0.25886
1618.85230	0.25086
1616.79269	0.24136
1614.73308	0.23130
1612.67347	0.22233
1610.61386	0.21366
1608.55425	0.20487
1606.49464	0.19647
1604.43504	0.18862
1602.37543	0.18113
1600.31582	0.17421
1598.25621	0.16793
1596.19660	0.16202
1594.13699	0.15647
1592.07738	0.15154
1590.01778	0.14717
1587.95817	0.14324
1585.89856	0.13974
1583.83895	0.13670
1581.77934	0.13410
1579.71973	0.13183
1577.66012	0.12986
1575.60052	0.12841
1573.54091	0.12752
1571.48130	0.12684
1569.42169	0.12622
1567.36208	0.12563
1565.30247	0.12510
1563.24287	0.12458
1561.18326	0.12400
1559.12365	0.12361
1557.06404	0.12366
1555.00443	0.12348
1552.94482	0.12281
1550.88521	0.12184
1548.82561	0.12079
1546.76600	0.11972
1544.70639	0.11849
1542.64678	0.11691
1540.58717	0.11509
1538.52756	0.11354
1536.46795	0.11232
1534.40835	0.11079
1532.34874	0.10883
1530.28913	0.10686
1528.22952	0.10482
1526.16991	0.10259
1524.11030	0.10043
1522.05069	0.09858
1519.99109	0.09715
1517.93148	0.09567
1515.87187	0.09359
1513.81226	0.09113
1511.75265	0.08860
1509.69304	0.08593
1507.63344	0.08320
1505.57383	0.08122
1503.51422	0.08018
1501.45461	0.07923
1499.39500	0.07807
1497.33539	0.07689
1495.27578	0.07588
1493.21618	0.07497
1491.15657	0.07403
1489.09696	0.07320
1487.03735	0.07266
1484.97774	0.07225
1482.91813	0.07187
1480.85852	0.07154
1478.79892	0.07126
1476.73931	0.07095
1474.67970	0.07065
1472.62009	0.07057
1470.56048	0.07074
1468.50087	0.07085
1466.44126	0.07086
1464.38166	0.07088
1462.32205	0.07085
1460.26244	0.07065
1458.20283	0.07047
1456.14322	0.07060
1454.08361	0.07073
1452.02401	0.07054
1449.96440	0.07012
1447.90479	0.06958
1445.84518	0.06899
1443.78557	0.06841
1441.72596	0.06790
1439.66635	0.06744
1437.60675	0.06701
1435.54714	0.06674
1433.48753	0.06664
1431.42792	0.06659
1429.36831	0.06664
1427.30870	0.06680
1425.24909	0.06701
1423.18949	0.06720
1421.12988	0.06723
1419.07027	0.06715
1417.01066	0.06719
1414.95105	0.06733
1412.89144	0.06732
1410.83183	0.06701
1408.77223	0.06641
1406.71262	0.06574
1404.65301	0.06520
1402.59340	0.06483
1400.53379	0.06459
1398.47418	0.06453
1396.41458	0.06466
1394.35497	0.06494
1392.29536	0.06517
1390.23575	0.06518
1388.17614	0.06510
1386.11653	0.06512
1384.05692	0.06517
1381.99732	0.06507
1379.93771	0.06477
1377.87810	0.06433
1375.81849	0.06381
1373.75888	0.06333
1371.69927	0.06300
1369.63966	0.06272
1367.58006	0.06239
1365.52045	0.06206
1363.46084	0.06177
1361.40123	0.06155
1359.34162	0.06138
1357.28201	0.06125
1355.22240	0.06115
1353.16280	0.06112
1351.10319	0.06119
1349.04358	0.06134
1346.98397	0.06153
1344.92436	0.06176
1342.86475	0.06198
1340.80515	0.06212
1338.74554	0.06224
1336.68593	0.06237
1334.62632	0.06224
1332.56671	0.06185
1330.50710	0.06140
1328.44749	0.06104
1326.38789	0.06074
1324.32828	0.06046
1322.26867	0.06019
1320.20906	0.05996
1318.14945	0.05986
1316.08984	0.05988
1314.03023	0.05995
1311.97063	0.06009
1309.91102	0.06026
1307.85141	0.06036
1305.79180	0.06037
1303.73219	0.06036
1301.67258	0.06037
1299.61297	0.06039
1297.55337	0.06037
1295.49376	0.06037
1293.43415	0.06040
1291.37454	0.06043
1289.31493	0.06048
1287.25532	0.06055
1285.19572	0.06055
1283.13611	0.06055
1281.07650	0.06062
1279.01689	0.06073
1276.95728	0.06093
1274.89767	0.06117
1272.83806	0.06141
1270.77846	0.06162
1268.71885	0.06175
1266.65924	0.06191
1264.59963	0.06214
1262.54002	0.06240
1260.48041	0.06266
1258.42080	0.06297
1256.36120	0.06323
1254.30159	0.06335
1252.24198	0.06342
1250.18237	0.06352
1248.12276	0.06352
1246.06315	0.06336
1244.00354	0.06315
1241.94394	0.06290
1239.88433	0.06253
1237.82472	0.06195
1235.76511	0.06118
1233.70550	0.06038
1231.64589	0.05959
1229.58629	0.05882
1227.52668	0.05810
1225.46707	0.05746
1223.40746	0.05685
1221.34785	0.05623
1219.28824	0.05568
1217.22863	0.05531
1215.16903	0.05497
1213.10942	0.05451
1211.04981	0.05410
1208.99020	0.05387
1206.93059	0.05369
1204.87098	0.05351
1202.81137	0.05329
1200.75177	0.05305
1198.69216	0.05286
1196.63255	0.05271
1194.57294	0.05258
1192.51333	0.05247
1190.45372	0.05235
1188.39411	0.05230
1186.33451	0.05240
1184.27490	0.05249
1182.21529	0.05257
1180.15568	0.05265
1178.09607	0.05270
1176.03646	0.05273
1173.97686	0.05276
1171.91725	0.05273
1169.85764	0.05260
1167.79803	0.05246
1165.73842	0.05239
1163.67881	0.05228
1161.61920	0.05204
1159.55960	0.05179
1157.49999	0.05160
1155.44038	0.05149
1153.38077	0.05144
1151.32116	0.05126
1149.26155	0.05097
1147.20194	0.05080
1145.14234	0.05070
1143.08273	0.05050
1141.02312	0.05023
1138.96351	0.05000
1136.90390	0.04986
1134.84429	0.04982
1132.78468	0.04976
1130.72508	0.04965
1128.66547	0.04962
1126.60586	0.04965
1124.54625	0.04965
1122.48664	0.04958
1120.42703	0.04947
1118.36743	0.04940
1116.30782	0.04943
1114.24821	0.04950
1112.18860	0.04950
1110.12899	0.04941
1108.06938	0.04931
1106.00977	0.04928
1103.95017	0.04926
1101.89056	0.04918
1099.83095	0.04899
1097.77134	0.04882
1095.71173	0.04880
1093.65212	0.04879
1091.59251	0.04881
1089.53291	0.04898
1087.47330	0.04916
1085.41369	0.04920
1083.35408	0.04928
1081.29447	0.04953
1079.23486	0.04979
1077.17525	0.04987
1075.11565	0.04984
1073.05604	0.04973
1070.99643	0.04955
1068.93682	0.04957
1066.87721	0.04972
1064.81760	0.04978
1062.75800	0.04983
1060.69839	0.04995
1058.63878	0.05008
1056.57917	0.05022
1054.51956	0.05028
1052.45995	0.05025
1050.40034	0.05017
1048.34074	0.05003
1046.28113	0.04986
1044.22152	0.04980
1042.16191	0.04988
1040.10230	0.04990
1038.04269	0.04979
1035.98308	0.04966
1033.92348	0.04965
1031.86387	0.04978
1029.80426	0.04994
1027.74465	0.05003
1025.68504	0.05009
1023.62543	0.05019
1021.56582	0.05039
1019.50622	0.05071
1017.44661	0.05103
1015.38700	0.05119
1013.32739	0.05118
1011.26778	0.05115
1009.20817	0.05116
1007.14857	0.05123
1005.08896	0.05129
1003.02935	0.05122
1000.96974	0.05118
998.91013	0.05137
996.85052	0.05167
994.79091	0.05187
992.73131	0.05199
990.67170	0.05216
988.61209	0.05242
986.55248	0.05275
984.49287	0.05301
982.43326	0.05319
980.37365	0.05346
978.31405	0.05387
976.25444	0.05424
974.19483	0.05451
972.13522	0.05477
970.07561	0.05517
968.01600	0.05574
965.95639	0.05631
963.89679	0.05677
961.83718	0.05724
959.77757	0.05773
957.71796	0.05820
955.65835	0.05865
953.59874	0.05916
951.53914	0.05977
949.47953	0.06039
947.41992	0.06104
945.36031	0.06173
943.30070	0.06241
941.24109	0.06310
939.18148	0.06379
937.12188	0.06447
935.06227	0.06522
933.00266	0.06595
930.94305	0.06656
928.88344	0.06715
926.82383	0.06794
924.76422	0.06888
922.70462	0.06973
920.64501	0.07049
918.58540	0.07143
916.52579	0.07257
914.46618	0.07358
912.40657	0.07444
910.34696	0.07541
908.28736	0.07644
906.22775	0.07742
904.16814	0.07844
902.10853	0.07962
900.04892	0.08089
897.98931	0.08211
895.92971	0.08334
893.87010	0.08461
891.81049	0.08581
889.75088	0.08700
887.69127	0.08829
885.63166	0.08962
883.57205	0.09094
881.51245	0.09232
879.45284	0.09367
877.39323	0.09498
875.33362	0.09644
873.27401	0.09796
871.21440	0.09938
869.15479	0.10076
867.09519	0.10218
865.03558	0.10364
862.97597	0.10511
860.91636	0.10670
858.85675	0.10850
856.79714	0.11021
854.73753	0.11166
852.67793	0.11314
850.61832	0.11479
848.55871	0.11641
846.49910	0.11797
844.43949	0.11952
842.37988	0.12104
840.32028	0.12249
838.26067	0.12403
836.20106	0.12578
834.14145	0.12752
832.08184	0.12912
830.02223	0.13064
827.96262	0.13215
825.90302	0.13374
823.84341	0.13535
821.78380	0.13682
819.72419	0.13823
817.66458	0.13973
815.60497	0.14128
813.54536	0.14279
811.48576	0.14437
809.42615	0.14609
807.36654	0.14779
805.30693	0.14941
803.24732	0.15106
801.18771	0.15270
799.12810	0.15421
797.06850	0.15569
795.00889	0.15732
792.94928	0.15896
790.88967	0.16051
788.83006	0.16218
786.77045	0.16377
784.71085	0.16509
782.65124	0.16643
780.59163	0.16800
778.53202	0.16967
776.47241	0.17124
774.41280	0.17274
772.35319	0.17430
770.29359	0.17592
768.23398	0.17741
766.17437	0.17874
764.11476	0.18007
762.05515	0.18154
759.99554	0.18312
757.93593	0.18468
755.87633	0.18610
753.81672	0.18743
751.75711	0.18881
749.69750	0.19031
747.63789	0.19184
745.57828	0.19325
743.51867	0.19459
741.45907	0.19589
739.39946	0.19728
737.33985	0.19879
735.28024	0.20014
733.22063	0.20128
731.16102	0.20245
729.10142	0.20379
727.04181	0.20525
724.98220	0.20662
722.92259	0.20784
720.86298	0.20890
718.80337	0.21022
716.74376	0.21123
714.68416	0.21233
712.62455	0.21356
710.56494	0.21484
708.50533	0.21608
706.44572	0.21734
704.38611	0.21862
702.32650	0.21973
700.26690	0.22072
698.20729	0.22180
696.14768	0.22299
694.08807	0.22420
692.02846	0.22540
689.96885	0.22666
687.90924	0.22800
685.84964	0.22924
683.79003	0.23023
681.73042	0.23111
679.67081	0.23213
677.61120	0.23329
675.55159	0.23430
673.49199	0.23500
671.43238	0.23687
669.37277	0.23967
667.31316	0.23577
665.25355	0.23985
663.19394	0.23960
661.13433	0.23968
659.07473	0.24059
657.01512	0.24167
654.95551	0.24264
652.89590	0.24325
650.83629	0.24368
648.77668	0.24420
646.71707	0.24503
644.65747	0.24573
642.59786	0.24635
640.53825	0.24708
638.47864	0.24790
636.41903	0.24880
634.35942	0.24956
632.29981	0.25002
630.24021	0.25035
628.18060	0.25072
626.12099	0.25124
624.06138	0.25183
622.00177	0.25238
619.94216	0.25287
617.88256	0.25327
615.82295	0.25369
613.76334	0.25423
611.70373	0.25465
609.64412	0.25479
607.58451	0.25490
605.52490	0.25518
603.46530	0.25561
601.40569	0.25604
599.34608	0.25637
597.28647	0.25667
595.22686	0.25695
593.16725	0.25728
591.10764	0.25771
589.04804	0.25793
586.98843	0.25785
584.92882	0.25782
582.86921	0.25793
580.80960	0.25800
578.74999	0.25812
576.69039	0.25839
574.63078	0.25851
572.57117	0.25850
570.51156	0.25864
568.45195	0.25873
566.39234	0.25853
564.33273	0.25831
562.27313	0.25818
560.21352	0.25821
558.15391	0.25848
556.09430	0.25867
554.03469	0.25842
551.97508	0.25798
549.91547	0.25791
547.85587	0.25801
545.79626	0.25781
543.73665	0.25757
541.67704	0.25752
539.61743	0.25748
537.55782	0.25735
535.49821	0.25726
533.43861	0.25699
531.37900	0.25614
529.31939	0.25514
527.25978	0.25448
525.20017	0.25428
523.14056	0.25439
521.08096	0.25428
519.02135	0.25366
516.96174	0.25310
514.90213	0.25313
512.84252	0.25311
510.78291	0.25260
508.72330	0.25198
506.66370	0.25142
504.60409	0.25069
502.54448	0.25008
500.48487	0.24995
498.42526	0.24970
496.36565	0.24904
494.30604	0.24854
492.24644	0.24844
490.18683	0.24812
488.12722	0.24716
486.06761	0.24633
484.00800	0.24610
481.94839	0.24579
479.88878	0.24527
477.82918	0.24472
475.76957	0.24386
473.70996	0.24264
471.65035	0.24149
469.59074	0.24077
467.53113	0.24033
465.47153	0.23979
463.41192	0.23884
461.35231	0.23760
459.29270	0.23637
457.23309	0.23571
455.17348	0.23594
453.11387	0.23630
451.05427	0.23580
448.99466	0.23457
446.93505	0.23365
444.87544	0.23319
442.81583	0.23256
440.75622	0.23155
438.69661	0.23054
436.63701	0.23006
434.57740	0.23005
432.51779	0.22988
430.45818	0.22901
428.39857	0.22766
426.33896	0.22668
424.27935	0.22620
422.21975	0.22526
420.16014	0.22321
418.10053	0.22085
416.04092	0.21974
413.98131	0.21993
411.92170	0.22019
409.86210	0.21923
407.80249	0.21726
405.74288	0.21629
403.68327	0.21706
401.62366	0.21785
399.56405	0.21749
