34.493,1142.000,1221.000,1291.000,1325.000,1391.000,1454.000,1511.000,1555.000,1596.000,1631.000
36.429,1157.000,1197.000,1290.000,1357.000,1401.000,1463.000,1523.000,1912.000,1599.000,1646.000
38.364,1148.000,1223.000,1316.000,1371.000,1464.000,1504.000,1565.000,1733.000,1694.000,1727.000
40.299,1200.000,1286.000,1360.000,1408.000,1466.000,1533.000,1609.000,1639.000,1721.000,1737.000
42.233,1148.000,1237.000,1312.000,1398.000,1414.000,1487.000,1580.000,1624.000,1636.000,1682.000
44.165,1117.000,1185.000,1262.000,1333.000,1371.000,1442.000,1508.000,1558.000,1584.000,1632.000
46.099,1112.000,1207.000,1271.000,1311.000,1350.000,1423.000,1502.000,1532.000,1577.000,1603.000
48.032,1141.000,1212.000,1280.000,1313.000,1388.000,1420.000,1507.000,1527.000,1570.000,1638.000
49.965,1110.000,1207.000,1260.000,1346.000,1384.000,1407.000,1489.000,1526.000,1578.000,1600.000
51.898,1119.000,1216.000,1294.000,1304.000,1411.000,1433.000,1489.000,1564.000,1591.000,1639.000
53.830,1149.000,1210.000,1256.000,1316.000,1369.000,1399.000,1450.000,1477.000,1554.000,1585.000
55.762,1107.000,1192.000,1242.000,1261.000,1305.000,1333.000,1452.000,1488.000,1493.000,1564.000
57.693,1068.000,1146.000,1200.000,1262.000,1279.000,1338.000,1394.000,1435.000,1474.000,1518.000
59.624,1087.000,1149.000,1187.000,1248.000,1304.000,1316.000,1388.000,3419.000,1462.000,1505.000
61.554,1145.000,1197.000,1220.000,1310.000,1306.000,1357.000,1431.000,2922.000,1490.000,1507.000
63.482,1189.000,1206.000,1279.000,1339.000,1376.000,1447.000,1467.000,1541.000,1533.000,1596.000
65.412,1117.000,1173.000,1220.000,1293.000,1317.000,1331.000,1384.000,1416.000,1458.000,1566.000
67.342,1072.000,1124.000,1189.000,1213.000,1282.000,1299.000,1344.000,1424.000,1426.000,1451.000
69.271,1059.000,1112.000,1169.000,1216.000,1288.000,1285.000,1345.000,1384.000,1421.000,1410.000
71.199,1076.000,1132.000,1198.000,1214.000,1258.000,1313.000,1338.000,1376.000,1415.000,1452.000
73.127,1091.000,1158.000,1199.000,1256.000,1268.000,1337.000,1335.000,1408.000,1433.000,1479.000
75.055,1076.000,1155.000,1206.000,1299.000,1259.000,1322.000,1369.000,1407.000,1418.000,1474.000
76.982,1069.000,1160.000,1183.000,1251.000,1244.000,1336.000,1361.000,1405.000,1401.000,1420.000
78.909,1082.000,1143.000,1190.000,1240.000,1255.000,1302.000,1351.000,1379.000,1404.000,1409.000
80.834,1036.000,1078.000,1142.000,1215.000,1233.000,1250.000,1285.000,1336.000,1378.000,1407.000
82.760,1055.000,1065.000,1152.000,1183.000,1209.000,1220.000,1287.000,1343.000,1407.000,1388.000
84.686,1051.000,1107.000,1149.000,1171.000,1233.000,1239.000,1325.000,1349.000,1383.000,1406.000
86.611,1075.000,1115.000,1182.000,1232.000,1250.000,1284.000,1333.000,1352.000,1407.000,1462.000
88.536,1055.000,1099.000,1126.000,1177.000,1204.000,1232.000,1295.000,1303.000,1380.000,1402.000
90.461,1019.000,1056.000,1093.000,1161.000,1167.000,1235.000,1266.000,1282.000,1295.000,1335.000
92.385,1014.000,1050.000,1099.000,1148.000,1165.000,1212.000,1252.000,1249.000,1311.000,1311.000
94.309,1056.000,1089.000,1097.000,1192.000,1179.000,1230.000,1284.000,1288.000,1314.000,1359.000
96.232,1049.000,1084.000,1127.000,1152.000,1180.000,1225.000,1264.000,1304.000,1324.000,1351.000
98.155,1030.000,1064.000,1079.000,1142.000,1169.000,1206.000,1235.000,1294.000,1264.000,1334.000
100.075,1000.000,1048.000,1084.000,1124.000,1147.000,1198.000,1205.000,1247.000,1269.000,1266.000
101.998,1009.000,1017.000,1060.000,1091.000,1104.000,1146.000,1197.000,1217.000,1221.000,1287.000
103.919,989.000,1001.000,1042.000,1084.000,1112.000,1130.000,1188.000,1200.000,1241.000,1247.000
105.841,1005.000,995.000,1025.000,1052.000,1089.000,1146.000,1179.000,1210.000,1195.000,1234.000
107.762,1005.000,1009.000,1076.000,1089.000,1137.000,1122.000,1168.000,1176.000,1233.000,1202.000
109.682,1006.000,1019.000,1078.000,1092.000,1147.000,1109.000,1157.000,1203.000,1235.000,1243.000
111.603,979.000,1002.000,1031.000,1060.000,1091.000,1103.000,1139.000,1151.000,1189.000,1195.000
113.523,949.000,969.000,988.000,1021.000,1036.000,1062.000,1123.000,1134.000,1165.000,1161.000
115.442,929.000,945.000,999.000,1012.000,1026.000,1072.000,1077.000,1107.000,1126.000,1158.000
117.359,941.000,971.000,989.000,1023.000,1044.000,1069.000,1112.000,1110.000,1132.000,1170.000
119.278,953.000,973.000,978.000,1010.000,1023.000,1050.000,1065.000,1133.000,1116.000,1144.000
121.196,939.000,941.000,976.000,995.000,1007.000,1053.000,1075.000,1101.000,1085.000,1112.000
123.114,917.000,934.000,957.000,972.000,977.000,1023.000,1015.000,1068.000,1094.000,1092.000
125.031,922.000,925.000,958.000,983.000,986.000,997.000,1024.000,1057.000,1042.000,1111.000
126.948,883.000,934.000,942.000,968.000,980.000,1011.000,1028.000,1035.000,1061.000,1078.000
128.865,913.000,910.000,931.000,949.000,971.000,1000.000,991.000,1032.000,1032.000,1060.000
130.781,905.000,905.000,906.000,952.000,957.000,992.000,976.000,1011.000,1052.000,1088.000
132.697,908.000,900.000,902.000,933.000,940.000,976.000,991.000,1017.000,1013.000,1049.000
134.613,891.000,876.000,884.000,907.000,922.000,935.000,966.000,999.000,1002.000,1031.000
136.526,884.000,872.000,886.000,883.000,931.000,921.000,936.000,947.000,982.000,980.000
138.440,871.000,857.000,885.000,890.000,908.000,918.000,919.000,947.000,997.000,973.000
140.355,882.000,886.000,894.000,902.000,916.000,1270.000,949.000,966.000,970.000,1024.000
142.269,880.000,866.000,882.000,907.000,923.000,1053.000,938.000,987.000,982.000,992.000
144.182,867.000,853.000,864.000,889.000,885.000,898.000,919.000,940.000,971.000,944.000
146.095,850.000,861.000,859.000,867.000,877.000,896.000,912.000,915.000,915.000,956.000
148.008,846.000,843.000,844.000,867.000,877.000,895.000,922.000,916.000,910.000,947.000
149.920,849.000,847.000,856.000,876.000,867.000,888.000,892.000,901.000,930.000,934.000
151.832,860.000,825.000,827.000,850.000,856.000,878.000,902.000,889.000,917.000,916.000
153.742,847.000,845.000,833.000,864.000,856.000,875.000,897.000,900.000,922.000,930.000
155.653,826.000,821.000,867.000,839.000,864.000,888.000,882.000,893.000,906.000,933.000
157.564,839.000,822.000,830.000,835.000,862.000,863.000,867.000,887.000,893.000,911.000
159.474,828.000,830.000,830.000,827.000,846.000,854.000,872.000,889.000,882.000,884.000
161.384,849.000,812.000,818.000,828.000,863.000,852.000,846.000,880.000,889.000,902.000
163.294,846.000,824.000,819.000,835.000,837.000,852.000,871.000,867.000,894.000,902.000
165.203,835.000,818.000,823.000,829.000,842.000,851.000,885.000,883.000,885.000,903.000
167.112,831.000,802.000,837.000,822.000,851.000,849.000,838.000,855.000,883.000,891.000
169.020,813.000,807.000,801.000,828.000,838.000,831.000,837.000,856.000,883.000,888.000
170.928,834.000,806.000,811.000,816.000,827.000,861.000,848.000,855.000,855.000,875.000
172.834,814.000,827.000,808.000,810.000,830.000,835.000,853.000,843.000,850.000,869.000
174.741,834.000,807.000,819.000,832.000,840.000,837.000,836.000,869.000,865.000,866.000
176.648,833.000,813.000,808.000,815.000,835.000,840.000,849.000,856.000,859.000,871.000
178.555,830.000,799.000,830.000,816.000,838.000,833.000,846.000,865.000,872.000,868.000
180.461,820.000,803.000,808.000,821.000,826.000,837.000,844.000,854.000,860.000,864.000
182.366,816.000,796.000,815.000,798.000,820.000,824.000,835.000,851.000,843.000,847.000
184.272,819.000,802.000,794.000,809.000,826.000,816.000,834.000,846.000,856.000,868.000
186.177,827.000,785.000,821.000,812.000,818.000,834.000,839.000,825.000,851.000,851.000
188.081,834.000,807.000,816.000,824.000,812.000,833.000,867.000,845.000,866.000,861.000
189.983,824.000,811.000,803.000,821.000,808.000,854.000,844.000,841.000,847.000,865.000
191.887,817.000,801.000,816.000,800.000,824.000,813.000,860.000,840.000,860.000,858.000
193.790,825.000,794.000,784.000,802.000,824.000,846.000,844.000,843.000,857.000,863.000
195.693,820.000,793.000,822.000,827.000,814.000,837.000,839.000,839.000,855.000,876.000
197.596,809.000,807.000,807.000,808.000,829.000,837.000,847.000,847.000,861.000,872.000
199.498,839.000,825.000,844.000,828.000,830.000,830.000,850.000,843.000,867.000,861.000
201.400,824.000,822.000,812.000,820.000,818.000,826.000,844.000,854.000,869.000,863.000
203.302,833.000,823.000,823.000,821.000,830.000,844.000,834.000,845.000,857.000,877.000
205.203,823.000,804.000,807.000,829.000,836.000,849.000,835.000,865.000,871.000,858.000
207.101,829.000,804.000,821.000,838.000,841.000,846.000,841.000,865.000,871.000,877.000
209.001,835.000,811.000,819.000,828.000,836.000,839.000,863.000,865.000,888.000,904.000
210.901,832.000,824.000,822.000,837.000,839.000,842.000,865.000,882.000,870.000,903.000
212.801,855.000,829.000,827.000,840.000,853.000,854.000,868.000,879.000,873.000,893.000
214.700,850.000,812.000,830.000,846.000,844.000,869.000,1464.000,876.000,886.000,904.000
216.599,834.000,839.000,850.000,828.000,849.000,844.000,995.000,859.000,911.000,909.000
218.497,831.000,821.000,828.000,852.000,850.000,875.000,893.000,895.000,911.000,924.000
220.395,856.000,838.000,841.000,853.000,871.000,883.000,892.000,899.000,887.000,913.000
222.292,842.000,842.000,850.000,850.000,844.000,862.000,895.000,880.000,906.000,923.000
224.190,852.000,831.000,851.000,840.000,853.000,880.000,881.000,918.000,916.000,929.000
226.084,833.000,822.000,834.000,846.000,855.000,857.000,872.000,895.000,908.000,918.000
227.981,831.000,846.000,845.000,843.000,866.000,880.000,895.000,894.000,890.000,904.000
229.877,835.000,838.000,841.000,839.000,854.000,850.000,874.000,897.000,896.000,906.000
231.772,840.000,839.000,842.000,849.000,864.000,875.000,883.000,891.000,916.000,896.000
233.667,844.000,830.000,846.000,846.000,864.000,887.000,871.000,898.000,895.000,898.000
235.562,838.000,811.000,831.000,854.000,838.000,852.000,892.000,908.000,879.000,901.000
237.457,842.000,830.000,838.000,844.000,845.000,851.000,868.000,877.000,884.000,908.000
239.351,832.000,809.000,826.000,824.000,834.000,835.000,870.000,878.000,882.000,895.000
241.244,852.000,820.000,838.000,834.000,827.000,863.000,873.000,866.000,883.000,898.000
243.136,835.000,823.000,820.000,845.000,846.000,855.000,876.000,877.000,873.000,899.000
245.029,823.000,834.000,831.000,842.000,823.000,843.000,847.000,871.000,887.000,887.000
246.921,834.000,839.000,822.000,827.000,818.000,839.000,847.000,859.000,862.000,867.000
248.813,824.000,824.000,814.000,807.000,824.000,842.000,842.000,865.000,863.000,871.000
250.705,824.000,812.000,809.000,804.000,836.000,849.000,843.000,848.000,867.000,869.000
252.596,825.000,805.000,823.000,817.000,829.000,829.000,847.000,841.000,838.000,861.000
254.487,823.000,802.000,803.000,830.000,820.000,838.000,841.000,842.000,855.000,860.000
256.378,822.000,820.000,818.000,809.000,819.000,826.000,834.000,857.000,853.000,871.000
258.268,823.000,799.000,805.000,805.000,826.000,823.000,848.000,841.000,858.000,848.000
260.158,827.000,799.000,802.000,807.000,814.000,811.000,830.000,818.000,843.000,837.000
262.045,825.000,802.000,803.000,794.000,794.000,820.000,818.000,820.000,843.000,849.000
263.934,823.000,789.000,781.000,802.000,797.000,813.000,822.000,825.000,831.000,845.000
265.823,803.000,797.000,794.000,803.000,794.000,814.000,826.000,821.000,824.000,836.000
267.711,823.000,791.000,791.000,790.000,795.000,799.000,824.000,819.000,811.000,838.000
269.599,814.000,783.000,791.000,780.000,791.000,817.000,809.000,815.000,812.000,825.000
271.487,816.000,770.000,779.000,787.000,803.000,800.000,790.000,796.000,813.000,811.000
273.374,821.000,773.000,785.000,787.000,783.000,799.000,800.000,793.000,812.000,816.000
275.260,807.000,786.000,779.000,791.000,789.000,806.000,806.000,804.000,794.000,802.000
277.147,801.000,783.000,781.000,778.000,778.000,788.000,791.000,801.000,796.000,799.000
279.031,811.000,789.000,783.000,782.000,781.000,769.000,790.000,809.000,801.000,801.000
280.916,795.000,782.000,777.000,774.000,787.000,770.000,789.000,780.000,789.000,806.000
282.802,812.000,768.000,773.000,767.000,757.000,787.000,793.000,788.000,803.000,804.000
284.686,810.000,778.000,770.000,773.000,781.000,765.000,777.000,776.000,783.000,791.000
286.571,798.000,770.000,770.000,752.000,774.000,786.000,770.000,777.000,790.000,798.000
288.455,799.000,768.000,769.000,766.000,775.000,773.000,791.000,775.000,799.000,791.000
290.338,800.000,775.000,765.000,773.000,780.000,772.000,788.000,774.000,778.000,804.000
292.222,795.000,761.000,775.000,764.000,759.000,772.000,774.000,775.000,783.000,795.000
294.105,794.000,769.000,765.000,760.000,748.000,767.000,763.000,765.000,784.000,769.000
295.987,788.000,768.000,755.000,753.000,772.000,762.000,758.000,754.000,785.000,777.000
297.867,806.000,768.000,757.000,758.000,755.000,774.000,763.000,765.000,776.000,772.000
299.749,793.000,769.000,756.000,774.000,756.000,781.000,767.000,770.000,767.000,771.000
301.630,797.000,767.000,757.000,755.000,774.000,752.000,771.000,773.000,765.000,785.000
303.511,789.000,765.000,771.000,766.000,762.000,745.000,760.000,760.000,776.000,772.000
305.392,795.000,751.000,748.000,762.000,750.000,767.000,757.000,758.000,766.000,774.000
307.272,801.000,757.000,748.000,756.000,751.000,747.000,756.000,755.000,769.000,774.000
309.152,791.000,754.000,755.000,766.000,754.000,754.000,769.000,764.000,777.000,767.000
311.031,794.000,763.000,734.000,750.000,749.000,758.000,766.000,769.000,780.000,765.000
312.911,792.000,774.000,745.000,750.000,755.000,759.000,753.000,771.000,761.000,763.000
314.787,796.000,764.000,759.000,747.000,756.000,767.000,757.000,758.000,764.000,769.000
316.666,801.000,750.000,752.000,768.000,755.000,755.000,754.000,764.000,758.000,767.000
318.543,791.000,752.000,744.000,735.000,749.000,744.000,754.000,1457.000,757.000,764.000
320.421,773.000,759.000,739.000,755.000,739.000,741.000,768.000,855.000,762.000,759.000
322.298,804.000,765.000,767.000,749.000,749.000,759.000,755.000,1915.000,763.000,773.000
324.175,810.000,766.000,765.000,753.000,755.000,768.000,768.000,955.000,756.000,759.000
326.051,802.000,767.000,768.000,754.000,753.000,760.000,762.000,764.000,768.000,763.000
327.927,821.000,763.000,754.000,744.000,756.000,749.000,757.000,761.000,761.000,762.000
329.803,784.000,760.000,759.000,743.000,763.000,747.000,768.000,752.000,751.000,753.000
331.678,795.000,742.000,755.000,756.000,741.000,758.000,754.000,748.000,755.000,755.000
333.551,829.000,764.000,740.000,742.000,740.000,758.000,757.000,749.000,754.000,758.000
335.426,798.000,753.000,759.000,756.000,732.000,749.000,760.000,748.000,756.000,756.000
337.300,803.000,756.000,763.000,747.000,734.000,740.000,751.000,743.000,753.000,759.000
339.173,794.000,753.000,751.000,748.000,756.000,729.000,738.000,767.000,750.000,740.000
341.047,801.000,752.000,748.000,746.000,748.000,733.000,751.000,770.000,756.000,753.000
342.920,801.000,762.000,744.000,737.000,738.000,753.000,743.000,749.000,739.000,747.000
344.792,788.000,767.000,739.000,739.000,733.000,756.000,738.000,740.000,761.000,753.000
346.665,792.000,756.000,749.000,733.000,770.000,748.000,759.000,749.000,759.000,752.000
348.536,799.000,758.000,754.000,756.000,742.000,736.000,746.000,735.000,747.000,758.000
350.406,788.000,755.000,759.000,735.000,723.000,739.000,747.000,755.000,730.000,748.000
352.277,789.000,744.000,741.000,737.000,741.000,743.000,742.000,742.000,748.000,728.000
354.148,799.000,760.000,746.000,747.000,727.000,735.000,740.000,741.000,741.000,749.000
356.018,804.000,750.000,742.000,742.000,728.000,738.000,735.000,750.000,728.000,748.000
357.888,806.000,745.000,729.000,749.000,741.000,723.000,723.000,746.000,741.000,738.000
359.757,799.000,767.000,745.000,753.000,751.000,722.000,737.000,736.000,737.000,724.000
361.627,797.000,759.000,766.000,735.000,735.000,736.000,733.000,746.000,737.000,755.000
363.495,787.000,758.000,731.000,735.000,740.000,733.000,733.000,740.000,744.000,741.000
365.364,800.000,759.000,740.000,741.000,733.000,725.000,730.000,737.000,719.000,743.000
367.232,803.000,756.000,726.000,729.000,733.000,729.000,734.000,726.000,732.000,732.000
369.098,797.000,746.000,755.000,735.000,727.000,741.000,736.000,726.000,732.000,739.000
370.965,795.000,755.000,745.000,737.000,730.000,725.000,732.000,738.000,723.000,732.000
372.832,809.000,741.000,750.000,730.000,718.000,744.000,732.000,735.000,720.000,737.000
374.698,788.000,749.000,736.000,735.000,739.000,727.000,733.000,731.000,733.000,740.000
376.564,801.000,740.000,734.000,726.000,729.000,732.000,729.000,722.000,733.000,734.000
378.430,812.000,762.000,742.000,739.000,734.000,742.000,739.000,731.000,732.000,748.000
380.296,774.000,755.000,733.000,743.000,732.000,727.000,715.000,726.000,725.000,737.000
382.161,793.000,763.000,735.000,732.000,725.000,729.000,746.000,739.000,725.000,734.000
384.025,798.000,745.000,749.000,736.000,734.000,724.000,729.000,732.000,731.000,718.000
385.887,797.000,753.000,742.000,744.000,731.000,729.000,738.000,729.000,731.000,727.000
387.751,798.000,739.000,733.000,737.000,735.000,724.000,730.000,726.000,719.000,732.000
389.615,806.000,747.000,737.000,734.000,733.000,730.000,737.000,725.000,732.000,729.000
391.478,801.000,758.000,748.000,724.000,734.000,735.000,735.000,736.000,723.000,730.000
393.341,790.000,758.000,748.000,740.000,737.000,736.000,732.000,737.000,733.000,736.000
395.203,812.000,749.000,734.000,736.000,734.000,740.000,730.000,729.000,724.000,752.000
397.065,807.000,737.000,741.000,724.000,736.000,727.000,721.000,732.000,727.000,740.000
398.927,804.000,755.000,750.000,743.000,729.000,726.000,726.000,735.000,720.000,720.000
400.788,813.000,763.000,749.000,741.000,732.000,740.000,727.000,739.000,733.000,729.000
402.649,803.000,765.000,751.000,730.000,740.000,736.000,740.000,737.000,738.000,752.000
404.507,792.000,754.000,748.000,725.000,739.000,724.000,726.000,730.000,742.000,738.000
406.367,788.000,746.000,745.000,743.000,743.000,738.000,732.000,738.000,732.000,742.000
408.227,814.000,766.000,739.000,731.000,740.000,751.000,731.000,741.000,740.000,737.000
410.087,822.000,763.000,746.000,746.000,727.000,740.000,740.000,745.000,736.000,741.000
411.946,795.000,757.000,740.000,743.000,740.000,740.000,740.000,741.000,747.000,741.000
413.804,813.000,757.000,756.000,741.000,740.000,728.000,745.000,742.000,736.000,744.000
415.662,811.000,758.000,744.000,743.000,731.000,732.000,735.000,740.000,742.000,744.000
417.520,837.000,749.000,736.000,736.000,744.000,740.000,737.000,725.000,733.000,760.000
419.378,811.000,762.000,746.000,743.000,737.000,736.000,750.000,736.000,737.000,738.000
421.233,811.000,752.000,737.000,735.000,737.000,731.000,739.000,736.000,742.000,746.000
423.090,807.000,759.000,738.000,744.000,742.000,745.000,736.000,737.000,724.000,751.000
424.946,802.000,759.000,729.000,740.000,732.000,738.000,736.000,739.000,739.000,734.000
426.802,815.000,756.000,750.000,732.000,742.000,751.000,736.000,744.000,743.000,752.000
428.658,814.000,755.000,744.000,750.000,740.000,733.000,752.000,739.000,743.000,736.000
430.513,795.000,749.000,748.000,745.000,730.000,732.000,723.000,742.000,731.000,745.000
432.368,803.000,746.000,753.000,732.000,742.000,733.000,736.000,730.000,736.000,742.000
434.222,805.000,749.000,742.000,724.000,733.000,734.000,746.000,728.000,730.000,736.000
436.076,808.000,752.000,745.000,741.000,736.000,738.000,742.000,745.000,734.000,733.000
437.930,824.000,759.000,748.000,744.000,740.000,732.000,740.000,732.000,743.000,742.000
439.781,810.000,750.000,740.000,743.000,731.000,745.000,740.000,737.000,733.000,739.000
441.634,819.000,762.000,745.000,742.000,726.000,732.000,730.000,731.000,732.000,748.000
443.487,811.000,761.000,745.000,744.000,733.000,726.000,724.000,733.000,729.000,744.000
445.339,811.000,761.000,759.000,725.000,734.000,741.000,735.000,739.000,738.000,733.000
447.191,811.000,751.000,748.000,741.000,725.000,730.000,733.000,725.000,732.000,743.000
449.043,821.000,749.000,731.000,730.000,742.000,735.000,739.000,740.000,723.000,739.000
450.894,799.000,759.000,763.000,740.000,737.000,742.000,737.000,735.000,739.000,735.000
452.744,831.000,752.000,743.000,711.000,730.000,722.000,734.000,725.000,731.000,736.000
454.595,798.000,761.000,734.000,741.000,723.000,719.000,728.000,731.000,733.000,733.000
456.443,817.000,752.000,737.000,738.000,725.000,729.000,726.000,738.000,734.000,727.000
458.292,802.000,742.000,742.000,739.000,731.000,710.000,742.000,719.000,729.000,731.000
460.142,801.000,758.000,741.000,726.000,741.000,715.000,734.000,723.000,739.000,740.000
461.991,802.000,753.000,738.000,736.000,748.000,732.000,724.000,730.000,735.000,720.000
463.839,811.000,755.000,751.000,733.000,743.000,725.000,738.000,730.000,734.000,1856.000
465.687,815.000,750.000,732.000,733.000,730.000,735.000,729.000,730.000,729.000,936.000
467.535,801.000,749.000,754.000,734.000,727.000,727.000,726.000,734.000,730.000,763.000
469.382,798.000,738.000,732.000,737.000,726.000,739.000,718.000,730.000,723.000,725.000
471.229,810.000,746.000,739.000,743.000,733.000,740.000,733.000,734.000,720.000,733.000
473.076,801.000,750.000,740.000,757.000,741.000,727.000,717.000,740.000,725.000,737.000
474.920,821.000,754.000,746.000,724.000,744.000,729.000,741.000,725.000,729.000,726.000
476.766,806.000,759.000,732.000,746.000,725.000,726.000,722.000,731.000,727.000,738.000
478.612,804.000,748.000,755.000,736.000,729.000,732.000,738.000,728.000,729.000,738.000
480.457,816.000,762.000,751.000,725.000,745.000,736.000,736.000,744.000,727.000,743.000
482.302,811.000,759.000,754.000,744.000,735.000,731.000,731.000,732.000,733.000,744.000
484.146,821.000,772.000,749.000,739.000,731.000,727.000,735.000,739.000,735.000,732.000
485.990,814.000,769.000,744.000,738.000,747.000,738.000,723.000,736.000,738.000,740.000
487.834,826.000,772.000,755.000,736.000,720.000,740.000,741.000,740.000,735.000,743.000
489.677,814.000,770.000,745.000,745.000,734.000,733.000,737.000,725.000,742.000,737.000
491.518,808.000,754.000,736.000,742.000,739.000,751.000,728.000,748.000,743.000,738.000
493.361,815.000,755.000,758.000,744.000,734.000,728.000,743.000,747.000,731.000,729.000
495.203,834.000,758.000,758.000,745.000,740.000,751.000,748.000,745.000,742.000,739.000
497.045,814.000,767.000,754.000,745.000,751.000,733.000,743.000,741.000,743.000,748.000
498.886,816.000,760.000,740.000,744.000,739.000,737.000,737.000,741.000,739.000,737.000
500.727,817.000,757.000,748.000,740.000,735.000,736.000,735.000,746.000,726.000,741.000
502.568,806.000,766.000,740.000,736.000,732.000,741.000,734.000,733.000,741.000,740.000
504.408,822.000,750.000,737.000,726.000,735.000,737.000,728.000,739.000,743.000,749.000
506.248,820.000,754.000,752.000,746.000,732.000,739.000,741.000,742.000,735.000,735.000
508.086,808.000,758.000,749.000,751.000,740.000,730.000,739.000,740.000,746.000,732.000
509.925,835.000,765.000,747.000,734.000,737.000,739.000,739.000,743.000,751.000,739.000
511.764,835.000,762.000,732.000,747.000,737.000,726.000,725.000,741.000,741.000,737.000
513.602,845.000,773.000,763.000,748.000,728.000,732.000,738.000,751.000,743.000,748.000
515.441,813.000,767.000,764.000,757.000,753.000,752.000,741.000,746.000,752.000,737.000
517.278,835.000,754.000,766.000,745.000,735.000,749.000,762.000,749.000,745.000,747.000
519.116,849.000,764.000,750.000,738.000,743.000,751.000,745.000,743.000,750.000,742.000
520.953,823.000,761.000,762.000,745.000,735.000,741.000,750.000,747.000,729.000,751.000
522.789,821.000,762.000,755.000,757.000,742.000,748.000,746.000,749.000,737.000,741.000
524.626,818.000,773.000,756.000,747.000,731.000,744.000,738.000,750.000,748.000,752.000
526.459,840.000,766.000,748.000,745.000,739.000,743.000,749.000,741.000,743.000,759.000
528.295,823.000,771.000,754.000,754.000,749.000,743.000,743.000,742.000,740.000,755.000
530.130,823.000,770.000,761.000,746.000,737.000,746.000,731.000,735.000,753.000,743.000
531.965,833.000,768.000,752.000,735.000,745.000,737.000,750.000,743.000,738.000,731.000
533.799,828.000,764.000,753.000,743.000,752.000,745.000,728.000,749.000,739.000,741.000
535.633,828.000,751.000,756.000,744.000,741.000,750.000,747.000,732.000,728.000,735.000
537.467,821.000,768.000,744.000,745.000,742.000,747.000,747.000,743.000,747.000,758.000
539.300,846.000,766.000,757.000,756.000,755.000,741.000,735.000,738.000,733.000,740.000
541.133,832.000,767.000,757.000,745.000,743.000,755.000,754.000,738.000,747.000,733.000
542.964,830.000,778.000,763.000,751.000,739.000,738.000,735.000,748.000,741.000,729.000
544.796,823.000,763.000,768.000,736.000,743.000,742.000,749.000,741.000,744.000,739.000
546.628,823.000,755.000,769.000,737.000,730.000,747.000,738.000,746.000,734.000,756.000
548.460,836.000,773.000,764.000,764.000,749.000,747.000,748.000,745.000,751.000,751.000
550.291,823.000,758.000,766.000,751.000,743.000,761.000,731.000,759.000,736.000,747.000
552.121,827.000,776.000,750.000,757.000,745.000,745.000,753.000,748.000,744.000,750.000
553.952,838.000,776.000,761.000,767.000,747.000,744.000,742.000,749.000,740.000,746.000
555.782,820.000,764.000,763.000,743.000,753.000,747.000,750.000,748.000,741.000,733.000
557.612,836.000,761.000,760.000,751.000,747.000,743.000,741.000,744.000,750.000,748.000
559.441,833.000,773.000,760.000,751.000,764.000,759.000,745.000,739.000,748.000,730.000
561.268,826.000,773.000,754.000,743.000,749.000,743.000,757.000,739.000,753.000,755.000
563.096,829.000,767.000,763.000,761.000,757.000,757.000,758.000,755.000,760.000,756.000
564.924,849.000,764.000,759.000,760.000,756.000,744.000,748.000,744.000,757.000,752.000
566.752,843.000,775.000,750.000,751.000,750.000,745.000,748.000,748.000,746.000,739.000
568.580,820.000,772.000,753.000,732.000,749.000,732.000,743.000,741.000,729.000,757.000
570.407,827.000,766.000,760.000,750.000,746.000,742.000,736.000,739.000,724.000,752.000
572.234,830.000,773.000,755.000,743.000,740.000,744.000,738.000,747.000,745.000,751.000
574.060,826.000,768.000,756.000,745.000,729.000,746.000,746.000,743.000,753.000,759.000
575.886,824.000,771.000,767.000,745.000,752.000,733.000,750.000,749.000,735.000,743.000
577.709,847.000,764.000,757.000,756.000,773.000,747.000,732.000,744.000,747.000,749.000
579.535,836.000,768.000,745.000,749.000,736.000,740.000,744.000,756.000,743.000,740.000
581.360,838.000,775.000,749.000,758.000,741.000,743.000,745.000,735.000,755.000,750.000
583.184,837.000,754.000,765.000,744.000,758.000,740.000,735.000,749.000,743.000,746.000
585.008,831.000,770.000,753.000,744.000,738.000,748.000,739.000,739.000,744.000,749.000
586.832,840.000,756.000,752.000,746.000,726.000,753.000,745.000,757.000,739.000,736.000
588.655,828.000,763.000,752.000,739.000,746.000,742.000,738.000,751.000,750.000,741.000
590.479,831.000,770.000,762.000,737.000,740.000,756.000,745.000,740.000,746.000,728.000
592.301,829.000,768.000,748.000,756.000,743.000,743.000,743.000,745.000,731.000,754.000
594.124,816.000,760.000,749.000,749.000,1044.000,747.000,759.000,748.000,752.000,735.000
595.944,844.000,767.000,761.000,743.000,822.000,744.000,741.000,729.000,746.000,746.000
597.765,830.000,768.000,761.000,740.000,758.000,745.000,737.000,755.000,735.000,748.000
599.586,842.000,754.000,766.000,752.000,1057.000,737.000,732.000,743.000,746.000,736.000
601.407,817.000,765.000,764.000,743.000,1396.000,758.000,735.000,738.000,744.000,735.000
603.228,814.000,768.000,747.000,732.000,1020.000,746.000,735.000,757.000,747.000,738.000
605.048,835.000,788.000,747.000,763.000,742.000,749.000,743.000,751.000,747.000,757.000
606.868,831.000,769.000,763.000,751.000,757.000,744.000,748.000,736.000,751.000,732.000
608.687,840.000,773.000,765.000,762.000,735.000,745.000,736.000,739.000,746.000,750.000
610.506,827.000,767.000,761.000,756.000,753.000,751.000,759.000,736.000,762.000,732.000
612.323,827.000,778.000,755.000,744.000,754.000,746.000,758.000,740.000,729.000,741.000
614.141,845.000,773.000,765.000,758.000,735.000,733.000,735.000,749.000,742.000,755.000
615.959,853.000,782.000,758.000,759.000,746.000,741.000,753.000,740.000,744.000,745.000
617.777,846.000,774.000,764.000,764.000,762.000,745.000,736.000,747.000,755.000,752.000
619.594,849.000,763.000,760.000,755.000,750.000,755.000,755.000,751.000,740.000,757.000
621.411,854.000,778.000,767.000,741.000,746.000,754.000,748.000,764.000,760.000,754.000
623.227,841.000,775.000,767.000,750.000,747.000,745.000,737.000,747.000,753.000,740.000
625.044,836.000,771.000,764.000,762.000,748.000,749.000,757.000,755.000,758.000,767.000
626.859,847.000,775.000,763.000,771.000,763.000,752.000,752.000,764.000,744.000,743.000
628.675,831.000,772.000,776.000,753.000,753.000,771.000,746.000,748.000,763.000,749.000
630.488,846.000,788.000,764.000,752.000,742.000,742.000,755.000,759.000,752.000,763.000
632.302,856.000,785.000,780.000,766.000,757.000,756.000,755.000,757.000,747.000,758.000
634.117,852.000,777.000,764.000,766.000,759.000,756.000,772.000,760.000,761.000,765.000
635.931,856.000,784.000,765.000,762.000,762.000,757.000,761.000,751.000,765.000,763.000
637.744,857.000,790.000,777.000,770.000,765.000,771.000,790.000,767.000,781.000,769.000
639.558,862.000,786.000,798.000,790.000,782.000,777.000,791.000,798.000,802.000,799.000
641.371,873.000,795.000,791.000,805.000,791.000,780.000,794.000,780.000,809.000,804.000
643.183,845.000,787.000,774.000,778.000,769.000,780.000,771.000,763.000,777.000,790.000
644.995,850.000,773.000,777.000,754.000,760.000,772.000,767.000,769.000,755.000,775.000
646.805,841.000,784.000,767.000,747.000,759.000,746.000,752.000,757.000,756.000,744.000
648.616,839.000,774.000,769.000,769.000,751.000,759.000,751.000,761.000,765.000,744.000
650.428,839.000,782.000,766.000,756.000,758.000,743.000,736.000,749.000,756.000,759.000
652.238,856.000,778.000,764.000,745.000,766.000,769.000,761.000,756.000,768.000,744.000
654.049,842.000,788.000,758.000,771.000,759.000,744.000,739.000,762.000,749.000,767.000
655.859,850.000,768.000,763.000,757.000,748.000,744.000,744.000,752.000,750.000,762.000
657.668,843.000,783.000,767.000,766.000,752.000,767.000,755.000,755.000,751.000,759.000
659.477,852.000,776.000,764.000,748.000,743.000,752.000,742.000,756.000,741.000,750.000
661.286,851.000,785.000,768.000,772.000,752.000,739.000,738.000,753.000,745.000,751.000
663.095,850.000,787.000,782.000,755.000,748.000,744.000,755.000,761.000,748.000,759.000
664.901,847.000,788.000,770.000,761.000,747.000,753.000,748.000,749.000,762.000,747.000
666.709,844.000,782.000,761.000,770.000,751.000,754.000,752.000,774.000,747.000,755.000
668.516,846.000,791.000,767.000,756.000,771.000,753.000,753.000,754.000,742.000,763.000
670.324,867.000,786.000,773.000,753.000,743.000,745.000,750.000,767.000,754.000,758.000
672.130,831.000,792.000,761.000,759.000,760.000,744.000,749.000,760.000,747.000,769.000
673.937,871.000,779.000,764.000,760.000,745.000,749.000,744.000,765.000,752.000,756.000
675.743,859.000,773.000,772.000,768.000,760.000,758.000,769.000,747.000,771.000,749.000
677.548,855.000,783.000,767.000,763.000,769.000,747.000,754.000,754.000,759.000,755.000
679.354,859.000,774.000,775.000,754.000,751.000,758.000,747.000,755.000,756.000,741.000
681.157,840.000,792.000,764.000,753.000,735.000,751.000,743.000,738.000,747.000,745.000
682.961,862.000,783.000,771.000,771.000,755.000,759.000,757.000,759.000,755.000,755.000
684.765,870.000,783.000,761.000,764.000,756.000,747.000,756.000,757.000,754.000,750.000
686.569,858.000,774.000,773.000,767.000,751.000,762.000,756.000,753.000,756.000,754.000
688.373,846.000,785.000,779.000,760.000,758.000,754.000,760.000,755.000,753.000,751.000
690.176,856.000,786.000,777.000,756.000,770.000,766.000,760.000,750.000,760.000,752.000
691.979,854.000,769.000,767.000,751.000,767.000,749.000,756.000,756.000,767.000,755.000
693.781,856.000,787.000,770.000,757.000,744.000,747.000,766.000,750.000,755.000,765.000
695.583,855.000,786.000,763.000,765.000,751.000,754.000,754.000,759.000,742.000,752.000
697.385,841.000,788.000,772.000,753.000,746.000,760.000,766.000,755.000,751.000,778.000
699.184,864.000,791.000,773.000,768.000,766.000,745.000,765.000,771.000,767.000,763.000
700.985,870.000,789.000,773.000,759.000,765.000,771.000,768.000,753.000,770.000,767.000
702.786,857.000,800.000,780.000,774.000,756.000,764.000,776.000,758.000,765.000,751.000
704.586,870.000,784.000,779.000,775.000,756.000,766.000,757.000,761.000,755.000,763.000
706.386,867.000,793.000,783.000,772.000,762.000,763.000,757.000,785.000,753.000,782.000
708.186,872.000,794.000,778.000,773.000,774.000,758.000,774.000,770.000,771.000,768.000
709.985,885.000,806.000,781.000,767.000,761.000,759.000,765.000,771.000,776.000,765.000
711.784,867.000,792.000,775.000,770.000,771.000,771.000,769.000,783.000,781.000,767.000
713.582,862.000,796.000,784.000,767.000,769.000,756.000,761.000,757.000,777.000,770.000
715.378,868.000,790.000,791.000,765.000,763.000,760.000,762.000,767.000,759.000,762.000
717.176,876.000,797.000,764.000,770.000,772.000,767.000,752.000,774.000,772.000,772.000
718.974,875.000,794.000,778.000,765.000,761.000,771.000,766.000,767.000,762.000,767.000
720.771,858.000,792.000,780.000,775.000,757.000,759.000,759.000,764.000,771.000,768.000
722.567,868.000,786.000,784.000,764.000,767.000,766.000,763.000,767.000,764.000,754.000
724.364,862.000,791.000,771.000,764.000,774.000,769.000,766.000,757.000,752.000,762.000
726.160,866.000,793.000,771.000,765.000,768.000,761.000,755.000,775.000,747.000,756.000
727.955,879.000,776.000,786.000,758.000,764.000,769.000,761.000,765.000,759.000,772.000
729.751,883.000,786.000,792.000,770.000,767.000,759.000,761.000,774.000,767.000,760.000
731.544,863.000,800.000,779.000,748.000,757.000,763.000,765.000,764.000,766.000,755.000
733.338,863.000,801.000,765.000,759.000,759.000,751.000,774.000,762.000,758.000,772.000
735.132,863.000,791.000,786.000,777.000,764.000,772.000,770.000,764.000,756.000,767.000
736.926,857.000,792.000,765.000,768.000,768.000,778.000,763.000,758.000,761.000,773.000
738.720,862.000,789.000,781.000,763.000,769.000,774.000,771.000,759.000,753.000,772.000
740.513,880.000,785.000,765.000,794.000,767.000,755.000,767.000,767.000,769.000,786.000
742.306,887.000,800.000,764.000,793.000,773.000,767.000,784.000,772.000,767.000,771.000
744.098,860.000,800.000,776.000,792.000,767.000,777.000,779.000,776.000,778.000,778.000
745.890,883.000,793.000,774.000,781.000,776.000,794.000,780.000,771.000,771.000,785.000
747.682,857.000,803.000,788.000,781.000,772.000,771.000,767.000,770.000,784.000,777.000
749.471,877.000,789.000,773.000,763.000,761.000,791.000,777.000,769.000,783.000,775.000
751.262,886.000,808.000,782.000,776.000,777.000,767.000,771.000,783.000,781.000,771.000
753.053,871.000,797.000,766.000,767.000,781.000,789.000,786.000,789.000,786.000,775.000
754.843,865.000,815.000,789.000,786.000,783.000,779.000,787.000,767.000,781.000,785.000
756.633,870.000,817.000,783.000,776.000,767.000,765.000,785.000,788.000,782.000,792.000
758.423,879.000,786.000,774.000,781.000,779.000,786.000,783.000,787.000,780.000,777.000
760.212,859.000,803.000,778.000,786.000,772.000,768.000,780.000,767.000,777.000,783.000
762.001,867.000,814.000,794.000,799.000,787.000,789.000,784.000,786.000,787.000,802.000
763.789,871.000,813.000,791.000,780.000,777.000,784.000,775.000,779.000,774.000,799.000
765.577,870.000,816.000,799.000,801.000,794.000,776.000,784.000,792.000,790.000,800.000
767.363,870.000,805.000,799.000,800.000,784.000,785.000,786.000,805.000,792.000,807.000
769.151,885.000,802.000,791.000,791.000,789.000,794.000,795.000,777.000,786.000,802.000
770.938,876.000,816.000,778.000,1296.000,781.000,771.000,787.000,787.000,788.000,792.000
772.725,870.000,797.000,797.000,1102.000,785.000,781.000,784.000,785.000,794.000,776.000
774.511,872.000,806.000,781.000,795.000,788.000,781.000,780.000,792.000,797.000,805.000
776.297,887.000,779.000,772.000,786.000,781.000,793.000,773.000,790.000,801.000,784.000
778.083,853.000,795.000,795.000,782.000,770.000,778.000,805.000,785.000,787.000,788.000
779.868,871.000,785.000,785.000,790.000,780.000,778.000,776.000,780.000,779.000,770.000
781.653,879.000,803.000,773.000,783.000,766.000,778.000,789.000,777.000,788.000,771.000
783.436,864.000,793.000,780.000,768.000,759.000,770.000,773.000,777.000,771.000,783.000
785.220,871.000,801.000,788.000,773.000,766.000,761.000,769.000,774.000,764.000,774.000
787.004,859.000,786.000,782.000,783.000,770.000,771.000,767.000,767.000,780.000,767.000
788.787,873.000,809.000,787.000,772.000,778.000,760.000,770.000,780.000,767.000,781.000
790.571,864.000,791.000,790.000,772.000,775.000,773.000,773.000,771.000,767.000,767.000
792.354,868.000,804.000,772.000,766.000,770.000,764.000,765.000,763.000,764.000,767.000
794.136,852.000,787.000,783.000,788.000,769.000,766.000,752.000,777.000,759.000,777.000
795.918,849.000,793.000,775.000,771.000,772.000,779.000,774.000,767.000,788.000,767.000
797.700,868.000,782.000,781.000,775.000,760.000,773.000,765.000,768.000,773.000,780.000
799.479,879.000,791.000,772.000,786.000,781.000,772.000,765.000,780.000,779.000,780.000
801.261,882.000,789.000,776.000,782.000,774.000,780.000,784.000,778.000,763.000,785.000
803.041,859.000,787.000,780.000,772.000,793.000,769.000,764.000,777.000,778.000,791.000
804.822,864.000,805.000,780.000,787.000,771.000,783.000,777.000,771.000,778.000,784.000
806.602,840.000,798.000,787.000,780.000,780.000,772.000,774.000,795.000,775.000,791.000
808.381,871.000,787.000,791.000,792.000,777.000,780.000,784.000,795.000,760.000,780.000
810.161,879.000,803.000,785.000,788.000,774.000,786.000,780.000,789.000,795.000,787.000
811.940,864.000,805.000,787.000,776.000,765.000,775.000,788.000,783.000,799.000,796.000
813.718,883.000,810.000,798.000,793.000,769.000,797.000,796.000,807.000,795.000,806.000
815.497,881.000,803.000,804.000,801.000,787.000,799.000,800.000,797.000,808.000,821.000
817.273,887.000,809.000,810.000,819.000,803.000,795.000,817.000,827.000,829.000,830.000
819.050,894.000,835.000,811.000,828.000,825.000,831.000,845.000,841.000,852.000,851.000
820.827,901.000,831.000,831.000,836.000,856.000,861.000,845.000,849.000,873.000,871.000
822.604,936.000,841.000,839.000,855.000,833.000,849.000,860.000,866.000,871.000,867.000
824.381,922.000,864.000,839.000,860.000,855.000,861.000,874.000,868.000,869.000,889.000
826.157,911.000,843.000,835.000,846.000,850.000,871.000,864.000,875.000,871.000,886.000
827.933,895.000,825.000,820.000,830.000,827.000,827.000,844.000,837.000,845.000,860.000
829.708,874.000,822.000,828.000,810.000,832.000,821.000,820.000,843.000,840.000,837.000
831.483,904.000,823.000,813.000,825.000,835.000,832.000,843.000,831.000,827.000,840.000
833.258,864.000,812.000,819.000,802.000,803.000,814.000,824.000,814.000,826.000,843.000
835.031,887.000,836.000,822.000,818.000,808.000,826.000,818.000,849.000,832.000,851.000
836.805,878.000,828.000,822.000,823.000,829.000,824.000,837.000,829.000,836.000,870.000
838.578,875.000,824.000,811.000,834.000,826.000,810.000,835.000,841.000,851.000,853.000
840.352,895.000,843.000,826.000,822.000,830.000,837.000,865.000,839.000,874.000,867.000
842.125,893.000,835.000,844.000,860.000,844.000,833.000,859.000,866.000,896.000,887.000
843.897,919.000,862.000,853.000,855.000,870.000,900.000,887.000,896.000,907.000,915.000
845.670,914.000,856.000,866.000,885.000,886.000,895.000,898.000,895.000,923.000,921.000
847.442,923.000,891.000,882.000,881.000,909.000,903.000,926.000,928.000,933.000,923.000
849.213,926.000,893.000,862.000,863.000,889.000,895.000,900.000,943.000,949.000,929.000
850.983,887.000,868.000,874.000,854.000,868.000,870.000,875.000,878.000,898.000,923.000
852.753,926.000,855.000,855.000,865.000,865.000,866.000,881.000,879.000,900.000,893.000
854.524,907.000,844.000,849.000,852.000,848.000,855.000,855.000,873.000,873.000,895.000
856.294,902.000,839.000,826.000,835.000,850.000,845.000,836.000,865.000,864.000,876.000
858.064,893.000,836.000,826.000,829.000,832.000,840.000,855.000,853.000,866.000,848.000
859.834,880.000,835.000,836.000,831.000,821.000,829.000,841.000,828.000,848.000,830.000
861.603,870.000,809.000,809.000,817.000,827.000,827.000,820.000,839.000,834.000,828.000
863.372,872.000,815.000,794.000,806.000,795.000,809.000,810.000,803.000,832.000,818.000
865.140,895.000,799.000,797.000,811.000,821.000,817.000,824.000,835.000,822.000,821.000
866.906,867.000,813.000,779.000,808.000,800.000,807.000,817.000,812.000,816.000,817.000
868.674,875.000,813.000,795.000,813.000,794.000,802.000,821.000,830.000,818.000,818.000
870.441,875.000,816.000,810.000,796.000,818.000,790.000,812.000,811.000,823.000,824.000
872.209,892.000,822.000,819.000,804.000,810.000,814.000,807.000,812.000,815.000,810.000
873.975,864.000,819.000,808.000,804.000,792.000,803.000,805.000,816.000,813.000,842.000
875.742,879.000,822.000,804.000,806.000,811.000,827.000,809.000,812.000,812.000,831.000
877.508,875.000,804.000,806.000,817.000,794.000,832.000,816.000,827.000,816.000,832.000
879.273,874.000,828.000,819.000,819.000,815.000,816.000,820.000,840.000,826.000,837.000
881.039,891.000,821.000,802.000,821.000,806.000,820.000,830.000,831.000,847.000,866.000
882.804,876.000,821.000,820.000,815.000,819.000,805.000,833.000,831.000,833.000,844.000
884.566,885.000,819.000,823.000,814.000,820.000,822.000,833.000,821.000,827.000,830.000
886.331,888.000,827.000,816.000,804.000,817.000,817.000,814.000,830.000,831.000,841.000
888.095,900.000,825.000,816.000,820.000,824.000,828.000,828.000,825.000,844.000,852.000
889.858,888.000,823.000,816.000,834.000,816.000,825.000,841.000,843.000,840.000,854.000
891.621,897.000,840.000,835.000,827.000,838.000,831.000,850.000,855.000,876.000,867.000
893.384,909.000,831.000,840.000,849.000,842.000,845.000,862.000,861.000,854.000,882.000
895.147,903.000,854.000,838.000,861.000,836.000,868.000,860.000,877.000,885.000,875.000
896.909,901.000,866.000,861.000,853.000,854.000,884.000,898.000,890.000,899.000,890.000
898.671,914.000,877.000,845.000,871.000,870.000,872.000,902.000,886.000,899.000,919.000
900.431,901.000,853.000,854.000,846.000,866.000,854.000,877.000,891.000,905.000,913.000
902.192,907.000,853.000,835.000,854.000,831.000,857.000,888.000,883.000,889.000,875.000
903.953,908.000,843.000,856.000,851.000,856.000,837.000,864.000,868.000,866.000,876.000
905.713,907.000,845.000,823.000,830.000,814.000,820.000,832.000,843.000,860.000,870.000
907.473,893.000,820.000,827.000,819.000,823.000,825.000,816.000,826.000,836.000,828.000
909.233,879.000,816.000,823.000,825.000,809.000,819.000,828.000,819.000,835.000,851.000
910.992,882.000,823.000,825.000,793.000,827.000,813.000,819.000,829.000,825.000,825.000
912.751,872.000,812.000,813.000,810.000,802.000,814.000,824.000,828.000,833.000,835.000
914.510,908.000,802.000,827.000,814.000,806.000,822.000,826.000,831.000,814.000,831.000
916.269,886.000,819.000,804.000,808.000,802.000,817.000,818.000,828.000,817.000,831.000
918.025,875.000,806.000,819.000,796.000,828.000,809.000,802.000,815.000,812.000,848.000
919.782,886.000,804.000,804.000,800.000,806.000,807.000,815.000,807.000,820.000,839.000
921.540,884.000,814.000,822.000,810.000,800.000,827.000,819.000,831.000,828.000,831.000
923.297,895.000,828.000,821.000,807.000,817.000,812.000,817.000,822.000,817.000,831.000
925.053,881.000,818.000,818.000,827.000,787.000,811.000,814.000,820.000,821.000,854.000
926.810,876.000,832.000,820.000,830.000,812.000,822.000,818.000,827.000,823.000,848.000
928.566,893.000,841.000,806.000,825.000,806.000,815.000,821.000,826.000,823.000,845.000
930.321,884.000,815.000,806.000,823.000,831.000,811.000,845.000,833.000,811.000,837.000
932.077,871.000,837.000,806.000,807.000,824.000,811.000,817.000,819.000,835.000,842.000
933.830,885.000,815.000,820.000,810.000,804.000,820.000,823.000,836.000,836.000,849.000
935.584,891.000,828.000,832.000,809.000,822.000,831.000,834.000,835.000,854.000,854.000
937.339,867.000,818.000,829.000,818.000,812.000,829.000,830.000,845.000,845.000,836.000
939.092,877.000,829.000,813.000,810.000,821.000,833.000,822.000,849.000,840.000,848.000
940.846,878.000,824.000,822.000,822.000,816.000,828.000,836.000,826.000,854.000,843.000
942.599,864.000,843.000,821.000,822.000,827.000,821.000,822.000,833.000,841.000,850.000
944.352,877.000,811.000,822.000,826.000,834.000,824.000,835.000,836.000,840.000,859.000
946.105,885.000,833.000,825.000,843.000,802.000,836.000,838.000,857.000,851.000,873.000
947.857,884.000,835.000,843.000,824.000,829.000,829.000,840.000,865.000,854.000,864.000
949.609,891.000,827.000,832.000,822.000,823.000,833.000,832.000,866.000,855.000,865.000
951.358,906.000,865.000,819.000,828.000,854.000,840.000,848.000,856.000,845.000,872.000
953.109,899.000,841.000,836.000,837.000,835.000,843.000,861.000,848.000,870.000,864.000
954.860,924.000,835.000,827.000,836.000,851.000,842.000,867.000,868.000,877.000,879.000
956.611,893.000,850.000,847.000,842.000,850.000,865.000,863.000,877.000,866.000,889.000
958.361,915.000,840.000,838.000,867.000,864.000,843.000,875.000,887.000,884.000,909.000
960.111,924.000,872.000,859.000,865.000,857.000,857.000,867.000,903.000,922.000,915.000
961.860,899.000,854.000,857.000,857.000,867.000,872.000,895.000,885.000,881.000,908.000
963.609,919.000,852.000,851.000,861.000,843.000,880.000,873.000,890.000,884.000,884.000
965.358,916.000,858.000,859.000,865.000,868.000,860.000,894.000,875.000,884.000,896.000
967.104,910.000,836.000,848.000,849.000,863.000,875.000,876.000,873.000,895.000,890.000
968.853,909.000,841.000,854.000,835.000,863.000,869.000,883.000,902.000,895.000,899.000
970.600,920.000,863.000,862.000,823.000,858.000,863.000,875.000,895.000,890.000,884.000
972.348,918.000,858.000,859.000,847.000,868.000,848.000,861.000,860.000,874.000,879.000
974.095,909.000,851.000,854.000,846.000,847.000,847.000,851.000,860.000,880.000,875.000
975.841,907.000,839.000,824.000,826.000,839.000,836.000,854.000,845.000,854.000,885.000
977.588,889.000,826.000,845.000,836.000,821.000,838.000,839.000,833.000,852.000,849.000
979.334,887.000,830.000,819.000,816.000,825.000,830.000,841.000,838.000,840.000,857.000
981.079,902.000,821.000,823.000,816.000,826.000,830.000,821.000,832.000,840.000,862.000
982.825,900.000,828.000,825.000,817.000,807.000,837.000,835.000,842.000,841.000,823.000
984.568,907.000,841.000,824.000,810.000,822.000,830.000,833.000,835.000,826.000,825.000
986.312,882.000,821.000,819.000,829.000,834.000,828.000,819.000,851.000,837.000,847.000
988.057,883.000,828.000,819.000,814.000,823.000,817.000,829.000,843.000,842.000,830.000
989.801,885.000,830.000,834.000,822.000,830.000,818.000,830.000,830.000,828.000,860.000
991.544,892.000,854.000,825.000,825.000,826.000,828.000,831.000,859.000,854.000,858.000
993.288,919.000,852.000,854.000,837.000,853.000,850.000,858.000,870.000,855.000,865.000
995.031,907.000,862.000,839.000,891.000,865.000,889.000,907.000,896.000,912.000,920.000
996.773,910.000,882.000,901.000,909.000,896.000,919.000,918.000,939.000,958.000,967.000
998.515,926.000,878.000,909.000,907.000,884.000,895.000,909.000,930.000,932.000,967.000
1000.255,923.000,854.000,877.000,861.000,868.000,860.000,885.000,885.000,905.000,913.000
1001.997,907.000,869.000,853.000,839.000,842.000,857.000,866.000,894.000,895.000,883.000
1003.738,923.000,856.000,855.000,863.000,857.000,848.000,869.000,868.000,890.000,885.000
1005.479,906.000,847.000,847.000,844.000,855.000,851.000,866.000,876.000,875.000,891.000
1007.220,906.000,852.000,849.000,855.000,876.000,857.000,861.000,871.000,895.000,869.000
1008.960,900.000,852.000,851.000,846.000,844.000,851.000,872.000,876.000,887.000,880.000
1010.700,906.000,855.000,863.000,863.000,846.000,866.000,888.000,868.000,876.000,890.000
1012.439,881.000,852.000,845.000,840.000,852.000,876.000,864.000,875.000,883.000,897.000
1014.179,923.000,860.000,868.000,874.000,867.000,863.000,858.000,883.000,886.000,885.000
1015.915,935.000,873.000,874.000,869.000,875.000,858.000,869.000,885.000,914.000,906.000
1017.654,921.000,851.000,854.000,863.000,862.000,866.000,903.000,877.000,883.000,895.000
1019.392,921.000,855.000,870.000,869.000,880.000,870.000,880.000,894.000,903.000,902.000
1021.130,929.000,868.000,859.000,869.000,875.000,876.000,912.000,895.000,933.000,915.000
1022.868,927.000,868.000,865.000,880.000,886.000,880.000,878.000,913.000,897.000,938.000
1024.605,935.000,877.000,853.000,887.000,886.000,877.000,908.000,916.000,890.000,921.000
1026.341,933.000,883.000,878.000,858.000,897.000,872.000,894.000,908.000,931.000,912.000
1028.078,919.000,879.000,855.000,875.000,888.000,881.000,886.000,897.000,912.000,939.000
1029.814,908.000,854.000,851.000,851.000,843.000,866.000,889.000,909.000,905.000,911.000
1031.550,924.000,871.000,860.000,864.000,874.000,1395.000,884.000,907.000,894.000,915.000
1033.283,907.000,863.000,860.000,860.000,853.000,2682.000,849.000,876.000,901.000,892.000
1035.019,929.000,859.000,844.000,865.000,835.000,912.000,863.000,897.000,893.000,894.000
1036.753,923.000,854.000,860.000,880.000,851.000,876.000,880.000,889.000,893.000,885.000
1038.488,927.000,859.000,852.000,852.000,848.000,884.000,892.000,871.000,899.000,922.000
1040.222,936.000,855.000,861.000,864.000,865.000,885.000,869.000,875.000,880.000,891.000
1041.956,911.000,852.000,847.000,845.000,865.000,867.000,871.000,873.000,869.000,882.000
1043.689,919.000,848.000,855.000,837.000,850.000,844.000,854.000,865.000,875.000,883.000
1045.422,901.000,845.000,825.000,847.000,846.000,843.000,850.000,832.000,859.000,855.000
1047.155,889.000,837.000,834.000,851.000,825.000,834.000,841.000,840.000,835.000,849.000
1048.887,908.000,826.000,838.000,823.000,817.000,831.000,838.000,831.000,850.000,857.000
1050.617,914.000,843.000,840.000,839.000,810.000,834.000,830.000,811.000,851.000,833.000
1052.349,888.000,820.000,832.000,811.000,796.000,834.000,820.000,831.000,830.000,841.000
1054.081,895.000,806.000,823.000,815.000,820.000,837.000,841.000,831.000,836.000,824.000
1055.812,890.000,827.000,824.000,797.000,816.000,812.000,820.000,816.000,831.000,835.000
1057.542,882.000,830.000,799.000,806.000,796.000,814.000,822.000,823.000,823.000,835.000
1059.273,880.000,824.000,818.000,810.000,819.000,833.000,821.000,843.000,826.000,833.000
1061.003,888.000,837.000,811.000,826.000,831.000,823.000,849.000,827.000,831.000,831.000
1062.733,905.000,838.000,810.000,820.000,822.000,822.000,818.000,840.000,840.000,854.000
1064.462,910.000,838.000,830.000,840.000,816.000,819.000,851.000,855.000,844.000,837.000
1066.189,887.000,833.000,844.000,842.000,843.000,820.000,833.000,842.000,862.000,858.000
1067.918,927.000,828.000,856.000,834.000,826.000,826.000,827.000,860.000,855.000,856.000
1069.646,898.000,854.000,852.000,842.000,846.000,843.000,853.000,867.000,863.000,872.000
1071.374,926.000,851.000,859.000,864.000,853.000,871.000,865.000,880.000,874.000,898.000
1073.102,915.000,859.000,846.000,859.000,867.000,871.000,883.000,880.000,883.000,905.000
1074.829,928.000,858.000,860.000,880.000,869.000,883.000,896.000,887.000,902.000,917.000
1076.556,933.000,877.000,867.000,875.000,875.000,886.000,900.000,909.000,931.000,935.000
1078.283,958.000,874.000,884.000,884.000,871.000,910.000,908.000,910.000,907.000,940.000
1080.009,951.000,876.000,890.000,868.000,889.000,893.000,900.000,914.000,951.000,934.000
1081.733,935.000,901.000,885.000,912.000,900.000,915.000,940.000,940.000,941.000,963.000
1083.459,966.000,931.000,920.000,926.000,936.000,953.000,969.000,964.000,977.000,995.000
1085.184,979.000,919.000,935.000,931.000,938.000,973.000,961.000,961.000,1000.000,996.000
1086.909,977.000,918.000,935.000,941.000,955.000,957.000,979.000,990.000,992.000,1000.000
1088.634,958.000,905.000,927.000,942.000,938.000,975.000,976.000,979.000,999.000,1018.000
1090.358,935.000,902.000,888.000,903.000,918.000,916.000,936.000,952.000,955.000,939.000
1092.082,930.000,870.000,873.000,870.000,896.000,895.000,909.000,897.000,921.000,952.000
1093.806,927.000,862.000,864.000,879.000,877.000,859.000,882.000,891.000,888.000,887.000
1095.529,912.000,843.000,851.000,850.000,850.000,868.000,875.000,880.000,889.000,888.000
1097.252,925.000,856.000,840.000,835.000,848.000,846.000,851.000,839.000,857.000,847.000
1098.973,895.000,859.000,826.000,821.000,823.000,856.000,843.000,846.000,856.000,867.000
1100.695,911.000,834.000,842.000,840.000,828.000,828.000,825.000,831.000,840.000,832.000
1102.417,903.000,825.000,814.000,817.000,826.000,823.000,812.000,837.000,833.000,845.000
1104.139,898.000,836.000,830.000,826.000,809.000,805.000,818.000,821.000,823.000,844.000
1105.860,909.000,817.000,826.000,824.000,807.000,798.000,826.000,822.000,834.000,835.000
1107.581,906.000,838.000,824.000,812.000,804.000,819.000,818.000,840.000,828.000,802.000
1109.302,919.000,835.000,803.000,812.000,800.000,811.000,811.000,809.000,812.000,822.000
1111.022,891.000,840.000,803.000,826.000,802.000,823.000,815.000,820.000,817.000,819.000
1112.742,890.000,823.000,810.000,806.000,794.000,807.000,812.000,815.000,809.000,820.000
1114.462,886.000,818.000,817.000,798.000,802.000,816.000,811.000,792.000,829.000,824.000
1116.179,894.000,823.000,804.000,794.000,814.000,802.000,798.000,815.000,823.000,823.000
1117.898,902.000,827.000,806.000,818.000,804.000,811.000,808.000,804.000,809.000,796.000
1119.617,895.000,808.000,810.000,808.000,795.000,795.000,797.000,804.000,817.000,812.000
1121.335,893.000,822.000,808.000,802.000,808.000,797.000,792.000,802.000,803.000,816.000
1123.053,897.000,818.000,817.000,803.000,813.000,806.000,811.000,810.000,798.000,804.000
1124.771,902.000,812.000,787.000,774.000,788.000,782.000,803.000,788.000,793.000,799.000
1126.488,868.000,819.000,792.000,799.000,784.000,792.000,806.000,809.000,795.000,803.000
1128.205,882.000,818.000,825.000,798.000,788.000,800.000,792.000,803.000,808.000,816.000
1129.921,886.000,820.000,786.000,799.000,790.000,793.000,791.000,793.000,794.000,804.000
1131.636,876.000,824.000,791.000,798.000,785.000,795.000,801.000,811.000,879.000,799.000
1133.352,900.000,810.000,802.000,796.000,796.000,794.000,796.000,793.000,1352.000,802.000
1135.067,875.000,824.000,793.000,793.000,790.000,799.000,779.000,794.000,1103.000,777.000
1136.783,873.000,807.000,791.000,799.000,788.000,780.000,796.000,775.000,799.000,776.000
1138.498,901.000,813.000,791.000,790.000,782.000,783.000,795.000,782.000,800.000,819.000
1140.212,884.000,808.000,819.000,803.000,796.000,784.000,783.000,797.000,797.000,796.000
1141.927,883.000,807.000,797.000,799.000,791.000,791.000,791.000,786.000,795.000,811.000
1143.641,879.000,831.000,795.000,797.000,799.000,792.000,789.000,806.000,775.000,805.000
1145.354,894.000,813.000,802.000,785.000,816.000,803.000,820.000,801.000,808.000,815.000
1147.066,891.000,823.000,811.000,812.000,794.000,796.000,813.000,803.000,805.000,816.000
1148.779,875.000,818.000,802.000,791.000,798.000,797.000,809.000,792.000,802.000,820.000
1150.491,906.000,834.000,816.000,818.000,794.000,797.000,827.000,794.000,808.000,824.000
1152.203,916.000,819.000,821.000,816.000,819.000,820.000,818.000,820.000,813.000,827.000
1153.915,895.000,823.000,805.000,812.000,804.000,801.000,813.000,813.000,811.000,818.000
1155.627,899.000,827.000,819.000,822.000,815.000,827.000,817.000,826.000,820.000,812.000
1157.338,919.000,836.000,823.000,804.000,806.000,818.000,829.000,831.000,832.000,841.000
1159.049,901.000,831.000,830.000,804.000,820.000,806.000,831.000,822.000,821.000,836.000
1160.760,893.000,830.000,827.000,818.000,807.000,819.000,829.000,826.000,821.000,819.000
1162.470,921.000,834.000,827.000,839.000,822.000,838.000,822.000,836.000,839.000,846.000
1164.178,924.000,830.000,835.000,836.000,825.000,821.000,835.000,850.000,844.000,858.000
1165.888,920.000,842.000,828.000,835.000,833.000,826.000,833.000,840.000,843.000,859.000
1167.597,910.000,854.000,839.000,835.000,845.000,834.000,836.000,841.000,852.000,864.000
1169.306,910.000,836.000,838.000,826.000,827.000,833.000,826.000,824.000,843.000,849.000
1171.015,908.000,831.000,810.000,821.000,827.000,823.000,818.000,838.000,810.000,823.000
1172.723,905.000,834.000,828.000,831.000,821.000,820.000,816.000,813.000,821.000,820.000
1174.431,917.000,855.000,819.000,818.000,810.000,819.000,806.000,828.000,824.000,814.000
1176.139,912.000,836.000,827.000,804.000,806.000,809.000,815.000,805.000,820.000,808.000
1177.846,879.000,818.000,814.000,812.000,797.000,807.000,810.000,801.000,801.000,831.000
1179.553,888.000,839.000,821.000,814.000,814.000,805.000,799.000,807.000,835.000,831.000
1181.258,926.000,851.000,824.000,810.000,818.000,814.000,799.000,827.000,809.000,831.000
1182.964,889.000,816.000,804.000,818.000,806.000,812.000,817.000,812.000,811.000,831.000
1184.670,905.000,831.000,829.000,801.000,820.000,831.000,811.000,834.000,814.000,815.000
1186.376,920.000,847.000,841.000,831.000,820.000,810.000,824.000,826.000,827.000,839.000
1188.081,926.000,827.000,845.000,835.000,819.000,833.000,834.000,833.000,837.000,850.000
1189.786,944.000,856.000,844.000,849.000,856.000,874.000,850.000,862.000,868.000,867.000
1191.491,935.000,874.000,854.000,850.000,826.000,857.000,870.000,869.000,871.000,888.000
1193.195,930.000,873.000,868.000,866.000,862.000,876.000,861.000,862.000,872.000,886.000
1194.899,949.000,885.000,876.000,874.000,888.000,903.000,898.000,900.000,901.000,909.000
1196.601,982.000,922.000,907.000,909.000,920.000,934.000,935.000,970.000,961.000,977.000
1198.305,976.000,916.000,923.000,947.000,925.000,962.000,944.000,981.000,978.000,985.000
1200.008,980.000,936.000,933.000,949.000,956.000,982.000,980.000,996.000,1012.000,1021.000
1201.710,1011.000,968.000,948.000,957.000,965.000,992.000,1011.000,1013.000,1033.000,1051.000
1203.413,1001.000,936.000,974.000,963.000,961.000,999.000,1019.000,1017.000,1026.000,1036.000
1205.115,994.000,921.000,962.000,991.000,990.000,998.000,1021.000,1029.000,1044.000,1042.000
1206.817,1017.000,959.000,970.000,991.000,1001.000,1015.000,1045.000,1063.000,1059.000,1071.000
1208.518,1037.000,1002.000,985.000,994.000,1006.000,1045.000,1056.000,1095.000,1091.000,1110.000
1210.219,1022.000,971.000,982.000,1018.000,1025.000,1034.000,1047.000,1090.000,1097.000,1117.000
1211.918,1021.000,981.000,1008.000,1039.000,1030.000,1064.000,1074.000,1103.000,1122.000,1135.000
1213.618,1040.000,1022.000,1029.000,1059.000,1065.000,1090.000,1114.000,1130.000,1155.000,1154.000
1215.318,1054.000,1026.000,1014.000,1037.000,1036.000,1106.000,1088.000,1110.000,1112.000,1183.000
1217.018,1040.000,1020.000,1038.000,1032.000,1075.000,1077.000,1118.000,1143.000,1160.000,1183.000
1218.717,1070.000,1050.000,1057.000,1082.000,1090.000,1109.000,1119.000,1152.000,1224.000,1199.000
1220.417,1080.000,1042.000,1061.000,1096.000,1071.000,1132.000,1151.000,1147.000,2064.000,1206.000
1222.115,1065.000,1029.000,1043.000,1082.000,1069.000,1120.000,1140.000,1180.000,1191.000,1163.000
1223.814,1056.000,1022.000,1052.000,1072.000,1092.000,1124.000,1119.000,1138.000,1184.000,1189.000
1225.512,1092.000,1023.000,1045.000,1085.000,1078.000,1114.000,1123.000,1157.000,1187.000,1177.000
1227.208,1049.000,1006.000,1008.000,1031.000,1037.000,1059.000,1104.000,1131.000,1107.000,1158.000
1228.905,1040.000,1003.000,1001.000,1039.000,1047.000,1070.000,1086.000,1078.000,1117.000,1154.000
1230.602,1049.000,976.000,1007.000,1023.000,1017.000,1060.000,1085.000,1092.000,1132.000,1145.000
1232.299,1052.000,984.000,983.000,1002.000,1016.000,1065.000,1046.000,1075.000,1084.000,1107.000
1233.996,1008.000,986.000,995.000,987.000,1001.000,1009.000,1043.000,1041.000,1067.000,1083.000
1235.692,1023.000,967.000,953.000,976.000,994.000,1011.000,1047.000,1063.000,1063.000,1088.000
1237.387,1020.000,972.000,943.000,963.000,991.000,993.000,1022.000,1041.000,1041.000,1025.000
1239.083,988.000,944.000,938.000,945.000,969.000,967.000,999.000,994.000,1009.000,1027.000
1240.778,987.000,927.000,945.000,939.000,953.000,974.000,993.000,995.000,1015.000,1020.000
1242.473,1014.000,931.000,943.000,960.000,951.000,974.000,981.000,987.000,1000.000,1023.000
1244.166,979.000,922.000,907.000,914.000,959.000,949.000,981.000,971.000,961.000,1006.000
1245.860,1003.000,958.000,916.000,931.000,935.000,954.000,956.000,965.000,966.000,978.000
1247.554,983.000,948.000,923.000,924.000,932.000,953.000,947.000,970.000,960.000,978.000
1249.247,998.000,920.000,898.000,915.000,925.000,908.000,926.000,966.000,981.000,974.000
1250.940,989.000,890.000,914.000,914.000,901.000,912.000,951.000,937.000,956.000,971.000
1252.633,982.000,908.000,902.000,897.000,917.000,921.000,933.000,952.000,964.000,960.000
1254.326,986.000,899.000,925.000,903.000,913.000,933.000,932.000,968.000,924.000,997.000
1256.018,955.000,922.000,885.000,909.000,904.000,886.000,932.000,928.000,948.000,943.000
1257.710,981.000,887.000,885.000,908.000,900.000,892.000,919.000,935.000,952.000,962.000
1259.401,954.000,894.000,898.000,914.000,899.000,904.000,932.000,937.000,941.000,944.000
1261.091,961.000,882.000,885.000,883.000,881.000,895.000,919.000,924.000,902.000,963.000
1262.782,967.000,881.000,868.000,882.000,888.000,899.000,895.000,941.000,909.000,934.000
1264.472,974.000,891.000,889.000,884.000,898.000,900.000,925.000,919.000,897.000,932.000
1266.162,957.000,890.000,903.000,885.000,885.000,874.000,893.000,893.000,914.000,922.000
1267.852,949.000,864.000,867.000,862.000,875.000,881.000,876.000,910.000,895.000,891.000
1269.542,953.000,876.000,890.000,882.000,858.000,889.000,884.000,889.000,921.000,920.000
1271.231,953.000,869.000,865.000,877.000,880.000,866.000,889.000,868.000,912.000,901.000
1272.920,954.000,864.000,836.000,849.000,844.000,887.000,856.000,888.000,874.000,886.000
1274.609,943.000,878.000,864.000,875.000,857.000,870.000,872.000,893.000,877.000,903.000
1276.295,943.000,1664.000,866.000,872.000,859.000,852.000,890.000,890.000,881.000,887.000
1277.983,966.000,962.000,858.000,853.000,843.000,848.000,861.000,882.000,885.000,883.000
1279.671,965.000,886.000,845.000,863.000,859.000,860.000,867.000,844.000,852.000,875.000
1281.358,953.000,873.000,867.000,854.000,849.000,870.000,852.000,863.000,875.000,870.000
1283.045,953.000,860.000,858.000,853.000,856.000,852.000,876.000,865.000,868.000,855.000
1284.732,910.000,843.000,861.000,857.000,862.000,832.000,844.000,877.000,837.000,871.000
1286.418,942.000,862.000,856.000,843.000,1504.000,847.000,853.000,847.000,890.000,861.000
1288.104,949.000,850.000,851.000,851.000,859.000,833.000,853.000,876.000,858.000,867.000
1289.790,941.000,862.000,841.000,842.000,837.000,829.000,831.000,838.000,847.000,862.000
1291.473,936.000,881.000,867.000,862.000,830.000,838.000,833.000,852.000,875.000,858.000
1293.158,937.000,865.000,862.000,847.000,864.000,847.000,835.000,869.000,872.000,879.000
1294.843,932.000,851.000,855.000,842.000,828.000,836.000,859.000,842.000,851.000,850.000
1296.528,953.000,860.000,836.000,838.000,837.000,823.000,841.000,837.000,837.000,854.000
1298.212,948.000,839.000,842.000,832.000,835.000,836.000,842.000,857.000,853.000,858.000
1299.895,938.000,850.000,850.000,843.000,824.000,835.000,840.000,870.000,852.000,853.000
1301.579,927.000,851.000,844.000,829.000,839.000,843.000,827.000,835.000,839.000,845.000
1303.262,921.000,859.000,859.000,836.000,834.000,843.000,838.000,845.000,847.000,858.000
1304.945,930.000,864.000,844.000,845.000,847.000,857.000,840.000,847.000,867.000,867.000
1306.627,917.000,856.000,839.000,835.000,822.000,835.000,836.000,849.000,830.000,846.000
1308.307,920.000,847.000,819.000,840.000,826.000,819.000,830.000,835.000,839.000,851.000
1309.989,952.000,845.000,827.000,834.000,816.000,827.000,844.000,823.000,851.000,857.000
1311.671,931.000,863.000,831.000,828.000,815.000,838.000,818.000,841.000,825.000,848.000
1313.352,914.000,840.000,821.000,807.000,825.000,819.000,828.000,824.000,825.000,835.000
1315.033,942.000,852.000,835.000,816.000,819.000,846.000,826.000,826.000,825.000,830.000
1316.713,929.000,853.000,824.000,833.000,819.000,833.000,831.000,831.000,843.000,859.000
1318.393,922.000,839.000,840.000,827.000,815.000,824.000,824.000,833.000,832.000,841.000
1320.073,926.000,867.000,837.000,837.000,828.000,836.000,849.000,839.000,826.000,836.000
1321.753,938.000,857.000,828.000,840.000,822.000,845.000,817.000,846.000,839.000,859.000
1323.432,917.000,833.000,830.000,837.000,824.000,831.000,852.000,833.000,856.000,850.000
1325.109,926.000,855.000,837.000,820.000,812.000,833.000,839.000,835.000,848.000,834.000
1326.788,942.000,871.000,853.000,837.000,828.000,837.000,844.000,839.000,841.000,853.000
1328.466,944.000,852.000,859.000,823.000,834.000,846.000,842.000,840.000,827.000,850.000
1330.144,930.000,843.000,851.000,831.000,821.000,825.000,839.000,860.000,846.000,846.000
1331.822,925.000,838.000,830.000,830.000,846.000,831.000,828.000,841.000,841.000,851.000
1333.499,935.000,855.000,847.000,834.000,850.000,832.000,847.000,834.000,853.000,839.000
1335.176,918.000,854.000,839.000,827.000,827.000,835.000,834.000,841.000,834.000,845.000
1336.852,929.000,850.000,827.000,821.000,825.000,823.000,828.000,830.000,832.000,839.000
1338.529,942.000,844.000,837.000,838.000,831.000,818.000,831.000,833.000,841.000,835.000
1340.203,912.000,857.000,834.000,828.000,825.000,827.000,825.000,820.000,831.000,834.000
1341.879,920.000,846.000,844.000,838.000,818.000,823.000,824.000,829.000,830.000,821.000
1343.554,933.000,857.000,813.000,838.000,824.000,829.000,831.000,837.000,819.000,831.000
1345.229,929.000,857.000,832.000,826.000,811.000,812.000,818.000,841.000,832.000,859.000
1346.904,926.000,866.000,841.000,838.000,832.000,837.000,845.000,825.000,851.000,832.000
1348.578,940.000,868.000,832.000,852.000,826.000,833.000,837.000,834.000,840.000,835.000
1350.252,938.000,848.000,853.000,853.000,808.000,843.000,836.000,845.000,846.000,829.000
1351.926,938.000,860.000,838.000,823.000,821.000,831.000,845.000,854.000,839.000,844.000
1353.599,951.000,860.000,829.000,843.000,835.000,842.000,836.000,861.000,839.000,869.000
1355.271,949.000,860.000,850.000,850.000,847.000,836.000,853.000,859.000,855.000,861.000
1356.943,935.000,855.000,871.000,858.000,829.000,866.000,865.000,867.000,870.000,863.000
1358.616,947.000,858.000,842.000,857.000,822.000,865.000,854.000,856.000,861.000,866.000
1360.288,960.000,863.000,853.000,845.000,858.000,840.000,850.000,859.000,858.000,865.000
1361.960,955.000,867.000,854.000,832.000,850.000,843.000,843.000,858.000,875.000,856.000
1363.631,931.000,859.000,831.000,850.000,844.000,837.000,838.000,844.000,843.000,856.000
1365.303,936.000,844.000,851.000,834.000,837.000,829.000,838.000,840.000,823.000,838.000
1366.973,937.000,878.000,855.000,825.000,836.000,835.000,850.000,846.000,843.000,830.000
1368.644,924.000,852.000,832.000,827.000,812.000,822.000,830.000,839.000,842.000,840.000
1370.314,945.000,854.000,851.000,835.000,821.000,832.000,831.000,825.000,818.000,837.000
1371.982,951.000,875.000,843.000,853.000,844.000,830.000,833.000,839.000,843.000,824.000
1373.652,932.000,872.000,852.000,847.000,838.000,854.000,828.000,858.000,842.000,835.000
1375.321,941.000,852.000,835.000,838.000,833.000,845.000,845.000,840.000,840.000,870.000
1376.990,942.000,846.000,870.000,841.000,846.000,843.000,855.000,842.000,874.000,870.000
1378.659,950.000,860.000,857.000,857.000,859.000,849.000,872.000,877.000,888.000,909.000
1380.327,972.000,874.000,867.000,856.000,858.000,869.000,895.000,870.000,891.000,887.000
1381.995,981.000,873.000,889.000,887.000,880.000,874.000,894.000,887.000,889.000,918.000
1383.663,986.000,904.000,895.000,883.000,906.000,883.000,922.000,919.000,944.000,938.000
1385.330,980.000,918.000,905.000,911.000,907.000,914.000,926.000,944.000,951.000,949.000
1386.997,972.000,915.000,912.000,908.000,885.000,907.000,933.000,961.000,954.000,953.000
1388.662,1005.000,932.000,923.000,921.000,915.000,916.000,962.000,971.000,971.000,988.000
1390.328,1008.000,938.000,938.000,933.000,946.000,953.000,966.000,967.000,975.000,984.000
1391.994,991.000,935.000,1392.000,938.000,936.000,949.000,950.000,963.000,967.000,988.000
1393.660,1003.000,929.000,1179.000,920.000,943.000,930.000,965.000,952.000,976.000,961.000
1395.326,1002.000,947.000,931.000,930.000,920.000,922.000,947.000,935.000,965.000,955.000
1396.991,986.000,916.000,907.000,911.000,932.000,909.000,932.000,935.000,940.000,932.000
1398.656,989.000,898.000,898.000,907.000,902.000,921.000,908.000,928.000,944.000,931.000
1400.320,985.000,929.000,899.000,889.000,898.000,914.000,904.000,927.000,925.000,938.000
1401.984,1008.000,883.000,895.000,899.000,889.000,894.000,915.000,915.000,933.000,925.000
1403.646,997.000,895.000,892.000,877.000,852.000,875.000,865.000,891.000,885.000,903.000
1405.310,975.000,916.000,881.000,880.000,875.000,880.000,887.000,897.000,888.000,908.000
1406.973,977.000,899.000,870.000,881.000,882.000,879.000,879.000,892.000,901.000,903.000
1408.636,971.000,886.000,878.000,860.000,855.000,878.000,885.000,903.000,882.000,889.000
1410.298,956.000,871.000,880.000,1993.000,864.000,874.000,871.000,861.000,870.000,891.000
1411.961,952.000,869.000,854.000,885.000,851.000,887.000,867.000,865.000,885.000,895.000
1413.623,959.000,889.000,874.000,1461.000,865.000,854.000,869.000,868.000,876.000,870.000
1415.284,959.000,892.000,856.000,847.000,856.000,854.000,849.000,858.000,846.000,858.000
1416.945,953.000,868.000,862.000,858.000,857.000,842.000,838.000,851.000,850.000,859.000
1418.605,970.000,883.000,851.000,858.000,835.000,837.000,858.000,846.000,859.000,837.000
1420.265,939.000,894.000,839.000,841.000,844.000,847.000,846.000,841.000,861.000,856.000
1421.926,948.000,852.000,844.000,846.000,849.000,837.000,819.000,849.000,844.000,863.000
1423.586,966.000,893.000,854.000,850.000,843.000,837.000,874.000,842.000,842.000,867.000
1425.245,943.000,867.000,847.000,824.000,850.000,841.000,840.000,831.000,845.000,841.000
1426.905,936.000,891.000,854.000,847.000,841.000,833.000,843.000,843.000,844.000,868.000
1428.564,972.000,867.000,856.000,855.000,830.000,840.000,858.000,870.000,865.000,871.000
1430.223,978.000,879.000,867.000,858.000,846.000,867.000,843.000,861.000,870.000,871.000
1431.881,960.000,880.000,864.000,843.000,839.000,842.000,862.000,874.000,873.000,897.000
1433.539,986.000,887.000,860.000,864.000,861.000,874.000,877.000,871.000,881.000,876.000
1435.195,984.000,894.000,860.000,857.000,856.000,851.000,898.000,887.000,874.000,885.000
1436.853,986.000,912.000,875.000,896.000,864.000,883.000,889.000,899.000,904.000,889.000
1438.510,996.000,914.000,887.000,886.000,858.000,892.000,886.000,897.000,900.000,907.000
1440.167,999.000,921.000,900.000,879.000,886.000,897.000,901.000,903.000,909.000,913.000
1441.823,1000.000,908.000,880.000,878.000,899.000,888.000,912.000,902.000,888.000,921.000
1443.479,997.000,899.000,872.000,875.000,894.000,891.000,895.000,915.000,899.000,916.000
1445.135,1003.000,889.000,894.000,867.000,868.000,891.000,871.000,882.000,913.000,880.000
1446.791,1006.000,884.000,883.000,888.000,879.000,874.000,881.000,903.000,896.000,919.000
1448.446,970.000,907.000,880.000,865.000,874.000,891.000,860.000,888.000,889.000,905.000
1450.101,986.000,892.000,879.000,869.000,849.000,867.000,872.000,864.000,880.000,884.000
1451.754,987.000,874.000,881.000,855.000,854.000,854.000,860.000,875.000,867.000,864.000
1453.408,1012.000,891.000,878.000,864.000,863.000,858.000,851.000,861.000,851.000,860.000
1455.062,973.000,884.000,864.000,853.000,827.000,850.000,849.000,852.000,844.000,863.000
1456.716,973.000,869.000,856.000,833.000,849.000,819.000,829.000,836.000,835.000,858.000
1458.370,956.000,869.000,857.000,837.000,826.000,850.000,846.000,847.000,848.000,852.000
1460.023,950.000,870.000,834.000,829.000,814.000,823.000,832.000,827.000,835.000,816.000
1461.675,971.000,857.000,858.000,832.000,824.000,818.000,822.000,804.000,838.000,820.000
1463.328,944.000,858.000,839.000,829.000,816.000,821.000,808.000,804.000,813.000,811.000
1464.980,965.000,853.000,833.000,816.000,815.000,807.000,814.000,808.000,793.000,799.000
1466.630,942.000,844.000,819.000,813.000,791.000,825.000,801.000,805.000,803.000,806.000
1468.281,949.000,839.000,818.000,813.000,807.000,815.000,784.000,780.000,799.000,792.000
1469.933,959.000,851.000,807.000,804.000,799.000,790.000,787.000,798.000,796.000,795.000
1471.583,956.000,843.000,811.000,807.000,782.000,807.000,789.000,778.000,775.000,784.000
1473.234,961.000,843.000,809.000,803.000,797.000,791.000,777.000,776.000,782.000,779.000
1474.884,934.000,867.000,804.000,818.000,808.000,789.000,783.000,772.000,790.000,777.000
1476.534,950.000,843.000,817.000,799.000,806.000,786.000,793.000,776.000,779.000,776.000
1478.184,962.000,819.000,812.000,796.000,793.000,781.000,766.000,783.000,785.000,769.000
1479.833,943.000,835.000,800.000,801.000,786.000,767.000,773.000,775.000,770.000,759.000
1481.480,952.000,843.000,801.000,792.000,785.000,776.000,757.000,769.000,765.000,776.000
1483.129,933.000,828.000,823.000,786.000,786.000,796.000,784.000,798.000,775.000,769.000
1484.777,949.000,839.000,810.000,786.000,773.000,779.000,788.000,773.000,760.000,771.000
1486.425,958.000,839.000,801.000,785.000,789.000,785.000,773.000,776.000,778.000,776.000
1488.073,931.000,839.000,790.000,796.000,786.000,771.000,763.000,772.000,768.000,772.000
1489.720,937.000,832.000,807.000,793.000,794.000,791.000,782.000,769.000,777.000,771.000
1491.368,920.000,838.000,812.000,796.000,785.000,800.000,767.000,768.000,777.000,763.000
1493.014,937.000,841.000,804.000,786.000,780.000,784.000,767.000,782.000,773.000,760.000
1494.661,959.000,851.000,809.000,793.000,773.000,777.000,767.000,782.000,770.000,777.000
1496.305,957.000,835.000,803.000,808.000,793.000,782.000,762.000,778.000,765.000,765.000
1497.951,951.000,838.000,828.000,782.000,788.000,782.000,778.000,781.000,770.000,776.000
1499.597,944.000,839.000,815.000,788.000,784.000,766.000,794.000,763.000,792.000,775.000
1501.242,976.000,835.000,808.000,781.000,784.000,777.000,789.000,788.000,776.000,794.000
1502.887,968.000,845.000,816.000,789.000,780.000,787.000,780.000,774.000,793.000,764.000
1504.531,969.000,842.000,819.000,812.000,783.000,796.000,791.000,784.000,784.000,784.000
1506.176,956.000,827.000,821.000,813.000,788.000,787.000,785.000,773.000,791.000,791.000
1507.820,961.000,838.000,812.000,807.000,803.000,779.000,795.000,780.000,779.000,775.000
1509.463,946.000,851.000,808.000,801.000,785.000,788.000,792.000,784.000,795.000,780.000
1511.107,955.000,851.000,820.000,814.000,806.000,794.000,782.000,790.000,791.000,788.000
1512.748,961.000,841.000,809.000,808.000,805.000,805.000,793.000,791.000,777.000,780.000
1514.391,955.000,845.000,818.000,798.000,793.000,790.000,800.000,802.000,791.000,781.000
1516.033,958.000,837.000,821.000,820.000,789.000,796.000,784.000,799.000,781.000,772.000
1517.675,958.000,844.000,805.000,826.000,803.000,796.000,791.000,798.000,790.000,790.000
1519.317,962.000,851.000,811.000,806.000,812.000,779.000,779.000,799.000,800.000,785.000
1520.958,980.000,846.000,830.000,809.000,807.000,812.000,790.000,794.000,801.000,794.000
1522.599,965.000,853.000,830.000,805.000,809.000,794.000,803.000,791.000,790.000,796.000
1524.240,957.000,860.000,825.000,819.000,788.000,790.000,797.000,798.000,785.000,799.000
1525.881,968.000,853.000,825.000,809.000,796.000,803.000,795.000,805.000,797.000,789.000
1527.521,975.000,851.000,846.000,810.000,796.000,799.000,794.000,796.000,805.000,794.000
1529.159,972.000,860.000,820.000,802.000,814.000,796.000,808.000,798.000,802.000,814.000
1530.799,975.000,849.000,835.000,811.000,804.000,801.000,803.000,795.000,788.000,806.000
1532.438,976.000,856.000,843.000,807.000,800.000,797.000,816.000,799.000,802.000,796.000
1534.077,981.000,840.000,838.000,821.000,805.000,793.000,787.000,807.000,795.000,802.000
1535.716,971.000,852.000,833.000,824.000,811.000,820.000,807.000,788.000,803.000,806.000
1537.354,954.000,856.000,831.000,818.000,790.000,796.000,786.000,782.000,798.000,793.000
1538.992,967.000,867.000,830.000,821.000,784.000,798.000,796.000,810.000,793.000,802.000
1540.630,974.000,852.000,830.000,821.000,814.000,799.000,805.000,788.000,801.000,791.000
1542.267,983.000,856.000,861.000,789.000,804.000,810.000,801.000,814.000,806.000,792.000
1543.903,950.000,858.000,832.000,816.000,811.000,803.000,816.000,818.000,803.000,803.000
1545.539,982.000,853.000,843.000,828.000,811.000,803.000,814.000,810.000,794.000,819.000
1547.176,973.000,870.000,839.000,831.000,818.000,822.000,810.000,805.000,811.000,801.000
1548.812,973.000,863.000,822.000,827.000,798.000,811.000,815.000,797.000,801.000,800.000
1550.448,965.000,847.000,810.000,829.000,806.000,806.000,796.000,784.000,797.000,789.000
1552.084,1010.000,857.000,815.000,820.000,806.000,786.000,794.000,800.000,789.000,790.000
1553.719,1217.000,852.000,829.000,808.000,796.000,799.000,794.000,785.000,786.000,799.000
1555.354,972.000,859.000,823.000,796.000,800.000,799.000,785.000,789.000,797.000,787.000
1556.988,981.000,851.000,832.000,796.000,809.000,782.000,778.000,787.000,787.000,799.000
1558.621,964.000,858.000,830.000,803.000,793.000,781.000,778.000,794.000,778.000,800.000
1560.255,967.000,838.000,811.000,797.000,794.000,781.000,787.000,783.000,782.000,785.000
1561.889,1221.000,834.000,819.000,798.000,798.000,789.000,782.000,788.000,775.000,788.000
1563.522,959.000,857.000,824.000,808.000,785.000,789.000,781.000,800.000,791.000,794.000
1565.155,964.000,846.000,839.000,814.000,787.000,802.000,785.000,816.000,788.000,785.000
1566.788,948.000,864.000,823.000,815.000,803.000,792.000,800.000,779.000,780.000,777.000
1568.420,970.000,837.000,828.000,829.000,805.000,795.000,790.000,796.000,793.000,787.000
1570.052,978.000,853.000,827.000,823.000,791.000,790.000,780.000,779.000,791.000,787.000
1571.684,973.000,854.000,836.000,805.000,787.000,819.000,785.000,781.000,787.000,795.000
1573.316,975.000,851.000,837.000,817.000,812.000,795.000,807.000,776.000,794.000,797.000
1574.945,980.000,852.000,824.000,814.000,801.000,786.000,806.000,788.000,787.000,803.000
1576.576,969.000,853.000,838.000,800.000,812.000,791.000,800.000,802.000,803.000,782.000
1578.207,973.000,853.000,823.000,821.000,827.000,804.000,808.000,811.000,803.000,799.000
1579.837,989.000,841.000,849.000,823.000,805.000,801.000,807.000,800.000,790.000,800.000
1581.467,965.000,875.000,839.000,819.000,817.000,807.000,808.000,805.000,795.000,789.000
1583.097,960.000,842.000,842.000,828.000,803.000,814.000,806.000,815.000,801.000,815.000
1584.726,952.000,880.000,840.000,826.000,831.000,804.000,824.000,811.000,829.000,809.000
1586.355,993.000,875.000,858.000,827.000,836.000,827.000,819.000,811.000,818.000,815.000
1587.984,969.000,887.000,850.000,829.000,839.000,830.000,804.000,836.000,835.000,820.000
1589.612,973.000,863.000,841.000,842.000,832.000,818.000,838.000,819.000,838.000,828.000
1591.239,984.000,882.000,837.000,834.000,832.000,824.000,834.000,837.000,832.000,816.000
1592.867,987.000,886.000,851.000,839.000,848.000,839.000,828.000,836.000,819.000,846.000
1594.494,1004.000,886.000,863.000,850.000,831.000,845.000,833.000,836.000,816.000,844.000
1596.121,990.000,878.000,847.000,858.000,843.000,859.000,841.000,845.000,849.000,840.000
1597.748,1001.000,880.000,867.000,849.000,829.000,848.000,803.000,844.000,844.000,854.000
1599.375,993.000,871.000,861.000,858.000,844.000,838.000,841.000,836.000,857.000,848.000
1601.001,983.000,891.000,868.000,885.000,861.000,864.000,856.000,842.000,868.000,863.000
1602.627,1013.000,910.000,887.000,859.000,884.000,866.000,874.000,853.000,882.000,869.000
1604.253,1024.000,893.000,889.000,876.000,880.000,856.000,870.000,889.000,871.000,896.000
1605.876,1012.000,905.000,878.000,886.000,868.000,887.000,865.000,862.000,896.000,891.000
1607.502,993.000,919.000,907.000,869.000,883.000,871.000,873.000,871.000,893.000,890.000
1609.126,1014.000,915.000,892.000,901.000,871.000,878.000,883.000,862.000,863.000,879.000
1610.751,1014.000,895.000,886.000,879.000,851.000,859.000,860.000,854.000,863.000,870.000
1612.375,1002.000,883.000,878.000,850.000,839.000,844.000,839.000,857.000,858.000,844.000
1613.999,981.000,873.000,867.000,856.000,843.000,837.000,852.000,851.000,844.000,844.000
1615.622,991.000,901.000,866.000,847.000,838.000,823.000,840.000,860.000,835.000,849.000
1617.245,995.000,877.000,850.000,857.000,830.000,840.000,829.000,844.000,838.000,843.000
1618.868,1006.000,875.000,865.000,852.000,844.000,845.000,831.000,835.000,835.000,823.000
1620.489,1002.000,892.000,850.000,860.000,867.000,843.000,852.000,831.000,837.000,843.000
1622.112,1017.000,892.000,862.000,849.000,839.000,846.000,852.000,850.000,837.000,852.000
1623.734,1003.000,899.000,869.000,855.000,845.000,835.000,844.000,859.000,853.000,827.000
1625.355,1019.000,908.000,852.000,863.000,860.000,857.000,858.000,842.000,845.000,852.000
1626.977,983.000,892.000,875.000,854.000,847.000,851.000,857.000,857.000,859.000,852.000
1628.598,991.000,887.000,879.000,850.000,852.000,878.000,863.000,852.000,855.000,865.000
1630.218,1022.000,895.000,869.000,868.000,865.000,862.000,839.000,873.000,867.000,860.000
1631.839,1010.000,907.000,872.000,874.000,898.000,865.000,860.000,865.000,873.000,866.000
1633.459,1006.000,920.000,898.000,874.000,875.000,875.000,883.000,883.000,876.000,883.000
1635.079,1001.000,917.000,903.000,895.000,869.000,872.000,888.000,877.000,884.000,895.000
1636.697,1028.000,920.000,893.000,892.000,885.000,895.000,902.000,898.000,898.000,914.000
1638.316,1023.000,909.000,897.000,890.000,905.000,888.000,896.000,889.000,914.000,901.000
1639.935,1017.000,920.000,885.000,878.000,880.000,906.000,890.000,901.000,910.000,903.000
1641.554,1010.000,915.000,927.000,915.000,906.000,907.000,923.000,920.000,935.000,921.000
1643.172,1042.000,945.000,923.000,937.000,911.000,916.000,927.000,936.000,949.000,926.000
1644.790,1035.000,931.000,921.000,914.000,917.000,916.000,914.000,924.000,934.000,937.000
1646.408,1055.000,930.000,937.000,916.000,927.000,904.000,931.000,935.000,940.000,938.000
1648.025,1038.000,961.000,927.000,922.000,915.000,942.000,925.000,940.000,968.000,961.000
1649.642,1042.000,956.000,942.000,926.000,937.000,923.000,941.000,955.000,968.000,960.000
1651.259,1071.000,955.000,899.000,911.000,928.000,943.000,922.000,955.000,947.000,959.000
1652.874,1034.000,959.000,937.000,950.000,939.000,927.000,947.000,952.000,968.000,967.000
1654.490,1045.000,965.000,958.000,962.000,967.000,947.000,962.000,969.000,968.000,999.000
1656.106,1046.000,972.000,938.000,940.000,955.000,959.000,992.000,985.000,984.000,998.000
1657.721,1048.000,948.000,950.000,951.000,948.000,952.000,968.000,993.000,983.000,993.000
1659.337,1070.000,964.000,942.000,963.000,939.000,970.000,980.000,990.000,980.000,1007.000
1660.952,1079.000,967.000,962.000,967.000,955.000,964.000,974.000,988.000,986.000,981.000
1662.566,1058.000,958.000,956.000,934.000,935.000,968.000,966.000,971.000,1005.000,992.000
1664.181,1034.000,974.000,943.000,940.000,963.000,964.000,966.000,974.000,976.000,990.000
1665.795,1091.000,969.000,947.000,973.000,950.000,968.000,969.000,993.000,972.000,1009.000
1667.407,1035.000,971.000,937.000,942.000,963.000,958.000,979.000,992.000,956.000,975.000
1669.020,1027.000,964.000,940.000,966.000,938.000,943.000,938.000,942.000,972.000,961.000
1670.633,1051.000,955.000,936.000,940.000,935.000,939.000,958.000,956.000,952.000,977.000
1672.246,1034.000,940.000,922.000,938.000,949.000,926.000,949.000,936.000,962.000,951.000
1673.859,1044.000,934.000,917.000,931.000,923.000,928.000,936.000,936.000,939.000,939.000
1675.471,1033.000,933.000,920.000,914.000,895.000,926.000,930.000,934.000,939.000,940.000
1677.083,1052.000,946.000,930.000,912.000,910.000,923.000,925.000,920.000,923.000,933.000
1678.695,1032.000,943.000,925.000,911.000,896.000,914.000,913.000,908.000,912.000,927.000
1680.306,1044.000,942.000,906.000,906.000,894.000,898.000,898.000,888.000,898.000,920.000
1681.915,1036.000,911.000,895.000,912.000,910.000,930.000,907.000,903.000,915.000,925.000
1683.526,1020.000,933.000,903.000,889.000,899.000,902.000,885.000,889.000,894.000,892.000
1685.136,1005.000,889.000,891.000,893.000,868.000,903.000,891.000,889.000,883.000,886.000
1686.746,1015.000,899.000,874.000,876.000,861.000,894.000,889.000,899.000,888.000,899.000
1688.356,1008.000,909.000,878.000,887.000,876.000,887.000,860.000,886.000,876.000,885.000
1689.966,1025.000,909.000,878.000,880.000,860.000,866.000,878.000,868.000,868.000,862.000
1691.575,1007.000,893.000,877.000,859.000,863.000,859.000,853.000,876.000,863.000,865.000
1693.184,990.000,911.000,880.000,860.000,866.000,859.000,860.000,855.000,885.000,848.000
1694.792,1002.000,889.000,883.000,865.000,864.000,851.000,846.000,859.000,863.000,834.000
1696.401,1019.000,903.000,851.000,856.000,841.000,835.000,830.000,832.000,849.000,833.000
1698.007,984.000,880.000,859.000,836.000,849.000,824.000,832.000,835.000,819.000,837.000
1699.615,993.000,871.000,867.000,842.000,838.000,837.000,825.000,831.000,835.000,830.000
1701.222,981.000,868.000,859.000,840.000,852.000,830.000,826.000,849.000,809.000,831.000
1702.829,971.000,875.000,853.000,826.000,825.000,832.000,825.000,813.000,817.000,807.000
1704.436,968.000,869.000,836.000,832.000,819.000,812.000,810.000,800.000,811.000,829.000
1706.042,976.000,888.000,845.000,825.000,850.000,823.000,822.000,809.000,818.000,811.000
1707.649,976.000,863.000,853.000,824.000,825.000,831.000,825.000,804.000,800.000,818.000
1709.254,984.000,869.000,841.000,842.000,822.000,799.000,812.000,800.000,822.000,817.000
1710.860,985.000,868.000,839.000,820.000,817.000,840.000,829.000,801.000,808.000,808.000
1712.465,969.000,872.000,869.000,826.000,830.000,815.000,808.000,811.000,822.000,819.000
1714.069,971.000,862.000,844.000,831.000,812.000,806.000,800.000,808.000,803.000,805.000
1715.673,981.000,873.000,819.000,827.000,826.000,815.000,823.000,811.000,810.000,803.000
1717.278,961.000,865.000,841.000,842.000,817.000,814.000,816.000,804.000,807.000,805.000
1718.882,963.000,876.000,837.000,832.000,816.000,816.000,823.000,816.000,805.000,804.000
1720.485,940.000,874.000,840.000,823.000,799.000,819.000,786.000,792.000,821.000,807.000
1722.089,991.000,865.000,842.000,822.000,809.000,820.000,815.000,805.000,809.000,824.000
1723.692,993.000,883.000,833.000,817.000,823.000,799.000,821.000,804.000,822.000,800.000
1725.295,976.000,864.000,840.000,823.000,812.000,815.000,825.000,806.000,811.000,805.000
1726.898,991.000,862.000,839.000,844.000,823.000,827.000,801.000,814.000,823.000,815.000
1728.498,976.000,860.000,850.000,831.000,827.000,817.000,805.000,803.000,815.000,809.000
1730.100,986.000,845.000,853.000,823.000,815.000,816.000,801.000,813.000,816.000,808.000
1731.702,990.000,880.000,856.000,827.000,815.000,815.000,816.000,799.000,810.000,807.000
1733.303,987.000,877.000,859.000,833.000,835.000,821.000,832.000,806.000,796.000,803.000
1734.904,981.000,867.000,854.000,845.000,820.000,817.000,827.000,830.000,800.000,823.000
1736.505,1003.000,884.000,866.000,834.000,827.000,828.000,806.000,825.000,793.000,803.000
1738.105,993.000,852.000,835.000,832.000,825.000,818.000,821.000,816.000,806.000,815.000
1739.706,986.000,891.000,845.000,838.000,829.000,820.000,825.000,816.000,811.000,810.000
1741.305,990.000,876.000,848.000,830.000,833.000,833.000,814.000,804.000,805.000,813.000
1742.903,980.000,878.000,857.000,843.000,833.000,815.000,802.000,816.000,814.000,819.000
1744.502,962.000,865.000,854.000,828.000,842.000,813.000,835.000,810.000,816.000,824.000
1746.101,1016.000,877.000,852.000,846.000,830.000,828.000,819.000,825.000,806.000,814.000
1747.700,976.000,882.000,842.000,843.000,823.000,833.000,827.000,835.000,806.000,825.000
1749.298,997.000,886.000,847.000,853.000,831.000,818.000,825.000,817.000,818.000,802.000
1750.897,993.000,889.000,841.000,841.000,829.000,827.000,813.000,835.000,825.000,816.000
1752.494,993.000,891.000,852.000,846.000,840.000,828.000,816.000,819.000,812.000,814.000
1754.092,972.000,881.000,877.000,829.000,830.000,819.000,813.000,820.000,809.000,820.000
1755.689,973.000,880.000,854.000,838.000,841.000,810.000,826.000,814.000,815.000,821.000
1757.284,971.000,887.000,868.000,842.000,833.000,847.000,824.000,819.000,820.000,820.000
1758.881,988.000,876.000,882.000,847.000,823.000,818.000,833.000,825.000,823.000,823.000
1760.477,980.000,889.000,864.000,825.000,819.000,838.000,829.000,831.000,816.000,810.000
1762.073,995.000,909.000,867.000,828.000,835.000,836.000,825.000,829.000,825.000,826.000
1763.669,1004.000,883.000,855.000,837.000,827.000,832.000,830.000,830.000,832.000,817.000
1765.264,988.000,899.000,858.000,849.000,832.000,830.000,851.000,840.000,818.000,838.000
1766.859,976.000,876.000,869.000,860.000,842.000,829.000,819.000,820.000,834.000,831.000
1768.454,1031.000,901.000,879.000,846.000,847.000,831.000,829.000,844.000,855.000,833.000
1770.048,997.000,893.000,871.000,859.000,859.000,836.000,844.000,848.000,847.000,842.000
1771.642,981.000,891.000,855.000,852.000,853.000,863.000,843.000,836.000,835.000,833.000
1773.235,991.000,889.000,853.000,851.000,832.000,843.000,831.000,833.000,833.000,839.000
1774.828,995.000,903.000,851.000,861.000,846.000,853.000,861.000,840.000,846.000,843.000
1776.421,1003.000,906.000,873.000,871.000,847.000,835.000,845.000,838.000,831.000,845.000
1778.014,1009.000,898.000,866.000,872.000,858.000,847.000,838.000,856.000,855.000,839.000
1779.607,999.000,900.000,877.000,859.000,845.000,862.000,853.000,855.000,844.000,848.000
1781.199,998.000,889.000,879.000,859.000,868.000,844.000,843.000,846.000,837.000,845.000
1782.792,987.000,892.000,887.000,869.000,844.000,855.000,865.000,823.000,836.000,849.000
1784.383,1011.000,904.000,881.000,873.000,867.000,844.000,844.000,841.000,850.000,831.000
1785.975,1002.000,915.000,880.000,884.000,838.000,883.000,823.000,850.000,848.000,838.000
1787.566,1006.000,915.000,892.000,873.000,861.000,865.000,858.000,861.000,875.000,842.000
1789.155,1005.000,912.000,891.000,869.000,863.000,865.000,868.000,835.000,844.000,862.000
1790.746,1000.000,912.000,911.000,875.000,873.000,873.000,845.000,884.000,863.000,849.000
1792.336,1008.000,935.000,898.000,882.000,852.000,872.000,875.000,861.000,856.000,866.000
1793.926,1017.000,906.000,899.000,894.000,868.000,885.000,878.000,873.000,851.000,850.000
1795.516,990.000,904.000,884.000,890.000,884.000,878.000,866.000,872.000,879.000,855.000
1797.105,1041.000,928.000,905.000,919.000,894.000,867.000,860.000,868.000,887.000,873.000
1798.694,1016.000,929.000,906.000,881.000,895.000,885.000,884.000,878.000,892.000,872.000
1800.283,1021.000,922.000,901.000,892.000,888.000,874.000,889.000,876.000,877.000,877.000
1801.872,1029.000,936.000,895.000,900.000,919.000,883.000,876.000,893.000,887.000,899.000
1803.458,1042.000,926.000,935.000,927.000,907.000,903.000,901.000,870.000,903.000,896.000
1805.046,1031.000,931.000,930.000,918.000,902.000,903.000,906.000,895.000,913.000,893.000
1806.634,1031.000,937.000,2346.000,929.000,912.000,894.000,899.000,907.000,888.000,904.000
1808.221,1037.000,953.000,1050.000,923.000,920.000,915.000,911.000,917.000,913.000,893.000
1809.808,1021.000,952.000,945.000,895.000,919.000,920.000,929.000,902.000,895.000,917.000
1811.395,1069.000,966.000,947.000,921.000,922.000,924.000,909.000,898.000,915.000,905.000
1812.981,1060.000,972.000,945.000,922.000,929.000,927.000,908.000,923.000,922.000,926.000
1814.567,1058.000,968.000,959.000,951.000,961.000,936.000,919.000,940.000,928.000,907.000
1816.153,1079.000,1007.000,971.000,950.000,923.000,936.000,948.000,925.000,946.000,963.000
1817.737,1104.000,987.000,959.000,958.000,968.000,970.000,944.000,963.000,946.000,973.000
1819.322,1102.000,1021.000,944.000,964.000,967.000,981.000,962.000,958.000,963.000,978.000
1820.907,1091.000,1005.000,1004.000,972.000,978.000,985.000,967.000,944.000,971.000,982.000
1822.492,1128.000,1016.000,1000.000,1000.000,989.000,955.000,990.000,972.000,971.000,981.000
1824.076,1124.000,1022.000,1015.000,1009.000,999.000,983.000,998.000,996.000,988.000,996.000
1825.661,1175.000,1062.000,1030.000,1011.000,1036.000,1012.000,1020.000,1038.000,1013.000,1034.000
