1277.764,11557.000
1279.446,11753.000
1281.128,11824.000
1282.811,11803.000
1284.492,11810.000
1286.173,11942.000
1287.853,12112.000
1289.535,12151.000
1291.215,12243.000
1292.895,12190.000
1294.574,11944.000
1296.253,11979.000
1297.933,12174.000
1299.611,12246.000
1301.289,12309.000
1302.967,12303.000
1304.646,12282.000
1306.323,12369.000
1307.999,12282.000
1309.676,12408.000
1311.352,12575.000
1313.029,12649.000
1314.704,12625.000
1316.379,12654.000
1318.054,12746.000
1319.730,12893.000
1321.404,12999.000
1323.078,13182.000
1324.751,13552.000
1326.424,13379.000
1328.099,13045.000
1329.772,12869.000
1331.444,12592.000
1333.115,12833.000
1334.789,12838.000
1336.460,12864.000
1338.131,12883.000
1339.801,12767.000
1341.473,12897.000
1343.143,13038.000
1344.813,13047.000
1346.482,13088.000
1348.151,13017.000
1349.821,13010.000
1351.489,12964.000
1353.157,13094.000
1354.825,13260.000
1356.494,13377.000
1358.161,13228.000
1359.828,13190.000
1361.494,12952.000
1363.160,13077.000
1364.828,13011.000
1366.493,13011.000
1368.158,13106.000
1369.823,13196.000
1371.489,13028.000
1373.153,12997.000
1374.817,13197.000
1376.481,13288.000
1378.144,13507.000
1379.809,13630.000
1381.471,13671.000
1383.133,13516.000
1384.795,13643.000
1386.459,13430.000
1388.120,13426.000
1389.781,13395.000
1391.442,13481.000
1393.102,13297.000
1394.764,12963.000
1396.423,12898.000
1398.083,12804.000
1399.742,12789.000
1401.402,12820.000
1403.061,13017.000
1404.719,12929.000
1406.377,13203.000
1408.034,13013.000
1409.693,13126.000
1411.350,12954.000
1413.007,13104.000
1414.663,13316.000
1416.320,13137.000
1417.976,13127.000
1419.631,13026.000
1421.286,12892.000
1422.941,13072.000
1424.597,13159.000
1426.251,13201.000
1427.905,13338.000
1429.558,13272.000
1431.213,13294.000
1432.866,13319.000
1434.518,13419.000
1436.170,13719.000
1437.822,13732.000
1439.475,13919.000
1441.126,14445.000
1442.777,14626.000
1444.428,14792.000
1446.080,14886.000
1447.730,14940.000
1449.379,14872.000
1451.029,14633.000
1452.679,14631.000
1454.328,14485.000
1455.976,14502.000
1457.625,14512.000
1459.272,14658.000
1460.921,14558.000
1462.569,14473.000
1464.215,14269.000
1465.862,14259.000
1467.510,14153.000
1469.156,14320.000
1470.801,14201.000
1472.446,14032.000
1474.091,13939.000
1475.738,13786.000
1477.382,13812.000
1479.026,13741.000
1480.670,13889.000
1482.315,13901.000
1483.958,13785.000
1485.600,13777.000
1487.243,13625.000
1488.885,13719.000
1490.529,13683.000
1492.170,13822.000
1493.811,13937.000
1495.452,13791.000
1497.094,13919.000
1498.735,13833.000
1500.374,13980.000
1502.014,13935.000
1503.653,13942.000
1505.294,14045.000
1506.933,14068.000
1508.571,13950.000
1510.209,14103.000
1511.849,13978.000
1513.486,13979.000
1515.123,14170.000
1516.760,14208.000
1518.397,14137.000
1520.035,14092.000
1521.671,14140.000
1523.306,14261.000
1524.941,14343.000
1526.578,14348.000
1528.213,14440.000
1529.847,14342.000
1531.481,14287.000
1533.115,14283.000
1534.750,14229.000
1536.383,14210.000
1538.016,14515.000
1539.648,14348.000
1541.282,14375.000
1542.914,14232.000
1544.546,14281.000
1546.177,14401.000
1547.808,14592.000
1549.440,14540.000
1551.071,14497.000
1552.701,14387.000
1554.330,14604.000
1555.962,14498.000
1557.591,14388.000
1559.219,14659.000
1560.848,14689.000
1562.476,14734.000
1564.106,14756.000
1565.733,14739.000
1567.360,14563.000
1568.987,14614.000
1570.616,14729.000
1572.242,14860.000
1573.868,14875.000
1575.494,14689.000
1577.121,14742.000
1578.746,14748.000
1580.371,14808.000
1581.995,14838.000
1583.619,14867.000
1585.245,15007.000
1586.869,15032.000
1588.492,15053.000
1590.115,15109.000
1591.739,14974.000
1593.362,15400.000
1594.984,15359.000
1596.605,15288.000
1598.227,15236.000
1599.850,15111.000
1601.470,14978.000
1603.091,14950.000
1604.711,15242.000
1606.333,15306.000
1607.952,15283.000
1609.572,15437.000
1611.191,15989.000
1612.809,15164.000
1614.429,15183.000
1616.047,15363.000
1617.665,15453.000
1619.283,15596.000
1620.902,15613.000
1622.518,15539.000
1624.135,15477.000
1625.751,15700.000
1627.367,15763.000
1628.984,16422.000
1630.600,16104.000
1632.215,16142.000
1633.830,16008.000
1635.446,16102.000
1637.060,16199.000
1638.674,16227.000
1640.287,16349.000
1641.900,16208.000
1643.515,16315.000
1645.127,16261.000
1646.740,16122.000
1648.352,16179.000
1649.965,16807.000
1651.577,17097.000
1653.188,17516.000
1654.798,17146.000
1656.409,16632.000
1658.021,16189.000
1659.631,16125.000
1661.240,16170.000
1662.849,16287.000
1664.460,16343.000
1666.069,16532.000
1667.677,17092.000
1669.285,17696.000
1670.895,18300.000
1672.502,18229.000
1674.109,17589.000
1675.716,16797.000
1677.323,16310.000
1678.931,16054.000
1680.537,15589.000
1682.142,15610.000
1683.747,16734.000
1685.354,15610.000
1686.959,15597.000
1688.563,15263.000
1690.168,15179.000
1691.771,15165.000
1693.377,15112.000
1694.980,15235.000
1696.583,15292.000
1698.185,15190.000
1699.789,15163.000
1701.392,15242.000
1702.993,15147.000
1704.595,15118.000
1706.196,15087.000
1707.798,15294.000
1709.399,15186.000
1710.999,15243.000
1712.599,14988.000
1714.200,14969.000
1715.800,15117.000
1717.399,15158.000
1718.997,15174.000
1720.596,15308.000
1722.196,15175.000
1723.794,15143.000
1725.391,15007.000
1726.988,15075.000
1728.587,15034.000
1730.184,15167.000
1731.780,15198.000
1733.376,15159.000
1734.972,15229.000
1736.569,15143.000
1738.164,14923.000
1739.759,15204.000
1741.353,15291.000
1742.949,15202.000
1744.543,15261.000
1746.137,15205.000
1747.730,15045.000
1749.323,15134.000
1750.918,15062.000
1752.510,15093.000
1754.102,15339.000
1755.694,15314.000
1757.288,15289.000
1758.879,15203.000
1760.470,15200.000
1762.060,15113.000
1763.651,15293.000
1765.243,15258.000
1766.832,15278.000
1768.422,15210.000
1770.011,15262.000
1771.602,15153.000
1773.190,15130.000
1774.779,15200.000
1776.367,15199.000
1777.954,15314.000
1779.543,15345.000
1781.131,15081.000
1782.717,15150.000
1784.304,15124.000
1785.892,15045.000
1787.478,15223.000
1789.063,15322.000
1790.649,15219.000
1792.236,15305.000
1793.820,15172.000
1795.405,15202.000
1796.989,15265.000
1798.573,15395.000
1800.158,15367.000
1801.741,15328.000
1803.324,15289.000
1804.907,15132.000
1806.491,15312.000
1808.073,15255.000
1809.655,15235.000
1811.236,15365.000
1812.818,15336.000
1814.400,15281.000
1815.981,15262.000
1817.561,15109.000
1819.141,15256.000
1820.723,15390.000
1822.302,15415.000
1823.881,15425.000
1825.460,15338.000
1827.039,15240.000
1828.619,15323.000
1830.197,15354.000
1831.774,15381.000
1833.352,15372.000
1834.930,15471.000
1836.507,15449.000
1838.084,15355.000
1839.660,15367.000
1841.236,15295.000
1842.813,15365.000
1844.389,15461.000
1845.964,15556.000
1847.538,15517.000
1849.115,15322.000
1850.689,15149.000
1852.263,15294.000
1853.836,15394.000
1855.409,15483.000
1856.984,15419.000
1858.557,15408.000
1860.129,15446.000
1861.701,15415.000
1863.275,15500.000
1864.846,15387.000
1866.418,15349.000
1867.989,15413.000
1869.561,15468.000
1871.131,15461.000
1872.701,15463.000
1874.271,15366.000
1875.841,15417.000
1877.412,15400.000
1878.981,15495.000
1880.549,15388.000
1882.117,15476.000
1883.687,15418.000
1885.255,15484.000
1886.822,15422.000
1888.390,15321.000
1889.956,15391.000
1891.525,15447.000
1893.091,15466.000
1894.657,15470.000
1896.223,15317.000
1897.790,15376.000
1899.355,15297.000
1900.920,15466.000
1902.484,15593.000
1904.049,15626.000
1905.614,15376.000
1907.178,15476.000
1908.741,15399.000
1910.304,15391.000
1911.869,15585.000
1913.432,15616.000
1914.994,15676.000
1916.556,15483.000
1918.117,15451.000
1919.680,15591.000
1921.242,15467.000
1922.802,15604.000
1924.363,15467.000
1925.925,15670.000
1927.485,15402.000
1929.044,15565.000
1930.604,15406.000
1932.163,15491.000
1933.723,15604.000
1935.282,15580.000
1936.840,15726.000
1938.398,15605.000
1939.957,15353.000
1941.514,15472.000
1943.071,15325.000
1944.628,15480.000
1946.185,15486.000
1947.743,15593.000
1949.298,15524.000
1950.854,15609.000
1952.409,15533.000
1953.966,15516.000
1955.521,15388.000
1957.075,15507.000
1958.629,15515.000
1960.183,15689.000
1961.739,15654.000
1963.292,15384.000
1964.845,15458.000
1966.398,15423.000
1967.952,15415.000
1969.504,15456.000
1971.056,15353.000
1972.607,15424.000
1974.159,15478.000
1975.712,15309.000
1977.262,15444.000
1978.813,15368.000
1980.363,15398.000
1981.914,15509.000
1983.464,15649.000
1985.013,15491.000
1986.562,15415.000
1988.111,15490.000
1989.661,15347.000
1991.209,15477.000
1992.757,15633.000
1994.305,15462.000
1995.854,15390.000
1997.401,15498.000
1998.948,15502.000
2000.494,15409.000
2002.042,15561.000
2003.588,15534.000
2005.133,15551.000
2006.679,15578.000
2008.224,15446.000
2009.770,15367.000
2011.315,15478.000
2012.859,15473.000
2014.403,15412.000
2015.948,15597.000
2017.491,15482.000
2019.034,15428.000
2020.577,15295.000
2022.119,15405.000
2023.663,15502.000
2025.205,15302.000
2026.747,15378.000
2028.288,15550.000
2029.831,15352.000
2031.372,15387.000
2032.912,15390.000
2034.452,15500.000
2035.992,15399.000
2037.534,15475.000
2039.073,15505.000
2040.612,15504.000
2042.151,15370.000
2043.691,15456.000
2045.229,15257.000
2046.767,15506.000
2048.305,15451.000
2049.842,15497.000
2051.381,15402.000
2052.918,15367.000
2054.454,15484.000
2055.991,17919.000
2057.528,15452.000
2059.064,15430.000
2060.599,15383.000
2062.134,15589.000
2063.669,15457.000
2065.206,15433.000
2066.740,15317.000
2068.274,15385.000
2069.808,15354.000
2071.343,15469.000
2072.876,15396.000
2074.409,15680.000
2075.941,15464.000
2077.475,15333.000
2079.007,15250.000
2080.539,15415.000
2082.070,15337.000
2083.602,15443.000
2085.134,15427.000
2086.665,15458.000
2088.195,15557.000
2089.725,15483.000
2091.257,15400.000
2092.786,15387.000
2094.315,15351.000
2095.844,15551.000
2097.373,15516.000
2098.903,15489.000
2100.431,15275.000
2101.959,15331.000
2103.487,15309.000
2105.015,15407.000
2106.542,15357.000
2108.069,15322.000
2109.596,15399.000
2111.122,15394.000
2112.649,15362.000
2114.175,15428.000
2115.700,15510.000
2117.225,15339.000
2118.752,15522.000
2120.276,15595.000
2121.800,15387.000
2123.324,15421.000
2124.848,15355.000
2126.373,15468.000
2127.896,15463.000
2129.419,15533.000
2130.941,15320.000
2132.465,15415.000
2133.987,15368.000
2135.509,15415.000
2137.030,15397.000
2138.551,15357.000
2140.074,15399.000
2141.594,15481.000
2143.115,15547.000
2144.635,15466.000
2146.156,15438.000
2147.676,15373.000
2149.195,15370.000
2150.714,15518.000
2152.232,15554.000
2153.752,15542.000
2155.270,15469.000
2156.788,15489.000
2158.306,15324.000
2159.825,15278.000
2161.342,15457.000
2162.858,15496.000
2164.375,15499.000
2165.891,15372.000
2167.408,15525.000
2168.924,15428.000
2170.439,15512.000
2171.954,15449.000
2173.471,15389.000
2174.985,15420.000
2176.499,15282.000
2178.013,15492.000
2179.527,15319.000
2181.042,15393.000
2182.555,15483.000
2184.068,15352.000
2185.581,15378.000
2187.095,15428.000
2188.607,15348.000
2190.118,15386.000
2191.630,15480.000
2193.141,15610.000
2194.653,15477.000
2196.164,15452.000
2197.674,15392.000
2199.184,15422.000
2200.696,15562.000
2202.205,15522.000
2203.715,15389.000
2205.224,15245.000
2206.734,15438.000
2208.243,15615.000
2209.751,15511.000
2211.259,15380.000
2212.766,15422.000
2214.275,15403.000
2215.782,15345.000
2217.289,15389.000
2218.795,15290.000
2220.303,15403.000
2221.809,15454.000
2223.315,15422.000
2224.820,15414.000
2226.326,15419.000
2227.832,15269.000
2229.337,15256.000
2230.841,15495.000
2232.345,15474.000
2233.851,15541.000
2235.354,15272.000
2236.857,15322.000
2238.360,15324.000
2239.863,15340.000
2241.367,15166.000
2242.869,15450.000
2244.371,15395.000
2245.873,15371.000
2247.375,15384.000
2248.877,15291.000
2250.377,15404.000
2251.878,15344.000
2253.378,15290.000
2254.880,15372.000
2256.379,15434.000
2257.879,15405.000
2259.378,15278.000
2260.878,15353.000
2262.377,15333.000
2263.875,15259.000
2265.373,15396.000
2266.873,15486.000
2268.370,15408.000
2269.868,15425.000
2271.365,15262.000
2272.861,15265.000
2274.359,15430.000
2275.855,15359.000
2277.351,15257.000
2278.847,15281.000
2280.344,15323.000
2281.839,15383.000
2283.334,15351.000
2284.828,15199.000
2286.323,15302.000
2287.818,15303.000
2289.312,15432.000
2290.805,15462.000
2292.299,15415.000
2293.793,15351.000
2295.286,15470.000
2296.778,15373.000
2298.270,15261.000
2299.762,15319.000
2301.255,15344.000
2302.747,15200.000
2304.238,15230.000
2305.728,15364.000
2307.220,15253.000
2308.711,15200.000
2310.201,15298.000
2311.690,15412.000
2313.180,15371.000
2314.670,15331.000
2316.159,15386.000
2317.648,15386.000
2319.136,15190.000
2320.626,15382.000
2322.114,15420.000
2323.601,15312.000
2325.089,15218.000
2326.575,15324.000
2328.064,15264.000
2329.550,15324.000
2331.036,15400.000
2332.522,15284.000
2334.010,15201.000
2335.495,15123.000
2336.980,15296.000
2338.465,15263.000
2339.950,15230.000
2341.435,15160.000
2342.920,15079.000
2344.403,15216.000
2345.887,15322.000
2347.372,15330.000
2348.855,15353.000
2350.337,15290.000
2351.820,15178.000
2353.302,15185.000
2354.785,15316.000
2356.267,15411.000
2357.748,15325.000
2359.229,15294.000
2360.712,15209.000
2362.193,15320.000
2363.673,15172.000
2365.153,15354.000
2366.633,15205.000
2368.114,15342.000
2369.593,15298.000
2371.072,15114.000
2372.551,15446.000
2374.031,15345.000
2375.509,15273.000
2376.987,15284.000
2378.464,15372.000
2379.942,15321.000
2381.420,15325.000
2382.897,15118.000
2384.374,15329.000
2385.850,15210.000
2387.328,15296.000
2388.804,15238.000
2390.279,15225.000
2391.754,15409.000
2393.229,15263.000
2394.706,15351.000
2396.180,15204.000
2397.654,15161.000
2399.128,15215.000
2400.603,15223.000
2402.077,15326.000
2403.550,15434.000
2405.023,15350.000
2406.495,15256.000
2407.969,15294.000
2409.441,15200.000
2410.913,15264.000
2412.385,15281.000
2413.858,15179.000
2415.329,15301.000
2416.799,15288.000
2418.270,15226.000
2419.742,15201.000
2421.211,15260.000
2422.681,15318.000
2424.151,15263.000
2425.620,15269.000
2427.090,15230.000
2428.559,15285.000
2430.027,15315.000
2431.495,15169.000
2432.965,15126.000
2434.432,15297.000
2435.900,15255.000
2437.367,15428.000
2438.833,15305.000
2440.302,15167.000
2441.768,15245.000
2443.234,15222.000
2444.700,15361.000
2446.167,15333.000
2447.632,15247.000
2449.097,15324.000
2450.561,15310.000
2452.026,15326.000
2453.492,15067.000
2454.956,15284.000
2456.419,15306.000
2457.883,15249.000
2459.347,15264.000
2460.810,15327.000
2462.273,15177.000
2463.735,15171.000
2465.199,15295.000
2466.660,15241.000
2468.122,15326.000
2469.583,15353.000
2471.044,15130.000
2472.507,15155.000
2473.967,15084.000
2475.427,15178.000
2476.887,15307.000
2478.349,15205.000
2479.808,15157.000
2481.267,15049.000
2482.726,15265.000
2484.185,15312.000
2485.645,15137.000
2487.103,15174.000
2488.561,15113.000
2490.018,15233.000
2491.477,15213.000
2492.935,15193.000
2494.391,15221.000
2495.848,15175.000
2497.304,15256.000
2498.762,15227.000
2500.218,15236.000
2501.673,15249.000
2503.129,15228.000
2504.585,15205.000
2506.040,15213.000
2507.494,15201.000
2508.949,15287.000
2510.403,15305.000
2511.858,15146.000
2513.311,15197.000
2514.765,15201.000
2516.217,15192.000
2517.672,15253.000
2519.124,15288.000
2520.576,15129.000
2522.028,15194.000
2523.480,15179.000
2524.933,15291.000
2526.384,15170.000
2527.835,15200.000
2529.285,15116.000
2530.737,15262.000
2532.187,15146.000
2533.637,15224.000
2535.087,15150.000
2536.536,15235.000
2537.987,15202.000
2539.436,15184.000
2540.884,15330.000
2542.332,15298.000
2543.782,15132.000
2545.230,15083.000
2546.677,15211.000
2548.125,15150.000
2549.572,15277.000
2551.020,15323.000
2552.466,15150.000
2553.913,15181.000
2555.359,15301.000
2556.806,15221.000
2558.251,15231.000
2559.696,15147.000
2561.141,15221.000
2562.586,15282.000
2564.032,15261.000
2565.476,15201.000
2566.920,15279.000
2568.364,15271.000
2569.809,15186.000
2571.252,15165.000
2572.695,15283.000
2574.137,15269.000
2575.580,15348.000
2577.023,15246.000
2578.465,15081.000
2579.907,15144.000
2581.348,15091.000
2582.791,15310.000
2584.232,15288.000
2585.672,15243.000
2587.113,15198.000
2588.553,15119.000
2589.994,15253.000
2591.434,15369.000
2592.873,15283.000
2594.312,15399.000
2595.752,15372.000
2597.191,15400.000
2598.629,15286.000
2600.067,15402.000
2601.505,15223.000
2602.944,15123.000
2604.381,15366.000
2605.818,15278.000
2607.255,15388.000
2608.693,15243.000
2610.129,15266.000
2611.565,15269.000
2613.001,15244.000
2614.438,15386.000
2615.873,15251.000
2617.308,15307.000
2618.743,15274.000
2620.177,15492.000
2621.613,15246.000
2623.047,15347.000
2624.480,15267.000
2625.914,15199.000
2627.349,15293.000
2628.782,15241.000
2630.214,15230.000
2631.647,15407.000
2633.079,15265.000
2634.512,15264.000
2635.944,15236.000
2637.375,15263.000
2638.806,15247.000
2640.239,15478.000
2641.669,15262.000
2643.100,15235.000
2644.530,15462.000
2645.960,15324.000
2647.391,15333.000
2648.820,15383.000
2650.249,15501.000
2651.678,15268.000
2653.109,15523.000
2654.537,15399.000
2655.965,15492.000
2657.393,15303.000
2658.822,15362.000
2660.249,15379.000
2661.676,15411.000
2663.103,15541.000
2664.530,15429.000
2665.958,15561.000
2667.384,15461.000
2668.810,15493.000
2670.235,15538.000
2671.662,15505.000
2673.087,15451.000
2674.512,15481.000
2675.937,15617.000
2677.361,15466.000
2678.787,15535.000
2680.210,15621.000
2681.634,15421.000
2683.057,15368.000
2684.482,15427.000
2685.905,15379.000
2687.327,15500.000
2688.749,15504.000
2690.172,15476.000
2691.595,15290.000
2693.016,15332.000
2694.438,15471.000
2695.859,15507.000
2697.281,15528.000
2698.702,15534.000
2700.122,15361.000
2701.542,15385.000
2702.962,15597.000
2704.383,15559.000
2705.802,15549.000
2707.221,15401.000
2708.640,15543.000
2710.060,15534.000
2711.478,15538.000
2712.897,15575.000
2714.314,15556.000
2715.732,15502.000
2717.151,15531.000
2718.568,15622.000
2719.985,15705.000
2721.401,15827.000
2722.819,15762.000
2724.235,15720.000
2725.651,15723.000
2727.066,15831.000
2728.482,15912.000
2729.898,15944.000
2731.313,15926.000
2732.728,15792.000
2734.142,15852.000
2735.557,15816.000
2736.971,15802.000
2738.385,15758.000
2739.798,15653.000
2741.211,15718.000
2742.626,15785.000
2744.038,15583.000
2745.450,15656.000
2746.862,15575.000
2748.276,15448.000
2749.687,15626.000
2751.099,15547.000
2752.510,15577.000
2753.921,15467.000
2755.333,15572.000
2756.743,15641.000
2758.153,15528.000
2759.563,15559.000
2760.974,15513.000
2762.383,15463.000
2763.792,15325.000
2765.201,15418.000
2766.610,15473.000
2768.020,15655.000
2769.428,15600.000
2770.836,15584.000
2772.243,15537.000
2773.652,15521.000
2775.059,15563.000
2776.466,15673.000
2777.873,15596.000
2779.279,15676.000
2780.687,15426.000
2782.093,15447.000
2783.498,15603.000
2784.904,15582.000
2786.310,15586.000
2787.715,15632.000
2789.120,15606.000
2790.524,15537.000
2791.928,15692.000
2793.334,15763.000
2794.737,15791.000
2796.141,15763.000
2797.544,15636.000
2798.948,15822.000
2800.351,15832.000
2801.754,15778.000
2803.156,15902.000
2804.559,15839.000
2805.961,15651.000
2807.362,15877.000
2808.764,15907.000
2810.164,15972.000
2811.567,16015.000
2812.967,15933.000
2814.367,16071.000
2815.767,15921.000
2817.169,16159.000
2818.568,16188.000
2819.967,16263.000
2821.366,16170.000
2822.765,16387.000
2824.165,16617.000
2825.563,16840.000
2826.961,17259.000
2828.359,17547.000
2829.758,17813.000
2831.155,18196.000
2832.552,18351.000
2833.949,17992.000
2835.346,17879.000
2836.743,17641.000
2838.140,17421.000
2839.535,17576.000
2840.931,17689.000
2842.328,17799.000
2843.723,18030.000
2845.118,18421.000
