-2535.843,3069.000,3054.000,3071.000
-2530.239,3063.000,3072.000,3066.000
-2524.637,3064.000,3063.000,3072.000
-2519.037,3063.000,3067.000,3073.000
-2513.440,3061.000,3070.000,3066.000
-2507.847,3064.000,3061.000,3065.000
-2502.255,3059.000,3058.000,3064.000
-2496.667,3062.000,3070.000,3067.000
-2491.083,3066.000,3055.000,3065.000
-2485.500,3066.000,3063.000,3075.000
-2479.922,3068.000,3063.000,3063.000
-2474.348,3078.000,3073.000,3065.000
-2468.774,3072.000,3062.000,3063.000
-2463.204,3062.000,3064.000,3067.000
-2457.637,3063.000,3068.000,3074.000
-2452.073,3064.000,3072.000,3072.000
-2446.510,3061.000,3064.000,3070.000
-2440.950,3065.000,3069.000,3067.000
-2435.395,3070.000,3065.000,3067.000
-2429.844,3064.000,3054.000,3066.000
-2424.294,3058.000,3072.000,3058.000
-2418.748,3063.000,3058.000,3062.000
-2413.204,3070.000,3062.000,3062.000
-2407.663,3070.000,3063.000,3066.000
-2402.124,3062.000,3065.000,3060.000
-2396.589,3065.000,3069.000,3054.000
-2391.057,3065.000,3064.000,3063.000
-2385.527,3055.000,3052.000,3066.000
-2380.000,3057.000,3075.000,3068.000
-2374.475,3062.000,3064.000,3064.000
-2368.954,3059.000,3070.000,3062.000
-2363.436,3053.000,3054.000,3062.000
-2357.923,3065.000,3066.000,3065.000
-2352.410,3074.000,3062.000,3060.000
-2346.901,3063.000,3059.000,3057.000
-2341.394,3060.000,3058.000,3067.000
-2335.890,3059.000,3065.000,3059.000
-2330.391,3065.000,3064.000,3064.000
-2324.891,3060.000,3066.000,3054.000
-2319.396,3060.000,3062.000,3062.000
-2313.904,3065.000,3057.000,3066.000
-2308.414,3065.000,3063.000,3055.000
-2302.928,3061.000,3058.000,3059.000
-2297.445,3052.000,3065.000,3060.000
-2291.964,3054.000,3059.000,3059.000
-2286.486,3060.000,3051.000,3066.000
-2281.012,3061.000,3064.000,3065.000
-2275.541,3053.000,3061.000,3057.000
-2270.071,3060.000,3066.000,3062.000
-2264.604,3061.000,3055.000,3061.000
-2259.140,3063.000,3054.000,3065.000
-2253.678,3062.000,3056.000,3065.000
-2248.220,3057.000,3060.000,3060.000
-2242.765,3052.000,4451.000,3055.000
-2237.312,3062.000,4484.000,3060.000
-2231.864,3062.000,3077.000,3059.000
-2226.416,3057.000,3061.000,3055.000
-2220.972,3059.000,3065.000,3064.000
-2215.531,3069.000,3060.000,3062.000
-2210.094,3058.000,3063.000,3056.000
-2204.658,3059.000,3063.000,3054.000
-2199.226,3068.000,3059.000,3059.000
-2193.794,3066.000,3064.000,3057.000
-2188.369,3076.000,3058.000,3066.000
-2182.944,3068.000,3062.000,3063.000
-2177.523,3056.000,3057.000,3063.000
-2172.103,3065.000,3058.000,3064.000
-2166.688,3059.000,3058.000,3065.000
-2161.274,3053.000,3065.000,3062.000
-2155.866,3060.000,3059.000,3057.000
-2150.457,3052.000,3060.000,3065.000
-2145.053,3058.000,3057.000,3062.000
-2139.651,3057.000,3059.000,3066.000
-2134.252,3051.000,3066.000,3062.000
-2128.855,3054.000,3060.000,3063.000
-2123.463,3047.000,3056.000,3059.000
-2118.070,3058.000,3060.000,3061.000
-2112.682,3065.000,3065.000,3067.000
-2107.297,3059.000,3063.000,3061.000
-2101.916,3064.000,3060.000,3062.000
-2096.536,3059.000,3056.000,3071.000
-2091.160,3064.000,3059.000,3058.000
-2085.786,3057.000,3068.000,3061.000
-2080.414,3067.000,3063.000,3062.000
-2075.045,3062.000,3051.000,3061.000
-2069.679,3061.000,3062.000,3065.000
-2064.317,3065.000,3055.000,3063.000
-2058.954,3070.000,3064.000,3057.000
-2053.597,3063.000,3060.000,3061.000
-2048.244,3069.000,3067.000,3050.000
-2042.891,3069.000,3067.000,3066.000
-2037.543,3068.000,3060.000,3059.000
-2032.195,3070.000,3059.000,3058.000
-2026.852,3061.000,3056.000,3056.000
-2021.511,3060.000,3060.000,3065.000
-2016.172,3070.000,3066.000,3067.000
-2010.835,3064.000,3061.000,3057.000
-2005.504,3066.000,3063.000,3067.000
-2000.174,3064.000,3063.000,3064.000
-1994.847,3069.000,3061.000,3060.000
-1989.522,3061.000,3067.000,3064.000
-1984.200,3061.000,3068.000,3070.000
-1978.882,3066.000,3065.000,3066.000
-1973.564,3063.000,3072.000,3063.000
-1968.251,3053.000,3062.000,3065.000
-1962.940,3070.000,3073.000,3068.000
-1957.631,3066.000,3065.000,3068.000
-1952.325,3061.000,3067.000,3066.000
-1947.021,3063.000,3066.000,3067.000
-1941.722,3059.000,3068.000,3074.000
-1936.425,3067.000,3064.000,3073.000
-1931.130,3072.000,3073.000,3059.000
-1925.838,3065.000,3073.000,3072.000
-1920.548,3070.000,3068.000,3070.000
-1915.261,3074.000,3077.000,3069.000
-1909.978,3065.000,3078.000,3063.000
-1904.697,3063.000,3067.000,3070.000
-1899.419,3063.000,3068.000,3071.000
-1894.143,3072.000,3065.000,3073.000
-1888.867,3069.000,3074.000,3076.000
-1883.598,3066.000,3066.000,3065.000
-1878.329,3069.000,3067.000,3067.000
-1873.065,3068.000,3073.000,3061.000
-1867.803,3070.000,3073.000,3084.000
-1862.543,3071.000,3061.000,3070.000
-1857.286,3073.000,3067.000,3074.000
-1852.031,3079.000,3066.000,3065.000
-1846.781,3070.000,3071.000,3070.000
-1841.530,3085.000,3070.000,3075.000
-1836.285,3070.000,3067.000,3082.000
-1831.039,3073.000,3062.000,3070.000
-1825.798,3072.000,3069.000,3069.000
-1820.559,3080.000,3061.000,3070.000
-1815.325,3077.000,3072.000,3066.000
-1810.091,3073.000,3068.000,3068.000
-1804.862,3067.000,3062.000,3069.000
-1799.632,3072.000,3073.000,3070.000
-1794.408,3075.000,3073.000,3063.000
-1789.185,3068.000,3066.000,3065.000
-1783.965,3069.000,3059.000,3070.000
-1778.750,3072.000,3077.000,3072.000
-1773.534,3068.000,3083.000,3072.000
-1768.321,3071.000,3069.000,3066.000
-1763.113,3074.000,3067.000,3069.000
-1757.907,3074.000,3072.000,3070.000
-1752.701,3065.000,3076.000,3065.000
-1747.502,3069.000,3079.000,3070.000
-1742.302,3070.000,3071.000,3063.000
-1737.106,3083.000,3075.000,3069.000
-1731.914,3074.000,3074.000,3084.000
-1726.721,3076.000,3077.000,3082.000
-1721.534,3081.000,3076.000,3076.000
-1716.346,3077.000,3075.000,3075.000
-1711.164,3076.000,3086.000,3071.000
-1705.983,3068.000,3076.000,3087.000
-1700.805,3079.000,3064.000,3080.000
-1695.632,3075.000,3075.000,3075.000
-1690.458,3076.000,3070.000,3079.000
-1685.289,3079.000,3080.000,3079.000
-1680.120,3076.000,3071.000,3066.000
-1674.956,3070.000,3071.000,3077.000
-1669.794,3071.000,3076.000,3077.000
-1664.635,3079.000,3081.000,3074.000
-1659.478,3078.000,3077.000,3077.000
-1654.323,3069.000,3076.000,3082.000
-1649.173,3081.000,3076.000,3081.000
-1644.022,3073.000,3076.000,3071.000
-1638.877,3077.000,3075.000,3076.000
-1633.734,3081.000,3081.000,3078.000
-1628.590,3083.000,3083.000,3078.000
-1623.452,3081.000,3068.000,3074.000
-1618.315,3082.000,3089.000,3085.000
-1613.184,3083.000,3096.000,3089.000
-1608.052,3081.000,3089.000,3075.000
-1602.923,3079.000,3088.000,3079.000
-1597.796,3080.000,3086.000,3089.000
-1592.674,3079.000,3079.000,3077.000
-1587.554,3081.000,3082.000,3074.000
-1582.434,3075.000,3078.000,3069.000
-1577.319,3081.000,3087.000,3079.000
-1572.206,3078.000,3081.000,3084.000
-1567.097,3079.000,3092.000,3094.000
-1561.989,3080.000,3087.000,3081.000
-1556.883,3077.000,3082.000,3086.000
-1551.782,3084.000,3088.000,3085.000
-1546.680,3094.000,3100.000,3088.000
-1541.584,3085.000,3084.000,3094.000
-1536.487,3081.000,3096.000,3086.000
-1531.395,3086.000,3097.000,3087.000
-1526.305,3085.000,3083.000,3094.000
-1521.218,3080.000,3082.000,3093.000
-1516.133,3091.000,3085.000,3080.000
-1511.050,3082.000,3081.000,3076.000
-1505.970,3078.000,3080.000,3087.000
-1500.894,3081.000,3083.000,3086.000
-1495.819,3087.000,3080.000,3092.000
-1490.748,3081.000,3095.000,3087.000
-1485.677,3085.000,3093.000,3090.000
-1480.610,3094.000,3079.000,3087.000
-1475.544,3090.000,3086.000,3083.000
-1470.482,3099.000,3076.000,3085.000
-1465.423,3084.000,3093.000,3104.000
-1460.365,3087.000,3092.000,3086.000
-1455.313,3095.000,3081.000,3086.000
-1450.261,3076.000,3090.000,3079.000
-1445.211,3096.000,3090.000,3099.000
-1440.165,3096.000,3089.000,3087.000
-1435.120,3099.000,3084.000,3099.000
-1430.079,3092.000,3083.000,3095.000
-1425.038,3085.000,3075.000,3086.000
-1420.002,3087.000,3087.000,3096.000
-1414.966,3091.000,3098.000,3089.000
-1409.934,3091.000,3102.000,3104.000
-1404.905,3091.000,3096.000,3095.000
-1399.878,3097.000,3098.000,3092.000
-1394.854,3092.000,3097.000,3100.000
-1389.834,3099.000,3100.000,3102.000
-1384.814,3092.000,3087.000,3099.000
-1379.797,3100.000,3099.000,3103.000
-1374.784,3091.000,3097.000,3098.000
-1369.769,3091.000,3096.000,3098.000
-1364.761,3096.000,3094.000,3100.000
-1359.755,3094.000,3094.000,3095.000
-1354.749,3115.000,3106.000,3095.000
-1349.748,3098.000,3110.000,3101.000
-1344.749,3101.000,3099.000,3091.000
-1339.752,3107.000,3097.000,3093.000
-1334.758,3101.000,3099.000,3094.000
-1329.766,3106.000,3118.000,3099.000
-1324.777,3098.000,3100.000,3106.000
-1319.789,3091.000,3092.000,3097.000
-1314.804,3120.000,3101.000,3096.000
-1309.822,3097.000,3108.000,3093.000
-1304.842,3104.000,3106.000,3099.000
-1299.864,3089.000,3113.000,3104.000
-1294.890,3097.000,3115.000,3107.000
-1289.917,3106.000,3119.000,3102.000
-1284.949,3086.000,3094.000,3107.000
-1279.980,3097.000,3103.000,3103.000
-1275.016,3102.000,3125.000,3109.000
-1270.054,3117.000,3103.000,3107.000
-1265.095,3107.000,3110.000,3117.000
-1260.136,3121.000,3099.000,3114.000
-1255.181,3102.000,3096.000,3111.000
-1250.229,3107.000,3112.000,3106.000
-1245.279,3104.000,3104.000,3109.000
-1240.331,3119.000,3110.000,3110.000
-1235.386,3127.000,3113.000,3106.000
-1230.443,3106.000,3111.000,3115.000
-1225.502,3109.000,3104.000,3114.000
-1220.564,3110.000,3117.000,3110.000
-1215.628,3115.000,3112.000,3104.000
-1210.697,3120.000,3109.000,3114.000
-1205.765,3119.000,3115.000,3115.000
-1200.836,3124.000,3115.000,3118.000
-1195.909,3126.000,3113.000,3103.000
-1190.987,3120.000,3129.000,3119.000
-1186.065,3111.000,3108.000,3112.000
-1181.148,3124.000,3124.000,3115.000
-1176.233,3117.000,3113.000,3110.000
-1171.318,3122.000,3120.000,3110.000
-1166.407,3116.000,3123.000,3120.000
-1161.499,3111.000,3121.000,3117.000
-1156.591,3122.000,3124.000,3114.000
-1151.688,3109.000,3128.000,3124.000
-1146.787,3113.000,3122.000,3135.000
-1141.886,3110.000,3133.000,3122.000
-1136.989,3118.000,3109.000,3117.000
-1132.095,3126.000,3129.000,3113.000
-1127.203,3114.000,3120.000,3129.000
-1122.314,3131.000,3117.000,3124.000
-1117.427,3130.000,3115.000,3123.000
-1112.542,3127.000,3125.000,3124.000
-1107.660,3113.000,3115.000,3133.000
-1102.780,3120.000,3132.000,3119.000
-1097.902,3118.000,3118.000,3131.000
-1093.026,3119.000,3118.000,3138.000
-1088.153,3120.000,3129.000,3135.000
-1083.282,3121.000,3131.000,3140.000
-1078.416,3127.000,3137.000,3133.000
-1073.550,3127.000,3117.000,3127.000
-1068.686,3121.000,3127.000,3130.000
-1063.825,3134.000,3114.000,3137.000
-1058.968,3128.000,3122.000,3130.000
-1054.111,3128.000,3126.000,3123.000
-1049.256,3136.000,3129.000,3134.000
-1044.407,3130.000,3132.000,3140.000
-1039.557,3129.000,3130.000,3132.000
-1034.709,3132.000,3142.000,3138.000
-1029.864,3129.000,3128.000,3138.000
-1025.023,3132.000,3150.000,3150.000
-1020.183,3144.000,3139.000,3131.000
-1015.347,3143.000,3141.000,3132.000
-1010.511,3148.000,3149.000,3135.000
-1005.680,3149.000,3148.000,3138.000
-1000.849,3133.000,3145.000,3147.000
-996.022,3140.000,3132.000,3152.000
-991.195,3143.000,3137.000,3147.000
-986.374,3144.000,3154.000,3134.000
-981.552,3146.000,3144.000,3148.000
-976.734,3146.000,3151.000,3150.000
-971.917,3150.000,3133.000,3141.000
-967.104,3129.000,3141.000,3130.000
-962.292,3146.000,3149.000,3140.000
-957.484,3160.000,3131.000,3137.000
-952.676,3155.000,3144.000,3140.000
-947.873,3148.000,3138.000,3162.000
-943.072,3151.000,3150.000,3147.000
-938.271,3147.000,3146.000,3136.000
-933.474,3148.000,3144.000,3147.000
-928.678,3160.000,3146.000,3164.000
-923.886,3141.000,3148.000,3157.000
-919.095,3140.000,3150.000,3140.000
-914.308,3148.000,3147.000,3158.000
-909.521,3136.000,3145.000,3155.000
-904.738,3146.000,3153.000,3154.000
-899.958,3154.000,3158.000,3133.000
-895.178,3148.000,3156.000,3169.000
-890.403,3161.000,3146.000,3162.000
-885.628,3149.000,3165.000,3155.000
-880.857,3159.000,3149.000,3147.000
-876.086,3165.000,3151.000,3153.000
-871.320,3163.000,3150.000,3166.000
-866.554,3153.000,3168.000,3156.000
-861.793,3152.000,3156.000,3153.000
-857.031,3167.000,3173.000,3158.000
-852.275,3146.000,3159.000,3160.000
-847.518,3155.000,3156.000,3155.000
-842.766,3159.000,3165.000,3160.000
-838.014,3161.000,3160.000,3163.000
-833.266,3183.000,3148.000,3165.000
-828.519,3167.000,3174.000,3158.000
-823.774,3156.000,3153.000,3165.000
-819.033,3163.000,3175.000,3158.000
-814.293,3151.000,3172.000,3165.000
-809.557,3152.000,3159.000,3168.000
-804.822,3159.000,3167.000,3164.000
-800.088,3168.000,3160.000,3164.000
-795.359,3175.000,3156.000,3168.000
-790.630,3161.000,3157.000,3162.000
-785.906,3151.000,3170.000,3154.000
-781.182,3175.000,3182.000,3172.000
-776.460,3168.000,3164.000,3171.000
-771.741,3168.000,3179.000,3163.000
-767.024,3162.000,3157.000,3157.000
-762.309,3159.000,3163.000,3165.000
-757.596,3165.000,3152.000,3151.000
-752.889,3179.000,3189.000,3168.000
-748.181,3175.000,3173.000,3167.000
-743.475,3180.000,3169.000,3197.000
-738.772,3175.000,3186.000,3173.000
-734.071,3171.000,3165.000,3161.000
-729.372,3163.000,3171.000,3180.000
-724.677,3174.000,3173.000,3186.000
-719.982,3166.000,3175.000,3180.000
-715.291,3168.000,3174.000,3155.000
-710.601,3180.000,3182.000,3161.000
-705.914,3159.000,3179.000,3179.000
-701.228,3179.000,3173.000,3179.000
-696.547,3180.000,3169.000,3186.000
-691.865,3162.000,3165.000,3159.000
-687.186,3189.000,3181.000,3178.000
-682.511,3201.000,3173.000,3172.000
-677.836,3189.000,3182.000,3186.000
-673.166,3184.000,3187.000,3185.000
-668.496,3164.000,3198.000,3181.000
-663.830,3183.000,3196.000,3186.000
-659.164,3183.000,3182.000,3187.000
-654.503,3178.000,3191.000,3191.000
-649.841,3186.000,3174.000,3174.000
-645.185,3182.000,3182.000,3193.000
-640.527,3181.000,3172.000,3181.000
-635.873,3189.000,3184.000,3197.000
-631.222,3195.000,3186.000,3189.000
-626.572,3184.000,3197.000,3188.000
-621.926,3204.000,3183.000,3195.000
-617.280,3211.000,3185.000,3182.000
-612.640,3211.000,3195.000,3203.000
-607.998,3197.000,3203.000,3205.000
-603.361,3199.000,3206.000,3186.000
-598.724,3204.000,3215.000,3216.000
-594.091,3217.000,3220.000,3204.000
-589.459,3213.000,3214.000,3208.000
-584.829,3213.000,3196.000,3195.000
-580.203,3201.000,3206.000,3208.000
-575.576,3199.000,3203.000,3204.000
-570.956,3203.000,3206.000,3217.000
-566.334,3203.000,3209.000,3215.000
-561.717,3213.000,3214.000,3197.000
-557.100,3219.000,3214.000,3188.000
-552.488,3222.000,3202.000,3194.000
-547.875,3209.000,3208.000,3210.000
-543.267,3197.000,3217.000,3203.000
-538.659,3221.000,3218.000,3211.000
-534.052,3211.000,3221.000,3202.000
-529.450,3204.000,3222.000,3223.000
-524.850,3200.000,3195.000,3209.000
-520.252,3200.000,3215.000,3199.000
-515.654,3219.000,3214.000,3214.000
-511.061,3211.000,3232.000,3208.000
-506.469,3210.000,3204.000,3206.000
-501.881,3206.000,3194.000,3218.000
-497.292,3226.000,3210.000,3222.000
-492.707,3215.000,3204.000,3221.000
-488.123,3218.000,3218.000,3206.000
-483.541,3213.000,3212.000,3218.000
-478.963,3224.000,3214.000,3221.000
-474.386,3243.000,3232.000,3228.000
-469.813,3237.000,3228.000,3235.000
-465.239,3241.000,3225.000,3215.000
-460.671,3238.000,3228.000,3237.000
-456.102,3227.000,3221.000,3224.000
-451.537,3236.000,3226.000,3209.000
-446.972,3223.000,3212.000,3231.000
-442.412,3244.000,3214.000,3230.000
-437.852,3215.000,3220.000,3212.000
-433.294,3239.000,3226.000,3234.000
-428.739,3240.000,3250.000,3230.000
-424.186,3240.000,3239.000,3243.000
-419.637,3241.000,3235.000,3238.000
-415.087,3249.000,3234.000,3231.000
-410.541,3223.000,3252.000,3228.000
-405.997,3219.000,3235.000,3226.000
-401.456,3229.000,3233.000,3232.000
-396.915,3220.000,3233.000,3234.000
-392.378,3227.000,3225.000,3238.000
-387.842,3255.000,3240.000,3227.000
-383.307,3234.000,3225.000,3244.000
-378.778,3228.000,3228.000,3249.000
-374.247,3252.000,3245.000,3259.000
-369.722,3242.000,3255.000,3245.000
-365.195,3256.000,3233.000,3247.000
-360.674,3246.000,3243.000,3255.000
-356.152,3251.000,3276.000,3258.000
-351.634,3257.000,3264.000,3245.000
-347.117,3267.000,3243.000,3228.000
-342.604,3254.000,3254.000,3246.000
-338.092,3245.000,3252.000,3235.000
-333.583,3269.000,3253.000,3262.000
-329.073,3280.000,3272.000,3260.000
-324.566,3294.000,3279.000,3280.000
-320.065,3300.000,3292.000,3265.000
-315.562,3299.000,3288.000,3294.000
-311.063,3300.000,3274.000,3294.000
-306.565,3308.000,3280.000,3290.000
-302.071,3272.000,3287.000,3257.000
-297.577,3275.000,3264.000,3274.000
-293.088,3273.000,3277.000,3261.000
-288.598,3277.000,3254.000,3260.000
-284.112,3282.000,3268.000,3230.000
-279.627,3276.000,3273.000,3260.000
-275.143,3275.000,3274.000,3277.000
-270.664,3254.000,3276.000,3250.000
-266.184,3260.000,3254.000,4337.000
-261.709,3282.000,3251.000,3909.000
-257.234,3283.000,3251.000,3263.000
-252.764,3261.000,3263.000,3276.000
-248.293,3267.000,3274.000,3254.000
-243.827,3267.000,3273.000,3255.000
-239.360,3290.000,3281.000,3269.000
-234.897,3274.000,3268.000,3268.000
-230.434,3275.000,3276.000,3282.000
-225.977,3292.000,3278.000,3290.000
-221.518,3297.000,3307.000,3332.000
-217.061,3301.000,3303.000,3325.000
-212.610,3316.000,3302.000,3308.000
-208.158,3325.000,3334.000,3316.000
-203.710,3327.000,3323.000,3343.000
-199.263,3318.000,3351.000,3345.000
-194.819,3318.000,3332.000,3356.000
-190.374,3326.000,3329.000,3317.000
-185.936,3325.000,3346.000,3327.000
-181.495,3315.000,3340.000,3338.000
-177.061,3350.000,3359.000,3334.000
-172.626,3384.000,3377.000,3373.000
-168.192,3417.000,3409.000,3433.000
-163.763,3435.000,3436.000,3458.000
-159.333,3408.000,3411.000,3408.000
-154.909,3364.000,3384.000,3374.000
-150.484,3384.000,3367.000,3347.000
-146.063,3350.000,3348.000,3379.000
-141.642,3399.000,3392.000,3354.000
-137.225,3400.000,3407.000,3408.000
-132.808,3481.000,3474.000,3446.000
-128.396,3493.000,3489.000,3517.000
-123.983,3558.000,3555.000,3550.000
-119.572,3603.000,3575.000,3580.000
-115.165,3606.000,3594.000,3606.000
-110.759,3668.000,3633.000,3640.000
-106.358,3708.000,3716.000,3723.000
-101.955,3858.000,3788.000,3814.000
-97.557,3881.000,3868.000,3861.000
-93.158,3867.000,3869.000,3879.000
-88.764,3839.000,3802.000,3781.000
-84.370,3836.000,3776.000,3806.000
-79.980,3853.000,3850.000,3829.000
-75.590,3949.000,3945.000,3969.000
-71.201,4149.000,4136.000,4109.000
-66.817,4312.000,4349.000,4313.000
-62.434,4542.000,4508.000,4510.000
-58.053,4731.000,4724.000,4746.000
-53.674,5036.000,5036.000,5037.000
-49.298,5292.000,5296.000,5274.000
-44.922,5182.000,5215.000,5194.000
-40.550,5204.000,5152.000,5164.000
-36.179,5288.000,5224.000,5209.000
-31.811,5077.000,5111.000,5081.000
-27.443,5095.000,5067.000,5029.000
-23.077,5244.000,5248.000,5243.000
-18.715,5079.000,4966.000,5035.000
-14.354,4643.000,4561.000,4589.000
-9.997,4180.000,4145.000,4138.000
-5.638,3846.000,3807.000,3821.000
-1.286,3702.000,3684.000,3691.000
3.068,3853.000,3867.000,3860.000
7.418,4224.000,4255.000,4196.000
11.767,4796.000,4799.000,4816.000
16.113,5245.000,5226.000,5238.000
20.458,5116.000,5089.000,5187.000
24.802,5248.000,5234.000,5199.000
29.142,5502.000,5451.000,5432.000
33.481,5563.000,5477.000,5443.000
37.816,5604.000,5586.000,5567.000
42.152,5880.000,5821.000,5793.000
46.483,5679.000,5689.000,5659.000
50.815,5428.000,5489.000,5401.000
55.142,5245.000,5205.000,5195.000
59.469,5007.000,4982.000,5023.000
63.793,4780.000,4740.000,4775.000
68.116,4559.000,4515.000,4529.000
72.438,4302.000,4271.000,4280.000
76.756,4207.000,4158.000,4185.000
81.073,4135.000,4100.000,4080.000
85.387,4190.000,4153.000,4140.000
89.700,4256.000,4212.000,4235.000
94.010,4214.000,4230.000,4181.000
98.319,4173.000,4167.000,4167.000
102.624,4062.000,4081.000,4078.000
106.930,3957.000,3975.000,3972.000
111.232,3899.000,3919.000,3920.000
115.534,3890.000,3890.000,3815.000
119.833,3779.000,3844.000,3791.000
124.129,3752.000,3717.000,3765.000
128.424,3707.000,3665.000,3667.000
132.716,3609.000,3629.000,3613.000
137.008,3558.000,3566.000,3554.000
141.296,3539.000,3518.000,3520.000
145.584,3512.000,3490.000,3490.000
149.867,3517.000,3506.000,3505.000
154.151,3592.000,3563.000,3565.000
158.431,3700.000,3701.000,3684.000
162.711,3653.000,3649.000,3687.000
166.989,3588.000,3577.000,3591.000
171.263,3568.000,3548.000,3530.000
175.538,3505.000,3509.000,3475.000
179.808,3478.000,3490.000,3486.000
184.078,3484.000,3490.000,3460.000
188.343,3502.000,3501.000,3489.000
192.610,3526.000,3508.000,3525.000
196.872,3523.000,3521.000,3515.000
201.134,3523.000,3495.000,3486.000
205.392,3480.000,3485.000,3475.000
209.651,3495.000,3480.000,3471.000
213.907,3518.000,3506.000,3502.000
218.160,3518.000,3468.000,3487.000
222.412,3426.000,3447.000,3445.000
226.661,3421.000,3430.000,3435.000
230.909,3410.000,3419.000,3395.000
235.154,3427.000,3385.000,3395.000
239.399,3426.000,3398.000,3396.000
243.639,3400.000,3404.000,3389.000
247.880,3391.000,3391.000,3416.000
252.118,3417.000,3395.000,3379.000
256.354,3387.000,3382.000,3382.000
260.589,3382.000,3400.000,3386.000
264.821,3409.000,3412.000,3404.000
269.053,3447.000,3414.000,3430.000
273.280,3444.000,3404.000,3437.000
277.507,3437.000,3455.000,3444.000
281.730,3418.000,3432.000,3425.000
285.954,3443.000,3430.000,3434.000
290.173,3480.000,3466.000,3469.000
294.393,3475.000,3461.000,3472.000
298.608,3491.000,3527.000,3501.000
302.825,3532.000,3549.000,3543.000
307.038,3553.000,3526.000,3582.000
311.249,3607.000,3582.000,3601.000
315.458,3582.000,3582.000,3589.000
319.664,3581.000,3605.000,3584.000
323.870,3534.000,3552.000,3540.000
328.073,3524.000,3522.000,3487.000
332.276,3507.000,3492.000,3494.000
336.474,3481.000,3483.000,3474.000
340.673,3454.000,3439.000,3475.000
344.867,3468.000,3493.000,3464.000
349.062,3510.000,3493.000,3501.000
353.255,3486.000,3462.000,3516.000
357.443,3484.000,3470.000,3467.000
361.633,3456.000,3479.000,3472.000
365.818,3495.000,3502.000,3495.000
370.004,3545.000,3497.000,3486.000
374.184,3489.000,3477.000,3475.000
378.366,3444.000,3458.000,3438.000
382.544,3449.000,3423.000,3417.000
386.721,3421.000,3412.000,3447.000
390.895,3431.000,3423.000,3398.000
395.069,3428.000,3411.000,3412.000
399.241,3404.000,3401.000,3417.000
403.409,3411.000,3386.000,3403.000
407.575,3394.000,3425.000,3417.000
411.742,3460.000,3424.000,3423.000
415.906,3436.000,3463.000,3447.000
420.067,3445.000,3425.000,3418.000
424.227,3436.000,3432.000,3429.000
428.383,3409.000,3408.000,3406.000
432.541,3421.000,3404.000,3424.000
436.693,3425.000,3386.000,3401.000
440.847,3402.000,3407.000,3398.000
444.998,3409.000,3420.000,3388.000
449.145,3410.000,3407.000,3389.000
453.291,3403.000,3414.000,3426.000
457.436,3441.000,3462.000,3460.000
461.580,3537.000,3545.000,3529.000
465.720,3645.000,3653.000,3631.000
469.860,3606.000,3584.000,3570.000
473.996,3528.000,3524.000,3531.000
478.132,3485.000,3484.000,3484.000
482.265,3473.000,3484.000,3467.000
486.398,3451.000,3457.000,3451.000
490.528,3440.000,3446.000,3427.000
494.655,3420.000,3412.000,3418.000
498.780,3423.000,3405.000,3402.000
502.904,3407.000,3390.000,3412.000
507.028,3383.000,3393.000,3391.000
511.148,3419.000,3395.000,3390.000
515.267,3412.000,3397.000,3387.000
519.383,3383.000,3400.000,3406.000
523.498,3399.000,3379.000,3377.000
527.610,3423.000,3416.000,3404.000
531.723,3388.000,3403.000,3404.000
535.832,3440.000,3423.000,3426.000
539.940,3399.000,3410.000,3423.000
544.044,3426.000,3418.000,3420.000
548.148,3445.000,3435.000,3451.000
552.252,3447.000,3462.000,3454.000
556.351,3476.000,3471.000,3475.000
560.450,3493.000,3486.000,3502.000
564.545,3526.000,3498.000,3477.000
568.641,3486.000,3462.000,3491.000
572.733,3455.000,3469.000,3446.000
576.823,3484.000,3464.000,3477.000
580.912,3515.000,3507.000,3486.000
585.000,3574.000,3600.000,3560.000
589.084,3717.000,3692.000,3709.000
593.169,3739.000,3695.000,3688.000
597.252,3617.000,3593.000,3603.000
601.330,3569.000,3557.000,3579.000
605.409,3550.000,3542.000,3512.000
609.485,3516.000,3527.000,3506.000
613.559,3494.000,3504.000,3490.000
617.632,3453.000,3463.000,3466.000
621.703,3435.000,3467.000,3454.000
625.771,3465.000,3455.000,3431.000
629.839,3448.000,3412.000,3399.000
633.903,3432.000,3425.000,3436.000
637.968,3430.000,3444.000,3431.000
642.030,3455.000,3418.000,3443.000
646.089,3428.000,3430.000,3445.000
650.148,3446.000,3448.000,3421.000
654.204,3422.000,3429.000,3411.000
658.258,3433.000,3432.000,3434.000
662.310,3464.000,3418.000,3437.000
666.362,3447.000,3449.000,3442.000
670.410,3478.000,3464.000,3496.000
674.458,3491.000,3458.000,3427.000
678.502,3460.000,3441.000,3463.000
682.547,3492.000,3463.000,3464.000
686.589,3456.000,3451.000,3439.000
690.629,3527.000,3538.000,3542.000
694.667,3435.000,3435.000,3455.000
698.702,3449.000,3439.000,3439.000
702.738,3430.000,3458.000,3427.000
706.770,3462.000,3430.000,3422.000
710.801,3423.000,3449.000,3453.000
714.829,3468.000,3448.000,3411.000
718.858,3466.000,3430.000,3457.000
722.883,3475.000,3483.000,3490.000
726.907,3477.000,3498.000,3522.000
730.931,3509.000,3506.000,3496.000
734.949,3502.000,3498.000,3485.000
738.969,3498.000,3507.000,3515.000
742.984,3539.000,3519.000,3548.000
746.999,3529.000,3519.000,3504.000
751.012,3490.000,3484.000,3499.000
755.024,3471.000,3461.000,3476.000
759.032,3491.000,3486.000,3463.000
763.041,3483.000,3450.000,3467.000
767.046,3502.000,3507.000,3490.000
771.051,3510.000,3515.000,3524.000
775.054,3522.000,3526.000,3526.000
779.053,3534.000,3515.000,3561.000
783.053,3557.000,3562.000,3542.000
787.050,3564.000,3521.000,3562.000
791.045,3542.000,3539.000,3566.000
795.038,3536.000,3534.000,3573.000
799.031,3592.000,3607.000,3608.000
803.020,3618.000,3602.000,3631.000
807.009,3559.000,3564.000,3542.000
810.994,3523.000,3507.000,3535.000
814.980,3543.000,3548.000,3530.000
818.964,3588.000,3561.000,3575.000
822.943,3606.000,3603.000,3616.000
826.923,3556.000,3556.000,3554.000
830.900,3523.000,3518.000,3512.000
834.877,3484.000,3498.000,3475.000
838.850,3483.000,3469.000,3486.000
842.823,3471.000,3463.000,3493.000
846.793,3479.000,3455.000,3444.000
850.763,3446.000,3474.000,3467.000
854.728,3476.000,3479.000,3456.000
858.694,3470.000,3460.000,3462.000
862.659,3476.000,3475.000,3461.000
866.620,3464.000,3470.000,3477.000
870.581,3511.000,3484.000,3493.000
874.538,3495.000,3527.000,3509.000
878.495,3555.000,3534.000,3543.000
882.449,3545.000,3504.000,3504.000
886.403,3489.000,3494.000,3494.000
890.353,3471.000,3485.000,3471.000
894.304,3490.000,3485.000,3482.000
898.251,3470.000,3451.000,3454.000
902.197,3475.000,3459.000,3463.000
906.143,3482.000,3457.000,3450.000
910.084,3470.000,3460.000,3463.000
914.026,3462.000,3470.000,3455.000
917.965,3467.000,3479.000,3452.000
921.903,3472.000,3478.000,3471.000
925.837,3483.000,3495.000,3468.000
929.771,3472.000,3463.000,3472.000
933.703,3487.000,3470.000,3466.000
937.634,3490.000,3483.000,3487.000
941.562,3497.000,3497.000,3491.000
945.490,3565.000,3565.000,3540.000
949.417,3614.000,3566.000,3582.000
953.339,3693.000,3683.000,3704.000
957.262,3703.000,3686.000,3710.000
961.180,3688.000,3663.000,3658.000
965.100,3658.000,3652.000,3660.000
969.015,3693.000,3661.000,3648.000
972.931,3682.000,3690.000,3738.000
976.844,3753.000,3718.000,3729.000
980.756,3699.000,3663.000,3691.000
984.665,3635.000,3639.000,3627.000
988.574,3604.000,3568.000,3566.000
992.481,3582.000,3574.000,3567.000
996.384,3575.000,3564.000,3565.000
1000.289,3547.000,3535.000,3549.000
1004.189,3545.000,3560.000,3551.000
1008.089,3552.000,3571.000,3544.000
1011.985,3554.000,3575.000,3553.000
1015.883,3556.000,3558.000,3551.000
1019.776,3587.000,3538.000,3590.000
1023.670,3576.000,3586.000,3579.000
1027.559,3608.000,3618.000,3597.000
1031.450,3628.000,3604.000,3620.000
1035.338,3579.000,3599.000,3574.000
1039.223,3614.000,3608.000,3617.000
1043.108,3620.000,3610.000,3622.000
1046.990,3607.000,3586.000,3591.000
1050.871,3591.000,3559.000,3564.000
1054.749,3541.000,3555.000,3535.000
1058.628,3522.000,3530.000,3549.000
1062.502,3540.000,3537.000,3540.000
1066.377,3528.000,3520.000,3491.000
1070.249,3545.000,3522.000,3506.000
1074.119,3512.000,3510.000,3517.000
1077.989,3541.000,3539.000,3513.000
1081.856,3557.000,3525.000,3549.000
1085.723,3532.000,3519.000,3542.000
1089.585,3563.000,3555.000,3566.000
1093.448,3612.000,3628.000,3643.000
1097.307,3660.000,3700.000,3643.000
1101.167,3715.000,3703.000,3708.000
1105.023,3716.000,3700.000,3701.000
1108.880,3716.000,3712.000,3709.000
1112.732,3803.000,3743.000,3787.000
1116.585,3780.000,3770.000,3732.000
1120.436,3705.000,3723.000,3680.000
1124.284,3660.000,3642.000,3626.000
1128.130,3635.000,3606.000,3626.000
1131.977,3629.000,3635.000,3585.000
1135.822,3610.000,3609.000,3597.000
1139.662,3590.000,3596.000,3574.000
1143.504,3597.000,3580.000,3572.000
1147.341,3605.000,3595.000,3571.000
1151.179,3644.000,3646.000,3655.000
1155.013,3691.000,3666.000,3660.000
1158.848,3659.000,3649.000,3619.000
1162.681,3622.000,3622.000,3604.000
1166.510,3675.000,3651.000,3632.000
1170.338,3653.000,3676.000,3684.000
1174.166,3687.000,3716.000,3730.000
1177.992,3679.000,3719.000,3685.000
1181.815,3688.000,3671.000,3637.000
1185.638,3724.000,3688.000,3712.000
1189.457,3723.000,3724.000,3705.000
1193.276,3735.000,3746.000,3735.000
1197.092,3801.000,3767.000,3793.000
1200.910,3893.000,3884.000,3875.000
1204.723,3974.000,3972.000,3972.000
1208.535,3944.000,3940.000,3930.000
1212.344,3847.000,3801.000,3805.000
1216.154,3708.000,3723.000,3691.000
1219.962,3709.000,3690.000,3669.000
1223.767,3637.000,3648.000,3611.000
1227.571,3604.000,3614.000,3644.000
1231.372,3589.000,3569.000,3586.000
1235.174,3567.000,3568.000,3585.000
1238.972,3566.000,3544.000,3575.000
1242.770,3569.000,3578.000,3576.000
1246.564,3563.000,3573.000,3572.000
1250.359,3591.000,3578.000,3581.000
1254.151,3565.000,3606.000,3557.000
1257.943,3570.000,3585.000,3550.000
1261.732,3549.000,3560.000,3582.000
1265.519,3580.000,3550.000,3590.000
1269.306,3575.000,3575.000,3608.000
1273.088,3644.000,3607.000,3636.000
1276.872,3675.000,3703.000,3708.000
1280.652,3761.000,3753.000,3757.000
1284.432,3763.000,3741.000,3749.000
1288.208,3710.000,3700.000,3721.000
1291.986,3685.000,3681.000,3685.000
1295.759,3653.000,3651.000,3663.000
1299.533,3665.000,3654.000,3671.000
1303.305,3702.000,3652.000,3687.000
1307.074,3682.000,3683.000,3691.000
1310.842,3694.000,3685.000,3686.000
1314.608,3673.000,3664.000,3644.000
1318.373,3637.000,3623.000,3612.000
1322.135,3627.000,3613.000,3601.000
1325.897,3627.000,3608.000,3607.000
1329.656,3593.000,3587.000,3583.000
1333.415,3581.000,3570.000,3549.000
1337.170,3532.000,3520.000,3546.000
1340.926,3566.000,3557.000,3539.000
1344.680,3560.000,3569.000,3552.000
1348.431,3529.000,3561.000,3587.000
1352.182,3569.000,3560.000,3535.000
1355.930,3572.000,3547.000,3566.000
1359.678,3568.000,3583.000,3574.000
1363.422,3588.000,3587.000,3574.000
1367.166,3611.000,3622.000,3587.000
1370.908,3602.000,3612.000,3592.000
1374.649,3581.000,3639.000,3583.000
1378.386,3619.000,3611.000,3622.000
1382.124,3620.000,3621.000,3631.000
1385.861,3610.000,3602.000,3610.000
1389.595,3629.000,3591.000,3603.000
1393.328,3590.000,3594.000,3627.000
1397.057,3610.000,3610.000,3598.000
1400.788,3626.000,3601.000,3598.000
1404.514,3617.000,3605.000,3592.000
1408.241,3611.000,3618.000,3605.000
1411.965,3626.000,3630.000,3631.000
1415.688,3650.000,3673.000,3653.000
1419.408,3684.000,3689.000,3677.000
1423.129,3682.000,3683.000,3691.000
1426.847,3746.000,3719.000,3667.000
1430.563,3730.000,3730.000,3731.000
1434.279,3781.000,3753.000,3730.000
1437.991,3766.000,3760.000,3768.000
1441.703,3746.000,3734.000,3771.000
1445.413,3758.000,3736.000,3783.000
1449.122,3826.000,3783.000,3805.000
1452.828,3818.000,3811.000,3832.000
1456.534,3805.000,3839.000,3804.000
1460.238,3852.000,3810.000,3828.000
1463.941,3867.000,3859.000,3826.000
1467.642,3882.000,3872.000,3816.000
1471.340,3959.000,3899.000,3928.000
1475.038,3986.000,3990.000,3970.000
1478.733,4144.000,4130.000,4104.000
1482.428,4305.000,4286.000,4257.000
1486.120,4390.000,4436.000,4425.000
1489.812,4406.000,4373.000,4364.000
1493.501,4253.000,4259.000,4269.000
1497.189,4126.000,4114.000,4079.000
1500.875,3980.000,3969.000,3964.000
1504.560,3872.000,3878.000,3876.000
1508.245,3846.000,3829.000,3802.000
1511.925,3756.000,3783.000,3778.000
1515.606,3743.000,3697.000,3710.000
1519.284,3719.000,3700.000,3671.000
1522.962,3677.000,3685.000,3695.000
1526.636,3669.000,3707.000,3692.000
1530.312,3658.000,3686.000,3669.000
1533.982,3686.000,3685.000,3666.000
1537.654,3674.000,3659.000,3662.000
1541.322,3679.000,3699.000,3638.000
1544.990,3690.000,3674.000,3690.000
1548.657,3680.000,3677.000,3666.000
1552.321,3673.000,3684.000,3664.000
1555.985,3690.000,3680.000,3665.000
1559.646,3723.000,3696.000,3692.000
1563.306,3744.000,3766.000,3715.000
1566.964,3718.000,3701.000,3729.000
1570.621,3707.000,3706.000,3719.000
1574.276,3721.000,3727.000,3709.000
1577.930,3757.000,3744.000,3738.000
1581.581,3758.000,3761.000,3747.000
1585.233,3774.000,3827.000,3780.000
1588.882,3820.000,3820.000,3787.000
1592.529,3784.000,3811.000,3821.000
1596.176,3842.000,3810.000,3800.000
1599.818,3793.000,3830.000,3843.000
1603.462,3918.000,3898.000,3887.000
1607.103,3948.000,3953.000,3960.000
1610.744,4075.000,4034.000,4016.000
1614.381,4144.000,4143.000,4086.000
1618.019,4294.000,4287.000,4267.000
1621.652,4385.000,7381.000,4422.000
1625.287,4463.000,5406.000,4477.000
1628.920,4560.000,4551.000,4508.000
1632.550,4704.000,4647.000,4668.000
1636.180,4989.000,5086.000,5019.000
1639.806,5799.000,5733.000,5758.000
1643.432,6922.000,6859.000,6981.000
1647.056,7498.000,7418.000,7412.000
1650.679,7270.000,7105.000,7167.000
1654.300,6670.000,6559.000,6581.000
1657.920,5937.000,5865.000,5904.000
1661.537,5256.000,5180.000,5201.000
1665.155,4744.000,4704.000,4722.000
1668.771,4376.000,4444.000,4369.000
1672.384,4197.000,4138.000,4134.000
1675.997,4053.000,4025.000,4041.000
1679.607,3959.000,3957.000,3955.000
1683.216,3927.000,3861.000,3880.000
1686.824,3861.000,3878.000,3879.000
1690.430,3857.000,3808.000,3864.000
1694.033,3821.000,3844.000,3836.000
1697.638,3872.000,3844.000,3804.000
1701.238,3864.000,3861.000,3875.000
1704.839,3952.000,3912.000,3936.000
1708.439,3917.000,3923.000,3947.000
1712.035,3847.000,3818.000,3818.000
1715.631,3799.000,3766.000,3757.000
1719.223,3738.000,3747.000,3727.000
1722.817,3698.000,3716.000,3703.000
1726.406,3711.000,3699.000,3701.000
1729.996,3649.000,3665.000,3654.000
1733.584,3624.000,3656.000,3651.000
1737.171,3662.000,3621.000,3627.000
1740.756,3640.000,3641.000,3620.000
1744.339,3623.000,3625.000,3652.000
1747.922,3672.000,3640.000,3630.000
1751.502,3624.000,3640.000,3609.000
1755.080,3632.000,3635.000,3645.000
1758.658,3635.000,3655.000,3621.000
1762.234,3635.000,3642.000,3638.000
1765.807,3648.000,3639.000,3629.000
1769.381,3645.000,3659.000,3613.000
1772.951,3615.000,3622.000,3622.000
1776.522,3647.000,3608.000,3631.000
1780.090,3631.000,3633.000,3623.000
1783.657,3616.000,3655.000,3629.000
1787.224,3582.000,3594.000,3637.000
1790.786,3637.000,3650.000,3665.000
1794.347,3635.000,3660.000,3639.000
1797.910,3634.000,3635.000,3626.000
1801.470,3617.000,3631.000,3628.000
1805.027,3629.000,3624.000,3612.000
1808.584,3644.000,3611.000,3636.000
1812.138,3621.000,3633.000,3615.000
1815.692,3631.000,3620.000,3615.000
1819.243,3652.000,3645.000,3618.000
1822.795,3592.000,3633.000,3627.000
1826.344,3648.000,3626.000,3654.000
1829.891,3671.000,3631.000,3647.000
1833.436,3611.000,3618.000,3618.000
1836.981,3636.000,3638.000,3632.000
1840.526,3595.000,3637.000,3627.000
1844.066,3654.000,3616.000,3644.000
1847.607,3644.000,3648.000,3639.000
1851.144,3647.000,3636.000,3628.000
1854.682,3637.000,3645.000,3639.000
1858.217,3621.000,3636.000,3627.000
1861.752,3653.000,3628.000,3639.000
1865.286,3636.000,3656.000,3631.000
1868.816,3635.000,3643.000,3643.000
1872.344,3632.000,3649.000,3624.000
1875.874,3659.000,3636.000,3658.000
1879.401,3655.000,3649.000,3690.000
1882.925,3672.000,3652.000,3663.000
1886.450,3651.000,3658.000,3657.000
1889.972,3643.000,3650.000,3631.000
1893.494,3663.000,3674.000,3649.000
1897.013,3648.000,3633.000,3649.000
1900.531,3659.000,3633.000,3632.000
1904.047,3690.000,3675.000,3663.000
1907.562,3680.000,3628.000,3644.000
1911.076,3675.000,3648.000,3667.000
1914.588,3670.000,3670.000,3629.000
1918.100,3655.000,3654.000,3680.000
1921.608,3693.000,3651.000,3674.000
1925.117,3672.000,3679.000,3656.000
1928.622,3671.000,3674.000,3661.000
1932.128,3673.000,3670.000,3663.000
1935.630,3675.000,3649.000,3690.000
1939.133,3663.000,3678.000,3697.000
1942.632,3665.000,3660.000,3676.000
1946.133,3695.000,3682.000,3683.000
1949.629,3676.000,3681.000,3661.000
1953.126,3692.000,3659.000,3685.000
1956.622,3697.000,3659.000,3684.000
1960.115,3704.000,3690.000,3715.000
1963.607,3694.000,3689.000,3718.000
1967.096,3723.000,3701.000,3697.000
1970.586,3723.000,3673.000,3678.000
1974.073,3715.000,3700.000,3672.000
1977.559,3713.000,3695.000,3673.000
1981.043,3719.000,3674.000,3695.000
1984.527,3717.000,3703.000,3698.000
