2544.283,749.000,739.000,720.000
2545.727,754.000,737.000,727.000
2547.169,738.000,728.000,732.000
2548.609,737.000,731.000,727.000
2550.052,743.000,740.000,738.000
2551.494,744.000,729.000,719.000
2552.935,721.000,730.000,728.000
2554.375,744.000,732.000,731.000
2555.815,743.000,741.000,724.000
2557.256,748.000,734.000,738.000
2558.697,746.000,750.000,729.000
2560.135,736.000,727.000,730.000
2561.575,746.000,729.000,729.000
2563.016,738.000,737.000,731.000
2564.456,731.000,743.000,732.000
2565.895,730.000,731.000,724.000
2567.332,732.000,738.000,745.000
2568.770,741.000,739.000,747.000
2570.209,747.000,739.000,733.000
2571.647,745.000,738.000,725.000
2573.083,741.000,740.000,739.000
2574.521,742.000,744.000,746.000
2575.959,742.000,733.000,725.000
2577.396,739.000,749.000,733.000
2578.832,747.000,740.000,733.000
2580.268,744.000,738.000,743.000
2581.705,737.000,739.000,740.000
2583.140,744.000,738.000,734.000
2584.575,741.000,743.000,741.000
2586.011,736.000,723.000,740.000
2587.446,738.000,742.000,726.000
2588.881,735.000,744.000,740.000
2590.316,743.000,736.000,723.000
2591.749,739.000,741.000,716.000
2593.183,745.000,722.000,730.000
2594.618,739.000,744.000,741.000
2596.052,738.000,724.000,730.000
2597.484,725.000,723.000,734.000
2598.917,737.000,733.000,740.000
2600.350,733.000,720.000,752.000
2601.783,738.000,741.000,736.000
2603.214,732.000,737.000,740.000
2604.647,735.000,738.000,740.000
2606.079,733.000,736.000,729.000
2607.511,743.000,733.000,727.000
2608.943,743.000,726.000,732.000
2610.372,742.000,735.000,729.000
2611.803,749.000,729.000,734.000
2613.234,741.000,750.000,739.000
2614.664,737.000,736.000,721.000
2616.094,732.000,733.000,734.000
2617.524,739.000,731.000,739.000
2618.953,731.000,735.000,742.000
2620.383,737.000,715.000,734.000
2621.811,738.000,747.000,737.000
2623.240,747.000,744.000,739.000
2624.669,737.000,748.000,739.000
2626.098,740.000,736.000,733.000
2627.526,736.000,739.000,742.000
2628.952,740.000,739.000,742.000
2630.380,735.000,726.000,748.000
2631.808,733.000,722.000,732.000
2633.235,735.000,733.000,735.000
2634.661,749.000,736.000,738.000
2636.087,734.000,738.000,728.000
2637.514,731.000,755.000,737.000
2638.940,738.000,744.000,733.000
2640.364,742.000,746.000,728.000
2641.790,735.000,733.000,739.000
2643.216,738.000,735.000,723.000
2644.641,740.000,738.000,733.000
2646.065,750.000,730.000,735.000
2647.490,728.000,731.000,739.000
2648.914,737.000,746.000,720.000
2650.339,737.000,740.000,751.000
2651.762,741.000,739.000,716.000
2653.185,735.000,742.000,732.000
2654.609,738.000,732.000,731.000
2656.031,741.000,739.000,732.000
2657.455,741.000,741.000,728.000
2658.877,738.000,736.000,731.000
2660.299,744.000,739.000,723.000
2661.721,737.000,740.000,718.000
2663.143,728.000,734.000,739.000
2664.563,744.000,726.000,722.000
2665.985,747.000,733.000,725.000
2667.406,739.000,734.000,744.000
2668.827,732.000,742.000,735.000
2670.248,740.000,729.000,735.000
2671.667,741.000,739.000,736.000
2673.087,739.000,745.000,728.000
2674.508,745.000,741.000,730.000
2675.927,730.000,724.000,748.000
2677.345,740.000,739.000,736.000
2678.764,743.000,729.000,729.000
2680.183,733.000,729.000,735.000
2681.602,734.000,738.000,739.000
2683.019,741.000,735.000,732.000
2684.438,715.000,729.000,731.000
2685.856,733.000,754.000,726.000
2687.274,741.000,738.000,744.000
2688.689,734.000,743.000,745.000
2690.106,735.000,747.000,738.000
2691.524,728.000,736.000,734.000
2692.941,740.000,731.000,737.000
2694.356,747.000,727.000,732.000
2695.772,737.000,738.000,730.000
2697.188,742.000,728.000,732.000
2698.603,738.000,735.000,733.000
2700.019,724.000,738.000,730.000
2701.433,751.000,727.000,727.000
2702.848,737.000,728.000,736.000
2704.262,735.000,731.000,731.000
2705.678,741.000,733.000,735.000
2707.090,735.000,746.000,736.000
2708.504,745.000,730.000,733.000
2709.918,732.000,718.000,739.000
2711.332,731.000,732.000,733.000
2712.745,731.000,739.000,730.000
2714.156,733.000,732.000,728.000
2715.570,748.000,735.000,724.000
2716.982,739.000,742.000,733.000
2718.394,728.000,736.000,741.000
2719.805,736.000,735.000,725.000
2721.217,739.000,747.000,732.000
2722.628,741.000,741.000,735.000
2724.040,740.000,734.000,736.000
2725.449,737.000,731.000,730.000
2726.860,733.000,730.000,738.000
2728.271,741.000,720.000,729.000
2729.680,732.000,735.000,724.000
2731.091,730.000,731.000,734.000
2732.499,739.000,729.000,731.000
2733.909,735.000,732.000,724.000
2735.318,742.000,733.000,730.000
2736.727,749.000,726.000,733.000
2738.134,738.000,747.000,732.000
2739.543,730.000,717.000,735.000
2740.952,721.000,731.000,727.000
2742.359,739.000,737.000,730.000
2743.765,749.000,744.000,740.000
2745.174,745.000,723.000,731.000
2746.582,734.000,729.000,742.000
2747.988,740.000,723.000,740.000
2749.395,742.000,723.000,731.000
2750.800,729.000,740.000,734.000
2752.207,739.000,736.000,729.000
2753.613,744.000,728.000,737.000
2755.018,731.000,731.000,733.000
2756.422,739.000,736.000,726.000
2757.828,731.000,740.000,734.000
2759.234,742.000,735.000,737.000
2760.639,746.000,740.000,737.000
2762.042,749.000,746.000,725.000
2763.445,729.000,726.000,722.000
2764.849,719.000,733.000,735.000
2766.253,733.000,740.000,726.000
2767.656,718.000,731.000,739.000
2769.059,746.000,729.000,735.000
2770.463,748.000,738.000,738.000
2771.866,733.000,737.000,735.000
2773.269,747.000,730.000,738.000
2774.669,735.000,727.000,743.000
2776.072,725.000,731.000,726.000
2777.474,737.000,730.000,719.000
2778.875,732.000,738.000,732.000
2780.274,723.000,729.000,737.000
2781.676,744.000,737.000,731.000
2783.078,738.000,715.000,725.000
2784.478,736.000,744.000,726.000
2785.876,740.000,753.000,735.000
2787.277,726.000,720.000,729.000
2788.677,740.000,743.000,710.000
2790.077,746.000,737.000,733.000
2791.476,736.000,726.000,726.000
2792.874,722.000,738.000,728.000
2794.273,728.000,735.000,728.000
2795.672,729.000,721.000,722.000
2797.071,735.000,734.000,735.000
2798.468,749.000,740.000,738.000
2799.865,743.000,740.000,731.000
2801.263,736.000,730.000,730.000
2802.661,725.000,747.000,731.000
2804.057,731.000,719.000,733.000
2805.454,738.000,729.000,715.000
2806.851,728.000,725.000,726.000
2808.247,742.000,735.000,732.000
2809.641,728.000,728.000,723.000
2811.038,742.000,729.000,737.000
2812.434,731.000,741.000,731.000
2813.829,735.000,742.000,732.000
2815.225,743.000,718.000,731.000
2816.618,734.000,730.000,720.000
2818.013,733.000,728.000,719.000
2819.407,723.000,732.000,726.000
2820.802,734.000,719.000,712.000
2822.194,746.000,732.000,744.000
2823.589,728.000,733.000,722.000
2824.983,735.000,725.000,715.000
2826.376,742.000,731.000,725.000
2827.767,722.000,736.000,720.000
2829.161,728.000,737.000,735.000
2830.553,736.000,741.000,718.000
2831.945,741.000,725.000,714.000
2833.338,738.000,735.000,724.000
2834.728,732.000,739.000,728.000
2836.120,737.000,719.000,731.000
2837.511,740.000,728.000,733.000
2838.902,726.000,725.000,732.000
2840.292,730.000,737.000,731.000
2841.682,728.000,740.000,728.000
2843.074,736.000,738.000,731.000
2844.464,732.000,740.000,730.000
2845.852,727.000,737.000,734.000
2847.242,738.000,729.000,725.000
2848.631,729.000,734.000,733.000
2850.021,730.000,728.000,728.000
2851.410,744.000,741.000,734.000
2852.798,731.000,735.000,730.000
2854.185,733.000,733.000,731.000
2855.574,734.000,743.000,734.000
2856.962,739.000,732.000,734.000
2858.348,739.000,738.000,733.000
2859.736,743.000,734.000,731.000
2861.124,735.000,735.000,738.000
2862.510,740.000,732.000,733.000
2863.896,723.000,732.000,734.000
2865.282,729.000,739.000,728.000
2866.669,739.000,738.000,739.000
2868.055,740.000,731.000,738.000
2869.439,738.000,731.000,732.000
2870.825,736.000,735.000,730.000
2872.211,746.000,725.000,718.000
2873.595,724.000,739.000,717.000
2874.981,735.000,725.000,731.000
2876.364,727.000,737.000,731.000
2877.748,730.000,731.000,722.000
2879.133,732.000,732.000,745.000
2880.516,750.000,732.000,739.000
2881.899,738.000,738.000,735.000
2883.282,760.000,747.000,731.000
2884.665,743.000,747.000,743.000
2886.048,735.000,734.000,752.000
2887.430,731.000,734.000,731.000
2888.812,736.000,736.000,731.000
2890.195,747.000,733.000,726.000
2891.577,731.000,727.000,740.000
2892.959,739.000,739.000,739.000
2894.338,733.000,729.000,733.000
2895.720,733.000,743.000,729.000
2897.101,736.000,746.000,736.000
2898.483,727.000,736.000,742.000
2899.861,740.000,739.000,733.000
2901.242,736.000,734.000,741.000
2902.622,748.000,744.000,735.000
2904.002,717.000,744.000,740.000
2905.380,740.000,737.000,740.000
2906.760,756.000,743.000,731.000
2908.138,743.000,734.000,735.000
2909.518,748.000,741.000,745.000
2910.895,743.000,742.000,743.000
2912.273,744.000,731.000,731.000
2913.652,744.000,754.000,734.000
2915.029,747.000,743.000,733.000
2916.407,761.000,735.000,722.000
2917.783,747.000,744.000,750.000
2919.160,759.000,733.000,743.000
2920.537,743.000,746.000,754.000
2921.915,746.000,747.000,746.000
2923.290,751.000,737.000,752.000
2924.666,753.000,745.000,735.000
2926.042,774.000,747.000,752.000
2927.418,750.000,747.000,741.000
2928.791,769.000,747.000,757.000
2930.167,750.000,753.000,742.000
2931.542,767.000,764.000,742.000
2932.917,762.000,775.000,767.000
2934.292,764.000,753.000,758.000
2935.664,769.000,775.000,756.000
2937.038,768.000,763.000,764.000
2938.413,768.000,786.000,772.000
2939.787,776.000,778.000,771.000
2941.158,776.000,771.000,770.000
2942.532,772.000,777.000,771.000
2943.904,764.000,767.000,763.000
2945.277,759.000,769.000,774.000
2946.648,773.000,765.000,760.000
2948.021,782.000,769.000,759.000
2949.392,772.000,759.000,769.000
2950.765,767.000,781.000,767.000
2952.136,775.000,768.000,762.000
2953.505,770.000,770.000,758.000
2954.877,767.000,763.000,759.000
2956.248,764.000,764.000,763.000
2957.618,763.000,757.000,749.000
2958.987,766.000,764.000,760.000
2960.357,767.000,741.000,764.000
2961.728,775.000,763.000,752.000
2963.097,766.000,753.000,761.000
2964.464,763.000,753.000,749.000
2965.834,753.000,752.000,751.000
2967.203,756.000,768.000,758.000
2968.572,767.000,753.000,741.000
2969.941,756.000,746.000,755.000
2971.307,761.000,751.000,742.000
2972.675,750.000,741.000,752.000
2974.043,754.000,747.000,752.000
2975.410,747.000,741.000,738.000
2976.775,752.000,743.000,738.000
2978.143,736.000,735.000,744.000
2979.510,746.000,741.000,743.000
2980.877,738.000,752.000,741.000
2982.241,753.000,755.000,735.000
2983.608,744.000,755.000,747.000
2984.973,749.000,746.000,735.000
2986.339,748.000,748.000,730.000
2987.703,743.000,730.000,730.000
2989.068,737.000,744.000,736.000
2990.433,748.000,744.000,752.000
2991.798,747.000,737.000,738.000
2993.162,742.000,731.000,731.000
2994.525,741.000,736.000,743.000
2995.888,758.000,738.000,733.000
2997.253,745.000,728.000,740.000
2998.616,734.000,737.000,739.000
2999.978,736.000,749.000,733.000
3001.341,746.000,748.000,741.000
3002.703,737.000,738.000,732.000
3004.067,738.000,727.000,733.000
3005.428,738.000,733.000,746.000
3006.790,736.000,731.000,724.000
3008.152,741.000,735.000,731.000
3009.513,739.000,743.000,747.000
3010.875,735.000,734.000,726.000
3012.234,737.000,732.000,751.000
3013.595,732.000,746.000,729.000
3014.956,736.000,736.000,729.000
3016.316,721.000,725.000,719.000
3017.674,744.000,731.000,742.000
3019.035,744.000,733.000,731.000
3020.395,731.000,740.000,730.000
3021.754,740.000,740.000,737.000
3023.112,726.000,719.000,724.000
3024.471,733.000,726.000,720.000
3025.829,736.000,734.000,737.000
3027.189,739.000,722.000,721.000
3028.545,738.000,735.000,724.000
3029.904,732.000,736.000,728.000
3031.261,732.000,743.000,723.000
3032.619,734.000,727.000,728.000
3033.976,730.000,734.000,724.000
3035.332,744.000,738.000,724.000
3036.690,734.000,727.000,742.000
3038.046,740.000,720.000,730.000
3039.402,725.000,726.000,717.000
3040.757,726.000,735.000,737.000
3042.113,731.000,732.000,730.000
3043.469,735.000,732.000,727.000
3044.825,733.000,735.000,727.000
3046.179,730.000,723.000,714.000
3047.534,732.000,729.000,727.000
3048.889,727.000,728.000,739.000
3050.243,724.000,737.000,728.000
3051.598,724.000,739.000,723.000
3052.951,732.000,739.000,734.000
3054.305,735.000,724.000,740.000
3055.657,743.000,738.000,732.000
3057.011,737.000,735.000,727.000
3058.363,733.000,725.000,728.000
3059.715,735.000,741.000,717.000
3061.068,746.000,728.000,715.000
3062.421,729.000,736.000,740.000
3063.771,739.000,731.000,732.000
3065.124,757.000,739.000,736.000
3066.476,734.000,723.000,728.000
3067.827,742.000,739.000,733.000
3069.179,752.000,743.000,731.000
3070.528,739.000,730.000,743.000
3071.880,727.000,733.000,741.000
3073.230,741.000,924.000,737.000
3074.581,741.000,927.000,742.000
3075.930,735.000,756.000,738.000
3077.279,735.000,735.000,735.000
3078.629,744.000,737.000,735.000
3079.979,752.000,735.000,739.000
3081.327,745.000,749.000,734.000
3082.675,740.000,738.000,737.000
3084.024,748.000,729.000,731.000
3085.372,741.000,734.000,727.000
3086.722,733.000,732.000,737.000
3088.067,743.000,735.000,731.000
3089.415,742.000,731.000,723.000
3090.763,738.000,730.000,730.000
3092.110,734.000,726.000,722.000
3093.456,728.000,743.000,722.000
3094.803,715.000,726.000,733.000
3096.150,738.000,734.000,735.000
3097.497,731.000,729.000,724.000
3098.842,731.000,729.000,727.000
3100.187,724.000,727.000,730.000
3101.533,738.000,723.000,715.000
3102.879,735.000,733.000,729.000
3104.223,723.000,729.000,727.000
3105.568,734.000,735.000,718.000
3106.913,736.000,734.000,724.000
3108.257,728.000,726.000,718.000
3109.602,728.000,726.000,728.000
3110.945,731.000,719.000,726.000
3112.289,729.000,720.000,724.000
3113.632,726.000,725.000,721.000
3114.976,738.000,721.000,734.000
3116.318,724.000,735.000,721.000
3117.661,740.000,720.000,721.000
3119.003,736.000,726.000,727.000
3120.346,733.000,725.000,712.000
3121.687,720.000,720.000,738.000
3123.029,723.000,730.000,727.000
3124.371,729.000,725.000,722.000
3125.713,734.000,744.000,723.000
3127.052,725.000,729.000,733.000
3128.394,731.000,719.000,718.000
3129.735,737.000,723.000,721.000
3131.076,731.000,714.000,736.000
3132.417,737.000,737.000,721.000
3133.756,728.000,720.000,729.000
3135.096,731.000,729.000,731.000
3136.436,731.000,725.000,720.000
3137.774,721.000,721.000,725.000
3139.113,736.000,728.000,726.000
3140.452,725.000,730.000,724.000
3141.791,730.000,724.000,728.000
3143.129,723.000,729.000,734.000
3144.466,725.000,731.000,724.000
3145.805,717.000,705.000,724.000
3147.142,727.000,723.000,719.000
3148.480,731.000,723.000,737.000
3149.817,721.000,718.000,726.000
3151.154,726.000,720.000,716.000
3152.490,729.000,714.000,724.000
3153.828,739.000,723.000,731.000
3155.164,737.000,717.000,714.000
3156.500,729.000,722.000,718.000
3157.835,741.000,712.000,730.000
3159.171,724.000,718.000,707.000
3160.507,710.000,721.000,715.000
3161.841,725.000,711.000,719.000
3163.176,721.000,717.000,722.000
3164.511,727.000,722.000,725.000
3165.847,732.000,713.000,712.000
3167.181,734.000,728.000,719.000
3168.514,725.000,719.000,711.000
3169.848,718.000,729.000,718.000
3171.182,725.000,717.000,708.000
3172.515,721.000,723.000,713.000
3173.848,730.000,726.000,719.000
3175.181,727.000,714.000,723.000
3176.514,728.000,726.000,724.000
3177.847,730.000,714.000,720.000
3179.177,727.000,722.000,704.000
3180.510,718.000,725.000,721.000
3181.842,732.000,727.000,710.000
3183.174,723.000,726.000,710.000
3184.506,728.000,721.000,704.000
3185.835,718.000,715.000,717.000
3187.167,720.000,729.000,712.000
3188.498,731.000,717.000,727.000
3189.828,717.000,708.000,720.000
3191.158,722.000,721.000,718.000
3192.487,716.000,704.000,713.000
3193.818,725.000,723.000,724.000
3195.147,717.000,718.000,707.000
3196.476,720.000,717.000,714.000
3197.805,726.000,722.000,718.000
3199.134,712.000,715.000,712.000
3200.463,731.000,724.000,711.000
3201.790,737.000,715.000,715.000
3203.118,722.000,720.000,721.000
3204.447,716.000,726.000,729.000
3205.775,717.000,717.000,718.000
3207.102,733.000,721.000,728.000
3208.429,711.000,713.000,719.000
3209.756,722.000,728.000,706.000
3211.083,726.000,728.000,727.000
3212.409,722.000,722.000,716.000
3213.735,723.000,715.000,716.000
3215.061,734.000,720.000,721.000
3216.387,720.000,721.000,713.000
3217.713,723.000,708.000,719.000
3219.038,711.000,717.000,705.000
3220.364,717.000,714.000,711.000
3221.689,723.000,719.000,719.000
3223.014,722.000,714.000,725.000
3224.338,722.000,723.000,716.000
3225.662,717.000,721.000,709.000
3226.986,726.000,712.000,723.000
3228.310,720.000,725.000,721.000
3229.634,725.000,718.000,717.000
3230.957,729.000,724.000,712.000
3232.280,715.000,714.000,717.000
3233.603,719.000,717.000,716.000
3234.926,715.000,729.000,720.000
3236.248,727.000,714.000,715.000
3237.570,712.000,717.000,720.000
3238.893,723.000,721.000,704.000
3240.215,719.000,730.000,730.000
3241.535,726.000,723.000,719.000
3242.857,721.000,726.000,713.000
3244.178,726.000,722.000,721.000
3245.499,724.000,724.000,709.000
3246.821,711.000,716.000,713.000
3248.140,714.000,724.000,719.000
3249.461,724.000,712.000,706.000
3250.781,734.000,710.000,717.000
3252.101,716.000,722.000,715.000
3253.419,716.000,706.000,709.000
3254.739,714.000,724.000,708.000
3256.058,718.000,716.000,723.000
3257.378,714.000,722.000,728.000
3258.695,719.000,717.000,713.000
3260.014,723.000,720.000,717.000
3261.333,731.000,730.000,719.000
3262.651,722.000,714.000,724.000
3263.970,717.000,723.000,718.000
3265.285,736.000,732.000,709.000
3266.603,729.000,715.000,716.000
3267.921,724.000,719.000,711.000
3269.237,713.000,722.000,716.000
3270.553,729.000,718.000,718.000
3271.870,722.000,712.000,721.000
3273.186,729.000,711.000,719.000
3274.503,722.000,723.000,728.000
3275.817,724.000,724.000,703.000
3277.134,716.000,723.000,713.000
3278.449,725.000,721.000,723.000
3279.765,734.000,722.000,723.000
3281.080,727.000,723.000,719.000
3282.394,732.000,713.000,709.000
3283.708,724.000,711.000,722.000
3285.022,722.000,718.000,722.000
3286.337,727.000,722.000,707.000
3287.650,714.000,715.000,711.000
3288.964,712.000,725.000,713.000
3290.277,726.000,707.000,711.000
3291.590,727.000,723.000,722.000
3292.902,729.000,722.000,715.000
3294.216,707.000,728.000,721.000
3295.528,720.000,718.000,735.000
3296.841,722.000,720.000,716.000
3298.153,722.000,724.000,711.000
3299.464,718.000,714.000,723.000
3300.776,731.000,716.000,721.000
3302.088,725.000,727.000,719.000
3303.398,726.000,721.000,708.000
3304.708,722.000,723.000,730.000
3306.019,721.000,723.000,710.000
3307.330,715.000,724.000,721.000
3308.641,715.000,723.000,721.000
3309.949,731.000,719.000,725.000
3311.260,712.000,711.000,731.000
3312.570,730.000,725.000,733.000
3313.879,728.000,722.000,721.000
3315.187,720.000,721.000,718.000
3316.496,716.000,718.000,716.000
3317.805,731.000,715.000,721.000
3319.114,737.000,718.000,721.000
3320.423,723.000,716.000,710.000
3321.729,727.000,719.000,707.000
3323.038,718.000,734.000,712.000
3324.345,726.000,717.000,710.000
3325.653,722.000,725.000,715.000
3326.959,726.000,733.000,716.000
3328.266,728.000,712.000,729.000
3329.573,734.000,734.000,731.000
3330.881,724.000,711.000,723.000
3332.186,722.000,716.000,718.000
3333.492,719.000,715.000,722.000
3334.798,714.000,734.000,707.000
3336.103,724.000,734.000,721.000
3337.409,719.000,717.000,723.000
3338.713,735.000,730.000,714.000
3340.018,731.000,735.000,710.000
3341.323,725.000,712.000,721.000
3342.628,725.000,727.000,727.000
3343.931,721.000,726.000,715.000
3345.236,723.000,712.000,732.000
3346.540,729.000,728.000,723.000
3347.843,721.000,729.000,721.000
3349.146,727.000,734.000,715.000
3350.449,709.000,712.000,717.000
3351.753,729.000,718.000,705.000
3353.055,720.000,724.000,718.000
3354.357,727.000,713.000,720.000
3355.660,729.000,725.000,717.000
3356.962,728.000,718.000,718.000
3358.264,720.000,719.000,717.000
3359.566,733.000,713.000,714.000
3360.867,718.000,723.000,724.000
3362.168,734.000,727.000,722.000
3363.469,727.000,711.000,715.000
3364.770,716.000,719.000,714.000
3366.069,718.000,717.000,726.000
3367.370,726.000,715.000,713.000
3368.670,722.000,718.000,712.000
3369.970,721.000,726.000,715.000
3371.270,722.000,729.000,711.000
3372.569,721.000,719.000,710.000
3373.868,723.000,713.000,727.000
3375.167,714.000,713.000,725.000
3376.466,717.000,718.000,708.000
3377.764,712.000,714.000,721.000
3379.063,708.000,710.000,714.000
3380.362,724.000,724.000,715.000
3381.660,723.000,710.000,710.000
3382.957,733.000,721.000,719.000
3384.253,703.000,704.000,709.000
3385.551,712.000,724.000,720.000
3386.848,716.000,708.000,704.000
3388.144,718.000,711.000,713.000
3389.441,715.000,711.000,708.000
3390.738,722.000,710.000,701.000
3392.035,716.000,705.000,719.000
3393.330,711.000,718.000,704.000
3394.625,717.000,714.000,722.000
3395.921,722.000,726.000,712.000
3397.216,715.000,707.000,711.000
3398.512,721.000,712.000,713.000
3399.805,729.000,703.000,709.000
3401.101,721.000,726.000,714.000
3402.396,714.000,699.000,710.000
3403.690,718.000,719.000,706.000
3404.982,716.000,708.000,706.000
3406.277,714.000,706.000,715.000
3407.570,712.000,713.000,705.000
3408.865,722.000,723.000,700.000
3410.158,715.000,719.000,710.000
3411.449,717.000,704.000,715.000
3412.743,708.000,713.000,712.000
3414.035,708.000,716.000,702.000
3415.328,710.000,722.000,711.000
3416.619,717.000,712.000,712.000
3417.911,717.000,712.000,716.000
3419.203,723.000,705.000,707.000
3420.495,711.000,697.000,704.000
3421.785,724.000,720.000,716.000
3423.076,716.000,715.000,714.000
3424.367,723.000,712.000,724.000
3425.658,723.000,717.000,716.000
3426.946,712.000,720.000,721.000
3428.238,717.000,718.000,705.000
3429.527,717.000,724.000,716.000
3430.817,724.000,713.000,722.000
3432.107,720.000,712.000,705.000
3433.395,711.000,714.000,712.000
3434.685,717.000,705.000,703.000
3435.973,701.000,718.000,707.000
3437.262,715.000,715.000,707.000
3438.550,718.000,723.000,722.000
3439.838,719.000,725.000,713.000
3441.126,716.000,705.000,723.000
3442.415,722.000,723.000,722.000
3443.701,710.000,707.000,710.000
3444.989,728.000,718.000,727.000
3446.275,717.000,706.000,708.000
3447.562,720.000,717.000,698.000
3448.848,708.000,709.000,720.000
3450.135,713.000,707.000,706.000
3451.422,705.000,711.000,707.000
3452.708,717.000,713.000,714.000
3453.993,698.000,715.000,713.000
3455.278,706.000,707.000,707.000
3456.564,720.000,709.000,703.000
3457.849,713.000,713.000,707.000
3459.134,711.000,711.000,717.000
3460.418,711.000,710.000,710.000
3461.702,698.000,704.000,715.000
3462.987,713.000,714.000,708.000
3464.272,721.000,713.000,713.000
3465.554,712.000,720.000,706.000
3466.837,705.000,711.000,711.000
3468.121,707.000,706.000,715.000
3469.405,722.000,702.000,698.000
3470.688,708.000,713.000,715.000
3471.970,705.000,716.000,707.000
3473.253,700.000,705.000,700.000
3474.536,717.000,714.000,707.000
3475.818,709.000,709.000,693.000
3477.098,711.000,707.000,710.000
3478.381,720.000,706.000,707.000
3479.663,700.000,706.000,723.000
3480.943,712.000,718.000,707.000
3482.224,715.000,709.000,705.000
3483.505,723.000,706.000,707.000
3484.786,717.000,730.000,712.000
3486.067,707.000,702.000,702.000
3487.347,706.000,703.000,706.000
3488.626,713.000,701.000,705.000
3489.906,711.000,711.000,703.000
3491.186,716.000,699.000,698.000
3492.465,709.000,711.000,708.000
3493.743,702.000,699.000,699.000
3495.023,715.000,706.000,709.000
3496.301,715.000,711.000,698.000
3497.580,712.000,707.000,702.000
3498.857,703.000,707.000,709.000
3500.136,719.000,699.000,705.000
3501.414,705.000,709.000,706.000
3502.692,704.000,704.000,699.000
3503.969,720.000,698.000,711.000
3505.245,711.000,715.000,704.000
3506.522,709.000,710.000,707.000
3507.799,714.000,717.000,705.000
3509.076,714.000,707.000,703.000
3510.352,716.000,703.000,703.000
3511.628,710.000,715.000,703.000
3512.904,705.000,702.000,713.000
3514.180,714.000,713.000,700.000
3515.455,717.000,712.000,701.000
3516.731,711.000,725.000,710.000
3518.005,710.000,710.000,704.000
3519.280,710.000,711.000,707.000
3520.556,715.000,712.000,714.000
3521.828,720.000,709.000,708.000
3523.103,714.000,700.000,712.000
3524.378,708.000,709.000,712.000
3525.652,714.000,717.000,698.000
3526.924,712.000,719.000,711.000
3528.198,712.000,702.000,693.000
3529.471,711.000,706.000,711.000
3530.745,712.000,714.000,704.000
3532.016,714.000,705.000,695.000
3533.288,716.000,704.000,714.000
3534.562,701.000,710.000,712.000
3535.833,705.000,705.000,705.000
3537.104,713.000,697.000,704.000
3538.377,718.000,709.000,706.000
3539.648,708.000,703.000,700.000
3540.919,699.000,700.000,715.000
3542.189,703.000,706.000,700.000
3543.461,717.000,714.000,705.000
3544.732,716.000,713.000,700.000
3546.002,705.000,700.000,712.000
3547.272,718.000,693.000,711.000
3548.541,699.000,707.000,704.000
3549.811,718.000,718.000,689.000
3551.081,710.000,708.000,715.000
3552.351,718.000,709.000,709.000
3553.619,693.000,712.000,708.000
3554.888,710.000,705.000,705.000
3556.157,713.000,707.000,710.000
3557.426,703.000,701.000,706.000
3558.694,699.000,698.000,688.000
3559.961,699.000,696.000,705.000
3561.229,714.000,715.000,701.000
3562.498,703.000,698.000,697.000
3563.765,702.000,715.000,706.000
3565.031,719.000,693.000,707.000
3566.299,697.000,695.000,704.000
3567.566,707.000,711.000,707.000
3568.832,709.000,697.000,706.000
3570.098,704.000,703.000,706.000
3571.364,705.000,715.000,700.000
3572.631,708.000,702.000,697.000
3573.896,715.000,708.000,704.000
3575.161,710.000,708.000,713.000
3576.427,713.000,703.000,708.000
3577.691,717.000,707.000,711.000
3578.957,719.000,710.000,698.000
3580.222,714.000,713.000,700.000
3581.485,706.000,711.000,704.000
3582.750,712.000,703.000,712.000
3584.014,699.000,715.000,699.000
3585.278,711.000,702.000,700.000
3586.541,708.000,712.000,711.000
3587.804,704.000,707.000,703.000
3589.069,705.000,707.000,712.000
3590.332,702.000,704.000,711.000
3591.594,714.000,702.000,702.000
3592.856,710.000,695.000,709.000
3594.119,709.000,700.000,713.000
3595.382,708.000,715.000,703.000
3596.644,715.000,704.000,693.000
3597.905,708.000,697.000,704.000
3599.167,709.000,705.000,707.000
3600.427,715.000,697.000,699.000
3601.689,713.000,702.000,705.000
3602.949,705.000,703.000,701.000
3604.210,703.000,700.000,704.000
3605.471,711.000,713.000,703.000
3606.731,721.000,709.000,710.000
3607.990,708.000,704.000,701.000
3609.251,704.000,708.000,697.000
3610.510,701.000,706.000,707.000
3611.770,708.000,708.000,714.000
3613.029,705.000,699.000,706.000
3614.288,709.000,695.000,703.000
3615.546,701.000,699.000,703.000
3616.806,700.000,707.000,703.000
3618.064,699.000,704.000,703.000
3619.322,716.000,702.000,704.000
3620.580,703.000,706.000,703.000
3621.837,706.000,709.000,707.000
3623.096,713.000,705.000,698.000
3624.352,712.000,706.000,714.000
3625.609,708.000,712.000,700.000
3626.866,707.000,707.000,700.000
3628.124,707.000,704.000,713.000
3629.380,699.000,698.000,707.000
3630.636,711.000,696.000,697.000
3631.892,704.000,701.000,704.000
3633.148,711.000,706.000,701.000
3634.404,693.000,702.000,703.000
3635.658,705.000,708.000,702.000
3636.914,714.000,714.000,702.000
3638.169,709.000,704.000,703.000
3639.424,707.000,718.000,699.000
3640.678,696.000,705.000,709.000
3641.933,708.000,698.000,708.000
3643.188,713.000,704.000,706.000
3644.442,715.000,702.000,706.000
3645.694,712.000,699.000,701.000
3646.948,710.000,712.000,702.000
3648.202,702.000,705.000,717.000
3649.456,711.000,696.000,695.000
3650.707,705.000,694.000,706.000
3651.961,707.000,705.000,696.000
3653.214,709.000,713.000,709.000
3654.466,706.000,703.000,698.000
3655.719,703.000,712.000,696.000
3656.969,705.000,711.000,713.000
3658.222,712.000,707.000,709.000
3659.473,703.000,698.000,707.000
3660.725,703.000,708.000,699.000
3661.975,691.000,692.000,706.000
3663.226,694.000,703.000,707.000
3664.477,724.000,711.000,716.000
3665.728,708.000,703.000,703.000
3666.977,698.000,711.000,713.000
3668.228,710.000,707.000,700.000
3669.478,702.000,708.000,692.000
3670.728,715.000,712.000,700.000
3671.977,718.000,707.000,695.000
3673.225,704.000,706.000,692.000
3674.475,707.000,707.000,703.000
3675.724,723.000,713.000,705.000
3676.973,707.000,708.000,699.000
3678.221,717.000,705.000,701.000
3679.469,703.000,713.000,701.000
3680.718,710.000,710.000,703.000
3681.966,711.000,702.000,702.000
3683.212,705.000,704.000,703.000
3684.459,702.000,705.000,705.000
3685.707,712.000,706.000,700.000
3686.954,706.000,704.000,696.000
3688.201,701.000,701.000,706.000
3689.447,696.000,708.000,707.000
3690.694,715.000,706.000,704.000
3691.940,700.000,708.000,703.000
3693.186,708.000,704.000,713.000
3694.432,721.000,714.000,696.000
3695.677,707.000,711.000,695.000
3696.923,726.000,706.000,695.000
3698.169,703.000,709.000,711.000
3699.412,706.000,697.000,708.000
3700.658,693.000,712.000,706.000
3701.902,706.000,697.000,705.000
3703.146,701.000,702.000,699.000
3704.391,712.000,707.000,709.000
3705.634,711.000,711.000,712.000
3706.878,708.000,706.000,705.000
3708.122,704.000,703.000,698.000
3709.365,704.000,701.000,698.000
3710.608,701.000,712.000,691.000
3711.851,713.000,707.000,700.000
3713.093,711.000,708.000,700.000
3714.336,694.000,701.000,705.000
3715.577,713.000,707.000,699.000
3716.819,694.000,705.000,708.000
3718.062,705.000,703.000,700.000
3719.304,723.000,707.000,711.000
3720.546,707.000,704.000,702.000
3721.786,704.000,701.000,709.000
3723.027,714.000,715.000,702.000
3724.268,712.000,697.000,706.000
3725.509,703.000,694.000,713.000
3726.749,714.000,702.000,699.000
3727.989,705.000,708.000,716.000
3729.229,702.000,717.000,705.000
3730.469,710.000,720.000,698.000
3731.708,713.000,706.000,707.000
3732.948,709.000,717.000,711.000
3734.187,707.000,708.000,700.000
3735.426,700.000,711.000,705.000
3736.665,701.000,704.000,714.000
3737.903,713.000,709.000,705.000
3739.142,708.000,700.000,707.000
3740.381,704.000,699.000,697.000
3741.617,705.000,705.000,704.000
3742.856,718.000,704.000,702.000
3744.093,704.000,704.000,710.000
3745.331,702.000,713.000,705.000
3746.568,709.000,698.000,708.000
3747.805,714.000,702.000,706.000
3749.041,713.000,708.000,712.000
3750.278,708.000,695.000,696.000
3751.515,705.000,715.000,712.000
3752.750,715.000,713.000,711.000
3753.986,718.000,700.000,706.000
3755.223,711.000,714.000,702.000
3756.458,717.000,709.000,709.000
3757.693,718.000,705.000,706.000
3758.928,701.000,709.000,710.000
3760.163,714.000,703.000,709.000
3761.398,714.000,712.000,704.000
3762.632,709.000,699.000,698.000
3763.866,720.000,710.000,705.000
3765.100,707.000,714.000,714.000
3766.334,708.000,707.000,709.000
3767.568,708.000,705.000,704.000
3768.801,714.000,703.000,713.000
3770.035,709.000,719.000,709.000
3771.268,706.000,703.000,712.000
3772.502,715.000,708.000,705.000
3773.734,709.000,711.000,716.000
3774.967,716.000,725.000,708.000
3776.198,707.000,703.000,716.000
3777.431,699.000,707.000,707.000
3778.663,716.000,700.000,705.000
3779.893,715.000,706.000,698.000
3781.126,703.000,690.000,703.000
3782.358,713.000,711.000,697.000
3783.588,712.000,714.000,706.000
3784.819,701.000,720.000,709.000
3786.049,711.000,717.000,704.000
3787.280,718.000,708.000,706.000
3788.510,707.000,710.000,716.000
3789.740,727.000,710.000,712.000
3790.970,714.000,702.000,711.000
3792.200,713.000,706.000,703.000
3793.430,718.000,713.000,705.000
3794.659,722.000,716.000,705.000
3795.888,720.000,714.000,708.000
3797.117,721.000,707.000,707.000
3798.345,716.000,704.000,706.000
3799.574,705.000,720.000,698.000
3800.801,713.000,718.000,710.000
3802.030,715.000,716.000,714.000
3803.258,708.000,723.000,713.000
3804.486,716.000,716.000,702.000
3805.712,720.000,721.000,702.000
3806.940,712.000,710.000,711.000
3808.167,716.000,723.000,721.000
3809.394,716.000,710.000,712.000
3810.621,712.000,728.000,1791.000
3811.847,723.000,710.000,765.000
3813.074,724.000,708.000,718.000
3814.300,727.000,712.000,714.000
3815.526,709.000,718.000,719.000
3816.750,714.000,712.000,717.000
3817.976,713.000,715.000,694.000
3819.202,707.000,706.000,704.000
3820.427,721.000,711.000,713.000
3821.651,717.000,713.000,708.000
3822.876,714.000,703.000,701.000
3824.101,708.000,717.000,717.000
3825.326,712.000,717.000,715.000
3826.549,712.000,712.000,716.000
3827.773,714.000,715.000,728.000
3828.996,704.000,716.000,721.000
3830.220,716.000,710.000,709.000
3831.443,709.000,709.000,719.000
3832.665,707.000,716.000,725.000
3833.889,717.000,723.000,714.000
3835.111,721.000,716.000,703.000
3836.335,711.000,721.000,719.000
3837.556,719.000,722.000,715.000
3838.778,714.000,717.000,717.000
3840.000,710.000,724.000,713.000
3841.222,708.000,718.000,715.000
3842.442,718.000,716.000,709.000
3843.664,725.000,715.000,719.000
3844.886,729.000,714.000,712.000
3846.107,729.000,720.000,720.000
3847.326,720.000,709.000,710.000
3848.547,729.000,719.000,709.000
3849.768,721.000,722.000,723.000
3850.988,725.000,721.000,716.000
3852.208,728.000,736.000,720.000
3853.427,738.000,730.000,724.000
3854.647,712.000,720.000,720.000
3855.866,720.000,709.000,715.000
3857.086,724.000,718.000,723.000
3858.304,728.000,734.000,719.000
3859.523,733.000,729.000,742.000
3860.741,732.000,726.000,736.000
3861.959,728.000,731.000,714.000
3863.177,722.000,733.000,740.000
3864.394,726.000,719.000,716.000
3865.612,745.000,725.000,726.000
3866.830,728.000,727.000,718.000
3868.048,725.000,714.000,715.000
3869.264,716.000,728.000,719.000
3870.481,729.000,721.000,742.000
3871.698,725.000,727.000,736.000
3872.915,732.000,735.000,729.000
3874.130,740.000,729.000,726.000
3875.347,726.000,730.000,732.000
3876.562,733.000,728.000,739.000
3877.779,723.000,726.000,747.000
3878.993,743.000,724.000,737.000
3880.208,747.000,735.000,737.000
3881.424,758.000,742.000,736.000
3882.639,740.000,736.000,737.000
3883.854,755.000,745.000,737.000
3885.068,751.000,746.000,748.000
3886.283,747.000,753.000,749.000
3887.497,745.000,739.000,756.000
3888.711,747.000,743.000,753.000
3889.923,757.000,753.000,733.000
3891.137,749.000,752.000,748.000
3892.352,753.000,752.000,766.000
3893.565,760.000,776.000,759.000
3894.777,770.000,751.000,767.000
3895.990,759.000,776.000,769.000
3897.203,789.000,775.000,772.000
