7.506,3015.000,3013.000,3018.000
9.482,3018.000,3016.000,3018.000
11.459,3014.000,3011.000,3019.000
13.439,3019.000,3014.000,3019.000
15.413,3019.000,3014.000,3021.000
17.390,3015.000,3013.000,3017.000
19.365,3020.000,3015.000,3019.000
21.341,3015.000,3012.000,3018.000
23.315,3015.000,3013.000,3015.000
25.290,3019.000,3013.000,3017.000
27.264,3018.000,3014.000,3019.000
29.236,3022.000,3020.000,3022.000
31.209,3025.000,3023.000,3024.000
33.185,3024.000,3022.000,3028.000
35.155,3022.000,3022.000,3023.000
37.127,3024.000,3023.000,3027.000
39.099,3025.000,3031.000,3031.000
41.070,3034.000,3044.000,3043.000
43.041,3048.000,3042.000,3055.000
45.012,3046.000,3053.000,3063.000
46.981,3061.000,3067.000,3070.000
48.949,3058.000,3051.000,3053.000
50.917,3037.000,3042.000,3043.000
52.888,3039.000,3041.000,3037.000
54.854,3032.000,3037.000,3038.000
56.823,3037.000,3040.000,3028.000
58.790,3033.000,3030.000,3031.000
60.758,3025.000,3022.000,3025.000
62.724,3022.000,3018.000,3017.000
64.690,3014.000,3017.000,3014.000
66.657,3015.000,3017.000,3013.000
68.619,3015.000,3015.000,3014.000
70.584,3015.000,3017.000,3013.000
72.552,3008.000,3015.000,3016.000
74.513,3013.000,3013.000,3015.000
76.477,3015.000,3011.000,3013.000
78.441,3016.000,3012.000,3015.000
80.404,3014.000,3013.000,3014.000
82.367,3019.000,3013.000,3012.000
84.328,3015.000,3016.000,3018.000
86.290,3019.000,3010.000,3013.000
88.249,3018.000,3013.000,3013.000
90.211,3015.000,3013.000,3019.000
92.174,3017.000,3012.000,3015.000
94.132,3016.000,3017.000,3020.000
96.091,3012.000,3016.000,3016.000
98.050,3009.000,3013.000,3018.000
100.007,3015.000,3012.000,3013.000
101.968,3014.000,3015.000,3012.000
103.926,3011.000,3015.000,3012.000
105.884,3013.000,3014.000,3011.000
107.839,3010.000,3015.000,3013.000
109.795,3013.000,3011.000,3010.000
111.754,3012.000,3011.000,3010.000
113.708,3015.000,3013.000,3014.000
115.664,3010.000,3014.000,3013.000
117.619,3012.000,3012.000,3014.000
119.571,3013.000,3010.000,3012.000
121.528,3017.000,3011.000,3010.000
123.482,3016.000,3013.000,3013.000
125.436,3014.000,3005.000,3016.000
127.387,3017.000,3015.000,3015.000
129.339,3013.000,3012.000,3014.000
131.294,3015.000,3013.000,3018.000
133.244,3012.000,3016.000,3016.000
135.195,3014.000,3013.000,3016.000
137.146,3009.000,3015.000,3016.000
139.095,3011.000,3016.000,3015.000
141.047,3009.000,3010.000,3014.000
142.997,3013.000,3016.000,3016.000
144.947,3011.000,3017.000,3012.000
146.894,3011.000,3018.000,3010.000
148.842,3014.000,3016.000,3012.000
150.792,3018.000,3015.000,3011.000
152.739,3015.000,3015.000,3013.000
154.686,3016.000,3014.000,3015.000
156.633,3016.000,3015.000,3013.000
158.577,3014.000,3010.000,3016.000
160.526,3014.000,3012.000,3013.000
162.471,3017.000,3013.000,3015.000
164.418,3015.000,3012.000,3014.000
166.359,3016.000,3015.000,3015.000
168.305,3011.000,3011.000,3018.000
170.251,3018.000,3014.000,3022.000
172.193,3018.000,3013.000,3020.000
174.136,3017.000,3021.000,3023.000
176.079,3018.000,3021.000,3019.000
178.020,3017.000,3015.000,3019.000
179.964,3013.000,3010.000,3013.000
181.905,3013.000,3013.000,3016.000
183.847,3014.000,3013.000,3010.000
185.786,3014.000,3013.000,3016.000
187.726,3015.000,3012.000,3012.000
189.668,3016.000,3011.000,3015.000
191.606,3019.000,3015.000,3018.000
193.546,3018.000,3013.000,3018.000
195.484,3018.000,3011.000,3018.000
197.421,3014.000,3016.000,3015.000
199.361,3013.000,3011.000,3013.000
201.299,3014.000,3011.000,3014.000
203.236,3014.000,3012.000,3013.000
205.171,3011.000,3011.000,3015.000
207.107,3016.000,3012.000,3015.000
209.045,3012.000,3016.000,3008.000
210.979,3011.000,3011.000,3012.000
212.915,3011.000,3012.000,3010.000
214.850,3015.000,3014.000,3019.000
216.782,3016.000,3020.000,3014.000
218.718,3015.000,3014.000,3016.000
220.652,3015.000,3017.000,3015.000
222.586,3020.000,3018.000,3016.000
224.516,3018.000,3021.000,3016.000
226.448,3016.000,3022.000,3019.000
228.382,3017.000,3020.000,3017.000
230.312,3020.000,3019.000,3026.000
232.243,3021.000,3023.000,3020.000
234.175,3026.000,3023.000,3021.000
236.103,3026.000,3022.000,3024.000
238.035,3028.000,3024.000,3026.000
239.964,3029.000,3022.000,3023.000
241.894,3036.000,3031.000,3027.000
243.821,3033.000,3031.000,3030.000
245.749,3039.000,3031.000,3031.000
247.679,3034.000,3036.000,3037.000
249.604,3041.000,3039.000,3037.000
251.532,3040.000,3039.000,3039.000
253.459,3034.000,3035.000,3030.000
255.383,3034.000,3038.000,3031.000
257.311,3031.000,3036.000,3030.000
259.237,3028.000,3031.000,3029.000
261.162,3026.000,3026.000,3023.000
263.085,3023.000,3026.000,3029.000
265.010,3020.000,3024.000,3025.000
266.936,3020.000,3020.000,3022.000
268.857,3022.000,3021.000,3019.000
270.780,3018.000,3022.000,3023.000
272.704,3017.000,3017.000,3020.000
274.624,3017.000,3019.000,3024.000
276.548,3014.000,3019.000,3014.000
278.470,3015.000,3021.000,3018.000
280.390,3014.000,3016.000,3022.000
282.310,3015.000,3015.000,3017.000
284.230,3011.000,3019.000,3014.000
286.153,3014.000,3016.000,3017.000
288.070,3013.000,3014.000,3017.000
289.989,3016.000,3013.000,3013.000
291.909,3017.000,3013.000,3019.000
293.825,3014.000,3014.000,3019.000
295.745,3014.000,3015.000,3015.000
297.663,3012.000,3015.000,3015.000
299.580,3016.000,3015.000,3014.000
301.494,3017.000,3014.000,3016.000
303.412,3018.000,3015.000,3015.000
305.329,3020.000,3013.000,3014.000
307.243,3022.000,3017.000,3016.000
309.158,3018.000,3017.000,3017.000
311.073,3018.000,3020.000,3015.000
312.986,3017.000,3011.000,3010.000
314.899,3017.000,3012.000,3012.000
316.816,3017.000,3015.000,3013.000
318.728,3017.000,3014.000,3014.000
320.640,3020.000,3015.000,3012.000
322.553,3019.000,3013.000,3013.000
324.466,3015.000,3018.000,3012.000
326.376,3016.000,3018.000,3017.000
328.287,3014.000,3017.000,3011.000
330.199,3014.000,3015.000,3010.000
332.107,3018.000,3018.000,3011.000
334.017,3015.000,3015.000,3015.000
335.929,3015.000,3015.000,3016.000
337.838,3015.000,3014.000,3012.000
339.745,3016.000,3015.000,3011.000
341.654,3017.000,3013.000,3011.000
343.564,3014.000,3013.000,3018.000
345.470,3017.000,3011.000,3009.000
347.377,3013.000,3011.000,3010.000
349.284,3015.000,3014.000,3010.000
351.188,3014.000,3013.000,3013.000
353.095,3016.000,3016.000,3013.000
355.003,3014.000,3013.000,3012.000
356.908,3013.000,3015.000,3012.000
358.811,3017.000,3017.000,3017.000
360.716,3010.000,3017.000,3012.000
362.620,3015.000,3014.000,3012.000
364.524,3013.000,3016.000,3016.000
366.427,3013.000,3016.000,3015.000
368.331,3016.000,3012.000,3013.000
370.232,3011.000,3013.000,3017.000
372.134,3014.000,3013.000,3015.000
374.037,3010.000,3014.000,3011.000
375.940,3012.000,3016.000,3015.000
377.838,3011.000,3011.000,3015.000
379.738,3011.000,3013.000,3016.000
381.639,3011.000,3012.000,3016.000
383.539,3011.000,3012.000,3017.000
385.439,3019.000,3009.000,3014.000
387.338,3012.000,3012.000,3015.000
389.234,3014.000,3014.000,3014.000
391.133,3014.000,3011.000,3017.000
393.033,3015.000,3016.000,3022.000
394.930,3017.000,3019.000,3023.000
396.826,3019.000,3025.000,3025.000
398.722,3022.000,3019.000,3021.000
400.618,3015.000,3016.000,3021.000
402.515,3017.000,3016.000,3018.000
404.410,3017.000,3017.000,3011.000
406.305,3014.000,3008.000,3019.000
408.198,3018.000,3017.000,3016.000
410.092,3014.000,3013.000,3019.000
411.989,3016.000,3010.000,3011.000
413.883,3016.000,3014.000,3012.000
415.773,3015.000,3009.000,3013.000
417.666,3013.000,3013.000,3014.000
419.559,3012.000,3011.000,3012.000
421.451,3014.000,3012.000,3013.000
423.343,3011.000,3012.000,3012.000
425.234,3010.000,3014.000,3011.000
427.124,3016.000,3013.000,3011.000
429.013,3015.000,3016.000,3016.000
430.906,3015.000,3015.000,3009.000
432.796,3015.000,3017.000,3012.000
434.683,3012.000,3016.000,3014.000
436.572,3012.000,3015.000,3014.000
438.460,3013.000,3018.000,3015.000
440.349,3019.000,3010.000,3014.000
442.237,3015.000,3013.000,3016.000
444.124,3013.000,3014.000,3016.000
446.009,3016.000,3008.000,3013.000
447.896,3019.000,3011.000,3015.000
449.784,3013.000,3012.000,3019.000
451.670,3015.000,3010.000,3017.000
453.554,3015.000,3012.000,3018.000
455.438,3011.000,3010.000,3018.000
457.323,3013.000,3010.000,3013.000
459.208,3012.000,3012.000,3016.000
461.092,3015.000,3010.000,3012.000
462.975,3014.000,3010.000,3014.000
464.856,3014.000,3011.000,3011.000
466.739,3009.000,3016.000,3014.000
468.624,3013.000,3013.000,3009.000
470.504,3017.000,3011.000,3011.000
472.385,3018.000,3015.000,3013.000
474.266,3019.000,3018.000,3014.000
476.148,3015.000,3016.000,3012.000
478.028,3020.000,3020.000,3017.000
479.908,3017.000,3014.000,3011.000
481.788,3015.000,3021.000,3017.000
483.666,3021.000,3021.000,3017.000
485.545,3017.000,3024.000,3020.000
487.425,3017.000,3022.000,3017.000
489.301,3019.000,3019.000,3022.000
491.179,3021.000,3023.000,3025.000
493.056,3025.000,3026.000,3028.000
494.933,3033.000,3030.000,3035.000
496.810,3039.000,3041.000,3042.000
498.686,3056.000,3060.000,3063.000
500.562,3087.000,3086.000,3084.000
502.435,3094.000,3086.000,3096.000
504.311,3085.000,3095.000,3097.000
506.187,3071.000,3071.000,3072.000
508.059,3052.000,3049.000,3048.000
509.934,3040.000,3037.000,3042.000
511.807,3031.000,3032.000,3032.000
513.680,3022.000,3028.000,3021.000
515.553,3020.000,3021.000,3024.000
517.425,3021.000,3020.000,3026.000
519.297,3018.000,3022.000,3021.000
521.166,3015.000,3020.000,3020.000
523.038,3018.000,3013.000,3023.000
524.910,3018.000,3014.000,3016.000
526.779,3018.000,3012.000,3018.000
528.650,3021.000,3018.000,3011.000
530.519,3017.000,3013.000,3016.000
532.389,3018.000,3015.000,3017.000
534.257,3019.000,3014.000,3014.000
536.126,3018.000,3014.000,3014.000
537.994,3015.000,3016.000,3015.000
539.860,3018.000,3012.000,3010.000
541.728,3015.000,3018.000,3017.000
543.596,3018.000,3018.000,3015.000
545.461,3017.000,3016.000,3021.000
547.327,3018.000,3019.000,3017.000
549.193,3013.000,3018.000,3018.000
551.058,3014.000,3019.000,3017.000
552.923,3016.000,3014.000,3019.000
554.788,3016.000,3016.000,3017.000
556.653,3014.000,3017.000,3016.000
558.515,3009.000,3018.000,3020.000
560.379,3010.000,3015.000,3015.000
562.244,3010.000,3016.000,3014.000
564.105,3015.000,3014.000,3013.000
565.968,3012.000,3013.000,3018.000
567.829,3015.000,3014.000,3016.000
569.691,3012.000,3017.000,3013.000
571.552,3013.000,3018.000,3017.000
573.414,3013.000,3019.000,3011.000
575.274,3012.000,3021.000,3007.000
577.132,3013.000,3014.000,3011.000
578.992,3013.000,3017.000,3013.000
580.854,3015.000,3020.000,3011.000
582.711,3010.000,3018.000,3011.000
584.569,3018.000,3017.000,3015.000
586.428,3016.000,3013.000,3016.000
588.286,3017.000,3018.000,3013.000
590.143,3017.000,3018.000,3017.000
591.999,3019.000,3016.000,3016.000
593.856,3018.000,3018.000,3016.000
595.711,3014.000,3017.000,3015.000
597.568,3022.000,3014.000,3015.000
599.424,3011.000,3013.000,3012.000
601.278,3015.000,3014.000,3012.000
603.133,3013.000,3011.000,3015.000
604.988,3013.000,3011.000,3015.000
606.841,3010.000,3016.000,3018.000
608.696,3015.000,3013.000,3013.000
610.549,3012.000,3010.000,3015.000
612.401,3012.000,3013.000,3018.000
614.252,3012.000,3012.000,3016.000
616.104,3012.000,3013.000,3016.000
617.959,3012.000,3012.000,3016.000
619.808,3013.000,3013.000,3013.000
621.659,3013.000,3013.000,3013.000
623.510,3010.000,3018.000,3015.000
625.361,3010.000,3015.000,3012.000
627.210,3010.000,3015.000,3012.000
629.059,3009.000,3006.000,3013.000
630.909,3013.000,3013.000,3017.000
632.755,3012.000,3010.000,3013.000
634.604,3013.000,3012.000,3013.000
636.454,3010.000,3014.000,3012.000
638.300,3012.000,3013.000,3012.000
640.148,3013.000,3015.000,3009.000
641.994,3012.000,3015.000,3010.000
643.840,3010.000,3018.000,3012.000
645.687,3009.000,3015.000,3013.000
647.533,3012.000,3020.000,3011.000
649.378,3013.000,3017.000,3013.000
651.221,3013.000,3015.000,3012.000
653.066,3011.000,3010.000,3015.000
654.913,3012.000,3013.000,3011.000
656.754,3013.000,3012.000,3012.000
658.598,3011.000,3015.000,3008.000
660.441,3012.000,3006.000,3013.000
662.284,3014.000,3014.000,3014.000
664.127,3016.000,3014.000,3015.000
665.969,3012.000,3014.000,3011.000
667.810,3013.000,3014.000,3012.000
669.650,3013.000,3012.000,3011.000
671.490,3016.000,3012.000,3016.000
673.333,3012.000,3009.000,3012.000
675.171,3012.000,3012.000,3015.000
677.012,3012.000,3014.000,3011.000
678.851,3014.000,3013.000,3014.000
680.690,3012.000,3014.000,3014.000
682.529,3014.000,3019.000,3009.000
684.367,3010.000,3015.000,3010.000
686.205,3014.000,3018.000,3015.000
688.041,3011.000,3016.000,3011.000
689.878,3010.000,3014.000,3012.000
691.716,3015.000,3015.000,3009.000
693.551,3014.000,3012.000,3012.000
695.388,3017.000,3011.000,3014.000
697.223,3015.000,3010.000,3012.000
699.058,3012.000,3010.000,3016.000
700.893,3015.000,3010.000,3015.000
702.728,3018.000,3013.000,3018.000
704.563,3016.000,3012.000,3015.000
706.394,3014.000,3012.000,3016.000
708.227,3018.000,3016.000,3014.000
710.063,3016.000,3014.000,3012.000
711.893,3019.000,3015.000,3015.000
713.726,3015.000,3015.000,3015.000
715.558,3015.000,3017.000,3014.000
717.389,3014.000,3018.000,3017.000
719.222,3013.000,3012.000,3012.000
721.052,3018.000,3012.000,3017.000
722.883,3012.000,3012.000,3020.000
724.711,3012.000,3014.000,3017.000
726.541,3011.000,3015.000,3016.000
728.372,3012.000,3013.000,3015.000
730.199,3012.000,3019.000,3017.000
732.027,3010.000,3011.000,3013.000
733.856,3011.000,3013.000,3015.000
735.684,3018.000,3017.000,3014.000
737.512,3013.000,3012.000,3012.000
739.339,3013.000,3013.000,3014.000
741.166,3010.000,3013.000,3016.000
742.990,3014.000,3016.000,3013.000
744.817,3012.000,3015.000,3009.000
746.644,3015.000,3014.000,3014.000
748.467,3015.000,3012.000,3016.000
750.293,3017.000,3016.000,3012.000
752.117,3020.000,3013.000,3015.000
753.941,3016.000,3012.000,3013.000
755.765,3015.000,3011.000,3013.000
757.589,3018.000,3012.000,3012.000
759.412,3017.000,3011.000,3015.000
761.232,3018.000,3011.000,3013.000
763.055,3018.000,3014.000,3011.000
764.878,3015.000,3011.000,3013.000
766.699,3015.000,3013.000,3013.000
768.520,3015.000,3012.000,3018.000
770.341,3008.000,3017.000,3013.000
772.161,3014.000,3012.000,3019.000
773.982,3013.000,3016.000,3019.000
775.802,3012.000,3017.000,3015.000
777.621,3014.000,3014.000,3012.000
779.439,3009.000,3016.000,3012.000
781.257,3011.000,3013.000,3014.000
783.078,3014.000,3015.000,3013.000
784.894,3015.000,3014.000,3013.000
786.711,3017.000,3014.000,3016.000
788.528,3017.000,3015.000,3014.000
790.345,3014.000,3013.000,3012.000
792.162,3015.000,3011.000,3013.000
793.978,3015.000,3009.000,3015.000
795.794,3019.000,3013.000,3013.000
797.607,3019.000,3015.000,3010.000
799.422,3012.000,3009.000,3011.000
801.238,3019.000,3010.000,3010.000
803.051,3009.000,3012.000,3020.000
804.865,3011.000,3013.000,3014.000
806.679,3011.000,3015.000,3015.000
808.492,3010.000,3010.000,3016.000
810.305,3014.000,3013.000,3013.000
812.117,3012.000,3011.000,3013.000
813.930,3012.000,3017.000,3014.000
815.739,3012.000,3018.000,3014.000
817.551,3015.000,3016.000,3011.000
819.364,3015.000,3019.000,3012.000
821.172,3015.000,3015.000,3011.000
822.983,3017.000,3016.000,3013.000
824.793,3017.000,3018.000,3015.000
826.602,3016.000,3016.000,3017.000
828.412,3014.000,3017.000,3014.000
830.220,3013.000,3019.000,3017.000
832.029,3015.000,3015.000,3015.000
833.835,3017.000,3019.000,3017.000
835.643,3015.000,3017.000,3018.000
837.452,3013.000,3016.000,3016.000
839.257,3018.000,3018.000,3016.000
841.064,3017.000,3017.000,3017.000
842.871,3017.000,3015.000,3019.000
844.674,3013.000,3016.000,3013.000
846.482,3016.000,3016.000,3014.000
848.288,3017.000,3013.000,3015.000
850.092,3016.000,3011.000,3014.000
851.894,3018.000,3013.000,3015.000
853.699,3014.000,3013.000,3011.000
855.504,3016.000,3010.000,3017.000
857.306,3014.000,3009.000,3018.000
859.109,3015.000,3014.000,3015.000
860.912,3015.000,3014.000,3014.000
862.712,3014.000,3017.000,3016.000
864.516,3014.000,3008.000,3015.000
866.318,3012.000,3012.000,3016.000
868.119,3015.000,3013.000,3018.000
869.918,3013.000,3014.000,3016.000
871.719,3011.000,3015.000,3012.000
873.521,3010.000,3012.000,3017.000
875.318,3014.000,3011.000,3014.000
877.118,3014.000,3015.000,3014.000
878.917,3015.000,3013.000,3010.000
880.714,3009.000,3011.000,3012.000
882.514,3012.000,3012.000,3014.000
884.311,3014.000,3012.000,3011.000
886.110,3014.000,3012.000,3014.000
887.905,3013.000,3009.000,3015.000
889.701,3016.000,3011.000,3014.000
891.500,3015.000,3016.000,3014.000
893.294,3016.000,3012.000,3017.000
895.090,3015.000,3011.000,3017.000
896.885,3016.000,3013.000,3020.000
898.679,3014.000,3014.000,3018.000
900.476,3015.000,3012.000,3016.000
902.269,3016.000,3015.000,3019.000
904.063,3017.000,3014.000,3020.000
905.855,3015.000,3014.000,3012.000
907.649,3012.000,3012.000,3018.000
909.442,3018.000,3017.000,3018.000
911.235,3016.000,3014.000,3014.000
913.026,3016.000,3013.000,3013.000
914.819,3016.000,3014.000,3016.000
916.608,3019.000,3016.000,3013.000
918.401,3015.000,3015.000,3012.000
920.192,3014.000,3016.000,3015.000
921.982,3014.000,3014.000,3016.000
923.770,3017.000,3013.000,3013.000
925.561,3015.000,3014.000,3011.000
927.350,3015.000,3016.000,3016.000
929.138,3012.000,3012.000,3012.000
930.927,3014.000,3015.000,3012.000
932.716,3013.000,3015.000,3015.000
934.501,3013.000,3018.000,3014.000
936.291,3008.000,3017.000,3014.000
938.079,3013.000,3011.000,3014.000
939.865,3013.000,3015.000,3012.000
941.649,3011.000,3018.000,3015.000
943.436,3010.000,3017.000,3015.000
945.222,3011.000,3013.000,3012.000
947.007,3016.000,3011.000,3016.000
948.793,3008.000,3011.000,3015.000
950.577,3010.000,3014.000,3014.000
952.360,3013.000,3011.000,3014.000
954.145,3011.000,3009.000,3016.000
955.929,3011.000,3017.000,3017.000
957.712,3014.000,3011.000,3018.000
959.493,3016.000,3014.000,3015.000
961.276,3012.000,3014.000,3015.000
963.058,3012.000,3013.000,3012.000
964.839,3013.000,3011.000,3015.000
966.622,3015.000,3012.000,3018.000
968.403,3013.000,3011.000,3019.000
970.182,3013.000,3013.000,3016.000
971.964,3012.000,3013.000,3015.000
973.744,3014.000,3016.000,3019.000
975.524,3013.000,3013.000,3015.000
977.301,3012.000,3016.000,3015.000
979.080,3008.000,3014.000,3019.000
980.859,3012.000,3014.000,3017.000
982.637,3012.000,3018.000,3015.000
984.414,3015.000,3013.000,3015.000
986.192,3014.000,3015.000,3016.000
987.967,3015.000,3014.000,3017.000
989.746,3015.000,3017.000,3015.000
991.523,3013.000,3012.000,3021.000
993.299,3012.000,3010.000,3021.000
995.073,3010.000,3010.000,3014.000
996.849,3017.000,3010.000,3016.000
998.624,3011.000,3015.000,3015.000
1000.398,3011.000,3009.000,3014.000
1002.172,3013.000,3015.000,3012.000
1003.947,3017.000,3011.000,3013.000
1005.718,3017.000,3016.000,3014.000
1007.493,3014.000,3012.000,3014.000
1009.267,3016.000,3011.000,3016.000
1011.040,3017.000,3015.000,3019.000
1012.810,3014.000,3013.000,3013.000
1014.582,3015.000,3022.000,3011.000
1016.353,3010.000,3014.000,3015.000
1018.125,3021.000,3015.000,3015.000
1019.896,3017.000,3019.000,3010.000
1021.666,3017.000,3016.000,3009.000
1023.435,3013.000,3009.000,3013.000
1025.204,3013.000,3014.000,3011.000
1026.976,3012.000,3014.000,3010.000
1028.744,3015.000,3019.000,3014.000
1030.511,3015.000,3008.000,3012.000
1032.280,3014.000,3015.000,3017.000
1034.048,3010.000,3012.000,3013.000
1035.815,3015.000,3012.000,3010.000
1037.583,3015.000,3015.000,3014.000
1039.350,3014.000,3017.000,3012.000
1041.115,3011.000,3018.000,3014.000
1042.881,3009.000,3015.000,3016.000
1044.649,3016.000,3017.000,3010.000
1046.415,3010.000,3017.000,3014.000
1048.177,3010.000,3017.000,3016.000
1049.942,3011.000,3017.000,3015.000
1051.707,3016.000,3013.000,3020.000
1053.472,3018.000,3015.000,3015.000
1055.236,3015.000,3015.000,3017.000
1056.998,3015.000,3013.000,3016.000
1058.760,3012.000,3014.000,3015.000
1060.523,3016.000,3014.000,3019.000
1062.287,3017.000,3012.000,3017.000
1064.050,3017.000,3010.000,3016.000
1065.809,3016.000,3010.000,3011.000
1067.570,3018.000,3013.000,3014.000
1069.331,3012.000,3010.000,3013.000
1071.093,3014.000,3015.000,3012.000
1072.853,3016.000,3013.000,3011.000
1074.613,3013.000,3019.000,3015.000
1076.370,3014.000,3014.000,3011.000
1078.130,3013.000,3018.000,3016.000
1079.890,3014.000,3015.000,3011.000
1081.649,3012.000,3016.000,3016.000
1083.405,3013.000,3015.000,3009.000
1085.164,3016.000,3013.000,3014.000
1086.920,3016.000,3013.000,3016.000
1088.678,3014.000,3016.000,3016.000
1090.435,3019.000,3017.000,3013.000
1092.192,3014.000,3013.000,3013.000
1093.945,3016.000,3015.000,3015.000
1095.702,3018.000,3012.000,3015.000
1097.458,3017.000,3009.000,3013.000
1099.214,3015.000,3012.000,3021.000
1100.967,3016.000,3014.000,3019.000
1102.722,3013.000,3018.000,3014.000
1104.475,3012.000,3013.000,3015.000
1106.229,3015.000,3014.000,3010.000
1107.982,3015.000,3015.000,3014.000
1109.736,3011.000,3019.000,3013.000
1111.486,3015.000,3016.000,3011.000
1113.239,3016.000,3016.000,3013.000
1114.992,3018.000,3015.000,3018.000
1116.744,3016.000,3017.000,3015.000
1118.493,3015.000,3015.000,3013.000
1120.244,3013.000,3015.000,3012.000
1121.995,3016.000,3015.000,3010.000
1123.745,3019.000,3012.000,3011.000
1125.495,3017.000,3015.000,3018.000
1127.244,3015.000,3017.000,3019.000
1128.992,3013.000,3016.000,3021.000
1130.740,3014.000,3023.000,3017.000
1132.491,3012.000,3019.000,3017.000
1134.239,3010.000,3015.000,3018.000
1135.985,3016.000,3016.000,3015.000
1137.732,3014.000,3015.000,3014.000
1139.480,3013.000,3015.000,3012.000
1141.226,3012.000,3013.000,3013.000
1142.973,3016.000,3015.000,3012.000
1144.720,3016.000,3017.000,3007.000
1146.462,3014.000,3014.000,3016.000
1148.209,3015.000,3008.000,3014.000
1149.955,3015.000,3011.000,3017.000
1151.700,3014.000,3013.000,3016.000
1153.443,3015.000,3011.000,3013.000
1155.186,3018.000,3010.000,3013.000
1156.930,3019.000,3013.000,3012.000
1158.673,3015.000,3013.000,3020.000
1160.416,3017.000,3012.000,3016.000
1162.159,3014.000,3014.000,3015.000
1163.899,3016.000,3009.000,3016.000
1165.642,3016.000,3011.000,3015.000
1167.384,3013.000,3008.000,3015.000
1169.126,3013.000,3013.000,3018.000
1170.865,3011.000,3015.000,3017.000
1172.606,3010.000,3015.000,3007.000
1174.346,3019.000,3010.000,3012.000
1176.085,3012.000,3013.000,3013.000
1177.826,3015.000,3012.000,3014.000
1179.565,3012.000,3010.000,3017.000
1181.302,3014.000,3014.000,3016.000
1183.040,3013.000,3016.000,3017.000
1184.780,3016.000,3016.000,3017.000
1186.518,3015.000,3016.000,3013.000
1188.254,3014.000,3015.000,3015.000
1189.991,3017.000,3013.000,3015.000
1191.728,3019.000,3014.000,3015.000
1193.464,3016.000,3013.000,3017.000
1195.201,3022.000,3014.000,3017.000
1196.936,3015.000,3013.000,3017.000
1198.670,3018.000,3012.000,3014.000
1200.404,3011.000,3014.000,3018.000
1202.141,3011.000,3015.000,3011.000
1203.874,3014.000,3017.000,3017.000
1205.608,3012.000,3010.000,3014.000
1207.342,3013.000,3016.000,3020.000
1209.075,3009.000,3014.000,3011.000
1210.809,3009.000,3010.000,3013.000
1212.541,3011.000,3015.000,3009.000
1214.273,3015.000,3017.000,3013.000
1216.003,3015.000,3019.000,3010.000
1217.735,3010.000,3013.000,3015.000
1219.467,3015.000,3012.000,3014.000
1221.197,3012.000,3015.000,3014.000
1222.927,3013.000,3014.000,3012.000
1224.658,3011.000,3017.000,3014.000
1226.388,3015.000,3015.000,3010.000
1228.117,3016.000,3016.000,3016.000
1229.847,3013.000,3019.000,3012.000
1231.576,3013.000,3017.000,3011.000
1233.302,3015.000,3021.000,3014.000
1235.031,3018.000,3022.000,3012.000
1236.761,3016.000,3015.000,3014.000
1238.486,3018.000,3017.000,3015.000
1240.214,3017.000,3012.000,3016.000
1241.940,3017.000,3017.000,3015.000
1243.667,3017.000,3015.000,3017.000
1245.393,3018.000,3012.000,3012.000
1247.120,3017.000,3017.000,3015.000
1248.845,3015.000,3016.000,3014.000
1250.568,3016.000,3018.000,3017.000
1252.293,3017.000,3013.000,3018.000
1254.020,3018.000,3011.000,3018.000
1255.741,3018.000,3011.000,3020.000
1257.465,3014.000,3013.000,3020.000
1259.190,3012.000,3010.000,3015.000
1260.913,3017.000,3010.000,3014.000
1262.635,3016.000,3013.000,3019.000
1264.357,3018.000,3014.000,3015.000
1266.080,3016.000,3012.000,3018.000
1267.800,3013.000,3011.000,3016.000
1269.521,3018.000,3014.000,3015.000
1271.244,3016.000,3015.000,3014.000
1272.964,3015.000,3014.000,3016.000
1274.683,3013.000,3011.000,3017.000
1276.404,3015.000,3012.000,3017.000
1278.123,3012.000,3019.000,3015.000
1279.843,3013.000,3017.000,3015.000
1281.562,3016.000,3015.000,3012.000
1283.281,3017.000,3016.000,3014.000
1284.998,3013.000,3016.000,3018.000
1286.716,3015.000,3017.000,3017.000
1288.435,3014.000,3012.000,3013.000
1290.151,3013.000,3015.000,3013.000
1291.869,3013.000,3018.000,3014.000
1293.584,3010.000,3015.000,3013.000
1295.302,3011.000,3012.000,3015.000
1297.018,3015.000,3017.000,3015.000
1298.734,3010.000,3010.000,3015.000
1300.448,3011.000,3011.000,3014.000
1302.162,3012.000,3015.000,3012.000
1303.877,3016.000,3014.000,3010.000
1305.593,3016.000,3013.000,3012.000
1307.305,3013.000,3016.000,3013.000
1309.019,3015.000,3013.000,3012.000
1310.732,3013.000,3013.000,3011.000
1312.445,3014.000,3016.000,3012.000
1314.157,3013.000,3017.000,3014.000
1315.870,3014.000,3015.000,3011.000
1317.582,3011.000,3017.000,3013.000
1319.292,3015.000,3016.000,3012.000
1321.004,3013.000,3021.000,3011.000
1322.716,3017.000,3016.000,3011.000
1324.425,3010.000,3012.000,3009.000
1326.135,3016.000,3013.000,3010.000
1327.845,3012.000,3013.000,3011.000
1329.556,3013.000,3013.000,3012.000
1331.265,3017.000,3013.000,3010.000
1332.974,3021.000,3012.000,3016.000
1334.683,3017.000,3012.000,3013.000
1336.389,3017.000,3013.000,3012.000
1338.097,3017.000,3013.000,3013.000
1339.807,3013.000,3013.000,3012.000
1341.513,3015.000,3015.000,3015.000
1343.219,3017.000,3016.000,3014.000
1344.926,3022.000,3019.000,3016.000
1346.633,3012.000,3017.000,3016.000
1348.338,3015.000,3017.000,3014.000
1350.044,3016.000,3015.000,3016.000
1351.749,3017.000,3013.000,3016.000
1353.452,3012.000,3014.000,3015.000
1355.158,3013.000,3011.000,3014.000
1356.863,3011.000,3011.000,3017.000
1358.566,3009.000,3014.000,3018.000
1360.269,3011.000,3013.000,3019.000
1361.973,3011.000,3013.000,3014.000
1363.676,3013.000,3017.000,3020.000
1365.379,3014.000,3016.000,3016.000
1367.081,3012.000,3013.000,3017.000
1368.783,3015.000,3016.000,3012.000
1370.483,3016.000,3015.000,3017.000
1372.185,3012.000,3014.000,3013.000
1373.888,3016.000,3018.000,3017.000
1375.586,3011.000,3016.000,3013.000
1377.286,3016.000,3018.000,3012.000
1378.987,3017.000,3013.000,3015.000
1380.686,3017.000,3013.000,3011.000
1382.386,3020.000,3019.000,3017.000
1384.085,3016.000,3012.000,3014.000
1385.783,3023.000,3013.000,3012.000
1387.480,3017.000,3013.000,3012.000
1389.178,3014.000,3012.000,3016.000
1390.877,3015.000,3012.000,3017.000
1392.574,3011.000,3016.000,3017.000
1394.270,3012.000,3018.000,3018.000
1395.967,3013.000,3015.000,3016.000
1397.663,3011.000,3012.000,3016.000
1399.359,3011.000,3016.000,3020.000
1401.056,3008.000,3014.000,3014.000
1402.751,3010.000,3018.000,3014.000
1404.443,3014.000,3014.000,3017.000
1406.138,3016.000,3015.000,3012.000
1407.834,3016.000,3016.000,3016.000
1409.527,3017.000,3011.000,3015.000
1411.221,3017.000,3018.000,3014.000
1412.915,3017.000,3019.000,3013.000
1414.608,3015.000,3017.000,3013.000
1416.300,3016.000,3012.000,3013.000
1417.993,3016.000,3016.000,3014.000
1419.684,3015.000,3016.000,3013.000
1421.375,3011.000,3015.000,3012.000
1423.066,3014.000,3013.000,3017.000
1424.759,3013.000,3015.000,3014.000
1426.448,3011.000,3010.000,3014.000
1428.138,3011.000,3012.000,3019.000
1429.829,3013.000,3018.000,3015.000
1431.518,3015.000,3011.000,3017.000
1433.208,3015.000,3014.000,3013.000
1434.898,3017.000,3016.000,3012.000
1436.586,3015.000,3014.000,3017.000
1438.272,3012.000,3010.000,3017.000
1439.960,3017.000,3014.000,3011.000
1441.651,3021.000,3014.000,3012.000
1443.336,3018.000,3015.000,3015.000
1445.023,3014.000,3011.000,3012.000
1446.710,3019.000,3015.000,3013.000
1448.397,3017.000,3013.000,3010.000
1450.082,3012.000,3015.000,3011.000
1451.768,3011.000,3017.000,3019.000
1453.454,3012.000,3019.000,3017.000
1455.137,3012.000,3014.000,3013.000
1456.822,3012.000,3010.000,3018.000
1458.509,3013.000,3015.000,3017.000
1460.191,3015.000,3019.000,3015.000
1461.876,3016.000,3011.000,3017.000
1463.559,3013.000,3014.000,3012.000
1465.242,3015.000,3017.000,3013.000
1466.923,3010.000,3016.000,3014.000
1468.608,3011.000,3020.000,3014.000
1470.290,3015.000,3016.000,3012.000
1471.970,3015.000,3015.000,3015.000
1473.652,3019.000,3021.000,3017.000
1475.334,3017.000,3019.000,3013.000
1477.014,3016.000,3018.000,3016.000
1478.694,3016.000,3017.000,3009.000
1480.375,3016.000,3017.000,3019.000
1482.055,3017.000,3017.000,3016.000
1483.733,3015.000,3019.000,3015.000
1485.414,3015.000,3020.000,3020.000
1487.092,3018.000,3019.000,3016.000
1488.770,3015.000,3018.000,3020.000
1490.449,3015.000,3021.000,3017.000
1492.128,3013.000,3016.000,3019.000
1493.804,3011.000,3017.000,3018.000
1495.481,3016.000,3012.000,3015.000
1497.159,3015.000,3016.000,3014.000
1498.835,3012.000,3021.000,3014.000
1500.509,3014.000,3017.000,3018.000
1502.188,3013.000,3016.000,3013.000
1503.863,3014.000,3015.000,3013.000
1505.537,3011.000,3012.000,3014.000
1507.212,3013.000,3015.000,3012.000
1508.889,3016.000,3011.000,3013.000
1510.562,3015.000,3013.000,3012.000
1512.236,3013.000,3016.000,3019.000
1513.910,3015.000,3018.000,3015.000
1515.583,3010.000,3014.000,3014.000
1517.254,3018.000,3014.000,3013.000
1518.928,3015.000,3014.000,3012.000
1520.601,3015.000,3015.000,3013.000
1522.272,3014.000,3016.000,3010.000
1523.944,3018.000,3017.000,3019.000
1525.616,3016.000,3011.000,3016.000
1527.286,3014.000,3014.000,3016.000
1528.958,3013.000,3015.000,3015.000
1530.628,3018.000,3014.000,3016.000
1532.298,3016.000,3014.000,3018.000
1533.966,3015.000,3013.000,3014.000
1535.638,3017.000,3014.000,3019.000
1537.307,3016.000,3010.000,3017.000
1538.974,3020.000,3017.000,3019.000
1540.642,3019.000,3013.000,3017.000
1542.313,3018.000,3014.000,3021.000
1543.979,3019.000,3018.000,3017.000
1545.647,3016.000,3014.000,3017.000
1547.314,3018.000,3015.000,3021.000
1548.979,3014.000,3018.000,3015.000
1550.646,3019.000,3018.000,3017.000
1552.314,3016.000,3015.000,3013.000
1553.980,3017.000,3015.000,3010.000
1555.644,3019.000,3018.000,3014.000
1557.309,3015.000,3016.000,3010.000
1558.976,3014.000,3017.000,3015.000
1560.639,3017.000,3017.000,3014.000
1562.304,3014.000,3016.000,3010.000
1563.968,3015.000,3017.000,3014.000
1565.630,3014.000,3012.000,3012.000
1567.293,3015.000,3016.000,3013.000
1568.958,3015.000,3013.000,3012.000
1570.621,3014.000,3018.000,3015.000
1572.282,3013.000,3013.000,3011.000
1573.944,3011.000,3013.000,3016.000
1575.608,3016.000,3012.000,3014.000
1577.268,3013.000,3009.000,3014.000
1578.929,3014.000,3013.000,3015.000
1580.590,3012.000,3016.000,3018.000
1582.249,3012.000,3012.000,3012.000
1583.909,3017.000,3012.000,3013.000
1585.570,3014.000,3015.000,3015.000
1587.230,3014.000,3017.000,3012.000
1588.888,3014.000,3015.000,3014.000
1590.547,3015.000,3015.000,3013.000
1592.207,3016.000,3018.000,3015.000
1593.864,3015.000,3020.000,3015.000
1595.522,3014.000,3014.000,3014.000
1597.179,3012.000,3015.000,3016.000
1598.835,3015.000,3015.000,3016.000
1600.493,3011.000,3011.000,3016.000
1602.150,3011.000,3018.000,3016.000
1603.807,3014.000,3017.000,3015.000
1605.461,3013.000,3016.000,3014.000
1607.118,3014.000,3010.000,3017.000
1608.774,3013.000,3013.000,3016.000
1610.429,3011.000,3012.000,3018.000
1612.083,3012.000,3014.000,3021.000
1613.737,3015.000,3014.000,3018.000
1615.390,3013.000,3012.000,3022.000
1617.043,3015.000,3014.000,3013.000
1618.699,3015.000,3016.000,3019.000
1620.352,3013.000,3014.000,3016.000
1622.004,3015.000,3022.000,3021.000
1623.656,3013.000,3018.000,3016.000
1625.309,3014.000,3019.000,3019.000
1626.961,3014.000,3015.000,3020.000
1628.613,3014.000,3015.000,3019.000
1630.263,3019.000,3010.000,3018.000
1631.913,3018.000,3016.000,3015.000
1633.564,3015.000,3015.000,3021.000
1635.216,3020.000,3016.000,3017.000
1636.865,3020.000,3015.000,3016.000
1638.514,3018.000,3015.000,3018.000
1640.163,3020.000,3014.000,3014.000
1641.812,3013.000,3018.000,3015.000
1643.461,3015.000,3015.000,3015.000
1645.110,3015.000,3015.000,3013.000
1646.758,3016.000,3014.000,3015.000
1648.403,3019.000,3015.000,3009.000
1650.052,3017.000,3015.000,3015.000
1651.700,3017.000,3018.000,3013.000
1653.347,3022.000,3019.000,3016.000
1654.992,3013.000,3018.000,3016.000
1656.638,3015.000,3016.000,3015.000
1658.285,3012.000,3019.000,3012.000
1659.930,3017.000,3017.000,3015.000
1661.576,3015.000,3012.000,3015.000
1663.221,3013.000,3013.000,3020.000
1664.863,3019.000,3014.000,3021.000
1666.508,3016.000,3017.000,3018.000
1668.153,3019.000,3010.000,3015.000
1669.797,3018.000,3013.000,3011.000
1671.438,3017.000,3011.000,3016.000
1673.082,3016.000,3014.000,3020.000
1674.725,3016.000,3015.000,3022.000
1676.367,3016.000,3014.000,3017.000
1678.010,3016.000,3015.000,3018.000
1679.651,3020.000,3020.000,3019.000
1681.291,3012.000,3019.000,3017.000
1682.932,3015.000,3020.000,3016.000
1684.575,3013.000,3019.000,3012.000
1686.216,3016.000,3019.000,3017.000
1687.854,3016.000,3019.000,3013.000
1689.494,3014.000,3018.000,3015.000
1691.133,3013.000,3019.000,3012.000
1692.773,3016.000,3015.000,3015.000
1694.412,3019.000,3014.000,3013.000
1696.051,3017.000,3020.000,3016.000
1697.688,3017.000,3016.000,3014.000
1699.326,3017.000,3015.000,3014.000
1700.965,3016.000,3016.000,3015.000
1702.603,3019.000,3013.000,3014.000
1704.238,3016.000,3009.000,3017.000
1705.875,3019.000,3012.000,3021.000
1707.511,3019.000,3015.000,3016.000
1709.148,3015.000,3016.000,3014.000
1710.783,3014.000,3008.000,3017.000
1712.419,3015.000,3014.000,3017.000
1714.052,3011.000,3015.000,3014.000
1715.688,3016.000,3012.000,3013.000
1717.323,3017.000,3014.000,3014.000
1718.958,3015.000,3019.000,3011.000
1720.590,3014.000,3020.000,3018.000
1722.225,3018.000,3015.000,3012.000
1723.858,3016.000,3019.000,3017.000
1725.491,3020.000,3015.000,3015.000
1727.123,3016.000,3017.000,3015.000
1728.755,3023.000,3019.000,3017.000
1730.386,3017.000,3016.000,3015.000
1732.019,3014.000,3016.000,3019.000
1733.652,3016.000,3019.000,3016.000
1735.283,3017.000,3014.000,3019.000
1736.911,3016.000,3020.000,3014.000
1738.542,3012.000,3014.000,3015.000
1740.172,3013.000,3024.000,3015.000
1741.802,3012.000,3020.000,3015.000
1743.432,3011.000,3017.000,3017.000
1745.062,3020.000,3018.000,3014.000
1746.689,3016.000,3020.000,3016.000
1748.318,3015.000,3017.000,3015.000
1749.948,3017.000,3018.000,3016.000
1751.576,3013.000,3022.000,3019.000
1753.201,3018.000,3018.000,3014.000
1754.829,3023.000,3017.000,3015.000
1756.456,3015.000,3021.000,3020.000
1758.083,3023.000,3015.000,3017.000
1759.710,3018.000,3018.000,3015.000
1761.337,3016.000,3015.000,3016.000
1762.961,3017.000,3016.000,3019.000
1764.586,3015.000,3016.000,3016.000
1766.213,3016.000,3017.000,3016.000
1767.838,3014.000,3017.000,3016.000
1769.461,3014.000,3017.000,3016.000
1771.085,3015.000,3018.000,3020.000
1772.709,3012.000,3017.000,3018.000
1774.333,3011.000,3014.000,3011.000
1775.956,3017.000,3018.000,3013.000
1777.580,3019.000,3018.000,3016.000
1779.201,3018.000,3016.000,3015.000
1780.823,3011.000,3016.000,3016.000
1782.447,3021.000,3013.000,3018.000
1784.069,3020.000,3020.000,3019.000
1785.688,3014.000,3012.000,3020.000
1787.310,3019.000,3019.000,3016.000
1788.930,3016.000,3014.000,3017.000
1790.552,3018.000,3014.000,3019.000
1792.171,3013.000,3017.000,3014.000
1793.792,3018.000,3015.000,3017.000
1795.410,3016.000,3013.000,3019.000
1797.030,3021.000,3012.000,3016.000
1798.650,3023.000,3017.000,3015.000
1800.269,3022.000,3012.000,3015.000
1801.886,3020.000,3015.000,3023.000
1803.505,3020.000,3015.000,3016.000
1805.122,3019.000,3012.000,3010.000
1806.740,3021.000,3016.000,3014.000
1808.357,3017.000,3017.000,3015.000
1809.974,3018.000,3015.000,3013.000
1811.588,3020.000,3013.000,3019.000
1813.205,3014.000,3013.000,3014.000
1814.822,3016.000,3019.000,3017.000
1816.438,3013.000,3015.000,3014.000
1818.052,3018.000,3015.000,3014.000
1819.668,3015.000,3016.000,3014.000
1821.282,3018.000,3016.000,3019.000
1822.897,3012.000,3019.000,3016.000
1824.511,3017.000,3018.000,3015.000
1826.124,3016.000,3018.000,3019.000
1827.736,3023.000,3013.000,3019.000
1829.350,3017.000,3018.000,3014.000
1830.965,3014.000,3019.000,3017.000
1832.577,3013.000,3020.000,3017.000
1834.188,3016.000,3019.000,3014.000
