41.001,3056.000,3051.000,3063.000
42.970,3071.000,3058.000,3067.000
44.940,3072.000,3059.000,3064.000
46.910,3069.000,3063.000,3062.000
48.875,3079.000,3077.000,3083.000
50.845,3074.000,3069.000,3067.000
52.814,3055.000,3051.000,3057.000
54.780,3055.000,3048.000,3046.000
56.747,3051.000,3048.000,3056.000
58.716,3055.000,3044.000,3052.000
60.682,3050.000,3049.000,3049.000
62.645,3054.000,3047.000,3037.000
64.611,3050.000,3035.000,3039.000
66.577,3042.000,3044.000,3043.000
68.540,3045.000,3049.000,3042.000
70.505,3037.000,3043.000,3032.000
72.470,3037.000,3043.000,3043.000
74.431,3044.000,3046.000,3040.000
76.394,3039.000,3043.000,3042.000
78.358,3039.000,3047.000,3047.000
80.320,3040.000,3045.000,3045.000
82.281,3041.000,3046.000,3041.000
84.243,3040.000,3041.000,3038.000
86.205,3045.000,3048.000,3045.000
88.162,3043.000,3038.000,3041.000
90.124,3045.000,3036.000,3047.000
92.084,3044.000,3034.000,3046.000
94.043,3045.000,3042.000,3044.000
96.001,3045.000,3043.000,3052.000
97.961,3047.000,3043.000,3046.000
99.920,3050.000,3037.000,3051.000
101.873,3037.000,3033.000,3039.000
103.832,3039.000,3037.000,3042.000
105.790,3040.000,3035.000,3046.000
107.744,3038.000,3038.000,3045.000
109.701,3040.000,3040.000,3044.000
111.658,3047.000,3045.000,3039.000
113.614,3045.000,3039.000,3038.000
115.565,3046.000,3047.000,3035.000
117.521,3044.000,3039.000,3040.000
119.475,3046.000,3040.000,3042.000
121.428,3043.000,3032.000,3047.000
123.382,3042.000,3046.000,3048.000
125.336,3047.000,3042.000,3045.000
127.285,3044.000,3040.000,3035.000
129.237,3041.000,3038.000,3039.000
131.189,3042.000,3036.000,3043.000
133.141,3043.000,3039.000,3043.000
135.091,3040.000,3035.000,3047.000
137.042,3041.000,3041.000,3045.000
138.992,3044.000,3039.000,3043.000
140.939,3044.000,3045.000,3039.000
142.889,3037.000,3043.000,3037.000
144.839,3040.000,3039.000,3044.000
146.785,3054.000,3044.000,3044.000
148.734,3043.000,3048.000,3040.000
150.682,3047.000,3042.000,3042.000
152.630,3044.000,3043.000,3049.000
154.573,3039.000,3045.000,3041.000
156.520,3045.000,3039.000,3043.000
158.468,3041.000,3046.000,3044.000
160.412,3040.000,3039.000,3038.000
162.357,3046.000,3041.000,3044.000
164.302,3042.000,3044.000,3045.000
166.243,3038.000,3040.000,3048.000
168.188,3036.000,3043.000,3049.000
170.132,3042.000,3053.000,3037.000
172.077,3038.000,3043.000,3040.000
174.017,3047.000,3044.000,3046.000
175.960,3038.000,3043.000,3047.000
177.903,3044.000,3054.000,3046.000
179.841,3041.000,3043.000,3042.000
181.783,3040.000,3053.000,3039.000
183.724,3041.000,3037.000,3037.000
185.663,3042.000,3042.000,3044.000
187.604,3043.000,3046.000,3050.000
189.543,3047.000,3046.000,3045.000
191.484,3037.000,3046.000,3050.000
193.419,3051.000,3047.000,3039.000
195.357,3040.000,3046.000,3040.000
197.297,3049.000,3053.000,3052.000
199.233,3051.000,3042.000,3048.000
201.170,3045.000,3049.000,3041.000
203.107,3051.000,3050.000,3051.000
205.042,3047.000,3045.000,3038.000
206.977,3044.000,3046.000,3038.000
208.913,3047.000,3044.000,3041.000
210.849,3043.000,3038.000,3040.000
212.782,3041.000,3043.000,3048.000
214.717,3051.000,3040.000,3040.000
216.651,3039.000,3043.000,3037.000
218.581,3047.000,3035.000,3047.000
220.515,3038.000,3042.000,3041.000
222.448,3046.000,3048.000,3048.000
224.378,3047.000,3041.000,3041.000
226.312,3050.000,3038.000,3047.000
228.243,3057.000,3039.000,3045.000
230.176,3037.000,3042.000,3040.000
232.103,3044.000,3042.000,3044.000
234.034,3051.000,3044.000,3044.000
235.964,3044.000,3034.000,3045.000
237.892,3043.000,3042.000,3044.000
239.822,3047.000,3043.000,3047.000
241.751,3043.000,3044.000,3043.000
243.678,3048.000,3046.000,3047.000
245.604,3043.000,3046.000,3042.000
247.532,3050.000,3040.000,3042.000
249.460,3050.000,3045.000,3047.000
251.386,3043.000,3049.000,3043.000
253.312,3048.000,3052.000,3046.000
255.239,3040.000,3049.000,3045.000
257.162,3050.000,3049.000,3046.000
259.086,3051.000,3049.000,3042.000
261.012,3057.000,3047.000,3045.000
262.934,3047.000,3048.000,3047.000
264.858,3048.000,3045.000,3047.000
266.783,3057.000,3049.000,3047.000
268.707,3051.000,3048.000,3046.000
270.626,3052.000,3047.000,3052.000
272.549,3054.000,3046.000,3053.000
274.471,3051.000,3045.000,3053.000
276.392,3042.000,3049.000,3047.000
278.312,3045.000,3046.000,3055.000
280.234,3052.000,3052.000,3051.000
282.153,3049.000,3049.000,3052.000
284.072,3052.000,3049.000,3054.000
285.991,3053.000,3059.000,3051.000
287.911,3047.000,3052.000,3056.000
289.828,3055.000,3046.000,3048.000
291.747,3053.000,3056.000,3054.000
293.665,3051.000,3049.000,3051.000
295.582,3052.000,3048.000,3046.000
297.498,3057.000,3048.000,3055.000
299.415,3051.000,3049.000,3053.000
301.330,3055.000,3052.000,3046.000
303.246,3049.000,3044.000,3037.000
305.163,3052.000,3047.000,3049.000
307.079,3059.000,3051.000,3051.000
308.991,3054.000,3051.000,3042.000
310.904,3051.000,3040.000,3049.000
312.819,3046.000,3048.000,3052.000
314.731,3052.000,3053.000,3046.000
316.645,3052.000,3044.000,3051.000
318.558,3052.000,3046.000,3052.000
320.469,3054.000,3052.000,3044.000
322.379,3048.000,3053.000,3051.000
324.292,3049.000,3053.000,3045.000
326.203,3047.000,3053.000,3062.000
328.113,3051.000,3056.000,3056.000
330.024,3053.000,3051.000,3047.000
331.935,3049.000,3055.000,3051.000
333.843,3051.000,3053.000,3053.000
335.751,3054.000,3053.000,3060.000
337.660,3051.000,3045.000,3044.000
339.567,3059.000,3058.000,3048.000
341.475,3054.000,3058.000,3047.000
343.383,3049.000,3058.000,3053.000
345.291,3062.000,3051.000,3053.000
347.197,3055.000,3053.000,3046.000
349.101,3062.000,3049.000,3041.000
351.008,3062.000,3057.000,3054.000
352.913,3061.000,3059.000,3046.000
354.818,3058.000,3058.000,3054.000
356.724,3062.000,3048.000,3050.000
358.626,3053.000,3048.000,3060.000
360.530,3067.000,3056.000,3043.000
362.433,3058.000,3056.000,3054.000
364.338,3060.000,3060.000,3050.000
366.239,3052.000,3050.000,3055.000
368.142,3062.000,3061.000,3059.000
370.044,3059.000,3047.000,3053.000
371.945,3060.000,3042.000,3058.000
373.845,3051.000,3054.000,3057.000
375.746,3054.000,3059.000,3057.000
377.645,3060.000,3060.000,3061.000
379.546,3051.000,3054.000,3055.000
381.446,3055.000,3046.000,3052.000
383.347,3048.000,3054.000,3058.000
385.245,3057.000,3054.000,3059.000
387.141,3058.000,3058.000,3062.000
389.040,3053.000,3052.000,3057.000
390.936,3045.000,3064.000,3053.000
392.834,3055.000,3058.000,3048.000
394.732,3065.000,3048.000,3051.000
396.627,3051.000,3055.000,3043.000
398.524,3056.000,3054.000,3057.000
400.418,3050.000,3053.000,3055.000
402.315,3060.000,3058.000,3054.000
404.207,3059.000,3063.000,3056.000
406.103,3059.000,3055.000,3055.000
407.998,3054.000,3062.000,3051.000
409.891,3064.000,3050.000,3054.000
411.783,3058.000,3050.000,3046.000
413.677,3055.000,3063.000,3057.000
415.567,3054.000,3051.000,3057.000
417.460,3060.000,3064.000,3059.000
419.353,3056.000,3053.000,3051.000
421.245,3055.000,3049.000,3059.000
423.135,3064.000,3063.000,3050.000
425.024,3051.000,3058.000,3059.000
426.915,3053.000,3047.000,3062.000
428.804,3051.000,3061.000,3053.000
430.694,3053.000,3059.000,3070.000
432.584,3062.000,3055.000,3056.000
434.471,3064.000,3064.000,3059.000
436.360,3056.000,3059.000,3050.000
438.247,3058.000,3058.000,3061.000
440.136,3054.000,3056.000,3059.000
442.022,3062.000,3055.000,3065.000
443.909,3061.000,3061.000,3061.000
445.796,3057.000,3056.000,3052.000
447.680,3056.000,3063.000,3059.000
449.564,3066.000,3057.000,3055.000
451.450,3060.000,3059.000,3058.000
453.334,3058.000,3068.000,3056.000
455.220,3057.000,3067.000,3060.000
457.104,3057.000,3067.000,3051.000
458.988,3060.000,3061.000,3055.000
460.870,3053.000,3058.000,3052.000
462.752,3056.000,3065.000,3059.000
464.635,3059.000,3057.000,3059.000
466.515,3068.000,3056.000,3069.000
468.398,3054.000,3056.000,3064.000
470.280,3058.000,3053.000,3067.000
472.160,3055.000,3063.000,3054.000
474.042,3057.000,3067.000,3070.000
475.920,3055.000,3051.000,3053.000
477.801,3056.000,3061.000,3061.000
479.678,3068.000,3066.000,3061.000
481.558,3056.000,3062.000,3064.000
483.437,3056.000,3052.000,3058.000
485.315,3060.000,3060.000,3061.000
487.193,3053.000,3060.000,3067.000
489.070,3059.000,3059.000,3064.000
490.945,3058.000,3058.000,3053.000
492.823,3055.000,3056.000,3056.000
494.699,3063.000,3061.000,3071.000
496.576,3065.000,3059.000,3059.000
498.450,3071.000,3051.000,3067.000
500.325,3059.000,3055.000,3061.000
502.200,3076.000,3050.000,3067.000
504.073,3067.000,3053.000,3063.000
505.948,3066.000,3057.000,3063.000
507.823,3063.000,3064.000,3056.000
509.695,3062.000,3058.000,3053.000
511.568,3061.000,3067.000,3065.000
513.439,3065.000,3063.000,3075.000
515.312,3066.000,3063.000,3064.000
517.183,3056.000,3053.000,3052.000
519.055,3068.000,3063.000,3058.000
520.927,3062.000,3067.000,3061.000
522.795,3063.000,3054.000,3056.000
524.666,3052.000,3065.000,3053.000
526.534,3064.000,3060.000,3059.000
528.403,3059.000,3068.000,3050.000
530.272,3058.000,3060.000,3059.000
532.142,3062.000,3063.000,3065.000
534.011,3065.000,3064.000,3067.000
535.878,3063.000,3071.000,3054.000
537.746,3068.000,3069.000,3064.000
539.611,3064.000,3062.000,3072.000
541.477,3060.000,3066.000,3061.000
543.345,3059.000,3066.000,3063.000
545.211,3064.000,3061.000,3051.000
547.076,3067.000,3065.000,3068.000
548.941,3069.000,3060.000,3063.000
550.805,3075.000,3060.000,3065.000
552.670,3063.000,3073.000,3063.000
554.532,3072.000,3064.000,3065.000
556.397,3061.000,3069.000,3059.000
558.261,3066.000,3066.000,3062.000
560.123,3057.000,3063.000,3056.000
561.986,3072.000,3062.000,3066.000
563.847,3076.000,3071.000,3074.000
565.707,3072.000,3063.000,3058.000
567.570,3065.000,3066.000,3063.000
569.431,3066.000,3061.000,3064.000
571.293,3080.000,3058.000,3068.000
573.152,3070.000,3067.000,3068.000
575.012,3072.000,3063.000,3076.000
576.871,3073.000,3060.000,3059.000
578.728,3068.000,3069.000,3065.000
580.588,3065.000,3066.000,3080.000
582.448,3061.000,3063.000,3070.000
584.304,3065.000,3069.000,3071.000
586.162,3070.000,3067.000,3063.000
588.020,3068.000,3057.000,3067.000
589.876,3063.000,3061.000,3066.000
591.730,3066.000,3067.000,3062.000
593.587,3066.000,3068.000,3078.000
595.444,3059.000,3067.000,3069.000
597.299,3065.000,3066.000,3062.000
599.154,3065.000,3076.000,3065.000
601.008,3078.000,3062.000,3057.000
602.862,3073.000,3059.000,3066.000
604.714,3064.000,3071.000,3071.000
606.569,3075.000,3074.000,3069.000
608.422,3076.000,3060.000,3064.000
610.274,3065.000,3061.000,3060.000
612.128,3066.000,3074.000,3060.000
613.977,3068.000,3076.000,3081.000
615.828,3067.000,3074.000,3067.000
617.679,3074.000,3068.000,3076.000
619.532,3068.000,3071.000,3064.000
621.383,3069.000,3072.000,3072.000
623.231,3068.000,3074.000,3071.000
625.082,3068.000,3075.000,3065.000
626.930,3070.000,3070.000,3069.000
628.777,3071.000,3068.000,3073.000
630.627,3071.000,3081.000,3071.000
632.476,3071.000,3082.000,3066.000
634.322,3074.000,3074.000,3075.000
636.171,3080.000,3066.000,3070.000
638.018,3073.000,3073.000,3075.000
639.864,3067.000,3067.000,3071.000
641.709,3069.000,3069.000,3079.000
643.555,3067.000,3072.000,3069.000
645.401,3072.000,3073.000,3074.000
647.245,3074.000,3070.000,3081.000
649.091,3065.000,3081.000,3079.000
650.933,3060.000,3068.000,3071.000
652.776,3067.000,3078.000,3073.000
654.622,3075.000,3072.000,3066.000
656.466,3083.000,3084.000,3076.000
658.308,3072.000,3070.000,3064.000
660.150,3074.000,3074.000,3071.000
661.993,3065.000,3072.000,3079.000
663.833,3066.000,3076.000,3073.000
665.674,3071.000,3068.000,3073.000
667.516,3072.000,3077.000,3072.000
669.357,3067.000,3070.000,3075.000
671.196,3076.000,3083.000,3081.000
673.036,3078.000,3074.000,3071.000
674.877,3079.000,3071.000,3082.000
676.715,3082.000,3071.000,3086.000
678.552,3072.000,3082.000,3075.000
680.391,3079.000,3075.000,3082.000
682.231,3077.000,3076.000,3069.000
684.066,3077.000,3073.000,3076.000
685.905,3072.000,3088.000,3081.000
687.743,3071.000,3076.000,3079.000
689.575,3068.000,3071.000,3078.000
691.412,3065.000,3082.000,3073.000
693.249,3083.000,3081.000,3074.000
695.085,3072.000,3087.000,3073.000
696.919,3074.000,3075.000,3076.000
698.755,3075.000,3074.000,3075.000
700.588,3070.000,3079.000,3073.000
702.420,3076.000,3078.000,3076.000
704.255,3077.000,3078.000,3075.000
706.089,3084.000,3082.000,3090.000
707.920,3082.000,3083.000,3064.000
709.753,3079.000,3079.000,3076.000
711.586,3070.000,3080.000,3078.000
713.417,3071.000,3080.000,3059.000
715.247,3087.000,3076.000,3067.000
717.078,3067.000,3078.000,3075.000
718.910,3072.000,3073.000,3072.000
720.738,3070.000,3085.000,3072.000
722.570,3068.000,3078.000,3073.000
724.400,3070.000,3093.000,3078.000
726.225,3076.000,3086.000,3079.000
728.055,3073.000,3083.000,3075.000
729.884,3077.000,3086.000,3085.000
731.713,3071.000,3085.000,3071.000
733.539,3074.000,3078.000,3075.000
735.367,3084.000,3079.000,3079.000
737.193,3061.000,3071.000,3080.000
739.018,3073.000,3083.000,3074.000
740.846,3076.000,3082.000,3077.000
742.672,3080.000,3066.000,3071.000
744.496,3082.000,3094.000,3075.000
746.322,3082.000,3076.000,3077.000
748.147,3084.000,3078.000,3086.000
749.970,3072.000,3080.000,3083.000
751.793,3078.000,3080.000,3080.000
753.618,3072.000,3065.000,3070.000
755.441,3078.000,3083.000,3075.000
757.263,3073.000,3072.000,3079.000
759.086,3076.000,3071.000,3068.000
760.909,3079.000,3073.000,3076.000
762.727,3078.000,3078.000,3086.000
764.549,3075.000,3087.000,3070.000
766.371,3083.000,3078.000,3062.000
768.193,3076.000,3079.000,3080.000
770.011,3089.000,3073.000,3078.000
771.832,3072.000,3071.000,3076.000
773.650,3072.000,3069.000,3077.000
775.469,3086.000,3086.000,3082.000
777.288,3076.000,3080.000,3077.000
779.107,3082.000,3082.000,3080.000
780.924,3079.000,3078.000,3079.000
782.742,3074.000,3085.000,3085.000
784.561,3078.000,3087.000,3086.000
786.376,3082.000,3085.000,3084.000
788.192,3078.000,3084.000,3075.000
790.009,3074.000,3078.000,3078.000
791.825,3078.000,3090.000,3076.000
793.640,3071.000,3079.000,3093.000
795.455,3085.000,3085.000,3080.000
797.271,3076.000,3087.000,3073.000
799.082,3082.000,3075.000,3076.000
800.897,3080.000,3091.000,3079.000
802.711,3082.000,3079.000,3079.000
804.525,3088.000,3092.000,3075.000
806.337,3086.000,3093.000,3080.000
808.150,3083.000,3081.000,3075.000
809.964,3080.000,3077.000,3075.000
811.772,3085.000,3079.000,3075.000
813.584,3084.000,3078.000,3081.000
815.396,3081.000,3074.000,3077.000
817.206,3084.000,3086.000,3080.000
819.016,3076.000,3079.000,3082.000
820.828,3069.000,3077.000,3080.000
822.636,3080.000,3072.000,3076.000
824.444,3069.000,3069.000,3073.000
826.254,3077.000,3082.000,3078.000
828.063,3086.000,3083.000,3082.000
829.870,3081.000,3087.000,3068.000
831.679,3086.000,3081.000,3075.000
833.487,3079.000,3084.000,3079.000
835.290,3093.000,3083.000,3070.000
837.098,3072.000,3081.000,3082.000
838.905,3083.000,3076.000,3086.000
840.711,3095.000,3075.000,3081.000
842.516,3079.000,3081.000,3080.000
844.323,3079.000,3078.000,3081.000
846.128,3085.000,3079.000,3077.000
847.929,3079.000,3079.000,3082.000
849.735,3082.000,3082.000,3083.000
851.539,3082.000,3085.000,3075.000
853.341,3082.000,3081.000,3079.000
855.145,3081.000,3079.000,3070.000
856.948,3087.000,3080.000,3077.000
858.751,3074.000,3072.000,3081.000
860.551,3073.000,3085.000,3074.000
862.353,3079.000,3086.000,3076.000
864.155,3077.000,3080.000,3075.000
865.955,3074.000,3086.000,3079.000
867.756,3076.000,3076.000,3076.000
869.557,3079.000,3079.000,3079.000
871.353,3081.000,3087.000,3077.000
873.154,3069.000,3085.000,3076.000
874.954,3081.000,3078.000,3085.000
876.754,3078.000,3086.000,3092.000
878.550,3074.000,3077.000,3083.000
880.348,3079.000,3089.000,3078.000
882.147,3069.000,3095.000,3079.000
883.941,3076.000,3081.000,3075.000
885.740,3076.000,3083.000,3088.000
887.537,3090.000,3082.000,3080.000
889.332,3090.000,3089.000,3083.000
891.129,3084.000,3075.000,3070.000
892.925,3081.000,3082.000,3085.000
894.720,3071.000,3096.000,3083.000
896.512,3082.000,3080.000,3074.000
898.307,3081.000,3090.000,3080.000
900.102,3082.000,3080.000,3077.000
901.895,3080.000,3086.000,3071.000
903.689,3075.000,3083.000,3084.000
905.483,3081.000,3074.000,3076.000
907.274,3075.000,3087.000,3072.000
909.065,3076.000,3080.000,3083.000
910.857,3088.000,3083.000,3085.000
912.650,3085.000,3079.000,3082.000
914.440,3079.000,3065.000,3087.000
916.231,3088.000,3086.000,3081.000
918.023,3070.000,3083.000,3086.000
919.810,3080.000,3075.000,3074.000
921.600,3076.000,3086.000,3083.000
923.391,3087.000,3082.000,3089.000
925.178,3090.000,3077.000,3087.000
926.968,3084.000,3097.000,3088.000
928.756,3079.000,3084.000,3086.000
930.546,3081.000,3092.000,3068.000
932.330,3086.000,3078.000,3095.000
934.118,3074.000,3078.000,3077.000
935.905,3094.000,3088.000,3080.000
937.691,3091.000,3078.000,3080.000
939.478,3080.000,3080.000,3089.000
941.264,3089.000,3087.000,3087.000
943.049,3079.000,3082.000,3081.000
944.832,3093.000,3072.000,3073.000
946.618,3087.000,3084.000,3085.000
948.404,3086.000,3078.000,3079.000
950.186,3078.000,3086.000,3084.000
951.971,3079.000,3080.000,3077.000
953.754,3080.000,3074.000,3085.000
955.536,3080.000,3081.000,3069.000
957.318,3081.000,3084.000,3077.000
959.101,3078.000,3079.000,3077.000
960.881,3080.000,3089.000,3072.000
962.663,3070.000,3085.000,3087.000
964.446,3073.000,3089.000,3077.000
966.227,3082.000,3080.000,3088.000
968.005,3086.000,3085.000,3075.000
969.786,3080.000,3075.000,3080.000
971.566,3077.000,3075.000,3083.000
973.345,3081.000,3080.000,3072.000
975.125,3082.000,3080.000,3082.000
976.903,3078.000,3081.000,3084.000
978.681,3086.000,3082.000,3083.000
980.458,3081.000,3082.000,3084.000
982.236,3092.000,3084.000,3081.000
984.014,3089.000,3083.000,3079.000
985.789,3081.000,3078.000,3074.000
987.567,3088.000,3088.000,3082.000
989.343,3083.000,3091.000,3077.000
991.119,3088.000,3085.000,3085.000
992.893,3087.000,3091.000,3087.000
994.668,3079.000,3086.000,3087.000
996.443,3094.000,3084.000,3075.000
998.218,3082.000,3083.000,3089.000
999.992,3084.000,3083.000,3084.000
1001.767,3085.000,3083.000,3088.000
1003.539,3091.000,3077.000,3084.000
1005.311,3082.000,3081.000,3095.000
1007.084,3078.000,3091.000,3087.000
1008.856,3089.000,3082.000,3084.000
1010.629,3080.000,3091.000,3080.000
1012.401,3085.000,3079.000,3083.000
1014.171,3088.000,3075.000,3078.000
1015.941,3086.000,3083.000,3075.000
1017.712,3073.000,3097.000,3091.000
1019.482,3073.000,3094.000,3095.000
1021.252,3078.000,3085.000,3091.000
1023.021,3085.000,3092.000,3095.000
1024.792,3098.000,3090.000,3090.000
1026.559,3078.000,3087.000,3094.000
1028.326,3092.000,3091.000,3081.000
1030.096,3081.000,3080.000,3088.000
1031.862,3087.000,3088.000,3095.000
1033.630,3085.000,3082.000,3083.000
1035.397,3088.000,3079.000,3083.000
1037.166,3089.000,3088.000,3082.000
1038.931,3075.000,3077.000,3090.000
1040.695,3092.000,3084.000,3081.000
1042.461,3085.000,3083.000,3084.000
1044.226,3097.000,3084.000,3092.000
1045.991,3091.000,3083.000,3081.000
1047.757,3089.000,3078.000,3080.000
1049.520,3086.000,3076.000,3084.000
1051.282,3089.000,3098.000,3082.000
1053.047,3076.000,3092.000,3080.000
1054.811,3090.000,3083.000,3084.000
1056.572,3085.000,3080.000,3086.000
1058.336,3081.000,3094.000,3089.000
1060.098,3077.000,3082.000,3086.000
1061.859,3086.000,3084.000,3083.000
1063.619,3083.000,3097.000,3095.000
1065.381,3089.000,3078.000,3087.000
1067.140,3086.000,3090.000,3091.000
1068.902,3082.000,3091.000,3089.000
1070.663,3089.000,3085.000,3091.000
1072.423,3085.000,3098.000,3086.000
1074.181,3089.000,3098.000,3082.000
1075.939,3073.000,3092.000,3093.000
1077.698,3092.000,3085.000,3094.000
1079.456,3093.000,3091.000,3100.000
1081.214,3094.000,3090.000,3086.000
1082.973,3088.000,3100.000,3073.000
1084.728,3086.000,3088.000,3091.000
1086.484,3092.000,3089.000,3079.000
1088.242,3085.000,3091.000,3075.000
1089.999,3099.000,3078.000,3083.000
1091.753,3088.000,3095.000,3079.000
1093.510,3091.000,3088.000,3073.000
1095.265,3082.000,3093.000,3086.000
1097.018,3090.000,3084.000,3079.000
1098.773,3083.000,3087.000,3096.000
1100.527,3086.000,3085.000,3096.000
1102.281,3079.000,3096.000,3092.000
1104.034,3099.000,3091.000,3091.000
1105.788,3080.000,3084.000,3092.000
1107.541,3095.000,3096.000,3095.000
1109.292,3089.000,3086.000,3090.000
1111.043,3098.000,3077.000,3087.000
1112.795,3094.000,3104.000,3084.000
1114.546,3092.000,3087.000,3089.000
1116.298,3091.000,3086.000,3085.000
1118.049,3094.000,3088.000,3077.000
1119.800,3093.000,3097.000,3085.000
1121.548,3092.000,3081.000,3091.000
1123.297,3090.000,3089.000,3079.000
1125.047,3087.000,3095.000,3077.000
1126.795,3090.000,3080.000,3092.000
1128.544,3093.000,3084.000,3096.000
1130.293,3084.000,3084.000,3085.000
1132.040,3084.000,3085.000,3087.000
1133.786,3095.000,3084.000,3096.000
1135.534,3089.000,3089.000,3095.000
1137.282,3089.000,3086.000,3097.000
1139.027,3092.000,3088.000,3091.000
1140.773,3076.000,3087.000,3088.000
1142.520,3090.000,3089.000,3088.000
1144.264,3097.000,3091.000,3093.000
1146.008,3095.000,3081.000,3087.000
1147.753,3092.000,3092.000,3094.000
1149.497,3087.000,3094.000,3086.000
1151.242,3085.000,3082.000,3092.000
1152.986,3094.000,3093.000,3092.000
1154.730,3103.000,3100.000,3093.000
1156.473,3086.000,3095.000,3095.000
1158.214,3091.000,3090.000,3093.000
1159.957,3088.000,3107.000,3099.000
1161.698,3091.000,3088.000,3078.000
1163.440,3094.000,3089.000,3088.000
1165.182,3099.000,3091.000,3092.000
1166.922,3099.000,3091.000,3083.000
1168.664,3086.000,3088.000,3095.000
1170.402,3096.000,3087.000,3099.000
1172.143,3098.000,3088.000,3086.000
1173.882,3089.000,3087.000,3083.000
1175.622,3091.000,3076.000,3087.000
1177.361,3086.000,3095.000,3091.000
1179.098,3101.000,3094.000,3087.000
1180.836,3094.000,3096.000,3088.000
1182.574,3094.000,3101.000,3092.000
1184.311,3097.000,3096.000,3090.000
1186.048,3086.000,3093.000,3088.000
1187.786,3095.000,3089.000,3087.000
1189.523,3084.000,3094.000,3085.000
1191.259,3091.000,3087.000,3089.000
1192.993,3085.000,3099.000,3088.000
1194.729,3088.000,3086.000,3091.000
1196.464,3093.000,3087.000,3095.000
1198.198,3096.000,3093.000,3081.000
1199.934,3080.000,3088.000,3087.000
1201.666,3083.000,3089.000,3094.000
1203.401,3083.000,3096.000,3092.000
1205.133,3092.000,3087.000,3093.000
1206.868,3091.000,3085.000,3099.000
1208.599,3088.000,3103.000,3073.000
1210.332,3092.000,3094.000,3087.000
1212.065,3084.000,3095.000,3079.000
1213.796,3078.000,3088.000,3083.000
1215.528,3093.000,3107.000,3093.000
1217.258,3083.000,3086.000,3094.000
1218.987,3089.000,3102.000,3081.000
1220.718,3090.000,3085.000,3086.000
1222.449,3095.000,3093.000,3086.000
1224.179,3093.000,3092.000,3090.000
1225.908,3094.000,3091.000,3090.000
1227.635,3088.000,3090.000,3095.000
1229.365,3099.000,3093.000,3092.000
1231.092,3091.000,3082.000,3088.000
1232.820,3089.000,3086.000,3095.000
1234.549,3093.000,3099.000,3087.000
1236.276,3092.000,3081.000,3083.000
1238.003,3100.000,3086.000,3084.000
1239.728,3084.000,3076.000,3088.000
1241.455,3098.000,3100.000,3094.000
1243.180,3100.000,3091.000,3081.000
1244.907,3096.000,3081.000,3090.000
1246.632,3088.000,3090.000,3089.000
1248.356,3081.000,3093.000,3100.000
1250.081,3077.000,3094.000,3086.000
1251.804,3099.000,3094.000,3087.000
1253.527,3083.000,3089.000,3095.000
1255.251,3090.000,3092.000,3078.000
1256.975,3094.000,3091.000,3086.000
1258.699,3094.000,3089.000,3094.000
1260.420,3102.000,3090.000,3090.000
1262.143,3083.000,3097.000,3085.000
1263.865,3092.000,3096.000,3089.000
1265.584,3088.000,3085.000,3092.000
1267.306,3101.000,3099.000,3087.000
1269.028,3090.000,3086.000,3089.000
1270.747,3104.000,3096.000,3091.000
1272.468,3095.000,3092.000,3098.000
1274.187,3088.000,3092.000,3087.000
1275.907,3096.000,3090.000,3092.000
1277.625,3092.000,3093.000,3085.000
1279.345,3096.000,3103.000,3086.000
1281.064,3085.000,3085.000,3084.000
1282.781,3104.000,3092.000,3097.000
1284.499,3090.000,3084.000,3093.000
1286.217,3094.000,3086.000,3086.000
1287.933,3095.000,3096.000,3089.000
1289.650,3089.000,3097.000,3099.000
1291.367,3090.000,3094.000,3088.000
1293.084,3093.000,3092.000,3078.000
1294.799,3096.000,3088.000,3097.000
1296.515,3094.000,3084.000,3084.000
1298.228,3083.000,3089.000,3087.000
1299.942,3090.000,3094.000,3088.000
1301.658,3084.000,3097.000,3083.000
1303.373,3082.000,3095.000,3081.000
1305.085,3089.000,3087.000,3093.000
1306.799,3089.000,3098.000,3090.000
1308.512,3096.000,3100.000,3081.000
1310.225,3098.000,3090.000,3097.000
1311.936,3085.000,3094.000,3086.000
1313.649,3099.000,3090.000,3079.000
1315.361,3081.000,3089.000,3078.000
1317.071,3099.000,3097.000,3092.000
1318.784,3087.000,3093.000,3090.000
1320.493,3100.000,3086.000,3082.000
1322.202,3090.000,3097.000,3089.000
1323.913,3090.000,3086.000,3092.000
1325.623,3098.000,3085.000,3088.000
1327.333,3077.000,3089.000,3083.000
1329.041,3084.000,3091.000,3091.000
1330.751,3090.000,3088.000,3095.000
1332.458,3084.000,3095.000,3090.000
1334.166,3098.000,3101.000,3085.000
1335.873,3081.000,3088.000,3088.000
1337.581,3085.000,3085.000,3089.000
1339.288,3092.000,3098.000,3090.000
1340.996,3095.000,3091.000,3090.000
1342.700,3097.000,3091.000,3088.000
1344.408,3089.000,3091.000,3086.000
1346.112,3079.000,3094.000,3087.000
1347.818,3087.000,3089.000,3096.000
1349.524,3097.000,3088.000,3102.000
1351.228,3105.000,3088.000,3094.000
1352.933,3096.000,3085.000,3077.000
1354.637,3095.000,3090.000,3093.000
1356.338,3093.000,3086.000,3090.000
1358.042,3097.000,3090.000,3090.000
1359.746,3096.000,3088.000,3079.000
1361.450,3088.000,3075.000,3094.000
1363.151,3096.000,3088.000,3081.000
1364.854,3091.000,3082.000,3088.000
1366.555,3097.000,3096.000,3087.000
1368.254,3090.000,3090.000,3090.000
1369.956,3090.000,3092.000,3091.000
1371.658,3087.000,3089.000,3088.000
1373.357,3087.000,3097.000,3093.000
1375.058,3097.000,3089.000,3090.000
1376.759,3090.000,3088.000,3088.000
1378.457,3101.000,3092.000,3082.000
1380.154,3090.000,3097.000,3095.000
1381.854,3088.000,3103.000,3083.000
1383.554,3088.000,3092.000,3085.000
1385.251,3091.000,3090.000,3097.000
1386.950,3091.000,3093.000,3090.000
1388.646,3090.000,3097.000,3091.000
1390.341,3092.000,3091.000,3082.000
1392.039,3091.000,3096.000,3098.000
1393.735,3092.000,3093.000,3087.000
1395.433,3096.000,3100.000,3090.000
1397.128,3096.000,3099.000,3090.000
1398.824,3087.000,3083.000,3103.000
1400.519,3102.000,3099.000,3098.000
1402.212,3101.000,3093.000,3097.000
1403.907,3085.000,3091.000,3090.000
1405.602,3099.000,3090.000,3087.000
1407.294,3101.000,3095.000,3090.000
1408.988,3089.000,3093.000,3091.000
1410.682,3099.000,3091.000,3083.000
1412.373,3105.000,3092.000,3086.000
1414.065,3086.000,3095.000,3097.000
1415.758,3095.000,3089.000,3091.000
1417.450,3091.000,3098.000,3091.000
1419.141,3085.000,3091.000,3085.000
1420.833,3096.000,3090.000,3093.000
1422.525,3093.000,3094.000,3085.000
1424.212,3087.000,3092.000,3098.000
1425.903,3092.000,3097.000,3095.000
1427.594,3086.000,3092.000,3099.000
1429.284,3102.000,3098.000,3099.000
1430.972,3093.000,3101.000,3092.000
1432.661,3093.000,3103.000,3090.000
1434.349,3097.000,3093.000,3095.000
1436.036,3099.000,3094.000,3090.000
1437.724,3089.000,3084.000,3092.000
1439.413,3095.000,3104.000,3096.000
1441.099,3092.000,3098.000,3092.000
1442.787,3097.000,3098.000,3092.000
1444.474,3101.000,3090.000,3085.000
1446.158,3102.000,3097.000,3103.000
1447.844,3103.000,3097.000,3091.000
1449.530,3098.000,3090.000,3103.000
1451.215,3100.000,3102.000,3096.000
1452.900,3103.000,3099.000,3090.000
1454.586,3102.000,3102.000,3097.000
1456.270,3101.000,3096.000,3093.000
1457.951,3098.000,3103.000,3090.000
1459.636,3098.000,3087.000,3099.000
1461.319,3103.000,3096.000,3101.000
1463.004,3095.000,3100.000,3093.000
1464.685,3104.000,3104.000,3089.000
1466.368,3100.000,3104.000,3098.000
1468.050,3104.000,3092.000,3097.000
1469.729,3106.000,3098.000,3088.000
1471.411,3097.000,3097.000,3092.000
1473.093,3105.000,3104.000,3092.000
1474.772,3112.000,3104.000,3107.000
1476.453,3100.000,3105.000,3098.000
1478.134,3096.000,3097.000,3102.000
1479.813,3103.000,3104.000,3101.000
1481.492,3102.000,3106.000,3091.000
1483.171,3094.000,3092.000,3090.000
1484.850,3090.000,3101.000,3088.000
1486.528,3110.000,3103.000,3100.000
1488.206,3105.000,3094.000,3098.000
1489.885,3093.000,3101.000,3107.000
1491.559,3108.000,3115.000,3112.000
1493.238,3099.000,3095.000,3104.000
1494.914,3110.000,3099.000,3091.000
1496.592,3101.000,3094.000,3095.000
1498.267,3111.000,3099.000,3089.000
1499.943,3097.000,3094.000,3087.000
1501.620,3105.000,3100.000,3094.000
1503.292,3101.000,3109.000,3094.000
1504.968,3100.000,3098.000,3085.000
1506.643,3104.000,3101.000,3089.000
1508.316,3115.000,3095.000,3095.000
1509.990,3103.000,3096.000,3100.000
1511.664,3109.000,3098.000,3093.000
1513.338,3111.000,3093.000,3095.000
1515.009,3099.000,3093.000,3098.000
1516.682,3110.000,3097.000,3100.000
1518.355,3099.000,3094.000,3102.000
1520.025,3104.000,3099.000,3095.000
1521.698,3109.000,3106.000,3105.000
1523.370,3098.000,3103.000,3103.000
1525.038,3088.000,3096.000,3107.000
1526.710,3102.000,3123.000,3097.000
1528.380,3102.000,3102.000,3097.000
1530.051,3106.000,3094.000,3096.000
1531.719,3089.000,3099.000,3093.000
1533.390,3096.000,3099.000,3098.000
1535.059,3101.000,3101.000,3096.000
1536.725,3099.000,3093.000,3100.000
1538.394,3088.000,3100.000,3104.000
1540.062,3097.000,3096.000,3082.000
1541.731,3091.000,3100.000,3100.000
1543.398,3107.000,3111.000,3093.000
1545.065,3095.000,3106.000,3091.000
1546.733,3097.000,3099.000,3090.000
1548.397,3107.000,3089.000,3092.000
1550.063,3092.000,3097.000,3099.000
1551.730,3092.000,3103.000,3098.000
1553.394,3110.000,3109.000,3092.000
1555.060,3107.000,3104.000,3101.000
1556.725,3091.000,3095.000,3104.000
1558.391,3100.000,3096.000,3100.000
1560.052,3088.000,3098.000,3092.000
1561.717,3114.000,3103.000,3090.000
1563.380,3095.000,3090.000,3092.000
1565.043,3090.000,3095.000,3103.000
1566.706,3106.000,3099.000,3099.000
1568.370,3094.000,3099.000,3092.000
1570.029,3098.000,3102.000,3103.000
1571.691,3100.000,3092.000,3103.000
1573.354,3099.000,3098.000,3096.000
1575.016,3092.000,3120.000,3092.000
1576.676,3098.000,3097.000,3100.000
1578.338,3114.000,3099.000,3093.000
1579.998,3102.000,3098.000,3101.000
1581.655,3100.000,3107.000,3099.000
1583.315,3102.000,3095.000,3088.000
1584.976,3106.000,3094.000,3098.000
1586.633,3098.000,3096.000,3090.000
1588.293,3104.000,3092.000,3095.000
1589.952,3100.000,3087.000,3097.000
1591.611,3094.000,3089.000,3084.000
1593.265,3101.000,3104.000,3084.000
1594.924,3089.000,3085.000,3099.000
1596.582,3090.000,3103.000,3099.000
1598.238,3095.000,3091.000,3098.000
1599.895,3105.000,3098.000,3098.000
1601.552,3090.000,3088.000,3094.000
1603.206,3091.000,3096.000,3096.000
1604.860,3098.000,3102.000,3103.000
1606.517,3093.000,3107.000,3094.000
1608.172,3095.000,3102.000,3097.000
1609.826,3106.000,3096.000,3098.000
1611.481,3091.000,3093.000,3100.000
1613.135,3102.000,3098.000,3108.000
1614.786,3103.000,3101.000,3104.000
1616.440,3104.000,3097.000,3093.000
1618.095,3097.000,3100.000,3090.000
1619.745,3103.000,3097.000,3097.000
1621.398,3097.000,3094.000,3104.000
1623.051,3106.000,3098.000,3093.000
1624.703,3101.000,3087.000,3087.000
1626.352,3095.000,3092.000,3098.000
1628.004,3093.000,3091.000,3102.000
1629.656,3093.000,3096.000,3086.000
1631.305,3098.000,3097.000,3100.000
1632.956,3106.000,3093.000,3091.000
1634.606,3087.000,3097.000,3095.000
1636.253,3098.000,3094.000,3098.000
1637.903,3089.000,3093.000,3091.000
1639.552,3101.000,3100.000,3081.000
1641.202,3108.000,3098.000,3088.000
1642.849,3102.000,3096.000,3096.000
1644.497,3095.000,3100.000,3086.000
1646.146,3094.000,3095.000,3088.000
1647.792,3107.000,3106.000,3084.000
1649.438,3106.000,3092.000,3104.000
1651.085,3106.000,3106.000,3091.000
1652.730,3089.000,3103.000,3097.000
1654.377,3109.000,3106.000,3101.000
1656.024,3107.000,3113.000,3083.000
1657.670,3092.000,3099.000,3105.000
1659.311,3084.000,3094.000,3101.000
1660.957,3093.000,3109.000,3097.000
1662.602,3091.000,3101.000,3102.000
1664.245,3085.000,3097.000,3100.000
1665.890,3098.000,3105.000,3096.000
1667.534,3096.000,3093.000,3092.000
1669.176,3098.000,3094.000,3097.000
1670.818,3109.000,3094.000,3092.000
1672.460,3094.000,3091.000,3093.000
1674.104,3088.000,3110.000,3103.000
1675.745,3103.000,3097.000,3090.000
1677.387,3092.000,3087.000,3094.000
1679.029,3091.000,3087.000,3087.000
1680.667,3091.000,3093.000,3088.000
1682.308,3099.000,3102.000,3080.000
1683.949,3091.000,3100.000,3106.000
1685.589,3104.000,3097.000,3092.000
1687.229,3094.000,3109.000,3087.000
1688.869,3089.000,3094.000,3092.000
1690.508,3102.000,3084.000,3091.000
1692.146,3084.000,3088.000,3100.000
1693.784,3106.000,3091.000,3091.000
1695.422,3104.000,3074.000,3097.000
1697.059,3099.000,3090.000,3107.000
1698.697,3100.000,3087.000,3096.000
1700.335,3095.000,3106.000,3106.000
1701.972,3101.000,3082.000,3096.000
1703.606,3097.000,3088.000,3100.000
1705.244,3096.000,3099.000,3093.000
1706.880,3094.000,3104.000,3092.000
1708.514,3089.000,3093.000,3084.000
1710.151,3088.000,3090.000,3098.000
1711.787,3090.000,3095.000,3098.000
1713.420,3083.000,3088.000,3099.000
1715.053,3095.000,3102.000,3092.000
1716.688,3096.000,3086.000,3090.000
1718.321,3096.000,3096.000,3099.000
1719.956,3094.000,3090.000,3100.000
1721.589,3085.000,3086.000,3096.000
1723.222,3096.000,3098.000,3092.000
1724.852,3092.000,3087.000,3105.000
1726.485,3099.000,3094.000,3096.000
1728.117,3092.000,3096.000,3085.000
1729.748,3099.000,3081.000,3099.000
1731.379,3089.000,3091.000,3090.000
1733.012,3099.000,3099.000,3089.000
1734.641,3100.000,3088.000,3105.000
1736.270,3096.000,3092.000,3096.000
1737.901,3098.000,3092.000,3093.000
1739.532,3086.000,3095.000,3082.000
1741.159,3092.000,3092.000,3090.000
1742.789,3090.000,3095.000,3095.000
1744.419,3092.000,3081.000,3085.000
1746.047,3095.000,3086.000,3098.000
1747.674,3096.000,3098.000,3094.000
1749.302,3103.000,3091.000,3094.000
1750.929,3091.000,3092.000,3095.000
1752.557,3097.000,3097.000,3086.000
1754.184,3076.000,3087.000,3079.000
1755.811,3085.000,3087.000,3090.000
1757.437,3098.000,3091.000,3087.000
1759.062,3087.000,3101.000,3090.000
1760.688,3091.000,3088.000,3091.000
1762.312,3082.000,3090.000,3090.000
1763.937,3085.000,3091.000,3087.000
1765.564,3103.000,3093.000,3090.000
1767.186,3087.000,3085.000,3091.000
1768.809,3089.000,3085.000,3103.000
1770.434,3102.000,3086.000,3089.000
1772.058,3082.000,3084.000,3091.000
1773.680,3082.000,3093.000,3090.000
1775.304,3095.000,3088.000,3089.000
1776.927,3094.000,3078.000,3086.000
1778.549,3090.000,3093.000,3099.000
1780.169,3076.000,3093.000,3086.000
1781.792,3091.000,3100.000,3092.000
1783.411,3083.000,3085.000,3087.000
1785.033,3094.000,3090.000,3091.000
1786.655,3095.000,3094.000,3088.000
1788.276,3085.000,3079.000,3090.000
1789.894,3090.000,3104.000,3094.000
1791.514,3089.000,3097.000,3079.000
1793.134,3097.000,3089.000,3087.000
1794.752,3083.000,3095.000,3072.000
1796.372,3090.000,3090.000,3086.000
1797.991,3101.000,3089.000,3087.000
1799.608,3100.000,3095.000,3092.000
1801.226,3092.000,3083.000,3091.000
1802.843,3092.000,3099.000,3083.000
1804.461,3093.000,3088.000,3095.000
1806.077,3086.000,3087.000,3089.000
1807.694,3089.000,3094.000,3092.000
1809.311,3102.000,3094.000,3088.000
1810.926,3093.000,3088.000,3096.000
1812.541,3091.000,3091.000,3079.000
1814.158,3084.000,3090.000,3084.000
1815.771,3082.000,3091.000,3093.000
1817.387,3086.000,3097.000,3097.000
1819.002,3088.000,3094.000,3096.000
1820.618,3082.000,3097.000,3088.000
1822.230,3081.000,3082.000,3097.000
1823.842,3091.000,3104.000,3083.000
1825.457,3090.000,3087.000,3103.000
1827.068,3093.000,3097.000,3088.000
1828.682,3094.000,3103.000,3078.000
1830.295,3087.000,3093.000,3084.000
1831.906,3091.000,3092.000,3098.000
1833.519,3091.000,3093.000,3080.000
1835.129,3088.000,3091.000,3092.000
1836.741,3099.000,3091.000,3089.000
1838.351,3092.000,3085.000,3092.000
1839.962,3098.000,3085.000,3097.000
1841.572,3098.000,3094.000,3088.000
1843.181,3077.000,3099.000,3088.000
1844.792,3089.000,3084.000,3090.000
1846.400,3097.000,3090.000,3086.000
1848.008,3091.000,3107.000,3103.000
1849.618,3089.000,3099.000,3090.000
1851.227,3087.000,3094.000,3099.000
1852.836,3092.000,3098.000,3089.000
1854.442,3090.000,3088.000,3096.000
1856.049,3090.000,3105.000,3087.000
1857.656,3093.000,3092.000,3084.000
1859.263,3099.000,3103.000,3095.000
1860.869,3098.000,3102.000,3092.000
