-1045.333,3016.000,3018.000,3014.000
-1043.100,3019.000,3022.000,3016.000
-1040.872,3018.000,3020.000,3019.000
-1038.644,3012.000,3024.000,3018.000
-1036.416,3019.000,3021.000,3019.000
-1034.188,3016.000,3019.000,3018.000
-1031.962,3020.000,3022.000,3024.000
-1029.734,3020.000,3018.000,3020.000
-1027.508,3019.000,3020.000,3020.000
-1025.280,3026.000,3021.000,3023.000
-1023.056,3019.000,3026.000,3019.000
-1020.830,3023.000,3022.000,3021.000
-1018.604,3020.000,3015.000,3018.000
-1016.383,3023.000,3015.000,3024.000
-1014.160,3018.000,3021.000,3012.000
-1011.936,3021.000,3018.000,3013.000
-1009.712,3016.000,3014.000,3017.000
-1007.494,3016.000,3015.000,3016.000
-1005.270,3018.000,3018.000,3021.000
-1003.049,3016.000,3017.000,3019.000
-1000.830,3014.000,3018.000,3020.000
-998.609,3013.000,3016.000,3017.000
-996.390,3016.000,3016.000,3017.000
-994.171,3016.000,3014.000,3019.000
-991.952,3015.000,3011.000,3015.000
-989.736,3019.000,3014.000,3019.000
-987.517,3014.000,3018.000,3017.000
-985.300,3012.000,3014.000,3017.000
-983.084,3020.000,3017.000,3019.000
-980.869,3017.000,3013.000,3020.000
-978.653,3019.000,3016.000,3016.000
-976.436,3016.000,3013.000,3017.000
-974.222,3015.000,3017.000,3015.000
-972.010,3016.000,3012.000,3016.000
-969.796,3021.000,3015.000,3015.000
-967.582,3015.000,3014.000,3012.000
-965.370,3014.000,3019.000,3018.000
-963.158,3014.000,3015.000,3019.000
-960.946,3017.000,3017.000,3017.000
-958.737,3013.000,3017.000,3015.000
-956.527,3016.000,3017.000,3018.000
-954.315,3019.000,3017.000,3012.000
-952.106,3013.000,3017.000,3017.000
-949.898,3017.000,3016.000,3014.000
-947.689,3019.000,3017.000,3019.000
-945.481,3018.000,3014.000,3012.000
-943.274,3018.000,3015.000,3016.000
-941.067,3020.000,3018.000,3014.000
-938.860,3017.000,3019.000,3017.000
-936.655,3021.000,3020.000,3014.000
-934.448,3016.000,3018.000,3017.000
-932.243,3016.000,3021.000,3014.000
-930.040,3016.000,3017.000,3017.000
-927.833,3018.000,3022.000,3017.000
-925.633,3021.000,3016.000,3015.000
-923.428,3019.000,3016.000,3018.000
-921.225,3023.000,3015.000,3019.000
-919.023,3018.000,3019.000,3018.000
-916.822,3018.000,3016.000,3021.000
-914.620,3016.000,3020.000,3016.000
-912.420,3018.000,3021.000,3018.000
-910.219,3020.000,3019.000,3017.000
-908.021,3018.000,3015.000,3018.000
-905.821,3017.000,3016.000,3022.000
-903.621,3016.000,3015.000,3021.000
-901.425,3018.000,3011.000,3020.000
-899.227,3015.000,3013.000,3020.000
-897.029,3016.000,3012.000,3015.000
-894.832,3017.000,3014.000,3022.000
-892.638,3016.000,3014.000,3016.000
-890.440,3018.000,3014.000,3018.000
-888.245,3015.000,3014.000,3017.000
-886.051,3013.000,3016.000,3017.000
-883.856,3017.000,3019.000,3021.000
-881.663,3013.000,3018.000,3016.000
-879.469,3016.000,3015.000,3017.000
-877.278,3015.000,3021.000,3019.000
-875.085,3016.000,3020.000,3019.000
-872.892,3015.000,3017.000,3016.000
-870.701,3014.000,3018.000,3018.000
-868.512,3016.000,3018.000,3018.000
-866.319,3014.000,3019.000,3016.000
-864.130,3017.000,3018.000,3018.000
-861.942,3020.000,3020.000,3021.000
-859.753,3019.000,3017.000,3015.000
-857.565,3019.000,3011.000,3019.000
-855.376,3020.000,3014.000,3015.000
-853.190,3021.000,3016.000,3019.000
-851.001,3022.000,3017.000,3016.000
-848.815,3016.000,3017.000,3015.000
-846.629,3016.000,3021.000,3017.000
-844.445,3020.000,3019.000,3012.000
-842.261,3018.000,3019.000,3018.000
-840.074,3020.000,3021.000,3018.000
-837.890,3019.000,3022.000,3016.000
-835.709,3020.000,3019.000,3014.000
-833.525,3021.000,3023.000,3019.000
-831.341,3019.000,3019.000,3014.000
-829.159,3016.000,3019.000,3013.000
-826.978,3021.000,3023.000,3017.000
-824.796,3018.000,3014.000,3016.000
-822.614,3011.000,3018.000,3024.000
-820.437,3018.000,3010.000,3016.000
-818.256,3015.000,3021.000,3017.000
-816.077,3019.000,3014.000,3018.000
-813.897,3015.000,3016.000,3018.000
-811.720,3012.000,3013.000,3016.000
-809.543,3012.000,3015.000,3019.000
-807.366,3018.000,3017.000,3015.000
-805.189,3019.000,3021.000,3017.000
-803.012,3020.000,3016.000,3019.000
-800.838,3020.000,3020.000,3020.000
-798.661,3023.000,3017.000,3017.000
-796.486,3023.000,3021.000,3023.000
-794.314,3024.000,3023.000,3019.000
-792.139,3027.000,3024.000,3015.000
-789.965,3019.000,3021.000,3017.000
-787.792,3021.000,3019.000,3022.000
-785.620,3018.000,3019.000,3018.000
-783.448,3018.000,3017.000,3022.000
-781.275,3023.000,3015.000,3024.000
-779.105,3017.000,3021.000,3018.000
-776.935,3018.000,3012.000,3018.000
-774.765,3014.000,3013.000,3017.000
-772.595,3013.000,3021.000,3018.000
-770.428,3022.000,3019.000,3021.000
-768.258,3018.000,3022.000,3018.000
-766.090,3016.000,3018.000,3017.000
-763.922,3018.000,3017.000,3019.000
-761.757,3024.000,3017.000,3016.000
-759.589,3018.000,3022.000,3018.000
-757.422,3021.000,3018.000,3016.000
-755.259,3016.000,3024.000,3017.000
-753.091,3021.000,3019.000,3016.000
-750.928,3019.000,3021.000,3019.000
-748.765,3014.000,3026.000,3020.000
-746.600,3017.000,3019.000,3027.000
-744.437,3018.000,3023.000,3025.000
-742.274,3019.000,3016.000,3020.000
-740.111,3020.000,3017.000,3018.000
-737.950,3017.000,3019.000,3019.000
-735.790,3018.000,3012.000,3023.000
-733.627,3020.000,3016.000,3017.000
-731.468,3019.000,3016.000,3019.000
-729.306,3017.000,3016.000,3017.000
-727.147,3017.000,3016.000,3018.000
-724.991,3020.000,3015.000,3013.000
-722.830,3020.000,3015.000,3018.000
-720.672,3021.000,3021.000,3019.000
-718.515,3016.000,3014.000,3016.000
-716.357,3018.000,3019.000,3020.000
-714.201,3022.000,3016.000,3016.000
-712.045,3022.000,3017.000,3022.000
-709.887,3019.000,3016.000,3018.000
-707.735,3016.000,3017.000,3023.000
-705.580,3018.000,3021.000,3021.000
-703.424,3021.000,3020.000,3022.000
-701.272,3018.000,3017.000,3019.000
-699.119,3017.000,3016.000,3020.000
-696.964,3017.000,3020.000,3024.000
-694.813,3017.000,3019.000,3016.000
-692.662,3019.000,3022.000,3013.000
-690.509,3017.000,3024.000,3016.000
-688.358,3018.000,3025.000,3017.000
-686.208,3017.000,3019.000,3016.000
-684.058,3022.000,3020.000,3018.000
-681.909,3022.000,3015.000,3017.000
-679.760,3014.000,3020.000,3022.000
-677.612,3019.000,3023.000,3015.000
-675.463,3023.000,3021.000,3020.000
-673.316,3022.000,3016.000,3021.000
-671.170,3021.000,3022.000,3020.000
-669.023,3023.000,3020.000,3022.000
-666.876,3015.000,3019.000,3021.000
-664.731,3019.000,3020.000,3018.000
-662.586,3014.000,3019.000,3019.000
-660.442,3018.000,3018.000,3015.000
-658.298,3018.000,3019.000,3017.000
-656.153,3021.000,3020.000,3016.000
-654.010,3019.000,3017.000,3015.000
-651.868,3016.000,3021.000,3017.000
-649.726,3015.000,3019.000,3015.000
-647.584,3015.000,3016.000,3023.000
-645.443,3015.000,3021.000,3016.000
-643.302,3020.000,3018.000,3018.000
-641.161,3021.000,3017.000,3015.000
-639.019,3020.000,3015.000,3020.000
-636.882,3019.000,3018.000,3021.000
-634.741,3020.000,3013.000,3022.000
-632.602,3014.000,3019.000,3019.000
-630.466,3018.000,3019.000,3018.000
-628.327,3023.000,3016.000,3020.000
-626.189,3020.000,3018.000,3019.000
-624.055,3018.000,3019.000,3021.000
-621.917,3022.000,3014.000,3021.000
-619.782,3019.000,3013.000,3020.000
-617.649,3017.000,3021.000,3019.000
-615.512,3020.000,3016.000,3021.000
-613.378,3023.000,3015.000,3021.000
-611.244,3021.000,3017.000,3015.000
-609.110,3025.000,3018.000,3020.000
-606.977,3024.000,3019.000,3017.000
-604.844,3022.000,3020.000,3018.000
-602.713,3021.000,3017.000,3018.000
-600.581,3023.000,3017.000,3017.000
-598.451,3024.000,3021.000,3019.000
-596.320,3023.000,3021.000,3020.000
-594.190,3028.000,3019.000,3019.000
-592.061,3021.000,3016.000,3015.000
-589.932,3022.000,3019.000,3016.000
-587.800,3022.000,3019.000,3019.000
-585.674,3020.000,3021.000,3016.000
-583.547,3023.000,3024.000,3016.000
-581.417,3022.000,3018.000,3020.000
-579.294,3018.000,3020.000,3023.000
-577.167,3024.000,3019.000,3017.000
-575.039,3022.000,3023.000,3026.000
-572.915,3023.000,3022.000,3020.000
-570.791,3023.000,3023.000,3022.000
-568.664,3015.000,3022.000,3022.000
-566.543,3023.000,3024.000,3022.000
-564.417,3022.000,3024.000,3022.000
-562.293,3021.000,3023.000,3022.000
-560.171,3016.000,3027.000,3024.000
-558.049,3023.000,3022.000,3023.000
-555.928,3025.000,3022.000,3027.000
-553.806,3023.000,3024.000,3024.000
-551.686,3021.000,3021.000,3025.000
-549.566,3020.000,3018.000,3030.000
-547.446,3022.000,3021.000,3027.000
-545.326,3021.000,3027.000,3027.000
-543.207,3026.000,3020.000,3028.000
-541.087,3019.000,3020.000,3027.000
-538.971,3023.000,3017.000,3027.000
-536.853,3017.000,3024.000,3031.000
-534.734,3023.000,3019.000,3027.000
-532.620,3024.000,3016.000,3025.000
-530.504,3028.000,3022.000,3022.000
-528.386,3024.000,3025.000,3023.000
-526.273,3018.000,3026.000,3021.000
-524.157,3021.000,3024.000,3020.000
-522.042,3022.000,3024.000,3023.000
-519.931,3024.000,3030.000,3024.000
-517.815,3020.000,3026.000,3028.000
-515.703,3019.000,3028.000,3024.000
-513.592,3022.000,3028.000,3029.000
-511.478,3029.000,3027.000,3026.000
-509.366,3022.000,3030.000,3025.000
-507.258,3020.000,3020.000,3021.000
-505.145,3023.000,3029.000,3025.000
-503.036,3023.000,3027.000,3026.000
-500.925,3029.000,3029.000,3027.000
-498.817,3030.000,3028.000,3031.000
-496.707,3031.000,3031.000,3031.000
-494.599,3031.000,3030.000,3029.000
-492.492,3030.000,3030.000,3032.000
-490.385,3031.000,3024.000,3029.000
-488.278,3037.000,3032.000,3032.000
-486.172,3033.000,3029.000,3028.000
-484.066,3033.000,3031.000,3026.000
-481.960,3040.000,3033.000,3033.000
-479.855,3037.000,3031.000,3034.000
-477.748,3038.000,3037.000,3041.000
-475.647,3033.000,3038.000,3034.000
-473.543,3041.000,3033.000,3029.000
-471.437,3043.000,3046.000,3039.000
-469.335,3046.000,3040.000,3034.000
-467.235,3045.000,3051.000,3041.000
-465.131,3042.000,3048.000,3045.000
-463.030,3049.000,3045.000,3048.000
-460.931,3042.000,3049.000,3049.000
-458.828,3052.000,3046.000,3044.000
-456.728,3058.000,3061.000,3046.000
-454.629,3053.000,3059.000,3054.000
-452.530,3064.000,3061.000,3077.000
-450.431,3066.000,3068.000,3071.000
-448.333,3085.000,3071.000,3086.000
-446.236,3084.000,3081.000,3091.000
-444.139,3100.000,3096.000,3091.000
-442.042,3099.000,3115.000,3108.000
-439.946,3131.000,3130.000,3132.000
-437.850,3152.000,3150.000,3160.000
-435.755,3180.000,3193.000,3188.000
-433.659,3213.000,3235.000,3243.000
-431.563,3307.000,3338.000,3331.000
-429.471,3477.000,3453.000,3434.000
-427.377,3668.000,3676.000,3682.000
-425.282,4055.000,4029.000,4043.000
-423.192,4449.000,4457.000,4456.000
-421.099,4653.000,4741.000,4705.000
-419.006,4462.000,4469.000,4463.000
-416.916,4020.000,4002.000,4029.000
-414.826,3626.000,3607.000,3618.000
-412.734,3376.000,3376.000,3395.000
-410.645,3244.000,3248.000,3253.000
-408.554,3164.000,3192.000,3169.000
-406.465,3137.000,3127.000,3129.000
-404.378,3116.000,3108.000,3102.000
-402.289,3088.000,3098.000,3087.000
-400.200,3072.000,3064.000,3074.000
-398.115,3059.000,3063.000,3070.000
-396.027,3060.000,3060.000,3061.000
-393.941,3049.000,3043.000,3049.000
-391.857,3054.000,3039.000,3049.000
-389.769,3050.000,3043.000,3044.000
-387.684,3041.000,3040.000,3039.000
-385.601,3038.000,3037.000,3040.000
-383.516,3037.000,3031.000,3040.000
-381.433,3037.000,3037.000,3036.000
-379.349,3038.000,3026.000,3034.000
-377.266,3033.000,3031.000,3030.000
-375.185,3032.000,3031.000,3031.000
-373.101,3036.000,3024.000,3038.000
-371.022,3038.000,3032.000,3020.000
-368.938,3026.000,3033.000,3033.000
-366.858,3027.000,3028.000,3023.000
-364.781,3032.000,3028.000,3024.000
-362.699,3026.000,3028.000,3024.000
-360.620,3024.000,3028.000,3029.000
-358.543,3028.000,3031.000,3029.000
-356.463,3030.000,3030.000,3032.000
-354.385,3031.000,3030.000,3030.000
-352.310,3032.000,3032.000,3025.000
-350.231,3023.000,3028.000,3030.000
-348.156,3026.000,3032.000,3029.000
-346.079,3027.000,3027.000,3032.000
-344.004,3029.000,3028.000,3029.000
-341.929,3026.000,3028.000,3029.000
-339.854,3028.000,3026.000,3031.000
-337.781,3035.000,3028.000,3032.000
-335.707,3037.000,3028.000,3027.000
-333.634,3023.000,3029.000,3027.000
-331.561,3035.000,3028.000,3029.000
-329.488,3032.000,3038.000,3035.000
-327.416,3035.000,3031.000,3030.000
-325.345,3048.000,3047.000,3041.000
-323.272,3051.000,3048.000,3050.000
-321.204,3062.000,3053.000,3060.000
-319.134,3092.000,3092.000,3090.000
-317.062,3143.000,3140.000,3130.000
-314.996,3224.000,3197.000,3201.000
-312.927,3218.000,3228.000,3214.000
-310.856,3155.000,3143.000,3123.000
-308.791,3067.000,3071.000,3079.000
-306.723,3040.000,3043.000,3043.000
-304.655,3030.000,3033.000,3030.000
-302.590,3029.000,3027.000,3033.000
-300.522,3030.000,3031.000,3027.000
-298.457,3024.000,3026.000,3027.000
-296.394,3027.000,3020.000,3029.000
-294.326,3025.000,3026.000,3023.000
-292.262,3023.000,3025.000,3026.000
-290.201,3023.000,3030.000,3027.000
-288.135,3024.000,3033.000,3025.000
-286.072,3029.000,3031.000,3023.000
-284.010,3026.000,3034.000,3030.000
-281.948,3027.000,3034.000,3028.000
-279.886,3031.000,3032.000,3034.000
-277.823,3033.000,3029.000,3034.000
-275.765,3035.000,3036.000,3029.000
-273.705,3031.000,3038.000,3033.000
-271.643,3033.000,3031.000,3033.000
-269.586,3037.000,3027.000,3034.000
-267.526,3033.000,3028.000,3025.000
-265.466,3033.000,3034.000,3024.000
-263.410,3035.000,3032.000,3031.000
-261.353,3033.000,3035.000,3023.000
-259.293,3041.000,3041.000,3031.000
-257.239,3041.000,3035.000,3030.000
-255.181,3034.000,3034.000,3035.000
-253.125,3044.000,3033.000,3042.000
-251.072,3041.000,3034.000,3031.000
-249.015,3035.000,3053.000,3039.000
-246.960,3038.000,3040.000,3043.000
-244.908,3044.000,3043.000,3044.000
-242.852,3043.000,3046.000,3042.000
-240.800,3049.000,3053.000,3053.000
-238.750,3045.000,3046.000,3053.000
-236.695,3042.000,3052.000,3060.000
-234.643,3051.000,3052.000,3055.000
-232.591,3055.000,3064.000,3055.000
-230.541,3061.000,3075.000,3070.000
-228.490,3061.000,3064.000,3072.000
-226.440,3074.000,3081.000,3084.000
-224.391,3079.000,3085.000,3085.000
-222.342,3091.000,3091.000,3094.000
-220.293,3091.000,3097.000,3107.000
-218.244,3105.000,3110.000,3096.000
-216.197,3102.000,3100.000,3112.000
-214.150,3134.000,3122.000,3114.000
-212.102,3124.000,3114.000,3119.000
-210.054,3143.000,3153.000,3132.000
-208.010,3142.000,3133.000,3149.000
-205.965,3175.000,3157.000,3150.000
-203.917,3173.000,3170.000,3156.000
-201.875,3188.000,3191.000,3197.000
-199.831,3179.000,3201.000,3199.000
-197.784,3232.000,3232.000,3211.000
-195.744,3246.000,3241.000,3241.000
-193.700,3276.000,3290.000,3265.000
-191.656,3301.000,3305.000,3322.000
-189.613,3361.000,3352.000,3358.000
-187.572,3404.000,3417.000,3411.000
-185.530,3486.000,3480.000,3478.000
-183.490,3543.000,3556.000,3548.000
-181.450,3638.000,3648.000,3635.000
-179.410,3797.000,3784.000,3784.000
-177.371,3946.000,3928.000,3954.000
-175.331,4100.000,4107.000,4086.000
-173.293,4243.000,4276.000,4252.000
-171.254,4359.000,4397.000,4424.000
-169.217,4522.000,4549.000,4478.000
-167.180,4550.000,4587.000,4573.000
-165.141,4588.000,4557.000,4606.000
-163.106,4506.000,4487.000,4555.000
-161.070,4348.000,4319.000,4363.000
-159.033,4186.000,4202.000,4169.000
-157.001,4051.000,4027.000,3992.000
-154.966,3859.000,3912.000,3867.000
-152.929,3718.000,3740.000,3763.000
-150.898,3592.000,3617.000,3616.000
-148.864,3508.000,3509.000,3524.000
-146.829,3426.000,3461.000,3425.000
-144.799,3402.000,3363.000,3396.000
-142.765,3352.000,3366.000,3356.000
-140.734,3342.000,3315.000,3304.000
-138.705,3258.000,3269.000,3270.000
-136.672,3235.000,3236.000,3248.000
-134.642,3209.000,3223.000,3234.000
-132.614,3209.000,3214.000,3209.000
-130.582,3179.000,3177.000,3197.000
-128.553,3183.000,3190.000,3170.000
-126.524,3171.000,3149.000,3154.000
-124.496,3130.000,3137.000,3150.000
-122.469,3140.000,3146.000,3136.000
-120.441,3143.000,3150.000,3137.000
-118.415,3149.000,3138.000,3147.000
-116.389,3157.000,3159.000,3154.000
-114.362,3166.000,3163.000,3147.000
-112.337,3183.000,3175.000,3177.000
-110.312,3177.000,3184.000,3189.000
-108.288,3185.000,3199.000,3183.000
-106.263,3169.000,3191.000,3190.000
-104.238,3172.000,3183.000,3183.000
-102.217,3169.000,3167.000,3152.000
-100.193,3138.000,3148.000,3155.000
-98.169,3121.000,3123.000,3134.000
-96.147,3131.000,3118.000,3109.000
-94.127,3095.000,3102.000,3107.000
-92.104,3118.000,3129.000,3113.000
-90.084,3127.000,3118.000,3115.000
-88.065,3099.000,3111.000,3110.000
-86.043,3095.000,3089.000,3094.000
-84.023,3074.000,3083.000,3082.000
-82.005,3071.000,3064.000,3071.000
-79.986,3058.000,3061.000,3068.000
-77.968,3053.000,3065.000,3063.000
-75.951,3059.000,3058.000,3061.000
-73.934,3051.000,3052.000,3063.000
-71.916,3057.000,3057.000,3053.000
-69.900,3062.000,3067.000,3065.000
-67.885,3071.000,3075.000,3069.000
-65.868,3059.000,3055.000,3052.000
-63.853,3056.000,3060.000,3055.000
-61.839,3061.000,3056.000,3066.000
-59.823,3055.000,3053.000,3059.000
-57.811,3059.000,3066.000,3060.000
-55.797,3074.000,3062.000,3068.000
-53.782,3084.000,3062.000,3063.000
-51.772,3059.000,3064.000,3063.000
-49.760,3062.000,3053.000,3054.000
-47.746,3058.000,3063.000,3061.000
-45.737,3076.000,3076.000,3066.000
-43.726,3053.000,3063.000,3064.000
-41.713,3067.000,3055.000,3056.000
-39.706,3060.000,3073.000,3055.000
-37.695,3074.000,3078.000,3078.000
-35.685,3074.000,3077.000,3076.000
-33.678,3082.000,3076.000,3075.000
-31.668,3077.000,3071.000,3063.000
-29.661,3071.000,3070.000,3069.000
-27.655,3063.000,3070.000,3065.000
-25.646,3070.000,3068.000,3063.000
-23.640,3087.000,3099.000,3094.000
-21.635,3115.000,3103.000,3110.000
-19.628,3073.000,3077.000,3072.000
-17.622,3085.000,3063.000,3066.000
-15.618,3071.000,3068.000,3070.000
-13.613,3087.000,3092.000,3097.000
-11.609,3097.000,3076.000,3084.000
-9.604,3088.000,3072.000,3091.000
-7.602,3100.000,3088.000,3079.000
-5.600,3092.000,3096.000,3082.000
-3.595,3076.000,3076.000,3076.000
-1.597,3104.000,3100.000,3089.000
0.408,3118.000,3113.000,3100.000
2.408,3104.000,3116.000,3098.000
4.407,3089.000,3079.000,3080.000
6.409,3093.000,3079.000,3076.000
8.409,3098.000,3103.000,3113.000
10.406,3133.000,3126.000,3123.000
12.407,3157.000,3155.000,3159.000
14.406,3235.000,3235.000,3237.000
16.401,3350.000,3348.000,3365.000
18.401,3614.000,3614.000,3617.000
20.398,3921.000,3904.000,3885.000
22.394,4086.000,4098.000,4112.000
24.391,4598.000,4592.000,4680.000
26.387,5721.000,5722.000,5640.000
28.383,8268.000,8296.000,8414.000
30.377,8903.000,8948.000,8836.000
32.372,10008.000,10159.000,10235.000
34.366,11333.000,11767.000,11851.000
36.360,10236.000,10184.000,10395.000
38.354,8250.000,8281.000,8320.000
40.346,7572.000,7475.000,7498.000
42.339,6304.000,6411.000,6409.000
44.333,5404.000,5398.000,5404.000
46.322,4544.000,4534.000,4491.000
48.313,3935.000,3931.000,3918.000
50.306,3535.000,3542.000,3552.000
52.294,3348.000,3345.000,3333.000
54.284,3224.000,3203.000,3192.000
56.276,3150.000,3152.000,3145.000
58.263,3109.000,3107.000,3115.000
60.251,3096.000,3098.000,3113.000
62.242,3106.000,3110.000,3113.000
64.228,3119.000,3101.000,3105.000
66.218,3076.000,3078.000,3092.000
68.205,3076.000,3086.000,3086.000
70.189,3087.000,3097.000,3088.000
72.177,3108.000,3108.000,3107.000
74.163,3107.000,3097.000,3111.000
76.146,3084.000,3073.000,3079.000
78.133,3084.000,3077.000,3078.000
80.118,3095.000,3115.000,3108.000
82.101,3094.000,3082.000,3085.000
84.085,3093.000,3098.000,3096.000
86.068,3099.000,3110.000,3107.000
88.054,3100.000,3089.000,3096.000
90.033,3069.000,3073.000,3073.000
92.015,3077.000,3063.000,3072.000
93.999,3095.000,3085.000,3094.000
95.978,3139.000,3136.000,3138.000
97.958,3087.000,3093.000,3100.000
99.941,3074.000,3060.000,3077.000
101.919,3071.000,3067.000,3066.000
103.898,3087.000,3077.000,3070.000
105.879,3067.000,3080.000,3080.000
107.856,3095.000,3081.000,3088.000
109.836,3096.000,3084.000,3092.000
111.814,3087.000,3099.000,3091.000
113.789,3076.000,3066.000,3077.000
115.768,3063.000,3064.000,3061.000
117.744,3082.000,3078.000,3081.000
119.719,3101.000,3091.000,3097.000
121.697,3069.000,3069.000,3067.000
123.671,3060.000,3060.000,3062.000
125.644,3073.000,3077.000,3079.000
127.621,3093.000,3090.000,3082.000
129.594,3077.000,3084.000,3082.000
131.569,3083.000,3074.000,3083.000
133.541,3066.000,3075.000,3067.000
135.514,3073.000,3081.000,3084.000
137.486,3074.000,3064.000,3074.000
139.458,3076.000,3076.000,3066.000
141.429,3087.000,3085.000,3088.000
143.401,3085.000,3100.000,3105.000
145.371,3062.000,3087.000,3083.000
147.342,3070.000,3082.000,3075.000
149.311,3078.000,3087.000,3091.000
151.281,3083.000,3092.000,3078.000
153.252,3094.000,3089.000,3099.000
155.218,3098.000,3095.000,3093.000
157.186,3105.000,3108.000,3100.000
159.157,3135.000,3135.000,3149.000
161.122,3157.000,3156.000,3159.000
163.088,3195.000,3197.000,3186.000
165.057,3199.000,3194.000,3190.000
167.021,3175.000,3183.000,3187.000
168.987,3167.000,3191.000,3185.000
170.954,3197.000,3195.000,3211.000
172.918,3228.000,3266.000,3234.000
174.883,3276.000,3266.000,3271.000
176.847,3329.000,3313.000,3290.000
178.811,3310.000,3335.000,3332.000
180.774,3334.000,3334.000,3356.000
182.737,3342.000,3329.000,3339.000
184.699,3341.000,3313.000,3336.000
186.661,3319.000,3332.000,3317.000
188.623,3317.000,3334.000,3293.000
190.583,3289.000,3286.000,3268.000
192.545,3274.000,3260.000,3250.000
194.504,3266.000,3282.000,3261.000
196.467,3277.000,3280.000,3296.000
198.424,3304.000,3307.000,3305.000
200.383,3303.000,3370.000,3306.000
202.343,3353.000,3340.000,3357.000
204.299,3396.000,3388.000,3382.000
206.257,3409.000,3418.000,3420.000
208.216,3473.000,3471.000,3450.000
210.172,3538.000,3504.000,3520.000
212.128,3579.000,3544.000,3557.000
214.086,3645.000,3608.000,3635.000
216.040,3713.000,3707.000,3719.000
217.998,3829.000,3809.000,3835.000
219.952,3950.000,3952.000,3972.000
221.905,4129.000,4126.000,4139.000
223.862,4308.000,4321.000,4324.000
225.815,4597.000,4594.000,4563.000
227.766,4871.000,4849.000,4874.000
229.721,5248.000,5216.000,5235.000
231.673,5606.000,5555.000,5615.000
233.623,5990.000,6139.000,6103.000
235.576,6508.000,6477.000,6395.000
237.529,6802.000,6854.000,6860.000
239.479,7138.000,7115.000,7109.000
241.430,7073.000,7116.000,7134.000
243.380,7025.000,7048.000,7022.000
245.329,6750.000,6720.000,6721.000
247.278,6403.000,6344.000,6416.000
249.227,5933.000,5996.000,6009.000
251.175,5580.000,5605.000,5618.000
253.124,5222.000,5230.000,5257.000
255.070,4972.000,4955.000,4878.000
257.020,4579.000,4597.000,4647.000
258.964,4419.000,4395.000,4399.000
260.913,4233.000,4223.000,4212.000
262.858,4079.000,4096.000,4086.000
264.802,3960.000,3937.000,3963.000
266.749,3866.000,3852.000,3848.000
268.694,3760.000,3773.000,3763.000
270.636,3648.000,3677.000,3664.000
272.583,3609.000,3617.000,3603.000
274.525,3569.000,3550.000,3565.000
276.468,3537.000,3526.000,3517.000
278.411,3484.000,3487.000,3496.000
280.353,3457.000,3426.000,3461.000
282.295,3471.000,3421.000,3415.000
284.237,3392.000,3406.000,3396.000
286.177,3367.000,3354.000,3398.000
288.118,3377.000,3368.000,3360.000
290.059,3324.000,3327.000,3330.000
291.998,3299.000,3326.000,3320.000
293.938,3276.000,3315.000,3279.000
295.876,3296.000,3305.000,3279.000
297.817,3273.000,3273.000,3291.000
299.753,3253.000,3253.000,3278.000
301.691,3230.000,3235.000,3222.000
303.630,3207.000,3203.000,3202.000
305.565,3178.000,3184.000,3178.000
307.501,3184.000,3166.000,3164.000
309.440,3154.000,3148.000,3151.000
311.373,3157.000,3144.000,3150.000
313.309,3154.000,3124.000,3140.000
315.246,3131.000,3117.000,3108.000
317.178,3118.000,3113.000,3121.000
319.115,3103.000,3107.000,3124.000
321.049,3113.000,3119.000,3107.000
322.980,3101.000,3099.000,3095.000
324.915,3088.000,3102.000,3102.000
326.847,3088.000,3094.000,3084.000
328.777,3085.000,3085.000,3083.000
330.711,3096.000,3089.000,3083.000
332.642,3083.000,3073.000,3078.000
334.573,3080.000,3079.000,3076.000
336.503,3078.000,3075.000,3070.000
338.433,3080.000,3071.000,3067.000
340.363,3068.000,3074.000,3074.000
342.292,3080.000,3066.000,3081.000
344.221,3071.000,3073.000,3073.000
346.151,3074.000,3074.000,3061.000
348.078,3067.000,3073.000,3073.000
350.005,3069.000,3066.000,3078.000
351.935,3069.000,3059.000,3075.000
353.859,3065.000,3075.000,3075.000
355.788,3067.000,3072.000,3071.000
357.714,3062.000,3065.000,3068.000
359.637,3062.000,3068.000,3064.000
361.565,3063.000,3060.000,3067.000
363.489,3051.000,3056.000,3059.000
365.412,3057.000,3053.000,3071.000
367.338,3057.000,3059.000,3058.000
369.261,3063.000,3064.000,3058.000
371.183,3062.000,3046.000,3066.000
373.107,3065.000,3063.000,3066.000
375.029,3071.000,3070.000,3067.000
376.951,3082.000,3067.000,3072.000
378.873,3076.000,3082.000,3084.000
380.794,3103.000,3114.000,3114.000
382.715,3166.000,3168.000,3172.000
384.636,3323.000,3339.000,3370.000
386.555,3710.000,3704.000,3692.000
388.475,4180.000,4176.000,4197.000
390.395,4145.000,4199.000,4192.000
392.313,3772.000,3765.000,3781.000
394.232,3461.000,3471.000,3457.000
396.149,3301.000,3297.000,3282.000
398.069,3198.000,3225.000,3202.000
399.984,3167.000,3163.000,3172.000
401.901,3155.000,3144.000,3144.000
403.820,3117.000,3133.000,3130.000
405.734,3112.000,3118.000,3117.000
407.650,3102.000,3118.000,3115.000
409.566,3104.000,3106.000,3096.000
411.479,3093.000,3098.000,3099.000
413.394,3103.000,3103.000,3094.000
415.310,3085.000,3086.000,3095.000
417.222,3083.000,3102.000,3087.000
419.137,3089.000,3082.000,3096.000
421.049,3091.000,3091.000,3092.000
422.960,3083.000,3099.000,3088.000
424.874,3096.000,3100.000,3099.000
426.785,3097.000,3093.000,3086.000
428.694,3102.000,3088.000,3082.000
430.607,3091.000,3099.000,3096.000
432.519,3098.000,3097.000,3085.000
434.428,3103.000,3108.000,3094.000
436.338,3093.000,3093.000,3096.000
438.247,3096.000,3101.000,3101.000
440.158,3096.000,3100.000,3099.000
442.065,3100.000,3101.000,3107.000
443.973,3097.000,3102.000,3107.000
445.882,3111.000,3113.000,3123.000
447.788,3112.000,3115.000,3115.000
449.694,3116.000,3118.000,3115.000
451.603,3112.000,3129.000,3121.000
453.506,3136.000,3132.000,3138.000
455.412,3155.000,3142.000,3145.000
457.320,3148.000,3145.000,3147.000
459.222,3168.000,3147.000,3162.000
461.129,3167.000,3165.000,3172.000
463.033,3182.000,3195.000,3188.000
464.934,3165.000,3187.000,3186.000
466.840,3209.000,3213.000,3202.000
468.742,3230.000,3231.000,3222.000
470.643,3278.000,3275.000,3290.000
472.547,3297.000,3310.000,3302.000
474.449,3373.000,3350.000,3353.000
476.349,3451.000,3431.000,3429.000
478.251,3487.000,3514.000,3529.000
480.152,3625.000,3670.000,3619.000
482.052,3803.000,3805.000,3844.000
483.952,4034.000,4060.000,4051.000
485.851,4382.000,4385.000,4372.000
487.749,5016.000,4915.000,4955.000
489.648,5924.000,5897.000,5911.000
491.547,7471.000,7521.000,7536.000
493.444,10370.000,10231.000,10333.000
495.342,14117.000,14096.000,14111.000
497.238,17577.000,17573.000,17643.000
499.135,17915.000,17906.000,17868.000
501.031,14824.000,14696.000,14706.000
502.930,11162.000,11217.000,11140.000
504.823,8521.000,8587.000,8541.000
506.718,6804.000,6752.000,6807.000
508.615,5769.000,5741.000,5703.000
510.506,5053.000,5051.000,5102.000
512.400,4684.000,4663.000,4642.000
514.296,4339.000,4352.000,4372.000
516.189,4160.000,4148.000,4139.000
518.080,3961.000,3937.000,3953.000
519.974,3824.000,3808.000,3853.000
521.866,3736.000,3754.000,3724.000
523.758,3667.000,3674.000,3664.000
525.648,3590.000,3585.000,3579.000
527.539,3526.000,3528.000,3554.000
529.430,3467.000,3468.000,3474.000
531.319,3442.000,3434.000,3454.000
533.208,3406.000,3402.000,3406.000
535.098,3388.000,3369.000,3392.000
536.987,3339.000,3347.000,3335.000
538.876,3325.000,3319.000,3321.000
540.763,3294.000,3307.000,3301.000
542.651,3303.000,3280.000,3291.000
544.540,3295.000,3279.000,3265.000
546.425,3277.000,3260.000,3249.000
548.311,3242.000,3234.000,3250.000
550.199,3240.000,3229.000,3235.000
552.083,3234.000,3243.000,3244.000
553.968,3210.000,3222.000,3218.000
555.855,3215.000,3207.000,3227.000
557.737,3206.000,3203.000,3194.000
559.622,3200.000,3186.000,3195.000
561.507,3167.000,3182.000,3188.000
563.388,3179.000,3184.000,3186.000
565.274,3177.000,3173.000,3193.000
567.156,3162.000,3173.000,3175.000
569.036,3160.000,3155.000,3164.000
570.920,3157.000,3166.000,3176.000
572.801,3167.000,3157.000,3156.000
574.680,3145.000,3156.000,3152.000
576.563,3147.000,3170.000,3156.000
578.443,3155.000,3164.000,3151.000
580.321,3155.000,3148.000,3146.000
582.202,3156.000,3149.000,3143.000
584.081,3142.000,3133.000,3136.000
585.960,3129.000,3142.000,3131.000
587.838,3123.000,3122.000,3114.000
589.715,3112.000,3126.000,3107.000
591.593,3114.000,3121.000,3111.000
593.471,3119.000,3108.000,3113.000
595.347,3115.000,3099.000,3106.000
597.223,3109.000,3101.000,3107.000
599.100,3103.000,3104.000,3101.000
600.975,3104.000,3096.000,3101.000
602.852,3100.000,3106.000,3105.000
604.725,3102.000,3115.000,3099.000
606.601,3095.000,3103.000,3108.000
608.476,3109.000,3092.000,3109.000
610.346,3098.000,3104.000,3088.000
612.222,3094.000,3098.000,3114.000
614.095,3092.000,3099.000,3099.000
615.965,3102.000,3110.000,3108.000
617.839,3105.000,3099.000,3100.000
619.711,3100.000,3096.000,3105.000
621.582,3107.000,3098.000,3111.000
623.454,3111.000,3111.000,3100.000
625.323,3111.000,3099.000,3111.000
627.194,3097.000,3102.000,3109.000
629.064,3098.000,3111.000,3106.000
630.933,3103.000,3108.000,3106.000
632.802,3100.000,3098.000,3102.000
634.670,3108.000,3108.000,3098.000
636.539,3092.000,3090.000,3084.000
638.406,3095.000,3089.000,3097.000
640.274,3085.000,3095.000,3091.000
642.143,3082.000,3092.000,3078.000
644.008,3081.000,3080.000,3088.000
645.874,3095.000,3089.000,3082.000
647.741,3077.000,3084.000,3087.000
649.605,3083.000,3076.000,3089.000
651.470,3083.000,3085.000,3081.000
653.337,3087.000,3081.000,3077.000
655.200,3085.000,3078.000,3081.000
657.064,3073.000,3072.000,3083.000
658.929,3078.000,3076.000,3092.000
660.790,3085.000,3091.000,3089.000
662.655,3078.000,3078.000,3076.000
664.518,3075.000,3080.000,3084.000
666.378,3077.000,3083.000,3077.000
668.242,3078.000,3091.000,3080.000
670.102,3075.000,3080.000,3076.000
671.962,3069.000,3072.000,3076.000
673.824,3081.000,3085.000,3069.000
675.685,3075.000,3079.000,3078.000
677.545,3068.000,3064.000,3080.000
679.404,3075.000,3081.000,3079.000
681.263,3075.000,3083.000,3072.000
683.121,3069.000,3067.000,3074.000
684.979,3071.000,3079.000,3072.000
686.837,3071.000,3075.000,3074.000
688.697,3075.000,3073.000,3075.000
690.552,3068.000,3067.000,3065.000
692.409,3058.000,3061.000,3065.000
694.267,3065.000,3061.000,3065.000
696.121,3067.000,3068.000,3054.000
697.979,3066.000,3055.000,3049.000
699.834,3060.000,3064.000,3055.000
701.687,3059.000,3059.000,3059.000
703.544,3060.000,3051.000,3062.000
705.397,3051.000,3063.000,3062.000
707.249,3065.000,3052.000,3065.000
709.104,3065.000,3061.000,3067.000
710.957,3063.000,3058.000,3063.000
712.808,3062.000,3055.000,3073.000
714.662,3063.000,3063.000,3064.000
716.514,3072.000,3063.000,3074.000
718.365,3067.000,3063.000,3076.000
720.216,3072.000,3069.000,3068.000
722.067,3073.000,3062.000,3071.000
723.918,3071.000,3071.000,3067.000
725.768,3065.000,3069.000,3070.000
727.616,3068.000,3069.000,3062.000
729.466,3071.000,3067.000,3070.000
731.315,3063.000,3071.000,3068.000
733.163,3072.000,3071.000,3073.000
735.011,3067.000,3064.000,3066.000
736.858,3067.000,3059.000,3060.000
738.708,3064.000,3061.000,3065.000
740.552,3069.000,3075.000,3068.000
742.399,3069.000,3077.000,3070.000
744.247,3071.000,3071.000,3073.000
746.091,3060.000,3062.000,3071.000
747.937,3064.000,3072.000,3071.000
749.783,3061.000,3072.000,3069.000
751.626,3063.000,3062.000,3069.000
753.470,3067.000,3070.000,3062.000
755.316,3063.000,3062.000,3051.000
757.158,3064.000,3069.000,3053.000
759.003,3068.000,3069.000,3057.000
760.846,3062.000,3063.000,3060.000
762.685,3065.000,3069.000,3055.000
764.529,3064.000,3064.000,3061.000
766.371,3071.000,3069.000,3064.000
768.213,3069.000,3068.000,3059.000
770.053,3075.000,3064.000,3063.000
771.894,3062.000,3066.000,3063.000
773.734,3062.000,3062.000,3067.000
775.574,3073.000,3069.000,3077.000
777.413,3059.000,3067.000,3066.000
779.253,3057.000,3064.000,3063.000
781.090,3068.000,3064.000,3053.000
782.929,3065.000,3061.000,3065.000
784.768,3071.000,3067.000,3075.000
786.604,3062.000,3063.000,3057.000
788.441,3060.000,3071.000,3065.000
790.280,3052.000,3062.000,3064.000
792.114,3069.000,3068.000,3071.000
793.950,3068.000,3067.000,3068.000
795.788,3071.000,3073.000,3067.000
797.621,3073.000,3069.000,3070.000
799.457,3063.000,3081.000,3062.000
801.292,3065.000,3061.000,3070.000
803.124,3058.000,3075.000,3071.000
804.960,3058.000,3070.000,3064.000
806.794,3069.000,3073.000,3075.000
808.624,3065.000,3059.000,3063.000
810.459,3064.000,3077.000,3063.000
812.291,3071.000,3062.000,3073.000
814.121,3064.000,3076.000,3061.000
815.955,3061.000,3070.000,3074.000
817.786,3073.000,3063.000,3073.000
819.616,3070.000,3079.000,3076.000
821.447,3076.000,3069.000,3071.000
823.277,3083.000,3064.000,3075.000
825.106,3085.000,3082.000,3086.000
826.936,3081.000,3079.000,3089.000
828.765,3096.000,3084.000,3099.000
830.593,3092.000,3090.000,3099.000
832.421,3093.000,3089.000,3097.000
834.249,3092.000,3106.000,3084.000
836.076,3087.000,3095.000,3092.000
837.903,3088.000,3094.000,3089.000
839.731,3094.000,3090.000,3087.000
841.557,3095.000,3092.000,3094.000
843.382,3099.000,3104.000,3097.000
845.210,3094.000,3091.000,3094.000
847.033,3091.000,3094.000,3090.000
848.857,3086.000,3085.000,3095.000
850.684,3089.000,3094.000,3090.000
852.508,3090.000,3096.000,3084.000
854.330,3088.000,3088.000,3082.000
856.155,3084.000,3090.000,3087.000
857.978,3078.000,3089.000,3086.000
859.800,3084.000,3083.000,3081.000
861.622,3088.000,3083.000,3095.000
863.444,3085.000,3084.000,3087.000
865.266,3080.000,3095.000,3094.000
867.086,3095.000,3077.000,3079.000
868.907,3093.000,3090.000,3096.000
870.728,3081.000,3093.000,3090.000
872.547,3092.000,3096.000,3087.000
874.367,3090.000,3096.000,3083.000
876.187,3093.000,3086.000,3094.000
878.005,3092.000,3076.000,3091.000
879.826,3088.000,3087.000,3087.000
881.642,3094.000,3080.000,3091.000
883.460,3092.000,3084.000,3082.000
885.279,3090.000,3095.000,3100.000
887.095,3082.000,3093.000,3090.000
888.911,3087.000,3085.000,3085.000
890.729,3078.000,3085.000,3100.000
892.543,3077.000,3083.000,3087.000
894.359,3082.000,3083.000,3087.000
896.175,3085.000,3075.000,3087.000
897.989,3082.000,3076.000,3079.000
899.805,3071.000,3076.000,3086.000
901.619,3074.000,3080.000,3083.000
903.431,3088.000,3078.000,3087.000
905.246,3074.000,3080.000,3085.000
907.059,3075.000,3074.000,3080.000
908.870,3079.000,3073.000,3076.000
910.684,3075.000,3076.000,3073.000
912.495,3078.000,3086.000,3071.000
914.306,3082.000,3082.000,3079.000
916.118,3084.000,3087.000,3085.000
917.930,3088.000,3079.000,3083.000
919.740,3091.000,3086.000,3083.000
921.549,3099.000,3084.000,3080.000
923.359,3081.000,3089.000,3090.000
925.168,3099.000,3089.000,3087.000
926.977,3096.000,3085.000,3086.000
928.785,3100.000,3086.000,3082.000
930.596,3071.000,3098.000,3085.000
932.402,3078.000,3089.000,3088.000
934.209,3084.000,3073.000,3082.000
936.018,3075.000,3079.000,3081.000
937.824,3071.000,3092.000,3091.000
939.632,3071.000,3079.000,3087.000
941.437,3082.000,3075.000,3072.000
943.242,3075.000,3079.000,3084.000
945.049,3071.000,3086.000,3083.000
946.853,3074.000,3085.000,3085.000
948.656,3087.000,3091.000,3071.000
950.462,3090.000,3089.000,3084.000
952.266,3087.000,3092.000,3079.000
954.067,3074.000,3089.000,3087.000
955.873,3095.000,3084.000,3086.000
957.675,3094.000,3085.000,3087.000
959.477,3097.000,3081.000,3084.000
961.279,3082.000,3084.000,3082.000
963.081,3078.000,3073.000,3088.000
964.882,3074.000,3080.000,3072.000
966.683,3067.000,3081.000,3072.000
968.484,3064.000,3073.000,3079.000
970.284,3071.000,3067.000,3069.000
972.084,3063.000,3066.000,3078.000
973.886,3063.000,3069.000,3067.000
975.682,3057.000,3063.000,3066.000
977.481,3074.000,3066.000,3071.000
979.282,3069.000,3066.000,3074.000
981.078,3072.000,3075.000,3071.000
982.875,3072.000,3079.000,3064.000
984.674,3066.000,3075.000,3065.000
986.469,3075.000,3071.000,3073.000
988.265,3073.000,3069.000,3068.000
990.064,3073.000,3077.000,3075.000
991.858,3071.000,3066.000,3068.000
993.656,3070.000,3073.000,3079.000
995.451,3074.000,3069.000,3070.000
997.243,3074.000,3064.000,3069.000
999.040,3075.000,3074.000,3077.000
1000.834,3068.000,3064.000,3069.000
