3997.65486	0.11437
3995.59527	0.11436
3993.53569	0.11428
3991.47610	0.11414
3989.41652	0.11429
3987.35693	0.11437
3985.29735	0.11404
3983.23776	0.11376
3981.17817	0.11375
3979.11859	0.11366
3977.05900	0.11310
3974.99942	0.11276
3972.93983	0.11299
3970.88025	0.11350
3968.82066	0.11407
3966.76108	0.11441
3964.70149	0.11428
3962.64191	0.11391
3960.58232	0.11363
3958.52274	0.11269
3956.46315	0.11169
3954.40357	0.11185
3952.34398	0.11232
3950.28440	0.11194
3948.22481	0.11137
3946.16523	0.11148
3944.10564	0.11139
3942.04606	0.11187
3939.98647	0.11280
3937.92689	0.11260
3935.86730	0.11190
3933.80772	0.11134
3931.74813	0.11187
3929.68855	0.11308
3927.62896	0.11280
3925.56937	0.11144
3923.50979	0.11148
3921.45020	0.11187
3919.39062	0.11104
3917.33103	0.11047
3915.27145	0.11110
3913.21186	0.11136
3911.15228	0.11131
3909.09269	0.11215
3907.03311	0.11203
3904.97352	0.11057
3902.91394	0.11036
3900.85435	0.11023
3898.79477	0.11002
3896.73518	0.11099
3894.67560	0.11040
3892.61601	0.10822
3890.55643	0.10907
3888.49684	0.11088
3886.43726	0.10962
3884.37767	0.11033
3882.31809	0.11026
3880.25850	0.10895
3878.19892	0.11114
3876.13933	0.11131
3874.07974	0.10951
3872.02016	0.10792
3869.96057	0.10709
3867.90099	0.10977
3865.84140	0.10939
3863.78182	0.10755
3861.72223	0.10847
3859.66265	0.11025
3857.60306	0.10993
3855.54348	0.10451
3853.48389	0.10107
3851.42431	0.10698
3849.36472	0.11064
3847.30514	0.10902
3845.24555	0.10685
3843.18597	0.10731
3841.12638	0.10867
3839.06680	0.10733
3837.00721	0.10657
3834.94763	0.10749
3832.88804	0.10687
3830.82846	0.10604
3828.76887	0.10536
3826.70929	0.10517
3824.64970	0.10629
3822.59012	0.10487
3820.53053	0.10596
3818.47094	0.10825
3816.41136	0.10525
3814.35177	0.10557
3812.29219	0.10761
3810.23260	0.10595
3808.17302	0.10223
3806.11343	0.10254
3804.05385	0.10398
3801.99426	0.10182
3799.93468	0.10378
3797.87509	0.10519
3795.81551	0.10411
3793.75592	0.10447
3791.69634	0.10424
3789.63675	0.10365
3787.57717	0.10317
3785.51758	0.10276
3783.45800	0.10313
3781.39841	0.10218
3779.33883	0.10070
3777.27924	0.10181
3775.21966	0.10298
3773.16007	0.10240
3771.10049	0.10041
3769.04090	0.10031
3766.98132	0.10160
3764.92173	0.10252
3762.86214	0.10288
3760.80256	0.10034
3758.74297	0.09909
3756.68339	0.10117
3754.62380	0.10094
3752.56422	0.09696
3750.50463	0.09672
3748.44505	0.10187
3746.38546	0.10119
3744.32588	0.09806
3742.26629	0.10299
3740.20671	0.10562
3738.14712	0.10205
3736.08754	0.09749
3734.02795	0.09654
3731.96837	0.09785
3729.90878	0.09920
3727.84920	0.09829
3725.78961	0.09739
3723.73003	0.09762
3721.67044	0.09739
3719.61086	0.09773
3717.55127	0.09875
3715.49169	0.09852
3713.43210	0.09530
3711.37251	0.09332
3709.31293	0.09548
3707.25334	0.09781
3705.19376	0.09737
3703.13417	0.09514
3701.07459	0.09491
3699.01500	0.09644
3696.95542	0.09666
3694.89583	0.09673
3692.83625	0.09571
3690.77666	0.09255
3688.71708	0.09146
3686.65749	0.09486
3684.59791	0.09654
3682.53832	0.09523
3680.47874	0.09452
3678.41915	0.09347
3676.35957	0.09095
3674.29998	0.09385
3672.24040	0.09566
3670.18081	0.09204
3668.12123	0.09296
3666.06164	0.09491
3664.00206	0.09409
3661.94247	0.09367
3659.88289	0.09398
3657.82330	0.09285
3655.76371	0.09348
3653.70413	0.09582
3651.64454	0.09336
3649.58496	0.09076
3647.52537	0.09353
3645.46579	0.09672
3643.40620	0.09624
3641.34662	0.09442
3639.28703	0.09394
3637.22745	0.09428
3635.16786	0.09494
3633.10828	0.09611
3631.04869	0.09444
3628.98911	0.09128
3626.92952	0.09418
3624.86994	0.09721
3622.81035	0.09643
3620.75077	0.09415
3618.69118	0.09403
3616.63160	0.09566
3614.57201	0.09523
3612.51243	0.09490
3610.45284	0.09566
3608.39326	0.09605
3606.33367	0.09725
3604.27408	0.09782
3602.21450	0.09709
3600.15491	0.09712
3598.09533	0.09800
3596.03574	0.09851
3593.97616	0.09980
3591.91657	0.10137
3589.85699	0.09996
3587.79740	0.09779
3585.73782	0.09946
3583.67823	0.10174
3581.61865	0.10174
3579.55906	0.10108
3577.49948	0.10094
3575.43989	0.10123
3573.38031	0.10193
3571.32072	0.10265
3569.26114	0.10215
3567.20155	0.10191
3565.14197	0.10389
3563.08238	0.10513
3561.02280	0.10448
3558.96321	0.10399
3556.90363	0.10448
3554.84404	0.10512
3552.78446	0.10559
3550.72487	0.10638
3548.66528	0.10667
3546.60570	0.10677
3544.54611	0.10792
3542.48653	0.10878
3540.42694	0.10852
3538.36736	0.10808
3536.30777	0.10825
3534.24819	0.10911
3532.18860	0.10976
3530.12902	0.11003
3528.06943	0.11062
3526.00985	0.11165
3523.95026	0.11237
3521.89068	0.11264
3519.83109	0.11244
3517.77151	0.11222
3515.71192	0.11240
3513.65234	0.11255
3511.59275	0.11266
3509.53317	0.11321
3507.47358	0.11428
3505.41400	0.11445
3503.35441	0.11436
3501.29483	0.11551
3499.23524	0.11628
3497.17565	0.11611
3495.11607	0.11635
3493.05648	0.11691
3490.99690	0.11697
3488.93731	0.11719
3486.87773	0.11827
3484.81814	0.11890
3482.75856	0.11834
3480.69897	0.11852
3478.63939	0.11949
3476.57980	0.11961
3474.52022	0.11933
3472.46063	0.11977
3470.40105	0.12050
3468.34146	0.12093
3466.28188	0.12132
3464.22229	0.12169
3462.16271	0.12212
3460.10312	0.12291
3458.04354	0.12343
3455.98395	0.12347
3453.92437	0.12352
3451.86478	0.12400
3449.80520	0.12448
3447.74561	0.12473
3445.68603	0.12562
3443.62644	0.12658
3441.56685	0.12760
3439.50727	0.12884
3437.44768	0.12953
3435.38810	0.12980
3433.32851	0.12975
3431.26893	0.12973
3429.20934	0.13016
3427.14976	0.13087
3425.09017	0.13147
3423.03059	0.13180
3420.97100	0.13226
3418.91142	0.13310
3416.85183	0.13384
3414.79225	0.13446
3412.73266	0.13491
3410.67308	0.13523
3408.61349	0.13590
3406.55391	0.13689
3404.49432	0.13788
3402.43474	0.13864
3400.37515	0.13901
3398.31557	0.13908
3396.25598	0.13931
3394.19640	0.13961
3392.13681	0.13995
3390.07723	0.14045
3388.01764	0.14085
3385.95805	0.14129
3383.89847	0.14205
3381.83888	0.14277
3379.77930	0.14305
3377.71971	0.14337
3375.66013	0.14401
3373.60054	0.14488
3371.54096	0.14600
3369.48137	0.14701
3367.42179	0.14793
3365.36220	0.14905
3363.30262	0.14988
3361.24303	0.15041
3359.18345	0.15137
3357.12386	0.15283
3355.06428	0.15429
3353.00469	0.15513
3350.94511	0.15587
3348.88552	0.15717
3346.82594	0.15860
3344.76635	0.16002
3342.70677	0.16139
3340.64718	0.16263
3338.58760	0.16380
3336.52801	0.16497
3334.46842	0.16618
3332.40884	0.16748
3330.34925	0.16888
3328.28967	0.17052
3326.23008	0.17232
3324.17050	0.17391
3322.11091	0.17544
3320.05133	0.17732
3317.99174	0.17967
3315.93216	0.18230
3313.87257	0.18450
3311.81299	0.18605
3309.75340	0.18775
3307.69382	0.18992
3305.63423	0.19210
3303.57465	0.19450
3301.51506	0.19723
3299.45548	0.19967
3297.39589	0.20154
3295.33631	0.20343
3293.27672	0.20618
3291.21714	0.20955
3289.15755	0.21257
3287.09797	0.21513
3285.03838	0.21766
3282.97880	0.22028
3280.91921	0.22332
3278.85962	0.22639
3276.80004	0.22850
3274.74045	0.22984
3272.68087	0.23103
3270.62128	0.23198
3268.56170	0.23225
3266.50211	0.23172
3264.44253	0.23082
3262.38294	0.22958
3260.32336	0.22786
3258.26377	0.22626
3256.20419	0.22497
3254.14460	0.22328
3252.08502	0.22130
3250.02543	0.21971
3247.96585	0.21809
3245.90626	0.21567
3243.84668	0.21332
3241.78709	0.21171
3239.72751	0.21012
3237.66792	0.20846
3235.60834	0.20726
3233.54875	0.20634
3231.48917	0.20532
3229.42958	0.20409
3227.36999	0.20289
3225.31041	0.20185
3223.25082	0.20074
3221.19124	0.19960
3219.13165	0.19862
3217.07207	0.19787
3215.01248	0.19719
3212.95290	0.19625
3210.89331	0.19483
3208.83373	0.19366
3206.77414	0.19316
3204.71456	0.19276
3202.65497	0.19234
3200.59539	0.19161
3198.53580	0.19028
3196.47622	0.18894
3194.41663	0.18767
3192.35705	0.18619
3190.29746	0.18475
3188.23788	0.18353
3186.17829	0.18242
3184.11871	0.18129
3182.05912	0.18001
3179.99954	0.17864
3177.93995	0.17745
3175.88037	0.17630
3173.82078	0.17475
3171.76119	0.17312
3169.70161	0.17191
3167.64202	0.17108
3165.58244	0.17001
3163.52285	0.16863
3161.46327	0.16742
3159.40368	0.16634
3157.34410	0.16515
3155.28451	0.16387
3153.22493	0.16281
3151.16534	0.16183
3149.10576	0.16038
3147.04617	0.15870
3144.98659	0.15753
3142.92700	0.15686
3140.86742	0.15624
3138.80783	0.15556
3136.74825	0.15459
3134.68866	0.15318
3132.62908	0.15209
3130.56949	0.15180
3128.50991	0.15154
3126.45032	0.15078
3124.39074	0.14983
3122.33115	0.14919
3120.27156	0.14894
3118.21198	0.14880
3116.15239	0.14850
3114.09281	0.14815
3112.03322	0.14774
3109.97364	0.14731
3107.91405	0.14718
3105.85447	0.14721
3103.79488	0.14689
3101.73530	0.14640
3099.67571	0.14639
3097.61613	0.14679
3095.55654	0.14740
3093.49696	0.14798
3091.43737	0.14818
3089.37779	0.14818
3087.31820	0.14834
3085.25862	0.14868
3083.19903	0.14887
3081.13945	0.14896
3079.07986	0.14924
3077.02028	0.14959
3074.96069	0.14981
3072.90111	0.14990
3070.84152	0.15011
3068.78194	0.15038
3066.72235	0.15020
3064.66276	0.14961
3062.60318	0.14918
3060.54359	0.14893
3058.48401	0.14857
3056.42442	0.14811
3054.36484	0.14757
3052.30525	0.14691
3050.24567	0.14604
3048.18608	0.14503
3046.12650	0.14431
3044.06691	0.14397
3042.00733	0.14340
3039.94774	0.14224
3037.88816	0.14113
3035.82857	0.14057
3033.76899	0.14010
3031.70940	0.13914
3029.64982	0.13797
3027.59023	0.13701
3025.53065	0.13624
3023.47106	0.13548
3021.41148	0.13482
3019.35189	0.13425
3017.29231	0.13358
3015.23272	0.13308
3013.17313	0.13263
3011.11355	0.13180
3009.05396	0.13095
3006.99438	0.13023
3004.93479	0.12960
3002.87521	0.12938
3000.81562	0.12954
2998.75604	0.12956
2996.69645	0.12937
2994.63687	0.12950
2992.57728	0.13003
2990.51770	0.13064
2988.45811	0.13123
2986.39853	0.13199
2984.33894	0.13295
2982.27936	0.13372
2980.21977	0.13409
2978.16019	0.13450
2976.10060	0.13527
2974.04102	0.13606
2971.98143	0.13642
2969.92185	0.13673
2967.86226	0.13743
2965.80268	0.13807
2963.74309	0.13826
2961.68351	0.13801
2959.62392	0.13758
2957.56433	0.13729
2955.50475	0.13731
2953.44516	0.13741
2951.38558	0.13720
2949.32599	0.13688
2947.26641	0.13700
2945.20682	0.13758
2943.14724	0.13825
2941.08765	0.13889
2939.02807	0.13978
2936.96848	0.14108
2934.90890	0.14261
2932.84931	0.14418
2930.78973	0.14569
2928.73014	0.14685
2926.67056	0.14767
2924.61097	0.14843
2922.55139	0.14892
2920.49180	0.14870
2918.43222	0.14754
2916.37263	0.14531
2914.31305	0.14263
2912.25346	0.14051
2910.19388	0.13895
2908.13429	0.13727
2906.07471	0.13556
2904.01512	0.13423
2901.95553	0.13314
2899.89595	0.13210
2897.83636	0.13128
2895.77678	0.13071
2893.71719	0.13022
2891.65761	0.12975
2889.59802	0.12924
2887.53844	0.12869
2885.47885	0.12825
2883.41927	0.12804
2881.35968	0.12812
2879.30010	0.12831
2877.24051	0.12829
2875.18093	0.12831
2873.12134	0.12847
2871.06176	0.12815
2869.00217	0.12743
2866.94259	0.12701
2864.88300	0.12688
2862.82342	0.12644
2860.76383	0.12585
2858.70425	0.12570
2856.64466	0.12589
2854.58508	0.12627
2852.52549	0.12660
2850.46590	0.12610
2848.40632	0.12474
2846.34673	0.12326
2844.28715	0.12205
2842.22756	0.12108
2840.16798	0.12013
2838.10839	0.11910
2836.04881	0.11817
2833.98922	0.11748
2831.92964	0.11690
2829.87005	0.11619
2827.81047	0.11547
2825.75088	0.11502
2823.69130	0.11465
2821.63171	0.11406
2819.57213	0.11343
2817.51254	0.11317
2815.45296	0.11327
2813.39337	0.11320
2811.33379	0.11280
2809.27420	0.11235
2807.21462	0.11211
2805.15503	0.11199
2803.09545	0.11170
2801.03586	0.11147
2798.97628	0.11128
2796.91669	0.11077
2794.85710	0.11042
2792.79752	0.11062
2790.73793	0.11080
2788.67835	0.11065
2786.61876	0.11024
2784.55918	0.10971
2782.49959	0.10905
2780.44001	0.10844
2778.38042	0.10832
2776.32084	0.10839
2774.26125	0.10822
2772.20167	0.10796
2770.14208	0.10759
2768.08250	0.10734
2766.02291	0.10732
2763.96333	0.10718
2761.90374	0.10676
2759.84416	0.10637
2757.78457	0.10626
2755.72499	0.10609
2753.66540	0.10566
2751.60582	0.10530
2749.54623	0.10504
2747.48665	0.10479
2745.42706	0.10453
2743.36747	0.10420
2741.30789	0.10391
2739.24830	0.10373
2737.18872	0.10361
2735.12913	0.10341
2733.06955	0.10305
2731.00996	0.10268
2728.95038	0.10245
2726.89079	0.10224
2724.83121	0.10187
2722.77162	0.10143
2720.71204	0.10114
2718.65245	0.10111
2716.59287	0.10108
2714.53328	0.10080
2712.47370	0.10041
2710.41411	0.10001
2708.35453	0.09960
2706.29494	0.09929
2704.23536	0.09904
2702.17577	0.09887
2700.11619	0.09887
2698.05660	0.09883
2695.99702	0.09873
2693.93743	0.09860
2691.87785	0.09840
2689.81826	0.09823
2687.75867	0.09807
2685.69909	0.09789
2683.63950	0.09762
2681.57992	0.09717
2679.52033	0.09679
2677.46075	0.09669
2675.40116	0.09648
2673.34158	0.09610
2671.28199	0.09581
2669.22241	0.09561
2667.16282	0.09553
2665.10324	0.09558
2663.04365	0.09563
2660.98407	0.09567
2658.92448	0.09575
2656.86490	0.09562
2654.80531	0.09528
2652.74573	0.09494
2650.68614	0.09457
2648.62656	0.09423
2646.56697	0.09405
2644.50739	0.09399
2642.44780	0.09388
2640.38822	0.09371
2638.32863	0.09355
2636.26904	0.09335
2634.20946	0.09300
2632.14987	0.09249
2630.09029	0.09208
2628.03070	0.09177
2625.97112	0.09132
2623.91153	0.09076
2621.85195	0.09024
2619.79236	0.09004
2617.73278	0.08995
2615.67319	0.08958
2613.61361	0.08919
2611.55402	0.08898
2609.49444	0.08885
2607.43485	0.08862
2605.37527	0.08814
2603.31568	0.08780
2601.25610	0.08791
2599.19651	0.08782
2597.13693	0.08720
2595.07734	0.08643
2593.01776	0.08604
2590.95817	0.08613
2588.89859	0.08614
2586.83900	0.08597
2584.77942	0.08597
2582.71983	0.08596
2580.66024	0.08565
2578.60066	0.08521
2576.54107	0.08495
2574.48149	0.08482
2572.42190	0.08451
2570.36232	0.08407
2568.30273	0.08372
2566.24315	0.08352
2564.18356	0.08341
2562.12398	0.08351
2560.06439	0.08371
2558.00481	0.08370
2555.94522	0.08347
2553.88564	0.08308
2551.82605	0.08239
2549.76647	0.08168
2547.70688	0.08158
2545.64730	0.08183
2543.58771	0.08186
2541.52813	0.08190
2539.46854	0.08171
2537.40896	0.08093
2535.34937	0.08029
2533.28979	0.08038
2531.23020	0.08069
2529.17062	0.08070
2527.11103	0.08056
2525.05144	0.08053
2522.99186	0.08054
2520.93227	0.08036
2518.87269	0.07984
2516.81310	0.07913
2514.75352	0.07878
2512.69393	0.07896
2510.63435	0.07917
2508.57476	0.07901
2506.51518	0.07859
2504.45559	0.07818
2502.39601	0.07821
2500.33642	0.07853
2498.27684	0.07849
2496.21725	0.07824
2494.15767	0.07845
2492.09808	0.07880
2490.03850	0.07873
2487.97891	0.07838
2485.91933	0.07803
2483.85974	0.07785
2481.80016	0.07757
2479.74057	0.07735
2477.68099	0.07757
2475.62140	0.07764
2473.56181	0.07752
2471.50223	0.07746
2469.44264	0.07712
2467.38306	0.07672
2465.32347	0.07655
2463.26389	0.07634
2461.20430	0.07614
2459.14472	0.07636
2457.08513	0.07674
2455.02555	0.07656
2452.96596	0.07590
2450.90638	0.07555
2448.84679	0.07566
2446.78721	0.07566
2444.72762	0.07577
2442.66804	0.07618
2440.60845	0.07588
2438.54887	0.07499
2436.48928	0.07457
2434.42970	0.07452
2432.37011	0.07456
2430.31053	0.07478
2428.25094	0.07513
2426.19136	0.07505
2424.13177	0.07451
2422.07219	0.07399
2420.01260	0.07364
2417.95301	0.07354
2415.89343	0.07353
2413.83384	0.07341
2411.77426	0.07333
2409.71467	0.07330
2407.65509	0.07329
2405.59550	0.07333
2403.53592	0.07327
2401.47633	0.07302
2399.41675	0.07261
2397.35716	0.07250
2395.29758	0.07241
2393.23799	0.07220
2391.17841	0.07208
2389.11882	0.07219
2387.05924	0.07242
2384.99965	0.07256
2382.94007	0.07246
2380.88048	0.07207
2378.82090	0.07142
2376.76131	0.07084
2374.70173	0.06954
2372.64214	0.06874
2370.58256	0.06897
2368.52297	0.06890
2366.46338	0.06893
2364.40380	0.06764
2362.34421	0.06643
2360.28463	0.06788
2358.22504	0.06866
2356.16546	0.06995
2354.10587	0.07067
2352.04629	0.07083
2349.98670	0.07182
2347.92712	0.07055
2345.86753	0.07003
2343.80795	0.07106
2341.74836	0.06892
2339.68878	0.06640
2337.62919	0.06570
2335.56961	0.06808
2333.51002	0.07270
2331.45044	0.07384
2329.39085	0.07259
2327.33127	0.06914
2325.27168	0.06601
2323.21210	0.06376
2321.15251	0.06282
2319.09293	0.06334
2317.03334	0.06421
2314.97376	0.06564
2312.91417	0.06606
2310.85458	0.06598
2308.79500	0.06577
2306.73541	0.06556
2304.67583	0.06594
2302.61624	0.06638
2300.55666	0.06665
2298.49707	0.06675
2296.43749	0.06710
2294.37790	0.06754
2292.31832	0.06784
2290.25873	0.06748
2288.19915	0.06669
2286.13956	0.06595
2284.07998	0.06525
2282.02039	0.06442
2279.96081	0.06381
2277.90122	0.06345
2275.84164	0.06315
2273.78205	0.06262
2271.72247	0.06179
2269.66288	0.06125
2267.60330	0.06104
2265.54371	0.06120
2263.48413	0.06172
2261.42454	0.06202
2259.36495	0.06186
2257.30537	0.06127
2255.24578	0.06057
2253.18620	0.06020
2251.12661	0.05981
2249.06703	0.05929
2247.00744	0.05932
2244.94786	0.05921
2242.88827	0.05864
2240.82869	0.05825
2238.76910	0.05800
2236.70952	0.05747
2234.64993	0.05681
2232.59035	0.05636
2230.53076	0.05622
2228.47118	0.05639
2226.41159	0.05682
2224.35201	0.05670
2222.29242	0.05593
2220.23284	0.05573
2218.17325	0.05600
2216.11367	0.05610
2214.05408	0.05587
2211.99450	0.05518
2209.93491	0.05442
2207.87533	0.05355
2205.81574	0.05302
2203.75615	0.05370
2201.69657	0.05432
2199.63698	0.05374
2197.57740	0.05298
2195.51781	0.05249
2193.45823	0.05179
2191.39864	0.05121
2189.33906	0.05095
2187.27947	0.05056
2185.21989	0.04980
2183.16030	0.04875
2181.10072	0.04804
2179.04113	0.04832
2176.98155	0.04860
2174.92196	0.04806
2172.86238	0.04742
2170.80279	0.04759
2168.74321	0.04833
2166.68362	0.04910
2164.62404	0.04975
2162.56445	0.04921
2160.50487	0.04618
2158.44528	0.04287
2156.38570	0.04299
2154.32611	0.04456
2152.26652	0.04484
2150.20694	0.04512
2148.14735	0.04599
2146.08777	0.04657
2144.02818	0.04697
2141.96860	0.04730
2139.90901	0.04745
2137.84943	0.04760
2135.78984	0.04773
2133.73026	0.04844
2131.67067	0.04975
2129.61109	0.05072
2127.55150	0.05115
2125.49192	0.05118
2123.43233	0.05123
2121.37275	0.05181
2119.31316	0.05233
2117.25358	0.05255
2115.19399	0.05265
2113.13441	0.05220
2111.07482	0.05167
2109.01524	0.05173
2106.95565	0.05185
2104.89607	0.05162
2102.83648	0.05186
2100.77690	0.05241
2098.71731	0.05208
2096.65772	0.05104
2094.59814	0.05025
2092.53855	0.05005
2090.47897	0.05019
2088.41938	0.05054
2086.35980	0.05082
2084.30021	0.05048
2082.24063	0.04957
2080.18104	0.04891
2078.12146	0.04892
2076.06187	0.04926
2074.00229	0.04948
2071.94270	0.04920
2069.88312	0.04846
2067.82353	0.04790
2065.76395	0.04797
2063.70436	0.04825
2061.64478	0.04813
2059.58519	0.04751
2057.52561	0.04668
2055.46602	0.04615
2053.40644	0.04614
2051.34685	0.04598
2049.28727	0.04477
2047.22768	0.04308
2045.16810	0.04252
2043.10851	0.04287
2041.04892	0.04307
2038.98934	0.04275
2036.92975	0.04204
2034.87017	0.04159
2032.81058	0.04098
2030.75100	0.03949
2028.69141	0.03805
2026.63183	0.03782
2024.57224	0.03825
2022.51266	0.03814
2020.45307	0.03759
2018.39349	0.03781
2016.33390	0.03917
2014.27432	0.04037
2012.21473	0.04077
2010.15515	0.04021
2008.09556	0.03860
2006.03598	0.03768
2003.97639	0.03804
2001.91681	0.03857
1999.85722	0.03887
1997.79764	0.03909
1995.73805	0.03915
1993.67847	0.03901
1991.61888	0.03946
1989.55929	0.04066
1987.49971	0.04149
1985.44012	0.04114
1983.38054	0.04005
1981.32095	0.03952
1979.26137	0.03880
1977.20178	0.03698
1975.14220	0.03602
1973.08261	0.03658
1971.02303	0.03648
1968.96344	0.03540
1966.90386	0.03559
1964.84427	0.03692
1962.78469	0.03709
1960.72510	0.03621
1958.66552	0.03550
1956.60593	0.03559
1954.54635	0.03656
1952.48676	0.03810
1950.42718	0.03921
1948.36759	0.03919
1946.30801	0.03847
1944.24842	0.03743
1942.18884	0.03715
1940.12925	0.03814
1938.06967	0.03862
1936.01008	0.03856
1933.95049	0.03859
1931.89091	0.03874
1929.83132	0.03917
1927.77174	0.03981
1925.71215	0.03982
1923.65257	0.03923
1921.59298	0.03949
1919.53340	0.03956
1917.47381	0.03930
1915.41423	0.03958
1913.35464	0.03926
1911.29506	0.03873
1909.23547	0.03872
1907.17589	0.03898
1905.11630	0.03887
1903.05672	0.03860
1900.99713	0.03845
1898.93755	0.03827
1896.87796	0.03800
1894.81838	0.03802
1892.75879	0.03832
1890.69921	0.03805
1888.63962	0.03803
1886.58004	0.03829
1884.52045	0.03794
1882.46086	0.03755
1880.40128	0.03736
1878.34169	0.03736
1876.28211	0.03741
1874.22252	0.03734
1872.16294	0.03701
1870.10335	0.03614
1868.04377	0.03594
1865.98418	0.03652
1863.92460	0.03651
1861.86501	0.03632
1859.80543	0.03627
1857.74584	0.03615
1855.68626	0.03600
1853.62667	0.03591
1851.56709	0.03572
1849.50750	0.03534
1847.44792	0.03493
1845.38833	0.03412
1843.32875	0.03421
1841.26916	0.03507
1839.20958	0.03452
1837.14999	0.03369
1835.09041	0.03380
1833.03082	0.03407
1830.97124	0.03362
1828.91165	0.03353
1826.85206	0.03350
1824.79248	0.03309
1822.73289	0.03340
1820.67331	0.03343
1818.61372	0.03287
1816.55414	0.03254
1814.49455	0.03254
1812.43497	0.03222
1810.37538	0.03189
1808.31580	0.03191
1806.25621	0.03196
1804.19663	0.03174
1802.13704	0.03124
1800.07746	0.03120
1798.01787	0.03185
1795.95829	0.03206
1793.89870	0.03091
1791.83912	0.03002
1789.77953	0.03063
1787.71995	0.03061
1785.66036	0.02972
1783.60078	0.02938
1781.54119	0.02922
1779.48161	0.02925
1777.42202	0.02966
1775.36243	0.02931
1773.30285	0.02798
1771.24326	0.02772
1769.18368	0.02826
1767.12409	0.02843
1765.06451	0.02839
1763.00492	0.02735
1760.94534	0.02698
1758.88575	0.02723
1756.82617	0.02711
1754.76658	0.02761
1752.70700	0.02705
1750.64741	0.02581
1748.58783	0.02593
1746.52824	0.02658
1744.46866	0.02659
1742.40907	0.02595
1740.34949	0.02552
1738.28990	0.02636
1736.23032	0.02561
1734.17073	0.02338
1732.11115	0.02419
1730.05156	0.02489
1727.99198	0.02435
1725.93239	0.02388
1723.87281	0.02399
1721.81322	0.02468
1719.75363	0.02406
1717.69405	0.02323
1715.63446	0.02507
1713.57488	0.02768
1711.51529	0.02983
1709.45571	0.03205
1707.39612	0.03515
1705.33654	0.04047
1703.27695	0.04684
1701.21737	0.05211
1699.15778	0.05975
1697.09820	0.06650
1695.03861	0.07119
1692.97903	0.07636
1690.91944	0.08013
1688.85986	0.08416
1686.80027	0.08800
1684.74069	0.09195
1682.68110	0.10023
1680.62152	0.10799
1678.56193	0.11273
1676.50235	0.11698
1674.44276	0.12340
1672.38318	0.13034
1670.32359	0.13562
1668.26401	0.14245
1666.20442	0.14935
1664.14483	0.15409
1662.08525	0.15987
1660.02566	0.16713
1657.96608	0.17288
1655.90649	0.17567
1653.84691	0.17852
1651.78732	0.18762
1649.72774	0.19417
1647.66815	0.19493
1645.60857	0.19794
1643.54898	0.20274
1641.48940	0.20576
1639.42981	0.20811
1637.37023	0.21065
1635.31064	0.21607
1633.25106	0.22441
1631.19147	0.23048
1629.13189	0.23490
1627.07230	0.23972
1625.01272	0.24246
1622.95313	0.24212
1620.89355	0.23981
1618.83396	0.23334
1616.77438	0.22432
1614.71479	0.21753
1612.65520	0.21111
1610.59562	0.20295
1608.53603	0.19401
1606.47645	0.18479
1604.41686	0.17535
1602.35728	0.16627
1600.29769	0.15821
1598.23811	0.15100
1596.17852	0.14417
1594.11894	0.13781
1592.05935	0.13202
1589.99977	0.12661
1587.94018	0.12166
1585.88060	0.11734
1583.82101	0.11386
1581.76143	0.11159
1579.70184	0.11000
1577.64226	0.10787
1575.58267	0.10762
1573.52309	0.11004
1571.46350	0.11084
1569.40392	0.11177
1567.34433	0.11533
1565.28475	0.11911
1563.22516	0.12247
1561.16558	0.12404
1559.10599	0.12703
1557.04640	0.13573
1554.98682	0.14195
1552.92723	0.14541
1550.86765	0.14912
1548.80806	0.15370
1546.74848	0.15821
1544.68889	0.16198
1542.62931	0.16567
1540.56972	0.16978
1538.51014	0.17662
1536.45055	0.18211
1534.39097	0.18404
1532.33138	0.18750
1530.27180	0.19189
1528.21221	0.19450
1526.15263	0.19709
1524.09304	0.19975
1522.03346	0.20198
1519.97387	0.20611
1517.91429	0.20997
1515.85470	0.21234
1513.79512	0.21355
1511.73553	0.21258
1509.67595	0.20885
1507.61636	0.20191
1505.55677	0.19633
1503.49719	0.19261
1501.43760	0.18653
1499.37802	0.17831
1497.31843	0.16983
1495.25885	0.16296
1493.19926	0.15683
1491.13968	0.14906
1489.08009	0.14132
1487.02051	0.13547
1484.96092	0.13072
1482.90134	0.12618
1480.84175	0.12248
1478.78217	0.11996
1476.72258	0.11778
1474.66300	0.11568
1472.60341	0.11442
1470.54383	0.11523
1468.48424	0.11580
1466.42466	0.11492
1464.36507	0.11535
1462.30549	0.11786
1460.24590	0.11955
1458.18632	0.12095
1456.12673	0.12600
1454.06715	0.13193
1452.00756	0.13475
1449.94797	0.13609
1447.88839	0.13761
1445.82880	0.13922
1443.76922	0.13960
1441.70963	0.13878
1439.65005	0.13688
1437.59046	0.13359
1435.53088	0.13133
1433.47129	0.12983
1431.41171	0.12700
1429.35212	0.12440
1427.29254	0.12295
1425.23295	0.12175
1423.17337	0.12107
1421.11378	0.12035
1419.05420	0.11994
1416.99461	0.12140
1414.93503	0.12261
1412.87544	0.12285
1410.81586	0.12310
1408.75627	0.12342
1406.69669	0.12302
1404.63710	0.12217
1402.57752	0.12124
1400.51793	0.11940
1398.45834	0.11733
1396.39876	0.11549
1394.33917	0.11375
1392.27959	0.11275
1390.22000	0.11153
1388.16042	0.10985
1386.10083	0.10890
1384.04125	0.10830
1381.98166	0.10726
1379.92208	0.10631
1377.86249	0.10576
1375.80291	0.10530
1373.74332	0.10515
1371.68374	0.10526
1369.62415	0.10444
1367.56457	0.10297
1365.50498	0.10128
1363.44540	0.09920
1361.38581	0.09769
1359.32623	0.09666
1357.26664	0.09543
1355.20706	0.09441
1353.14747	0.09394
1351.08789	0.09380
1349.02830	0.09382
1346.96872	0.09413
1344.90913	0.09471
1342.84954	0.09529
1340.78996	0.09561
1338.73037	0.09626
1336.67079	0.09730
1334.61120	0.09791
1332.55162	0.09794
1330.49203	0.09762
1328.43245	0.09713
1326.37286	0.09657
1324.31328	0.09598
1322.25369	0.09531
1320.19411	0.09461
1318.13452	0.09415
1316.07494	0.09381
1314.01535	0.09338
1311.95577	0.09302
1309.89618	0.09268
1307.83660	0.09226
1305.77701	0.09187
1303.71743	0.09145
1301.65784	0.09097
1299.59826	0.09045
1297.53867	0.08998
1295.47909	0.08965
1293.41950	0.08947
1291.35991	0.08938
1289.30033	0.08938
1287.24074	0.08950
1285.18116	0.08969
1283.12157	0.08983
1281.06199	0.08997
1279.00240	0.09017
1276.94282	0.09047
1274.88323	0.09090
1272.82365	0.09142
1270.76406	0.09203
1268.70448	0.09269
1266.64489	0.09331
1264.58531	0.09386
1262.52572	0.09443
1260.46614	0.09522
1258.40655	0.09622
1256.34697	0.09722
1254.28738	0.09831
1252.22780	0.09964
1250.16821	0.10124
1248.10863	0.10311
1246.04904	0.10519
1243.98946	0.10727
1241.92987	0.10924
1239.87029	0.11097
1237.81070	0.11224
1235.75111	0.11304
1233.69153	0.11354
1231.63194	0.11379
1229.57236	0.11368
1227.51277	0.11324
1225.45319	0.11264
1223.39360	0.11197
1221.33402	0.11106
1219.27443	0.10970
1217.21485	0.10789
1215.15526	0.10578
1213.09568	0.10350
1211.03609	0.10117
1208.97651	0.09901
1206.91692	0.09701
1204.85734	0.09503
1202.79775	0.09312
1200.73817	0.09132
1198.67858	0.08958
1196.61900	0.08796
1194.55941	0.08660
1192.49983	0.08551
1190.44024	0.08452
1188.38066	0.08359
1186.32107	0.08272
1184.26149	0.08190
1182.20190	0.08132
1180.14231	0.08119
1178.08273	0.08160
1176.02314	0.08242
1173.96356	0.08341
1171.90397	0.08420
1169.84439	0.08452
1167.78480	0.08441
1165.72522	0.08403
1163.66563	0.08336
1161.60605	0.08239
1159.54646	0.08112
1157.48688	0.07966
1155.42729	0.07814
1153.36771	0.07662
1151.30812	0.07517
1149.24854	0.07391
1147.18895	0.07290
1145.12937	0.07217
1143.06978	0.07158
1141.01020	0.07101
1138.95061	0.07051
1136.89103	0.07013
1134.83144	0.06979
1132.77186	0.06946
1130.71227	0.06911
1128.65268	0.06868
1126.59310	0.06818
1124.53351	0.06773
1122.47393	0.06729
1120.41434	0.06683
1118.35476	0.06640
1116.29517	0.06594
1114.23559	0.06549
1112.17600	0.06518
1110.11642	0.06496
1108.05683	0.06483
1105.99725	0.06471
1103.93766	0.06447
1101.87808	0.06420
1099.81849	0.06401
1097.75891	0.06378
1095.69932	0.06360
1093.63974	0.06350
1091.58015	0.06339
1089.52057	0.06341
1087.46098	0.06362
1085.40140	0.06392
1083.34181	0.06427
1081.28223	0.06451
1079.22264	0.06456
1077.16306	0.06457
1075.10347	0.06463
1073.04388	0.06466
1070.98430	0.06464
1068.92471	0.06457
1066.86513	0.06453
1064.80554	0.06469
1062.74596	0.06496
1060.68637	0.06515
1058.62679	0.06526
1056.56720	0.06548
1054.50762	0.06582
1052.44803	0.06608
1050.38845	0.06603
1048.32886	0.06556
1046.26928	0.06480
1044.20969	0.06391
1042.15011	0.06301
1040.09052	0.06226
1038.03094	0.06178
1035.97135	0.06153
1033.91177	0.06149
1031.85218	0.06163
1029.79260	0.06191
1027.73301	0.06221
1025.67343	0.06223
1023.61384	0.06182
1021.55425	0.06105
1019.49467	0.06023
1017.43508	0.05950
1015.37550	0.05872
1013.31591	0.05789
1011.25633	0.05705
1009.19674	0.05618
1007.13716	0.05532
1005.07757	0.05449
1003.01799	0.05372
1000.95840	0.05298
998.89882	0.05224
996.83923	0.05148
994.77965	0.05070
992.72006	0.04996
990.66048	0.04930
988.60089	0.04870
986.54131	0.04810
984.48172	0.04755
982.42214	0.04706
980.36255	0.04668
978.30297	0.04651
976.24338	0.04665
974.18380	0.04714
972.12421	0.04814
970.06463	0.04968
968.00504	0.05138
965.94545	0.05262
963.88587	0.05282
961.82628	0.05192
959.76670	0.05044
957.70711	0.04889
955.64753	0.04749
953.58794	0.04634
951.52836	0.04544
949.46877	0.04475
947.40919	0.04416
945.34960	0.04370
943.29002	0.04339
941.23043	0.04317
939.17085	0.04303
937.11126	0.04299
935.05168	0.04302
932.99209	0.04304
930.93251	0.04304
928.87292	0.04299
926.81334	0.04292
924.75375	0.04289
922.69417	0.04276
920.63458	0.04234
918.57500	0.04187
916.51541	0.04151
914.45582	0.04112
912.39624	0.04078
910.33665	0.04053
908.27707	0.04031
906.21748	0.04010
904.15790	0.03989
902.09831	0.03959
900.03873	0.03920
897.97914	0.03885
895.91956	0.03846
893.85997	0.03800
891.80039	0.03768
889.74080	0.03757
887.68122	0.03742
885.62163	0.03721
883.56205	0.03718
881.50246	0.03724
879.44288	0.03719
877.38329	0.03716
875.32371	0.03720
873.26412	0.03719
871.20454	0.03712
869.14495	0.03691
867.08537	0.03658
865.02578	0.03633
862.96620	0.03623
860.90661	0.03622
858.84702	0.03636
856.78744	0.03652
854.72785	0.03664
852.66827	0.03680
850.60868	0.03689
848.54910	0.03682
846.48951	0.03668
844.42993	0.03659
842.37034	0.03647
840.31076	0.03630
838.25117	0.03628
836.19159	0.03650
834.13200	0.03681
832.07242	0.03705
830.01283	0.03720
827.95325	0.03720
825.89366	0.03707
823.83408	0.03697
821.77449	0.03693
819.71491	0.03687
817.65532	0.03685
815.59574	0.03698
813.53615	0.03717
811.47657	0.03729
809.41698	0.03735
807.35740	0.03750
805.29781	0.03771
803.23822	0.03783
801.17864	0.03793
799.11905	0.03806
797.05947	0.03808
794.99988	0.03806
792.94030	0.03825
790.88071	0.03852
788.82113	0.03878
786.76154	0.03920
784.70196	0.03966
782.64237	0.04006
780.58279	0.04046
778.52320	0.04082
776.46362	0.04108
774.40403	0.04129
772.34445	0.04152
770.28486	0.04177
768.22528	0.04189
766.16569	0.04190
764.10611	0.04185
762.04652	0.04175
759.98694	0.04175
757.92735	0.04193
755.86777	0.04216
753.80818	0.04233
751.74859	0.04244
749.68901	0.04258
747.62942	0.04279
745.56984	0.04307
743.51025	0.04341
741.45067	0.04383
739.39108	0.04434
737.33150	0.04482
735.27191	0.04525
733.21233	0.04570
731.15274	0.04618
729.09316	0.04674
727.03357	0.04734
724.97399	0.04812
722.91440	0.04918
720.85482	0.05048
718.79523	0.05210
716.73565	0.05354
714.67606	0.05492
712.61648	0.05629
710.55689	0.05763
708.49731	0.05892
706.43772	0.06018
704.37814	0.06129
702.31855	0.06206
700.25897	0.06251
698.19938	0.06289
696.13979	0.06325
694.08021	0.06348
692.02062	0.06360
689.96104	0.06361
687.90145	0.06359
685.84187	0.06358
683.78228	0.06371
681.72270	0.06398
679.66311	0.06411
677.60353	0.06410
675.54394	0.06408
673.48436	0.06388
671.42477	0.06439
669.36519	0.06600
667.30560	0.06254
665.24602	0.06374
663.18643	0.06393
661.12685	0.06380
659.06726	0.06370
657.00768	0.06346
654.94809	0.06334
652.88851	0.06347
650.82892	0.06358
648.76934	0.06348
646.70975	0.06343
644.65016	0.06335
642.59058	0.06333
640.53099	0.06341
638.47141	0.06356
636.41182	0.06376
634.35224	0.06396
632.29265	0.06415
630.23307	0.06445
628.17348	0.06488
626.11390	0.06538
624.05431	0.06589
621.99473	0.06633
619.93514	0.06661
617.87556	0.06677
615.81597	0.06695
613.75639	0.06724
611.69680	0.06741
609.63722	0.06716
607.57763	0.06663
605.51805	0.06619
603.45846	0.06597
601.39888	0.06582
599.33929	0.06566
597.27971	0.06555
595.22012	0.06546
593.16054	0.06536
591.10095	0.06529
589.04136	0.06537
586.98178	0.06557
584.92219	0.06576
582.86261	0.06577
580.80302	0.06570
578.74344	0.06577
576.68385	0.06597
574.62427	0.06638
572.56468	0.06684
570.50510	0.06720
568.44551	0.06755
566.38593	0.06778
564.32634	0.06776
562.26676	0.06778
560.20717	0.06804
558.14759	0.06839
556.08800	0.06864
554.02842	0.06875
551.96883	0.06880
549.90925	0.06886
547.84966	0.06891
545.79008	0.06897
543.73049	0.06886
541.67091	0.06841
539.61132	0.06796
537.55173	0.06767
535.49215	0.06736
533.43256	0.06704
531.37298	0.06675
529.31339	0.06640
527.25381	0.06592
525.19422	0.06547
523.13464	0.06514
521.07505	0.06479
519.01547	0.06438
516.95588	0.06406
514.89630	0.06382
512.83671	0.06346
510.77713	0.06294
508.71754	0.06225
506.65796	0.06162
504.59837	0.06115
502.53879	0.06062
500.47920	0.06017
498.41962	0.05977
496.36003	0.05942
494.30045	0.05907
492.24086	0.05860
490.18128	0.05817
488.12169	0.05782
486.06211	0.05739
484.00252	0.05694
481.94293	0.05668
479.88335	0.05634
477.82376	0.05586
475.76418	0.05544
473.70459	0.05512
471.64501	0.05507
469.58542	0.05498
467.52584	0.05443
465.46625	0.05362
463.40667	0.05286
461.34708	0.05245
459.28750	0.05211
457.22791	0.05197
455.16833	0.05231
453.10874	0.05279
451.04916	0.05359
448.98957	0.05452
446.92999	0.05512
444.87040	0.05544
442.81082	0.05562
440.75123	0.05541
438.69165	0.05452
436.63206	0.05338
434.57248	0.05249
432.51289	0.05170
430.45330	0.05088
428.39372	0.05005
426.33413	0.04919
424.27455	0.04856
422.21496	0.04823
420.15538	0.04769
418.09579	0.04724
416.03621	0.04709
413.97662	0.04667
411.91704	0.04590
409.85745	0.04497
407.79787	0.04421
405.73828	0.04373
403.67870	0.04330
401.61911	0.04282
399.55953	0.04246
