3997.66060,0.12037
3995.60101,0.12019
3993.54142,0.11995
3991.48183,0.11974
3989.42224,0.11984
3987.36265,0.11993
3985.30307,0.11973
3983.24348,0.11920
3981.18389,0.11858
3979.12430,0.11849
3977.06471,0.11886
3975.00513,0.11898
3972.94554,0.11881
3970.88595,0.11871
3968.82636,0.11874
3966.76677,0.11875
3964.70719,0.11868
3962.64760,0.11876
3960.58801,0.11903
3958.52842,0.11935
3956.46883,0.11961
3954.40924,0.11947
3952.34966,0.11894
3950.29007,0.11870
3948.23048,0.11860
3946.17089,0.11817
3944.11130,0.11799
3942.05172,0.11840
3939.99213,0.11864
3937.93254,0.11819
3935.87295,0.11786
3933.81336,0.11811
3931.75377,0.11787
3929.69419,0.11709
3927.63460,0.11688
3925.57501,0.11711
3923.51542,0.11709
3921.45583,0.11701
3919.39625,0.11690
3917.33666,0.11659
3915.27707,0.11672
3913.21748,0.11708
3911.15789,0.11666
3909.09831,0.11570
3907.03872,0.11494
3904.97913,0.11489
3902.91954,0.11565
3900.85995,0.11633
3898.80036,0.11650
3896.74078,0.11627
3894.68119,0.11567
3892.62160,0.11517
3890.56201,0.11517
3888.50242,0.11496
3886.44284,0.11448
3884.38325,0.11425
3882.32366,0.11404
3880.26407,0.11412
3878.20448,0.11437
3876.14489,0.11431
3874.08531,0.11377
3872.02572,0.11309
3869.96613,0.11334
3867.90654,0.11377
3865.84695,0.11340
3863.78737,0.11275
3861.72778,0.11250
3859.66819,0.11284
3857.60860,0.11252
3855.54901,0.11115
3853.48943,0.11067
3851.42984,0.11157
3849.37025,0.11194
3847.31066,0.11195
3845.25107,0.11179
3843.19148,0.11141
3841.13190,0.11091
3839.07231,0.11085
3837.01272,0.11160
3834.95313,0.11175
3832.89354,0.11101
3830.83396,0.11069
3828.77437,0.11091
3826.71478,0.11127
3824.65519,0.11131
3822.59560,0.11072
3820.53601,0.11069
3818.47643,0.11115
3816.41684,0.11095
3814.35725,0.11072
3812.29766,0.11048
3810.23807,0.10979
3808.17849,0.10940
3806.11890,0.10984
3804.05931,0.10946
3801.99972,0.10839
3799.94013,0.10824
3797.88055,0.10830
3795.82096,0.10834
3793.76137,0.10878
3791.70178,0.10890
3789.64219,0.10846
3787.58260,0.10798
3785.52302,0.10797
3783.46343,0.10840
3781.40384,0.10860
3779.34425,0.10844
3777.28466,0.10809
3775.22508,0.10729
3773.16549,0.10674
3771.10590,0.10716
3769.04631,0.10752
3766.98672,0.10695
3764.92713,0.10669
3762.86755,0.10693
3760.80796,0.10660
3758.74837,0.10617
3756.68878,0.10599
3754.62919,0.10520
3752.56961,0.10422
3750.51002,0.10442
3748.45043,0.10483
3746.39084,0.10381
3744.33125,0.10288
3742.27167,0.10349
3740.21208,0.10371
3738.15249,0.10299
3736.09290,0.10224
3734.03331,0.10221
3731.97372,0.10261
3729.91414,0.10278
3727.85455,0.10261
3725.79496,0.10278
3723.73537,0.10315
3721.67578,0.10308
3719.61620,0.10279
3717.55661,0.10215
3715.49702,0.10137
3713.43743,0.10115
3711.37784,0.10133
3709.31825,0.10148
3707.25867,0.10165
3705.19908,0.10173
3703.13949,0.10144
3701.07990,0.10096
3699.02031,0.10092
3696.96073,0.10114
3694.90114,0.10106
3692.84155,0.10051
3690.78196,0.10009
3688.72237,0.10034
3686.66279,0.10067
3684.60320,0.10053
3682.54361,0.09987
3680.48402,0.09929
3678.42443,0.09910
3676.36484,0.09897
3674.30526,0.09928
3672.24567,0.09972
3670.18608,0.10005
3668.12649,0.10026
3666.06690,0.10011
3664.00732,0.09981
3661.94773,0.09942
3659.88814,0.09902
3657.82855,0.09889
3655.76896,0.09939
3653.70937,0.10007
3651.64979,0.10004
3649.59020,0.09901
3647.53061,0.09813
3645.47102,0.09848
3643.41143,0.09917
3641.35185,0.09956
3639.29226,0.09958
3637.23267,0.09916
3635.17308,0.09884
3633.11349,0.09909
3631.05391,0.09961
3628.99432,0.10050
3626.93473,0.10103
3624.87514,0.10073
3622.81555,0.10048
3620.75596,0.10068
3618.69638,0.10113
3616.63679,0.10149
3614.57720,0.10188
3612.51761,0.10256
3610.45802,0.10335
3608.39844,0.10359
3606.33885,0.10321
3604.27926,0.10321
3602.21967,0.10349
3600.16008,0.10340
3598.10049,0.10333
3596.04091,0.10360
3593.98132,0.10428
3591.92173,0.10513
3589.86214,0.10555
3587.80255,0.10585
3585.74297,0.10637
3583.68338,0.10673
3581.62379,0.10664
3579.56420,0.10632
3577.50461,0.10650
3575.44503,0.10707
3573.38544,0.10739
3571.32585,0.10779
3569.26626,0.10842
3567.20667,0.10870
3565.14708,0.10870
3563.08750,0.10905
3561.02791,0.10944
3558.96832,0.10956
3556.90873,0.11002
3554.84914,0.11085
3552.78956,0.11147
3550.72997,0.11191
3548.67038,0.11233
3546.61079,0.11279
3544.55120,0.11336
3542.49161,0.11353
3540.43203,0.11327
3538.37244,0.11315
3536.31285,0.11330
3534.25326,0.11392
3532.19367,0.11486
3530.13409,0.11593
3528.07450,0.11691
3526.01491,0.11739
3523.95532,0.11760
3521.89573,0.11769
3519.83615,0.11799
3517.77656,0.11856
3515.71697,0.11889
3513.65738,0.11913
3511.59779,0.11946
3509.53820,0.11986
3507.47862,0.12039
3505.41903,0.12089
3503.35944,0.12140
3501.29985,0.12194
3499.24026,0.12238
3497.18068,0.12285
3495.12109,0.12342
3493.06150,0.12402
3491.00191,0.12477
3488.94232,0.12559
3486.88273,0.12593
3484.82315,0.12624
3482.76356,0.12732
3480.70397,0.12864
3478.64438,0.12921
3476.58479,0.12897
3474.52521,0.12886
3472.46562,0.12928
3470.40603,0.12951
3468.34644,0.12964
3466.28685,0.13036
3464.22727,0.13112
3462.16768,0.13143
3460.10809,0.13178
3458.04850,0.13246
3455.98891,0.13354
3453.92932,0.13454
3451.86974,0.13484
3449.81015,0.13471
3447.75056,0.13460
3445.69097,0.13496
3443.63138,0.13600
3441.57180,0.13735
3439.51221,0.13818
3437.45262,0.13812
3435.39303,0.13814
3433.33344,0.13899
3431.27385,0.13987
3429.21427,0.14043
3427.15468,0.14097
3425.09509,0.14142
3423.03550,0.14180
3420.97591,0.14206
3418.91633,0.14248
3416.85674,0.14336
3414.79715,0.14434
3412.73756,0.14505
3410.67797,0.14546
3408.61839,0.14589
3406.55880,0.14657
3404.49921,0.14718
3402.43962,0.14729
3400.38003,0.14726
3398.32044,0.14752
3396.26086,0.14777
3394.20127,0.14806
3392.14168,0.14886
3390.08209,0.14967
3388.02250,0.15005
3385.96292,0.15055
3383.90333,0.15131
3381.84374,0.15219
3379.78415,0.15304
3377.72456,0.15350
3375.66497,0.15390
3373.60539,0.15457
3371.54580,0.15558
3369.48621,0.15670
3367.42662,0.15737
3365.36703,0.15787
3363.30745,0.15878
3361.24786,0.15991
3359.18827,0.16081
3357.12868,0.16167
3355.06909,0.16282
3353.00951,0.16401
3350.94992,0.16505
3348.89033,0.16591
3346.83074,0.16678
3344.77115,0.16794
3342.71156,0.16914
3340.65198,0.17012
3338.59239,0.17094
3336.53280,0.17218
3334.47321,0.17424
3332.41362,0.17654
3330.35404,0.17849
3328.29445,0.18017
3326.23486,0.18194
3324.17527,0.18389
3322.11568,0.18593
3320.05609,0.18779
3317.99651,0.18960
3315.93692,0.19153
3313.87733,0.19348
3311.81774,0.19599
3309.75815,0.19900
3307.69857,0.20150
3305.63898,0.20357
3303.57939,0.20590
3301.51980,0.20858
3299.46021,0.21150
3297.40063,0.21443
3295.34104,0.21715
3293.28145,0.21953
3291.22186,0.22187
3289.16227,0.22452
3287.10268,0.22719
3285.04310,0.22965
3282.98351,0.23184
3280.92392,0.23408
3278.86433,0.23635
3276.80474,0.23799
3274.74516,0.23902
3272.68557,0.23998
3270.62598,0.24069
3268.56639,0.24090
3266.50680,0.24097
3264.44721,0.24043
3262.38763,0.23898
3260.32804,0.23777
3258.26845,0.23689
3256.20886,0.23540
3254.14927,0.23338
3252.08969,0.23152
3250.03010,0.22997
3247.97051,0.22853
3245.91092,0.22698
3243.85133,0.22541
3241.79175,0.22379
3239.73216,0.22193
3237.67257,0.22030
3235.61298,0.21906
3233.55339,0.21776
3231.49380,0.21600
3229.43422,0.21398
3227.37463,0.21269
3225.31504,0.21190
3223.25545,0.21058
3221.19586,0.20912
3219.13628,0.20818
3217.07669,0.20734
3215.01710,0.20610
3212.95751,0.20474
3210.89792,0.20373
3208.83833,0.20306
3206.77875,0.20236
3204.71916,0.20120
3202.65957,0.19974
3200.59998,0.19858
3198.54039,0.19767
3196.48081,0.19652
3194.42122,0.19532
3192.36163,0.19423
3190.30204,0.19288
3188.24245,0.19158
3186.18287,0.19068
3184.12328,0.18990
3182.06369,0.18903
3180.00410,0.18788
3177.94451,0.18640
3175.88492,0.18489
3173.82534,0.18350
3171.76575,0.18224
3169.70616,0.18118
3167.64657,0.18029
3165.58698,0.17909
3163.52740,0.17748
3161.46781,0.17622
3159.40822,0.17547
3157.34863,0.17467
3155.28904,0.17355
3153.22945,0.17217
3151.16987,0.17091
3149.11028,0.16983
3147.05069,0.16889
3144.99110,0.16807
3142.93151,0.16706
3140.87193,0.16615
3138.81234,0.16546
3136.75275,0.16425
3134.69316,0.16245
3132.63357,0.16115
3130.57399,0.16089
3128.51440,0.16063
3126.45481,0.15968
3124.39522,0.15887
3122.33563,0.15833
3120.27604,0.15762
3118.21646,0.15714
3116.15687,0.15683
3114.09728,0.15635
3112.03769,0.15594
3109.97810,0.15569
3107.91852,0.15540
3105.85893,0.15516
3103.79934,0.15513
3101.73975,0.15509
3099.68016,0.15505
3097.62057,0.15521
3095.56099,0.15544
3093.50140,0.15543
3091.44181,0.15533
3089.38222,0.15526
3087.32263,0.15525
3085.26305,0.15551
3083.20346,0.15586
3081.14387,0.15627
3079.08428,0.15664
3077.02469,0.15655
3074.96511,0.15623
3072.90552,0.15611
3070.84593,0.15616
3068.78634,0.15632
3066.72675,0.15634
3064.66716,0.15611
3062.60758,0.15577
3060.54799,0.15512
3058.48840,0.15427
3056.42881,0.15376
3054.36922,0.15352
3052.30964,0.15303
3050.25005,0.15212
3048.19046,0.15107
3046.13087,0.15024
3044.07128,0.14980
3042.01169,0.14959
3039.95211,0.14911
3037.89252,0.14818
3035.83293,0.14713
3033.77334,0.14614
3031.71375,0.14533
3029.65417,0.14469
3027.59458,0.14392
3025.53499,0.14303
3023.47540,0.14229
3021.41581,0.14179
3019.35623,0.14135
3017.29664,0.14061
3015.23705,0.13953
3013.17746,0.13866
3011.11787,0.13815
3009.05828,0.13780
3006.99870,0.13749
3004.93911,0.13696
3002.87952,0.13639
3000.81993,0.13629
2998.76034,0.13633
2996.70076,0.13623
2994.64117,0.13628
2992.58158,0.13660
2990.52199,0.13711
2988.46240,0.13760
2986.40281,0.13811
2984.34323,0.13897
2982.28364,0.14011
2980.22405,0.14110
2978.16446,0.14202
2976.10487,0.14329
2974.04529,0.14495
2971.98570,0.14654
2969.92611,0.14764
2967.86652,0.14864
2965.80693,0.14995
2963.74735,0.15117
2961.68776,0.15190
2959.62817,0.15227
2957.56858,0.15260
2955.50899,0.15270
2953.44940,0.15226
2951.38982,0.15171
2949.33023,0.15153
2947.27064,0.15172
2945.21105,0.15237
2943.15146,0.15350
2941.09188,0.15490
2939.03229,0.15647
2936.97270,0.15834
2934.91311,0.16058
2932.85352,0.16288
2930.79393,0.16482
2928.73435,0.16633
2926.67476,0.16738
2924.61517,0.16768
2922.55558,0.16726
2920.49599,0.16630
2918.43641,0.16494
2916.37682,0.16322
2914.31723,0.16093
2912.25764,0.15823
2910.19805,0.15580
2908.13847,0.15406
2906.07888,0.15253
2904.01929,0.15095
2901.95970,0.14955
2899.90011,0.14829
2897.84052,0.14716
2895.78094,0.14635
2893.72135,0.14572
2891.66176,0.14509
2889.60217,0.14453
2887.54258,0.14403
2885.48300,0.14350
2883.42341,0.14299
2881.36382,0.14285
2879.30423,0.14338
2877.24464,0.14433
2875.18505,0.14502
2873.12547,0.14497
2871.06588,0.14453
2869.00629,0.14412
2866.94670,0.14383
2864.88711,0.14358
2862.82753,0.14312
2860.76794,0.14287
2858.70835,0.14331
2856.64876,0.14397
2854.58917,0.14446
2852.52959,0.14471
2850.47000,0.14432
2848.41041,0.14294
2846.35082,0.14068
2844.29123,0.13800
2842.23164,0.13571
2840.17206,0.13414
2838.11247,0.13281
2836.05288,0.13149
2833.99329,0.13031
2831.93370,0.12939
2829.87412,0.12860
2827.81453,0.12779
2825.75494,0.12707
2823.69535,0.12652
2821.63576,0.12618
2819.57617,0.12593
2817.51659,0.12570
2815.45700,0.12542
2813.39741,0.12491
2811.33782,0.12429
2809.27823,0.12363
2807.21865,0.12295
2805.15906,0.12260
2803.09947,0.12256
2801.03988,0.12245
2798.98029,0.12210
2796.92071,0.12186
2794.86112,0.12170
2792.80153,0.12113
2790.74194,0.12038
2788.68235,0.12001
2786.62276,0.11996
2784.56318,0.11989
2782.50359,0.11973
2780.44400,0.11944
2778.38441,0.11906
2776.32482,0.11882
2774.26524,0.11865
2772.20565,0.11832
2770.14606,0.11791
2768.08647,0.11765
2766.02688,0.11723
2763.96729,0.11655
2761.90771,0.11613
2759.84812,0.11604
2757.78853,0.11594
2755.72894,0.11573
2753.66935,0.11546
2751.60977,0.11526
2749.55018,0.11512
2747.49059,0.11484
2745.43100,0.11457
2743.37141,0.11430
2741.31183,0.11378
2739.25224,0.11324
2737.19265,0.11284
2735.13306,0.11262
2733.07347,0.11235
2731.01388,0.11178
2728.95430,0.11146
2726.89471,0.11157
2724.83512,0.11154
2722.77553,0.11115
2720.71594,0.11075
2718.65636,0.11060
2716.59677,0.11068
2714.53718,0.11066
2712.47759,0.11040
2710.41800,0.11016
2708.35841,0.10987
2706.29883,0.10932
2704.23924,0.10883
2702.17965,0.10862
2700.12006,0.10844
2698.06047,0.10828
2696.00089,0.10827
2693.94130,0.10820
2691.88171,0.10786
2689.82212,0.10749
2687.76253,0.10725
2685.70295,0.10692
2683.64336,0.10638
2681.58377,0.10599
2679.52418,0.10600
2677.46459,0.10615
2675.40500,0.10613
2673.34542,0.10592
2671.28583,0.10564
2669.22624,0.10552
2667.16665,0.10553
2665.10706,0.10555
2663.04748,0.10529
2660.98789,0.10466
2658.92830,0.10414
2656.86871,0.10405
2654.80912,0.10399
2652.74953,0.10374
2650.68995,0.10341
2648.63036,0.10313
2646.57077,0.10299
2644.51118,0.10308
2642.45159,0.10311
2640.39201,0.10279
2638.33242,0.10224
2636.27283,0.10176
2634.21324,0.10148
2632.15365,0.10121
2630.09407,0.10090
2628.03448,0.10054
2625.97489,0.10011
2623.91530,0.09979
2621.85571,0.09961
2619.79612,0.09944
2617.73654,0.09921
2615.67695,0.09887
2613.61736,0.09826
2611.55777,0.09750
2609.49818,0.09696
2607.43860,0.09671
2605.37901,0.09658
2603.31942,0.09642
2601.25983,0.09616
2599.20024,0.09578
2597.14065,0.09553
2595.08107,0.09552
2593.02148,0.09546
2590.96189,0.09533
2588.90230,0.09542
2586.84271,0.09536
2584.78313,0.09469
2582.72354,0.09391
2580.66395,0.09362
2578.60436,0.09371
2576.54477,0.09362
2574.48519,0.09315
2572.42560,0.09280
2570.36601,0.09272
2568.30642,0.09276
2566.24683,0.09289
2564.18724,0.09262
2562.12766,0.09202
2560.06807,0.09161
2558.00848,0.09148
2555.94889,0.09150
2553.88930,0.09146
2551.82972,0.09152
2549.77013,0.09151
2547.71054,0.09067
2545.65095,0.08966
2543.59136,0.08961
2541.53177,0.08998
2539.47219,0.09001
2537.41260,0.08974
2535.35301,0.08933
2533.29342,0.08890
2531.23383,0.08854
2529.17425,0.08830
2527.11466,0.08814
2525.05507,0.08771
2522.99548,0.08711
2520.93589,0.08691
2518.87631,0.08702
2516.81672,0.08716
2514.75713,0.08725
2512.69754,0.08709
2510.63795,0.08681
2508.57836,0.08698
2506.51878,0.08728
2504.45919,0.08696
2502.39960,0.08635
2500.34001,0.08615
2498.28042,0.08633
2496.22084,0.08659
2494.16125,0.08677
2492.10166,0.08663
2490.04207,0.08601
2487.98248,0.08562
2485.92289,0.08564
2483.86331,0.08519
2481.80372,0.08474
2479.74413,0.08491
2477.68454,0.08485
2475.62495,0.08446
2473.56537,0.08445
2471.50578,0.08436
2469.44619,0.08377
2467.38660,0.08351
2465.32701,0.08394
2463.26743,0.08423
2461.20784,0.08417
2459.14825,0.08416
2457.08866,0.08418
2455.02907,0.08398
2452.96948,0.08361
2450.90990,0.08334
2448.85031,0.08330
2446.79072,0.08320
2444.73113,0.08292
2442.67154,0.08266
2440.61196,0.08230
2438.55237,0.08216
2436.49278,0.08263
2434.43319,0.08301
2432.37360,0.08294
2430.31401,0.08266
2428.25443,0.08204
2426.19484,0.08140
2424.13525,0.08116
2422.07566,0.08093
2420.01607,0.08063
2417.95649,0.08068
2415.89690,0.08075
2413.83731,0.08043
2411.77772,0.08003
2409.71813,0.07979
2407.65855,0.07967
2405.59896,0.07974
2403.53937,0.07999
2401.47978,0.08008
2399.42019,0.07987
2397.36060,0.07955
2395.30102,0.07932
2393.24143,0.07922
2391.18184,0.07924
2389.12225,0.07936
2387.06266,0.07932
2385.00308,0.07899
2382.94349,0.07878
2380.88390,0.07882
2378.82431,0.07877
2376.76472,0.07869
2374.70513,0.07889
2372.64555,0.07908
2370.58596,0.07909
2368.52637,0.07884
2366.46678,0.07842
2364.40719,0.07844
2362.34761,0.07857
2360.28802,0.07826
2358.22843,0.07781
2356.16884,0.07785
2354.10925,0.07833
2352.04967,0.07840
2349.99008,0.07816
2347.93049,0.07810
2345.87090,0.07821
2343.81131,0.07837
2341.75172,0.07850
2339.69214,0.07832
2337.63255,0.07798
2335.57296,0.07779
2333.51337,0.07753
2331.45378,0.07707
2329.39420,0.07704
2327.33461,0.07793
2325.27502,0.07878
2323.21543,0.07856
2321.15584,0.07776
2319.09625,0.07716
2317.03667,0.07673
2314.97708,0.07621
2312.91749,0.07582
2310.85790,0.07567
2308.79831,0.07543
2306.73873,0.07487
2304.67914,0.07421
2302.61955,0.07390
2300.55996,0.07391
2298.50037,0.07388
2296.44079,0.07373
2294.38120,0.07337
2292.32161,0.07296
2290.26202,0.07285
2288.20243,0.07284
2286.14284,0.07253
2284.08326,0.07172
2282.02367,0.07078
2279.96408,0.07036
2277.90449,0.07028
2275.84490,0.07015
2273.78532,0.06969
2271.72573,0.06906
2269.66614,0.06879
2267.60655,0.06859
2265.54696,0.06794
2263.48737,0.06671
2261.42779,0.06589
2259.36820,0.06646
2257.30861,0.06732
2255.24902,0.06744
2253.18943,0.06722
2251.12985,0.06660
2249.07026,0.06547
2247.01067,0.06457
2244.95108,0.06423
2242.89149,0.06394
2240.83191,0.06370
2238.77232,0.06386
2236.71273,0.06419
2234.65314,0.06435
2232.59355,0.06391
2230.53396,0.06297
2228.47438,0.06199
2226.41479,0.06131
2224.35520,0.06133
2222.29561,0.06149
2220.23602,0.06143
2218.17644,0.06173
2216.11685,0.06233
2214.05726,0.06190
2211.99767,0.06029
2209.93808,0.05910
2207.87849,0.05884
2205.81891,0.05894
2203.75932,0.05915
2201.69973,0.05890
2199.64014,0.05860
2197.58055,0.05918
2195.52097,0.05932
2193.46138,0.05809
2191.40179,0.05725
2189.34220,0.05756
2187.28261,0.05724
2185.22303,0.05583
2183.16344,0.05499
2181.10385,0.05545
2179.04426,0.05639
2176.98467,0.05664
2174.92508,0.05544
2172.86550,0.05342
2170.80591,0.05255
2168.74632,0.05301
2166.68673,0.05305
2164.62714,0.05235
2162.56756,0.05110
2160.50797,0.04866
2158.44838,0.04631
2156.38879,0.04673
2154.32920,0.04923
2152.26961,0.05117
2150.21003,0.05175
2148.15044,0.05180
2146.09085,0.05192
2144.03126,0.05217
2141.97167,0.05245
2139.91209,0.05249
2137.85250,0.05245
2135.79291,0.05304
2133.73332,0.05453
2131.67373,0.05595
2129.61415,0.05637
2127.55456,0.05629
2125.49497,0.05632
2123.43538,0.05638
2121.37579,0.05649
2119.31620,0.05662
2117.25662,0.05681
2115.19703,0.05716
2113.13744,0.05727
2111.07785,0.05712
2109.01826,0.05713
2106.95868,0.05715
2104.89909,0.05676
2102.83950,0.05632
2100.77991,0.05616
2098.72032,0.05577
2096.66073,0.05557
2094.60115,0.05604
2092.54156,0.05621
2090.48197,0.05562
2088.42238,0.05498
2086.36279,0.05514
2084.30321,0.05603
2082.24362,0.05659
2080.18403,0.05630
2078.12444,0.05566
2076.06485,0.05491
2074.00527,0.05427
2071.94568,0.05426
2069.88609,0.05449
2067.82650,0.05418
2065.76691,0.05368
2063.70732,0.05359
2061.64774,0.05314
2059.58815,0.05231
2057.52856,0.05204
2055.46897,0.05193
2053.40938,0.05189
2051.34980,0.05181
2049.29021,0.05092
2047.23062,0.04912
2045.17103,0.04741
2043.11144,0.04722
2041.05185,0.04809
2038.99227,0.04834
2036.93268,0.04734
2034.87309,0.04610
2032.81350,0.04547
2030.75391,0.04499
2028.69433,0.04425
2026.63474,0.04331
2024.57515,0.04306
2022.51556,0.04362
2020.45597,0.04382
2018.39639,0.04350
2016.33680,0.04293
2014.27721,0.04232
2012.21762,0.04240
2010.15803,0.04317
2008.09844,0.04320
2006.03886,0.04207
2003.97927,0.04166
2001.91968,0.04269
1999.86009,0.04407
1997.80050,0.04507
1995.74092,0.04554
1993.68133,0.04572
1991.62174,0.04579
1989.56215,0.04526
1987.50256,0.04467
1985.44297,0.04539
1983.38339,0.04670
1981.32380,0.04661
1979.26421,0.04412
1977.20462,0.04025
1975.14503,0.03819
1973.08545,0.03881
1971.02586,0.04009
1968.96627,0.04096
1966.90668,0.04153
1964.84709,0.04149
1962.78751,0.04116
1960.72792,0.04140
1958.66833,0.04194
1956.60874,0.04236
1954.54915,0.04243
1952.48956,0.04246
1950.42998,0.04324
1948.37039,0.04424
1946.31080,0.04420
1944.25121,0.04342
1942.19162,0.04343
1940.13204,0.04423
1938.07245,0.04446
1936.01286,0.04414
1933.95327,0.04412
1931.89368,0.04439
1929.83409,0.04435
1927.77451,0.04391
1925.71492,0.04369
1923.65533,0.04406
1921.59574,0.04439
1919.53615,0.04420
1917.47657,0.04395
1915.41698,0.04385
1913.35739,0.04392
1911.29780,0.04426
1909.23821,0.04441
1907.17863,0.04420
1905.11904,0.04403
1903.05945,0.04397
1900.99986,0.04400
1898.94027,0.04408
1896.88068,0.04376
1894.82110,0.04300
1892.76151,0.04248
1890.70192,0.04257
1888.64233,0.04292
1886.58274,0.04286
1884.52316,0.04248
1882.46357,0.04233
1880.40398,0.04224
1878.34439,0.04198
1876.28480,0.04196
1874.22521,0.04223
1872.16563,0.04242
1870.10604,0.04224
1868.04645,0.04158
1865.98686,0.04108
1863.92727,0.04111
1861.86769,0.04116
1859.80810,0.04094
1857.74851,0.04080
1855.68892,0.04086
1853.62933,0.04077
1851.56975,0.04035
1849.51016,0.03974
1847.45057,0.03923
1845.39098,0.03919
1843.33139,0.03944
1841.27180,0.03942
1839.21222,0.03926
1837.15263,0.03919
1835.09304,0.03921
1833.03345,0.03928
1830.97386,0.03923
1828.91428,0.03883
1826.85469,0.03838
1824.79510,0.03816
1822.73551,0.03815
1820.67592,0.03812
1818.61633,0.03791
1816.55675,0.03750
1814.49716,0.03717
1812.43757,0.03713
1810.37798,0.03720
1808.31839,0.03710
1806.25881,0.03679
1804.19922,0.03647
1802.13963,0.03630
1800.08004,0.03632
1798.02045,0.03631
1795.96087,0.03609
1793.90128,0.03574
1791.84169,0.03541
1789.78210,0.03511
1787.72251,0.03490
1785.66292,0.03476
1783.60334,0.03448
1781.54375,0.03413
1779.48416,0.03391
1777.42457,0.03375
1775.36498,0.03356
1773.30540,0.03338
1771.24581,0.03311
1769.18622,0.03282
1767.12663,0.03268
1765.06704,0.03258
1763.00745,0.03235
1760.94787,0.03207
1758.88828,0.03196
1756.82869,0.03211
1754.76910,0.03234
1752.70951,0.03249
1750.64993,0.03269
1748.59034,0.03284
1746.53075,0.03300
1744.47116,0.03326
1742.41157,0.03342
1740.35199,0.03324
1738.29240,0.03296
1736.23281,0.03292
1734.17322,0.03290
1732.11363,0.03257
1730.05404,0.03209
1727.99446,0.03169
1725.93487,0.03136
1723.87528,0.03114
1721.81569,0.03116
1719.75610,0.03138
1717.69652,0.03161
1715.63693,0.03209
1713.57734,0.03297
1711.51775,0.03415
1709.45816,0.03586
1707.39857,0.03862
1705.33899,0.04302
1703.27940,0.04821
1701.21981,0.05535
1699.16022,0.06473
1697.10063,0.07100
1695.04105,0.07479
1692.98146,0.07753
1690.92187,0.07990
1688.86228,0.08284
1686.80269,0.08614
1684.74311,0.09096
1682.68352,0.09700
1680.62393,0.10153
1678.56434,0.10540
1676.50475,0.10997
1674.44516,0.11565
1672.38558,0.12087
1670.32599,0.12622
1668.26640,0.13232
1666.20681,0.13705
1664.14722,0.14135
1662.08764,0.14669
1660.02805,0.15189
1657.96846,0.15603
1655.90887,0.15945
1653.84928,0.16441
1651.78969,0.17048
1649.73011,0.17283
1647.67052,0.17481
1645.61093,0.17839
1643.55134,0.18121
1641.49175,0.18321
1639.43217,0.18524
1637.37258,0.18790
1635.31299,0.19228
1633.25340,0.19653
1631.19381,0.19978
1629.13423,0.20382
1627.07464,0.20878
1625.01505,0.21396
1622.95546,0.21974
1620.89587,0.22430
1618.83628,0.22636
1616.77670,0.22702
1614.71711,0.22559
1612.65752,0.22147
1610.59793,0.21518
1608.53834,0.20731
1606.47876,0.19864
1604.41917,0.18964
1602.35958,0.18037
1600.29999,0.17126
1598.24040,0.16277
1596.18081,0.15488
1594.12123,0.14749
1592.06164,0.14066
1590.00205,0.13441
1587.94246,0.12898
1585.88287,0.12446
1583.82329,0.12065
1581.76370,0.11743
1579.70411,0.11496
1577.64452,0.11329
1575.58493,0.11247
1573.52535,0.11215
1571.46576,0.11216
1569.40617,0.11324
1567.34658,0.11511
1565.28699,0.11730
1563.22740,0.11961
1561.16782,0.12201
1559.10823,0.12680
1557.04864,0.13267
1554.98905,0.13645
1552.92946,0.14012
1550.86988,0.14400
1548.81029,0.14795
1546.75070,0.15164
1544.69111,0.15521
1542.63152,0.15899
1540.57193,0.16373
1538.51235,0.16869
1536.45276,0.17141
1534.39317,0.17414
1532.33358,0.17816
1530.27399,0.18158
1528.21441,0.18453
1526.15482,0.18789
1524.09523,0.19107
1522.03564,0.19469
1519.97605,0.19879
1517.91647,0.20200
1515.85688,0.20463
1513.79729,0.20612
1511.73770,0.20610
1509.67811,0.20500
1507.61852,0.20300
1505.55894,0.20016
1503.49935,0.19663
1501.43976,0.19262
1499.38017,0.18826
1497.32058,0.18325
1495.26100,0.17751
1493.20141,0.17180
1491.14182,0.16568
1489.08223,0.15870
1487.02264,0.15199
1484.96305,0.14609
1482.90347,0.14081
1480.84388,0.13596
1478.78429,0.13177
1476.72470,0.12847
1474.66511,0.12627
1472.60553,0.12525
1470.54594,0.12486
1468.48635,0.12446
1466.42676,0.12400
1464.36717,0.12376
1462.30759,0.12371
1460.24800,0.12381
1458.18841,0.12489
1456.12882,0.12754
1454.06923,0.12940
1452.00964,0.13007
1449.95006,0.13029
1447.89047,0.13023
1445.83088,0.12963
1443.77129,0.12844
1441.71170,0.12687
1439.65212,0.12499
1437.59253,0.12276
1435.53294,0.12040
1433.47335,0.11825
1431.41376,0.11612
1429.35417,0.11415
1427.29459,0.11267
1425.23500,0.11169
1423.17541,0.11113
1421.11582,0.11097
1419.05623,0.11146
1416.99665,0.11241
1414.93706,0.11326
1412.87747,0.11405
1410.81788,0.11473
1408.75829,0.11518
1406.69871,0.11553
1404.63912,0.11576
1402.57953,0.11562
1400.51994,0.11519
1398.46035,0.11471
1396.40076,0.11425
1394.34118,0.11399
1392.28159,0.11384
1390.22200,0.11354
1388.16241,0.11319
1386.10282,0.11279
1384.04324,0.11212
1381.98365,0.11123
1379.92406,0.11035
1377.86447,0.10946
1375.80488,0.10861
1373.74529,0.10810
1371.68571,0.10781
1369.62612,0.10731
1367.56653,0.10639
1365.50694,0.10511
1363.44735,0.10363
1361.38777,0.10213
1359.32818,0.10083
1357.26859,0.09984
1355.20900,0.09904
1353.14941,0.09834
1351.08983,0.09774
1349.03024,0.09728
1346.97065,0.09703
1344.91106,0.09690
1342.85147,0.09675
1340.79188,0.09663
1338.73230,0.09658
1336.67271,0.09641
1334.61312,0.09603
1332.55353,0.09555
1330.49394,0.09510
1328.43436,0.09469
1326.37477,0.09425
1324.31518,0.09384
1322.25559,0.09352
1320.19600,0.09331
1318.13641,0.09324
1316.07683,0.09322
1314.01724,0.09323
1311.95765,0.09327
1309.89806,0.09322
1307.83847,0.09301
1305.77889,0.09266
1303.71930,0.09223
1301.65971,0.09178
1299.60012,0.09142
1297.54053,0.09108
1295.48095,0.09070
1293.42136,0.09043
1291.36177,0.09026
1289.30218,0.09003
1287.24259,0.08987
1285.18300,0.08986
1283.12342,0.08984
1281.06383,0.08965
1279.00424,0.08940
1276.94465,0.08922
1274.88506,0.08900
1272.82548,0.08874
1270.76589,0.08850
1268.70630,0.08832
1266.64671,0.08837
1264.58712,0.08865
1262.52753,0.08912
1260.46795,0.08984
1258.40836,0.09079
1256.34877,0.09180
1254.28918,0.09280
1252.22959,0.09387
1250.17001,0.09496
1248.11042,0.09599
1246.05083,0.09694
1243.99124,0.09786
1241.93165,0.09871
1239.87207,0.09941
1237.81248,0.10001
1235.75289,0.10050
1233.69330,0.10076
1231.63371,0.10083
1229.57412,0.10069
1227.51454,0.10028
1225.45495,0.09979
1223.39536,0.09933
1221.33577,0.09875
1219.27618,0.09778
1217.21660,0.09662
1215.15701,0.09554
1213.09742,0.09440
1211.03783,0.09305
1208.97824,0.09155
1206.91865,0.09001
1204.85907,0.08851
1202.79948,0.08704
1200.73989,0.08551
1198.68030,0.08404
1196.62071,0.08271
1194.56113,0.08155
1192.50154,0.08061
1190.44195,0.07972
1188.38236,0.07879
1186.32277,0.07800
1184.26319,0.07741
1182.20360,0.07693
1180.14401,0.07664
1178.08442,0.07667
1176.02483,0.07702
1173.96524,0.07759
1171.90566,0.07828
1169.84607,0.07897
1167.78648,0.07951
1165.72689,0.07988
1163.66730,0.08013
1161.60772,0.08019
1159.54813,0.08002
1157.48854,0.07951
1155.42895,0.07864
1153.36936,0.07769
1151.30977,0.07678
1149.25019,0.07576
1147.19060,0.07463
1145.13101,0.07353
1143.07142,0.07253
1141.01183,0.07163
1138.95225,0.07075
1136.89266,0.06997
1134.83307,0.06949
1132.77348,0.06915
1130.71389,0.06871
1128.65431,0.06819
1126.59472,0.06780
1124.53513,0.06752
1122.47554,0.06718
1120.41595,0.06677
1118.35636,0.06639
1116.29678,0.06607
1114.23719,0.06577
1112.17760,0.06544
1110.11801,0.06509
1108.05842,0.06483
1105.99884,0.06473
1103.93925,0.06462
1101.87966,0.06453
1099.82007,0.06456
1097.76048,0.06454
1095.70089,0.06441
1093.64131,0.06452
1091.58172,0.06507
1089.52213,0.06598
1087.46254,0.06710
1085.40295,0.06826
1083.34337,0.06950
1081.28378,0.07091
1079.22419,0.07247
1077.16460,0.07396
1075.10501,0.07527
1073.04543,0.07656
1070.98584,0.07782
1068.92625,0.07888
1066.86666,0.07968
1064.80707,0.08011
1062.74748,0.08011
1060.68790,0.07989
1058.62831,0.07951
1056.56872,0.07887
1054.50913,0.07800
1052.44954,0.07713
1050.38996,0.07638
1048.33037,0.07569
1046.27078,0.07492
1044.21119,0.07399
1042.15160,0.07296
1040.09201,0.07186
1038.03243,0.07074
1035.97284,0.06986
1033.91325,0.06927
1031.85366,0.06864
1029.79407,0.06777
1027.73449,0.06677
1025.67490,0.06571
1023.61531,0.06453
1021.55572,0.06328
1019.49613,0.06210
1017.43655,0.06097
1015.37696,0.05985
1013.31737,0.05886
1011.25778,0.05805
1009.19819,0.05729
1007.13860,0.05638
1005.07902,0.05547
1003.01943,0.05475
1000.95984,0.05406
998.90025,0.05331
996.84066,0.05261
994.78108,0.05200
992.72149,0.05147
990.66190,0.05105
988.60231,0.05071
986.54272,0.05035
984.48313,0.04994
982.42355,0.04960
980.36396,0.04941
978.30437,0.04922
976.24478,0.04906
974.18519,0.04897
972.12561,0.04888
970.06602,0.04898
968.00643,0.04934
965.94684,0.04972
963.88725,0.04993
961.82767,0.04998
959.76808,0.04995
957.70849,0.04970
955.64890,0.04916
953.58931,0.04860
951.52972,0.04829
949.47014,0.04804
947.41055,0.04772
945.35096,0.04745
943.29137,0.04731
941.23178,0.04716
939.17220,0.04686
937.11261,0.04658
935.05302,0.04650
932.99343,0.04645
930.93384,0.04629
928.87425,0.04615
926.81467,0.04600
924.75508,0.04561
922.69549,0.04505
920.63590,0.04467
918.57631,0.04439
916.51673,0.04403
914.45714,0.04356
912.39755,0.04309
910.33796,0.04279
908.27837,0.04270
906.21879,0.04267
904.15920,0.04262
902.09961,0.04251
900.04002,0.04225
897.98043,0.04196
895.92084,0.04175
893.86126,0.04150
891.80167,0.04112
889.74208,0.04070
887.68249,0.04040
885.62290,0.04017
883.56332,0.03987
881.50373,0.03951
879.44414,0.03915
877.38455,0.03889
875.32496,0.03872
873.26537,0.03859
871.20579,0.03843
869.14620,0.03824
867.08661,0.03800
865.02702,0.03768
862.96743,0.03737
860.90785,0.03714
858.84826,0.03692
856.78867,0.03673
854.72908,0.03666
852.66949,0.03660
850.60991,0.03646
848.55032,0.03627
846.49073,0.03603
844.43114,0.03583
842.37155,0.03585
840.31196,0.03597
838.25238,0.03606
836.19279,0.03613
834.13320,0.03623
832.07361,0.03641
830.01402,0.03661
827.95444,0.03666
825.89485,0.03669
823.83526,0.03685
821.77567,0.03698
819.71608,0.03693
817.65649,0.03692
815.59691,0.03713
813.53732,0.03735
811.47773,0.03744
809.41814,0.03753
807.35855,0.03761
805.29897,0.03755
803.23938,0.03755
801.17979,0.03766
799.12020,0.03768
797.06061,0.03771
795.00103,0.03785
792.94144,0.03805
790.88185,0.03837
788.82226,0.03870
786.76267,0.03903
784.70308,0.03941
782.64350,0.03972
780.58391,0.04003
778.52432,0.04038
776.46473,0.04069
774.40514,0.04104
772.34556,0.04148
770.28597,0.04180
768.22638,0.04190
766.16679,0.04198
764.10720,0.04218
762.04761,0.04237
759.98803,0.04247
757.92844,0.04255
755.86885,0.04272
753.80926,0.04294
751.74967,0.04321
749.69009,0.04354
747.63050,0.04391
745.57091,0.04416
743.51132,0.04414
741.45173,0.04396
739.39215,0.04393
737.33256,0.04411
735.27297,0.04439
733.21338,0.04467
731.15379,0.04492
729.09420,0.04534
727.03462,0.04607
724.97503,0.04691
722.91544,0.04781
720.85585,0.04892
718.79626,0.05017
716.73668,0.05129
714.67709,0.05224
712.61750,0.05319
710.55791,0.05432
708.49832,0.05563
706.43873,0.05702
704.37915,0.05843
702.31956,0.05981
700.25997,0.06090
698.20038,0.06151
696.14079,0.06169
694.08121,0.06167
692.02162,0.06159
689.96203,0.06144
687.90244,0.06132
685.84285,0.06132
683.78327,0.06137
681.72368,0.06139
679.66409,0.06150
677.60450,0.06164
675.54491,0.06161
673.48532,0.06162
671.42574,0.06178
669.36615,0.06196
667.30656,0.06211
665.24697,0.06203
663.18738,0.06180
661.12780,0.06167
659.06821,0.06175
657.00862,0.06185
654.94903,0.06183
652.88944,0.06188
650.82985,0.06211
648.77027,0.06243
646.71068,0.06265
644.65109,0.06274
642.59150,0.06282
640.53191,0.06289
638.47233,0.06294
636.41274,0.06325
634.35315,0.06380
632.29356,0.06419
630.23397,0.06431
628.17439,0.06439
626.11480,0.06444
624.05521,0.06443
621.99562,0.06437
619.93603,0.06418
617.87644,0.06389
615.81686,0.06353
613.75727,0.06323
611.69768,0.06300
609.63809,0.06261
607.57850,0.06221
605.51892,0.06198
603.45933,0.06170
601.39974,0.06136
599.34015,0.06110
597.28056,0.06079
595.22097,0.06051
593.16139,0.06050
591.10180,0.06082
589.04221,0.06111
586.98262,0.06099
584.92303,0.06067
582.86345,0.06053
580.80386,0.06050
578.74427,0.06047
576.68468,0.06057
574.62509,0.06066
572.56551,0.06058
570.50592,0.06053
568.44633,0.06067
566.38674,0.06075
564.32715,0.06063
562.26756,0.06041
560.20798,0.06021
558.14839,0.06011
556.08880,0.06006
554.02921,0.05996
551.96962,0.05983
549.91004,0.05959
547.85045,0.05938
545.79086,0.05938
543.73127,0.05949
541.67168,0.05949
539.61209,0.05921
537.55251,0.05875
535.49292,0.05848
533.43333,0.05845
531.37374,0.05834
529.31415,0.05806
527.25457,0.05777
525.19498,0.05759
523.13539,0.05756
521.07580,0.05747
519.01621,0.05715
516.95663,0.05696
514.89704,0.05699
512.83745,0.05674
510.77786,0.05619
508.71827,0.05570
506.65868,0.05540
504.59910,0.05518
502.53951,0.05501
500.47992,0.05490
498.42033,0.05486
496.36074,0.05489
494.30116,0.05473
492.24157,0.05425
490.18198,0.05382
488.12239,0.05376
486.06280,0.05355
484.00321,0.05290
481.94363,0.05225
479.88404,0.05193
477.82445,0.05188
475.76486,0.05178
473.70527,0.05139
471.64569,0.05095
469.58610,0.05066
467.52651,0.05046
465.46692,0.05036
463.40733,0.05039
461.34775,0.05036
459.28816,0.05007
457.22857,0.04967
455.16898,0.04931
453.10939,0.04897
451.04980,0.04889
448.99022,0.04892
446.93063,0.04842
444.87104,0.04765
442.81145,0.04729
440.75186,0.04731
438.69228,0.04708
436.63269,0.04641
434.57310,0.04578
432.51351,0.04525
430.45392,0.04438
428.39433,0.04362
426.33475,0.04351
424.27516,0.04330
422.21557,0.04234
420.15598,0.04139
418.09639,0.04125
416.03681,0.04121
413.97722,0.04059
411.91763,0.03982
409.85804,0.03920
407.79845,0.03878
405.73887,0.03875
403.67928,0.03870
401.61969,0.03818
399.56010,0.03769
