3997.66060,0.00031
3995.60101,0.00043
3993.54142,0.00039
3991.48183,0.00029
3989.42224,0.00042
3987.36265,0.00072
3985.30307,0.00088
3983.24348,0.00079
3981.18389,0.00054
3979.12430,0.00031
3977.06471,0.00035
3975.00513,0.00049
3972.94554,0.00047
3970.88595,0.00047
3968.82636,0.00056
3966.76677,0.00055
3964.70719,0.00046
3962.64760,0.00043
3960.58801,0.00044
3958.52842,0.00045
3956.46883,0.00051
3954.40924,0.00058
3952.34966,0.00069
3950.29007,0.00087
3948.23048,0.00085
3946.17089,0.00062
3944.11130,0.00048
3942.05172,0.00044
3939.99213,0.00038
3937.93254,0.00038
3935.87295,0.00051
3933.81336,0.00057
3931.75377,0.00059
3929.69419,0.00061
3927.63460,0.00052
3925.57501,0.00045
3923.51542,0.00050
3921.45583,0.00050
3919.39625,0.00044
3917.33666,0.00038
3915.27707,0.00036
3913.21748,0.00044
3911.15789,0.00054
3909.09831,0.00058
3907.03872,0.00056
3904.97913,0.00043
3902.91954,0.00026
3900.85995,0.00026
3898.80036,0.00041
3896.74078,0.00041
3894.68119,0.00030
3892.62160,0.00029
3890.56201,0.00032
3888.50242,0.00030
3886.44284,0.00034
3884.38325,0.00037
3882.32366,0.00027
3880.26407,0.00032
3878.20448,0.00052
3876.14489,0.00064
3874.08531,0.00061
3872.02572,0.00051
3869.96613,0.00038
3867.90654,0.00012
3865.84695,-0.00002
3863.78737,0.00012
3861.72778,0.00038
3859.66819,0.00056
3857.60860,0.00047
3855.54901,0.00012
3853.48943,-0.00001
3851.42984,0.00042
3849.37025,0.00071
3847.31066,0.00069
3845.25107,0.00052
3843.19148,0.00047
3841.13190,0.00047
3839.07231,0.00045
3837.01272,0.00060
3834.95313,0.00067
3832.89354,0.00040
3830.83396,0.00002
3828.77437,-0.00012
3826.71478,0.00005
3824.65519,0.00037
3822.59560,0.00069
3820.53601,0.00080
3818.47643,0.00054
3816.41684,0.00028
3814.35725,0.00027
3812.29766,0.00041
3810.23807,0.00051
3808.17849,0.00049
3806.11890,0.00036
3804.05931,0.00021
3801.99972,0.00001
3799.94013,-0.00011
3797.88055,0.00002
3795.82096,0.00020
3793.76137,0.00034
3791.70178,0.00046
3789.64219,0.00052
3787.58260,0.00054
3785.52302,0.00054
3783.46343,0.00044
3781.40384,0.00027
3779.34425,0.00025
3777.28466,0.00031
3775.22508,0.00024
3773.16549,0.00020
3771.10590,0.00025
3769.04631,0.00028
3766.98672,0.00033
3764.92713,0.00051
3762.86755,0.00063
3760.80796,0.00064
3758.74837,0.00062
3756.68878,0.00052
3754.62919,0.00045
3752.56961,0.00052
3750.51002,0.00076
3748.45043,0.00103
3746.39084,0.00105
3744.33125,0.00075
3742.27167,0.00033
3740.21208,0.00015
3738.15249,0.00011
3736.09290,0.00014
3734.03331,0.00025
3731.97372,0.00033
3729.91414,0.00052
3727.85455,0.00067
3725.79496,0.00053
3723.73537,0.00037
3721.67578,0.00029
3719.61620,0.00020
3717.55661,0.00021
3715.49702,0.00024
3713.43743,0.00022
3711.37784,0.00033
3709.31825,0.00055
3707.25867,0.00061
3705.19908,0.00049
3703.13949,0.00043
3701.07990,0.00056
3699.02031,0.00053
3696.96073,0.00027
3694.90114,0.00016
3692.84155,0.00033
3690.78196,0.00056
3688.72237,0.00066
3686.66279,0.00074
3684.60320,0.00080
3682.54361,0.00074
3680.48402,0.00060
3678.42443,0.00049
3676.36484,0.00039
3674.30526,0.00036
3672.24567,0.00039
3670.18608,0.00039
3668.12649,0.00042
3666.06690,0.00055
3664.00732,0.00057
3661.94773,0.00037
3659.88814,0.00018
3657.82855,0.00021
3655.76896,0.00035
3653.70937,0.00044
3651.64979,0.00047
3649.59020,0.00036
3647.53061,0.00031
3645.47102,0.00051
3643.41143,0.00062
3641.35185,0.00052
3639.29226,0.00032
3637.23267,0.00025
3635.17308,0.00047
3633.11349,0.00069
3631.05391,0.00066
3628.99432,0.00054
3626.93473,0.00048
3624.87514,0.00036
3622.81555,0.00020
3620.75596,0.00014
3618.69638,0.00017
3616.63679,0.00013
3614.57720,-0.00004
3612.51761,-0.00007
3610.45802,0.00016
3608.39844,0.00039
3606.33885,0.00041
3604.27926,0.00024
3602.21967,0.00008
3600.16008,0.00029
3598.10049,0.00067
3596.04091,0.00066
3593.98132,0.00039
3591.92173,0.00036
3589.86214,0.00047
3587.80255,0.00046
3585.74297,0.00049
3583.68338,0.00057
3581.62379,0.00053
3579.56420,0.00043
3577.50461,0.00039
3575.44503,0.00043
3573.38544,0.00046
3571.32585,0.00035
3569.26626,0.00029
3567.20667,0.00049
3565.14708,0.00060
3563.08750,0.00052
3561.02791,0.00045
3558.96832,0.00044
3556.90873,0.00050
3554.84914,0.00058
3552.78956,0.00054
3550.72997,0.00043
3548.67038,0.00040
3546.61079,0.00043
3544.55120,0.00041
3542.49161,0.00036
3540.43203,0.00041
3538.37244,0.00051
3536.31285,0.00055
3534.25326,0.00053
3532.19367,0.00052
3530.13409,0.00055
3528.07450,0.00061
3526.01491,0.00067
3523.95532,0.00065
3521.89573,0.00059
3519.83615,0.00055
3517.77656,0.00048
3515.71697,0.00050
3513.65738,0.00052
3511.59779,0.00038
3509.53820,0.00039
3507.47862,0.00057
3505.41903,0.00061
3503.35944,0.00055
3501.29985,0.00051
3499.24026,0.00049
3497.18068,0.00052
3495.12109,0.00055
3493.06150,0.00054
3491.00191,0.00055
3488.94232,0.00062
3486.88273,0.00065
3484.82315,0.00055
3482.76356,0.00048
3480.70397,0.00058
3478.64438,0.00068
3476.58479,0.00060
3474.52521,0.00038
3472.46562,0.00018
3470.40603,0.00009
3468.34644,0.00008
3466.28685,0.00005
3464.22727,0.00006
3462.16768,0.00024
3460.10809,0.00040
3458.04850,0.00045
3455.98891,0.00050
3453.92932,0.00059
3451.86974,0.00071
3449.81015,0.00066
3447.75056,0.00048
3445.69097,0.00046
3443.63138,0.00054
3441.57180,0.00061
3439.51221,0.00073
3437.45262,0.00085
3435.39303,0.00091
3433.33344,0.00082
3431.27385,0.00056
3429.21427,0.00030
3427.15468,0.00025
3425.09509,0.00030
3423.03550,0.00032
3420.97591,0.00038
3418.91633,0.00047
3416.85674,0.00053
3414.79715,0.00045
3412.73756,0.00032
3410.67797,0.00036
3408.61839,0.00046
3406.55880,0.00041
3404.49921,0.00035
3402.43962,0.00045
3400.38003,0.00055
3398.32044,0.00055
3396.26086,0.00051
3394.20127,0.00040
3392.14168,0.00028
3390.08209,0.00026
3388.02250,0.00037
3385.96292,0.00047
3383.90333,0.00050
3381.84374,0.00047
3379.78415,0.00038
3377.72456,0.00032
3375.66497,0.00038
3373.60539,0.00052
3371.54580,0.00066
3369.48621,0.00063
3367.42662,0.00050
3365.36703,0.00044
3363.30745,0.00047
3361.24786,0.00043
3359.18827,0.00027
3357.12868,0.00018
3355.06909,0.00022
3353.00951,0.00041
3350.94992,0.00067
3348.89033,0.00074
3346.83074,0.00055
3344.77115,0.00040
3342.71156,0.00043
3340.65198,0.00048
3338.59239,0.00043
3336.53280,0.00042
3334.47321,0.00051
3332.41362,0.00058
3330.35404,0.00058
3328.29445,0.00056
3326.23486,0.00060
3324.17527,0.00069
3322.11568,0.00069
3320.05609,0.00061
3317.99651,0.00061
3315.93692,0.00061
3313.87733,0.00054
3311.81774,0.00057
3309.75815,0.00066
3307.69857,0.00064
3305.63898,0.00060
3303.57939,0.00053
3301.51980,0.00045
3299.46021,0.00046
3297.40063,0.00053
3295.34104,0.00053
3293.28145,0.00050
3291.22186,0.00057
3289.16227,0.00066
3287.10268,0.00058
3285.04310,0.00040
3282.98351,0.00033
3280.92392,0.00037
3278.86433,0.00036
3276.80474,0.00029
3274.74516,0.00033
3272.68557,0.00044
3270.62598,0.00048
3268.56639,0.00049
3266.50680,0.00054
3264.44721,0.00057
3262.38763,0.00057
3260.32804,0.00060
3258.26845,0.00061
3256.20886,0.00054
3254.14927,0.00046
3252.08969,0.00042
3250.03010,0.00041
3247.97051,0.00044
3245.91092,0.00047
3243.85133,0.00048
3241.79175,0.00053
3239.73216,0.00066
3237.67257,0.00074
3235.61298,0.00068
3233.55339,0.00054
3231.49380,0.00044
3229.43422,0.00042
3227.37463,0.00038
3225.31504,0.00038
3223.25545,0.00045
3221.19586,0.00051
3219.13628,0.00054
3217.07669,0.00053
3215.01710,0.00049
3212.95751,0.00050
3210.89792,0.00064
3208.83833,0.00070
3206.77875,0.00049
3204.71916,0.00026
3202.65957,0.00020
3200.59998,0.00024
3198.54039,0.00029
3196.48081,0.00041
3194.42122,0.00059
3192.36163,0.00071
3190.30204,0.00079
3188.24245,0.00079
3186.18287,0.00064
3184.12328,0.00053
3182.06369,0.00055
3180.00410,0.00060
3177.94451,0.00058
3175.88492,0.00049
3173.82534,0.00040
3171.76575,0.00039
3169.70616,0.00047
3167.64657,0.00051
3165.58698,0.00051
3163.52740,0.00049
3161.46781,0.00048
3159.40822,0.00049
3157.34863,0.00045
3155.28904,0.00044
3153.22945,0.00055
3151.16987,0.00061
3149.11028,0.00054
3147.05069,0.00053
3144.99110,0.00054
3142.93151,0.00050
3140.87193,0.00048
3138.81234,0.00045
3136.75275,0.00040
3134.69316,0.00042
3132.63357,0.00052
3130.57399,0.00060
3128.51440,0.00061
3126.45481,0.00053
3124.39522,0.00042
3122.33563,0.00045
3120.27604,0.00057
3118.21646,0.00058
3116.15687,0.00042
3114.09728,0.00027
3112.03769,0.00037
3109.97810,0.00060
3107.91852,0.00066
3105.85893,0.00055
3103.79934,0.00039
3101.73975,0.00034
3099.68016,0.00040
3097.62057,0.00048
3095.56099,0.00046
3093.50140,0.00033
3091.44181,0.00027
3089.38222,0.00040
3087.32263,0.00053
3085.26305,0.00050
3083.20346,0.00040
3081.14387,0.00038
3079.08428,0.00041
3077.02469,0.00044
3074.96511,0.00044
3072.90552,0.00044
3070.84593,0.00053
3068.78634,0.00063
3066.72675,0.00055
3064.66716,0.00038
3062.60758,0.00030
3060.54799,0.00030
3058.48840,0.00030
3056.42881,0.00029
3054.36922,0.00030
3052.30964,0.00034
3050.25005,0.00041
3048.19046,0.00045
3046.13087,0.00044
3044.07128,0.00046
3042.01169,0.00049
3039.95211,0.00046
3037.89252,0.00041
3035.83293,0.00037
3033.77334,0.00032
3031.71375,0.00027
3029.65417,0.00022
3027.59458,0.00023
3025.53499,0.00034
3023.47540,0.00053
3021.41581,0.00073
3019.35623,0.00076
3017.29664,0.00060
3015.23705,0.00045
3013.17746,0.00043
3011.11787,0.00045
3009.05828,0.00045
3006.99870,0.00048
3004.93911,0.00052
3002.87952,0.00052
3000.81993,0.00057
2998.76034,0.00064
2996.70076,0.00062
2994.64117,0.00057
2992.58158,0.00054
2990.52199,0.00060
2988.46240,0.00076
2986.40281,0.00087
2984.34323,0.00085
2982.28364,0.00078
2980.22405,0.00072
2978.16446,0.00058
2976.10487,0.00048
2974.04529,0.00058
2971.98570,0.00075
2969.92611,0.00084
2967.86652,0.00088
2965.80693,0.00096
2963.74735,0.00111
2961.68776,0.00123
2959.62817,0.00121
2957.56858,0.00116
2955.50899,0.00125
2953.44940,0.00134
2951.38982,0.00129
2949.33023,0.00122
2947.27064,0.00121
2945.21105,0.00123
2943.15146,0.00128
2941.09188,0.00135
2939.03229,0.00139
2936.97270,0.00143
2934.91311,0.00159
2932.85352,0.00185
2930.79393,0.00207
2928.73435,0.00224
2926.67476,0.00240
2924.61517,0.00249
2922.55558,0.00255
2920.49599,0.00253
2918.43641,0.00234
2916.37682,0.00208
2914.31723,0.00196
2912.25764,0.00191
2910.19805,0.00181
2908.13847,0.00167
2906.07888,0.00148
2904.01929,0.00131
2901.95970,0.00123
2899.90011,0.00122
2897.84052,0.00124
2895.78094,0.00123
2893.72135,0.00114
2891.66176,0.00108
2889.60217,0.00111
2887.54258,0.00115
2885.48300,0.00112
2883.42341,0.00110
2881.36382,0.00109
2879.30423,0.00106
2877.24464,0.00099
2875.18505,0.00096
2873.12547,0.00099
2871.06588,0.00101
2869.00629,0.00109
2866.94670,0.00122
2864.88711,0.00134
2862.82753,0.00139
2860.76794,0.00134
2858.70835,0.00135
2856.64876,0.00154
2854.58917,0.00179
2852.52959,0.00189
2850.47000,0.00183
2848.41041,0.00160
2846.35082,0.00137
2844.29123,0.00132
2842.23164,0.00124
2840.17206,0.00112
2838.11247,0.00109
2836.05288,0.00105
2833.99329,0.00100
2831.93370,0.00096
2829.87412,0.00091
2827.81453,0.00083
2825.75494,0.00073
2823.69535,0.00066
2821.63576,0.00066
2819.57617,0.00070
2817.51659,0.00066
2815.45700,0.00058
2813.39741,0.00054
2811.33782,0.00060
2809.27823,0.00066
2807.21865,0.00067
2805.15906,0.00065
2803.09947,0.00062
2801.03988,0.00056
2798.98029,0.00046
2796.92071,0.00039
2794.86112,0.00043
2792.80153,0.00047
2790.74194,0.00044
2788.68235,0.00047
2786.62276,0.00058
2784.56318,0.00068
2782.50359,0.00068
2780.44400,0.00062
2778.38441,0.00055
2776.32482,0.00054
2774.26524,0.00058
2772.20565,0.00056
2770.14606,0.00049
2768.08647,0.00050
2766.02688,0.00061
2763.96729,0.00067
2761.90771,0.00058
2759.84812,0.00048
2757.78853,0.00048
2755.72894,0.00051
2753.66935,0.00055
2751.60977,0.00058
2749.55018,0.00052
2747.49059,0.00044
2745.43100,0.00043
2743.37141,0.00047
2741.31183,0.00051
2739.25224,0.00053
2737.19265,0.00049
2735.13306,0.00042
2733.07347,0.00037
2731.01388,0.00037
2728.95430,0.00040
2726.89471,0.00046
2724.83512,0.00049
2722.77553,0.00048
2720.71594,0.00047
2718.65636,0.00046
2716.59677,0.00043
2714.53718,0.00040
2712.47759,0.00037
2710.41800,0.00036
2708.35841,0.00043
2706.29883,0.00050
2704.23924,0.00046
2702.17965,0.00046
2700.12006,0.00055
2698.06047,0.00058
2696.00089,0.00051
2693.94130,0.00048
2691.88171,0.00048
2689.82212,0.00050
2687.76253,0.00058
2685.70295,0.00060
2683.64336,0.00052
2681.58377,0.00050
2679.52418,0.00057
2677.46459,0.00056
2675.40500,0.00046
2673.34542,0.00037
2671.28583,0.00035
2669.22624,0.00039
2667.16665,0.00038
2665.10706,0.00035
2663.04748,0.00040
2660.98789,0.00052
2658.92830,0.00060
2656.86871,0.00065
2654.80912,0.00062
2652.74953,0.00051
2650.68995,0.00041
2648.63036,0.00033
2646.57077,0.00029
2644.51118,0.00033
2642.45159,0.00048
2640.39201,0.00063
2638.33242,0.00065
2636.27283,0.00057
2634.21324,0.00054
2632.15365,0.00061
2630.09407,0.00064
2628.03448,0.00053
2625.97489,0.00039
2623.91530,0.00032
2621.85571,0.00035
2619.79612,0.00050
2617.73654,0.00058
2615.67695,0.00047
2613.61736,0.00037
2611.55777,0.00043
2609.49818,0.00055
2607.43860,0.00057
2605.37901,0.00052
2603.31942,0.00057
2601.25983,0.00070
2599.20024,0.00075
2597.14065,0.00069
2595.08107,0.00060
2593.02148,0.00051
2590.96189,0.00048
2588.90230,0.00042
2586.84271,0.00033
2584.78313,0.00035
2582.72354,0.00045
2580.66395,0.00052
2578.60436,0.00049
2576.54477,0.00034
2574.48519,0.00024
2572.42560,0.00021
2570.36601,0.00022
2568.30642,0.00016
2566.24683,0.00004
2564.18724,0.00011
2562.12766,0.00024
2560.06807,0.00022
2558.00848,0.00026
2555.94889,0.00047
2553.88930,0.00060
2551.82972,0.00052
2549.77013,0.00054
2547.71054,0.00065
2545.65095,0.00049
2543.59136,0.00015
2541.53177,0.00009
2539.47219,0.00025
2537.41260,0.00039
2535.35301,0.00051
2533.29342,0.00065
2531.23383,0.00074
2529.17425,0.00061
2527.11466,0.00033
2525.05507,0.00030
2522.99548,0.00056
2520.93589,0.00071
2518.87631,0.00062
2516.81672,0.00051
2514.75713,0.00047
2512.69754,0.00059
2510.63795,0.00074
2508.57836,0.00068
2506.51878,0.00054
2504.45919,0.00058
2502.39960,0.00073
2500.34001,0.00078
2498.28042,0.00064
2496.22084,0.00043
2494.16125,0.00031
2492.10166,0.00030
2490.04207,0.00035
2487.98248,0.00047
2485.92289,0.00055
2483.86331,0.00049
2481.80372,0.00048
2479.74413,0.00053
2477.68454,0.00047
2475.62495,0.00030
2473.56537,0.00024
2471.50578,0.00032
2469.44619,0.00037
2467.38660,0.00033
2465.32701,0.00029
2463.26743,0.00031
2461.20784,0.00026
2459.14825,0.00022
2457.08866,0.00037
2455.02907,0.00052
2452.96948,0.00043
2450.90990,0.00023
2448.85031,0.00014
2446.79072,0.00029
2444.73113,0.00056
2442.67154,0.00060
2440.61196,0.00043
2438.55237,0.00031
2436.49278,0.00027
2434.43319,0.00020
2432.37360,0.00016
2430.31401,0.00023
2428.25443,0.00043
2426.19484,0.00063
2424.13525,0.00072
2422.07566,0.00067
2420.01607,0.00059
2417.95649,0.00059
2415.89690,0.00062
2413.83731,0.00056
2411.77772,0.00038
2409.71813,0.00027
2407.65855,0.00037
2405.59896,0.00048
2403.53937,0.00047
2401.47978,0.00040
2399.42019,0.00029
2397.36060,0.00022
2395.30102,0.00030
2393.24143,0.00046
2391.18184,0.00052
2389.12225,0.00046
2387.06266,0.00035
2385.00308,0.00028
2382.94349,0.00025
2380.88390,0.00025
2378.82431,0.00034
2376.76472,0.00049
2374.70513,0.00052
2372.64555,0.00048
2370.58596,0.00052
2368.52637,0.00052
2366.46678,0.00037
2364.40719,0.00010
2362.34761,-0.00012
2360.28802,0.00000
2358.22843,0.00042
2356.16884,0.00064
2354.10925,0.00063
2352.04967,0.00061
2349.99008,0.00054
2347.93049,0.00046
2345.87090,0.00054
2343.81131,0.00069
2341.75172,0.00055
2339.69214,0.00018
2337.63255,0.00009
2335.57296,0.00027
2333.51337,0.00034
2331.45378,0.00027
2329.39420,0.00023
2327.33461,0.00029
2325.27502,0.00047
2323.21543,0.00060
2321.15584,0.00059
2319.09625,0.00055
2317.03667,0.00056
2314.97708,0.00068
2312.91749,0.00079
2310.85790,0.00073
2308.79831,0.00049
2306.73873,0.00030
2304.67914,0.00029
2302.61955,0.00034
2300.55996,0.00035
2298.50037,0.00047
2296.44079,0.00065
2294.38120,0.00075
2292.32161,0.00074
2290.26202,0.00062
2288.20243,0.00049
2286.14284,0.00050
2284.08326,0.00059
2282.02367,0.00057
2279.96408,0.00032
2277.90449,0.00017
2275.84490,0.00034
2273.78532,0.00044
2271.72573,0.00022
2269.66614,0.00022
2267.60655,0.00059
2265.54696,0.00071
2263.48737,0.00042
2261.42779,0.00017
2259.36820,0.00019
2257.30861,0.00032
2255.24902,0.00039
2253.18943,0.00039
2251.12985,0.00027
2249.07026,-0.00003
2247.01067,-0.00015
2244.95108,0.00023
2242.89149,0.00078
2240.83191,0.00091
2238.77232,0.00062
2236.71273,0.00046
2234.65314,0.00042
2232.59355,0.00020
2230.53396,0.00009
2228.47438,0.00034
2226.41479,0.00053
2224.35520,0.00053
2222.29561,0.00067
2220.23602,0.00078
2218.17644,0.00061
2216.11685,0.00029
2214.05726,0.00010
2211.99767,0.00022
2209.93808,0.00028
2207.87849,0.00026
2205.81891,0.00047
2203.75932,0.00080
2201.69973,0.00098
2199.64014,0.00083
2197.58055,0.00068
2195.52097,0.00088
2193.46138,0.00124
2191.40179,0.00139
2189.34220,0.00122
2187.28261,0.00086
2185.22303,0.00054
2183.16344,0.00043
2181.10385,0.00027
2179.04426,0.00003
2176.98467,-0.00009
2174.92508,-0.00012
2172.86550,0.00017
2170.80591,0.00044
2168.74632,0.00039
2166.68673,0.00042
2164.62714,0.00060
2162.56756,0.00085
2160.50797,0.00102
2158.44838,0.00066
2156.38879,0.00007
2154.32920,-0.00004
2152.26961,0.00006
2150.21003,0.00001
2148.15044,0.00029
2146.09085,0.00087
2144.03126,0.00105
2141.97167,0.00072
2139.91209,0.00040
2137.85250,0.00050
2135.79291,0.00076
2133.73332,0.00081
2131.67373,0.00078
2129.61415,0.00069
2127.55456,0.00052
2125.49497,0.00042
2123.43538,0.00051
2121.37579,0.00077
2119.31620,0.00089
2117.25662,0.00073
2115.19703,0.00055
2113.13744,0.00035
2111.07785,0.00012
2109.01826,-0.00000
2106.95868,0.00004
2104.89909,0.00017
2102.83950,0.00039
2100.77991,0.00057
2098.72032,0.00048
2096.66073,0.00021
2094.60115,0.00005
2092.54156,0.00004
2090.48197,0.00003
2088.42238,0.00020
2086.36279,0.00054
2084.30321,0.00078
2082.24362,0.00089
2080.18403,0.00097
2078.12444,0.00097
2076.06485,0.00071
2074.00527,0.00031
2071.94568,0.00013
2069.88609,0.00019
2067.82650,0.00031
2065.76691,0.00028
2063.70732,0.00030
2061.64774,0.00064
2059.58815,0.00081
2057.52856,0.00057
2055.46897,0.00036
2053.40938,0.00029
2051.34980,0.00023
2049.29021,0.00032
2047.23062,0.00048
2045.17103,0.00063
2043.11144,0.00079
2041.05185,0.00065
2038.99227,0.00028
2036.93268,0.00017
2034.87309,0.00032
2032.81350,0.00045
2030.75391,0.00061
2028.69433,0.00073
2026.63474,0.00074
2024.57515,0.00079
2022.51556,0.00079
2020.45597,0.00079
2018.39639,0.00094
2016.33680,0.00089
2014.27721,0.00042
2012.21762,0.00017
2010.15803,0.00046
2008.09844,0.00073
2006.03886,0.00065
2003.97927,0.00035
2001.91968,0.00004
1999.86009,-0.00012
1997.80050,-0.00018
1995.74092,-0.00004
1993.68133,0.00048
1991.62174,0.00109
1989.56215,0.00124
1987.50256,0.00099
1985.44297,0.00061
1983.38339,0.00009
1981.32380,-0.00039
1979.26421,-0.00039
1977.20462,0.00007
1975.14503,0.00057
1973.08545,0.00088
1971.02586,0.00078
1968.96627,0.00029
1966.90668,-0.00007
1964.84709,0.00007
1962.78751,0.00044
1960.72792,0.00047
1958.66833,0.00016
1956.60874,0.00005
1954.54915,0.00028
1952.48956,0.00057
1950.42998,0.00058
1948.37039,0.00024
1946.31080,0.00001
1944.25121,-0.00005
1942.19162,-0.00023
1940.13204,-0.00031
1938.07245,0.00005
1936.01286,0.00067
1933.95327,0.00085
1931.89368,0.00039
1929.83409,-0.00003
1927.77451,0.00002
1925.71492,0.00022
1923.65533,0.00025
1921.59574,0.00010
1919.53615,-0.00001
1917.47657,0.00020
1915.41698,0.00035
1913.35739,0.00019
1911.29780,0.00009
1909.23821,0.00014
1907.17863,0.00018
1905.11904,0.00013
1903.05945,0.00018
1900.99986,0.00047
1898.94027,0.00064
1896.88068,0.00045
1894.82110,0.00029
1892.76151,0.00029
1890.70192,0.00025
1888.64233,0.00006
1886.58274,-0.00006
1884.52316,0.00003
1882.46357,0.00010
1880.40398,0.00013
1878.34439,0.00031
1876.28480,0.00048
1874.22521,0.00043
1872.16563,0.00022
1870.10604,0.00009
1868.04645,0.00018
1865.98686,0.00026
1863.92727,0.00026
1861.86769,0.00032
1859.80810,0.00038
1857.74851,0.00037
1855.68892,0.00037
1853.62933,0.00044
1851.56975,0.00053
1849.51016,0.00056
1847.45057,0.00049
1845.39098,0.00037
1843.33139,0.00044
1841.27180,0.00060
1839.21222,0.00057
1837.15263,0.00035
1835.09304,0.00017
1833.03345,0.00018
1830.97386,0.00024
1828.91428,0.00029
1826.85469,0.00042
1824.79510,0.00048
1822.73551,0.00041
1820.67592,0.00036
1818.61633,0.00037
1816.55675,0.00036
1814.49716,0.00040
1812.43757,0.00044
1810.37798,0.00041
1808.31839,0.00033
1806.25881,0.00029
1804.19922,0.00029
1802.13963,0.00030
1800.08004,0.00037
1798.02045,0.00038
1795.96087,0.00030
1793.90128,0.00023
1791.84169,0.00019
1789.78210,0.00020
1787.72251,0.00029
1785.66292,0.00037
1783.60334,0.00035
1781.54375,0.00023
1779.48416,0.00017
1777.42457,0.00023
1775.36498,0.00033
1773.30540,0.00048
1771.24581,0.00052
1769.18622,0.00039
1767.12663,0.00031
1765.06704,0.00036
1763.00745,0.00049
1760.94787,0.00063
1758.88828,0.00071
1756.82869,0.00081
1754.76910,0.00095
1752.70951,0.00114
1750.64993,0.00134
1748.59034,0.00149
1746.53075,0.00168
1744.47116,0.00187
1742.41157,0.00193
1740.35199,0.00178
1738.29240,0.00149
1736.23281,0.00132
1734.17322,0.00124
1732.11363,0.00112
1730.05404,0.00099
1727.99446,0.00088
1725.93487,0.00078
1723.87528,0.00071
1721.81569,0.00065
1719.75610,0.00057
1717.69652,0.00049
1715.63693,0.00045
1713.57734,0.00043
1711.51775,0.00045
1709.45816,0.00051
1707.39857,0.00055
1705.33899,0.00051
1703.27940,0.00046
1701.21981,0.00047
1699.16022,0.00057
1697.10063,0.00068
1695.04105,0.00069
1692.98146,0.00061
1690.92187,0.00058
1688.86228,0.00061
1686.80269,0.00056
1684.74311,0.00037
1682.68352,0.00031
1680.62393,0.00046
1678.56434,0.00059
1676.50475,0.00052
1674.44516,0.00039
1672.38558,0.00049
1670.32599,0.00063
1668.26640,0.00067
1666.20681,0.00069
1664.14722,0.00074
1662.08764,0.00073
1660.02805,0.00068
1657.96846,0.00070
1655.90887,0.00081
1653.84928,0.00084
1651.78969,0.00069
1649.73011,0.00063
1647.67052,0.00066
1645.61093,0.00066
1643.55134,0.00062
1641.49175,0.00056
1639.43217,0.00053
1637.37258,0.00059
1635.31299,0.00062
1633.25340,0.00055
1631.19381,0.00056
1629.13423,0.00063
1627.07464,0.00066
1625.01505,0.00065
1622.95546,0.00062
1620.89587,0.00058
1618.83628,0.00056
1616.77670,0.00061
1614.71711,0.00069
1612.65752,0.00066
1610.59793,0.00058
1608.53834,0.00053
1606.47876,0.00047
1604.41917,0.00048
1602.35958,0.00059
1600.29999,0.00064
1598.24040,0.00054
1596.18081,0.00047
1594.12123,0.00050
1592.06164,0.00051
1590.00205,0.00048
1587.94246,0.00045
1585.88287,0.00043
1583.82329,0.00040
1581.76370,0.00036
1579.70411,0.00037
1577.64452,0.00045
1575.58493,0.00048
1573.52535,0.00041
1571.46576,0.00039
1569.40617,0.00043
1567.34658,0.00049
1565.28699,0.00051
1563.22740,0.00048
1561.16782,0.00048
1559.10823,0.00059
1557.04864,0.00065
1554.98905,0.00059
1552.92946,0.00050
1550.86988,0.00044
1548.81029,0.00050
1546.75070,0.00064
1544.69111,0.00075
1542.63152,0.00075
1540.57193,0.00073
1538.51235,0.00072
1536.45276,0.00068
1534.39317,0.00058
1532.33358,0.00053
1530.27399,0.00064
1528.21441,0.00075
1526.15482,0.00070
1524.09523,0.00061
1522.03564,0.00060
1519.97605,0.00053
1517.91647,0.00042
1515.85688,0.00042
1513.79729,0.00053
1511.73770,0.00066
1509.67811,0.00070
1507.61852,0.00060
1505.55894,0.00057
1503.49935,0.00065
1501.43976,0.00067
1499.38017,0.00068
1497.32058,0.00065
1495.26100,0.00057
1493.20141,0.00054
1491.14182,0.00054
1489.08223,0.00050
1487.02264,0.00053
1484.96305,0.00060
1482.90347,0.00056
1480.84388,0.00050
1478.78429,0.00050
1476.72470,0.00049
1474.66511,0.00048
1472.60553,0.00060
1470.54594,0.00074
1468.48635,0.00076
1466.42676,0.00073
1464.36717,0.00074
1462.30759,0.00081
1460.24800,0.00087
1458.18841,0.00089
1456.12882,0.00082
1454.06923,0.00076
1452.00964,0.00076
1449.95006,0.00081
1447.89047,0.00084
1445.83088,0.00088
1443.77129,0.00089
1441.71170,0.00078
1439.65212,0.00066
1437.59253,0.00062
1435.53294,0.00060
1433.47335,0.00059
1431.41376,0.00062
1429.35417,0.00067
1427.29459,0.00065
1425.23500,0.00055
1423.17541,0.00050
1421.11582,0.00052
1419.05623,0.00051
1416.99665,0.00052
1414.93706,0.00055
1412.87747,0.00054
1410.81788,0.00048
1408.75829,0.00045
1406.69871,0.00048
1404.63912,0.00054
1402.57953,0.00057
1400.51994,0.00059
1398.46035,0.00064
1396.40076,0.00071
1394.34118,0.00070
1392.28159,0.00068
1390.22200,0.00070
1388.16241,0.00072
1386.10282,0.00068
1384.04324,0.00062
1381.98365,0.00060
1379.92406,0.00060
1377.86447,0.00063
1375.80488,0.00064
1373.74529,0.00067
1371.68571,0.00069
1369.62612,0.00064
1367.56653,0.00062
1365.50694,0.00068
1363.44735,0.00069
1361.38777,0.00059
1359.32818,0.00051
1357.26859,0.00052
1355.20900,0.00056
1353.14941,0.00056
1351.08983,0.00058
1349.03024,0.00061
1346.97065,0.00061
1344.91106,0.00059
1342.85147,0.00061
1340.79188,0.00065
1338.73230,0.00063
1336.67271,0.00058
1334.61312,0.00054
1332.55353,0.00054
1330.49394,0.00053
1328.43436,0.00054
1326.37477,0.00060
1324.31518,0.00065
1322.25559,0.00064
1320.19600,0.00065
1318.13641,0.00063
1316.07683,0.00056
1314.01724,0.00054
1311.95765,0.00053
1309.89806,0.00051
1307.83847,0.00053
1305.77889,0.00060
1303.71930,0.00065
1301.65971,0.00062
1299.60012,0.00057
1297.54053,0.00055
1295.48095,0.00055
1293.42136,0.00054
1291.36177,0.00056
1289.30218,0.00060
1287.24259,0.00061
1285.18300,0.00060
1283.12342,0.00061
1281.06383,0.00063
1279.00424,0.00058
1276.94465,0.00046
1274.88506,0.00042
1272.82548,0.00050
1270.76589,0.00063
1268.70630,0.00073
1266.64671,0.00069
1264.58712,0.00061
1262.52753,0.00058
1260.46795,0.00065
1258.40836,0.00072
1256.34877,0.00068
1254.28918,0.00070
1252.22959,0.00078
1250.17001,0.00076
1248.11042,0.00069
1246.05083,0.00068
1243.99124,0.00072
1241.93165,0.00076
1239.87207,0.00076
1237.81248,0.00078
1235.75289,0.00085
1233.69330,0.00088
1231.63371,0.00084
1229.57412,0.00075
1227.51454,0.00068
1225.45495,0.00066
1223.39536,0.00068
1221.33577,0.00067
1219.27618,0.00063
1217.21660,0.00065
1215.15701,0.00069
1213.09742,0.00074
1211.03783,0.00079
1208.97824,0.00078
1206.91865,0.00076
1204.85907,0.00075
1202.79948,0.00074
1200.73989,0.00077
1198.68030,0.00084
1196.62071,0.00082
1194.56113,0.00077
1192.50154,0.00076
1190.44195,0.00078
1188.38236,0.00077
1186.32277,0.00077
1184.26319,0.00086
1182.20360,0.00099
1180.14401,0.00107
1178.08442,0.00110
1176.02483,0.00113
1173.96524,0.00111
1171.90566,0.00107
1169.84607,0.00113
1167.78648,0.00116
1165.72689,0.00108
1163.66730,0.00106
1161.60772,0.00118
1159.54813,0.00125
1157.48854,0.00121
1155.42895,0.00113
1153.36936,0.00102
1151.30977,0.00092
1149.25019,0.00092
1147.19060,0.00096
1145.13101,0.00095
1143.07142,0.00095
1141.01183,0.00093
1138.95225,0.00083
1136.89266,0.00079
1134.83307,0.00083
1132.77348,0.00080
1130.71389,0.00070
1128.65431,0.00065
1126.59472,0.00059
1124.53513,0.00053
1122.47554,0.00054
1120.41595,0.00064
1118.35636,0.00074
1116.29678,0.00077
1114.23719,0.00076
1112.17760,0.00071
1110.11801,0.00064
1108.05842,0.00065
1105.99884,0.00070
1103.93925,0.00080
1101.87966,0.00087
1099.82007,0.00084
1097.76048,0.00075
1095.70089,0.00073
1093.64131,0.00071
1091.58172,0.00066
1089.52213,0.00071
1087.46254,0.00083
1085.40295,0.00088
1083.34337,0.00084
1081.28378,0.00082
1079.22419,0.00078
1077.16460,0.00069
1075.10501,0.00067
1073.04543,0.00071
1070.98584,0.00069
1068.92625,0.00065
1066.86666,0.00069
1064.80707,0.00075
1062.74748,0.00075
1060.68790,0.00070
1058.62831,0.00062
1056.56872,0.00056
1054.50913,0.00054
1052.44954,0.00060
1050.38996,0.00064
1048.33037,0.00056
1046.27078,0.00055
1044.21119,0.00064
1042.15160,0.00071
1040.09201,0.00073
1038.03243,0.00069
1035.97284,0.00064
1033.91325,0.00065
1031.85366,0.00066
1029.79407,0.00063
1027.73449,0.00060
1025.67490,0.00053
1023.61531,0.00049
1021.55572,0.00060
1019.49613,0.00070
1017.43655,0.00060
1015.37696,0.00048
1013.31737,0.00051
1011.25778,0.00057
1009.19819,0.00055
1007.13860,0.00048
1005.07902,0.00048
1003.01943,0.00052
1000.95984,0.00054
998.90025,0.00051
996.84066,0.00044
994.78108,0.00039
992.72149,0.00036
990.66190,0.00036
988.60231,0.00036
986.54272,0.00035
984.48313,0.00037
982.42355,0.00048
980.36396,0.00057
978.30437,0.00052
976.24478,0.00042
974.18519,0.00040
972.12561,0.00041
970.06602,0.00042
968.00643,0.00047
965.94684,0.00048
963.88725,0.00044
961.82767,0.00041
959.76808,0.00039
957.70849,0.00036
955.64890,0.00034
953.58931,0.00032
951.52972,0.00034
949.47014,0.00045
947.41055,0.00051
945.35096,0.00045
943.29137,0.00039
941.23178,0.00038
939.17220,0.00035
937.11261,0.00035
935.05302,0.00047
932.99343,0.00054
930.93384,0.00050
928.87425,0.00046
926.81467,0.00047
924.75508,0.00052
922.69549,0.00058
920.63590,0.00058
918.57631,0.00051
916.51673,0.00039
914.45714,0.00034
912.39755,0.00043
910.33796,0.00055
908.27837,0.00050
906.21879,0.00032
904.15920,0.00016
902.09961,0.00013
900.04002,0.00013
897.98043,0.00006
895.92084,0.00004
893.86126,0.00008
891.80167,0.00018
889.74208,0.00032
887.68249,0.00040
885.62290,0.00042
883.56332,0.00049
881.50373,0.00058
879.44414,0.00054
877.38455,0.00037
875.32496,0.00030
873.26537,0.00036
871.20579,0.00042
869.14620,0.00038
867.08661,0.00041
865.02702,0.00045
862.96743,0.00041
860.90785,0.00047
858.84826,0.00056
856.78867,0.00049
854.72908,0.00043
852.66949,0.00046
850.60991,0.00040
848.55032,0.00025
846.49073,0.00027
844.43114,0.00043
842.37155,0.00048
840.31196,0.00044
838.25238,0.00047
836.19279,0.00053
834.13320,0.00058
832.07361,0.00064
830.01402,0.00053
827.95444,0.00032
825.89485,0.00020
823.83526,0.00019
821.77567,0.00030
819.71608,0.00051
817.65649,0.00062
815.59691,0.00052
813.53732,0.00033
811.47773,0.00024
809.41814,0.00032
807.35855,0.00046
805.29897,0.00055
803.23938,0.00057
801.17979,0.00049
799.12020,0.00026
797.06061,0.00003
795.00103,0.00012
792.94144,0.00047
790.88185,0.00070
788.82226,0.00069
786.76267,0.00053
784.70308,0.00037
782.64350,0.00032
780.58391,0.00034
778.52432,0.00030
776.46473,0.00023
774.40514,0.00021
772.34556,0.00018
770.28597,0.00021
768.22638,0.00031
766.16679,0.00034
764.10720,0.00039
762.04761,0.00048
759.98803,0.00048
757.92844,0.00036
755.86885,0.00026
753.80926,0.00026
751.74967,0.00032
749.69009,0.00026
747.63050,0.00018
745.57091,0.00033
743.51132,0.00058
741.45173,0.00059
739.39215,0.00053
737.33256,0.00054
735.27297,0.00047
733.21338,0.00030
731.15379,0.00038
729.09420,0.00068
727.03462,0.00075
724.97503,0.00056
722.91544,0.00049
720.85585,0.00066
718.79626,0.00078
716.73668,0.00077
714.67709,0.00080
712.61750,0.00075
710.55791,0.00054
708.49832,0.00035
706.43873,0.00035
704.37915,0.00057
702.31956,0.00099
700.25997,0.00115
698.20038,0.00071
696.14079,0.00029
694.08121,0.00033
692.02162,0.00046
689.96203,0.00050
687.90244,0.00047
685.84285,0.00041
683.78327,0.00047
681.72368,0.00058
679.66409,0.00072
677.60450,0.00078
675.54491,0.00060
673.48532,0.00046
671.42574,0.00059
669.36615,0.00082
667.30656,0.00095
665.24697,0.00097
663.18738,0.00098
661.12780,0.00086
659.06821,0.00077
657.00862,0.00087
654.94903,0.00100
652.88944,0.00101
650.82985,0.00083
648.77027,0.00045
646.71068,0.00028
644.65109,0.00044
642.59150,0.00054
640.53191,0.00069
638.47233,0.00101
636.41274,0.00118
634.35315,0.00096
632.29356,0.00058
630.23397,0.00047
628.17439,0.00060
626.11480,0.00067
624.05521,0.00055
621.99562,0.00034
619.93603,0.00022
617.87644,0.00027
615.81686,0.00044
613.75727,0.00055
611.69768,0.00050
609.63809,0.00052
607.57850,0.00072
605.51892,0.00093
603.45933,0.00096
601.39974,0.00071
599.34015,0.00040
597.28056,0.00029
595.22097,0.00016
593.16139,0.00002
591.10180,0.00018
589.04221,0.00050
586.98262,0.00056
584.92303,0.00043
582.86345,0.00044
580.80386,0.00065
578.74427,0.00084
576.68468,0.00078
574.62509,0.00062
572.56551,0.00049
570.50592,0.00039
568.44633,0.00039
566.38674,0.00060
564.32715,0.00074
562.26756,0.00057
560.20798,0.00027
558.14839,0.00001
556.08880,-0.00003
554.02921,0.00019
551.96962,0.00044
549.91004,0.00055
547.85045,0.00055
545.79086,0.00040
543.73127,0.00020
541.67168,0.00025
539.61209,0.00059
537.55251,0.00077
535.49292,0.00069
533.43333,0.00061
531.37374,0.00060
529.31415,0.00075
527.25457,0.00081
525.19498,0.00065
523.13539,0.00074
521.07580,0.00113
519.01621,0.00134
516.95663,0.00118
514.89704,0.00084
512.83745,0.00060
510.77786,0.00058
508.71827,0.00070
506.65868,0.00080
504.59910,0.00079
502.53951,0.00068
500.47992,0.00043
498.42033,0.00022
496.36074,0.00031
494.30116,0.00040
492.24157,0.00047
490.18198,0.00084
488.12239,0.00086
486.06280,0.00044
484.00321,0.00051
481.94363,0.00092
479.88404,0.00116
477.82445,0.00124
475.76486,0.00104
473.70527,0.00075
471.64569,0.00074
469.58610,0.00087
467.52651,0.00120
465.46692,0.00141
463.40733,0.00099
461.34775,0.00042
459.28816,0.00025
457.22857,0.00019
455.16898,0.00004
453.10939,0.00002
451.04980,0.00042
448.99022,0.00094
446.93063,0.00087
444.87104,0.00051
442.81145,0.00071
440.75186,0.00097
438.69228,0.00104
436.63269,0.00135
434.57310,0.00104
432.51351,-0.00010
430.45392,-0.00039
428.39433,0.00028
426.33475,0.00043
424.27516,0.00010
422.21557,0.00016
420.15598,0.00051
418.09639,0.00064
416.03681,0.00041
413.97722,-0.00001
411.91763,-0.00018
409.85804,0.00033
407.79845,0.00066
405.73887,0.00030
403.67928,0.00049
401.61969,0.00239
399.56010,0.00466
