3997.66060,0.07033
3995.60101,0.06972
3993.54142,0.06949
3991.48183,0.06938
3989.42224,0.06947
3987.36265,0.06987
3985.30307,0.07013
3983.24348,0.07020
3981.18389,0.07024
3979.12430,0.07055
3977.06471,0.07078
3975.00513,0.07037
3972.94554,0.06986
3970.88595,0.06964
3968.82636,0.06933
3966.76677,0.06915
3964.70719,0.06920
3962.64760,0.06905
3960.58801,0.06875
3958.52842,0.06864
3956.46883,0.06855
3954.40924,0.06854
3952.34966,0.06903
3950.29007,0.06938
3948.23048,0.06901
3946.17089,0.06837
3944.11130,0.06799
3942.05172,0.06796
3939.99213,0.06811
3937.93254,0.06867
3935.87295,0.06935
3933.81336,0.06923
3931.75377,0.06861
3929.69419,0.06837
3927.63460,0.06825
3925.57501,0.06797
3923.51542,0.06761
3921.45583,0.06727
3919.39625,0.06714
3917.33666,0.06698
3915.27707,0.06665
3913.21748,0.06667
3911.15789,0.06704
3909.09831,0.06696
3907.03872,0.06637
3904.97913,0.06605
3902.91954,0.06624
3900.85995,0.06656
3898.80036,0.06695
3896.74078,0.06716
3894.68119,0.06688
3892.62160,0.06660
3890.56201,0.06676
3888.50242,0.06671
3886.44284,0.06649
3884.38325,0.06684
3882.32366,0.06730
3880.26407,0.06738
3878.20448,0.06689
3876.14489,0.06616
3874.08531,0.06583
3872.02572,0.06567
3869.96613,0.06551
3867.90654,0.06572
3865.84695,0.06595
3863.78737,0.06601
3861.72778,0.06636
3859.66819,0.06642
3857.60860,0.06555
3855.54901,0.06469
3853.48943,0.06499
3851.42984,0.06565
3849.37025,0.06578
3847.31066,0.06541
3845.25107,0.06465
3843.19148,0.06421
3841.13190,0.06438
3839.07231,0.06476
3837.01272,0.06503
3834.95313,0.06488
3832.89354,0.06442
3830.83396,0.06434
3828.77437,0.06436
3826.71478,0.06404
3824.65519,0.06376
3822.59560,0.06385
3820.53601,0.06433
3818.47643,0.06451
3816.41684,0.06464
3814.35725,0.06453
3812.29766,0.06350
3810.23807,0.06278
3808.17849,0.06298
3806.11890,0.06334
3804.05931,0.06315
3801.99972,0.06267
3799.94013,0.06244
3797.88055,0.06244
3795.82096,0.06267
3793.76137,0.06294
3791.70178,0.06283
3789.64219,0.06246
3787.58260,0.06214
3785.52302,0.06216
3783.46343,0.06262
3781.40384,0.06279
3779.34425,0.06255
3777.28466,0.06253
3775.22508,0.06265
3773.16549,0.06249
3771.10590,0.06193
3769.04631,0.06133
3766.98672,0.06102
3764.92713,0.06120
3762.86755,0.06152
3760.80796,0.06139
3758.74837,0.06127
3756.68878,0.06143
3754.62919,0.06118
3752.56961,0.06088
3750.51002,0.06108
3748.45043,0.06059
3746.39084,0.05948
3744.33125,0.05921
3742.27167,0.05949
3740.21208,0.05964
3738.15249,0.06002
3736.09290,0.06022
3734.03331,0.05995
3731.97372,0.05986
3729.91414,0.05981
3727.85455,0.05926
3725.79496,0.05846
3723.73537,0.05780
3721.67578,0.05720
3719.61620,0.05724
3717.55661,0.05842
3715.49702,0.05952
3713.43743,0.05936
3711.37784,0.05852
3709.31825,0.05813
3707.25867,0.05823
3705.19908,0.05828
3703.13949,0.05822
3701.07990,0.05829
3699.02031,0.05826
3696.96073,0.05791
3694.90114,0.05733
3692.84155,0.05709
3690.78196,0.05713
3688.72237,0.05728
3686.66279,0.05812
3684.60320,0.05892
3682.54361,0.05897
3680.48402,0.05856
3678.42443,0.05829
3676.36484,0.05844
3674.30526,0.05841
3672.24567,0.05783
3670.18608,0.05749
3668.12649,0.05760
3666.06690,0.05764
3664.00732,0.05794
3661.94773,0.05860
3659.88814,0.05912
3657.82855,0.05920
3655.76896,0.05907
3653.70937,0.05870
3651.64979,0.05778
3649.59020,0.05710
3647.53061,0.05759
3645.47102,0.05844
3643.41143,0.05914
3641.35185,0.05971
3639.29226,0.05998
3637.23267,0.06014
3635.17308,0.06020
3633.11349,0.05996
3631.05391,0.05986
3628.99432,0.06073
3626.93473,0.06213
3624.87514,0.06242
3622.81555,0.06135
3620.75596,0.06016
3618.69638,0.06039
3616.63679,0.06141
3614.57720,0.06194
3612.51761,0.06233
3610.45802,0.06256
3608.39844,0.06246
3606.33885,0.06273
3604.27926,0.06318
3602.21967,0.06358
3600.16008,0.06424
3598.10049,0.06487
3596.04091,0.06563
3593.98132,0.06641
3591.92173,0.06661
3589.86214,0.06666
3587.80255,0.06704
3585.74297,0.06694
3583.68338,0.06645
3581.62379,0.06656
3579.56420,0.06701
3577.50461,0.06768
3575.44503,0.06873
3573.38544,0.06944
3571.32585,0.06906
3569.26626,0.06823
3567.20667,0.06872
3565.14708,0.07035
3563.08750,0.07141
3561.02791,0.07203
3558.96832,0.07292
3556.90873,0.07365
3554.84914,0.07377
3552.78956,0.07398
3550.72997,0.07458
3548.67038,0.07499
3546.61079,0.07536
3544.55120,0.07579
3542.49161,0.07617
3540.43203,0.07702
3538.37244,0.07826
3536.31285,0.07915
3534.25326,0.07949
3532.19367,0.07982
3530.13409,0.08041
3528.07450,0.08128
3526.01491,0.08227
3523.95532,0.08289
3521.89573,0.08310
3519.83615,0.08319
3517.77656,0.08333
3515.71697,0.08392
3513.65738,0.08489
3511.59779,0.08586
3509.53820,0.08669
3507.47862,0.08719
3505.41903,0.08753
3503.35944,0.08780
3501.29985,0.08804
3499.24026,0.08868
3497.18068,0.08942
3495.12109,0.08985
3493.06150,0.09047
3491.00191,0.09138
3488.94232,0.09218
3486.88273,0.09272
3484.82315,0.09328
3482.76356,0.09406
3480.70397,0.09479
3478.64438,0.09523
3476.58479,0.09561
3474.52521,0.09624
3472.46562,0.09698
3470.40603,0.09771
3468.34644,0.09853
3466.28685,0.09927
3464.22727,0.09999
3462.16768,0.10084
3460.10809,0.10150
3458.04850,0.10174
3455.98891,0.10210
3453.92932,0.10307
3451.86974,0.10416
3449.81015,0.10478
3447.75056,0.10519
3445.69097,0.10596
3443.63138,0.10714
3441.57180,0.10839
3439.51221,0.10919
3437.45262,0.10962
3435.39303,0.11006
3433.33344,0.11044
3431.27385,0.11105
3429.21427,0.11223
3427.15468,0.11354
3425.09509,0.11439
3423.03550,0.11475
3420.97591,0.11508
3418.91633,0.11591
3416.85674,0.11716
3414.79715,0.11828
3412.73756,0.11921
3410.67797,0.12010
3408.61839,0.12093
3406.55880,0.12166
3404.49921,0.12215
3402.43962,0.12276
3400.38003,0.12378
3398.32044,0.12481
3396.26086,0.12561
3394.20127,0.12646
3392.14168,0.12744
3390.08209,0.12824
3388.02250,0.12880
3385.96292,0.12940
3383.90333,0.13067
3381.84374,0.13253
3379.78415,0.13402
3377.72456,0.13480
3375.66497,0.13521
3373.60539,0.13583
3371.54580,0.13692
3369.48621,0.13829
3367.42662,0.13987
3365.36703,0.14167
3363.30745,0.14335
3361.24786,0.14463
3359.18827,0.14576
3357.12868,0.14712
3355.06909,0.14898
3353.00951,0.15106
3350.94992,0.15255
3348.89033,0.15355
3346.83074,0.15469
3344.77115,0.15591
3342.71156,0.15716
3340.65198,0.15882
3338.59239,0.16069
3336.53280,0.16239
3334.47321,0.16405
3332.41362,0.16576
3330.35404,0.16766
3328.29445,0.16982
3326.23486,0.17160
3324.17527,0.17294
3322.11568,0.17479
3320.05609,0.17721
3317.99651,0.17924
3315.93692,0.18105
3313.87733,0.18312
3311.81774,0.18517
3309.75815,0.18707
3307.69857,0.18903
3305.63898,0.19118
3303.57939,0.19337
3301.51980,0.19535
3299.46021,0.19695
3297.40063,0.19815
3295.34104,0.19922
3293.28145,0.20084
3291.22186,0.20293
3289.16227,0.20436
3287.10268,0.20515
3285.04310,0.20604
3282.98351,0.20687
3280.92392,0.20729
3278.86433,0.20763
3276.80474,0.20820
3274.74516,0.20823
3272.68557,0.20763
3270.62598,0.20723
3268.56639,0.20651
3266.50680,0.20515
3264.44721,0.20386
3262.38763,0.20236
3260.32804,0.20041
3258.26845,0.19861
3256.20886,0.19715
3254.14927,0.19556
3252.08969,0.19358
3250.03010,0.19165
3247.97051,0.19002
3245.91092,0.18828
3243.85133,0.18633
3241.79175,0.18434
3239.73216,0.18244
3237.67257,0.18094
3235.61298,0.17953
3233.55339,0.17777
3231.49380,0.17592
3229.43422,0.17417
3227.37463,0.17275
3225.31504,0.17163
3223.25545,0.17049
3221.19586,0.16942
3219.13628,0.16841
3217.07669,0.16732
3215.01710,0.16623
3212.95751,0.16526
3210.89792,0.16426
3208.83833,0.16291
3206.77875,0.16156
3204.71916,0.16042
3202.65957,0.15951
3200.59998,0.15908
3198.54039,0.15887
3196.48081,0.15815
3194.42122,0.15657
3192.36163,0.15467
3190.30204,0.15323
3188.24245,0.15235
3186.18287,0.15142
3184.12328,0.14990
3182.06369,0.14823
3180.00410,0.14705
3177.94451,0.14622
3175.88492,0.14521
3173.82534,0.14384
3171.76575,0.14217
3169.70616,0.14032
3167.64657,0.13858
3165.58698,0.13714
3163.52740,0.13580
3161.46781,0.13455
3159.40822,0.13362
3157.34863,0.13274
3155.28904,0.13150
3153.22945,0.12988
3151.16987,0.12835
3149.11028,0.12735
3147.05069,0.12645
3144.99110,0.12515
3142.93151,0.12347
3140.87193,0.12174
3138.81234,0.12053
3136.75275,0.11987
3134.69316,0.11914
3132.63357,0.11811
3130.57399,0.11690
3128.51440,0.11585
3126.45481,0.11530
3124.39522,0.11503
3122.33563,0.11462
3120.27604,0.11392
3118.21646,0.11325
3116.15687,0.11290
3114.09728,0.11247
3112.03769,0.11176
3109.97810,0.11108
3107.91852,0.11067
3105.85893,0.11073
3103.79934,0.11094
3101.73975,0.11093
3099.68016,0.11083
3097.62057,0.11074
3095.56099,0.11046
3093.50140,0.11035
3091.44181,0.11075
3089.38222,0.11121
3087.32263,0.11139
3085.26305,0.11159
3083.20346,0.11183
3081.14387,0.11198
3079.08428,0.11216
3077.02469,0.11230
3074.96511,0.11236
3072.90552,0.11236
3070.84593,0.11219
3068.78634,0.11191
3066.72675,0.11172
3064.66716,0.11177
3062.60758,0.11187
3060.54799,0.11170
3058.48840,0.11153
3056.42881,0.11155
3054.36922,0.11110
3052.30964,0.11007
3050.25005,0.10936
3048.19046,0.10893
3046.13087,0.10810
3044.07128,0.10732
3042.01169,0.10672
3039.95211,0.10582
3037.89252,0.10480
3035.83293,0.10409
3033.77334,0.10352
3031.71375,0.10281
3029.65417,0.10199
3027.59458,0.10121
3025.53499,0.10046
3023.47540,0.09938
3021.41581,0.09820
3019.35623,0.09734
3017.29664,0.09681
3015.23705,0.09652
3013.17746,0.09615
3011.11787,0.09547
3009.05828,0.09477
3006.99870,0.09450
3004.93911,0.09476
3002.87952,0.09495
3000.81993,0.09474
2998.76034,0.09460
2996.70076,0.09469
2994.64117,0.09491
2992.58158,0.09531
2990.52199,0.09592
2988.46240,0.09704
2986.40281,0.09874
2984.34323,0.10030
2982.28364,0.10119
2980.22405,0.10196
2978.16446,0.10306
2976.10487,0.10424
2974.04529,0.10558
2971.98570,0.10722
2969.92611,0.10887
2967.86652,0.11043
2965.80693,0.11167
2963.74735,0.11233
2961.68776,0.11294
2959.62817,0.11353
2957.56858,0.11346
2955.50899,0.11285
2953.44940,0.11210
2951.38982,0.11141
2949.33023,0.11101
2947.27064,0.11101
2945.21105,0.11124
2943.15146,0.11178
2941.09188,0.11286
2939.03229,0.11429
2936.97270,0.11568
2934.91311,0.11681
2932.85352,0.11762
2930.79393,0.11800
2928.73435,0.11809
2926.67476,0.11798
2924.61517,0.11752
2922.55558,0.11684
2920.49599,0.11597
2918.43641,0.11473
2916.37682,0.11300
2914.31723,0.11074
2912.25764,0.10823
2910.19805,0.10599
2908.13847,0.10432
2906.07888,0.10310
2904.01929,0.10199
2901.95970,0.10090
2899.90011,0.10002
2897.84052,0.09951
2895.78094,0.09927
2893.72135,0.09888
2891.66176,0.09828
2889.60217,0.09788
2887.54258,0.09795
2885.48300,0.09820
2883.42341,0.09852
2881.36382,0.09905
2879.30423,0.09955
2877.24464,0.09993
2875.18505,0.10023
2873.12547,0.10022
2871.06588,0.09982
2869.00629,0.09903
2866.94670,0.09787
2864.88711,0.09642
2862.82753,0.09498
2860.76794,0.09389
2858.70835,0.09332
2856.64876,0.09328
2854.58917,0.09344
2852.52959,0.09332
2850.47000,0.09257
2848.41041,0.09121
2846.35082,0.08960
2844.29123,0.08807
2842.23164,0.08683
2840.17206,0.08593
2838.11247,0.08514
2836.05288,0.08440
2833.99329,0.08385
2831.93370,0.08346
2829.87412,0.08301
2827.81453,0.08262
2825.75494,0.08240
2823.69535,0.08210
2821.63576,0.08168
2819.57617,0.08127
2817.51659,0.08095
2815.45700,0.08076
2813.39741,0.08066
2811.33782,0.08057
2809.27823,0.08056
2807.21865,0.08040
2805.15906,0.07978
2803.09947,0.07899
2801.03988,0.07862
2798.98029,0.07855
2796.92071,0.07842
2794.86112,0.07830
2792.80153,0.07818
2790.74194,0.07789
2788.68235,0.07754
2786.62276,0.07726
2784.56318,0.07701
2782.50359,0.07695
2780.44400,0.07690
2778.38441,0.07666
2776.32482,0.07636
2774.26524,0.07597
2772.20565,0.07552
2770.14606,0.07531
2768.08647,0.07524
2766.02688,0.07502
2763.96729,0.07468
2761.90771,0.07428
2759.84812,0.07388
2757.78853,0.07361
2755.72894,0.07347
2753.66935,0.07336
2751.60977,0.07314
2749.55018,0.07283
2747.49059,0.07254
2745.43100,0.07230
2743.37141,0.07208
2741.31183,0.07215
2739.25224,0.07248
2737.19265,0.07242
2735.13306,0.07200
2733.07347,0.07170
2731.01388,0.07150
2728.95430,0.07128
2726.89471,0.07109
2724.83512,0.07096
2722.77553,0.07079
2720.71594,0.07047
2718.65636,0.07011
2716.59677,0.06978
2714.53718,0.06943
2712.47759,0.06909
2710.41800,0.06877
2708.35841,0.06848
2706.29883,0.06840
2704.23924,0.06853
2702.17965,0.06847
2700.12006,0.06817
2698.06047,0.06796
2696.00089,0.06782
2693.94130,0.06759
2691.88171,0.06739
2689.82212,0.06730
2687.76253,0.06715
2685.70295,0.06694
2683.64336,0.06688
2681.58377,0.06682
2679.52418,0.06665
2677.46459,0.06649
2675.40500,0.06631
2673.34542,0.06609
2671.28583,0.06602
2669.22624,0.06600
2667.16665,0.06587
2665.10706,0.06566
2663.04748,0.06545
2660.98789,0.06542
2658.92830,0.06567
2656.86871,0.06578
2654.80912,0.06554
2652.74953,0.06522
2650.68995,0.06492
2648.63036,0.06459
2646.57077,0.06437
2644.51118,0.06433
2642.45159,0.06427
2640.39201,0.06390
2638.33242,0.06346
2636.27283,0.06324
2634.21324,0.06308
2632.15365,0.06288
2630.09407,0.06268
2628.03448,0.06247
2625.97489,0.06233
2623.91530,0.06217
2621.85571,0.06185
2619.79612,0.06144
2617.73654,0.06121
2615.67695,0.06132
2613.61736,0.06152
2611.55777,0.06147
2609.49818,0.06124
2607.43860,0.06089
2605.37901,0.06033
2603.31942,0.06000
2601.25983,0.05998
2599.20024,0.05987
2597.14065,0.05969
2595.08107,0.05950
2593.02148,0.05921
2590.96189,0.05905
2588.90230,0.05909
2586.84271,0.05892
2584.78313,0.05844
2582.72354,0.05821
2580.66395,0.05836
2578.60436,0.05840
2576.54477,0.05830
2574.48519,0.05811
2572.42560,0.05753
2570.36601,0.05694
2568.30642,0.05699
2566.24683,0.05733
2564.18724,0.05735
2562.12766,0.05703
2560.06807,0.05666
2558.00848,0.05633
2555.94889,0.05627
2553.88930,0.05643
2551.82972,0.05638
2549.77013,0.05639
2547.71054,0.05653
2545.65095,0.05630
2543.59136,0.05554
2541.53177,0.05494
2539.47219,0.05504
2537.41260,0.05497
2535.35301,0.05463
2533.29342,0.05506
2531.23383,0.05578
2529.17425,0.05574
2527.11466,0.05526
2525.05507,0.05510
2522.99548,0.05514
2520.93589,0.05523
2518.87631,0.05518
2516.81672,0.05475
2514.75713,0.05435
2512.69754,0.05398
2510.63795,0.05362
2508.57836,0.05389
2506.51878,0.05458
2504.45919,0.05462
2502.39960,0.05396
2500.34001,0.05342
2498.28042,0.05310
2496.22084,0.05294
2494.16125,0.05310
2492.10166,0.05340
2490.04207,0.05343
2487.98248,0.05300
2485.92289,0.05257
2483.86331,0.05255
2481.80372,0.05281
2479.74413,0.05304
2477.68454,0.05288
2475.62495,0.05227
2473.56537,0.05177
2471.50578,0.05182
2469.44619,0.05206
2467.38660,0.05220
2465.32701,0.05236
2463.26743,0.05241
2461.20784,0.05221
2459.14825,0.05217
2457.08866,0.05230
2455.02907,0.05232
2452.96948,0.05225
2450.90990,0.05185
2448.85031,0.05127
2446.79072,0.05099
2444.73113,0.05094
2442.67154,0.05083
2440.61196,0.05062
2438.55237,0.05053
2436.49278,0.05069
2434.43319,0.05077
2432.37360,0.05048
2430.31401,0.05029
2428.25443,0.05061
2426.19484,0.05074
2424.13525,0.05048
2422.07566,0.05045
2420.01607,0.05053
2417.95649,0.05038
2415.89690,0.05016
2413.83731,0.05004
2411.77772,0.05002
2409.71813,0.04988
2407.65855,0.04941
2405.59896,0.04909
2403.53937,0.04932
2401.47978,0.04969
2399.42019,0.04983
2397.36060,0.04982
2395.30102,0.04970
2393.24143,0.04954
2391.18184,0.04944
2389.12225,0.04937
2387.06266,0.04936
2385.00308,0.04917
2382.94349,0.04871
2380.88390,0.04861
2378.82431,0.04893
2376.76472,0.04899
2374.70513,0.04868
2372.64555,0.04840
2370.58596,0.04832
2368.52637,0.04850
2366.46678,0.04902
2364.40719,0.04935
2362.34761,0.04875
2360.28802,0.04823
2358.22843,0.04870
2356.16884,0.04914
2354.10925,0.04933
2352.04967,0.04935
2349.99008,0.04892
2347.93049,0.04863
2345.87090,0.04869
2343.81131,0.04861
2341.75172,0.04858
2339.69214,0.04873
2337.63255,0.04870
2335.57296,0.04853
2333.51337,0.04844
2331.45378,0.04846
2329.39420,0.04866
2327.33461,0.04919
2325.27502,0.04985
2323.21543,0.05009
2321.15584,0.04979
2319.09625,0.04910
2317.03667,0.04842
2314.97708,0.04803
2312.91749,0.04771
2310.85790,0.04744
2308.79831,0.04726
2306.73873,0.04720
2304.67914,0.04719
2302.61955,0.04713
2300.55996,0.04711
2298.50037,0.04690
2296.44079,0.04635
2294.38120,0.04589
2292.32161,0.04592
2290.26202,0.04625
2288.20243,0.04660
2286.14284,0.04644
2284.08326,0.04556
2282.02367,0.04495
2279.96408,0.04500
2277.90449,0.04472
2275.84490,0.04388
2273.78532,0.04328
2271.72573,0.04301
2269.66614,0.04244
2267.60655,0.04159
2265.54696,0.04116
2263.48737,0.04137
2261.42779,0.04173
2259.36820,0.04213
2257.30861,0.04199
2255.24902,0.04128
2253.18943,0.04118
2251.12985,0.04137
2249.07026,0.04126
2247.01067,0.04116
2244.95108,0.04130
2242.89149,0.04175
2240.83191,0.04212
2238.77232,0.04163
2236.71273,0.04064
2234.65314,0.03994
2232.59355,0.03922
2230.53396,0.03847
2228.47438,0.03820
2226.41479,0.03818
2224.35520,0.03818
2222.29561,0.03836
2220.23602,0.03853
2218.17644,0.03833
2216.11685,0.03775
2214.05726,0.03683
2211.99767,0.03650
2209.93808,0.03765
2207.87849,0.03882
2205.81891,0.03864
2203.75932,0.03750
2201.69973,0.03646
2199.64014,0.03638
2197.58055,0.03699
2195.52097,0.03766
2193.46138,0.03817
2191.40179,0.03847
2189.34220,0.03782
2187.28261,0.03603
2185.22303,0.03447
2183.16344,0.03349
2181.10385,0.03330
2179.04426,0.03411
2176.98467,0.03471
2174.92508,0.03464
2172.86550,0.03434
2170.80591,0.03382
2168.74632,0.03325
2166.68673,0.03332
2164.62714,0.03423
2162.56756,0.03451
2160.50797,0.03243
2158.44838,0.02996
2156.38879,0.03026
2154.32920,0.03168
2152.26961,0.03232
2150.21003,0.03260
2148.15044,0.03248
2146.09085,0.03196
2144.03126,0.03184
2141.97167,0.03228
2139.91209,0.03297
2137.85250,0.03388
2135.79291,0.03451
2133.73332,0.03451
2131.67373,0.03445
2129.61415,0.03500
2127.55456,0.03578
2125.49497,0.03587
2123.43538,0.03553
2121.37579,0.03553
2119.31620,0.03588
2117.25662,0.03625
2115.19703,0.03640
2113.13744,0.03625
2111.07785,0.03582
2109.01826,0.03556
2106.95868,0.03570
2104.89909,0.03578
2102.83950,0.03601
2100.77991,0.03642
2098.72032,0.03624
2096.66073,0.03580
2094.60115,0.03581
2092.54156,0.03593
2090.48197,0.03564
2088.42238,0.03508
2086.36279,0.03441
2084.30321,0.03394
2082.24362,0.03432
2080.18403,0.03518
2078.12444,0.03532
2076.06485,0.03448
2074.00527,0.03345
2071.94568,0.03320
2069.88609,0.03336
2067.82650,0.03297
2065.76691,0.03234
2063.70732,0.03213
2061.64774,0.03229
2059.58815,0.03264
2057.52856,0.03296
2055.46897,0.03272
2053.40938,0.03266
2051.34980,0.03313
2049.29021,0.03258
2047.23062,0.03122
2045.17103,0.03051
2043.11144,0.03048
2041.05185,0.03128
2038.99227,0.03220
2036.93268,0.03208
2034.87309,0.03149
2032.81350,0.03017
2030.75391,0.02817
2028.69433,0.02707
2026.63474,0.02640
2024.57515,0.02534
2022.51556,0.02500
2020.45597,0.02553
2018.39639,0.02617
2016.33680,0.02692
2014.27721,0.02756
2012.21762,0.02844
2010.15803,0.02916
2008.09844,0.02869
2006.03886,0.02834
2003.97927,0.02864
2001.91968,0.02865
1999.86009,0.02851
1997.80050,0.02802
1995.74092,0.02722
1993.68133,0.02708
1991.62174,0.02767
1989.56215,0.02852
1987.50256,0.02927
1985.44297,0.02933
1983.38339,0.02855
1981.32380,0.02732
1979.26421,0.02626
1977.20462,0.02625
1975.14503,0.02670
1973.08545,0.02678
1971.02586,0.02718
1968.96627,0.02732
1966.90668,0.02611
1964.84709,0.02483
1962.78751,0.02505
1960.72792,0.02595
1958.66833,0.02651
1956.60874,0.02733
1954.54915,0.02814
1952.48956,0.02795
1950.42998,0.02732
1948.37039,0.02749
1946.31080,0.02780
1944.25121,0.02746
1942.19162,0.02708
1940.13204,0.02683
1938.07245,0.02668
1936.01286,0.02674
1933.95327,0.02710
1931.89368,0.02783
1929.83409,0.02853
1927.77451,0.02865
1925.71492,0.02819
1923.65533,0.02779
1921.59574,0.02808
1919.53615,0.02880
1917.47657,0.02920
1915.41698,0.02886
1913.35739,0.02803
1911.29780,0.02741
1909.23821,0.02746
1907.17863,0.02792
1905.11904,0.02806
1903.05945,0.02781
1900.99986,0.02774
1898.94027,0.02777
1896.88068,0.02753
1894.82110,0.02733
1892.76151,0.02724
1890.70192,0.02715
1888.64233,0.02723
1886.58274,0.02724
1884.52316,0.02696
1882.46357,0.02669
1880.40398,0.02672
1878.34439,0.02701
1876.28480,0.02726
1874.22521,0.02723
1872.16563,0.02708
1870.10604,0.02700
1868.04645,0.02684
1865.98686,0.02655
1863.92727,0.02650
1861.86769,0.02661
1859.80810,0.02661
1857.74851,0.02645
1855.68892,0.02607
1853.62933,0.02574
1851.56975,0.02568
1849.51016,0.02560
1847.45057,0.02538
1845.39098,0.02524
1843.33139,0.02525
1841.27180,0.02531
1839.21222,0.02551
1837.15263,0.02569
1835.09304,0.02555
1833.03345,0.02520
1830.97386,0.02500
1828.91428,0.02509
1826.85469,0.02508
1824.79510,0.02488
1822.73551,0.02493
1820.67592,0.02480
1818.61633,0.02423
1816.55675,0.02387
1814.49716,0.02397
1812.43757,0.02420
1810.37798,0.02430
1808.31839,0.02418
1806.25881,0.02398
1804.19922,0.02397
1802.13963,0.02402
1800.08004,0.02391
1798.02045,0.02366
1795.96087,0.02350
1793.90128,0.02347
1791.84169,0.02347
1789.78210,0.02331
1787.72251,0.02315
1785.66292,0.02315
1783.60334,0.02310
1781.54375,0.02291
1779.48416,0.02277
1777.42457,0.02278
1775.36498,0.02268
1773.30540,0.02246
1771.24581,0.02235
1769.18622,0.02238
1767.12663,0.02231
1765.06704,0.02217
1763.00745,0.02206
1760.94787,0.02201
1758.88828,0.02205
1756.82869,0.02214
1754.76910,0.02232
1752.70951,0.02250
1750.64993,0.02265
1748.59034,0.02278
1746.53075,0.02280
1744.47116,0.02273
1742.41157,0.02261
1740.35199,0.02241
1738.29240,0.02211
1736.23281,0.02160
1734.17322,0.02104
1732.11363,0.02095
1730.05404,0.02114
1727.99446,0.02129
1725.93487,0.02135
1723.87528,0.02142
1721.81569,0.02150
1719.75610,0.02174
1717.69652,0.02225
1715.63693,0.02324
1713.57734,0.02471
1711.51775,0.02668
1709.45816,0.02928
1707.39857,0.03274
1705.33899,0.03744
1703.27940,0.04285
1701.21981,0.04971
1699.16022,0.05789
1697.10063,0.06444
1695.04105,0.07020
1692.98146,0.07544
1690.92187,0.08033
1688.86228,0.08574
1686.80269,0.09122
1684.74311,0.09800
1682.68352,0.10566
1680.62393,0.11190
1678.56434,0.11778
1676.50475,0.12453
1674.44516,0.13224
1672.38558,0.13951
1670.32599,0.14725
1668.26640,0.15648
1666.20681,0.16515
1664.14722,0.17389
1662.08764,0.18383
1660.02805,0.19297
1657.96846,0.20008
1655.90887,0.20550
1653.84928,0.21135
1651.78969,0.21707
1649.73011,0.21857
1647.67052,0.21848
1645.61093,0.21866
1643.55134,0.21779
1641.49175,0.21571
1639.43217,0.21297
1637.37258,0.20984
1635.31299,0.20648
1633.25340,0.20299
1631.19381,0.19957
1629.13423,0.19661
1627.07464,0.19441
1625.01505,0.19285
1622.95546,0.19187
1620.89587,0.19083
1618.83628,0.18915
1616.77670,0.18664
1614.71711,0.18284
1612.65752,0.17756
1610.59793,0.17092
1608.53834,0.16325
1606.47876,0.15505
1604.41917,0.14678
1602.35958,0.13872
1600.29999,0.13116
1598.24040,0.12422
1596.18081,0.11785
1594.12123,0.11199
1592.06164,0.10681
1590.00205,0.10220
1587.94246,0.09802
1585.88287,0.09440
1583.82329,0.09162
1581.76370,0.08956
1579.70411,0.08803
1577.64452,0.08714
1575.58493,0.08703
1573.52535,0.08741
1571.46576,0.08830
1569.40617,0.09037
1567.34658,0.09312
1565.28699,0.09618
1563.22740,0.09971
1561.16782,0.10393
1559.10823,0.11105
1557.04864,0.11939
1554.98905,0.12616
1552.92946,0.13326
1550.86988,0.14061
1548.81029,0.14764
1546.75070,0.15398
1544.69111,0.15967
1542.63152,0.16479
1540.57193,0.16980
1538.51235,0.17418
1536.45276,0.17647
1534.39317,0.17833
1532.33358,0.18062
1530.27399,0.18215
1528.21441,0.18306
1526.15482,0.18407
1524.09523,0.18512
1522.03564,0.18671
1519.97605,0.18890
1517.91647,0.19076
1515.85688,0.19205
1513.79729,0.19210
1511.73770,0.19058
1509.67811,0.18798
1507.61852,0.18453
1505.55894,0.18042
1503.49935,0.17608
1501.43976,0.17151
1499.38017,0.16651
1497.32058,0.16071
1495.26100,0.15419
1493.20141,0.14778
1491.14182,0.14115
1489.08223,0.13396
1487.02264,0.12716
1484.96305,0.12124
1482.90347,0.11614
1480.84388,0.11186
1478.78429,0.10851
1476.72470,0.10612
1474.66511,0.10497
1472.60553,0.10521
1470.54594,0.10585
1468.48635,0.10605
1466.42676,0.10609
1464.36717,0.10632
1462.30759,0.10664
1460.24800,0.10713
1458.18841,0.10858
1456.12882,0.11106
1454.06923,0.11253
1452.00964,0.11266
1449.95006,0.11220
1447.89047,0.11132
1445.83088,0.11001
1443.77129,0.10827
1441.71170,0.10625
1439.65212,0.10418
1437.59253,0.10209
1435.53294,0.10000
1433.47335,0.09803
1431.41376,0.09625
1429.35417,0.09494
1427.29459,0.09420
1425.23500,0.09386
1423.17541,0.09377
1421.11582,0.09397
1419.05623,0.09473
1416.99665,0.09562
1414.93706,0.09605
1412.87747,0.09623
1410.81788,0.09637
1408.75829,0.09632
1406.69871,0.09587
1404.63912,0.09524
1402.57953,0.09462
1400.51994,0.09390
1398.46035,0.09319
1396.40076,0.09277
1394.34118,0.09273
1392.28159,0.09288
1390.22200,0.09311
1388.16241,0.09348
1386.10282,0.09384
1384.04324,0.09383
1381.98365,0.09328
1379.92406,0.09248
1377.86447,0.09164
1375.80488,0.09078
1373.74529,0.08997
1371.68571,0.08936
1369.62612,0.08885
1367.56653,0.08804
1365.50694,0.08672
1363.44735,0.08515
1361.38777,0.08372
1359.32818,0.08259
1357.26859,0.08164
1355.20900,0.08088
1353.14941,0.08042
1351.08983,0.08017
1349.03024,0.08003
1346.97065,0.08013
1344.91106,0.08042
1342.85147,0.08077
1340.79188,0.08111
1338.73230,0.08148
1336.67271,0.08181
1334.61312,0.08201
1332.55353,0.08216
1330.49394,0.08235
1328.43436,0.08257
1326.37477,0.08276
1324.31518,0.08283
1322.25559,0.08281
1320.19600,0.08290
1318.13641,0.08320
1316.07683,0.08357
1314.01724,0.08393
1311.95765,0.08422
1309.89806,0.08443
1307.83847,0.08469
1305.77889,0.08495
1303.71930,0.08509
1301.65971,0.08509
1299.60012,0.08495
1297.54053,0.08473
1295.48095,0.08442
1293.42136,0.08405
1291.36177,0.08368
1289.30218,0.08331
1287.24259,0.08290
1285.18300,0.08252
1283.12342,0.08227
1281.06383,0.08212
1279.00424,0.08194
1276.94465,0.08173
1274.88506,0.08162
1272.82548,0.08155
1270.76589,0.08161
1268.70630,0.08178
1266.64671,0.08189
1264.58712,0.08206
1262.52753,0.08251
1260.46795,0.08321
1258.40836,0.08404
1256.34877,0.08480
1254.28918,0.08546
1252.22959,0.08619
1250.17001,0.08694
1248.11042,0.08755
1246.05083,0.08810
1243.99124,0.08869
1241.93165,0.08924
1239.87207,0.08961
1237.81248,0.08979
1235.75289,0.08972
1233.69330,0.08944
1231.63371,0.08903
1229.57412,0.08855
1227.51454,0.08796
1225.45495,0.08709
1223.39536,0.08600
1221.33577,0.08493
1219.27618,0.08383
1217.21660,0.08256
1215.15701,0.08119
1213.09742,0.07975
1211.03783,0.07833
1208.97824,0.07699
1206.91865,0.07558
1204.85907,0.07408
1202.79948,0.07259
1200.73989,0.07112
1198.68030,0.06969
1196.62071,0.06839
1194.56113,0.06725
1192.50154,0.06624
1190.44195,0.06537
1188.38236,0.06470
1186.32277,0.06420
1184.26319,0.06376
1182.20360,0.06349
1180.14401,0.06363
1178.08442,0.06415
1176.02483,0.06501
1173.96524,0.06613
1171.90566,0.06726
1169.84607,0.06807
1167.78648,0.06856
1165.72689,0.06877
1163.66730,0.06873
1161.60772,0.06857
1159.54813,0.06822
1157.48854,0.06755
1155.42895,0.06668
1153.36936,0.06569
1151.30977,0.06465
1149.25019,0.06359
1147.19060,0.06256
1145.13101,0.06168
1143.07142,0.06097
1141.01183,0.06036
1138.95225,0.05982
1136.89266,0.05943
1134.83307,0.05922
1132.77348,0.05909
1130.71389,0.05898
1128.65431,0.05885
1126.59472,0.05860
1124.53513,0.05823
1122.47554,0.05787
1120.41595,0.05754
1118.35636,0.05720
1116.29678,0.05688
1114.23719,0.05669
1112.17760,0.05666
1110.11801,0.05676
1108.05842,0.05692
1105.99884,0.05714
1103.93925,0.05742
1101.87966,0.05766
1099.82007,0.05783
1097.76048,0.05801
1095.70089,0.05827
1093.64131,0.05873
1091.58172,0.05952
1089.52213,0.06068
1087.46254,0.06205
1085.40295,0.06347
1083.34337,0.06496
1081.28378,0.06646
1079.22419,0.06781
1077.16460,0.06899
1075.10501,0.07003
1073.04543,0.07087
1070.98584,0.07152
1068.92625,0.07203
1066.86666,0.07234
1064.80707,0.07253
1062.74748,0.07266
1060.68790,0.07270
1058.62831,0.07263
1056.56872,0.07245
1054.50913,0.07224
1052.44954,0.07198
1050.38996,0.07156
1048.33037,0.07097
1046.27078,0.07016
1044.21119,0.06901
1042.15160,0.06759
1040.09201,0.06606
1038.03243,0.06457
1035.97284,0.06321
1033.91325,0.06189
1031.85366,0.06058
1029.79407,0.05929
1027.73449,0.05785
1025.67490,0.05631
1023.61531,0.05484
1021.55572,0.05354
1019.49613,0.05243
1017.43655,0.05144
1015.37696,0.05048
1013.31737,0.04951
1011.25778,0.04858
1009.19819,0.04773
1007.13860,0.04690
1005.07902,0.04618
1003.01943,0.04558
1000.95984,0.04483
998.90025,0.04400
996.84066,0.04340
994.78108,0.04295
992.72149,0.04242
990.66190,0.04190
988.60231,0.04149
986.54272,0.04114
984.48313,0.04079
982.42355,0.04046
980.36396,0.04018
978.30437,0.03993
976.24478,0.03971
974.18519,0.03949
972.12561,0.03933
970.06602,0.03923
968.00643,0.03924
965.94684,0.03932
963.88725,0.03943
961.82767,0.03952
959.76808,0.03946
957.70849,0.03919
955.64890,0.03892
953.58931,0.03879
951.52972,0.03866
949.47014,0.03843
947.41055,0.03819
945.35096,0.03797
943.29137,0.03775
941.23178,0.03771
939.17220,0.03786
937.11261,0.03801
935.05302,0.03801
932.99343,0.03788
930.93384,0.03764
928.87425,0.03745
926.81467,0.03729
924.75508,0.03693
922.69549,0.03641
920.63590,0.03593
918.57631,0.03555
916.51673,0.03532
914.45714,0.03526
912.39755,0.03529
910.33796,0.03525
908.27837,0.03518
906.21879,0.03517
904.15920,0.03525
902.09961,0.03533
900.04002,0.03525
897.98043,0.03500
895.92084,0.03477
893.86126,0.03455
891.80167,0.03426
889.74208,0.03391
887.68249,0.03355
885.62290,0.03312
883.56332,0.03274
881.50373,0.03241
879.44414,0.03208
877.38455,0.03186
875.32496,0.03173
873.26537,0.03155
871.20579,0.03127
869.14620,0.03101
867.08661,0.03080
865.02702,0.03057
862.96743,0.03038
860.90785,0.03024
858.84826,0.02997
856.78867,0.02963
854.72908,0.02941
852.66949,0.02940
850.60991,0.02942
848.55032,0.02923
846.49073,0.02903
844.43114,0.02898
842.37155,0.02901
840.31196,0.02920
838.25238,0.02955
836.19279,0.02980
834.13320,0.02992
832.07361,0.03015
830.01402,0.03040
827.95444,0.03046
825.89485,0.03034
823.83526,0.03023
821.77567,0.03024
819.71608,0.03028
817.65649,0.03028
815.59691,0.03038
813.53732,0.03064
811.47773,0.03094
809.41814,0.03118
807.35855,0.03118
805.29897,0.03107
803.23938,0.03110
801.17979,0.03113
799.12020,0.03107
797.06061,0.03114
795.00103,0.03134
792.94144,0.03160
790.88185,0.03183
788.82226,0.03210
786.76267,0.03243
784.70308,0.03272
782.64350,0.03292
780.58391,0.03315
778.52432,0.03351
776.46473,0.03386
774.40514,0.03420
772.34556,0.03461
770.28597,0.03479
768.22638,0.03485
766.16679,0.03512
764.10720,0.03544
762.04761,0.03565
759.98803,0.03581
757.92844,0.03598
755.86885,0.03609
753.80926,0.03622
751.74967,0.03650
749.69009,0.03688
747.63050,0.03716
745.57091,0.03713
743.51132,0.03694
741.45173,0.03691
739.39215,0.03709
737.33256,0.03740
735.27297,0.03766
733.21338,0.03787
731.15379,0.03824
729.09420,0.03880
727.03462,0.03937
724.97503,0.03989
722.91544,0.04044
720.85585,0.04117
718.79626,0.04208
716.73668,0.04300
714.67709,0.04388
712.61750,0.04479
710.55791,0.04573
708.49832,0.04673
706.43873,0.04794
704.37915,0.04920
702.31956,0.05011
700.25997,0.05060
698.20038,0.05088
696.14079,0.05101
694.08121,0.05105
692.02162,0.05101
689.96203,0.05092
687.90244,0.05097
685.84285,0.05121
683.78327,0.05149
681.72368,0.05174
679.66409,0.05203
677.60450,0.05236
675.54491,0.05259
673.48532,0.05269
671.42574,0.05283
669.36615,0.05325
667.30656,0.05390
665.24697,0.05414
663.18738,0.05419
661.12780,0.05439
659.06821,0.05462
657.00862,0.05475
654.94903,0.05474
652.88944,0.05472
650.82985,0.05485
648.77027,0.05511
646.71068,0.05541
644.65109,0.05567
642.59150,0.05584
640.53191,0.05620
638.47233,0.05675
636.41274,0.05713
634.35315,0.05728
632.29356,0.05739
630.23397,0.05756
628.17439,0.05786
626.11480,0.05814
624.05521,0.05805
621.99562,0.05774
619.93603,0.05772
617.87644,0.05802
615.81686,0.05822
613.75727,0.05805
611.69768,0.05768
609.63809,0.05745
607.57850,0.05746
605.51892,0.05743
603.45933,0.05728
601.39974,0.05719
599.34015,0.05701
597.28056,0.05676
595.22097,0.05672
593.16139,0.05687
591.10180,0.05702
589.04221,0.05713
586.98262,0.05729
584.92303,0.05740
582.86345,0.05737
580.80386,0.05719
578.74427,0.05693
576.68468,0.05686
574.62509,0.05697
572.56551,0.05700
570.50592,0.05702
568.44633,0.05717
566.38674,0.05723
564.32715,0.05703
562.26756,0.05691
560.20798,0.05707
558.14839,0.05707
556.08880,0.05677
554.02921,0.05658
551.96962,0.05661
549.91004,0.05669
547.85045,0.05686
545.79086,0.05681
543.73127,0.05640
541.67168,0.05629
539.61209,0.05634
537.55251,0.05593
535.49292,0.05545
533.43333,0.05547
531.37374,0.05601
529.31415,0.05655
527.25457,0.05659
525.19498,0.05624
523.13539,0.05592
521.07580,0.05580
519.01621,0.05579
516.95663,0.05571
514.89704,0.05525
512.83745,0.05459
510.77786,0.05422
508.71827,0.05383
506.65868,0.05312
504.59910,0.05240
502.53951,0.05182
500.47992,0.05143
498.42033,0.05129
496.36074,0.05105
494.30116,0.05052
492.24157,0.05011
490.18198,0.04994
488.12239,0.04980
486.06280,0.04980
484.00321,0.04974
481.94363,0.04938
479.88404,0.04883
477.82445,0.04831
475.76486,0.04832
473.70527,0.04856
471.64569,0.04830
469.58610,0.04794
467.52651,0.04792
465.46692,0.04798
463.40733,0.04786
461.34775,0.04759
459.28816,0.04745
457.22857,0.04764
455.16898,0.04787
453.10939,0.04762
451.04980,0.04693
448.99022,0.04630
446.93063,0.04570
444.87104,0.04482
442.81145,0.04408
440.75186,0.04386
438.69228,0.04382
436.63269,0.04345
434.57310,0.04275
432.51351,0.04206
430.45392,0.04139
428.39433,0.04082
426.33475,0.04062
424.27516,0.04063
422.21557,0.04060
420.15598,0.04059
418.09639,0.04037
416.03681,0.03974
413.97722,0.03899
411.91763,0.03845
409.85804,0.03816
407.79845,0.03774
405.73887,0.03715
403.67928,0.03696
401.61969,0.03705
399.56010,0.03661
