3997.66060,0.06138
3995.60101,0.06165
3993.54142,0.06163
3991.48183,0.06129
3989.42224,0.06081
3987.36265,0.06048
3985.30307,0.06014
3983.24348,0.05974
3981.18389,0.05977
3979.12430,0.06041
3977.06471,0.06111
3975.00513,0.06098
3972.94554,0.05986
3970.88595,0.05875
3968.82636,0.05885
3966.76677,0.06006
3964.70719,0.06103
3962.64760,0.06097
3960.58801,0.06009
3958.52842,0.05915
3956.46883,0.05904
3954.40924,0.05957
3952.34966,0.05975
3950.29007,0.05953
3948.23048,0.05957
3946.17089,0.05979
3944.11130,0.05984
3942.05172,0.05957
3939.99213,0.05913
3937.93254,0.05869
3935.87295,0.05845
3933.81336,0.05865
3931.75377,0.05940
3929.69419,0.05993
3927.63460,0.05948
3925.57501,0.05884
3923.51542,0.05853
3921.45583,0.05818
3919.39625,0.05771
3917.33666,0.05736
3915.27707,0.05740
3913.21748,0.05785
3911.15789,0.05831
3909.09831,0.05869
3907.03872,0.05890
3904.97913,0.05845
3902.91954,0.05780
3900.85995,0.05772
3898.80036,0.05809
3896.74078,0.05845
3894.68119,0.05834
3892.62160,0.05773
3890.56201,0.05691
3888.50242,0.05614
3886.44284,0.05591
3884.38325,0.05648
3882.32366,0.05702
3880.26407,0.05695
3878.20448,0.05660
3876.14489,0.05663
3874.08531,0.05716
3872.02572,0.05745
3869.96613,0.05728
3867.90654,0.05730
3865.84695,0.05773
3863.78737,0.05812
3861.72778,0.05792
3859.66819,0.05758
3857.60860,0.05755
3855.54901,0.05741
3853.48943,0.05699
3851.42984,0.05681
3849.37025,0.05657
3847.31066,0.05599
3845.25107,0.05546
3843.19148,0.05553
3841.13190,0.05647
3839.07231,0.05780
3837.01272,0.05835
3834.95313,0.05784
3832.89354,0.05700
3830.83396,0.05655
3828.77437,0.05636
3826.71478,0.05611
3824.65519,0.05585
3822.59560,0.05534
3820.53601,0.05505
3818.47643,0.05515
3816.41684,0.05481
3814.35725,0.05423
3812.29766,0.05406
3810.23807,0.05435
3808.17849,0.05444
3806.11890,0.05382
3804.05931,0.05336
3801.99972,0.05372
3799.94013,0.05437
3797.88055,0.05477
3795.82096,0.05488
3793.76137,0.05482
3791.70178,0.05494
3789.64219,0.05471
3787.58260,0.05376
3785.52302,0.05338
3783.46343,0.05418
3781.40384,0.05425
3779.34425,0.05266
3777.28466,0.05166
3775.22508,0.05224
3773.16549,0.05302
3771.10590,0.05357
3769.04631,0.05406
3766.98672,0.05408
3764.92713,0.05370
3762.86755,0.05337
3760.80796,0.05315
3758.74837,0.05301
3756.68878,0.05255
3754.62919,0.05178
3752.56961,0.05116
3750.51002,0.05102
3748.45043,0.05121
3746.39084,0.05145
3744.33125,0.05220
3742.27167,0.05269
3740.21208,0.05230
3738.15249,0.05186
3736.09290,0.05168
3734.03331,0.05154
3731.97372,0.05115
3729.91414,0.05060
3727.85455,0.05069
3725.79496,0.05161
3723.73537,0.05220
3721.67578,0.05188
3719.61620,0.05117
3717.55661,0.05073
3715.49702,0.05074
3713.43743,0.05080
3711.37784,0.05073
3709.31825,0.05013
3707.25867,0.04957
3705.19908,0.04987
3703.13949,0.05037
3701.07990,0.05095
3699.02031,0.05158
3696.96073,0.05162
3694.90114,0.05116
3692.84155,0.05071
3690.78196,0.05052
3688.72237,0.05037
3686.66279,0.05014
3684.60320,0.04999
3682.54361,0.05003
3680.48402,0.05006
3678.42443,0.05013
3676.36484,0.05017
3674.30526,0.04992
3672.24567,0.04956
3670.18608,0.04952
3668.12649,0.05008
3666.06690,0.05050
3664.00732,0.05091
3661.94773,0.05151
3659.88814,0.05164
3657.82855,0.05117
3655.76896,0.05058
3653.70937,0.05013
3651.64979,0.04996
3649.59020,0.05055
3647.53061,0.05137
3645.47102,0.05123
3643.41143,0.05073
3641.35185,0.05089
3639.29226,0.05156
3637.23267,0.05194
3635.17308,0.05184
3633.11349,0.05209
3631.05391,0.05282
3628.99432,0.05339
3626.93473,0.05345
3624.87514,0.05312
3622.81555,0.05315
3620.75596,0.05387
3618.69638,0.05473
3616.63679,0.05515
3614.57720,0.05525
3612.51761,0.05527
3610.45802,0.05528
3608.39844,0.05555
3606.33885,0.05602
3604.27926,0.05611
3602.21967,0.05625
3600.16008,0.05684
3598.10049,0.05721
3596.04091,0.05747
3593.98132,0.05805
3591.92173,0.05853
3589.86214,0.05894
3587.80255,0.05960
3585.74297,0.06005
3583.68338,0.06018
3581.62379,0.06074
3579.56420,0.06147
3577.50461,0.06133
3575.44503,0.06104
3573.38544,0.06171
3571.32585,0.06275
3569.26626,0.06356
3567.20667,0.06421
3565.14708,0.06480
3563.08750,0.06533
3561.02791,0.06578
3558.96832,0.06598
3556.90873,0.06593
3554.84914,0.06588
3552.78956,0.06620
3550.72997,0.06715
3548.67038,0.06795
3546.61079,0.06791
3544.55120,0.06805
3542.49161,0.06898
3540.43203,0.06980
3538.37244,0.07042
3536.31285,0.07126
3534.25326,0.07185
3532.19367,0.07204
3530.13409,0.07234
3528.07450,0.07262
3526.01491,0.07296
3523.95532,0.07395
3521.89573,0.07503
3519.83615,0.07565
3517.77656,0.07631
3515.71697,0.07696
3513.65738,0.07744
3511.59779,0.07813
3509.53820,0.07865
3507.47862,0.07862
3505.41903,0.07859
3503.35944,0.07921
3501.29985,0.08032
3499.24026,0.08107
3497.18068,0.08127
3495.12109,0.08149
3493.06150,0.08227
3491.00191,0.08354
3488.94232,0.08483
3486.88273,0.08590
3484.82315,0.08670
3482.76356,0.08705
3480.70397,0.08755
3478.64438,0.08873
3476.58479,0.08951
3474.52521,0.08960
3472.46562,0.08989
3470.40603,0.09049
3468.34644,0.09119
3466.28685,0.09171
3464.22727,0.09205
3462.16768,0.09265
3460.10809,0.09348
3458.04850,0.09399
3455.98891,0.09445
3453.92932,0.09573
3451.86974,0.09715
3449.81015,0.09744
3447.75056,0.09745
3445.69097,0.09853
3443.63138,0.09996
3441.57180,0.10075
3439.51221,0.10115
3437.45262,0.10167
3435.39303,0.10243
3433.33344,0.10306
3431.27385,0.10353
3429.21427,0.10438
3427.15468,0.10559
3425.09509,0.10659
3423.03550,0.10728
3420.97591,0.10797
3418.91633,0.10862
3416.85674,0.10929
3414.79715,0.11025
3412.73756,0.11139
3410.67797,0.11251
3408.61839,0.11346
3406.55880,0.11423
3404.49921,0.11489
3402.43962,0.11565
3400.38003,0.11637
3398.32044,0.11676
3396.26086,0.11713
3394.20127,0.11818
3392.14168,0.11974
3390.08209,0.12089
3388.02250,0.12179
3385.96292,0.12296
3383.90333,0.12412
3381.84374,0.12511
3379.78415,0.12589
3377.72456,0.12654
3375.66497,0.12735
3373.60539,0.12846
3371.54580,0.12994
3369.48621,0.13136
3367.42662,0.13248
3365.36703,0.13382
3363.30745,0.13549
3361.24786,0.13687
3359.18827,0.13789
3357.12868,0.13914
3355.06909,0.14064
3353.00951,0.14228
3350.94992,0.14402
3348.89033,0.14582
3346.83074,0.14749
3344.77115,0.14891
3342.71156,0.15013
3340.65198,0.15125
3338.59239,0.15268
3336.53280,0.15444
3334.47321,0.15611
3332.41362,0.15793
3330.35404,0.16011
3328.29445,0.16203
3326.23486,0.16374
3324.17527,0.16592
3322.11568,0.16821
3320.05609,0.17025
3317.99651,0.17199
3315.93692,0.17340
3313.87733,0.17492
3311.81774,0.17662
3309.75815,0.17822
3307.69857,0.17974
3305.63898,0.18146
3303.57939,0.18317
3301.51980,0.18464
3299.46021,0.18609
3297.40063,0.18768
3295.34104,0.18951
3293.28145,0.19102
3291.22186,0.19176
3289.16227,0.19240
3287.10268,0.19316
3285.04310,0.19361
3282.98351,0.19387
3280.92392,0.19423
3278.86433,0.19456
3276.80474,0.19444
3274.74516,0.19365
3272.68557,0.19272
3270.62598,0.19184
3268.56639,0.19054
3266.50680,0.18899
3264.44721,0.18740
3262.38763,0.18563
3260.32804,0.18365
3258.26845,0.18141
3256.20886,0.17927
3254.14927,0.17760
3252.08969,0.17623
3250.03010,0.17480
3247.97051,0.17290
3245.91092,0.17076
3243.85133,0.16900
3241.79175,0.16747
3239.73216,0.16567
3237.67257,0.16368
3235.61298,0.16225
3233.55339,0.16151
3231.49380,0.16032
3229.43422,0.15850
3227.37463,0.15702
3225.31504,0.15614
3223.25545,0.15523
3221.19586,0.15396
3219.13628,0.15283
3217.07669,0.15193
3215.01710,0.15107
3212.95751,0.15020
3210.89792,0.14905
3208.83833,0.14768
3206.77875,0.14672
3204.71916,0.14623
3202.65957,0.14549
3200.59998,0.14409
3198.54039,0.14275
3196.48081,0.14209
3194.42122,0.14145
3192.36163,0.14020
3190.30204,0.13875
3188.24245,0.13775
3186.18287,0.13714
3184.12328,0.13637
3182.06369,0.13542
3180.00410,0.13424
3177.94451,0.13279
3175.88492,0.13148
3173.82534,0.13005
3171.76575,0.12814
3169.70616,0.12637
3167.64657,0.12541
3165.58698,0.12461
3163.52740,0.12325
3161.46781,0.12179
3159.40822,0.12061
3157.34863,0.11930
3155.28904,0.11780
3153.22945,0.11651
3151.16987,0.11542
3149.11028,0.11453
3147.05069,0.11379
3144.99110,0.11270
3142.93151,0.11128
3140.87193,0.11008
3138.81234,0.10897
3136.75275,0.10772
3134.69316,0.10669
3132.63357,0.10601
3130.57399,0.10541
3128.51440,0.10454
3126.45481,0.10337
3124.39522,0.10257
3122.33563,0.10242
3120.27604,0.10222
3118.21646,0.10166
3116.15687,0.10107
3114.09728,0.10069
3112.03769,0.10044
3109.97810,0.10015
3107.91852,0.09985
3105.85893,0.09963
3103.79934,0.09940
3101.73975,0.09897
3099.68016,0.09854
3097.62057,0.09862
3095.56099,0.09905
3093.50140,0.09928
3091.44181,0.09955
3089.38222,0.10002
3087.32263,0.10039
3085.26305,0.10052
3083.20346,0.10052
3081.14387,0.10056
3079.08428,0.10068
3077.02469,0.10059
3074.96511,0.10045
3072.90552,0.10070
3070.84593,0.10088
3068.78634,0.10045
3066.72675,0.09987
3064.66716,0.09960
3062.60758,0.09960
3060.54799,0.09950
3058.48840,0.09929
3056.42881,0.09930
3054.36922,0.09906
3052.30964,0.09828
3050.25005,0.09756
3048.19046,0.09717
3046.13087,0.09684
3044.07128,0.09635
3042.01169,0.09558
3039.95211,0.09453
3037.89252,0.09342
3035.83293,0.09263
3033.77334,0.09206
3031.71375,0.09139
3029.65417,0.09057
3027.59458,0.08983
3025.53499,0.08946
3023.47540,0.08908
3021.41581,0.08824
3019.35623,0.08716
3017.29664,0.08620
3015.23705,0.08567
3013.17746,0.08533
3011.11787,0.08470
3009.05828,0.08400
3006.99870,0.08340
3004.93911,0.08298
3002.87952,0.08316
3000.81993,0.08376
2998.76034,0.08423
2996.70076,0.08450
2994.64117,0.08473
2992.58158,0.08527
2990.52199,0.08635
2988.46240,0.08749
2986.40281,0.08821
2984.34323,0.08889
2982.28364,0.09014
2980.22405,0.09187
2978.16446,0.09365
2976.10487,0.09514
2974.04529,0.09621
2971.98570,0.09725
2969.92611,0.09855
2967.86652,0.09980
2965.80693,0.10087
2963.74735,0.10165
2961.68776,0.10226
2959.62817,0.10303
2957.56858,0.10342
2955.50899,0.10296
2953.44940,0.10183
2951.38982,0.10043
2949.33023,0.09957
2947.27064,0.09947
2945.21105,0.09959
2943.15146,0.09991
2941.09188,0.10058
2939.03229,0.10123
2936.97270,0.10173
2934.91311,0.10239
2932.85352,0.10323
2930.79393,0.10377
2928.73435,0.10356
2926.67476,0.10273
2924.61517,0.10176
2922.55558,0.10077
2920.49599,0.09968
2918.43641,0.09863
2916.37682,0.09752
2914.31723,0.09605
2912.25764,0.09437
2910.19805,0.09284
2908.13847,0.09144
2906.07888,0.09010
2904.01929,0.08906
2901.95970,0.08837
2899.90011,0.08753
2897.84052,0.08659
2895.78094,0.08612
2893.72135,0.08606
2891.66176,0.08590
2889.60217,0.08563
2887.54258,0.08569
2885.48300,0.08616
2883.42341,0.08662
2881.36382,0.08699
2879.30423,0.08757
2877.24464,0.08816
2875.18505,0.08834
2873.12547,0.08808
2871.06588,0.08755
2869.00629,0.08681
2866.94670,0.08574
2864.88711,0.08437
2862.82753,0.08303
2860.76794,0.08209
2858.70835,0.08142
2856.64876,0.08071
2854.58917,0.08006
2852.52959,0.07954
2850.47000,0.07900
2848.41041,0.07820
2846.35082,0.07693
2844.29123,0.07568
2842.23164,0.07488
2840.17206,0.07421
2838.11247,0.07364
2836.05288,0.07328
2833.99329,0.07265
2831.93370,0.07181
2829.87412,0.07138
2827.81453,0.07132
2825.75494,0.07107
2823.69535,0.07059
2821.63576,0.07031
2819.57617,0.07013
2817.51659,0.06975
2815.45700,0.06941
2813.39741,0.06936
2811.33782,0.06938
2809.27823,0.06925
2807.21865,0.06886
2805.15906,0.06834
2803.09947,0.06806
2801.03988,0.06806
2798.98029,0.06799
2796.92071,0.06754
2794.86112,0.06686
2792.80153,0.06649
2790.74194,0.06659
2788.68235,0.06674
2786.62276,0.06661
2784.56318,0.06625
2782.50359,0.06589
2780.44400,0.06567
2778.38441,0.06567
2776.32482,0.06569
2774.26524,0.06537
2772.20565,0.06494
2770.14606,0.06463
2768.08647,0.06452
2766.02688,0.06448
2763.96729,0.06407
2761.90771,0.06345
2759.84812,0.06312
2757.78853,0.06316
2755.72894,0.06313
2753.66935,0.06285
2751.60977,0.06269
2749.55018,0.06272
2747.49059,0.06269
2745.43100,0.06254
2743.37141,0.06239
2741.31183,0.06222
2739.25224,0.06197
2737.19265,0.06171
2735.13306,0.06150
2733.07347,0.06132
2731.01388,0.06115
2728.95430,0.06087
2726.89471,0.06047
2724.83512,0.06015
2722.77553,0.06008
2720.71594,0.06019
2718.65636,0.06012
2716.59677,0.05977
2714.53718,0.05956
2712.47759,0.05959
2710.41800,0.05939
2708.35841,0.05891
2706.29883,0.05848
2704.23924,0.05826
2702.17965,0.05819
2700.12006,0.05807
2698.06047,0.05789
2696.00089,0.05780
2693.94130,0.05763
2691.88171,0.05728
2689.82212,0.05701
2687.76253,0.05686
2685.70295,0.05685
2683.64336,0.05687
2681.58377,0.05682
2679.52418,0.05668
2677.46459,0.05648
2675.40500,0.05626
2673.34542,0.05602
2671.28583,0.05582
2669.22624,0.05574
2667.16665,0.05577
2665.10706,0.05589
2663.04748,0.05607
2660.98789,0.05607
2658.92830,0.05582
2656.86871,0.05554
2654.80912,0.05536
2652.74953,0.05530
2650.68995,0.05534
2648.63036,0.05534
2646.57077,0.05513
2644.51118,0.05481
2642.45159,0.05459
2640.39201,0.05445
2638.33242,0.05413
2636.27283,0.05361
2634.21324,0.05328
2632.15365,0.05336
2630.09407,0.05357
2628.03448,0.05356
2625.97489,0.05347
2623.91530,0.05333
2621.85571,0.05297
2619.79612,0.05263
2617.73654,0.05251
2615.67695,0.05250
2613.61736,0.05250
2611.55777,0.05222
2609.49818,0.05164
2607.43860,0.05134
2605.37901,0.05148
2603.31942,0.05152
2601.25983,0.05111
2599.20024,0.05077
2597.14065,0.05085
2595.08107,0.05088
2593.02148,0.05072
2590.96189,0.05048
2588.90230,0.04999
2586.84271,0.04953
2584.78313,0.04943
2582.72354,0.04949
2580.66395,0.04934
2578.60436,0.04905
2576.54477,0.04881
2574.48519,0.04871
2572.42560,0.04887
2570.36601,0.04916
2568.30642,0.04930
2566.24683,0.04926
2564.18724,0.04902
2562.12766,0.04860
2560.06807,0.04818
2558.00848,0.04795
2555.94889,0.04799
2553.88930,0.04795
2551.82972,0.04757
2549.77013,0.04704
2547.71054,0.04680
2545.65095,0.04702
2543.59136,0.04730
2541.53177,0.04717
2539.47219,0.04700
2537.41260,0.04720
2535.35301,0.04726
2533.29342,0.04685
2531.23383,0.04651
2529.17425,0.04644
2527.11466,0.04629
2525.05507,0.04585
2522.99548,0.04521
2520.93589,0.04481
2518.87631,0.04494
2516.81672,0.04524
2514.75713,0.04549
2512.69754,0.04570
2510.63795,0.04581
2508.57836,0.04575
2506.51878,0.04552
2504.45919,0.04550
2502.39960,0.04588
2500.34001,0.04601
2498.28042,0.04562
2496.22084,0.04524
2494.16125,0.04512
2492.10166,0.04510
2490.04207,0.04501
2487.98248,0.04482
2485.92289,0.04480
2483.86331,0.04502
2481.80372,0.04495
2479.74413,0.04449
2477.68454,0.04424
2475.62495,0.04430
2473.56537,0.04430
2471.50578,0.04426
2469.44619,0.04436
2467.38660,0.04441
2465.32701,0.04422
2463.26743,0.04396
2461.20784,0.04384
2459.14825,0.04376
2457.08866,0.04354
2455.02907,0.04339
2452.96948,0.04361
2450.90990,0.04389
2448.85031,0.04372
2446.79072,0.04330
2444.73113,0.04329
2442.67154,0.04350
2440.61196,0.04348
2438.55237,0.04334
2436.49278,0.04318
2434.43319,0.04282
2432.37360,0.04243
2430.31401,0.04246
2428.25443,0.04275
2426.19484,0.04282
2424.13525,0.04260
2422.07566,0.04234
2420.01607,0.04214
2417.95649,0.04175
2415.89690,0.04137
2413.83731,0.04140
2411.77772,0.04150
2409.71813,0.04140
2407.65855,0.04122
2405.59896,0.04106
2403.53937,0.04117
2401.47978,0.04146
2399.42019,0.04171
2397.36060,0.04168
2395.30102,0.04111
2393.24143,0.04039
2391.18184,0.04019
2389.12225,0.04055
2387.06266,0.04109
2385.00308,0.04147
2382.94349,0.04149
2380.88390,0.04111
2378.82431,0.04061
2376.76472,0.04029
2374.70513,0.04017
2372.64555,0.04027
2370.58596,0.04038
2368.52637,0.04034
2366.46678,0.04054
2364.40719,0.04101
2362.34761,0.04116
2360.28802,0.04053
2358.22843,0.03978
2356.16884,0.04010
2354.10925,0.04099
2352.04967,0.04118
2349.99008,0.04092
2347.93049,0.04076
2345.87090,0.04063
2343.81131,0.04041
2341.75172,0.04037
2339.69214,0.04079
2337.63255,0.04126
2335.57296,0.04124
2333.51337,0.04083
2331.45378,0.04057
2329.39420,0.04072
2327.33461,0.04116
2325.27502,0.04154
2323.21543,0.04152
2321.15584,0.04112
2319.09625,0.04073
2317.03667,0.04054
2314.97708,0.04042
2312.91749,0.04027
2310.85790,0.04017
2308.79831,0.04016
2306.73873,0.03993
2304.67914,0.03938
2302.61955,0.03882
2300.55996,0.03844
2298.50037,0.03844
2296.44079,0.03875
2294.38120,0.03884
2292.32161,0.03863
2290.26202,0.03853
2288.20243,0.03834
2286.14284,0.03806
2284.08326,0.03802
2282.02367,0.03779
2279.96408,0.03715
2277.90449,0.03666
2275.84490,0.03644
2273.78532,0.03623
2271.72573,0.03599
2269.66614,0.03579
2267.60655,0.03596
2265.54696,0.03650
2263.48737,0.03680
2261.42779,0.03640
2259.36820,0.03588
2257.30861,0.03547
2255.24902,0.03472
2253.18943,0.03421
2251.12985,0.03446
2249.07026,0.03483
2247.01067,0.03467
2244.95108,0.03409
2242.89149,0.03360
2240.83191,0.03358
2238.77232,0.03376
2236.71273,0.03369
2234.65314,0.03344
2232.59355,0.03355
2230.53396,0.03403
2228.47438,0.03389
2226.41479,0.03329
2224.35520,0.03290
2222.29561,0.03235
2220.23602,0.03198
2218.17644,0.03243
2216.11685,0.03294
2214.05726,0.03225
2211.99767,0.03110
2209.93808,0.03118
2207.87849,0.03192
2205.81891,0.03163
2203.75932,0.03022
2201.69973,0.02930
2199.64014,0.02952
2197.58055,0.03001
2195.52097,0.03038
2193.46138,0.03032
2191.40179,0.02992
2189.34220,0.03024
2187.28261,0.03088
2185.22303,0.03001
2183.16344,0.02836
2181.10385,0.02768
2179.04426,0.02757
2176.98467,0.02782
2174.92508,0.02871
2172.86550,0.03016
2170.80591,0.03152
2168.74632,0.03138
2166.68673,0.02931
2164.62714,0.02684
2162.56756,0.02593
2160.50797,0.02553
2158.44838,0.02466
2156.38879,0.02487
2154.32920,0.02572
2152.26961,0.02672
2150.21003,0.02751
2148.15044,0.02744
2146.09085,0.02696
2144.03126,0.02675
2141.97167,0.02779
2139.91209,0.02951
2137.85250,0.02983
2135.79291,0.02912
2133.73332,0.02925
2131.67373,0.03011
2129.61415,0.03039
2127.55456,0.03004
2125.49497,0.03021
2123.43538,0.03061
2121.37579,0.03022
2119.31620,0.02986
2117.25662,0.03025
2115.19703,0.03042
2113.13744,0.02995
2111.07785,0.02943
2109.01826,0.02960
2106.95868,0.03036
2104.89909,0.03055
2102.83950,0.03025
2100.77991,0.03014
2098.72032,0.02985
2096.66073,0.02917
2094.60115,0.02874
2092.54156,0.02907
2090.48197,0.02968
2088.42238,0.03012
2086.36279,0.03028
2084.30321,0.03013
2082.24362,0.02999
2080.18403,0.03039
2078.12444,0.03068
2076.06485,0.03005
2074.00527,0.02939
2071.94568,0.02931
2069.88609,0.02936
2067.82650,0.02886
2065.76691,0.02783
2063.70732,0.02728
2061.64774,0.02753
2059.58815,0.02805
2057.52856,0.02802
2055.46897,0.02733
2053.40938,0.02693
2051.34980,0.02678
2049.29021,0.02618
2047.23062,0.02547
2045.17103,0.02506
2043.11144,0.02441
2041.05185,0.02365
2038.99227,0.02372
2036.93268,0.02419
2034.87309,0.02485
2032.81350,0.02539
2030.75391,0.02490
2028.69433,0.02374
2026.63474,0.02290
2024.57515,0.02300
2022.51556,0.02340
2020.45597,0.02325
2018.39639,0.02297
2016.33680,0.02353
2014.27721,0.02447
2012.21762,0.02443
2010.15803,0.02328
2008.09844,0.02226
2006.03886,0.02231
2003.97927,0.02244
2001.91968,0.02240
1999.86009,0.02351
1997.80050,0.02510
1995.74092,0.02536
1993.68133,0.02442
1991.62174,0.02354
1989.56215,0.02344
1987.50256,0.02417
1985.44297,0.02466
1983.38339,0.02413
1981.32380,0.02354
1979.26421,0.02322
1977.20462,0.02248
1975.14503,0.02186
1973.08545,0.02214
1971.02586,0.02277
1968.96627,0.02282
1966.90668,0.02223
1964.84709,0.02176
1962.78751,0.02191
1960.72792,0.02201
1958.66833,0.02153
1956.60874,0.02136
1954.54915,0.02193
1952.48956,0.02241
1950.42998,0.02245
1948.37039,0.02262
1946.31080,0.02313
1944.25121,0.02360
1942.19162,0.02355
1940.13204,0.02314
1938.07245,0.02296
1936.01286,0.02300
1933.95327,0.02292
1931.89368,0.02269
1929.83409,0.02260
1927.77451,0.02267
1925.71492,0.02243
1923.65533,0.02211
1921.59574,0.02261
1919.53615,0.02342
1917.47657,0.02356
1915.41698,0.02334
1913.35739,0.02332
1911.29780,0.02345
1909.23821,0.02360
1907.17863,0.02361
1905.11904,0.02318
1903.05945,0.02296
1900.99986,0.02336
1898.94027,0.02353
1896.88068,0.02320
1894.82110,0.02292
1892.76151,0.02283
1890.70192,0.02286
1888.64233,0.02299
1886.58274,0.02302
1884.52316,0.02277
1882.46357,0.02250
1880.40398,0.02248
1878.34439,0.02253
1876.28480,0.02246
1874.22521,0.02219
1872.16563,0.02183
1870.10604,0.02170
1868.04645,0.02209
1865.98686,0.02262
1863.92727,0.02274
1861.86769,0.02275
1859.80810,0.02274
1857.74851,0.02247
1855.68892,0.02209
1853.62933,0.02188
1851.56975,0.02181
1849.51016,0.02178
1847.45057,0.02153
1845.39098,0.02121
1843.33139,0.02119
1841.27180,0.02127
1839.21222,0.02135
1837.15263,0.02145
1835.09304,0.02139
1833.03345,0.02126
1830.97386,0.02121
1828.91428,0.02116
1826.85469,0.02101
1824.79510,0.02096
1822.73551,0.02098
1820.67592,0.02084
1818.61633,0.02072
1816.55675,0.02055
1814.49716,0.02030
1812.43757,0.02013
1810.37798,0.02013
1808.31839,0.02021
1806.25881,0.02014
1804.19922,0.02018
1802.13963,0.02041
1800.08004,0.02040
1798.02045,0.02016
1795.96087,0.01997
1793.90128,0.01974
1791.84169,0.01961
1789.78210,0.01960
1787.72251,0.01947
1785.66292,0.01938
1783.60334,0.01949
1781.54375,0.01958
1779.48416,0.01936
1777.42457,0.01908
1775.36498,0.01891
1773.30540,0.01884
1771.24581,0.01881
1769.18622,0.01878
1767.12663,0.01883
1765.06704,0.01892
1763.00745,0.01893
1760.94787,0.01889
1758.88828,0.01887
1756.82869,0.01882
1754.76910,0.01874
1752.70951,0.01873
1750.64993,0.01892
1748.59034,0.01912
1746.53075,0.01919
1744.47116,0.01920
1742.41157,0.01925
1740.35199,0.01931
1738.29240,0.01919
1736.23281,0.01891
1734.17322,0.01881
1732.11363,0.01905
1730.05404,0.01909
1727.99446,0.01901
1725.93487,0.01912
1723.87528,0.01947
1721.81569,0.01989
1719.75610,0.02037
1717.69652,0.02116
1715.63693,0.02255
1713.57734,0.02425
1711.51775,0.02625
1709.45816,0.02880
1707.39857,0.03223
1705.33899,0.03705
1703.27940,0.04265
1701.21981,0.04962
1699.16022,0.05796
1697.10063,0.06488
1695.04105,0.07125
1692.98146,0.07732
1690.92187,0.08314
1688.86228,0.08938
1686.80269,0.09548
1684.74311,0.10305
1682.68352,0.11191
1680.62393,0.11912
1678.56434,0.12553
1676.50475,0.13277
1674.44516,0.14143
1672.38558,0.14991
1670.32599,0.15878
1668.26640,0.16909
1666.20681,0.17882
1664.14722,0.18870
1662.08764,0.19991
1660.02805,0.21030
1657.96846,0.21842
1655.90887,0.22433
1653.84928,0.22984
1651.78969,0.23458
1649.73011,0.23538
1647.67052,0.23428
1645.61093,0.23276
1643.55134,0.23048
1641.49175,0.22728
1639.43217,0.22330
1637.37258,0.21881
1635.31299,0.21395
1633.25340,0.20926
1631.19381,0.20494
1629.13423,0.20081
1627.07464,0.19710
1625.01505,0.19378
1622.95546,0.19061
1620.89587,0.18741
1618.83628,0.18379
1616.77670,0.17891
1614.71711,0.17281
1612.65752,0.16605
1610.59793,0.15834
1608.53834,0.14992
1606.47876,0.14152
1604.41917,0.13368
1602.35958,0.12644
1600.29999,0.11990
1598.24040,0.11407
1596.18081,0.10876
1594.12123,0.10383
1592.06164,0.09946
1590.00205,0.09568
1587.94246,0.09244
1585.88287,0.08979
1583.82329,0.08780
1581.76370,0.08635
1579.70411,0.08534
1577.64452,0.08487
1575.58493,0.08520
1573.52535,0.08620
1571.46576,0.08769
1569.40617,0.09015
1567.34658,0.09321
1565.28699,0.09664
1563.22740,0.10050
1561.16782,0.10500
1559.10823,0.11258
1557.04864,0.12183
1554.98905,0.12960
1552.92946,0.13754
1550.86988,0.14571
1548.81029,0.15348
1546.75070,0.16022
1544.69111,0.16605
1542.63152,0.17111
1540.57193,0.17590
1538.51235,0.18002
1536.45276,0.18192
1534.39317,0.18300
1532.33358,0.18434
1530.27399,0.18534
1528.21441,0.18594
1526.15482,0.18640
1524.09523,0.18660
1522.03564,0.18693
1519.97605,0.18759
1517.91647,0.18809
1515.85688,0.18805
1513.79729,0.18669
1511.73770,0.18370
1509.67811,0.17970
1507.61852,0.17480
1505.55894,0.16896
1503.49935,0.16349
1501.43976,0.15827
1499.38017,0.15267
1497.32058,0.14637
1495.26100,0.13949
1493.20141,0.13283
1491.14182,0.12613
1489.08223,0.11921
1487.02264,0.11300
1484.96305,0.10772
1482.90347,0.10326
1480.84388,0.09965
1478.78429,0.09704
1476.72470,0.09543
1474.66511,0.09484
1472.60553,0.09538
1470.54594,0.09637
1468.48635,0.09689
1466.42676,0.09710
1464.36717,0.09749
1462.30759,0.09818
1460.24800,0.09904
1458.18841,0.10054
1456.12882,0.10278
1454.06923,0.10412
1452.00964,0.10417
1449.95006,0.10355
1447.89047,0.10257
1445.83088,0.10129
1443.77129,0.09966
1441.71170,0.09780
1439.65212,0.09595
1437.59253,0.09397
1435.53294,0.09190
1433.47335,0.09012
1431.41376,0.08866
1429.35417,0.08748
1427.29459,0.08670
1425.23500,0.08649
1423.17541,0.08672
1421.11582,0.08711
1419.05623,0.08781
1416.99665,0.08866
1414.93706,0.08913
1412.87747,0.08936
1410.81788,0.08952
1408.75829,0.08938
1406.69871,0.08891
1404.63912,0.08833
1402.57953,0.08763
1400.51994,0.08689
1398.46035,0.08633
1396.40076,0.08606
1394.34118,0.08604
1392.28159,0.08619
1390.22200,0.08645
1388.16241,0.08681
1386.10282,0.08707
1384.04324,0.08697
1381.98365,0.08642
1379.92406,0.08541
1377.86447,0.08424
1375.80488,0.08322
1373.74529,0.08242
1371.68571,0.08180
1369.62612,0.08118
1367.56653,0.08023
1365.50694,0.07884
1363.44735,0.07727
1361.38777,0.07585
1359.32818,0.07473
1357.26859,0.07390
1355.20900,0.07331
1353.14941,0.07303
1351.08983,0.07294
1349.03024,0.07293
1346.97065,0.07305
1344.91106,0.07337
1342.85147,0.07387
1340.79188,0.07440
1338.73230,0.07490
1336.67271,0.07539
1334.61312,0.07583
1332.55353,0.07612
1330.49394,0.07620
1328.43436,0.07613
1326.37477,0.07608
1324.31518,0.07619
1322.25559,0.07643
1320.19600,0.07677
1318.13641,0.07720
1316.07683,0.07765
1314.01724,0.07807
1311.95765,0.07842
1309.89806,0.07870
1307.83847,0.07898
1305.77889,0.07925
1303.71930,0.07936
1301.65971,0.07937
1299.60012,0.07931
1297.54053,0.07902
1295.48095,0.07859
1293.42136,0.07824
1291.36177,0.07795
1289.30218,0.07766
1287.24259,0.07746
1285.18300,0.07729
1283.12342,0.07710
1281.06383,0.07686
1279.00424,0.07665
1276.94465,0.07653
1274.88506,0.07649
1272.82548,0.07651
1270.76589,0.07664
1268.70630,0.07685
1266.64671,0.07708
1264.58712,0.07734
1262.52753,0.07772
1260.46795,0.07836
1258.40836,0.07913
1256.34877,0.07985
1254.28918,0.08053
1252.22959,0.08118
1250.17001,0.08179
1248.11042,0.08239
1246.05083,0.08303
1243.99124,0.08361
1241.93165,0.08395
1239.87207,0.08410
1237.81248,0.08410
1235.75289,0.08393
1233.69330,0.08360
1231.63371,0.08309
1229.57412,0.08237
1227.51454,0.08152
1225.45495,0.08055
1223.39536,0.07941
1221.33577,0.07819
1219.27618,0.07699
1217.21660,0.07576
1215.15701,0.07437
1213.09742,0.07289
1211.03783,0.07148
1208.97824,0.07014
1206.91865,0.06876
1204.85907,0.06736
1202.79948,0.06597
1200.73989,0.06463
1198.68030,0.06333
1196.62071,0.06210
1194.56113,0.06104
1192.50154,0.06018
1190.44195,0.05940
1188.38236,0.05870
1186.32277,0.05812
1184.26319,0.05769
1182.20360,0.05752
1180.14401,0.05762
1178.08442,0.05806
1176.02483,0.05890
1173.96524,0.05995
1171.90566,0.06087
1169.84607,0.06149
1167.78648,0.06181
1165.72689,0.06191
1163.66730,0.06192
1161.60772,0.06182
1159.54813,0.06149
1157.48854,0.06089
1155.42895,0.06009
1153.36936,0.05915
1151.30977,0.05810
1149.25019,0.05717
1147.19060,0.05641
1145.13101,0.05570
1143.07142,0.05505
1141.01183,0.05454
1138.95225,0.05423
1136.89266,0.05410
1134.83307,0.05410
1132.77348,0.05415
1130.71389,0.05417
1128.65431,0.05412
1126.59472,0.05388
1124.53513,0.05348
1122.47554,0.05315
1120.41595,0.05287
1118.35636,0.05253
1116.29678,0.05220
1114.23719,0.05204
1112.17760,0.05209
1110.11801,0.05229
1108.05842,0.05251
1105.99884,0.05268
1103.93925,0.05287
1101.87966,0.05311
1099.82007,0.05336
1097.76048,0.05357
1095.70089,0.05382
1093.64131,0.05429
1091.58172,0.05501
1089.52213,0.05598
1087.46254,0.05722
1085.40295,0.05859
1083.34337,0.05999
1081.28378,0.06130
1079.22419,0.06244
1077.16460,0.06334
1075.10501,0.06401
1073.04543,0.06450
1070.98584,0.06486
1068.92625,0.06518
1066.86666,0.06546
1064.80707,0.06550
1062.74748,0.06537
1060.68790,0.06523
1058.62831,0.06511
1056.56872,0.06496
1054.50913,0.06477
1052.44954,0.06446
1050.38996,0.06396
1048.33037,0.06338
1046.27078,0.06264
1044.21119,0.06153
1042.15160,0.06011
1040.09201,0.05862
1038.03243,0.05717
1035.97284,0.05576
1033.91325,0.05452
1031.85366,0.05357
1029.79407,0.05267
1027.73449,0.05150
1025.67490,0.05012
1023.61531,0.04887
1021.55572,0.04785
1019.49613,0.04691
1017.43655,0.04600
1015.37696,0.04513
1013.31737,0.04421
1011.25778,0.04319
1009.19819,0.04228
1007.13860,0.04161
1005.07902,0.04094
1003.01943,0.04019
1000.95984,0.03957
998.90025,0.03914
996.84066,0.03868
994.78108,0.03815
992.72149,0.03773
990.66190,0.03731
988.60231,0.03687
986.54272,0.03652
984.48313,0.03622
982.42355,0.03595
980.36396,0.03573
978.30437,0.03555
976.24478,0.03537
974.18519,0.03517
972.12561,0.03499
970.06602,0.03487
968.00643,0.03481
965.94684,0.03483
963.88725,0.03490
961.82767,0.03490
959.76808,0.03471
957.70849,0.03441
955.64890,0.03419
953.58931,0.03406
951.52972,0.03386
949.47014,0.03366
947.41055,0.03358
945.35096,0.03352
943.29137,0.03347
941.23178,0.03353
939.17220,0.03367
937.11261,0.03377
935.05302,0.03386
932.99343,0.03392
930.93384,0.03386
928.87425,0.03370
926.81467,0.03354
924.75508,0.03334
922.69549,0.03298
920.63590,0.03252
918.57631,0.03211
916.51673,0.03183
914.45714,0.03171
912.39755,0.03167
910.33796,0.03160
908.27837,0.03159
906.21879,0.03169
904.15920,0.03178
902.09961,0.03177
900.04002,0.03180
897.98043,0.03184
895.92084,0.03166
893.86126,0.03135
891.80167,0.03106
889.74208,0.03070
887.68249,0.03023
885.62290,0.02977
883.56332,0.02948
881.50373,0.02924
879.44414,0.02901
877.38455,0.02891
875.32496,0.02891
873.26537,0.02878
871.20579,0.02840
869.14620,0.02797
867.08661,0.02767
865.02702,0.02758
862.96743,0.02763
860.90785,0.02767
858.84826,0.02764
856.78867,0.02762
854.72908,0.02758
852.66949,0.02743
850.60991,0.02723
848.55032,0.02715
846.49073,0.02718
844.43114,0.02719
842.37155,0.02717
840.31196,0.02723
838.25238,0.02739
836.19279,0.02752
834.13320,0.02763
832.07361,0.02771
830.01402,0.02782
827.95444,0.02813
825.89485,0.02846
823.83526,0.02856
821.77567,0.02848
819.71608,0.02837
817.65649,0.02841
815.59691,0.02868
813.53732,0.02885
811.47773,0.02891
809.41814,0.02916
807.35855,0.02955
805.29897,0.02972
803.23938,0.02973
801.17979,0.02974
799.12020,0.02966
797.06061,0.02975
795.00103,0.03018
792.94144,0.03062
790.88185,0.03087
788.82226,0.03111
786.76267,0.03137
784.70308,0.03155
782.64350,0.03183
780.58391,0.03224
778.52432,0.03261
776.46473,0.03294
774.40514,0.03322
772.34556,0.03347
770.28597,0.03382
768.22638,0.03420
766.16679,0.03441
764.10720,0.03448
762.04761,0.03459
759.98803,0.03477
757.92844,0.03497
755.86885,0.03516
753.80926,0.03534
751.74967,0.03563
749.69009,0.03600
747.63050,0.03630
745.57091,0.03649
743.51132,0.03672
741.45173,0.03693
739.39215,0.03693
737.33256,0.03694
735.27297,0.03717
733.21338,0.03750
731.15379,0.03783
729.09420,0.03825
727.03462,0.03881
724.97503,0.03953
722.91544,0.04036
720.85585,0.04119
718.79626,0.04198
716.73668,0.04276
714.67709,0.04348
712.61750,0.04429
710.55791,0.04539
708.49832,0.04653
706.43873,0.04755
704.37915,0.04861
702.31956,0.04958
700.25997,0.05024
698.20038,0.05056
696.14079,0.05060
694.08121,0.05049
692.02162,0.05043
689.96203,0.05051
687.90244,0.05069
685.84285,0.05087
683.78327,0.05102
681.72368,0.05126
679.66409,0.05173
677.60450,0.05220
675.54491,0.05246
673.48532,0.05264
671.42574,0.05284
669.36615,0.05319
667.30656,0.05379
665.24697,0.05417
663.18738,0.05432
661.12780,0.05441
659.06821,0.05448
657.00862,0.05459
654.94903,0.05476
652.88944,0.05483
650.82985,0.05486
648.77027,0.05507
646.71068,0.05540
644.65109,0.05567
642.59150,0.05592
640.53191,0.05626
638.47233,0.05663
636.41274,0.05689
634.35315,0.05712
632.29356,0.05748
630.23397,0.05788
628.17439,0.05816
626.11480,0.05827
624.05521,0.05833
621.99562,0.05844
619.93603,0.05849
617.87644,0.05836
615.81686,0.05810
613.75727,0.05800
611.69768,0.05800
609.63809,0.05776
607.57850,0.05749
605.51892,0.05744
603.45933,0.05750
601.39974,0.05746
599.34015,0.05735
597.28056,0.05734
595.22097,0.05728
593.16139,0.05721
591.10180,0.05737
589.04221,0.05758
586.98262,0.05763
584.92303,0.05756
582.86345,0.05754
580.80386,0.05767
578.74427,0.05763
576.68468,0.05737
574.62509,0.05728
572.56551,0.05735
570.50592,0.05732
568.44633,0.05718
566.38674,0.05717
564.32715,0.05746
562.26756,0.05783
560.20798,0.05786
558.14839,0.05758
556.08880,0.05738
554.02921,0.05735
551.96962,0.05729
549.91004,0.05716
547.85045,0.05705
545.79086,0.05689
543.73127,0.05662
541.67168,0.05634
539.61209,0.05611
537.55251,0.05603
535.49292,0.05607
533.43333,0.05603
531.37374,0.05601
529.31415,0.05621
527.25457,0.05644
525.19498,0.05658
523.13539,0.05656
521.07580,0.05619
519.01621,0.05582
516.95663,0.05562
514.89704,0.05522
512.83745,0.05459
510.77786,0.05394
508.71827,0.05339
506.65868,0.05303
504.59910,0.05276
502.53951,0.05211
500.47992,0.05113
498.42033,0.05053
496.36074,0.05039
494.30116,0.05026
492.24157,0.04998
490.18198,0.04960
488.12239,0.04918
486.06280,0.04894
484.00321,0.04894
481.94363,0.04876
479.88404,0.04837
477.82445,0.04811
475.76486,0.04796
473.70527,0.04767
471.64569,0.04737
469.58610,0.04707
467.52651,0.04688
465.46692,0.04712
463.40733,0.04736
461.34775,0.04728
459.28816,0.04706
457.22857,0.04683
455.16898,0.04679
453.10939,0.04678
451.04980,0.04638
448.99022,0.04555
446.93063,0.04470
444.87104,0.04398
442.81145,0.04341
440.75186,0.04305
438.69228,0.04269
436.63269,0.04212
434.57310,0.04159
432.51351,0.04127
430.45392,0.04080
428.39433,0.04002
426.33475,0.03928
424.27516,0.03892
422.21557,0.03912
420.15598,0.03917
418.09639,0.03884
416.03681,0.03885
413.97722,0.03877
411.91763,0.03828
409.85804,0.03786
407.79845,0.03744
405.73887,0.03675
403.67928,0.03624
401.61969,0.03625
399.56010,0.03595
