Created as New Dataset,Sample 660 By YargerLab Date Tuesday, March 17 2026
cm-1,A
4000.00,0.0106
3999.00,0.0106
3998.00,0.0106
3997.00,0.0106
3996.00,0.0106
3995.00,0.0105
3994.00,0.0105
3993.00,0.0105
3992.00,0.0105
3991.00,0.0105
3990.00,0.0105
3989.00,0.0105
3988.00,0.0105
3987.00,0.0105
3986.00,0.0105
3985.00,0.0105
3984.00,0.0105
3983.00,0.0105
3982.00,0.0105
3981.00,0.0105
3980.00,0.0105
3979.00,0.0105
3978.00,0.0105
3977.00,0.0105
3976.00,0.0105
3975.00,0.0105
3974.00,0.0106
3973.00,0.0106
3972.00,0.0106
3971.00,0.0106
3970.00,0.0106
3969.00,0.0106
3968.00,0.0105
3967.00,0.0105
3966.00,0.0105
3965.00,0.0105
3964.00,0.0105
3963.00,0.0105
3962.00,0.0105
3961.00,0.0105
3960.00,0.0105
3959.00,0.0105
3958.00,0.0105
3957.00,0.0105
3956.00,0.0105
3955.00,0.0105
3954.00,0.0105
3953.00,0.0105
3952.00,0.0105
3951.00,0.0105
3950.00,0.0105
3949.00,0.0105
3948.00,0.0105
3947.00,0.0105
3946.00,0.0105
3945.00,0.0105
3944.00,0.0105
3943.00,0.0106
3942.00,0.0106
3941.00,0.0106
3940.00,0.0106
3939.00,0.0105
3938.00,0.0105
3937.00,0.0106
3936.00,0.0106
3935.00,0.0106
3934.00,0.0106
3933.00,0.0106
3932.00,0.0106
3931.00,0.0106
3930.00,0.0105
3929.00,0.0105
3928.00,0.0105
3927.00,0.0105
3926.00,0.0105
3925.00,0.0105
3924.00,0.0105
3923.00,0.0106
3922.00,0.0105
3921.00,0.0105
3920.00,0.0105
3919.00,0.0105
3918.00,0.0105
3917.00,0.0105
3916.00,0.0105
3915.00,0.0105
3914.00,0.0105
3913.00,0.0105
3912.00,0.0105
3911.00,0.0105
3910.00,0.0105
3909.00,0.0105
3908.00,0.0105
3907.00,0.0104
3906.00,0.0105
3905.00,0.0105
3904.00,0.0105
3903.00,0.0105
3902.00,0.0105
3901.00,0.0105
3900.00,0.0105
3899.00,0.0105
3898.00,0.0105
3897.00,0.0105
3896.00,0.0105
3895.00,0.0105
3894.00,0.0105
3893.00,0.0105
3892.00,0.0104
3891.00,0.0104
3890.00,0.0104
3889.00,0.0104
3888.00,0.0104
3887.00,0.0104
3886.00,0.0104
3885.00,0.0104
3884.00,0.0104
3883.00,0.0104
3882.00,0.0104
3881.00,0.0104
3880.00,0.0104
3879.00,0.0104
3878.00,0.0104
3877.00,0.0104
3876.00,0.0104
3875.00,0.0104
3874.00,0.0104
3873.00,0.0104
3872.00,0.0104
3871.00,0.0104
3870.00,0.0103
3869.00,0.0104
3868.00,0.0104
3867.00,0.0103
3866.00,0.0104
3865.00,0.0104
3864.00,0.0104
3863.00,0.0104
3862.00,0.0104
3861.00,0.0104
3860.00,0.0104
3859.00,0.0104
3858.00,0.0104
3857.00,0.0104
3856.00,0.0103
3855.00,0.0103
3854.00,0.0103
3853.00,0.0103
3852.00,0.0103
3851.00,0.0103
3850.00,0.0103
3849.00,0.0103
3848.00,0.0103
3847.00,0.0103
3846.00,0.0103
3845.00,0.0103
3844.00,0.0103
3843.00,0.0103
3842.00,0.0103
3841.00,0.0103
3840.00,0.0103
3839.00,0.0103
3838.00,0.0103
3837.00,0.0103
3836.00,0.0103
3835.00,0.0103
3834.00,0.0103
3833.00,0.0103
3832.00,0.0103
3831.00,0.0103
3830.00,0.0103
3829.00,0.0103
3828.00,0.0103
3827.00,0.0103
3826.00,0.0103
3825.00,0.0103
3824.00,0.0103
3823.00,0.0102
3822.00,0.0102
3821.00,0.0102
3820.00,0.0103
3819.00,0.0103
3818.00,0.0103
3817.00,0.0103
3816.00,0.0103
3815.00,0.0103
3814.00,0.0103
3813.00,0.0102
3812.00,0.0102
3811.00,0.0102
3810.00,0.0102
3809.00,0.0102
3808.00,0.0102
3807.00,0.0102
3806.00,0.0102
3805.00,0.0102
3804.00,0.0102
3803.00,0.0102
3802.00,0.0102
3801.00,0.0102
3800.00,0.0102
3799.00,0.0102
3798.00,0.0102
3797.00,0.0102
3796.00,0.0102
3795.00,0.0102
3794.00,0.0102
3793.00,0.0102
3792.00,0.0102
3791.00,0.0102
3790.00,0.0102
3789.00,0.0102
3788.00,0.0102
3787.00,0.0102
3786.00,0.0102
3785.00,0.0102
3784.00,0.0102
3783.00,0.0102
3782.00,0.0102
3781.00,0.0102
3780.00,0.0102
3779.00,0.0102
3778.00,0.0102
3777.00,0.0102
3776.00,0.0102
3775.00,0.0102
3774.00,0.0102
3773.00,0.0102
3772.00,0.0102
3771.00,0.0102
3770.00,0.0102
3769.00,0.0102
3768.00,0.0102
3767.00,0.0102
3766.00,0.0102
3765.00,0.0101
3764.00,0.0101
3763.00,0.0101
3762.00,0.0101
3761.00,0.0101
3760.00,0.0101
3759.00,0.0101
3758.00,0.0101
3757.00,0.0102
3756.00,0.0102
3755.00,0.0102
3754.00,0.0101
3753.00,0.0101
3752.00,0.0101
3751.00,0.0101
3750.00,0.0101
3749.00,0.0101
3748.00,0.0101
3747.00,0.0101
3746.00,0.0101
3745.00,0.0101
3744.00,0.0101
3743.00,0.0101
3742.00,0.0101
3741.00,0.0101
3740.00,0.0101
3739.00,0.0101
3738.00,0.0101
3737.00,0.0100
3736.00,0.0100
3735.00,0.0100
3734.00,0.0100
3733.00,0.0100
3732.00,0.0100
3731.00,0.0100
3730.00,0.0099
3729.00,0.0099
3728.00,0.0099
3727.00,0.0099
3726.00,0.0099
3725.00,0.0099
3724.00,0.0099
3723.00,0.0099
3722.00,0.0099
3721.00,0.0099
3720.00,0.0099
3719.00,0.0099
3718.00,0.0100
3717.00,0.0100
3716.00,0.0100
3715.00,0.0100
3714.00,0.0100
3713.00,0.0100
3712.00,0.0100
3711.00,0.0100
3710.00,0.0100
3709.00,0.0099
3708.00,0.0099
3707.00,0.0099
3706.00,0.0099
3705.00,0.0099
3704.00,0.0099
3703.00,0.0099
3702.00,0.0099
3701.00,0.0099
3700.00,0.0099
3699.00,0.0099
3698.00,0.0099
3697.00,0.0099
3696.00,0.0099
3695.00,0.0099
3694.00,0.0099
3693.00,0.0099
3692.00,0.0099
3691.00,0.0099
3690.00,0.0099
3689.00,0.0099
3688.00,0.0098
3687.00,0.0098
3686.00,0.0098
3685.00,0.0098
3684.00,0.0098
3683.00,0.0098
3682.00,0.0098
3681.00,0.0099
3680.00,0.0099
3679.00,0.0099
3678.00,0.0099
3677.00,0.0099
3676.00,0.0099
3675.00,0.0099
3674.00,0.0100
3673.00,0.0099
3672.00,0.0099
3671.00,0.0099
3670.00,0.0099
3669.00,0.0099
3668.00,0.0099
3667.00,0.0099
3666.00,0.0099
3665.00,0.0099
3664.00,0.0100
3663.00,0.0100
3662.00,0.0100
3661.00,0.0100
3660.00,0.0100
3659.00,0.0100
3658.00,0.0100
3657.00,0.0100
3656.00,0.0101
3655.00,0.0101
3654.00,0.0101
3653.00,0.0101
3652.00,0.0101
3651.00,0.0101
3650.00,0.0101
3649.00,0.0101
3648.00,0.0101
3647.00,0.0101
3646.00,0.0102
3645.00,0.0102
3644.00,0.0102
3643.00,0.0102
3642.00,0.0102
3641.00,0.0102
3640.00,0.0102
3639.00,0.0102
3638.00,0.0102
3637.00,0.0102
3636.00,0.0102
3635.00,0.0103
3634.00,0.0103
3633.00,0.0103
3632.00,0.0103
3631.00,0.0103
3630.00,0.0103
3629.00,0.0103
3628.00,0.0104
3627.00,0.0104
3626.00,0.0104
3625.00,0.0104
3624.00,0.0104
3623.00,0.0105
3622.00,0.0105
3621.00,0.0105
3620.00,0.0105
3619.00,0.0105
3618.00,0.0105
3617.00,0.0106
3616.00,0.0106
3615.00,0.0106
3614.00,0.0107
3613.00,0.0107
3612.00,0.0107
3611.00,0.0107
3610.00,0.0107
3609.00,0.0107
3608.00,0.0107
3607.00,0.0107
3606.00,0.0108
3605.00,0.0108
3604.00,0.0108
3603.00,0.0108
3602.00,0.0108
3601.00,0.0108
3600.00,0.0109
3599.00,0.0109
3598.00,0.0109
3597.00,0.0109
3596.00,0.0109
3595.00,0.0109
3594.00,0.0110
3593.00,0.0110
3592.00,0.0110
3591.00,0.0110
3590.00,0.0111
3589.00,0.0111
3588.00,0.0111
3587.00,0.0111
3586.00,0.0112
3585.00,0.0112
3584.00,0.0112
3583.00,0.0113
3582.00,0.0113
3581.00,0.0113
3580.00,0.0113
3579.00,0.0113
3578.00,0.0113
3577.00,0.0114
3576.00,0.0114
3575.00,0.0115
3574.00,0.0115
3573.00,0.0115
3572.00,0.0115
3571.00,0.0116
3570.00,0.0116
3569.00,0.0116
3568.00,0.0117
3567.00,0.0117
3566.00,0.0117
3565.00,0.0118
3564.00,0.0118
3563.00,0.0118
3562.00,0.0119
3561.00,0.0119
3560.00,0.0119
3559.00,0.0120
3558.00,0.0120
3557.00,0.0120
3556.00,0.0120
3555.00,0.0121
3554.00,0.0121
3553.00,0.0122
3552.00,0.0122
3551.00,0.0123
3550.00,0.0123
3549.00,0.0124
3548.00,0.0124
3547.00,0.0125
3546.00,0.0125
3545.00,0.0125
3544.00,0.0125
3543.00,0.0126
3542.00,0.0126
3541.00,0.0127
3540.00,0.0127
3539.00,0.0127
3538.00,0.0128
3537.00,0.0128
3536.00,0.0129
3535.00,0.0129
3534.00,0.0130
3533.00,0.0130
3532.00,0.0131
3531.00,0.0131
3530.00,0.0132
3529.00,0.0132
3528.00,0.0133
3527.00,0.0133
3526.00,0.0134
3525.00,0.0135
3524.00,0.0135
3523.00,0.0136
3522.00,0.0136
3521.00,0.0137
3520.00,0.0137
3519.00,0.0138
3518.00,0.0138
3517.00,0.0139
3516.00,0.0140
3515.00,0.0140
3514.00,0.0141
3513.00,0.0142
3512.00,0.0143
3511.00,0.0143
3510.00,0.0144
3509.00,0.0145
3508.00,0.0145
3507.00,0.0146
3506.00,0.0147
3505.00,0.0148
3504.00,0.0148
3503.00,0.0149
3502.00,0.0150
3501.00,0.0151
3500.00,0.0151
3499.00,0.0152
3498.00,0.0153
3497.00,0.0154
3496.00,0.0155
3495.00,0.0155
3494.00,0.0156
3493.00,0.0157
3492.00,0.0157
3491.00,0.0158
3490.00,0.0159
3489.00,0.0160
3488.00,0.0161
3487.00,0.0161
3486.00,0.0162
3485.00,0.0163
3484.00,0.0164
3483.00,0.0165
3482.00,0.0166
3481.00,0.0166
3480.00,0.0167
3479.00,0.0168
3478.00,0.0168
3477.00,0.0169
3476.00,0.0170
3475.00,0.0171
3474.00,0.0171
3473.00,0.0172
3472.00,0.0173
3471.00,0.0174
3470.00,0.0174
3469.00,0.0175
3468.00,0.0176
3467.00,0.0176
3466.00,0.0177
3465.00,0.0177
3464.00,0.0178
3463.00,0.0179
3462.00,0.0179
3461.00,0.0180
3460.00,0.0181
3459.00,0.0181
3458.00,0.0182
3457.00,0.0183
3456.00,0.0183
3455.00,0.0184
3454.00,0.0185
3453.00,0.0185
3452.00,0.0186
3451.00,0.0186
3450.00,0.0187
3449.00,0.0188
3448.00,0.0188
3447.00,0.0189
3446.00,0.0189
3445.00,0.0190
3444.00,0.0190
3443.00,0.0191
3442.00,0.0191
3441.00,0.0192
3440.00,0.0193
3439.00,0.0194
3438.00,0.0194
3437.00,0.0195
3436.00,0.0196
3435.00,0.0196
3434.00,0.0197
3433.00,0.0197
3432.00,0.0198
3431.00,0.0198
3430.00,0.0199
3429.00,0.0200
3428.00,0.0200
3427.00,0.0201
3426.00,0.0201
3425.00,0.0202
3424.00,0.0202
3423.00,0.0203
3422.00,0.0203
3421.00,0.0204
3420.00,0.0205
3419.00,0.0205
3418.00,0.0206
3417.00,0.0207
3416.00,0.0208
3415.00,0.0208
3414.00,0.0209
3413.00,0.0210
3412.00,0.0211
3411.00,0.0211
3410.00,0.0212
3409.00,0.0212
3408.00,0.0213
3407.00,0.0214
3406.00,0.0214
3405.00,0.0215
3404.00,0.0216
3403.00,0.0217
3402.00,0.0217
3401.00,0.0218
3400.00,0.0219
3399.00,0.0219
3398.00,0.0220
3397.00,0.0220
3396.00,0.0221
3395.00,0.0222
3394.00,0.0223
3393.00,0.0224
3392.00,0.0224
3391.00,0.0225
3390.00,0.0226
3389.00,0.0226
3388.00,0.0227
3387.00,0.0228
3386.00,0.0229
3385.00,0.0230
3384.00,0.0231
3383.00,0.0232
3382.00,0.0233
3381.00,0.0233
3380.00,0.0234
3379.00,0.0235
3378.00,0.0236
3377.00,0.0237
3376.00,0.0238
3375.00,0.0239
3374.00,0.0240
3373.00,0.0241
3372.00,0.0242
3371.00,0.0244
3370.00,0.0245
3369.00,0.0246
3368.00,0.0247
3367.00,0.0248
3366.00,0.0249
3365.00,0.0250
3364.00,0.0252
3363.00,0.0253
3362.00,0.0254
3361.00,0.0255
3360.00,0.0257
3359.00,0.0258
3358.00,0.0259
3357.00,0.0260
3356.00,0.0262
3355.00,0.0263
3354.00,0.0265
3353.00,0.0267
3352.00,0.0269
3351.00,0.0271
3350.00,0.0272
3349.00,0.0274
3348.00,0.0276
3347.00,0.0278
3346.00,0.0281
3345.00,0.0284
3344.00,0.0287
3343.00,0.0290
3342.00,0.0293
3341.00,0.0297
3340.00,0.0301
3339.00,0.0306
3338.00,0.0311
3337.00,0.0317
3336.00,0.0323
3335.00,0.0330
3334.00,0.0337
3333.00,0.0345
3332.00,0.0354
3331.00,0.0362
3330.00,0.0371
3329.00,0.0379
3328.00,0.0387
3327.00,0.0394
3326.00,0.0400
3325.00,0.0405
3324.00,0.0408
3323.00,0.0410
3322.00,0.0411
3321.00,0.0411
3320.00,0.0410
3319.00,0.0409
3318.00,0.0406
3317.00,0.0404
3316.00,0.0401
3315.00,0.0399
3314.00,0.0396
3313.00,0.0393
3312.00,0.0391
3311.00,0.0388
3310.00,0.0386
3309.00,0.0384
3308.00,0.0382
3307.00,0.0380
3306.00,0.0379
3305.00,0.0379
3304.00,0.0379
3303.00,0.0379
3302.00,0.0379
3301.00,0.0380
3300.00,0.0380
3299.00,0.0381
3298.00,0.0381
3297.00,0.0382
3296.00,0.0383
3295.00,0.0384
3294.00,0.0385
3293.00,0.0386
3292.00,0.0387
3291.00,0.0387
3290.00,0.0388
3289.00,0.0388
3288.00,0.0388
3287.00,0.0388
3286.00,0.0388
3285.00,0.0388
3284.00,0.0387
3283.00,0.0387
3282.00,0.0387
3281.00,0.0387
3280.00,0.0387
3279.00,0.0387
3278.00,0.0387
3277.00,0.0387
3276.00,0.0387
3275.00,0.0387
3274.00,0.0387
3273.00,0.0387
3272.00,0.0387
3271.00,0.0387
3270.00,0.0388
3269.00,0.0388
3268.00,0.0389
3267.00,0.0389
3266.00,0.0390
3265.00,0.0390
3264.00,0.0390
3263.00,0.0390
3262.00,0.0390
3261.00,0.0390
3260.00,0.0389
3259.00,0.0389
3258.00,0.0388
3257.00,0.0388
3256.00,0.0387
3255.00,0.0386
3254.00,0.0385
3253.00,0.0384
3252.00,0.0383
3251.00,0.0382
3250.00,0.0381
3249.00,0.0380
3248.00,0.0379
3247.00,0.0379
3246.00,0.0378
3245.00,0.0378
3244.00,0.0377
3243.00,0.0377
3242.00,0.0376
3241.00,0.0376
3240.00,0.0376
3239.00,0.0375
3238.00,0.0375
3237.00,0.0375
3236.00,0.0375
3235.00,0.0375
3234.00,0.0375
3233.00,0.0375
3232.00,0.0376
3231.00,0.0376
3230.00,0.0377
3229.00,0.0378
3228.00,0.0378
3227.00,0.0379
3226.00,0.0379
3225.00,0.0380
3224.00,0.0381
3223.00,0.0382
3222.00,0.0383
3221.00,0.0384
3220.00,0.0385
3219.00,0.0386
3218.00,0.0387
3217.00,0.0388
3216.00,0.0389
3215.00,0.0390
3214.00,0.0392
3213.00,0.0393
3212.00,0.0394
3211.00,0.0395
3210.00,0.0396
3209.00,0.0397
3208.00,0.0398
3207.00,0.0399
3206.00,0.0399
3205.00,0.0400
3204.00,0.0400
3203.00,0.0400
3202.00,0.0401
3201.00,0.0401
3200.00,0.0401
3199.00,0.0401
3198.00,0.0401
3197.00,0.0401
3196.00,0.0401
3195.00,0.0401
3194.00,0.0401
3193.00,0.0401
3192.00,0.0401
3191.00,0.0401
3190.00,0.0401
3189.00,0.0401
3188.00,0.0401
3187.00,0.0401
3186.00,0.0402
3185.00,0.0402
3184.00,0.0402
3183.00,0.0402
3182.00,0.0403
3181.00,0.0403
3180.00,0.0403
3179.00,0.0403
3178.00,0.0404
3177.00,0.0404
3176.00,0.0405
3175.00,0.0405
3174.00,0.0406
3173.00,0.0406
3172.00,0.0407
3171.00,0.0408
3170.00,0.0408
3169.00,0.0409
3168.00,0.0410
3167.00,0.0411
3166.00,0.0412
3165.00,0.0413
3164.00,0.0413
3163.00,0.0413
3162.00,0.0413
3161.00,0.0413
3160.00,0.0412
3159.00,0.0411
3158.00,0.0410
3157.00,0.0409
3156.00,0.0408
3155.00,0.0406
3154.00,0.0405
3153.00,0.0404
3152.00,0.0403
3151.00,0.0401
3150.00,0.0400
3149.00,0.0399
3148.00,0.0398
3147.00,0.0397
3146.00,0.0396
3145.00,0.0395
3144.00,0.0394
3143.00,0.0392
3142.00,0.0391
3141.00,0.0390
3140.00,0.0389
3139.00,0.0388
3138.00,0.0387
3137.00,0.0386
3136.00,0.0385
3135.00,0.0384
3134.00,0.0384
3133.00,0.0383
3132.00,0.0382
3131.00,0.0381
3130.00,0.0380
3129.00,0.0380
3128.00,0.0379
3127.00,0.0379
3126.00,0.0378
3125.00,0.0378
3124.00,0.0377
3123.00,0.0376
3122.00,0.0376
3121.00,0.0375
3120.00,0.0375
3119.00,0.0375
3118.00,0.0376
3117.00,0.0376
3116.00,0.0377
3115.00,0.0378
3114.00,0.0379
3113.00,0.0380
3112.00,0.0380
3111.00,0.0381
3110.00,0.0381
3109.00,0.0381
3108.00,0.0381
3107.00,0.0381
3106.00,0.0380
3105.00,0.0379
3104.00,0.0377
3103.00,0.0375
3102.00,0.0374
3101.00,0.0372
3100.00,0.0370
3099.00,0.0369
3098.00,0.0368
3097.00,0.0366
3096.00,0.0365
3095.00,0.0364
3094.00,0.0363
3093.00,0.0362
3092.00,0.0361
3091.00,0.0360
3090.00,0.0359
3089.00,0.0358
3088.00,0.0357
3087.00,0.0355
3086.00,0.0354
3085.00,0.0353
3084.00,0.0352
3083.00,0.0351
3082.00,0.0350
3081.00,0.0349
3080.00,0.0348
3079.00,0.0347
3078.00,0.0346
3077.00,0.0345
3076.00,0.0345
3075.00,0.0344
3074.00,0.0343
3073.00,0.0343
3072.00,0.0342
3071.00,0.0341
3070.00,0.0341
3069.00,0.0340
3068.00,0.0340
3067.00,0.0339
3066.00,0.0339
3065.00,0.0339
3064.00,0.0338
3063.00,0.0338
3062.00,0.0337
3061.00,0.0336
3060.00,0.0335
3059.00,0.0333
3058.00,0.0332
3057.00,0.0330
3056.00,0.0329
3055.00,0.0328
3054.00,0.0326
3053.00,0.0325
3052.00,0.0324
3051.00,0.0323
3050.00,0.0321
3049.00,0.0320
3048.00,0.0319
3047.00,0.0318
3046.00,0.0317
3045.00,0.0316
3044.00,0.0315
3043.00,0.0315
3042.00,0.0315
3041.00,0.0315
3040.00,0.0315
3039.00,0.0316
3038.00,0.0317
3037.00,0.0317
3036.00,0.0317
3035.00,0.0316
3034.00,0.0316
3033.00,0.0315
3032.00,0.0314
3031.00,0.0312
3030.00,0.0311
3029.00,0.0309
3028.00,0.0308
3027.00,0.0306
3026.00,0.0304
3025.00,0.0302
3024.00,0.0301
3023.00,0.0299
3022.00,0.0297
3021.00,0.0296
3020.00,0.0294
3019.00,0.0293
3018.00,0.0291
3017.00,0.0290
3016.00,0.0288
3015.00,0.0287
3014.00,0.0286
3013.00,0.0285
3012.00,0.0284
3011.00,0.0283
3010.00,0.0283
3009.00,0.0283
3008.00,0.0282
3007.00,0.0282
3006.00,0.0281
3005.00,0.0280
3004.00,0.0278
3003.00,0.0277
3002.00,0.0277
3001.00,0.0276
3000.00,0.0275
2999.00,0.0274
2998.00,0.0273
2997.00,0.0272
2996.00,0.0272
2995.00,0.0271
2994.00,0.0271
2993.00,0.0270
2992.00,0.0270
2991.00,0.0269
2990.00,0.0269
2989.00,0.0269
2988.00,0.0269
2987.00,0.0270
2986.00,0.0270
2985.00,0.0270
2984.00,0.0271
2983.00,0.0271
2982.00,0.0272
2981.00,0.0273
2980.00,0.0273
2979.00,0.0274
2978.00,0.0275
2977.00,0.0275
2976.00,0.0276
2975.00,0.0276
2974.00,0.0277
2973.00,0.0278
2972.00,0.0279
2971.00,0.0279
2970.00,0.0280
2969.00,0.0280
2968.00,0.0280
2967.00,0.0280
2966.00,0.0280
2965.00,0.0280
2964.00,0.0280
2963.00,0.0279
2962.00,0.0279
2961.00,0.0278
2960.00,0.0278
2959.00,0.0277
2958.00,0.0276
2957.00,0.0274
2956.00,0.0272
2955.00,0.0271
2954.00,0.0269
2953.00,0.0267
2952.00,0.0266
2951.00,0.0265
2950.00,0.0264
2949.00,0.0264
2948.00,0.0263
2947.00,0.0263
2946.00,0.0264
2945.00,0.0264
2944.00,0.0265
2943.00,0.0267
2942.00,0.0268
2941.00,0.0270
2940.00,0.0271
2939.00,0.0273
2938.00,0.0274
2937.00,0.0276
2936.00,0.0277
2935.00,0.0279
2934.00,0.0280
2933.00,0.0282
2932.00,0.0283
2931.00,0.0284
2930.00,0.0284
2929.00,0.0285
2928.00,0.0285
2927.00,0.0285
2926.00,0.0284
2925.00,0.0283
2924.00,0.0282
2923.00,0.0281
2922.00,0.0279
2921.00,0.0278
2920.00,0.0276
2919.00,0.0274
2918.00,0.0272
2917.00,0.0269
2916.00,0.0267
2915.00,0.0265
2914.00,0.0263
2913.00,0.0262
2912.00,0.0260
2911.00,0.0259
2910.00,0.0257
2909.00,0.0256
2908.00,0.0255
2907.00,0.0253
2906.00,0.0252
2905.00,0.0251
2904.00,0.0250
2903.00,0.0249
2902.00,0.0248
2901.00,0.0247
2900.00,0.0246
2899.00,0.0245
2898.00,0.0244
2897.00,0.0243
2896.00,0.0243
2895.00,0.0242
2894.00,0.0242
2893.00,0.0242
2892.00,0.0242
2891.00,0.0242
2890.00,0.0242
2889.00,0.0242
2888.00,0.0243
2887.00,0.0243
2886.00,0.0243
2885.00,0.0244
2884.00,0.0244
2883.00,0.0245
2882.00,0.0245
2881.00,0.0246
2880.00,0.0247
2879.00,0.0247
2878.00,0.0248
2877.00,0.0248
2876.00,0.0248
2875.00,0.0248
2874.00,0.0248
2873.00,0.0247
2872.00,0.0247
2871.00,0.0246
2870.00,0.0245
2869.00,0.0244
2868.00,0.0242
2867.00,0.0241
2866.00,0.0239
2865.00,0.0238
2864.00,0.0237
2863.00,0.0236
2862.00,0.0235
2861.00,0.0235
2860.00,0.0235
2859.00,0.0235
2858.00,0.0235
2857.00,0.0234
2856.00,0.0234
2855.00,0.0234
2854.00,0.0234
2853.00,0.0233
2852.00,0.0232
2851.00,0.0231
2850.00,0.0230
2849.00,0.0229
2848.00,0.0227
2847.00,0.0226
2846.00,0.0225
2845.00,0.0224
2844.00,0.0223
2843.00,0.0222
2842.00,0.0221
2841.00,0.0220
2840.00,0.0219
2839.00,0.0218
2838.00,0.0218
2837.00,0.0218
2836.00,0.0217
2835.00,0.0217
2834.00,0.0217
2833.00,0.0217
2832.00,0.0216
2831.00,0.0216
2830.00,0.0216
2829.00,0.0215
2828.00,0.0215
2827.00,0.0215
2826.00,0.0215
2825.00,0.0214
2824.00,0.0214
2823.00,0.0214
2822.00,0.0214
2821.00,0.0214
2820.00,0.0214
2819.00,0.0214
2818.00,0.0214
2817.00,0.0214
2816.00,0.0214
2815.00,0.0214
2814.00,0.0214
2813.00,0.0214
2812.00,0.0215
2811.00,0.0215
2810.00,0.0215
2809.00,0.0215
2808.00,0.0216
2807.00,0.0216
2806.00,0.0217
2805.00,0.0217
2804.00,0.0218
2803.00,0.0218
2802.00,0.0218
2801.00,0.0219
2800.00,0.0219
2799.00,0.0220
2798.00,0.0220
2797.00,0.0220
2796.00,0.0220
2795.00,0.0220
2794.00,0.0220
2793.00,0.0220
2792.00,0.0219
2791.00,0.0219
2790.00,0.0218
2789.00,0.0217
2788.00,0.0217
2787.00,0.0216
2786.00,0.0215
2785.00,0.0214
2784.00,0.0213
2783.00,0.0213
2782.00,0.0212
2781.00,0.0211
2780.00,0.0210
2779.00,0.0209
2778.00,0.0208
2777.00,0.0208
2776.00,0.0207
2775.00,0.0206
2774.00,0.0205
2773.00,0.0205
2772.00,0.0204
2771.00,0.0203
2770.00,0.0203
2769.00,0.0202
2768.00,0.0201
2767.00,0.0201
2766.00,0.0200
2765.00,0.0199
2764.00,0.0199
2763.00,0.0198
2762.00,0.0197
2761.00,0.0197
2760.00,0.0196
2759.00,0.0196
2758.00,0.0195
2757.00,0.0195
2756.00,0.0194
2755.00,0.0194
2754.00,0.0194
2753.00,0.0193
2752.00,0.0193
2751.00,0.0193
2750.00,0.0192
2749.00,0.0192
2748.00,0.0192
2747.00,0.0192
2746.00,0.0192
2745.00,0.0192
2744.00,0.0191
2743.00,0.0191
2742.00,0.0191
2741.00,0.0191
2740.00,0.0191
2739.00,0.0191
2738.00,0.0191
2737.00,0.0191
2736.00,0.0191
2735.00,0.0191
2734.00,0.0191
2733.00,0.0191
2732.00,0.0191
2731.00,0.0191
2730.00,0.0191
2729.00,0.0191
2728.00,0.0191
2727.00,0.0191
2726.00,0.0191
2725.00,0.0191
2724.00,0.0191
2723.00,0.0191
2722.00,0.0191
2721.00,0.0191
2720.00,0.0191
2719.00,0.0191
2718.00,0.0191
2717.00,0.0191
2716.00,0.0190
2715.00,0.0190
2714.00,0.0190
2713.00,0.0190
2712.00,0.0190
2711.00,0.0189
2710.00,0.0189
2709.00,0.0189
2708.00,0.0189
2707.00,0.0188
2706.00,0.0188
2705.00,0.0188
2704.00,0.0187
2703.00,0.0187
2702.00,0.0187
2701.00,0.0186
2700.00,0.0186
2699.00,0.0186
2698.00,0.0186
2697.00,0.0185
2696.00,0.0185
2695.00,0.0185
2694.00,0.0185
2693.00,0.0184
2692.00,0.0184
2691.00,0.0184
2690.00,0.0183
2689.00,0.0183
2688.00,0.0183
2687.00,0.0183
2686.00,0.0183
2685.00,0.0183
2684.00,0.0183
2683.00,0.0183
2682.00,0.0183
2681.00,0.0183
2680.00,0.0183
2679.00,0.0183
2678.00,0.0183
2677.00,0.0183
2676.00,0.0183
2675.00,0.0183
2674.00,0.0183
2673.00,0.0184
2672.00,0.0184
2671.00,0.0184
2670.00,0.0184
2669.00,0.0184
2668.00,0.0184
2667.00,0.0185
2666.00,0.0185
2665.00,0.0185
2664.00,0.0185
2663.00,0.0186
2662.00,0.0186
2661.00,0.0185
2660.00,0.0185
2659.00,0.0185
2658.00,0.0184
2657.00,0.0184
2656.00,0.0184
2655.00,0.0183
2654.00,0.0183
2653.00,0.0182
2652.00,0.0182
2651.00,0.0181
2650.00,0.0181
2649.00,0.0180
2648.00,0.0180
2647.00,0.0179
2646.00,0.0179
2645.00,0.0178
2644.00,0.0178
2643.00,0.0177
2642.00,0.0177
2641.00,0.0176
2640.00,0.0176
2639.00,0.0175
2638.00,0.0175
2637.00,0.0175
2636.00,0.0174
2635.00,0.0174
2634.00,0.0173
2633.00,0.0173
2632.00,0.0173
2631.00,0.0173
2630.00,0.0173
2629.00,0.0173
2628.00,0.0172
2627.00,0.0172
2626.00,0.0172
2625.00,0.0172
2624.00,0.0172
2623.00,0.0172
2622.00,0.0172
2621.00,0.0172
2620.00,0.0172
2619.00,0.0172
2618.00,0.0172
2617.00,0.0172
2616.00,0.0172
2615.00,0.0172
2614.00,0.0172
2613.00,0.0172
2612.00,0.0172
2611.00,0.0172
2610.00,0.0172
2609.00,0.0172
2608.00,0.0172
2607.00,0.0172
2606.00,0.0172
2605.00,0.0172
2604.00,0.0172
2603.00,0.0172
2602.00,0.0172
2601.00,0.0172
2600.00,0.0173
2599.00,0.0173
2598.00,0.0173
2597.00,0.0173
2596.00,0.0173
2595.00,0.0173
2594.00,0.0173
2593.00,0.0173
2592.00,0.0174
2591.00,0.0174
2590.00,0.0173
2589.00,0.0173
2588.00,0.0173
2587.00,0.0173
2586.00,0.0173
2585.00,0.0172
2584.00,0.0172
2583.00,0.0172
2582.00,0.0172
2581.00,0.0171
2580.00,0.0171
2579.00,0.0171
2578.00,0.0170
2577.00,0.0169
2576.00,0.0169
2575.00,0.0168
2574.00,0.0168
2573.00,0.0167
2572.00,0.0167
2571.00,0.0166
2570.00,0.0166
2569.00,0.0165
2568.00,0.0165
2567.00,0.0165
2566.00,0.0164
2565.00,0.0164
2564.00,0.0163
2563.00,0.0163
2562.00,0.0162
2561.00,0.0162
2560.00,0.0161
2559.00,0.0161
2558.00,0.0161
2557.00,0.0160
2556.00,0.0160
2555.00,0.0159
2554.00,0.0159
2553.00,0.0159
2552.00,0.0158
2551.00,0.0158
2550.00,0.0157
2549.00,0.0157
2548.00,0.0156
2547.00,0.0156
2546.00,0.0156
2545.00,0.0155
2544.00,0.0155
2543.00,0.0155
2542.00,0.0154
2541.00,0.0154
2540.00,0.0154
2539.00,0.0154
2538.00,0.0153
2537.00,0.0153
2536.00,0.0153
2535.00,0.0153
2534.00,0.0153
2533.00,0.0153
2532.00,0.0152
2531.00,0.0152
2530.00,0.0151
2529.00,0.0151
2528.00,0.0151
2527.00,0.0151
2526.00,0.0151
2525.00,0.0151
2524.00,0.0151
2523.00,0.0151
2522.00,0.0150
2521.00,0.0151
2520.00,0.0151
2519.00,0.0151
2518.00,0.0151
2517.00,0.0151
2516.00,0.0151
2515.00,0.0150
2514.00,0.0150
2513.00,0.0150
2512.00,0.0150
2511.00,0.0150
2510.00,0.0150
2509.00,0.0150
2508.00,0.0150
2507.00,0.0150
2506.00,0.0150
2505.00,0.0150
2504.00,0.0150
2503.00,0.0150
2502.00,0.0150
2501.00,0.0151
2500.00,0.0151
2499.00,0.0151
2498.00,0.0152
2497.00,0.0152
2496.00,0.0152
2495.00,0.0152
2494.00,0.0152
2493.00,0.0152
2492.00,0.0152
2491.00,0.0152
2490.00,0.0152
2489.00,0.0152
2488.00,0.0151
2487.00,0.0151
2486.00,0.0151
2485.00,0.0151
2484.00,0.0151
2483.00,0.0151
2482.00,0.0151
2481.00,0.0151
2480.00,0.0151
2479.00,0.0151
2478.00,0.0151
2477.00,0.0150
2476.00,0.0150
2475.00,0.0150
2474.00,0.0149
2473.00,0.0149
2472.00,0.0149
2471.00,0.0149
2470.00,0.0149
2469.00,0.0149
2468.00,0.0149
2467.00,0.0149
2466.00,0.0148
2465.00,0.0148
2464.00,0.0148
2463.00,0.0148
2462.00,0.0148
2461.00,0.0148
2460.00,0.0148
2459.00,0.0148
2458.00,0.0148
2457.00,0.0148
2456.00,0.0147
2455.00,0.0147
2454.00,0.0147
2453.00,0.0147
2452.00,0.0147
2451.00,0.0146
2450.00,0.0146
2449.00,0.0145
2448.00,0.0145
2447.00,0.0144
2446.00,0.0144
2445.00,0.0144
2444.00,0.0143
2443.00,0.0143
2442.00,0.0142
2441.00,0.0142
2440.00,0.0141
2439.00,0.0141
2438.00,0.0141
2437.00,0.0140
2436.00,0.0140
2435.00,0.0140
2434.00,0.0140
2433.00,0.0140
2432.00,0.0139
2431.00,0.0139
2430.00,0.0138
2429.00,0.0138
2428.00,0.0138
2427.00,0.0138
2426.00,0.0137
2425.00,0.0137
2424.00,0.0137
2423.00,0.0137
2422.00,0.0137
2421.00,0.0137
2420.00,0.0137
2419.00,0.0137
2418.00,0.0137
2417.00,0.0137
2416.00,0.0137
2415.00,0.0137
2414.00,0.0137
2413.00,0.0137
2412.00,0.0137
2411.00,0.0136
2410.00,0.0136
2409.00,0.0135
2408.00,0.0135
2407.00,0.0134
2406.00,0.0134
2405.00,0.0133
2404.00,0.0133
2403.00,0.0133
2402.00,0.0133
2401.00,0.0133
2400.00,0.0133
2399.00,0.0133
2398.00,0.0133
2397.00,0.0133
2396.00,0.0132
2395.00,0.0132
2394.00,0.0132
2393.00,0.0132
2392.00,0.0132
2391.00,0.0131
2390.00,0.0131
2389.00,0.0131
2388.00,0.0131
2387.00,0.0130
2386.00,0.0130
2385.00,0.0129
2384.00,0.0129
2383.00,0.0128
2382.00,0.0128
2381.00,0.0127
2380.00,0.0127
2379.00,0.0127
2378.00,0.0127
2377.00,0.0127
2376.00,0.0127
2375.00,0.0127
2374.00,0.0127
2373.00,0.0127
2372.00,0.0127
2371.00,0.0126
2370.00,0.0126
2369.00,0.0126
2368.00,0.0126
2367.00,0.0126
2366.00,0.0126
2365.00,0.0126
2364.00,0.0126
2363.00,0.0126
2362.00,0.0126
2361.00,0.0126
2360.00,0.0126
2359.00,0.0126
2358.00,0.0127
2357.00,0.0127
2356.00,0.0127
2355.00,0.0127
2354.00,0.0127
2353.00,0.0127
2352.00,0.0127
2351.00,0.0126
2350.00,0.0127
2349.00,0.0127
2348.00,0.0128
2347.00,0.0128
2346.00,0.0128
2345.00,0.0128
2344.00,0.0128
2343.00,0.0128
2342.00,0.0129
2341.00,0.0129
2340.00,0.0129
2339.00,0.0130
2338.00,0.0130
2337.00,0.0130
2336.00,0.0130
2335.00,0.0130
2334.00,0.0129
2333.00,0.0129
2332.00,0.0129
2331.00,0.0129
2330.00,0.0129
2329.00,0.0131
2328.00,0.0134
2327.00,0.0137
2326.00,0.0140
2325.00,0.0141
2324.00,0.0141
2323.00,0.0139
2322.00,0.0137
2321.00,0.0135
2320.00,0.0134
2319.00,0.0134
2318.00,0.0134
2317.00,0.0133
2316.00,0.0133
2315.00,0.0133
2314.00,0.0132
2313.00,0.0132
2312.00,0.0131
2311.00,0.0131
2310.00,0.0130
2309.00,0.0130
2308.00,0.0130
2307.00,0.0130
2306.00,0.0131
2305.00,0.0131
2304.00,0.0131
2303.00,0.0131
2302.00,0.0132
2301.00,0.0132
2300.00,0.0132
2299.00,0.0132
2298.00,0.0133
2297.00,0.0133
2296.00,0.0134
2295.00,0.0134
2294.00,0.0135
2293.00,0.0136
2292.00,0.0136
2291.00,0.0137
2290.00,0.0137
2289.00,0.0138
2288.00,0.0138
2287.00,0.0138
2286.00,0.0138
2285.00,0.0137
2284.00,0.0136
2283.00,0.0136
2282.00,0.0135
2281.00,0.0134
2280.00,0.0134
2279.00,0.0133
2278.00,0.0133
2277.00,0.0132
2276.00,0.0132
2275.00,0.0131
2274.00,0.0131
2273.00,0.0131
2272.00,0.0130
2271.00,0.0130
2270.00,0.0130
2269.00,0.0130
2268.00,0.0129
2267.00,0.0129
2266.00,0.0128
2265.00,0.0128
2264.00,0.0128
2263.00,0.0128
2262.00,0.0128
2261.00,0.0128
2260.00,0.0128
2259.00,0.0128
2258.00,0.0127
2257.00,0.0126
2256.00,0.0126
2255.00,0.0125
2254.00,0.0125
2253.00,0.0125
2252.00,0.0126
2251.00,0.0126
2250.00,0.0127
2249.00,0.0127
2248.00,0.0126
2247.00,0.0126
2246.00,0.0126
2245.00,0.0126
2244.00,0.0126
2243.00,0.0126
2242.00,0.0126
2241.00,0.0126
2240.00,0.0126
2239.00,0.0126
2238.00,0.0126
2237.00,0.0126
2236.00,0.0126
2235.00,0.0126
2234.00,0.0125
2233.00,0.0125
2232.00,0.0125
2231.00,0.0124
2230.00,0.0124
2229.00,0.0124
2228.00,0.0124
2227.00,0.0124
2226.00,0.0124
2225.00,0.0124
2224.00,0.0124
2223.00,0.0124
2222.00,0.0123
2221.00,0.0123
2220.00,0.0123
2219.00,0.0123
2218.00,0.0123
2217.00,0.0123
2216.00,0.0123
2215.00,0.0122
2214.00,0.0122
2213.00,0.0122
2212.00,0.0122
2211.00,0.0122
2210.00,0.0122
2209.00,0.0122
2208.00,0.0122
2207.00,0.0122
2206.00,0.0123
2205.00,0.0123
2204.00,0.0124
2203.00,0.0124
2202.00,0.0124
2201.00,0.0124
2200.00,0.0124
2199.00,0.0124
2198.00,0.0124
2197.00,0.0124
2196.00,0.0124
2195.00,0.0124
2194.00,0.0124
2193.00,0.0124
2192.00,0.0125
2191.00,0.0125
2190.00,0.0125
2189.00,0.0125
2188.00,0.0125
2187.00,0.0124
2186.00,0.0124
2185.00,0.0122
2184.00,0.0121
2183.00,0.0119
2182.00,0.0117
2181.00,0.0117
2180.00,0.0117
2179.00,0.0118
2178.00,0.0117
2177.00,0.0115
2176.00,0.0114
2175.00,0.0114
2174.00,0.0115
2173.00,0.0118
2172.00,0.0121
2171.00,0.0124
2170.00,0.0126
2169.00,0.0127
2168.00,0.0127
2167.00,0.0127
2166.00,0.0127
2165.00,0.0128
2164.00,0.0130
2163.00,0.0129
2162.00,0.0124
2161.00,0.0114
2160.00,0.0102
2159.00,0.0091
2158.00,0.0087
2157.00,0.0087
2156.00,0.0090
2155.00,0.0094
2154.00,0.0097
2153.00,0.0099
2152.00,0.0101
2151.00,0.0102
2150.00,0.0102
2149.00,0.0101
2148.00,0.0102
2147.00,0.0102
2146.00,0.0102
2145.00,0.0103
2144.00,0.0103
2143.00,0.0103
2142.00,0.0103
2141.00,0.0104
2140.00,0.0104
2139.00,0.0103
2138.00,0.0103
2137.00,0.0101
2136.00,0.0100
2135.00,0.0098
2134.00,0.0098
2133.00,0.0099
2132.00,0.0101
2131.00,0.0102
2130.00,0.0104
2129.00,0.0106
2128.00,0.0107
2127.00,0.0109
2126.00,0.0109
2125.00,0.0110
2124.00,0.0111
2123.00,0.0112
2122.00,0.0112
2121.00,0.0113
2120.00,0.0113
2119.00,0.0114
2118.00,0.0115
2117.00,0.0117
2116.00,0.0118
2115.00,0.0118
2114.00,0.0118
2113.00,0.0118
2112.00,0.0118
2111.00,0.0117
2110.00,0.0117
2109.00,0.0117
2108.00,0.0117
2107.00,0.0117
2106.00,0.0117
2105.00,0.0116
2104.00,0.0116
2103.00,0.0116
2102.00,0.0116
2101.00,0.0115
2100.00,0.0115
2099.00,0.0115
2098.00,0.0114
2097.00,0.0112
2096.00,0.0111
2095.00,0.0110
2094.00,0.0111
2093.00,0.0112
2092.00,0.0113
2091.00,0.0114
2090.00,0.0115
2089.00,0.0115
2088.00,0.0115
2087.00,0.0115
2086.00,0.0116
2085.00,0.0116
2084.00,0.0117
2083.00,0.0117
2082.00,0.0117
2081.00,0.0117
2080.00,0.0118
2079.00,0.0117
2078.00,0.0117
2077.00,0.0116
2076.00,0.0116
2075.00,0.0116
2074.00,0.0116
2073.00,0.0116
2072.00,0.0115
2071.00,0.0115
2070.00,0.0114
2069.00,0.0114
2068.00,0.0114
2067.00,0.0113
2066.00,0.0113
2065.00,0.0113
2064.00,0.0113
2063.00,0.0113
2062.00,0.0113
2061.00,0.0113
2060.00,0.0113
2059.00,0.0113
2058.00,0.0114
2057.00,0.0114
2056.00,0.0113
2055.00,0.0114
2054.00,0.0115
2053.00,0.0119
2052.00,0.0122
2051.00,0.0123
2050.00,0.0121
2049.00,0.0118
2048.00,0.0116
2047.00,0.0114
2046.00,0.0112
2045.00,0.0112
2044.00,0.0112
2043.00,0.0112
2042.00,0.0112
2041.00,0.0112
2040.00,0.0112
2039.00,0.0112
2038.00,0.0112
2037.00,0.0111
2036.00,0.0110
2035.00,0.0108
2034.00,0.0106
2033.00,0.0105
2032.00,0.0104
2031.00,0.0104
2030.00,0.0103
2029.00,0.0103
2028.00,0.0103
2027.00,0.0103
2026.00,0.0103
2025.00,0.0103
2024.00,0.0102
2023.00,0.0101
2022.00,0.0101
2021.00,0.0101
2020.00,0.0101
2019.00,0.0102
2018.00,0.0102
2017.00,0.0101
2016.00,0.0101
2015.00,0.0100
2014.00,0.0099
2013.00,0.0099
2012.00,0.0100
2011.00,0.0100
2010.00,0.0100
2009.00,0.0098
2008.00,0.0096
2007.00,0.0094
2006.00,0.0094
2005.00,0.0095
2004.00,0.0097
2003.00,0.0099
2002.00,0.0100
2001.00,0.0101
2000.00,0.0101
1999.00,0.0102
1998.00,0.0102
1997.00,0.0102
1996.00,0.0103
1995.00,0.0104
1994.00,0.0104
1993.00,0.0104
1992.00,0.0105
1991.00,0.0105
1990.00,0.0105
1989.00,0.0106
1988.00,0.0107
1987.00,0.0108
1986.00,0.0109
1985.00,0.0110
1984.00,0.0111
1983.00,0.0113
1982.00,0.0115
1981.00,0.0115
1980.00,0.0113
1979.00,0.0109
1978.00,0.0104
1977.00,0.0099
1976.00,0.0097
1975.00,0.0096
1974.00,0.0095
1973.00,0.0095
1972.00,0.0095
1971.00,0.0095
1970.00,0.0094
1969.00,0.0095
1968.00,0.0095
1967.00,0.0095
1966.00,0.0094
1965.00,0.0094
1964.00,0.0094
1963.00,0.0093
1962.00,0.0092
1961.00,0.0091
1960.00,0.0090
1959.00,0.0090
1958.00,0.0091
1957.00,0.0093
1956.00,0.0094
1955.00,0.0095
1954.00,0.0095
1953.00,0.0095
1952.00,0.0095
1951.00,0.0095
1950.00,0.0095
1949.00,0.0095
1948.00,0.0095
1947.00,0.0094
1946.00,0.0094
1945.00,0.0093
1944.00,0.0094
1943.00,0.0093
1942.00,0.0093
1941.00,0.0093
1940.00,0.0093
1939.00,0.0094
1938.00,0.0094
1937.00,0.0094
1936.00,0.0094
1935.00,0.0094
1934.00,0.0094
1933.00,0.0093
1932.00,0.0093
1931.00,0.0093
1930.00,0.0094
1929.00,0.0094
1928.00,0.0095
1927.00,0.0095
1926.00,0.0095
1925.00,0.0095
1924.00,0.0096
1923.00,0.0096
1922.00,0.0096
1921.00,0.0096
1920.00,0.0096
1919.00,0.0096
1918.00,0.0096
1917.00,0.0096
1916.00,0.0096
1915.00,0.0097
1914.00,0.0097
1913.00,0.0097
1912.00,0.0098
1911.00,0.0098
1910.00,0.0099
1909.00,0.0099
1908.00,0.0100
1907.00,0.0100
1906.00,0.0101
1905.00,0.0101
1904.00,0.0102
1903.00,0.0102
1902.00,0.0102
1901.00,0.0102
1900.00,0.0101
1899.00,0.0100
1898.00,0.0099
1897.00,0.0099
1896.00,0.0099
1895.00,0.0099
1894.00,0.0098
1893.00,0.0097
1892.00,0.0097
1891.00,0.0097
1890.00,0.0097
1889.00,0.0097
1888.00,0.0097
1887.00,0.0097
1886.00,0.0098
1885.00,0.0098
1884.00,0.0099
1883.00,0.0100
1882.00,0.0100
1881.00,0.0101
1880.00,0.0101
1879.00,0.0102
1878.00,0.0103
1877.00,0.0103
1876.00,0.0103
1875.00,0.0102
1874.00,0.0101
1873.00,0.0100
1872.00,0.0099
1871.00,0.0097
1870.00,0.0097
1869.00,0.0096
1868.00,0.0096
1867.00,0.0096
1866.00,0.0096
1865.00,0.0096
1864.00,0.0096
1863.00,0.0096
1862.00,0.0096
1861.00,0.0095
1860.00,0.0095
1859.00,0.0095
1858.00,0.0095
1857.00,0.0095
1856.00,0.0096
1855.00,0.0096
1854.00,0.0097
1853.00,0.0098
1852.00,0.0098
1851.00,0.0099
1850.00,0.0098
1849.00,0.0098
1848.00,0.0097
1847.00,0.0095
1846.00,0.0093
1845.00,0.0092
1844.00,0.0092
1843.00,0.0092
1842.00,0.0092
1841.00,0.0093
1840.00,0.0093
1839.00,0.0093
1838.00,0.0093
1837.00,0.0093
1836.00,0.0093
1835.00,0.0093
1834.00,0.0092
1833.00,0.0092
1832.00,0.0091
1831.00,0.0090
1830.00,0.0090
1829.00,0.0090
1828.00,0.0091
1827.00,0.0091
1826.00,0.0092
1825.00,0.0093
1824.00,0.0093
1823.00,0.0093
1822.00,0.0093
1821.00,0.0092
1820.00,0.0091
1819.00,0.0090
1818.00,0.0089
1817.00,0.0089
1816.00,0.0089
1815.00,0.0089
1814.00,0.0089
1813.00,0.0089
1812.00,0.0090
1811.00,0.0090
1810.00,0.0090
1809.00,0.0090
1808.00,0.0090
1807.00,0.0090
1806.00,0.0090
1805.00,0.0089
1804.00,0.0090
1803.00,0.0090
1802.00,0.0089
1801.00,0.0089
1800.00,0.0088
1799.00,0.0088
1798.00,0.0088
1797.00,0.0088
1796.00,0.0088
1795.00,0.0087
1794.00,0.0087
1793.00,0.0087
1792.00,0.0087
1791.00,0.0088
1790.00,0.0089
1789.00,0.0089
1788.00,0.0089
1787.00,0.0090
1786.00,0.0090
1785.00,0.0090
1784.00,0.0089
1783.00,0.0089
1782.00,0.0088
1781.00,0.0088
1780.00,0.0088
1779.00,0.0087
1778.00,0.0087
1777.00,0.0086
1776.00,0.0085
1775.00,0.0083
1774.00,0.0081
1773.00,0.0080
1772.00,0.0081
1771.00,0.0082
1770.00,0.0084
1769.00,0.0086
1768.00,0.0087
1767.00,0.0087
1766.00,0.0087
1765.00,0.0086
1764.00,0.0087
1763.00,0.0087
1762.00,0.0087
1761.00,0.0087
1760.00,0.0087
1759.00,0.0087
1758.00,0.0087
1757.00,0.0087
1756.00,0.0087
1755.00,0.0086
1754.00,0.0086
1753.00,0.0086
1752.00,0.0085
1751.00,0.0084
1750.00,0.0083
1749.00,0.0083
1748.00,0.0083
1747.00,0.0083
1746.00,0.0084
1745.00,0.0084
1744.00,0.0084
1743.00,0.0083
1742.00,0.0081
1741.00,0.0080
1740.00,0.0081
1739.00,0.0081
1738.00,0.0080
1737.00,0.0080
1736.00,0.0080
1735.00,0.0080
1734.00,0.0081
1733.00,0.0082
1732.00,0.0084
1731.00,0.0087
1730.00,0.0089
1729.00,0.0090
1728.00,0.0091
1727.00,0.0092
1726.00,0.0093
1725.00,0.0094
1724.00,0.0096
1723.00,0.0097
1722.00,0.0097
1721.00,0.0096
1720.00,0.0096
1719.00,0.0097
1718.00,0.0099
1717.00,0.0101
1716.00,0.0104
1715.00,0.0107
1714.00,0.0109
1713.00,0.0112
1712.00,0.0115
1711.00,0.0117
1710.00,0.0119
1709.00,0.0120
1708.00,0.0122
1707.00,0.0124
1706.00,0.0126
1705.00,0.0129
1704.00,0.0131
1703.00,0.0133
1702.00,0.0136
1701.00,0.0139
1700.00,0.0145
1699.00,0.0151
1698.00,0.0157
1697.00,0.0163
1696.00,0.0169
1695.00,0.0173
1694.00,0.0176
1693.00,0.0178
1692.00,0.0181
1691.00,0.0183
1690.00,0.0183
1689.00,0.0184
1688.00,0.0183
1687.00,0.0183
1686.00,0.0183
1685.00,0.0184
1684.00,0.0186
1683.00,0.0190
1682.00,0.0197
1681.00,0.0205
1680.00,0.0213
1679.00,0.0220
1678.00,0.0226
1677.00,0.0233
1676.00,0.0243
1675.00,0.0253
1674.00,0.0265
1673.00,0.0277
1672.00,0.0290
1671.00,0.0305
1670.00,0.0323
1669.00,0.0344
1668.00,0.0369
1667.00,0.0394
1666.00,0.0420
1665.00,0.0448
1664.00,0.0483
1663.00,0.0522
1662.00,0.0565
1661.00,0.0608
1660.00,0.0650
1659.00,0.0690
1658.00,0.0727
1657.00,0.0761
1656.00,0.0792
1655.00,0.0822
1654.00,0.0854
1653.00,0.0888
1652.00,0.0916
1651.00,0.0932
1650.00,0.0942
1649.00,0.0945
1648.00,0.0943
1647.00,0.0934
1646.00,0.0923
1645.00,0.0914
1644.00,0.0910
1643.00,0.0907
1642.00,0.0904
1641.00,0.0900
1640.00,0.0897
1639.00,0.0893
1638.00,0.0889
1637.00,0.0884
1636.00,0.0878
1635.00,0.0872
1634.00,0.0869
1633.00,0.0869
1632.00,0.0869
1631.00,0.0868
1630.00,0.0865
1629.00,0.0864
1628.00,0.0864
1627.00,0.0865
1626.00,0.0867
1625.00,0.0869
1624.00,0.0868
1623.00,0.0864
1622.00,0.0859
1621.00,0.0855
1620.00,0.0851
1619.00,0.0850
1618.00,0.0851
1617.00,0.0858
1616.00,0.0874
1615.00,0.0894
1614.00,0.0916
1613.00,0.0938
1612.00,0.0957
1611.00,0.0969
1610.00,0.0970
1609.00,0.0960
1608.00,0.0939
1607.00,0.0910
1606.00,0.0875
1605.00,0.0839
1604.00,0.0803
1603.00,0.0770
1602.00,0.0739
1601.00,0.0711
1600.00,0.0686
1599.00,0.0663
1598.00,0.0642
1597.00,0.0623
1596.00,0.0605
1595.00,0.0589
1594.00,0.0575
1593.00,0.0564
1592.00,0.0554
1591.00,0.0545
1590.00,0.0538
1589.00,0.0533
1588.00,0.0528
1587.00,0.0524
1586.00,0.0520
1585.00,0.0518
1584.00,0.0516
1583.00,0.0514
1582.00,0.0514
1581.00,0.0515
1580.00,0.0516
1579.00,0.0519
1578.00,0.0525
1577.00,0.0536
1576.00,0.0554
1575.00,0.0577
1574.00,0.0601
1573.00,0.0626
1572.00,0.0653
1571.00,0.0685
1570.00,0.0724
1569.00,0.0767
1568.00,0.0807
1567.00,0.0842
1566.00,0.0872
1565.00,0.0898
1564.00,0.0919
1563.00,0.0932
1562.00,0.0938
1561.00,0.0936
1560.00,0.0925
1559.00,0.0906
1558.00,0.0887
1557.00,0.0877
1556.00,0.0871
1555.00,0.0864
1554.00,0.0854
1553.00,0.0845
1552.00,0.0837
1551.00,0.0830
1550.00,0.0823
1549.00,0.0815
1548.00,0.0809
1547.00,0.0803
1546.00,0.0798
1545.00,0.0791
1544.00,0.0784
1543.00,0.0776
1542.00,0.0768
1541.00,0.0761
1540.00,0.0757
1539.00,0.0754
1538.00,0.0754
1537.00,0.0754
1536.00,0.0754
1535.00,0.0752
1534.00,0.0749
1533.00,0.0745
1532.00,0.0743
1531.00,0.0741
1530.00,0.0739
1529.00,0.0737
1528.00,0.0734
1527.00,0.0732
1526.00,0.0729
1525.00,0.0728
1524.00,0.0729
1523.00,0.0734
1522.00,0.0748
1521.00,0.0771
1520.00,0.0802
1519.00,0.0838
1518.00,0.0880
1517.00,0.0924
1516.00,0.0959
1515.00,0.0980
1514.00,0.0987
1513.00,0.0987
1512.00,0.0987
1511.00,0.0993
1510.00,0.1008
1509.00,0.1031
1508.00,0.1060
1507.00,0.1087
1506.00,0.1100
1505.00,0.1093
1504.00,0.1074
1503.00,0.1047
1502.00,0.1015
1501.00,0.0979
1500.00,0.0940
1499.00,0.0900
1498.00,0.0860
1497.00,0.0821
1496.00,0.0784
1495.00,0.0753
1494.00,0.0726
1493.00,0.0704
1492.00,0.0682
1491.00,0.0660
1490.00,0.0638
1489.00,0.0617
1488.00,0.0601
1487.00,0.0587
1486.00,0.0574
1485.00,0.0563
1484.00,0.0553
1483.00,0.0543
1482.00,0.0534
1481.00,0.0525
1480.00,0.0518
1479.00,0.0512
1478.00,0.0507
1477.00,0.0502
1476.00,0.0498
1475.00,0.0495
1474.00,0.0493
1473.00,0.0491
1472.00,0.0491
1471.00,0.0492
1470.00,0.0492
1469.00,0.0492
1468.00,0.0491
1467.00,0.0489
1466.00,0.0485
1465.00,0.0482
1464.00,0.0481
1463.00,0.0482
1462.00,0.0484
1461.00,0.0487
1460.00,0.0492
1459.00,0.0499
1458.00,0.0510
1457.00,0.0528
1456.00,0.0547
1455.00,0.0566
1454.00,0.0584
1453.00,0.0604
1452.00,0.0625
1451.00,0.0648
1450.00,0.0673
1449.00,0.0700
1448.00,0.0729
1447.00,0.0757
1446.00,0.0782
1445.00,0.0803
1444.00,0.0822
1443.00,0.0836
1442.00,0.0846
1441.00,0.0853
1440.00,0.0856
1439.00,0.0857
1438.00,0.0854
1437.00,0.0849
1436.00,0.0843
1435.00,0.0835
1434.00,0.0828
1433.00,0.0821
1432.00,0.0810
1431.00,0.0796
1430.00,0.0779
1429.00,0.0761
1428.00,0.0744
1427.00,0.0726
1426.00,0.0709
1425.00,0.0692
1424.00,0.0675
1423.00,0.0660
1422.00,0.0647
1421.00,0.0636
1420.00,0.0626
1419.00,0.0618
1418.00,0.0611
1417.00,0.0606
1416.00,0.0602
1415.00,0.0599
1414.00,0.0595
1413.00,0.0592
1412.00,0.0589
1411.00,0.0587
1410.00,0.0585
1409.00,0.0584
1408.00,0.0583
1407.00,0.0583
1406.00,0.0584
1405.00,0.0585
1404.00,0.0586
1403.00,0.0586
1402.00,0.0587
1401.00,0.0587
1400.00,0.0586
1399.00,0.0585
1398.00,0.0584
1397.00,0.0582
1396.00,0.0579
1395.00,0.0576
1394.00,0.0573
1393.00,0.0571
1392.00,0.0569
1391.00,0.0568
1390.00,0.0567
1389.00,0.0568
1388.00,0.0569
1387.00,0.0571
1386.00,0.0573
1385.00,0.0577
1384.00,0.0581
1383.00,0.0587
1382.00,0.0595
1381.00,0.0605
1380.00,0.0617
1379.00,0.0628
1378.00,0.0639
1377.00,0.0648
1376.00,0.0656
1375.00,0.0662
1374.00,0.0666
1373.00,0.0669
1372.00,0.0671
1371.00,0.0671
1370.00,0.0670
1369.00,0.0667
1368.00,0.0661
1367.00,0.0653
1366.00,0.0643
1365.00,0.0633
1364.00,0.0622
1363.00,0.0611
1362.00,0.0599
1361.00,0.0588
1360.00,0.0577
1359.00,0.0565
1358.00,0.0553
1357.00,0.0540
1356.00,0.0528
1355.00,0.0517
1354.00,0.0507
1353.00,0.0498
1352.00,0.0490
1351.00,0.0483
1350.00,0.0477
1349.00,0.0471
1348.00,0.0466
1347.00,0.0461
1346.00,0.0457
1345.00,0.0453
1344.00,0.0450
1343.00,0.0448
1342.00,0.0447
1341.00,0.0446
1340.00,0.0446
1339.00,0.0448
1338.00,0.0450
1337.00,0.0454
1336.00,0.0461
1335.00,0.0471
1334.00,0.0485
1333.00,0.0504
1332.00,0.0527
1331.00,0.0553
1330.00,0.0578
1329.00,0.0597
1328.00,0.0608
1327.00,0.0609
1326.00,0.0602
1325.00,0.0589
1324.00,0.0574
1323.00,0.0559
1322.00,0.0546
1321.00,0.0534
1320.00,0.0524
1319.00,0.0513
1318.00,0.0503
1317.00,0.0494
1316.00,0.0485
1315.00,0.0478
1314.00,0.0472
1313.00,0.0466
1312.00,0.0461
1311.00,0.0457
1310.00,0.0454
1309.00,0.0452
1308.00,0.0450
1307.00,0.0449
1306.00,0.0449
1305.00,0.0449
1304.00,0.0449
1303.00,0.0449
1302.00,0.0448
1301.00,0.0444
1300.00,0.0439
1299.00,0.0431
1298.00,0.0422
1297.00,0.0412
1296.00,0.0401
1295.00,0.0391
1294.00,0.0381
1293.00,0.0372
1292.00,0.0364
1291.00,0.0358
1290.00,0.0353
1289.00,0.0351
1288.00,0.0351
1287.00,0.0352
1286.00,0.0356
1285.00,0.0361
1284.00,0.0367
1283.00,0.0374
1282.00,0.0379
1281.00,0.0381
1280.00,0.0380
1279.00,0.0377
1278.00,0.0372
1277.00,0.0367
1276.00,0.0363
1275.00,0.0360
1274.00,0.0359
1273.00,0.0359
1272.00,0.0360
1271.00,0.0364
1270.00,0.0369
1269.00,0.0378
1268.00,0.0393
1267.00,0.0415
1266.00,0.0447
1265.00,0.0492
1264.00,0.0549
1263.00,0.0615
1262.00,0.0681
1261.00,0.0738
1260.00,0.0777
1259.00,0.0796
1258.00,0.0795
1257.00,0.0781
1256.00,0.0761
1255.00,0.0740
1254.00,0.0723
1253.00,0.0710
1252.00,0.0703
1251.00,0.0700
1250.00,0.0702
1249.00,0.0710
1248.00,0.0722
1247.00,0.0740
1246.00,0.0762
1245.00,0.0784
1244.00,0.0802
1243.00,0.0814
1242.00,0.0819
1241.00,0.0820
1240.00,0.0818
1239.00,0.0814
1238.00,0.0810
1237.00,0.0805
1236.00,0.0802
1235.00,0.0802
1234.00,0.0809
1233.00,0.0823
1232.00,0.0843
1231.00,0.0868
1230.00,0.0893
1229.00,0.0918
1228.00,0.0938
1227.00,0.0953
1226.00,0.0958
1225.00,0.0954
1224.00,0.0941
1223.00,0.0921
1222.00,0.0896
1221.00,0.0870
1220.00,0.0845
1219.00,0.0823
1218.00,0.0803
1217.00,0.0785
1216.00,0.0768
1215.00,0.0751
1214.00,0.0733
1213.00,0.0715
1212.00,0.0697
1211.00,0.0680
1210.00,0.0662
1209.00,0.0646
1208.00,0.0630
1207.00,0.0614
1206.00,0.0600
1205.00,0.0586
1204.00,0.0574
1203.00,0.0562
1202.00,0.0552
1201.00,0.0543
1200.00,0.0535
1199.00,0.0528
1198.00,0.0521
1197.00,0.0515
1196.00,0.0509
1195.00,0.0504
1194.00,0.0498
1193.00,0.0492
1192.00,0.0486
1191.00,0.0480
1190.00,0.0474
1189.00,0.0467
1188.00,0.0461
1187.00,0.0455
1186.00,0.0450
1185.00,0.0445
1184.00,0.0440
1183.00,0.0436
1182.00,0.0433
1181.00,0.0430
1180.00,0.0428
1179.00,0.0427
1178.00,0.0429
1177.00,0.0434
1176.00,0.0448
1175.00,0.0473
1174.00,0.0505
1173.00,0.0533
1172.00,0.0547
1171.00,0.0542
1170.00,0.0524
1169.00,0.0502
1168.00,0.0485
1167.00,0.0474
1166.00,0.0468
1165.00,0.0464
1164.00,0.0463
1163.00,0.0463
1162.00,0.0464
1161.00,0.0466
1160.00,0.0469
1159.00,0.0473
1158.00,0.0476
1157.00,0.0480
1156.00,0.0482
1155.00,0.0484
1154.00,0.0483
1153.00,0.0481
1152.00,0.0476
1151.00,0.0471
1150.00,0.0465
1149.00,0.0459
1148.00,0.0454
1147.00,0.0449
1146.00,0.0445
1145.00,0.0441
1144.00,0.0437
1143.00,0.0433
1142.00,0.0430
1141.00,0.0427
1140.00,0.0425
1139.00,0.0423
1138.00,0.0421
1137.00,0.0420
1136.00,0.0421
1135.00,0.0422
1134.00,0.0424
1133.00,0.0427
1132.00,0.0432
1131.00,0.0437
1130.00,0.0442
1129.00,0.0447
1128.00,0.0452
1127.00,0.0455
1126.00,0.0458
1125.00,0.0460
1124.00,0.0461
1123.00,0.0461
1122.00,0.0459
1121.00,0.0457
1120.00,0.0455
1119.00,0.0454
1118.00,0.0454
1117.00,0.0455
1116.00,0.0458
1115.00,0.0463
1114.00,0.0471
1113.00,0.0482
1112.00,0.0498
1111.00,0.0516
1110.00,0.0535
1109.00,0.0551
1108.00,0.0560
1107.00,0.0561
1106.00,0.0555
1105.00,0.0545
1104.00,0.0534
1103.00,0.0525
1102.00,0.0519
1101.00,0.0514
1100.00,0.0511
1099.00,0.0509
1098.00,0.0507
1097.00,0.0505
1096.00,0.0504
1095.00,0.0503
1094.00,0.0503
1093.00,0.0504
1092.00,0.0505
1091.00,0.0508
1090.00,0.0510
1089.00,0.0513
1088.00,0.0517
1087.00,0.0520
1086.00,0.0524
1085.00,0.0527
1084.00,0.0530
1083.00,0.0533
1082.00,0.0534
1081.00,0.0535
1080.00,0.0535
1079.00,0.0534
1078.00,0.0533
1077.00,0.0531
1076.00,0.0528
1075.00,0.0526
1074.00,0.0523
1073.00,0.0521
1072.00,0.0519
1071.00,0.0517
1070.00,0.0516
1069.00,0.0516
1068.00,0.0516
1067.00,0.0517
1066.00,0.0519
1065.00,0.0520
1064.00,0.0523
1063.00,0.0526
1062.00,0.0530
1061.00,0.0534
1060.00,0.0539
1059.00,0.0544
1058.00,0.0550
1057.00,0.0555
1056.00,0.0560
1055.00,0.0564
1054.00,0.0567
1053.00,0.0569
1052.00,0.0571
1051.00,0.0571
1050.00,0.0571
1049.00,0.0570
1048.00,0.0569
1047.00,0.0568
1046.00,0.0565
1045.00,0.0563
1044.00,0.0561
1043.00,0.0559
1042.00,0.0557
1041.00,0.0556
1040.00,0.0557
1039.00,0.0558
1038.00,0.0561
1037.00,0.0565
1036.00,0.0571
1035.00,0.0578
1034.00,0.0585
1033.00,0.0590
1032.00,0.0592
1031.00,0.0593
1030.00,0.0594
1029.00,0.0596
1028.00,0.0597
1027.00,0.0598
1026.00,0.0598
1025.00,0.0598
1024.00,0.0597
1023.00,0.0596
1022.00,0.0597
1021.00,0.0598
1020.00,0.0601
1019.00,0.0604
1018.00,0.0606
1017.00,0.0607
1016.00,0.0606
1015.00,0.0603
1014.00,0.0597
1013.00,0.0588
1012.00,0.0578
1011.00,0.0568
1010.00,0.0559
1009.00,0.0551
1008.00,0.0546
1007.00,0.0540
1006.00,0.0533
1005.00,0.0527
1004.00,0.0520
1003.00,0.0513
1002.00,0.0505
1001.00,0.0498
1000.00,0.0491
999.00,0.0485
998.00,0.0478
997.00,0.0472
996.00,0.0465
995.00,0.0459
994.00,0.0452
993.00,0.0445
992.00,0.0439
991.00,0.0432
990.00,0.0425
989.00,0.0418
988.00,0.0411
987.00,0.0405
986.00,0.0400
985.00,0.0395
984.00,0.0390
983.00,0.0387
982.00,0.0384
981.00,0.0381
980.00,0.0380
979.00,0.0380
978.00,0.0381
977.00,0.0383
976.00,0.0387
975.00,0.0394
974.00,0.0406
973.00,0.0422
972.00,0.0443
971.00,0.0466
970.00,0.0485
969.00,0.0496
968.00,0.0497
967.00,0.0490
966.00,0.0476
965.00,0.0460
964.00,0.0444
963.00,0.0431
962.00,0.0419
961.00,0.0410
960.00,0.0402
959.00,0.0395
958.00,0.0389
957.00,0.0384
956.00,0.0381
955.00,0.0378
954.00,0.0374
953.00,0.0370
952.00,0.0366
951.00,0.0361
950.00,0.0358
949.00,0.0355
948.00,0.0353
947.00,0.0351
946.00,0.0349
945.00,0.0348
944.00,0.0348
943.00,0.0347
942.00,0.0348
941.00,0.0348
940.00,0.0349
939.00,0.0349
938.00,0.0350
937.00,0.0350
936.00,0.0351
935.00,0.0351
934.00,0.0351
933.00,0.0351
932.00,0.0351
931.00,0.0351
930.00,0.0351
929.00,0.0352
928.00,0.0353
927.00,0.0354
926.00,0.0355
925.00,0.0356
924.00,0.0355
923.00,0.0354
922.00,0.0351
921.00,0.0348
920.00,0.0346
919.00,0.0343
918.00,0.0340
917.00,0.0338
916.00,0.0335
915.00,0.0333
914.00,0.0331
913.00,0.0329
912.00,0.0327
911.00,0.0325
910.00,0.0324
909.00,0.0322
908.00,0.0321
907.00,0.0320
906.00,0.0318
905.00,0.0317
904.00,0.0317
903.00,0.0317
902.00,0.0318
901.00,0.0319
900.00,0.0319
899.00,0.0320
898.00,0.0320
897.00,0.0320
896.00,0.0320
895.00,0.0319
894.00,0.0319
893.00,0.0319
892.00,0.0319
891.00,0.0319
890.00,0.0319
889.00,0.0319
888.00,0.0318
887.00,0.0317
886.00,0.0315
885.00,0.0314
884.00,0.0313
883.00,0.0313
882.00,0.0312
881.00,0.0312
880.00,0.0312
879.00,0.0312
878.00,0.0313
877.00,0.0314
876.00,0.0315
875.00,0.0317
874.00,0.0319
873.00,0.0322
872.00,0.0325
871.00,0.0327
870.00,0.0329
869.00,0.0330
868.00,0.0331
867.00,0.0331
866.00,0.0332
865.00,0.0334
864.00,0.0336
863.00,0.0340
862.00,0.0347
861.00,0.0356
860.00,0.0369
859.00,0.0382
858.00,0.0391
857.00,0.0395
856.00,0.0392
855.00,0.0385
854.00,0.0375
853.00,0.0366
852.00,0.0360
851.00,0.0355
850.00,0.0352
849.00,0.0351
848.00,0.0351
847.00,0.0352
846.00,0.0357
845.00,0.0367
844.00,0.0386
843.00,0.0419
842.00,0.0470
841.00,0.0538
840.00,0.0616
839.00,0.0689
838.00,0.0746
837.00,0.0775
836.00,0.0773
835.00,0.0742
834.00,0.0690
833.00,0.0632
832.00,0.0579
831.00,0.0537
830.00,0.0505
829.00,0.0482
828.00,0.0465
827.00,0.0453
826.00,0.0444
825.00,0.0438
824.00,0.0435
823.00,0.0433
822.00,0.0434
821.00,0.0436
820.00,0.0439
819.00,0.0442
818.00,0.0447
817.00,0.0454
816.00,0.0465
815.00,0.0478
814.00,0.0497
813.00,0.0525
812.00,0.0569
811.00,0.0632
810.00,0.0706
809.00,0.0773
808.00,0.0812
807.00,0.0808
806.00,0.0767
805.00,0.0706
804.00,0.0648
803.00,0.0605
802.00,0.0583
801.00,0.0580
800.00,0.0595
799.00,0.0623
798.00,0.0654
797.00,0.0679
796.00,0.0690
795.00,0.0684
794.00,0.0663
793.00,0.0633
792.00,0.0603
791.00,0.0576
790.00,0.0554
789.00,0.0537
788.00,0.0525
787.00,0.0516
786.00,0.0510
785.00,0.0505
784.00,0.0503
783.00,0.0501
782.00,0.0500
781.00,0.0500
780.00,0.0499
779.00,0.0499
778.00,0.0498
777.00,0.0497
776.00,0.0496
775.00,0.0495
774.00,0.0494
773.00,0.0494
772.00,0.0493
771.00,0.0494
770.00,0.0494
769.00,0.0496
768.00,0.0498
767.00,0.0500
766.00,0.0503
765.00,0.0505
764.00,0.0508
763.00,0.0511
762.00,0.0514
761.00,0.0517
760.00,0.0520
759.00,0.0523
758.00,0.0527
757.00,0.0531
756.00,0.0536
755.00,0.0540
754.00,0.0545
753.00,0.0550
752.00,0.0555
751.00,0.0562
750.00,0.0568
749.00,0.0575
748.00,0.0583
747.00,0.0591
746.00,0.0600
745.00,0.0609
744.00,0.0618
743.00,0.0628
742.00,0.0637
741.00,0.0647
740.00,0.0657
739.00,0.0667
738.00,0.0677
737.00,0.0687
736.00,0.0696
735.00,0.0705
734.00,0.0711
733.00,0.0717
732.00,0.0722
731.00,0.0727
730.00,0.0732
729.00,0.0736
728.00,0.0740
727.00,0.0743
726.00,0.0745
725.00,0.0748
724.00,0.0751
723.00,0.0754
722.00,0.0759
721.00,0.0765
720.00,0.0775
719.00,0.0787
718.00,0.0801
717.00,0.0818
716.00,0.0835
715.00,0.0849
714.00,0.0858
713.00,0.0864
712.00,0.0866
711.00,0.0862
710.00,0.0850
709.00,0.0832
708.00,0.0812
707.00,0.0797
706.00,0.0788
705.00,0.0786
704.00,0.0788
703.00,0.0794
702.00,0.0801
701.00,0.0811
700.00,0.0822
699.00,0.0835
698.00,0.0848
697.00,0.0862
696.00,0.0877
695.00,0.0893
694.00,0.0910
693.00,0.0927
692.00,0.0945
691.00,0.0962
690.00,0.0980
689.00,0.0996
688.00,0.1010
687.00,0.1021
686.00,0.1030
685.00,0.1035
684.00,0.1038
683.00,0.1039
682.00,0.1037
681.00,0.1034
680.00,0.1029
679.00,0.1023
678.00,0.1015
677.00,0.1007
676.00,0.0999
675.00,0.0990
674.00,0.0982
673.00,0.0974
672.00,0.0966
671.00,0.0960
670.00,0.0953
669.00,0.0946
668.00,0.0937
667.00,0.0929
666.00,0.0921
665.00,0.0915
664.00,0.0909
663.00,0.0903
662.00,0.0897
661.00,0.0891
660.00,0.0885
659.00,0.0880
658.00,0.0874
657.00,0.0868
656.00,0.0864
655.00,0.0860
654.00,0.0859
653.00,0.0861
652.00,0.0867
651.00,0.0875
650.00,0.0881
649.00,0.0884
648.00,0.0882
647.00,0.0878
646.00,0.0872
645.00,0.0866
644.00,0.0861
643.00,0.0856
642.00,0.0851
641.00,0.0847
640.00,0.0844
639.00,0.0840
638.00,0.0837
637.00,0.0834
636.00,0.0832
635.00,0.0831
634.00,0.0831
633.00,0.0832
632.00,0.0836
631.00,0.0843
630.00,0.0854
629.00,0.0869
628.00,0.0887
627.00,0.0905
626.00,0.0919
625.00,0.0926
624.00,0.0925
623.00,0.0917
622.00,0.0906
621.00,0.0894
620.00,0.0883
619.00,0.0873
618.00,0.0864
617.00,0.0855
616.00,0.0848
615.00,0.0842
614.00,0.0838
613.00,0.0836
612.00,0.0836
611.00,0.0840
610.00,0.0850
609.00,0.0868
608.00,0.0898
607.00,0.0937
606.00,0.0978
605.00,0.1013
604.00,0.1033
603.00,0.1036
602.00,0.1026
601.00,0.1008
600.00,0.0990
599.00,0.0973
598.00,0.0959
597.00,0.0948
596.00,0.0940
595.00,0.0933
594.00,0.0928
593.00,0.0923
592.00,0.0919
591.00,0.0915
590.00,0.0912
589.00,0.0909
588.00,0.0907
587.00,0.0905
586.00,0.0903
585.00,0.0901
584.00,0.0900
583.00,0.0899
582.00,0.0899
581.00,0.0898
580.00,0.0897
579.00,0.0896
578.00,0.0895
577.00,0.0893
576.00,0.0892
575.00,0.0889
574.00,0.0886
573.00,0.0883
572.00,0.0881
571.00,0.0880
570.00,0.0878
569.00,0.0876
568.00,0.0874
567.00,0.0873
566.00,0.0873
565.00,0.0872
564.00,0.0871
563.00,0.0870
562.00,0.0870
561.00,0.0870
560.00,0.0870
559.00,0.0871
558.00,0.0871
557.00,0.0870
556.00,0.0867
555.00,0.0865
554.00,0.0865
553.00,0.0866
552.00,0.0867
551.00,0.0869
550.00,0.0870
549.00,0.0871
548.00,0.0873
547.00,0.0875
546.00,0.0876
545.00,0.0877
544.00,0.0877
543.00,0.0877
542.00,0.0877
541.00,0.0877
540.00,0.0878
539.00,0.0878
538.00,0.0878
537.00,0.0877
536.00,0.0877
535.00,0.0878
534.00,0.0878
533.00,0.0878
532.00,0.0879
531.00,0.0880
530.00,0.0880
529.00,0.0881
528.00,0.0881
527.00,0.0884
526.00,0.0893
525.00,0.0914
524.00,0.0957
523.00,0.1030
522.00,0.1130
521.00,0.1245
520.00,0.1355
519.00,0.1433
518.00,0.1460
517.00,0.1430
516.00,0.1355
515.00,0.1264
514.00,0.1180
513.00,0.1117
512.00,0.1071
511.00,0.1041
510.00,0.1023
509.00,0.1024
508.00,0.1051
507.00,0.1110
506.00,0.1202
505.00,0.1308
504.00,0.1394
503.00,0.1427
502.00,0.1399
501.00,0.1331
500.00,0.1256
499.00,0.1193
498.00,0.1143
497.00,0.1107
496.00,0.1081
495.00,0.1060
494.00,0.1044
493.00,0.1031
492.00,0.1020
491.00,0.1011
490.00,0.1002
489.00,0.0994
488.00,0.0988
487.00,0.0983
486.00,0.0977
485.00,0.0972
484.00,0.0967
483.00,0.0963
482.00,0.0959
481.00,0.0956
480.00,0.0955
479.00,0.0954
478.00,0.0951
477.00,0.0949
476.00,0.0949
475.00,0.0950
474.00,0.0951
473.00,0.0954
472.00,0.0958
471.00,0.0963
470.00,0.0969
469.00,0.0979
468.00,0.0992
467.00,0.1006
466.00,0.1019
465.00,0.1028
464.00,0.1032
463.00,0.1030
462.00,0.1021
461.00,0.1010
460.00,0.0997
459.00,0.0982
458.00,0.0967
457.00,0.0954
456.00,0.0946
455.00,0.0940
454.00,0.0935
453.00,0.0929
452.00,0.0924
451.00,0.0919
450.00,0.0912
449.00,0.0906
448.00,0.0901
447.00,0.0897
446.00,0.0894
445.00,0.0890
444.00,0.0887
443.00,0.0883
442.00,0.0877
441.00,0.0872
440.00,0.0869
439.00,0.0865
438.00,0.0861
437.00,0.0858
436.00,0.0857
435.00,0.0857
434.00,0.0855
433.00,0.0853
432.00,0.0851
431.00,0.0850
430.00,0.0848
429.00,0.0848
428.00,0.0848
427.00,0.0847
426.00,0.0845
425.00,0.0844
424.00,0.0843
423.00,0.0842
422.00,0.0837
421.00,0.0832
420.00,0.0833
419.00,0.0836
418.00,0.0839
417.00,0.0841
416.00,0.0846
415.00,0.0853
414.00,0.0860
413.00,0.0862
412.00,0.0860
411.00,0.0853
410.00,0.0844
409.00,0.0836
408.00,0.0831
407.00,0.0826
406.00,0.0820
405.00,0.0816
404.00,0.0815
403.00,0.0813
402.00,0.0807
401.00,0.0801
400.00,0.0800
