Created as New Dataset,Sample 659 By YargerLab Date Tuesday, March 17 2026
cm-1,A
4000.00,0.0101
3999.00,0.0101
3998.00,0.0101
3997.00,0.0101
3996.00,0.0101
3995.00,0.0101
3994.00,0.0101
3993.00,0.0101
3992.00,0.0101
3991.00,0.0101
3990.00,0.0101
3989.00,0.0101
3988.00,0.0101
3987.00,0.0101
3986.00,0.0101
3985.00,0.0101
3984.00,0.0101
3983.00,0.0101
3982.00,0.0101
3981.00,0.0101
3980.00,0.0101
3979.00,0.0101
3978.00,0.0101
3977.00,0.0101
3976.00,0.0101
3975.00,0.0101
3974.00,0.0101
3973.00,0.0101
3972.00,0.0101
3971.00,0.0101
3970.00,0.0101
3969.00,0.0101
3968.00,0.0101
3967.00,0.0101
3966.00,0.0101
3965.00,0.0101
3964.00,0.0101
3963.00,0.0101
3962.00,0.0101
3961.00,0.0101
3960.00,0.0101
3959.00,0.0101
3958.00,0.0101
3957.00,0.0101
3956.00,0.0101
3955.00,0.0101
3954.00,0.0101
3953.00,0.0101
3952.00,0.0101
3951.00,0.0101
3950.00,0.0101
3949.00,0.0101
3948.00,0.0101
3947.00,0.0101
3946.00,0.0101
3945.00,0.0101
3944.00,0.0101
3943.00,0.0101
3942.00,0.0101
3941.00,0.0101
3940.00,0.0101
3939.00,0.0101
3938.00,0.0101
3937.00,0.0101
3936.00,0.0101
3935.00,0.0101
3934.00,0.0101
3933.00,0.0101
3932.00,0.0101
3931.00,0.0101
3930.00,0.0101
3929.00,0.0100
3928.00,0.0100
3927.00,0.0100
3926.00,0.0100
3925.00,0.0101
3924.00,0.0101
3923.00,0.0101
3922.00,0.0101
3921.00,0.0101
3920.00,0.0101
3919.00,0.0101
3918.00,0.0101
3917.00,0.0100
3916.00,0.0100
3915.00,0.0100
3914.00,0.0100
3913.00,0.0100
3912.00,0.0100
3911.00,0.0100
3910.00,0.0100
3909.00,0.0100
3908.00,0.0100
3907.00,0.0100
3906.00,0.0100
3905.00,0.0100
3904.00,0.0101
3903.00,0.0101
3902.00,0.0101
3901.00,0.0101
3900.00,0.0100
3899.00,0.0100
3898.00,0.0100
3897.00,0.0100
3896.00,0.0100
3895.00,0.0100
3894.00,0.0100
3893.00,0.0100
3892.00,0.0100
3891.00,0.0100
3890.00,0.0100
3889.00,0.0100
3888.00,0.0100
3887.00,0.0100
3886.00,0.0100
3885.00,0.0100
3884.00,0.0100
3883.00,0.0100
3882.00,0.0100
3881.00,0.0100
3880.00,0.0100
3879.00,0.0100
3878.00,0.0100
3877.00,0.0100
3876.00,0.0100
3875.00,0.0100
3874.00,0.0100
3873.00,0.0100
3872.00,0.0100
3871.00,0.0100
3870.00,0.0099
3869.00,0.0100
3868.00,0.0100
3867.00,0.0100
3866.00,0.0100
3865.00,0.0100
3864.00,0.0100
3863.00,0.0100
3862.00,0.0100
3861.00,0.0100
3860.00,0.0100
3859.00,0.0100
3858.00,0.0100
3857.00,0.0100
3856.00,0.0100
3855.00,0.0100
3854.00,0.0099
3853.00,0.0100
3852.00,0.0100
3851.00,0.0100
3850.00,0.0100
3849.00,0.0100
3848.00,0.0100
3847.00,0.0100
3846.00,0.0100
3845.00,0.0100
3844.00,0.0100
3843.00,0.0100
3842.00,0.0100
3841.00,0.0100
3840.00,0.0100
3839.00,0.0100
3838.00,0.0100
3837.00,0.0100
3836.00,0.0100
3835.00,0.0099
3834.00,0.0099
3833.00,0.0099
3832.00,0.0099
3831.00,0.0099
3830.00,0.0099
3829.00,0.0099
3828.00,0.0099
3827.00,0.0099
3826.00,0.0099
3825.00,0.0099
3824.00,0.0099
3823.00,0.0099
3822.00,0.0099
3821.00,0.0099
3820.00,0.0099
3819.00,0.0099
3818.00,0.0099
3817.00,0.0099
3816.00,0.0099
3815.00,0.0099
3814.00,0.0099
3813.00,0.0099
3812.00,0.0099
3811.00,0.0099
3810.00,0.0099
3809.00,0.0099
3808.00,0.0099
3807.00,0.0099
3806.00,0.0099
3805.00,0.0100
3804.00,0.0100
3803.00,0.0099
3802.00,0.0099
3801.00,0.0099
3800.00,0.0099
3799.00,0.0099
3798.00,0.0099
3797.00,0.0099
3796.00,0.0099
3795.00,0.0099
3794.00,0.0099
3793.00,0.0099
3792.00,0.0099
3791.00,0.0099
3790.00,0.0099
3789.00,0.0099
3788.00,0.0099
3787.00,0.0099
3786.00,0.0099
3785.00,0.0099
3784.00,0.0099
3783.00,0.0099
3782.00,0.0099
3781.00,0.0099
3780.00,0.0099
3779.00,0.0099
3778.00,0.0099
3777.00,0.0099
3776.00,0.0099
3775.00,0.0099
3774.00,0.0099
3773.00,0.0099
3772.00,0.0099
3771.00,0.0099
3770.00,0.0099
3769.00,0.0099
3768.00,0.0099
3767.00,0.0099
3766.00,0.0099
3765.00,0.0099
3764.00,0.0099
3763.00,0.0099
3762.00,0.0099
3761.00,0.0099
3760.00,0.0099
3759.00,0.0099
3758.00,0.0099
3757.00,0.0099
3756.00,0.0099
3755.00,0.0099
3754.00,0.0099
3753.00,0.0099
3752.00,0.0099
3751.00,0.0099
3750.00,0.0099
3749.00,0.0099
3748.00,0.0099
3747.00,0.0099
3746.00,0.0099
3745.00,0.0098
3744.00,0.0098
3743.00,0.0099
3742.00,0.0099
3741.00,0.0098
3740.00,0.0098
3739.00,0.0098
3738.00,0.0098
3737.00,0.0098
3736.00,0.0098
3735.00,0.0098
3734.00,0.0097
3733.00,0.0097
3732.00,0.0097
3731.00,0.0097
3730.00,0.0097
3729.00,0.0097
3728.00,0.0097
3727.00,0.0097
3726.00,0.0097
3725.00,0.0097
3724.00,0.0097
3723.00,0.0097
3722.00,0.0097
3721.00,0.0097
3720.00,0.0097
3719.00,0.0097
3718.00,0.0097
3717.00,0.0097
3716.00,0.0097
3715.00,0.0097
3714.00,0.0098
3713.00,0.0098
3712.00,0.0097
3711.00,0.0097
3710.00,0.0097
3709.00,0.0097
3708.00,0.0096
3707.00,0.0096
3706.00,0.0096
3705.00,0.0096
3704.00,0.0096
3703.00,0.0096
3702.00,0.0096
3701.00,0.0096
3700.00,0.0096
3699.00,0.0096
3698.00,0.0096
3697.00,0.0096
3696.00,0.0097
3695.00,0.0097
3694.00,0.0097
3693.00,0.0097
3692.00,0.0097
3691.00,0.0097
3690.00,0.0097
3689.00,0.0097
3688.00,0.0097
3687.00,0.0097
3686.00,0.0097
3685.00,0.0097
3684.00,0.0098
3683.00,0.0098
3682.00,0.0098
3681.00,0.0098
3680.00,0.0098
3679.00,0.0099
3678.00,0.0099
3677.00,0.0099
3676.00,0.0100
3675.00,0.0100
3674.00,0.0100
3673.00,0.0100
3672.00,0.0100
3671.00,0.0100
3670.00,0.0100
3669.00,0.0101
3668.00,0.0101
3667.00,0.0101
3666.00,0.0101
3665.00,0.0101
3664.00,0.0101
3663.00,0.0102
3662.00,0.0102
3661.00,0.0102
3660.00,0.0102
3659.00,0.0102
3658.00,0.0103
3657.00,0.0103
3656.00,0.0103
3655.00,0.0104
3654.00,0.0104
3653.00,0.0104
3652.00,0.0105
3651.00,0.0105
3650.00,0.0105
3649.00,0.0106
3648.00,0.0106
3647.00,0.0106
3646.00,0.0106
3645.00,0.0107
3644.00,0.0107
3643.00,0.0107
3642.00,0.0107
3641.00,0.0108
3640.00,0.0108
3639.00,0.0108
3638.00,0.0109
3637.00,0.0109
3636.00,0.0109
3635.00,0.0109
3634.00,0.0110
3633.00,0.0110
3632.00,0.0110
3631.00,0.0110
3630.00,0.0111
3629.00,0.0111
3628.00,0.0112
3627.00,0.0113
3626.00,0.0113
3625.00,0.0114
3624.00,0.0114
3623.00,0.0114
3622.00,0.0115
3621.00,0.0115
3620.00,0.0115
3619.00,0.0116
3618.00,0.0117
3617.00,0.0117
3616.00,0.0118
3615.00,0.0118
3614.00,0.0119
3613.00,0.0119
3612.00,0.0120
3611.00,0.0120
3610.00,0.0121
3609.00,0.0121
3608.00,0.0121
3607.00,0.0122
3606.00,0.0122
3605.00,0.0122
3604.00,0.0123
3603.00,0.0123
3602.00,0.0124
3601.00,0.0124
3600.00,0.0124
3599.00,0.0125
3598.00,0.0125
3597.00,0.0126
3596.00,0.0126
3595.00,0.0127
3594.00,0.0127
3593.00,0.0128
3592.00,0.0129
3591.00,0.0129
3590.00,0.0130
3589.00,0.0130
3588.00,0.0131
3587.00,0.0132
3586.00,0.0132
3585.00,0.0133
3584.00,0.0134
3583.00,0.0134
3582.00,0.0135
3581.00,0.0135
3580.00,0.0136
3579.00,0.0136
3578.00,0.0137
3577.00,0.0138
3576.00,0.0138
3575.00,0.0139
3574.00,0.0139
3573.00,0.0140
3572.00,0.0141
3571.00,0.0141
3570.00,0.0142
3569.00,0.0143
3568.00,0.0143
3567.00,0.0144
3566.00,0.0145
3565.00,0.0146
3564.00,0.0147
3563.00,0.0147
3562.00,0.0148
3561.00,0.0149
3560.00,0.0149
3559.00,0.0150
3558.00,0.0150
3557.00,0.0151
3556.00,0.0152
3555.00,0.0153
3554.00,0.0153
3553.00,0.0154
3552.00,0.0155
3551.00,0.0156
3550.00,0.0157
3549.00,0.0158
3548.00,0.0158
3547.00,0.0159
3546.00,0.0160
3545.00,0.0161
3544.00,0.0162
3543.00,0.0163
3542.00,0.0163
3541.00,0.0164
3540.00,0.0165
3539.00,0.0166
3538.00,0.0167
3537.00,0.0167
3536.00,0.0168
3535.00,0.0169
3534.00,0.0170
3533.00,0.0171
3532.00,0.0172
3531.00,0.0173
3530.00,0.0174
3529.00,0.0175
3528.00,0.0176
3527.00,0.0177
3526.00,0.0178
3525.00,0.0179
3524.00,0.0180
3523.00,0.0181
3522.00,0.0182
3521.00,0.0183
3520.00,0.0184
3519.00,0.0185
3518.00,0.0187
3517.00,0.0188
3516.00,0.0189
3515.00,0.0190
3514.00,0.0191
3513.00,0.0192
3512.00,0.0194
3511.00,0.0195
3510.00,0.0196
3509.00,0.0198
3508.00,0.0199
3507.00,0.0200
3506.00,0.0202
3505.00,0.0203
3504.00,0.0205
3503.00,0.0206
3502.00,0.0208
3501.00,0.0209
3500.00,0.0211
3499.00,0.0212
3498.00,0.0213
3497.00,0.0215
3496.00,0.0216
3495.00,0.0218
3494.00,0.0219
3493.00,0.0221
3492.00,0.0222
3491.00,0.0224
3490.00,0.0225
3489.00,0.0227
3488.00,0.0229
3487.00,0.0230
3486.00,0.0232
3485.00,0.0233
3484.00,0.0235
3483.00,0.0237
3482.00,0.0238
3481.00,0.0240
3480.00,0.0242
3479.00,0.0243
3478.00,0.0245
3477.00,0.0246
3476.00,0.0248
3475.00,0.0250
3474.00,0.0251
3473.00,0.0253
3472.00,0.0255
3471.00,0.0257
3470.00,0.0259
3469.00,0.0261
3468.00,0.0262
3467.00,0.0263
3466.00,0.0265
3465.00,0.0266
3464.00,0.0268
3463.00,0.0270
3462.00,0.0271
3461.00,0.0273
3460.00,0.0275
3459.00,0.0276
3458.00,0.0278
3457.00,0.0280
3456.00,0.0281
3455.00,0.0283
3454.00,0.0285
3453.00,0.0286
3452.00,0.0288
3451.00,0.0290
3450.00,0.0291
3449.00,0.0293
3448.00,0.0294
3447.00,0.0296
3446.00,0.0298
3445.00,0.0300
3444.00,0.0301
3443.00,0.0303
3442.00,0.0305
3441.00,0.0307
3440.00,0.0309
3439.00,0.0311
3438.00,0.0313
3437.00,0.0315
3436.00,0.0317
3435.00,0.0319
3434.00,0.0320
3433.00,0.0322
3432.00,0.0324
3431.00,0.0326
3430.00,0.0328
3429.00,0.0330
3428.00,0.0332
3427.00,0.0335
3426.00,0.0337
3425.00,0.0339
3424.00,0.0341
3423.00,0.0343
3422.00,0.0346
3421.00,0.0348
3420.00,0.0350
3419.00,0.0353
3418.00,0.0355
3417.00,0.0357
3416.00,0.0360
3415.00,0.0362
3414.00,0.0364
3413.00,0.0366
3412.00,0.0369
3411.00,0.0371
3410.00,0.0373
3409.00,0.0374
3408.00,0.0376
3407.00,0.0378
3406.00,0.0380
3405.00,0.0381
3404.00,0.0383
3403.00,0.0385
3402.00,0.0386
3401.00,0.0387
3400.00,0.0389
3399.00,0.0389
3398.00,0.0390
3397.00,0.0391
3396.00,0.0392
3395.00,0.0392
3394.00,0.0393
3393.00,0.0393
3392.00,0.0394
3391.00,0.0394
3390.00,0.0395
3389.00,0.0395
3388.00,0.0395
3387.00,0.0396
3386.00,0.0396
3385.00,0.0396
3384.00,0.0396
3383.00,0.0396
3382.00,0.0396
3381.00,0.0397
3380.00,0.0397
3379.00,0.0397
3378.00,0.0397
3377.00,0.0397
3376.00,0.0398
3375.00,0.0398
3374.00,0.0398
3373.00,0.0398
3372.00,0.0398
3371.00,0.0398
3370.00,0.0399
3369.00,0.0399
3368.00,0.0399
3367.00,0.0400
3366.00,0.0400
3365.00,0.0401
3364.00,0.0401
3363.00,0.0402
3362.00,0.0402
3361.00,0.0403
3360.00,0.0403
3359.00,0.0404
3358.00,0.0404
3357.00,0.0404
3356.00,0.0405
3355.00,0.0405
3354.00,0.0406
3353.00,0.0406
3352.00,0.0407
3351.00,0.0408
3350.00,0.0408
3349.00,0.0409
3348.00,0.0410
3347.00,0.0410
3346.00,0.0411
3345.00,0.0411
3344.00,0.0412
3343.00,0.0413
3342.00,0.0413
3341.00,0.0414
3340.00,0.0415
3339.00,0.0415
3338.00,0.0416
3337.00,0.0417
3336.00,0.0418
3335.00,0.0419
3334.00,0.0420
3333.00,0.0420
3332.00,0.0421
3331.00,0.0422
3330.00,0.0423
3329.00,0.0424
3328.00,0.0425
3327.00,0.0426
3326.00,0.0427
3325.00,0.0428
3324.00,0.0429
3323.00,0.0431
3322.00,0.0432
3321.00,0.0433
3320.00,0.0434
3319.00,0.0435
3318.00,0.0436
3317.00,0.0437
3316.00,0.0439
3315.00,0.0440
3314.00,0.0442
3313.00,0.0443
3312.00,0.0444
3311.00,0.0446
3310.00,0.0447
3309.00,0.0448
3308.00,0.0449
3307.00,0.0451
3306.00,0.0452
3305.00,0.0454
3304.00,0.0456
3303.00,0.0458
3302.00,0.0459
3301.00,0.0461
3300.00,0.0462
3299.00,0.0464
3298.00,0.0465
3297.00,0.0467
3296.00,0.0468
3295.00,0.0469
3294.00,0.0471
3293.00,0.0472
3292.00,0.0474
3291.00,0.0475
3290.00,0.0477
3289.00,0.0479
3288.00,0.0480
3287.00,0.0481
3286.00,0.0483
3285.00,0.0484
3284.00,0.0485
3283.00,0.0486
3282.00,0.0487
3281.00,0.0488
3280.00,0.0489
3279.00,0.0490
3278.00,0.0491
3277.00,0.0491
3276.00,0.0492
3275.00,0.0492
3274.00,0.0493
3273.00,0.0493
3272.00,0.0494
3271.00,0.0494
3270.00,0.0494
3269.00,0.0495
3268.00,0.0495
3267.00,0.0495
3266.00,0.0495
3265.00,0.0495
3264.00,0.0495
3263.00,0.0495
3262.00,0.0494
3261.00,0.0494
3260.00,0.0494
3259.00,0.0494
3258.00,0.0493
3257.00,0.0493
3256.00,0.0492
3255.00,0.0492
3254.00,0.0492
3253.00,0.0492
3252.00,0.0491
3251.00,0.0491
3250.00,0.0490
3249.00,0.0489
3248.00,0.0488
3247.00,0.0488
3246.00,0.0488
3245.00,0.0488
3244.00,0.0488
3243.00,0.0488
3242.00,0.0487
3241.00,0.0487
3240.00,0.0486
3239.00,0.0486
3238.00,0.0485
3237.00,0.0484
3236.00,0.0483
3235.00,0.0483
3234.00,0.0482
3233.00,0.0482
3232.00,0.0481
3231.00,0.0481
3230.00,0.0481
3229.00,0.0481
3228.00,0.0481
3227.00,0.0480
3226.00,0.0480
3225.00,0.0479
3224.00,0.0479
3223.00,0.0478
3222.00,0.0478
3221.00,0.0477
3220.00,0.0477
3219.00,0.0476
3218.00,0.0476
3217.00,0.0475
3216.00,0.0474
3215.00,0.0473
3214.00,0.0472
3213.00,0.0472
3212.00,0.0471
3211.00,0.0470
3210.00,0.0469
3209.00,0.0468
3208.00,0.0467
3207.00,0.0466
3206.00,0.0464
3205.00,0.0463
3204.00,0.0462
3203.00,0.0461
3202.00,0.0459
3201.00,0.0458
3200.00,0.0457
3199.00,0.0455
3198.00,0.0454
3197.00,0.0452
3196.00,0.0451
3195.00,0.0449
3194.00,0.0447
3193.00,0.0446
3192.00,0.0444
3191.00,0.0442
3190.00,0.0440
3189.00,0.0438
3188.00,0.0437
3187.00,0.0435
3186.00,0.0433
3185.00,0.0431
3184.00,0.0429
3183.00,0.0427
3182.00,0.0425
3181.00,0.0423
3180.00,0.0421
3179.00,0.0419
3178.00,0.0417
3177.00,0.0415
3176.00,0.0413
3175.00,0.0411
3174.00,0.0409
3173.00,0.0407
3172.00,0.0405
3171.00,0.0403
3170.00,0.0401
3169.00,0.0399
3168.00,0.0397
3167.00,0.0395
3166.00,0.0393
3165.00,0.0390
3164.00,0.0388
3163.00,0.0386
3162.00,0.0384
3161.00,0.0382
3160.00,0.0380
3159.00,0.0378
3158.00,0.0376
3157.00,0.0374
3156.00,0.0371
3155.00,0.0369
3154.00,0.0367
3153.00,0.0365
3152.00,0.0363
3151.00,0.0362
3150.00,0.0360
3149.00,0.0359
3148.00,0.0357
3147.00,0.0355
3146.00,0.0354
3145.00,0.0352
3144.00,0.0350
3143.00,0.0348
3142.00,0.0346
3141.00,0.0344
3140.00,0.0343
3139.00,0.0341
3138.00,0.0340
3137.00,0.0339
3136.00,0.0337
3135.00,0.0336
3134.00,0.0335
3133.00,0.0333
3132.00,0.0332
3131.00,0.0330
3130.00,0.0329
3129.00,0.0328
3128.00,0.0327
3127.00,0.0326
3126.00,0.0325
3125.00,0.0324
3124.00,0.0323
3123.00,0.0321
3122.00,0.0320
3121.00,0.0319
3120.00,0.0318
3119.00,0.0317
3118.00,0.0316
3117.00,0.0315
3116.00,0.0315
3115.00,0.0314
3114.00,0.0313
3113.00,0.0312
3112.00,0.0311
3111.00,0.0310
3110.00,0.0309
3109.00,0.0308
3108.00,0.0307
3107.00,0.0307
3106.00,0.0306
3105.00,0.0306
3104.00,0.0305
3103.00,0.0304
3102.00,0.0303
3101.00,0.0303
3100.00,0.0302
3099.00,0.0302
3098.00,0.0302
3097.00,0.0302
3096.00,0.0302
3095.00,0.0301
3094.00,0.0301
3093.00,0.0301
3092.00,0.0301
3091.00,0.0301
3090.00,0.0301
3089.00,0.0302
3088.00,0.0302
3087.00,0.0302
3086.00,0.0302
3085.00,0.0302
3084.00,0.0301
3083.00,0.0301
3082.00,0.0301
3081.00,0.0301
3080.00,0.0300
3079.00,0.0300
3078.00,0.0300
3077.00,0.0300
3076.00,0.0300
3075.00,0.0300
3074.00,0.0299
3073.00,0.0299
3072.00,0.0299
3071.00,0.0298
3070.00,0.0297
3069.00,0.0297
3068.00,0.0296
3067.00,0.0296
3066.00,0.0296
3065.00,0.0296
3064.00,0.0295
3063.00,0.0295
3062.00,0.0295
3061.00,0.0294
3060.00,0.0294
3059.00,0.0293
3058.00,0.0293
3057.00,0.0292
3056.00,0.0292
3055.00,0.0291
3054.00,0.0290
3053.00,0.0290
3052.00,0.0289
3051.00,0.0288
3050.00,0.0287
3049.00,0.0286
3048.00,0.0285
3047.00,0.0284
3046.00,0.0283
3045.00,0.0282
3044.00,0.0281
3043.00,0.0281
3042.00,0.0280
3041.00,0.0280
3040.00,0.0280
3039.00,0.0280
3038.00,0.0280
3037.00,0.0280
3036.00,0.0280
3035.00,0.0279
3034.00,0.0279
3033.00,0.0279
3032.00,0.0278
3031.00,0.0277
3030.00,0.0276
3029.00,0.0275
3028.00,0.0274
3027.00,0.0272
3026.00,0.0270
3025.00,0.0269
3024.00,0.0267
3023.00,0.0265
3022.00,0.0264
3021.00,0.0262
3020.00,0.0261
3019.00,0.0259
3018.00,0.0258
3017.00,0.0257
3016.00,0.0256
3015.00,0.0255
3014.00,0.0254
3013.00,0.0254
3012.00,0.0254
3011.00,0.0254
3010.00,0.0254
3009.00,0.0254
3008.00,0.0255
3007.00,0.0255
3006.00,0.0256
3005.00,0.0257
3004.00,0.0258
3003.00,0.0260
3002.00,0.0261
3001.00,0.0263
3000.00,0.0265
2999.00,0.0268
2998.00,0.0271
2997.00,0.0274
2996.00,0.0277
2995.00,0.0280
2994.00,0.0284
2993.00,0.0287
2992.00,0.0290
2991.00,0.0293
2990.00,0.0295
2989.00,0.0298
2988.00,0.0301
2987.00,0.0305
2986.00,0.0309
2985.00,0.0314
2984.00,0.0320
2983.00,0.0328
2982.00,0.0336
2981.00,0.0344
2980.00,0.0351
2979.00,0.0358
2978.00,0.0362
2977.00,0.0366
2976.00,0.0370
2975.00,0.0375
2974.00,0.0382
2973.00,0.0391
2972.00,0.0401
2971.00,0.0411
2970.00,0.0419
2969.00,0.0425
2968.00,0.0429
2967.00,0.0433
2966.00,0.0437
2965.00,0.0442
2964.00,0.0447
2963.00,0.0452
2962.00,0.0457
2961.00,0.0460
2960.00,0.0461
2959.00,0.0459
2958.00,0.0456
2957.00,0.0450
2956.00,0.0442
2955.00,0.0434
2954.00,0.0426
2953.00,0.0418
2952.00,0.0411
2951.00,0.0405
2950.00,0.0401
2949.00,0.0398
2948.00,0.0397
2947.00,0.0398
2946.00,0.0400
2945.00,0.0404
2944.00,0.0409
2943.00,0.0415
2942.00,0.0422
2941.00,0.0431
2940.00,0.0440
2939.00,0.0450
2938.00,0.0462
2937.00,0.0476
2936.00,0.0491
2935.00,0.0507
2934.00,0.0524
2933.00,0.0541
2932.00,0.0558
2931.00,0.0574
2930.00,0.0588
2929.00,0.0600
2928.00,0.0608
2927.00,0.0612
2926.00,0.0612
2925.00,0.0609
2924.00,0.0602
2923.00,0.0593
2922.00,0.0582
2921.00,0.0571
2920.00,0.0559
2919.00,0.0546
2918.00,0.0533
2917.00,0.0520
2916.00,0.0507
2915.00,0.0495
2914.00,0.0483
2913.00,0.0472
2912.00,0.0462
2911.00,0.0453
2910.00,0.0444
2909.00,0.0436
2908.00,0.0428
2907.00,0.0421
2906.00,0.0414
2905.00,0.0408
2904.00,0.0402
2903.00,0.0396
2902.00,0.0390
2901.00,0.0385
2900.00,0.0380
2899.00,0.0375
2898.00,0.0370
2897.00,0.0365
2896.00,0.0361
2895.00,0.0358
2894.00,0.0354
2893.00,0.0351
2892.00,0.0348
2891.00,0.0345
2890.00,0.0342
2889.00,0.0340
2888.00,0.0337
2887.00,0.0335
2886.00,0.0334
2885.00,0.0332
2884.00,0.0332
2883.00,0.0332
2882.00,0.0332
2881.00,0.0334
2880.00,0.0337
2879.00,0.0340
2878.00,0.0345
2877.00,0.0350
2876.00,0.0356
2875.00,0.0361
2874.00,0.0365
2873.00,0.0368
2872.00,0.0369
2871.00,0.0369
2870.00,0.0367
2869.00,0.0365
2868.00,0.0363
2867.00,0.0362
2866.00,0.0363
2865.00,0.0365
2864.00,0.0370
2863.00,0.0378
2862.00,0.0388
2861.00,0.0400
2860.00,0.0412
2859.00,0.0423
2858.00,0.0433
2857.00,0.0441
2856.00,0.0445
2855.00,0.0447
2854.00,0.0446
2853.00,0.0443
2852.00,0.0437
2851.00,0.0428
2850.00,0.0417
2849.00,0.0403
2848.00,0.0388
2847.00,0.0373
2846.00,0.0359
2845.00,0.0345
2844.00,0.0333
2843.00,0.0322
2842.00,0.0312
2841.00,0.0304
2840.00,0.0296
2839.00,0.0289
2838.00,0.0284
2837.00,0.0279
2836.00,0.0275
2835.00,0.0271
2834.00,0.0267
2833.00,0.0264
2832.00,0.0262
2831.00,0.0259
2830.00,0.0256
2829.00,0.0254
2828.00,0.0252
2827.00,0.0250
2826.00,0.0248
2825.00,0.0246
2824.00,0.0244
2823.00,0.0243
2822.00,0.0241
2821.00,0.0240
2820.00,0.0238
2819.00,0.0237
2818.00,0.0236
2817.00,0.0234
2816.00,0.0233
2815.00,0.0232
2814.00,0.0231
2813.00,0.0230
2812.00,0.0229
2811.00,0.0228
2810.00,0.0227
2809.00,0.0226
2808.00,0.0226
2807.00,0.0225
2806.00,0.0224
2805.00,0.0223
2804.00,0.0223
2803.00,0.0222
2802.00,0.0221
2801.00,0.0220
2800.00,0.0219
2799.00,0.0218
2798.00,0.0218
2797.00,0.0217
2796.00,0.0216
2795.00,0.0216
2794.00,0.0215
2793.00,0.0214
2792.00,0.0213
2791.00,0.0212
2790.00,0.0211
2789.00,0.0211
2788.00,0.0210
2787.00,0.0210
2786.00,0.0209
2785.00,0.0208
2784.00,0.0208
2783.00,0.0207
2782.00,0.0206
2781.00,0.0206
2780.00,0.0205
2779.00,0.0205
2778.00,0.0204
2777.00,0.0204
2776.00,0.0203
2775.00,0.0203
2774.00,0.0202
2773.00,0.0202
2772.00,0.0202
2771.00,0.0201
2770.00,0.0201
2769.00,0.0200
2768.00,0.0200
2767.00,0.0200
2766.00,0.0199
2765.00,0.0199
2764.00,0.0199
2763.00,0.0198
2762.00,0.0198
2761.00,0.0198
2760.00,0.0197
2759.00,0.0197
2758.00,0.0197
2757.00,0.0196
2756.00,0.0196
2755.00,0.0196
2754.00,0.0196
2753.00,0.0196
2752.00,0.0195
2751.00,0.0195
2750.00,0.0195
2749.00,0.0195
2748.00,0.0194
2747.00,0.0194
2746.00,0.0194
2745.00,0.0194
2744.00,0.0194
2743.00,0.0194
2742.00,0.0194
2741.00,0.0194
2740.00,0.0194
2739.00,0.0194
2738.00,0.0194
2737.00,0.0194
2736.00,0.0194
2735.00,0.0194
2734.00,0.0194
2733.00,0.0195
2732.00,0.0195
2731.00,0.0195
2730.00,0.0195
2729.00,0.0194
2728.00,0.0194
2727.00,0.0194
2726.00,0.0193
2725.00,0.0192
2724.00,0.0192
2723.00,0.0191
2722.00,0.0191
2721.00,0.0190
2720.00,0.0190
2719.00,0.0189
2718.00,0.0189
2717.00,0.0188
2716.00,0.0188
2715.00,0.0187
2714.00,0.0187
2713.00,0.0186
2712.00,0.0186
2711.00,0.0186
2710.00,0.0185
2709.00,0.0185
2708.00,0.0185
2707.00,0.0185
2706.00,0.0184
2705.00,0.0184
2704.00,0.0184
2703.00,0.0184
2702.00,0.0183
2701.00,0.0183
2700.00,0.0183
2699.00,0.0182
2698.00,0.0182
2697.00,0.0182
2696.00,0.0181
2695.00,0.0181
2694.00,0.0181
2693.00,0.0180
2692.00,0.0180
2691.00,0.0180
2690.00,0.0179
2689.00,0.0179
2688.00,0.0178
2687.00,0.0178
2686.00,0.0178
2685.00,0.0178
2684.00,0.0177
2683.00,0.0177
2682.00,0.0177
2681.00,0.0176
2680.00,0.0176
2679.00,0.0176
2678.00,0.0176
2677.00,0.0176
2676.00,0.0176
2675.00,0.0176
2674.00,0.0176
2673.00,0.0176
2672.00,0.0176
2671.00,0.0176
2670.00,0.0176
2669.00,0.0176
2668.00,0.0176
2667.00,0.0176
2666.00,0.0177
2665.00,0.0177
2664.00,0.0177
2663.00,0.0178
2662.00,0.0178
2661.00,0.0178
2660.00,0.0178
2659.00,0.0178
2658.00,0.0178
2657.00,0.0178
2656.00,0.0178
2655.00,0.0178
2654.00,0.0178
2653.00,0.0178
2652.00,0.0178
2651.00,0.0178
2650.00,0.0178
2649.00,0.0177
2648.00,0.0177
2647.00,0.0177
2646.00,0.0177
2645.00,0.0177
2644.00,0.0176
2643.00,0.0176
2642.00,0.0176
2641.00,0.0175
2640.00,0.0175
2639.00,0.0175
2638.00,0.0174
2637.00,0.0174
2636.00,0.0173
2635.00,0.0173
2634.00,0.0172
2633.00,0.0172
2632.00,0.0171
2631.00,0.0171
2630.00,0.0171
2629.00,0.0170
2628.00,0.0170
2627.00,0.0169
2626.00,0.0169
2625.00,0.0168
2624.00,0.0168
2623.00,0.0168
2622.00,0.0168
2621.00,0.0167
2620.00,0.0167
2619.00,0.0167
2618.00,0.0166
2617.00,0.0166
2616.00,0.0166
2615.00,0.0166
2614.00,0.0165
2613.00,0.0165
2612.00,0.0165
2611.00,0.0165
2610.00,0.0165
2609.00,0.0164
2608.00,0.0164
2607.00,0.0164
2606.00,0.0164
2605.00,0.0164
2604.00,0.0164
2603.00,0.0163
2602.00,0.0163
2601.00,0.0163
2600.00,0.0163
2599.00,0.0163
2598.00,0.0163
2597.00,0.0163
2596.00,0.0163
2595.00,0.0162
2594.00,0.0162
2593.00,0.0162
2592.00,0.0162
2591.00,0.0162
2590.00,0.0162
2589.00,0.0161
2588.00,0.0161
2587.00,0.0161
2586.00,0.0161
2585.00,0.0160
2584.00,0.0160
2583.00,0.0160
2582.00,0.0160
2581.00,0.0160
2580.00,0.0159
2579.00,0.0159
2578.00,0.0158
2577.00,0.0158
2576.00,0.0157
2575.00,0.0157
2574.00,0.0157
2573.00,0.0156
2572.00,0.0156
2571.00,0.0156
2570.00,0.0156
2569.00,0.0156
2568.00,0.0156
2567.00,0.0156
2566.00,0.0155
2565.00,0.0155
2564.00,0.0155
2563.00,0.0155
2562.00,0.0155
2561.00,0.0154
2560.00,0.0153
2559.00,0.0153
2558.00,0.0152
2557.00,0.0152
2556.00,0.0152
2555.00,0.0152
2554.00,0.0151
2553.00,0.0151
2552.00,0.0151
2551.00,0.0151
2550.00,0.0151
2549.00,0.0150
2548.00,0.0150
2547.00,0.0150
2546.00,0.0150
2545.00,0.0150
2544.00,0.0150
2543.00,0.0150
2542.00,0.0150
2541.00,0.0150
2540.00,0.0150
2539.00,0.0150
2538.00,0.0149
2537.00,0.0149
2536.00,0.0149
2535.00,0.0149
2534.00,0.0149
2533.00,0.0149
2532.00,0.0149
2531.00,0.0148
2530.00,0.0148
2529.00,0.0148
2528.00,0.0148
2527.00,0.0148
2526.00,0.0147
2525.00,0.0147
2524.00,0.0147
2523.00,0.0147
2522.00,0.0146
2521.00,0.0146
2520.00,0.0146
2519.00,0.0146
2518.00,0.0145
2517.00,0.0145
2516.00,0.0145
2515.00,0.0145
2514.00,0.0144
2513.00,0.0144
2512.00,0.0144
2511.00,0.0144
2510.00,0.0143
2509.00,0.0143
2508.00,0.0143
2507.00,0.0143
2506.00,0.0142
2505.00,0.0142
2504.00,0.0142
2503.00,0.0142
2502.00,0.0142
2501.00,0.0142
2500.00,0.0142
2499.00,0.0141
2498.00,0.0141
2497.00,0.0141
2496.00,0.0141
2495.00,0.0141
2494.00,0.0140
2493.00,0.0140
2492.00,0.0140
2491.00,0.0140
2490.00,0.0140
2489.00,0.0140
2488.00,0.0139
2487.00,0.0139
2486.00,0.0139
2485.00,0.0138
2484.00,0.0138
2483.00,0.0138
2482.00,0.0138
2481.00,0.0138
2480.00,0.0137
2479.00,0.0137
2478.00,0.0137
2477.00,0.0137
2476.00,0.0137
2475.00,0.0137
2474.00,0.0137
2473.00,0.0137
2472.00,0.0137
2471.00,0.0136
2470.00,0.0136
2469.00,0.0136
2468.00,0.0136
2467.00,0.0136
2466.00,0.0136
2465.00,0.0136
2464.00,0.0136
2463.00,0.0136
2462.00,0.0136
2461.00,0.0136
2460.00,0.0136
2459.00,0.0136
2458.00,0.0136
2457.00,0.0136
2456.00,0.0136
2455.00,0.0136
2454.00,0.0136
2453.00,0.0136
2452.00,0.0136
2451.00,0.0136
2450.00,0.0135
2449.00,0.0135
2448.00,0.0135
2447.00,0.0134
2446.00,0.0134
2445.00,0.0134
2444.00,0.0133
2443.00,0.0133
2442.00,0.0133
2441.00,0.0133
2440.00,0.0133
2439.00,0.0132
2438.00,0.0132
2437.00,0.0132
2436.00,0.0131
2435.00,0.0131
2434.00,0.0131
2433.00,0.0131
2432.00,0.0131
2431.00,0.0131
2430.00,0.0130
2429.00,0.0130
2428.00,0.0130
2427.00,0.0130
2426.00,0.0130
2425.00,0.0130
2424.00,0.0130
2423.00,0.0129
2422.00,0.0129
2421.00,0.0129
2420.00,0.0129
2419.00,0.0129
2418.00,0.0128
2417.00,0.0128
2416.00,0.0128
2415.00,0.0128
2414.00,0.0128
2413.00,0.0128
2412.00,0.0128
2411.00,0.0128
2410.00,0.0128
2409.00,0.0127
2408.00,0.0126
2407.00,0.0126
2406.00,0.0126
2405.00,0.0126
2404.00,0.0126
2403.00,0.0126
2402.00,0.0126
2401.00,0.0126
2400.00,0.0126
2399.00,0.0126
2398.00,0.0126
2397.00,0.0126
2396.00,0.0126
2395.00,0.0125
2394.00,0.0125
2393.00,0.0125
2392.00,0.0125
2391.00,0.0125
2390.00,0.0124
2389.00,0.0124
2388.00,0.0124
2387.00,0.0123
2386.00,0.0123
2385.00,0.0122
2384.00,0.0121
2383.00,0.0121
2382.00,0.0120
2381.00,0.0119
2380.00,0.0119
2379.00,0.0119
2378.00,0.0119
2377.00,0.0119
2376.00,0.0119
2375.00,0.0120
2374.00,0.0120
2373.00,0.0120
2372.00,0.0120
2371.00,0.0119
2370.00,0.0119
2369.00,0.0118
2368.00,0.0118
2367.00,0.0118
2366.00,0.0118
2365.00,0.0118
2364.00,0.0118
2363.00,0.0118
2362.00,0.0119
2361.00,0.0119
2360.00,0.0119
2359.00,0.0119
2358.00,0.0119
2357.00,0.0119
2356.00,0.0120
2355.00,0.0120
2354.00,0.0121
2353.00,0.0120
2352.00,0.0120
2351.00,0.0120
2350.00,0.0120
2349.00,0.0120
2348.00,0.0121
2347.00,0.0121
2346.00,0.0121
2345.00,0.0121
2344.00,0.0121
2343.00,0.0121
2342.00,0.0121
2341.00,0.0122
2340.00,0.0123
2339.00,0.0123
2338.00,0.0124
2337.00,0.0124
2336.00,0.0124
2335.00,0.0124
2334.00,0.0124
2333.00,0.0124
2332.00,0.0123
2331.00,0.0123
2330.00,0.0124
2329.00,0.0126
2328.00,0.0129
2327.00,0.0133
2326.00,0.0136
2325.00,0.0137
2324.00,0.0136
2323.00,0.0133
2322.00,0.0131
2321.00,0.0129
2320.00,0.0128
2319.00,0.0128
2318.00,0.0127
2317.00,0.0127
2316.00,0.0126
2315.00,0.0126
2314.00,0.0125
2313.00,0.0125
2312.00,0.0124
2311.00,0.0123
2310.00,0.0122
2309.00,0.0122
2308.00,0.0122
2307.00,0.0122
2306.00,0.0122
2305.00,0.0123
2304.00,0.0123
2303.00,0.0123
2302.00,0.0123
2301.00,0.0124
2300.00,0.0124
2299.00,0.0125
2298.00,0.0126
2297.00,0.0126
2296.00,0.0127
2295.00,0.0128
2294.00,0.0129
2293.00,0.0130
2292.00,0.0131
2291.00,0.0132
2290.00,0.0133
2289.00,0.0134
2288.00,0.0134
2287.00,0.0134
2286.00,0.0133
2285.00,0.0133
2284.00,0.0132
2283.00,0.0131
2282.00,0.0130
2281.00,0.0130
2280.00,0.0129
2279.00,0.0129
2278.00,0.0128
2277.00,0.0128
2276.00,0.0127
2275.00,0.0126
2274.00,0.0126
2273.00,0.0126
2272.00,0.0125
2271.00,0.0125
2270.00,0.0124
2269.00,0.0124
2268.00,0.0123
2267.00,0.0123
2266.00,0.0122
2265.00,0.0122
2264.00,0.0122
2263.00,0.0122
2262.00,0.0122
2261.00,0.0122
2260.00,0.0122
2259.00,0.0122
2258.00,0.0121
2257.00,0.0120
2256.00,0.0119
2255.00,0.0119
2254.00,0.0119
2253.00,0.0119
2252.00,0.0120
2251.00,0.0121
2250.00,0.0121
2249.00,0.0121
2248.00,0.0121
2247.00,0.0121
2246.00,0.0121
2245.00,0.0121
2244.00,0.0121
2243.00,0.0120
2242.00,0.0120
2241.00,0.0121
2240.00,0.0121
2239.00,0.0121
2238.00,0.0121
2237.00,0.0121
2236.00,0.0121
2235.00,0.0121
2234.00,0.0121
2233.00,0.0121
2232.00,0.0121
2231.00,0.0121
2230.00,0.0120
2229.00,0.0120
2228.00,0.0120
2227.00,0.0119
2226.00,0.0119
2225.00,0.0119
2224.00,0.0119
2223.00,0.0119
2222.00,0.0120
2221.00,0.0120
2220.00,0.0120
2219.00,0.0119
2218.00,0.0119
2217.00,0.0119
2216.00,0.0118
2215.00,0.0118
2214.00,0.0118
2213.00,0.0118
2212.00,0.0119
2211.00,0.0118
2210.00,0.0118
2209.00,0.0118
2208.00,0.0119
2207.00,0.0119
2206.00,0.0119
2205.00,0.0119
2204.00,0.0120
2203.00,0.0120
2202.00,0.0120
2201.00,0.0120
2200.00,0.0120
2199.00,0.0120
2198.00,0.0120
2197.00,0.0121
2196.00,0.0121
2195.00,0.0121
2194.00,0.0120
2193.00,0.0120
2192.00,0.0121
2191.00,0.0121
2190.00,0.0121
2189.00,0.0121
2188.00,0.0122
2187.00,0.0122
2186.00,0.0121
2185.00,0.0120
2184.00,0.0117
2183.00,0.0115
2182.00,0.0113
2181.00,0.0112
2180.00,0.0113
2179.00,0.0113
2178.00,0.0113
2177.00,0.0112
2176.00,0.0111
2175.00,0.0111
2174.00,0.0112
2173.00,0.0115
2172.00,0.0118
2171.00,0.0121
2170.00,0.0124
2169.00,0.0126
2168.00,0.0127
2167.00,0.0127
2166.00,0.0127
2165.00,0.0128
2164.00,0.0129
2163.00,0.0129
2162.00,0.0122
2161.00,0.0110
2160.00,0.0095
2159.00,0.0083
2158.00,0.0078
2157.00,0.0079
2156.00,0.0083
2155.00,0.0087
2154.00,0.0091
2153.00,0.0094
2152.00,0.0096
2151.00,0.0097
2150.00,0.0097
2149.00,0.0097
2148.00,0.0096
2147.00,0.0096
2146.00,0.0096
2145.00,0.0096
2144.00,0.0097
2143.00,0.0097
2142.00,0.0098
2141.00,0.0098
2140.00,0.0099
2139.00,0.0099
2138.00,0.0097
2137.00,0.0095
2136.00,0.0093
2135.00,0.0092
2134.00,0.0092
2133.00,0.0093
2132.00,0.0095
2131.00,0.0097
2130.00,0.0099
2129.00,0.0101
2128.00,0.0103
2127.00,0.0104
2126.00,0.0104
2125.00,0.0105
2124.00,0.0106
2123.00,0.0106
2122.00,0.0107
2121.00,0.0108
2120.00,0.0109
2119.00,0.0109
2118.00,0.0111
2117.00,0.0112
2116.00,0.0114
2115.00,0.0114
2114.00,0.0114
2113.00,0.0113
2112.00,0.0113
2111.00,0.0113
2110.00,0.0112
2109.00,0.0112
2108.00,0.0112
2107.00,0.0112
2106.00,0.0112
2105.00,0.0112
2104.00,0.0112
2103.00,0.0112
2102.00,0.0112
2101.00,0.0112
2100.00,0.0112
2099.00,0.0111
2098.00,0.0109
2097.00,0.0107
2096.00,0.0106
2095.00,0.0105
2094.00,0.0105
2093.00,0.0106
2092.00,0.0108
2091.00,0.0109
2090.00,0.0110
2089.00,0.0111
2088.00,0.0111
2087.00,0.0112
2086.00,0.0112
2085.00,0.0112
2084.00,0.0113
2083.00,0.0113
2082.00,0.0113
2081.00,0.0113
2080.00,0.0113
2079.00,0.0113
2078.00,0.0112
2077.00,0.0112
2076.00,0.0112
2075.00,0.0112
2074.00,0.0112
2073.00,0.0111
2072.00,0.0111
2071.00,0.0111
2070.00,0.0110
2069.00,0.0110
2068.00,0.0110
2067.00,0.0110
2066.00,0.0109
2065.00,0.0109
2064.00,0.0109
2063.00,0.0108
2062.00,0.0108
2061.00,0.0108
2060.00,0.0108
2059.00,0.0109
2058.00,0.0109
2057.00,0.0108
2056.00,0.0108
2055.00,0.0108
2054.00,0.0111
2053.00,0.0115
2052.00,0.0118
2051.00,0.0118
2050.00,0.0115
2049.00,0.0111
2048.00,0.0108
2047.00,0.0107
2046.00,0.0106
2045.00,0.0105
2044.00,0.0106
2043.00,0.0106
2042.00,0.0106
2041.00,0.0107
2040.00,0.0108
2039.00,0.0108
2038.00,0.0108
2037.00,0.0108
2036.00,0.0107
2035.00,0.0105
2034.00,0.0103
2033.00,0.0101
2032.00,0.0100
2031.00,0.0099
2030.00,0.0099
2029.00,0.0099
2028.00,0.0100
2027.00,0.0100
2026.00,0.0099
2025.00,0.0099
2024.00,0.0098
2023.00,0.0098
2022.00,0.0098
2021.00,0.0098
2020.00,0.0099
2019.00,0.0099
2018.00,0.0099
2017.00,0.0098
2016.00,0.0098
2015.00,0.0097
2014.00,0.0097
2013.00,0.0098
2012.00,0.0099
2011.00,0.0099
2010.00,0.0098
2009.00,0.0096
2008.00,0.0094
2007.00,0.0091
2006.00,0.0089
2005.00,0.0090
2004.00,0.0093
2003.00,0.0094
2002.00,0.0096
2001.00,0.0097
2000.00,0.0098
1999.00,0.0099
1998.00,0.0100
1997.00,0.0102
1996.00,0.0103
1995.00,0.0104
1994.00,0.0103
1993.00,0.0103
1992.00,0.0103
1991.00,0.0103
1990.00,0.0104
1989.00,0.0105
1988.00,0.0107
1987.00,0.0108
1986.00,0.0109
1985.00,0.0110
1984.00,0.0112
1983.00,0.0114
1982.00,0.0116
1981.00,0.0117
1980.00,0.0114
1979.00,0.0108
1978.00,0.0100
1977.00,0.0095
1976.00,0.0093
1975.00,0.0092
1974.00,0.0092
1973.00,0.0092
1972.00,0.0093
1971.00,0.0093
1970.00,0.0092
1969.00,0.0092
1968.00,0.0093
1967.00,0.0093
1966.00,0.0092
1965.00,0.0092
1964.00,0.0093
1963.00,0.0092
1962.00,0.0091
1961.00,0.0090
1960.00,0.0089
1959.00,0.0089
1958.00,0.0091
1957.00,0.0093
1956.00,0.0094
1955.00,0.0095
1954.00,0.0095
1953.00,0.0095
1952.00,0.0095
1951.00,0.0095
1950.00,0.0095
1949.00,0.0095
1948.00,0.0095
1947.00,0.0096
1946.00,0.0096
1945.00,0.0096
1944.00,0.0096
1943.00,0.0095
1942.00,0.0094
1941.00,0.0094
1940.00,0.0095
1939.00,0.0096
1938.00,0.0096
1937.00,0.0096
1936.00,0.0097
1935.00,0.0097
1934.00,0.0096
1933.00,0.0097
1932.00,0.0097
1931.00,0.0097
1930.00,0.0097
1929.00,0.0098
1928.00,0.0098
1927.00,0.0098
1926.00,0.0098
1925.00,0.0098
1924.00,0.0099
1923.00,0.0099
1922.00,0.0100
1921.00,0.0101
1920.00,0.0102
1919.00,0.0102
1918.00,0.0101
1917.00,0.0101
1916.00,0.0101
1915.00,0.0102
1914.00,0.0103
1913.00,0.0104
1912.00,0.0106
1911.00,0.0108
1910.00,0.0110
1909.00,0.0111
1908.00,0.0111
1907.00,0.0111
1906.00,0.0109
1905.00,0.0108
1904.00,0.0106
1903.00,0.0106
1902.00,0.0105
1901.00,0.0105
1900.00,0.0105
1899.00,0.0104
1898.00,0.0104
1897.00,0.0105
1896.00,0.0106
1895.00,0.0107
1894.00,0.0107
1893.00,0.0108
1892.00,0.0108
1891.00,0.0107
1890.00,0.0106
1889.00,0.0105
1888.00,0.0104
1887.00,0.0103
1886.00,0.0103
1885.00,0.0103
1884.00,0.0103
1883.00,0.0103
1882.00,0.0103
1881.00,0.0103
1880.00,0.0103
1879.00,0.0103
1878.00,0.0103
1877.00,0.0104
1876.00,0.0104
1875.00,0.0104
1874.00,0.0103
1873.00,0.0103
1872.00,0.0104
1871.00,0.0104
1870.00,0.0104
1869.00,0.0104
1868.00,0.0103
1867.00,0.0103
1866.00,0.0103
1865.00,0.0103
1864.00,0.0104
1863.00,0.0104
1862.00,0.0103
1861.00,0.0103
1860.00,0.0103
1859.00,0.0104
1858.00,0.0104
1857.00,0.0104
1856.00,0.0104
1855.00,0.0105
1854.00,0.0105
1853.00,0.0105
1852.00,0.0105
1851.00,0.0106
1850.00,0.0106
1849.00,0.0106
1848.00,0.0107
1847.00,0.0108
1846.00,0.0108
1845.00,0.0107
1844.00,0.0106
1843.00,0.0105
1842.00,0.0104
1841.00,0.0105
1840.00,0.0105
1839.00,0.0106
1838.00,0.0105
1837.00,0.0105
1836.00,0.0105
1835.00,0.0105
1834.00,0.0105
1833.00,0.0105
1832.00,0.0106
1831.00,0.0106
1830.00,0.0106
1829.00,0.0105
1828.00,0.0105
1827.00,0.0105
1826.00,0.0105
1825.00,0.0105
1824.00,0.0105
1823.00,0.0105
1822.00,0.0105
1821.00,0.0105
1820.00,0.0105
1819.00,0.0104
1818.00,0.0103
1817.00,0.0103
1816.00,0.0104
1815.00,0.0105
1814.00,0.0105
1813.00,0.0106
1812.00,0.0107
1811.00,0.0107
1810.00,0.0107
1809.00,0.0107
1808.00,0.0107
1807.00,0.0107
1806.00,0.0108
1805.00,0.0108
1804.00,0.0108
1803.00,0.0108
1802.00,0.0108
1801.00,0.0109
1800.00,0.0109
1799.00,0.0110
1798.00,0.0110
1797.00,0.0111
1796.00,0.0112
1795.00,0.0113
1794.00,0.0113
1793.00,0.0113
1792.00,0.0112
1791.00,0.0111
1790.00,0.0110
1789.00,0.0111
1788.00,0.0112
1787.00,0.0112
1786.00,0.0112
1785.00,0.0112
1784.00,0.0112
1783.00,0.0112
1782.00,0.0113
1781.00,0.0113
1780.00,0.0114
1779.00,0.0114
1778.00,0.0114
1777.00,0.0115
1776.00,0.0117
1775.00,0.0118
1774.00,0.0119
1773.00,0.0120
1772.00,0.0120
1771.00,0.0119
1770.00,0.0117
1769.00,0.0117
1768.00,0.0117
1767.00,0.0117
1766.00,0.0117
1765.00,0.0119
1764.00,0.0120
1763.00,0.0121
1762.00,0.0121
1761.00,0.0121
1760.00,0.0122
1759.00,0.0123
1758.00,0.0123
1757.00,0.0123
1756.00,0.0123
1755.00,0.0124
1754.00,0.0124
1753.00,0.0125
1752.00,0.0125
1751.00,0.0125
1750.00,0.0126
1749.00,0.0127
1748.00,0.0129
1747.00,0.0130
1746.00,0.0131
1745.00,0.0132
1744.00,0.0133
1743.00,0.0135
1742.00,0.0136
1741.00,0.0137
1740.00,0.0138
1739.00,0.0139
1738.00,0.0139
1737.00,0.0141
1736.00,0.0142
1735.00,0.0143
1734.00,0.0142
1733.00,0.0142
1732.00,0.0144
1731.00,0.0148
1730.00,0.0151
1729.00,0.0154
1728.00,0.0157
1727.00,0.0160
1726.00,0.0163
1725.00,0.0166
1724.00,0.0169
1723.00,0.0173
1722.00,0.0176
1721.00,0.0179
1720.00,0.0183
1719.00,0.0186
1718.00,0.0189
1717.00,0.0192
1716.00,0.0196
1715.00,0.0201
1714.00,0.0205
1713.00,0.0211
1712.00,0.0217
1711.00,0.0223
1710.00,0.0228
1709.00,0.0235
1708.00,0.0242
1707.00,0.0250
1706.00,0.0259
1705.00,0.0267
1704.00,0.0276
1703.00,0.0285
1702.00,0.0294
1701.00,0.0309
1700.00,0.0328
1699.00,0.0344
1698.00,0.0357
1697.00,0.0371
1696.00,0.0388
1695.00,0.0405
1694.00,0.0420
1693.00,0.0435
1692.00,0.0449
1691.00,0.0463
1690.00,0.0477
1689.00,0.0492
1688.00,0.0505
1687.00,0.0516
1686.00,0.0528
1685.00,0.0544
1684.00,0.0564
1683.00,0.0582
1682.00,0.0594
1681.00,0.0606
1680.00,0.0618
1679.00,0.0630
1678.00,0.0641
1677.00,0.0652
1676.00,0.0666
1675.00,0.0682
1674.00,0.0696
1673.00,0.0708
1672.00,0.0719
1671.00,0.0732
1670.00,0.0746
1669.00,0.0761
1668.00,0.0776
1667.00,0.0788
1666.00,0.0798
1665.00,0.0809
1664.00,0.0822
1663.00,0.0836
1662.00,0.0850
1661.00,0.0863
1660.00,0.0875
1659.00,0.0885
1658.00,0.0894
1657.00,0.0901
1656.00,0.0906
1655.00,0.0910
1654.00,0.0920
1653.00,0.0935
1652.00,0.0948
1651.00,0.0955
1650.00,0.0957
1649.00,0.0959
1648.00,0.0962
1647.00,0.0966
1646.00,0.0970
1645.00,0.0973
1644.00,0.0976
1643.00,0.0978
1642.00,0.0979
1641.00,0.0981
1640.00,0.0983
1639.00,0.0985
1638.00,0.0985
1637.00,0.0988
1636.00,0.0995
1635.00,0.1004
1634.00,0.1013
1633.00,0.1023
1632.00,0.1035
1631.00,0.1052
1630.00,0.1074
1629.00,0.1105
1628.00,0.1143
1627.00,0.1182
1626.00,0.1217
1625.00,0.1247
1624.00,0.1276
1623.00,0.1300
1622.00,0.1314
1621.00,0.1316
1620.00,0.1308
1619.00,0.1289
1618.00,0.1261
1617.00,0.1224
1616.00,0.1188
1615.00,0.1160
1614.00,0.1141
1613.00,0.1129
1612.00,0.1120
1611.00,0.1110
1610.00,0.1098
1609.00,0.1078
1608.00,0.1053
1607.00,0.1024
1606.00,0.0993
1605.00,0.0962
1604.00,0.0931
1603.00,0.0902
1602.00,0.0875
1601.00,0.0851
1600.00,0.0830
1599.00,0.0812
1598.00,0.0796
1597.00,0.0784
1596.00,0.0774
1595.00,0.0768
1594.00,0.0766
1593.00,0.0768
1592.00,0.0775
1591.00,0.0787
1590.00,0.0805
1589.00,0.0825
1588.00,0.0847
1587.00,0.0867
1586.00,0.0885
1585.00,0.0898
1584.00,0.0905
1583.00,0.0908
1582.00,0.0906
1581.00,0.0900
1580.00,0.0891
1579.00,0.0880
1578.00,0.0867
1577.00,0.0852
1576.00,0.0837
1575.00,0.0824
1574.00,0.0815
1573.00,0.0807
1572.00,0.0802
1571.00,0.0799
1570.00,0.0798
1569.00,0.0799
1568.00,0.0799
1567.00,0.0797
1566.00,0.0793
1565.00,0.0788
1564.00,0.0783
1563.00,0.0776
1562.00,0.0770
1561.00,0.0764
1560.00,0.0764
1559.00,0.0770
1558.00,0.0776
1557.00,0.0780
1556.00,0.0783
1555.00,0.0787
1554.00,0.0793
1553.00,0.0799
1552.00,0.0805
1551.00,0.0812
1550.00,0.0819
1549.00,0.0826
1548.00,0.0832
1547.00,0.0837
1546.00,0.0842
1545.00,0.0847
1544.00,0.0852
1543.00,0.0856
1542.00,0.0861
1541.00,0.0866
1540.00,0.0873
1539.00,0.0878
1538.00,0.0880
1537.00,0.0881
1536.00,0.0881
1535.00,0.0880
1534.00,0.0881
1533.00,0.0883
1532.00,0.0884
1531.00,0.0883
1530.00,0.0882
1529.00,0.0881
1528.00,0.0880
1527.00,0.0879
1526.00,0.0878
1525.00,0.0877
1524.00,0.0875
1523.00,0.0874
1522.00,0.0873
1521.00,0.0875
1520.00,0.0877
1519.00,0.0879
1518.00,0.0882
1517.00,0.0884
1516.00,0.0885
1515.00,0.0884
1514.00,0.0880
1513.00,0.0875
1512.00,0.0868
1511.00,0.0859
1510.00,0.0850
1509.00,0.0839
1508.00,0.0827
1507.00,0.0816
1506.00,0.0804
1505.00,0.0794
1504.00,0.0785
1503.00,0.0779
1502.00,0.0774
1501.00,0.0772
1500.00,0.0777
1499.00,0.0789
1498.00,0.0805
1497.00,0.0819
1496.00,0.0824
1495.00,0.0816
1494.00,0.0797
1493.00,0.0772
1492.00,0.0744
1491.00,0.0713
1490.00,0.0683
1489.00,0.0658
1488.00,0.0636
1487.00,0.0618
1486.00,0.0601
1485.00,0.0587
1484.00,0.0576
1483.00,0.0566
1482.00,0.0557
1481.00,0.0550
1480.00,0.0545
1479.00,0.0542
1478.00,0.0540
1477.00,0.0540
1476.00,0.0542
1475.00,0.0545
1474.00,0.0552
1473.00,0.0563
1472.00,0.0581
1471.00,0.0603
1470.00,0.0627
1469.00,0.0653
1468.00,0.0679
1467.00,0.0701
1466.00,0.0717
1465.00,0.0726
1464.00,0.0727
1463.00,0.0725
1462.00,0.0724
1461.00,0.0725
1460.00,0.0727
1459.00,0.0729
1458.00,0.0732
1457.00,0.0735
1456.00,0.0735
1455.00,0.0733
1454.00,0.0732
1453.00,0.0730
1452.00,0.0730
1451.00,0.0732
1450.00,0.0734
1449.00,0.0738
1448.00,0.0742
1447.00,0.0747
1446.00,0.0753
1445.00,0.0760
1444.00,0.0769
1443.00,0.0777
1442.00,0.0785
1441.00,0.0791
1440.00,0.0795
1439.00,0.0797
1438.00,0.0797
1437.00,0.0799
1436.00,0.0804
1435.00,0.0810
1434.00,0.0817
1433.00,0.0823
1432.00,0.0828
1431.00,0.0831
1430.00,0.0832
1429.00,0.0829
1428.00,0.0824
1427.00,0.0816
1426.00,0.0805
1425.00,0.0794
1424.00,0.0784
1423.00,0.0774
1422.00,0.0764
1421.00,0.0754
1420.00,0.0744
1419.00,0.0735
1418.00,0.0727
1417.00,0.0720
1416.00,0.0715
1415.00,0.0712
1414.00,0.0710
1413.00,0.0711
1412.00,0.0715
1411.00,0.0722
1410.00,0.0733
1409.00,0.0748
1408.00,0.0767
1407.00,0.0790
1406.00,0.0816
1405.00,0.0846
1404.00,0.0877
1403.00,0.0904
1402.00,0.0926
1401.00,0.0941
1400.00,0.0951
1399.00,0.0953
1398.00,0.0946
1397.00,0.0933
1396.00,0.0914
1395.00,0.0891
1394.00,0.0867
1393.00,0.0845
1392.00,0.0827
1391.00,0.0813
1390.00,0.0804
1389.00,0.0803
1388.00,0.0809
1387.00,0.0816
1386.00,0.0816
1385.00,0.0805
1384.00,0.0790
1383.00,0.0774
1382.00,0.0763
1381.00,0.0757
1380.00,0.0754
1379.00,0.0749
1378.00,0.0742
1377.00,0.0733
1376.00,0.0719
1375.00,0.0701
1374.00,0.0681
1373.00,0.0663
1372.00,0.0650
1371.00,0.0645
1370.00,0.0646
1369.00,0.0655
1368.00,0.0671
1367.00,0.0689
1366.00,0.0705
1365.00,0.0713
1364.00,0.0718
1363.00,0.0723
1362.00,0.0737
1361.00,0.0755
1360.00,0.0768
1359.00,0.0767
1358.00,0.0752
1357.00,0.0728
1356.00,0.0705
1355.00,0.0686
1354.00,0.0673
1353.00,0.0664
1352.00,0.0659
1351.00,0.0657
1350.00,0.0657
1349.00,0.0658
1348.00,0.0660
1347.00,0.0660
1346.00,0.0659
1345.00,0.0655
1344.00,0.0648
1343.00,0.0639
1342.00,0.0629
1341.00,0.0617
1340.00,0.0605
1339.00,0.0595
1338.00,0.0587
1337.00,0.0582
1336.00,0.0580
1335.00,0.0581
1334.00,0.0584
1333.00,0.0589
1332.00,0.0593
1331.00,0.0597
1330.00,0.0599
1329.00,0.0600
1328.00,0.0599
1327.00,0.0596
1326.00,0.0593
1325.00,0.0589
1324.00,0.0585
1323.00,0.0583
1322.00,0.0581
1321.00,0.0579
1320.00,0.0577
1319.00,0.0575
1318.00,0.0572
1317.00,0.0568
1316.00,0.0563
1315.00,0.0559
1314.00,0.0556
1313.00,0.0554
1312.00,0.0554
1311.00,0.0557
1310.00,0.0562
1309.00,0.0570
1308.00,0.0581
1307.00,0.0595
1306.00,0.0613
1305.00,0.0634
1304.00,0.0659
1303.00,0.0685
1302.00,0.0706
1301.00,0.0720
1300.00,0.0724
1299.00,0.0719
1298.00,0.0710
1297.00,0.0701
1296.00,0.0695
1295.00,0.0691
1294.00,0.0688
1293.00,0.0683
1292.00,0.0677
1291.00,0.0671
1290.00,0.0667
1289.00,0.0667
1288.00,0.0673
1287.00,0.0683
1286.00,0.0696
1285.00,0.0709
1284.00,0.0719
1283.00,0.0723
1282.00,0.0720
1281.00,0.0710
1280.00,0.0695
1279.00,0.0676
1278.00,0.0657
1277.00,0.0639
1276.00,0.0624
1275.00,0.0611
1274.00,0.0601
1273.00,0.0593
1272.00,0.0586
1271.00,0.0579
1270.00,0.0574
1269.00,0.0570
1268.00,0.0568
1267.00,0.0567
1266.00,0.0566
1265.00,0.0566
1264.00,0.0566
1263.00,0.0566
1262.00,0.0565
1261.00,0.0565
1260.00,0.0566
1259.00,0.0567
1258.00,0.0569
1257.00,0.0572
1256.00,0.0575
1255.00,0.0579
1254.00,0.0584
1253.00,0.0590
1252.00,0.0598
1251.00,0.0608
1250.00,0.0620
1249.00,0.0634
1248.00,0.0651
1247.00,0.0669
1246.00,0.0688
1245.00,0.0706
1244.00,0.0722
1243.00,0.0736
1242.00,0.0747
1241.00,0.0757
1240.00,0.0767
1239.00,0.0780
1238.00,0.0796
1237.00,0.0815
1236.00,0.0834
1235.00,0.0850
1234.00,0.0860
1233.00,0.0863
1232.00,0.0857
1231.00,0.0845
1230.00,0.0828
1229.00,0.0809
1228.00,0.0790
1227.00,0.0772
1226.00,0.0757
1225.00,0.0743
1224.00,0.0731
1223.00,0.0722
1222.00,0.0714
1221.00,0.0710
1220.00,0.0708
1219.00,0.0709
1218.00,0.0712
1217.00,0.0717
1216.00,0.0722
1215.00,0.0725
1214.00,0.0723
1213.00,0.0715
1212.00,0.0702
1211.00,0.0684
1210.00,0.0664
1209.00,0.0644
1208.00,0.0627
1207.00,0.0613
1206.00,0.0603
1205.00,0.0598
1204.00,0.0599
1203.00,0.0606
1202.00,0.0617
1201.00,0.0632
1200.00,0.0651
1199.00,0.0673
1198.00,0.0697
1197.00,0.0722
1196.00,0.0744
1195.00,0.0760
1194.00,0.0764
1193.00,0.0758
1192.00,0.0743
1191.00,0.0721
1190.00,0.0695
1189.00,0.0667
1188.00,0.0639
1187.00,0.0613
1186.00,0.0589
1185.00,0.0569
1184.00,0.0552
1183.00,0.0539
1182.00,0.0528
1181.00,0.0520
1180.00,0.0515
1179.00,0.0511
1178.00,0.0509
1177.00,0.0507
1176.00,0.0507
1175.00,0.0507
1174.00,0.0508
1173.00,0.0510
1172.00,0.0511
1171.00,0.0513
1170.00,0.0515
1169.00,0.0517
1168.00,0.0520
1167.00,0.0524
1166.00,0.0529
1165.00,0.0536
1164.00,0.0544
1163.00,0.0556
1162.00,0.0571
1161.00,0.0592
1160.00,0.0620
1159.00,0.0656
1158.00,0.0700
1157.00,0.0748
1156.00,0.0791
1155.00,0.0821
1154.00,0.0829
1153.00,0.0812
1152.00,0.0776
1151.00,0.0730
1150.00,0.0683
1149.00,0.0642
1148.00,0.0610
1147.00,0.0587
1146.00,0.0569
1145.00,0.0557
1144.00,0.0548
1143.00,0.0541
1142.00,0.0536
1141.00,0.0534
1140.00,0.0533
1139.00,0.0535
1138.00,0.0541
1137.00,0.0551
1136.00,0.0567
1135.00,0.0591
1134.00,0.0625
1133.00,0.0671
1132.00,0.0725
1131.00,0.0782
1130.00,0.0833
1129.00,0.0870
1128.00,0.0888
1127.00,0.0887
1126.00,0.0873
1125.00,0.0849
1124.00,0.0819
1123.00,0.0785
1122.00,0.0751
1121.00,0.0720
1120.00,0.0695
1119.00,0.0676
1118.00,0.0664
1117.00,0.0658
1116.00,0.0656
1115.00,0.0657
1114.00,0.0657
1113.00,0.0656
1112.00,0.0653
1111.00,0.0649
1110.00,0.0645
1109.00,0.0642
1108.00,0.0640
1107.00,0.0643
1106.00,0.0650
1105.00,0.0663
1104.00,0.0684
1103.00,0.0712
1102.00,0.0745
1101.00,0.0777
1100.00,0.0801
1099.00,0.0812
1098.00,0.0808
1097.00,0.0791
1096.00,0.0767
1095.00,0.0742
1094.00,0.0720
1093.00,0.0702
1092.00,0.0690
1091.00,0.0682
1090.00,0.0678
1089.00,0.0676
1088.00,0.0676
1087.00,0.0677
1086.00,0.0679
1085.00,0.0681
1084.00,0.0683
1083.00,0.0684
1082.00,0.0685
1081.00,0.0686
1080.00,0.0685
1079.00,0.0685
1078.00,0.0683
1077.00,0.0681
1076.00,0.0679
1075.00,0.0676
1074.00,0.0675
1073.00,0.0674
1072.00,0.0674
1071.00,0.0675
1070.00,0.0678
1069.00,0.0682
1068.00,0.0688
1067.00,0.0694
1066.00,0.0702
1065.00,0.0712
1064.00,0.0726
1063.00,0.0745
1062.00,0.0770
1061.00,0.0803
1060.00,0.0845
1059.00,0.0897
1058.00,0.0958
1057.00,0.1024
1056.00,0.1088
1055.00,0.1144
1054.00,0.1185
1053.00,0.1213
1052.00,0.1230
1051.00,0.1240
1050.00,0.1243
1049.00,0.1238
1048.00,0.1222
1047.00,0.1195
1046.00,0.1158
1045.00,0.1114
1044.00,0.1067
1043.00,0.1020
1042.00,0.0976
1041.00,0.0938
1040.00,0.0908
1039.00,0.0886
1038.00,0.0873
1037.00,0.0867
1036.00,0.0867
1035.00,0.0870
1034.00,0.0876
1033.00,0.0888
1032.00,0.0909
1031.00,0.0944
1030.00,0.0992
1029.00,0.1049
1028.00,0.1103
1027.00,0.1140
1026.00,0.1151
1025.00,0.1133
1024.00,0.1091
1023.00,0.1037
1022.00,0.0981
1021.00,0.0930
1020.00,0.0885
1019.00,0.0846
1018.00,0.0812
1017.00,0.0784
1016.00,0.0759
1015.00,0.0738
1014.00,0.0721
1013.00,0.0706
1012.00,0.0695
1011.00,0.0688
1010.00,0.0686
1009.00,0.0689
1008.00,0.0697
1007.00,0.0710
1006.00,0.0724
1005.00,0.0737
1004.00,0.0746
1003.00,0.0748
1002.00,0.0742
1001.00,0.0731
1000.00,0.0718
999.00,0.0704
998.00,0.0690
997.00,0.0678
996.00,0.0667
995.00,0.0656
994.00,0.0646
993.00,0.0634
992.00,0.0619
991.00,0.0603
990.00,0.0585
989.00,0.0568
988.00,0.0552
987.00,0.0539
986.00,0.0527
985.00,0.0516
984.00,0.0507
983.00,0.0500
982.00,0.0494
981.00,0.0490
980.00,0.0488
979.00,0.0487
978.00,0.0487
977.00,0.0488
976.00,0.0489
975.00,0.0490
974.00,0.0491
973.00,0.0493
972.00,0.0494
971.00,0.0495
970.00,0.0496
969.00,0.0497
968.00,0.0498
967.00,0.0499
966.00,0.0501
965.00,0.0503
964.00,0.0505
963.00,0.0507
962.00,0.0507
961.00,0.0504
960.00,0.0497
959.00,0.0486
958.00,0.0476
957.00,0.0466
956.00,0.0458
955.00,0.0450
954.00,0.0444
953.00,0.0438
952.00,0.0434
951.00,0.0432
950.00,0.0432
949.00,0.0433
948.00,0.0434
947.00,0.0434
946.00,0.0433
945.00,0.0432
944.00,0.0433
943.00,0.0436
942.00,0.0441
941.00,0.0446
940.00,0.0452
939.00,0.0457
938.00,0.0462
937.00,0.0465
936.00,0.0468
935.00,0.0472
934.00,0.0476
933.00,0.0479
932.00,0.0481
931.00,0.0479
930.00,0.0476
929.00,0.0471
928.00,0.0468
927.00,0.0467
926.00,0.0469
925.00,0.0473
924.00,0.0480
923.00,0.0487
922.00,0.0492
921.00,0.0492
920.00,0.0485
919.00,0.0474
918.00,0.0460
917.00,0.0447
916.00,0.0435
915.00,0.0424
914.00,0.0416
913.00,0.0410
912.00,0.0404
911.00,0.0400
910.00,0.0398
909.00,0.0396
908.00,0.0395
907.00,0.0395
906.00,0.0398
905.00,0.0403
904.00,0.0411
903.00,0.0422
902.00,0.0437
901.00,0.0453
900.00,0.0466
899.00,0.0473
898.00,0.0472
897.00,0.0464
896.00,0.0453
895.00,0.0443
894.00,0.0438
893.00,0.0442
892.00,0.0454
891.00,0.0468
890.00,0.0478
889.00,0.0476
888.00,0.0463
887.00,0.0444
886.00,0.0427
885.00,0.0416
884.00,0.0410
883.00,0.0408
882.00,0.0408
881.00,0.0411
880.00,0.0416
879.00,0.0426
878.00,0.0441
877.00,0.0463
876.00,0.0491
875.00,0.0526
874.00,0.0567
873.00,0.0611
872.00,0.0653
871.00,0.0688
870.00,0.0709
869.00,0.0711
868.00,0.0697
867.00,0.0673
866.00,0.0646
865.00,0.0620
864.00,0.0595
863.00,0.0571
862.00,0.0547
861.00,0.0527
860.00,0.0511
859.00,0.0503
858.00,0.0502
857.00,0.0511
856.00,0.0526
855.00,0.0546
854.00,0.0566
853.00,0.0585
852.00,0.0606
851.00,0.0627
850.00,0.0646
849.00,0.0657
848.00,0.0655
847.00,0.0641
846.00,0.0620
845.00,0.0598
844.00,0.0579
843.00,0.0564
842.00,0.0555
841.00,0.0552
840.00,0.0555
839.00,0.0567
838.00,0.0587
837.00,0.0615
836.00,0.0644
835.00,0.0671
834.00,0.0689
833.00,0.0698
832.00,0.0696
831.00,0.0683
830.00,0.0662
829.00,0.0634
828.00,0.0603
827.00,0.0575
826.00,0.0556
825.00,0.0549
824.00,0.0562
823.00,0.0600
822.00,0.0660
821.00,0.0726
820.00,0.0774
819.00,0.0801
818.00,0.0821
817.00,0.0846
816.00,0.0869
815.00,0.0866
814.00,0.0824
813.00,0.0756
812.00,0.0687
811.00,0.0634
810.00,0.0597
809.00,0.0573
808.00,0.0556
807.00,0.0545
806.00,0.0536
805.00,0.0530
804.00,0.0526
803.00,0.0523
802.00,0.0522
801.00,0.0521
800.00,0.0521
799.00,0.0522
798.00,0.0523
797.00,0.0524
796.00,0.0525
795.00,0.0526
794.00,0.0528
793.00,0.0529
792.00,0.0532
791.00,0.0534
790.00,0.0537
789.00,0.0539
788.00,0.0542
787.00,0.0546
786.00,0.0549
785.00,0.0552
784.00,0.0555
783.00,0.0559
782.00,0.0562
781.00,0.0565
780.00,0.0568
779.00,0.0571
778.00,0.0577
777.00,0.0585
776.00,0.0595
775.00,0.0604
774.00,0.0608
773.00,0.0605
772.00,0.0597
771.00,0.0588
770.00,0.0582
769.00,0.0578
768.00,0.0577
767.00,0.0577
766.00,0.0578
765.00,0.0580
764.00,0.0583
763.00,0.0588
762.00,0.0594
761.00,0.0600
760.00,0.0605
759.00,0.0609
758.00,0.0611
757.00,0.0610
756.00,0.0608
755.00,0.0607
754.00,0.0605
753.00,0.0605
752.00,0.0606
751.00,0.0608
750.00,0.0610
749.00,0.0613
748.00,0.0616
747.00,0.0619
746.00,0.0622
745.00,0.0625
744.00,0.0629
743.00,0.0634
742.00,0.0641
741.00,0.0649
740.00,0.0662
739.00,0.0680
738.00,0.0705
737.00,0.0735
736.00,0.0766
735.00,0.0788
734.00,0.0796
733.00,0.0793
732.00,0.0786
731.00,0.0783
730.00,0.0788
729.00,0.0795
728.00,0.0799
727.00,0.0795
726.00,0.0782
725.00,0.0766
724.00,0.0751
723.00,0.0739
722.00,0.0733
721.00,0.0731
720.00,0.0734
719.00,0.0741
718.00,0.0753
717.00,0.0767
716.00,0.0782
715.00,0.0793
714.00,0.0800
713.00,0.0802
712.00,0.0801
711.00,0.0799
710.00,0.0796
709.00,0.0795
708.00,0.0796
707.00,0.0799
706.00,0.0805
705.00,0.0811
704.00,0.0820
703.00,0.0829
702.00,0.0839
701.00,0.0849
700.00,0.0859
699.00,0.0867
698.00,0.0872
697.00,0.0873
696.00,0.0870
695.00,0.0864
694.00,0.0858
693.00,0.0854
692.00,0.0855
691.00,0.0861
690.00,0.0873
689.00,0.0885
688.00,0.0894
687.00,0.0897
686.00,0.0893
685.00,0.0887
684.00,0.0881
683.00,0.0876
682.00,0.0875
681.00,0.0876
680.00,0.0879
679.00,0.0884
678.00,0.0891
677.00,0.0900
676.00,0.0911
675.00,0.0925
674.00,0.0938
673.00,0.0952
672.00,0.0962
671.00,0.0970
670.00,0.0975
669.00,0.0978
668.00,0.0980
667.00,0.0981
666.00,0.0979
665.00,0.0977
664.00,0.0980
663.00,0.0986
662.00,0.0993
661.00,0.0996
660.00,0.0994
659.00,0.0987
658.00,0.0978
657.00,0.0967
656.00,0.0958
655.00,0.0952
654.00,0.0947
653.00,0.0944
652.00,0.0942
651.00,0.0941
650.00,0.0940
649.00,0.0939
648.00,0.0940
647.00,0.0940
646.00,0.0941
645.00,0.0941
644.00,0.0941
643.00,0.0941
642.00,0.0941
641.00,0.0941
640.00,0.0942
639.00,0.0942
638.00,0.0943
637.00,0.0943
636.00,0.0944
635.00,0.0945
634.00,0.0946
633.00,0.0948
632.00,0.0950
631.00,0.0953
630.00,0.0956
629.00,0.0961
628.00,0.0966
627.00,0.0972
626.00,0.0979
625.00,0.0987
624.00,0.0997
623.00,0.1009
622.00,0.1020
621.00,0.1031
620.00,0.1039
619.00,0.1043
618.00,0.1042
617.00,0.1036
616.00,0.1028
615.00,0.1019
614.00,0.1011
613.00,0.1005
612.00,0.1001
611.00,0.1002
610.00,0.1006
609.00,0.1017
608.00,0.1034
607.00,0.1057
606.00,0.1081
605.00,0.1106
604.00,0.1128
603.00,0.1145
602.00,0.1157
601.00,0.1164
600.00,0.1169
599.00,0.1173
598.00,0.1175
597.00,0.1177
596.00,0.1179
595.00,0.1181
594.00,0.1182
593.00,0.1182
592.00,0.1182
591.00,0.1182
590.00,0.1180
589.00,0.1179
588.00,0.1177
587.00,0.1176
586.00,0.1175
585.00,0.1175
584.00,0.1176
583.00,0.1179
582.00,0.1182
581.00,0.1188
580.00,0.1198
579.00,0.1212
578.00,0.1230
577.00,0.1246
576.00,0.1254
575.00,0.1252
574.00,0.1239
573.00,0.1222
572.00,0.1205
571.00,0.1191
570.00,0.1179
569.00,0.1171
568.00,0.1166
567.00,0.1165
566.00,0.1168
565.00,0.1176
564.00,0.1188
563.00,0.1203
562.00,0.1219
561.00,0.1235
560.00,0.1248
559.00,0.1255
558.00,0.1252
557.00,0.1244
556.00,0.1233
555.00,0.1223
554.00,0.1216
553.00,0.1215
552.00,0.1219
551.00,0.1228
550.00,0.1242
549.00,0.1260
548.00,0.1283
547.00,0.1303
546.00,0.1317
545.00,0.1323
544.00,0.1321
543.00,0.1314
542.00,0.1304
541.00,0.1295
540.00,0.1287
539.00,0.1282
538.00,0.1280
537.00,0.1280
536.00,0.1285
535.00,0.1295
534.00,0.1309
533.00,0.1326
532.00,0.1344
531.00,0.1356
530.00,0.1359
529.00,0.1354
528.00,0.1344
527.00,0.1331
526.00,0.1317
525.00,0.1305
524.00,0.1296
523.00,0.1289
522.00,0.1283
521.00,0.1277
520.00,0.1272
519.00,0.1268
518.00,0.1263
517.00,0.1258
516.00,0.1254
515.00,0.1251
514.00,0.1247
513.00,0.1244
512.00,0.1243
511.00,0.1242
510.00,0.1242
509.00,0.1244
508.00,0.1248
507.00,0.1252
506.00,0.1253
505.00,0.1251
504.00,0.1247
503.00,0.1240
502.00,0.1232
501.00,0.1226
500.00,0.1222
499.00,0.1219
498.00,0.1217
497.00,0.1217
496.00,0.1220
495.00,0.1225
494.00,0.1230
493.00,0.1234
492.00,0.1237
491.00,0.1236
490.00,0.1232
489.00,0.1227
488.00,0.1223
487.00,0.1218
486.00,0.1213
485.00,0.1210
484.00,0.1208
483.00,0.1206
482.00,0.1202
481.00,0.1198
480.00,0.1196
479.00,0.1194
478.00,0.1192
477.00,0.1190
476.00,0.1190
475.00,0.1189
474.00,0.1188
473.00,0.1186
472.00,0.1185
471.00,0.1184
470.00,0.1181
469.00,0.1179
468.00,0.1178
467.00,0.1177
466.00,0.1175
465.00,0.1172
464.00,0.1169
463.00,0.1166
462.00,0.1163
461.00,0.1162
460.00,0.1162
459.00,0.1162
458.00,0.1159
457.00,0.1158
456.00,0.1157
455.00,0.1156
454.00,0.1153
453.00,0.1149
452.00,0.1144
451.00,0.1139
450.00,0.1134
449.00,0.1128
448.00,0.1124
447.00,0.1120
446.00,0.1116
445.00,0.1113
444.00,0.1112
443.00,0.1111
442.00,0.1109
441.00,0.1107
440.00,0.1106
439.00,0.1104
438.00,0.1099
437.00,0.1093
436.00,0.1089
435.00,0.1086
434.00,0.1083
433.00,0.1081
432.00,0.1080
431.00,0.1078
430.00,0.1075
429.00,0.1071
428.00,0.1068
427.00,0.1064
426.00,0.1059
425.00,0.1053
424.00,0.1050
423.00,0.1048
422.00,0.1045
421.00,0.1043
420.00,0.1043
419.00,0.1044
418.00,0.1043
417.00,0.1044
416.00,0.1046
415.00,0.1048
414.00,0.1050
413.00,0.1056
412.00,0.1067
411.00,0.1079
410.00,0.1087
409.00,0.1089
408.00,0.1088
407.00,0.1081
406.00,0.1070
405.00,0.1059
404.00,0.1050
403.00,0.1041
402.00,0.1029
401.00,0.1018
400.00,0.1013
