3997.70013	0.01105
3995.64052	0.01110
3993.58092	0.01140
3991.52131	0.01215
3989.46170	0.01279
3987.40209	0.01294
3985.34248	0.01298
3983.28287	0.01314
3981.22327	0.01344
3979.16366	0.01343
3977.10405	0.01248
3975.04444	0.01144
3972.98483	0.01140
3970.92522	0.01198
3968.86561	0.01248
3966.80601	0.01274
3964.74640	0.01264
3962.68679	0.01208
3960.62718	0.01155
3958.56757	0.01152
3956.50796	0.01182
3954.44835	0.01232
3952.38875	0.01270
3950.32914	0.01238
3948.26953	0.01172
3946.20992	0.01171
3944.15031	0.01211
3942.09070	0.01216
3940.03109	0.01209
3937.97149	0.01231
3935.91188	0.01278
3933.85227	0.01319
3931.79266	0.01331
3929.73305	0.01330
3927.67344	0.01318
3925.61384	0.01291
3923.55423	0.01272
3921.49462	0.01256
3919.43501	0.01237
3917.37540	0.01249
3915.31579	0.01277
3913.25618	0.01281
3911.19658	0.01273
3909.13697	0.01258
3907.07736	0.01222
3905.01775	0.01193
3902.95814	0.01208
3900.89853	0.01238
3898.83892	0.01258
3896.77932	0.01261
3894.71971	0.01217
3892.66010	0.01134
3890.60049	0.01105
3888.54088	0.01183
3886.48127	0.01307
3884.42166	0.01367
3882.36206	0.01326
3880.30245	0.01266
3878.24284	0.01261
3876.18323	0.01265
3874.12362	0.01217
3872.06401	0.01137
3870.00441	0.01079
3867.94480	0.01072
3865.88519	0.01110
3863.82558	0.01191
3861.76597	0.01282
3859.70636	0.01323
3857.64675	0.01304
3855.58715	0.01237
3853.52754	0.01194
3851.46793	0.01268
3849.40832	0.01349
3847.34871	0.01367
3845.28910	0.01376
3843.22949	0.01413
3841.16989	0.01450
3839.11028	0.01439
3837.05067	0.01373
3834.99106	0.01322
3832.93145	0.01320
3830.87184	0.01321
3828.81223	0.01313
3826.75263	0.01320
3824.69302	0.01347
3822.63341	0.01374
3820.57380	0.01412
3818.51419	0.01463
3816.45458	0.01481
3814.39498	0.01455
3812.33537	0.01432
3810.27576	0.01434
3808.21615	0.01459
3806.15654	0.01497
3804.09693	0.01536
3802.03732	0.01583
3799.97772	0.01626
3797.91811	0.01630
3795.85850	0.01595
3793.79889	0.01558
3791.73928	0.01573
3789.67967	0.01652
3787.62006	0.01719
3785.56046	0.01711
3783.50085	0.01664
3781.44124	0.01632
3779.38163	0.01657
3777.32202	0.01752
3775.26241	0.01837
3773.20280	0.01855
3771.14320	0.01841
3769.08359	0.01858
3767.02398	0.01922
3764.96437	0.01985
3762.90476	0.01991
3760.84515	0.01956
3758.78555	0.01927
3756.72594	0.01918
3754.66633	0.01910
3752.60672	0.01878
3750.54711	0.01869
3748.48750	0.01920
3746.42789	0.01997
3744.36829	0.02101
3742.30868	0.02201
3740.24907	0.02234
3738.18946	0.02214
3736.12985	0.02217
3734.07024	0.02293
3732.01063	0.02419
3729.95103	0.02530
3727.89142	0.02575
3725.83181	0.02585
3723.77220	0.02661
3721.71259	0.02822
3719.65298	0.02976
3717.59337	0.03090
3715.53377	0.03182
3713.47416	0.03283
3711.41455	0.03441
3709.35494	0.03655
3707.29533	0.03837
3705.23572	0.03985
3703.17612	0.04167
3701.11651	0.04403
3699.05690	0.04644
3696.99729	0.04865
3694.93768	0.05102
3692.87807	0.05394
3690.81846	0.05750
3688.75886	0.06146
3686.69925	0.06541
3684.63964	0.06944
3682.58003	0.07365
3680.52042	0.07777
3678.46081	0.08209
3676.40120	0.08766
3674.34160	0.09372
3672.28199	0.09838
3670.22238	0.10363
3668.16277	0.11085
3666.10316	0.11803
3664.04355	0.12447
3661.98394	0.13066
3659.92434	0.13708
3657.86473	0.14411
3655.80512	0.15124
3653.74551	0.15717
3651.68590	0.16291
3649.62629	0.17085
3647.56669	0.18002
3645.50708	0.18736
3643.44747	0.19318
3641.38786	0.19921
3639.32825	0.20580
3637.26864	0.21211
3635.20903	0.21772
3633.14943	0.22296
3631.08982	0.22856
3629.03021	0.23591
3626.97060	0.24403
3624.91099	0.25011
3622.85138	0.25456
3620.79177	0.25914
3618.73217	0.26498
3616.67256	0.27128
3614.61295	0.27703
3612.55334	0.28298
3610.49373	0.28948
3608.43412	0.29610
3606.37451	0.30254
3604.31491	0.30821
3602.25530	0.31349
3600.19569	0.31909
3598.13608	0.32478
3596.07647	0.33046
3594.01686	0.33638
3591.95726	0.34171
3589.89765	0.34631
3587.83804	0.35235
3585.77843	0.36019
3583.71882	0.36720
3581.65921	0.37300
3579.59960	0.37879
3577.54000	0.38505
3575.48039	0.39187
3573.42078	0.39856
3571.36117	0.40422
3569.30156	0.40969
3567.24195	0.41692
3565.18234	0.42516
3563.12274	0.43224
3561.06313	0.43880
3559.00352	0.44558
3556.94391	0.45208
3554.88430	0.45853
3552.82469	0.46580
3550.76508	0.47336
3548.70548	0.48015
3546.64587	0.48692
3544.58626	0.49447
3542.52665	0.50216
3540.46704	0.50939
3538.40743	0.51627
3536.34783	0.52331
3534.28822	0.53040
3532.22861	0.53720
3530.16900	0.54447
3528.10939	0.55261
3526.04978	0.56068
3523.99017	0.56821
3521.93057	0.57545
3519.87096	0.58253
3517.81135	0.59000
3515.75174	0.59797
3513.69213	0.60547
3511.63252	0.61253
3509.57291	0.62011
3507.51331	0.62785
3505.45370	0.63514
3503.39409	0.64280
3501.33448	0.65067
3499.27487	0.65771
3497.21526	0.66455
3495.15565	0.67215
3493.09605	0.68003
3491.03644	0.68750
3488.97683	0.69481
3486.91722	0.70245
3484.85761	0.71027
3482.79800	0.71781
3480.73840	0.72537
3478.67879	0.73317
3476.61918	0.74096
3474.55957	0.74895
3472.49996	0.75702
3470.44035	0.76447
3468.38074	0.77175
3466.32114	0.77980
3464.26153	0.78873
3462.20192	0.79779
3460.14231	0.80599
3458.08270	0.81323
3456.02309	0.82018
3453.96348	0.82762
3451.90388	0.83534
3449.84427	0.84272
3447.78466	0.85048
3445.72505	0.85901
3443.66544	0.86753
3441.60583	0.87565
3439.54622	0.88264
3437.48662	0.88888
3435.42701	0.89612
3433.36740	0.90473
3431.30779	0.91354
3429.24818	0.92172
3427.18857	0.92957
3425.12897	0.93682
3423.06936	0.94329
3421.00975	0.94991
3418.95014	0.95711
3416.89053	0.96428
3414.83092	0.97166
3412.77131	0.97925
3410.71171	0.98609
3408.65210	0.99205
3406.59249	0.99807
3404.53288	1.00448
3402.47327	1.01068
3400.41366	1.01660
3398.35405	1.02235
3396.29445	1.02760
3394.23484	1.03245
3392.17523	1.03731
3390.11562	1.04234
3388.05601	1.04773
3385.99640	1.05293
3383.93679	1.05706
3381.87719	1.06058
3379.81758	1.06425
3377.75797	1.06802
3375.69836	1.07174
3373.63875	1.07500
3371.57914	1.07703
3369.51954	1.07848
3367.45993	1.08063
3365.40032	1.08347
3363.34071	1.08615
3361.28110	1.08813
3359.22149	1.08943
3357.16188	1.09081
3355.10228	1.09275
3353.04267	1.09476
3350.98306	1.09614
3348.92345	1.09671
3346.86384	1.09699
3344.80423	1.09722
3342.74462	1.09697
3340.68502	1.09637
3338.62541	1.09627
3336.56580	1.09681
3334.50619	1.09749
3332.44658	1.09768
3330.38697	1.09712
3328.32736	1.09667
3326.26776	1.09649
3324.20815	1.09596
3322.14854	1.09556
3320.08893	1.09585
3318.02932	1.09603
3315.96971	1.09525
3313.91011	1.09409
3311.85050	1.09327
3309.79089	1.09247
3307.73128	1.09132
3305.67167	1.09041
3303.61206	1.09040
3301.55245	1.09050
3299.49285	1.09005
3297.43324	1.08966
3295.37363	1.08921
3293.31402	1.08790
3291.25441	1.08625
3289.19480	1.08486
3287.13519	1.08352
3285.07559	1.08271
3283.01598	1.08243
3280.95637	1.08189
3278.89676	1.08120
3276.83715	1.08042
3274.77754	1.07887
3272.71793	1.07682
3270.65833	1.07525
3268.59872	1.07424
3266.53911	1.07329
3264.47950	1.07219
3262.41989	1.07110
3260.36028	1.06993
3258.30068	1.06839
3256.24107	1.06636
3254.18146	1.06450
3252.12185	1.06318
3250.06224	1.06146
3248.00263	1.05867
3245.94302	1.05543
3243.88342	1.05252
3241.82381	1.05015
3239.76420	1.04764
3237.70459	1.04408
3235.64498	1.03940
3233.58537	1.03432
3231.52576	1.02987
3229.46616	1.02626
3227.40655	1.02226
3225.34694	1.01687
3223.28733	1.01081
3221.22772	1.00516
3219.16811	1.00001
3217.10850	0.99452
3215.04890	0.98830
3212.98929	0.98178
3210.92968	0.97522
3208.87007	0.96863
3206.81046	0.96178
3204.75085	0.95422
3202.69125	0.94625
3200.63164	0.93818
3198.57203	0.92998
3196.51242	0.92167
3194.45281	0.91293
3192.39320	0.90405
3190.33359	0.89532
3188.27399	0.88637
3186.21438	0.87732
3184.15477	0.86795
3182.09516	0.85797
3180.03555	0.84793
3177.97594	0.83808
3175.91633	0.82816
3173.85673	0.81797
3171.79712	0.80768
3169.73751	0.79757
3167.67790	0.78734
3165.61829	0.77692
3163.55868	0.76675
3161.49907	0.75648
3159.43947	0.74573
3157.37986	0.73505
3155.32025	0.72446
3153.26064	0.71375
3151.20103	0.70329
3149.14142	0.69291
3147.08182	0.68229
3145.02221	0.67139
3142.96260	0.66035
3140.90299	0.64968
3138.84338	0.63939
3136.78377	0.62922
3134.72416	0.61907
3132.66456	0.60877
3130.60495	0.59867
3128.54534	0.58908
3126.48573	0.57973
3124.42612	0.57008
3122.36651	0.55970
3120.30690	0.54906
3118.24730	0.53910
3116.18769	0.53015
3114.12808	0.52155
3112.06847	0.51259
3110.00886	0.50352
3107.94925	0.49487
3105.88965	0.48638
3103.83004	0.47763
3101.77043	0.46877
3099.71082	0.46031
3097.65121	0.45246
3095.59160	0.44473
3093.53199	0.43646
3091.47239	0.42790
3089.41278	0.42007
3087.35317	0.41294
3085.29356	0.40563
3083.23395	0.39803
3081.17434	0.39075
3079.11473	0.38392
3077.05513	0.37706
3074.99552	0.36981
3072.93591	0.36241
3070.87630	0.35534
3068.81669	0.34863
3066.75708	0.34190
3064.69747	0.33506
3062.63787	0.32824
3060.57826	0.32155
3058.51865	0.31519
3056.45904	0.30920
3054.39943	0.30313
3052.33982	0.29678
3050.28022	0.29059
3048.22061	0.28477
3046.16100	0.27898
3044.10139	0.27321
3042.04178	0.26767
3039.98217	0.26218
3037.92256	0.25664
3035.86296	0.25121
3033.80335	0.24611
3031.74374	0.24138
3029.68413	0.23683
3027.62452	0.23216
3025.56491	0.22724
3023.50530	0.22231
3021.44570	0.21777
3019.38609	0.21345
3017.32648	0.20910
3015.26687	0.20483
3013.20726	0.20046
3011.14765	0.19602
3009.08804	0.19202
3007.02844	0.18862
3004.96883	0.18548
3002.90922	0.18209
3000.84961	0.17834
2998.79000	0.17474
2996.73039	0.17171
2994.67079	0.16889
2992.61118	0.16573
2990.55157	0.16218
2988.49196	0.15879
2986.43235	0.15587
2984.37274	0.15309
2982.31313	0.15017
2980.25353	0.14723
2978.19392	0.14447
2976.13431	0.14164
2974.07470	0.13872
2972.01509	0.13615
2969.95548	0.13383
2967.89587	0.13125
2965.83627	0.12876
2963.77666	0.12688
2961.71705	0.12502
2959.65744	0.12271
2957.59783	0.12040
2955.53822	0.11813
2953.47861	0.11588
2951.41901	0.11406
2949.35940	0.11228
2947.29979	0.11014
2945.24018	0.10792
2943.18057	0.10578
2941.12096	0.10382
2939.06136	0.10194
2937.00175	0.09974
2934.94214	0.09770
2932.88253	0.09628
2930.82292	0.09488
2928.76331	0.09307
2926.70370	0.09098
2924.64410	0.08894
2922.58449	0.08702
2920.52488	0.08506
2918.46527	0.08340
2916.40566	0.08199
2914.34605	0.08034
2912.28644	0.07846
2910.22684	0.07659
2908.16723	0.07493
2906.10762	0.07354
2904.04801	0.07240
2901.98840	0.07149
2899.92879	0.07048
2897.86918	0.06913
2895.80958	0.06762
2893.74997	0.06623
2891.69036	0.06506
2889.63075	0.06394
2887.57114	0.06275
2885.51153	0.06162
2883.45193	0.06052
2881.39232	0.05929
2879.33271	0.05811
2877.27310	0.05730
2875.21349	0.05677
2873.15388	0.05603
2871.09427	0.05494
2869.03467	0.05370
2866.97506	0.05252
2864.91545	0.05162
2862.85584	0.05086
2860.79623	0.04998
2858.73662	0.04926
2856.67701	0.04857
2854.61741	0.04761
2852.55780	0.04680
2850.49819	0.04614
2848.43858	0.04525
2846.37897	0.04420
2844.31936	0.04334
2842.25975	0.04272
2840.20015	0.04211
2838.14054	0.04154
2836.08093	0.04106
2834.02132	0.04047
2831.96171	0.03973
2829.90210	0.03896
2827.84250	0.03830
2825.78289	0.03777
2823.72328	0.03706
2821.66367	0.03615
2819.60406	0.03560
2817.54445	0.03546
2815.48484	0.03517
2813.42524	0.03454
2811.36563	0.03398
2809.30602	0.03361
2807.24641	0.03315
2805.18680	0.03259
2803.12719	0.03199
2801.06758	0.03141
2799.00798	0.03092
2796.94837	0.03060
2794.88876	0.03047
2792.82915	0.03019
2790.76954	0.02942
2788.70993	0.02874
2786.65032	0.02848
2784.59072	0.02817
2782.53111	0.02791
2780.47150	0.02784
2778.41189	0.02748
2776.35228	0.02667
2774.29267	0.02593
2772.23307	0.02564
2770.17346	0.02555
2768.11385	0.02528
2766.05424	0.02492
2763.99463	0.02475
2761.93502	0.02464
2759.87541	0.02433
2757.81581	0.02379
2755.75620	0.02331
2753.69659	0.02329
2751.63698	0.02335
2749.57737	0.02304
2747.51776	0.02268
2745.45815	0.02242
2743.39855	0.02215
2741.33894	0.02186
2739.27933	0.02162
2737.21972	0.02148
2735.16011	0.02146
2733.10050	0.02131
2731.04089	0.02085
2728.98129	0.02042
2726.92168	0.02033
2724.86207	0.02036
2722.80246	0.02041
2720.74285	0.02020
2718.68324	0.01967
2716.62364	0.01928
2714.56403	0.01911
2712.50442	0.01896
2710.44481	0.01890
2708.38520	0.01880
2706.32559	0.01853
2704.26598	0.01832
2702.20638	0.01818
2700.14677	0.01798
2698.08716	0.01793
2696.02755	0.01806
2693.96794	0.01804
2691.90833	0.01783
2689.84872	0.01770
2687.78912	0.01763
2685.72951	0.01753
2683.66990	0.01743
2681.61029	0.01719
2679.55068	0.01700
2677.49107	0.01704
2675.43146	0.01706
2673.37186	0.01700
2671.31225	0.01698
2669.25264	0.01682
2667.19303	0.01652
2665.13342	0.01632
2663.07381	0.01636
2661.01421	0.01649
2658.95460	0.01642
2656.89499	0.01609
2654.83538	0.01579
2652.77577	0.01578
2650.71616	0.01588
2648.65655	0.01594
2646.59695	0.01601
2644.53734	0.01605
2642.47773	0.01602
2640.41812	0.01592
2638.35851	0.01573
2636.29890	0.01540
2634.23929	0.01511
2632.17969	0.01513
2630.12008	0.01536
2628.06047	0.01537
2626.00086	0.01514
2623.94125	0.01493
2621.88164	0.01486
2619.82203	0.01499
2617.76243	0.01525
2615.70282	0.01542
2613.64321	0.01530
2611.58360	0.01495
2609.52399	0.01462
2607.46438	0.01439
2605.40478	0.01429
2603.34517	0.01451
2601.28556	0.01476
2599.22595	0.01469
2597.16634	0.01453
2595.10673	0.01438
2593.04712	0.01436
2590.98752	0.01449
2588.92791	0.01457
2586.86830	0.01448
2584.80869	0.01438
2582.74908	0.01438
2580.68947	0.01453
2578.62986	0.01463
2576.57026	0.01454
2574.51065	0.01457
2572.45104	0.01467
2570.39143	0.01446
2568.33182	0.01417
2566.27221	0.01405
2564.21260	0.01427
2562.15300	0.01483
2560.09339	0.01526
2558.03378	0.01530
2555.97417	0.01499
2553.91456	0.01461
2551.85495	0.01474
2549.79535	0.01503
2547.73574	0.01480
2545.67613	0.01452
2543.61652	0.01479
2541.55691	0.01503
2539.49730	0.01493
2537.43769	0.01526
2535.37809	0.01596
2533.31848	0.01627
2531.25887	0.01610
2529.19926	0.01565
2527.13965	0.01535
2525.08004	0.01534
2523.02043	0.01531
2520.96083	0.01558
2518.90122	0.01627
2516.84161	0.01656
2514.78200	0.01611
2512.72239	0.01582
2510.66278	0.01615
2508.60317	0.01664
2506.54357	0.01692
2504.48396	0.01682
2502.42435	0.01650
2500.36474	0.01644
2498.30513	0.01676
2496.24552	0.01711
2494.18592	0.01715
2492.12631	0.01705
2490.06670	0.01722
2488.00709	0.01749
2485.94748	0.01728
2483.88787	0.01682
2481.82826	0.01685
2479.76866	0.01731
2477.70905	0.01744
2475.64944	0.01704
2473.58983	0.01675
2471.53022	0.01722
2469.47061	0.01804
2467.41100	0.01825
2465.35140	0.01803
2463.29179	0.01809
2461.23218	0.01846
2459.17257	0.01880
2457.11296	0.01896
2455.05335	0.01899
2452.99374	0.01875
2450.93414	0.01848
2448.87453	0.01848
2446.81492	0.01837
2444.75531	0.01828
2442.69570	0.01865
2440.63609	0.01921
2438.57649	0.01965
2436.51688	0.01981
2434.45727	0.01985
2432.39766	0.02001
2430.33805	0.02013
2428.27844	0.02002
2426.21883	0.01975
2424.15923	0.01961
2422.09962	0.01956
2420.04001	0.01943
2417.98040	0.01949
2415.92079	0.01988
2413.86118	0.02034
2411.80157	0.02066
2409.74197	0.02091
2407.68236	0.02098
2405.62275	0.02085
2403.56314	0.02093
2401.50353	0.02126
2399.44392	0.02154
2397.38431	0.02179
2395.32471	0.02208
2393.26510	0.02241
2391.20549	0.02269
2389.14588	0.02279
2387.08627	0.02261
2385.02666	0.02225
2382.96706	0.02221
2380.90745	0.02276
2378.84784	0.02340
2376.78823	0.02364
2374.72862	0.02399
2372.66901	0.02423
2370.60940	0.02416
2368.54980	0.02430
2366.49019	0.02455
2364.43058	0.02465
2362.37097	0.02462
2360.31136	0.02461
2358.25175	0.02556
2356.19214	0.02592
2354.13254	0.02565
2352.07293	0.02565
2350.01332	0.02513
2347.95371	0.02574
2345.89410	0.02650
2343.83449	0.02633
2341.77488	0.02666
2339.71528	0.02659
2337.65567	0.02684
2335.59606	0.02743
2333.53645	0.02714
2331.47684	0.02736
2329.41723	0.02704
2327.35763	0.02776
2325.29802	0.02827
2323.23841	0.02905
2321.17880	0.02935
2319.11919	0.02895
2317.05958	0.02852
2314.99997	0.02835
2312.94037	0.02849
2310.88076	0.02865
2308.82115	0.02870
2306.76154	0.02859
2304.70193	0.02858
2302.64232	0.02863
2300.58271	0.02856
2298.52311	0.02860
2296.46350	0.02878
2294.40389	0.02885
2292.34428	0.02859
2290.28467	0.02821
2288.22506	0.02813
2286.16545	0.02841
2284.10585	0.02875
2282.04624	0.02888
2279.98663	0.02892
2277.92702	0.02944
2275.86741	0.03040
2273.80780	0.03083
2271.74820	0.03043
2269.68859	0.02987
2267.62898	0.02968
2265.56937	0.02960
2263.50976	0.02971
2261.45015	0.03012
2259.39054	0.03011
2257.33094	0.02969
2255.27133	0.03004
2253.21172	0.03103
2251.15211	0.03145
2249.09250	0.03125
2247.03289	0.03092
2244.97328	0.03085
2242.91368	0.03125
2240.85407	0.03166
2238.79446	0.03170
2236.73485	0.03171
2234.67524	0.03191
2232.61563	0.03181
2230.55602	0.03165
2228.49642	0.03181
2226.43681	0.03184
2224.37720	0.03192
2222.31759	0.03203
2220.25798	0.03215
2218.19837	0.03275
2216.13877	0.03311
2214.07916	0.03268
2212.01955	0.03243
2209.95994	0.03269
2207.90033	0.03290
2205.84072	0.03322
2203.78111	0.03378
2201.72151	0.03425
2199.66190	0.03429
2197.60229	0.03435
2195.54268	0.03457
2193.48307	0.03414
2191.42346	0.03326
2189.36385	0.03331
2187.30425	0.03472
2185.24464	0.03558
2183.18503	0.03452
2181.12542	0.03316
2179.06581	0.03350
2177.00620	0.03489
2174.94659	0.03519
2172.88699	0.03377
2170.82738	0.03258
2168.76777	0.03281
2166.70816	0.03300
2164.64855	0.03231
2162.58894	0.03169
2160.52934	0.03183
2158.46973	0.03224
2156.41012	0.03272
2154.35051	0.03349
2152.29090	0.03455
2150.23129	0.03521
2148.17168	0.03513
2146.11208	0.03509
2144.05247	0.03509
2141.99286	0.03485
2139.93325	0.03505
2137.87364	0.03610
2135.81403	0.03730
2133.75442	0.03816
2131.69482	0.03887
2129.63521	0.03929
2127.57560	0.03930
2125.51599	0.03935
2123.45638	0.03984
2121.39677	0.04043
2119.33716	0.04070
2117.27756	0.04080
2115.21795	0.04061
2113.15834	0.03999
2111.09873	0.03951
2109.03912	0.03951
2106.97951	0.03972
2104.91991	0.03984
2102.86030	0.03974
2100.80069	0.03957
2098.74108	0.03950
2096.68147	0.03971
2094.62186	0.03993
2092.56225	0.03939
2090.50265	0.03831
2088.44304	0.03784
2086.38343	0.03800
2084.32382	0.03803
2082.26421	0.03796
2080.20460	0.03801
2078.14499	0.03796
2076.08539	0.03765
2074.02578	0.03705
2071.96617	0.03618
2069.90656	0.03518
2067.84695	0.03456
2065.78734	0.03464
2063.72773	0.03480
2061.66813	0.03441
2059.60852	0.03425
2057.54891	0.03501
2055.48930	0.03526
2053.42969	0.03419
2051.37008	0.03290
2049.31048	0.03182
2047.25087	0.03083
2045.19126	0.03035
2043.13165	0.03009
2041.07204	0.02941
2039.01243	0.02848
2036.95282	0.02743
2034.89322	0.02636
2032.83361	0.02602
2030.77400	0.02711
2028.71439	0.02845
2026.65478	0.02796
2024.59517	0.02607
2022.53556	0.02497
2020.47596	0.02550
2018.41635	0.02646
2016.35674	0.02708
2014.29713	0.02728
2012.23752	0.02654
2010.17791	0.02517
2008.11830	0.02421
2006.05870	0.02446
2003.99909	0.02544
2001.93948	0.02576
1999.87987	0.02528
1997.82026	0.02475
1995.76065	0.02461
1993.70105	0.02476
1991.64144	0.02444
1989.58183	0.02336
1987.52222	0.02303
1985.46261	0.02373
1983.40300	0.02341
1981.34339	0.02227
1979.28379	0.02237
1977.22418	0.02340
1975.16457	0.02315
1973.10496	0.02165
1971.04535	0.02069
1968.98574	0.02029
1966.92613	0.01996
1964.86653	0.02011
1962.80692	0.02070
1960.74731	0.02156
1958.68770	0.02212
1956.62809	0.02205
1954.56848	0.02229
1952.50887	0.02297
1950.44927	0.02313
1948.38966	0.02248
1946.33005	0.02165
1944.27044	0.02122
1942.21083	0.02137
1940.15122	0.02174
1938.09162	0.02203
1936.03201	0.02251
1933.97240	0.02289
1931.91279	0.02261
1929.85318	0.02198
1927.79357	0.02165
1925.73396	0.02195
1923.67436	0.02264
1921.61475	0.02314
1919.55514	0.02337
1917.49553	0.02345
1915.43592	0.02322
1913.37631	0.02290
1911.31670	0.02293
1909.25710	0.02304
1907.19749	0.02271
1905.13788	0.02222
1903.07827	0.02205
1901.01866	0.02198
1898.95905	0.02187
1896.89944	0.02199
1894.83984	0.02233
1892.78023	0.02259
1890.72062	0.02270
1888.66101	0.02265
1886.60140	0.02237
1884.54179	0.02210
1882.48219	0.02210
1880.42258	0.02220
1878.36297	0.02229
1876.30336	0.02242
1874.24375	0.02249
1872.18414	0.02243
1870.12453	0.02241
1868.06493	0.02255
1866.00532	0.02262
1863.94571	0.02248
1861.88610	0.02236
1859.82649	0.02244
1857.76688	0.02258
1855.70727	0.02275
1853.64767	0.02297
1851.58806	0.02304
1849.52845	0.02298
1847.46884	0.02298
1845.40923	0.02313
1843.34962	0.02342
1841.29002	0.02367
1839.23041	0.02375
1837.17080	0.02376
1835.11119	0.02368
1833.05158	0.02353
1830.99197	0.02356
1828.93236	0.02377
1826.87276	0.02400
1824.81315	0.02434
1822.75354	0.02472
1820.69393	0.02495
1818.63432	0.02507
1816.57471	0.02531
1814.51510	0.02569
1812.45550	0.02613
1810.39589	0.02651
1808.33628	0.02672
1806.27667	0.02670
1804.21706	0.02660
1802.15745	0.02668
1800.09784	0.02711
1798.03824	0.02765
1795.97863	0.02799
1793.91902	0.02817
1791.85941	0.02853
1789.79980	0.02910
1787.74019	0.02960
1785.68059	0.02995
1783.62098	0.03018
1781.56137	0.03044
1779.50176	0.03085
1777.44215	0.03134
1775.38254	0.03172
1773.32293	0.03218
1771.26333	0.03300
1769.20372	0.03395
1767.14411	0.03469
1765.08450	0.03522
1763.02489	0.03582
1760.96528	0.03675
1758.90567	0.03775
1756.84607	0.03844
1754.78646	0.03894
1752.72685	0.03966
1750.66724	0.04081
1748.60763	0.04203
1746.54802	0.04306
1744.48841	0.04410
1742.42881	0.04534
1740.36920	0.04682
1738.30959	0.04830
1736.24998	0.04964
1734.19037	0.05134
1732.13076	0.05339
1730.07116	0.05534
1728.01155	0.05731
1725.95194	0.05932
1723.89233	0.06136
1721.83272	0.06336
1719.77311	0.06548
1717.71350	0.06845
1715.65390	0.07222
1713.59429	0.07577
1711.53468	0.07903
1709.47507	0.08234
1707.41546	0.08596
1705.35585	0.09005
1703.29624	0.09427
1701.23664	0.09936
1699.17703	0.10591
1697.11742	0.11264
1695.05781	0.11932
1692.99820	0.12529
1690.93859	0.13074
1688.87898	0.13651
1686.81938	0.14267
1684.75977	0.15088
1682.70016	0.16084
1680.64055	0.16885
1678.58094	0.17522
1676.52133	0.18210
1674.46173	0.19004
1672.40212	0.19781
1670.34251	0.20622
1668.28290	0.21584
1666.22329	0.22400
1664.16368	0.23124
1662.10407	0.23960
1660.04447	0.24769
1657.98486	0.25372
1655.92525	0.25897
1653.86564	0.26712
1651.80603	0.27713
1649.74642	0.28286
1647.68681	0.28704
1645.62721	0.29246
1643.56760	0.29642
1641.50799	0.29816
1639.44838	0.29876
1637.38877	0.29869
1635.32916	0.29787
1633.26955	0.29581
1631.20995	0.29233
1629.15034	0.28738
1627.09073	0.28118
1625.03112	0.27399
1622.97151	0.26585
1620.91190	0.25770
1618.85230	0.24965
1616.79269	0.24031
1614.73308	0.23047
1612.67347	0.22151
1610.61386	0.21272
1608.55425	0.20386
1606.49464	0.19550
1604.43504	0.18776
1602.37543	0.18045
1600.31582	0.17363
1598.25621	0.16742
1596.19660	0.16163
1594.13699	0.15620
1592.07738	0.15128
1590.01778	0.14689
1587.95817	0.14295
1585.89856	0.13949
1583.83895	0.13657
1581.77934	0.13412
1579.71973	0.13203
1577.66012	0.13020
1575.60052	0.12877
1573.54091	0.12776
1571.48130	0.12684
1569.42169	0.12610
1567.36208	0.12579
1565.30247	0.12560
1563.24287	0.12510
1561.18326	0.12439
1559.12365	0.12411
1557.06404	0.12421
1555.00443	0.12372
1552.94482	0.12291
1550.88521	0.12216
1548.82561	0.12131
1546.76600	0.12012
1544.70639	0.11851
1542.64678	0.11674
1540.58717	0.11510
1538.52756	0.11371
1536.46795	0.11232
1534.40835	0.11053
1532.34874	0.10850
1530.28913	0.10661
1528.22952	0.10468
1526.16991	0.10258
1524.11030	0.10052
1522.05069	0.09873
1519.99109	0.09729
1517.93148	0.09573
1515.87187	0.09367
1513.81226	0.09137
1511.75265	0.08891
1509.69304	0.08611
1507.63344	0.08320
1505.57383	0.08125
1503.51422	0.08034
1501.45461	0.07937
1499.39500	0.07800
1497.33539	0.07668
1495.27578	0.07572
1493.21618	0.07490
1491.15657	0.07397
1489.09696	0.07321
1487.03735	0.07283
1484.97774	0.07258
1482.91813	0.07228
1480.85852	0.07197
1478.79892	0.07163
1476.73931	0.07125
1474.67970	0.07089
1472.62009	0.07066
1470.56048	0.07065
1468.50087	0.07069
1466.44126	0.07071
1464.38166	0.07087
1462.32205	0.07105
1460.26244	0.07103
1458.20283	0.07102
1456.14322	0.07122
1454.08361	0.07120
1452.02401	0.07075
1449.96440	0.07010
1447.90479	0.06941
1445.84518	0.06874
1443.78557	0.06812
1441.72596	0.06760
1439.66635	0.06713
1437.60675	0.06671
1435.54714	0.06649
1433.48753	0.06645
1431.42792	0.06640
1429.36831	0.06641
1427.30870	0.06658
1425.24909	0.06683
1423.18949	0.06701
1421.12988	0.06705
1419.07027	0.06712
1417.01066	0.06735
1414.95105	0.06740
1412.89144	0.06705
1410.83183	0.06648
1408.77223	0.06599
1406.71262	0.06562
1404.65301	0.06528
1402.59340	0.06497
1400.53379	0.06476
1398.47418	0.06477
1396.41458	0.06490
1394.35497	0.06508
1392.29536	0.06527
1390.23575	0.06531
1388.17614	0.06522
1386.11653	0.06524
1384.05692	0.06535
1381.99732	0.06530
1379.93771	0.06500
1377.87810	0.06449
1375.81849	0.06389
1373.75888	0.06336
1371.69927	0.06299
1369.63966	0.06266
1367.58006	0.06233
1365.52045	0.06200
1363.46084	0.06176
1361.40123	0.06165
1359.34162	0.06154
1357.28201	0.06146
1355.22240	0.06144
1353.16280	0.06138
1351.10319	0.06132
1349.04358	0.06141
1346.98397	0.06166
1344.92436	0.06192
1342.86475	0.06212
1340.80515	0.06229
1338.74554	0.06244
1336.68593	0.06246
1334.62632	0.06228
1332.56671	0.06185
1330.50710	0.06129
1328.44749	0.06084
1326.38789	0.06063
1324.32828	0.06054
1322.26867	0.06041
1320.20906	0.06024
1318.14945	0.06009
1316.08984	0.06000
1314.03023	0.05998
1311.97063	0.06000
1309.91102	0.06006
1307.85141	0.06019
1305.79180	0.06032
1303.73219	0.06029
1301.67258	0.06020
1299.61297	0.06021
1297.55337	0.06035
1295.49376	0.06057
1293.43415	0.06071
1291.37454	0.06070
1289.31493	0.06062
1287.25532	0.06061
1285.19572	0.06069
1283.13611	0.06081
1281.07650	0.06092
1279.01689	0.06096
1276.95728	0.06103
1274.89767	0.06124
1272.83806	0.06147
1270.77846	0.06166
1268.71885	0.06185
1266.65924	0.06202
1264.59963	0.06218
1262.54002	0.06245
1260.48041	0.06279
1258.42080	0.06306
1256.36120	0.06329
1254.30159	0.06358
1252.24198	0.06377
1250.18237	0.06377
1248.12276	0.06372
1246.06315	0.06373
1244.00354	0.06362
1241.94394	0.06321
1239.88433	0.06261
1237.82472	0.06199
1235.76511	0.06132
1233.70550	0.06060
1231.64589	0.05983
1229.58629	0.05900
1227.52668	0.05819
1225.46707	0.05747
1223.40746	0.05682
1221.34785	0.05618
1219.28824	0.05562
1217.22863	0.05520
1215.16903	0.05484
1213.10942	0.05449
1211.04981	0.05414
1208.99020	0.05389
1206.93059	0.05373
1204.87098	0.05355
1202.81137	0.05337
1200.75177	0.05326
1198.69216	0.05315
1196.63255	0.05297
1194.57294	0.05279
1192.51333	0.05269
1190.45372	0.05266
1188.39411	0.05266
1186.33451	0.05266
1184.27490	0.05263
1182.21529	0.05268
1180.15568	0.05283
1178.09607	0.05287
1176.03646	0.05276
1173.97686	0.05270
1171.91725	0.05270
1169.85764	0.05267
1167.79803	0.05257
1165.73842	0.05238
1163.67881	0.05220
1161.61920	0.05207
1159.55960	0.05193
1157.49999	0.05164
1155.44038	0.05127
1153.38077	0.05103
1151.32116	0.05097
1149.26155	0.05090
1147.20194	0.05078
1145.14234	0.05068
1143.08273	0.05062
1141.02312	0.05049
1138.96351	0.05025
1136.90390	0.05000
1134.84429	0.04982
1132.78468	0.04977
1130.72508	0.04973
1128.66547	0.04967
1126.60586	0.04970
1124.54625	0.04973
1122.48664	0.04970
1120.42703	0.04965
1118.36743	0.04956
1116.30782	0.04949
1114.24821	0.04950
1112.18860	0.04948
1110.12899	0.04940
1108.06938	0.04934
1106.00977	0.04929
1103.95017	0.04922
1101.89056	0.04916
1099.83095	0.04904
1097.77134	0.04895
1095.71173	0.04897
1093.65212	0.04898
1091.59251	0.04890
1089.53291	0.04893
1087.47330	0.04912
1085.41369	0.04928
1083.35408	0.04938
1081.29447	0.04952
1079.23486	0.04969
1077.17525	0.04975
1075.11565	0.04978
1073.05604	0.04976
1070.99643	0.04963
1068.93682	0.04956
1066.87721	0.04961
1064.81760	0.04962
1062.75800	0.04961
1060.69839	0.04974
1058.63878	0.04998
1056.57917	0.05014
1054.51956	0.05023
1052.45995	0.05027
1050.40034	0.05019
1048.34074	0.05008
1046.28113	0.04993
1044.22152	0.04970
1042.16191	0.04957
1040.10230	0.04951
1038.04269	0.04948
1035.98308	0.04948
1033.92348	0.04949
1031.86387	0.04955
1029.80426	0.04969
1027.74465	0.04991
1025.68504	0.05015
1023.62543	0.05030
1021.56582	0.05045
1019.50622	0.05068
1017.44661	0.05088
1015.38700	0.05105
1013.32739	0.05115
1011.26778	0.05115
1009.20817	0.05111
1007.14857	0.05109
1005.08896	0.05115
1003.02935	0.05136
1000.96974	0.05159
998.91013	0.05165
996.85052	0.05167
994.79091	0.05185
992.73131	0.05200
990.67170	0.05211
988.61209	0.05239
986.55248	0.05263
984.49287	0.05276
982.43326	0.05301
980.37365	0.05341
978.31405	0.05383
976.25444	0.05421
974.19483	0.05450
972.13522	0.05477
970.07561	0.05515
968.01600	0.05559
965.95639	0.05603
963.89679	0.05651
961.83718	0.05699
959.77757	0.05754
957.71796	0.05814
955.65835	0.05868
953.59874	0.05921
951.53914	0.05978
949.47953	0.06040
947.41992	0.06101
945.36031	0.06156
943.30070	0.06215
941.24109	0.06285
939.18148	0.06356
937.12188	0.06426
935.06227	0.06500
933.00266	0.06574
930.94305	0.06637
928.88344	0.06701
926.82383	0.06776
924.76422	0.06862
922.70462	0.06955
920.64501	0.07052
918.58540	0.07144
916.52579	0.07230
914.46618	0.07317
912.40657	0.07409
910.34696	0.07513
908.28736	0.07631
906.22775	0.07746
904.16814	0.07847
902.10853	0.07946
900.04892	0.08061
897.98931	0.08188
895.92971	0.08301
893.87010	0.08406
891.81049	0.08529
889.75088	0.08669
887.69127	0.08804
885.63166	0.08934
883.57205	0.09068
881.51245	0.09207
879.45284	0.09356
877.39323	0.09502
875.33362	0.09648
873.27401	0.09789
871.21440	0.09911
869.15479	0.10035
867.09519	0.10188
865.03558	0.10358
862.97597	0.10506
860.91636	0.10638
858.85675	0.10801
856.79714	0.10987
854.73753	0.11154
852.67793	0.11302
850.61832	0.11447
848.55871	0.11598
846.49910	0.11761
844.43949	0.11924
842.37988	0.12079
840.32028	0.12236
838.26067	0.12405
836.20106	0.12574
834.14145	0.12718
832.08184	0.12853
830.02223	0.13017
827.96262	0.13196
825.90302	0.13356
823.84341	0.13512
821.78380	0.13672
819.72419	0.13811
817.66458	0.13952
815.60497	0.14122
813.54536	0.14289
811.48576	0.14447
809.42615	0.14607
807.36654	0.14763
805.30693	0.14915
803.24732	0.15066
801.18771	0.15221
799.12810	0.15389
797.06850	0.15568
795.00889	0.15747
792.94928	0.15905
790.88967	0.16041
788.83006	0.16186
786.77045	0.16349
784.71085	0.16511
782.65124	0.16658
780.59163	0.16796
778.53202	0.16948
776.47241	0.17116
774.41280	0.17271
772.35319	0.17415
770.29359	0.17568
768.23398	0.17715
766.17437	0.17857
764.11476	0.18010
762.05515	0.18156
759.99554	0.18301
757.93593	0.18453
755.87633	0.18605
753.81672	0.18759
751.75711	0.18899
749.69750	0.19025
747.63789	0.19171
745.57828	0.19328
743.51867	0.19469
741.45907	0.19607
739.39946	0.19744
737.33985	0.19874
735.28024	0.20010
733.22063	0.20147
731.16102	0.20275
729.10142	0.20395
727.04181	0.20499
724.98220	0.20601
722.92259	0.20727
720.86298	0.20876
718.80337	0.21016
716.74376	0.21142
714.68416	0.21259
712.62455	0.21382
710.56494	0.21503
708.50533	0.21624
706.44572	0.21750
704.38611	0.21882
702.32650	0.22004
700.26690	0.22097
698.20729	0.22186
696.14768	0.22308
694.08807	0.22451
692.02846	0.22575
689.96885	0.22684
687.90924	0.22797
685.84964	0.22891
683.79003	0.22963
681.73042	0.23052
679.67081	0.23164
677.61120	0.23286
675.55159	0.23412
673.49199	0.23503
671.43238	0.23493
669.37277	0.23486
667.31316	0.23810
665.25355	0.23874
663.19394	0.23936
661.13433	0.24021
659.07473	0.24106
657.01512	0.24183
654.95551	0.24256
652.89590	0.24327
650.83629	0.24392
648.77668	0.24460
646.71707	0.24517
644.65747	0.24572
642.59786	0.24638
640.53825	0.24716
638.47864	0.24813
636.41903	0.24905
634.35942	0.24953
632.29981	0.24984
630.24021	0.25033
628.18060	0.25086
626.12099	0.25136
624.06138	0.25189
622.00177	0.25253
619.94216	0.25330
617.88256	0.25407
615.82295	0.25468
613.76334	0.25490
611.70373	0.25477
609.64412	0.25470
607.58451	0.25492
605.52490	0.25539
603.46530	0.25597
601.40569	0.25648
599.34608	0.25677
597.28647	0.25702
595.22686	0.25737
593.16725	0.25753
591.10764	0.25761
589.04804	0.25793
586.98843	0.25815
584.92882	0.25808
582.86921	0.25799
580.80960	0.25813
578.74999	0.25829
576.69039	0.25816
574.63078	0.25785
572.57117	0.25756
570.51156	0.25741
568.45195	0.25754
566.39234	0.25791
564.33273	0.25833
562.27313	0.25865
560.21352	0.25865
558.15391	0.25815
556.09430	0.25789
554.03469	0.25833
551.97508	0.25876
549.91547	0.25860
547.85587	0.25813
545.79626	0.25776
543.73665	0.25748
541.67704	0.25728
539.61743	0.25739
537.55782	0.25730
535.49821	0.25670
533.43861	0.25621
531.37900	0.25599
529.31939	0.25585
527.25978	0.25580
525.20017	0.25559
523.14056	0.25487
521.08096	0.25384
519.02135	0.25297
516.96174	0.25256
514.90213	0.25224
512.84252	0.25169
510.78291	0.25137
508.72330	0.25127
506.66370	0.25117
504.60409	0.25105
502.54448	0.25059
500.48487	0.24993
498.42526	0.24975
496.36565	0.25004
494.30604	0.24998
492.24644	0.24921
490.18683	0.24822
488.12722	0.24738
486.06761	0.24673
484.00800	0.24613
481.94839	0.24526
479.88878	0.24427
477.82918	0.24339
475.76957	0.24290
473.70996	0.24289
471.65035	0.24279
469.59074	0.24223
467.53113	0.24143
465.47153	0.24055
463.41192	0.23949
461.35231	0.23819
459.29270	0.23696
457.23309	0.23623
455.17348	0.23612
453.11387	0.23643
451.05427	0.23630
448.99466	0.23496
446.93505	0.23294
444.87544	0.23140
442.81583	0.23067
440.75622	0.23043
438.69661	0.23049
436.63701	0.23048
434.57740	0.23012
432.51779	0.22933
430.45818	0.22791
428.39857	0.22607
426.33896	0.22512
424.27935	0.22557
422.21975	0.22580
420.16014	0.22466
418.10053	0.22338
416.04092	0.22287
413.98131	0.22254
411.92170	0.22172
409.86210	0.22011
407.80249	0.21821
405.74288	0.21656
403.68327	0.21531
401.62366	0.21440
399.56405	0.21364
