% Filename : SEC10_00045_00001.h5
% Date & Time : 30-Oct-2025 18:05:27
% X-ray Energy (keV) : 13.30001
% Exposure Time (s) : 0.500
% Beam Center : 1461.24000, 208.98300
% Sample to Detector Distance (SDD) (mm) : 1990.750
% Detector Pixel Size (mm) : 0.075
% Photodiode Value : 141610.000
% I0 of Sample : 0
% I0 of Standard : 1
% 
% q(A^-1)   I(q)    I(q)_SE
0.00000000e+00	8.93064108e-03	4.94116867e-03
2.50000000e-04	0.00000000e+00	0.00000000e+00
5.00000000e-04	0.00000000e+00	0.00000000e+00
7.50000000e-04	0.00000000e+00	0.00000000e+00
1.00000000e-03	0.00000000e+00	0.00000000e+00
1.25000000e-03	0.00000000e+00	0.00000000e+00
1.50000000e-03	0.00000000e+00	0.00000000e+00
1.75000000e-03	0.00000000e+00	0.00000000e+00
2.00000000e-03	0.00000000e+00	0.00000000e+00
2.25000000e-03	0.00000000e+00	0.00000000e+00
2.50000000e-03	0.00000000e+00	0.00000000e+00
2.75000000e-03	0.00000000e+00	0.00000000e+00
3.00000000e-03	0.00000000e+00	0.00000000e+00
3.25000000e-03	1.81728583e+02	1.05386304e+02
3.50000000e-03	2.51627070e+02	5.77550204e+01
3.75000000e-03	2.07275675e+02	3.69195714e+01
4.00000000e-03	1.52718326e+02	2.38014773e+01
4.25000000e-03	1.18879870e+02	1.54546484e+01
4.50000000e-03	9.95890465e+01	1.15451238e+01
4.75000000e-03	8.42554813e+01	9.00142916e+00
5.00000000e-03	6.61715148e+01	6.62273591e+00
5.25000000e-03	5.43529184e+01	5.46333863e+00
5.50000000e-03	4.47633307e+01	4.28913671e+00
5.75000000e-03	3.84274129e+01	3.66346092e+00
6.00000000e-03	3.13975803e+01	2.84298945e+00
6.25000000e-03	2.65750211e+01	2.38606937e+00
6.50000000e-03	2.25869750e+01	1.98516972e+00
6.75000000e-03	1.93667737e+01	1.66283545e+00
7.00000000e-03	1.70381116e+01	1.43495937e+00
7.25000000e-03	1.44735577e+01	1.17632133e+00
7.50000000e-03	1.25929639e+01	1.03275928e+00
7.75000000e-03	1.09574773e+01	8.75814628e-01
8.00000000e-03	9.99280162e+00	7.97976843e-01
8.25000000e-03	8.73548321e+00	6.64918534e-01
8.50000000e-03	7.77477344e+00	5.86179478e-01
8.75000000e-03	7.07743437e+00	5.32177544e-01
9.00000000e-03	6.27239438e+00	4.61806612e-01
9.25000000e-03	5.71139370e+00	4.10030370e-01
9.50000000e-03	5.08118483e+00	3.57706794e-01
9.75000000e-03	4.59626297e+00	3.22258516e-01
1.00000000e-02	4.10492142e+00	2.83776851e-01
1.02500000e-02	3.71373426e+00	2.56079719e-01
1.05000000e-02	3.44754980e+00	2.29578468e-01
1.07500000e-02	3.10205436e+00	2.06098157e-01
1.10000000e-02	2.88184628e+00	1.87463365e-01
1.12500000e-02	2.59925643e+00	1.71966437e-01
1.15000000e-02	2.38087181e+00	1.52943774e-01
1.17500000e-02	2.21797254e+00	1.39113052e-01
1.20000000e-02	2.07515807e+00	1.30998102e-01
1.22500000e-02	1.89786470e+00	1.17671518e-01
1.25000000e-02	1.74913538e+00	1.07748375e-01
1.27500000e-02	1.61131116e+00	9.75382225e-02
1.30000000e-02	1.49567285e+00	8.95431710e-02
1.32500000e-02	1.39973985e+00	8.21400338e-02
1.35000000e-02	1.30568024e+00	7.69209763e-02
1.37500000e-02	1.21408641e+00	7.13656474e-02
1.40000000e-02	1.12597397e+00	6.48661761e-02
1.42500000e-02	1.05641857e+00	5.98858307e-02
1.45000000e-02	9.85796305e-01	5.57453270e-02
1.47500000e-02	9.24743245e-01	5.20196565e-02
1.50000000e-02	8.62081724e-01	4.82613057e-02
1.52500000e-02	8.10222476e-01	4.47696517e-02
1.55000000e-02	7.66460851e-01	4.17572647e-02
1.57500000e-02	7.14424955e-01	3.87657712e-02
1.60000000e-02	6.64755290e-01	3.54643032e-02
1.62500000e-02	6.28480455e-01	3.37972311e-02
1.65000000e-02	5.91114622e-01	3.11852118e-02
1.67500000e-02	5.67946076e-01	2.96233883e-02
1.70000000e-02	5.27862711e-01	2.73231646e-02
1.72500000e-02	5.00250632e-01	2.58491345e-02
1.75000000e-02	4.72432474e-01	2.43118069e-02
1.77500000e-02	4.43196777e-01	2.24294715e-02
1.80000000e-02	4.28827535e-01	2.17624924e-02
1.82500000e-02	4.04916956e-01	1.99486635e-02
1.85000000e-02	3.76295226e-01	1.90284715e-02
1.87500000e-02	3.59707354e-01	1.77015591e-02
1.90000000e-02	3.40855559e-01	1.67756868e-02
1.92500000e-02	3.27254293e-01	1.58785390e-02
1.95000000e-02	3.14608556e-01	1.51975189e-02
1.97500000e-02	2.97718517e-01	1.44516339e-02
2.00000000e-02	2.87371339e-01	1.37820281e-02
2.02500000e-02	2.70906803e-01	1.28711679e-02
2.05000000e-02	2.61475132e-01	1.22081460e-02
2.07500000e-02	2.48472173e-01	1.16029385e-02
2.10000000e-02	2.33696768e-01	1.09959436e-02
2.12500000e-02	2.25189034e-01	1.06489066e-02
2.15000000e-02	2.16759750e-01	1.01537671e-02
2.17500000e-02	2.08829740e-01	9.89906281e-03
2.20000000e-02	2.01543802e-01	9.58693781e-03
2.22500000e-02	1.93437667e-01	9.12181447e-03
2.25000000e-02	1.87193850e-01	8.96692524e-03
2.27500000e-02	1.77761591e-01	8.40367258e-03
2.30000000e-02	1.75680622e-01	8.34933108e-03
2.32500000e-02	1.68463316e-01	7.93235313e-03
2.35000000e-02	1.60993103e-01	7.69040698e-03
2.37500000e-02	1.52194391e-01	7.19950028e-03
2.40000000e-02	1.48236716e-01	7.06536476e-03
2.42500000e-02	1.45748484e-01	6.89193681e-03
2.45000000e-02	1.39776872e-01	6.60348245e-03
2.47500000e-02	1.33676459e-01	6.24512601e-03
2.50000000e-02	1.31923790e-01	6.19160636e-03
2.52500000e-02	1.26204979e-01	5.98206610e-03
2.55000000e-02	1.22742544e-01	5.67066176e-03
2.57500000e-02	1.19249016e-01	5.53958168e-03
2.60000000e-02	1.15450651e-01	5.34137133e-03
2.62500000e-02	1.12362519e-01	5.26069463e-03
2.65000000e-02	1.08254205e-01	5.01645034e-03
2.67500000e-02	1.05683169e-01	4.84346155e-03
2.70000000e-02	1.02653352e-01	4.73216193e-03
2.72500000e-02	9.69769152e-02	4.42432966e-03
2.75000000e-02	9.69303479e-02	4.49435397e-03
2.77500000e-02	9.32415858e-02	4.32333592e-03
2.80000000e-02	9.14868721e-02	4.12507418e-03
2.82500000e-02	8.98510763e-02	4.07517077e-03
2.85000000e-02	8.74985436e-02	3.98124151e-03
2.87500000e-02	8.57367992e-02	3.90463933e-03
2.90000000e-02	8.32924397e-02	3.79686913e-03
2.92500000e-02	8.10747869e-02	3.59170600e-03
2.95000000e-02	8.13693901e-02	3.68517030e-03
2.97500000e-02	7.82261931e-02	3.51754882e-03
3.00000000e-02	7.65557825e-02	3.44675373e-03
3.02500000e-02	7.27983127e-02	3.28101866e-03
3.05000000e-02	7.28895557e-02	3.22263098e-03
3.07500000e-02	7.19192354e-02	3.20881761e-03
3.10000000e-02	7.00759909e-02	3.12177048e-03
3.12500000e-02	6.74520107e-02	3.03160312e-03
3.15000000e-02	6.65929157e-02	2.96103011e-03
3.17500000e-02	6.62634113e-02	2.89341270e-03
3.20000000e-02	6.39069909e-02	2.83154085e-03
3.22500000e-02	6.23947676e-02	2.77227309e-03
3.25000000e-02	6.06770666e-02	2.69846790e-03
3.27500000e-02	5.98812127e-02	2.63487786e-03
3.30000000e-02	5.87763356e-02	2.56391639e-03
3.32500000e-02	5.51100813e-02	2.41945706e-03
3.35000000e-02	5.62377563e-02	2.48679230e-03
3.37500000e-02	5.63367313e-02	2.46195307e-03
3.40000000e-02	5.52492813e-02	2.42513579e-03
3.42500000e-02	5.43070495e-02	2.35423286e-03
3.45000000e-02	5.29482924e-02	2.31688482e-03
3.47500000e-02	5.30121696e-02	2.31051917e-03
3.50000000e-02	5.11678549e-02	2.22413782e-03
3.52500000e-02	5.01538380e-02	2.17456588e-03
3.55000000e-02	5.04855327e-02	2.15857656e-03
3.57500000e-02	4.90981767e-02	2.12359642e-03
3.60000000e-02	4.79683686e-02	2.07272545e-03
3.62500000e-02	4.78534907e-02	2.07397937e-03
3.65000000e-02	4.59282615e-02	1.98039716e-03
3.67500000e-02	4.62418821e-02	1.97607957e-03
3.70000000e-02	4.48283488e-02	1.92495124e-03
3.72500000e-02	4.36936586e-02	1.86653347e-03
3.75000000e-02	4.36376253e-02	1.88443143e-03
3.77500000e-02	4.22958374e-02	1.80802686e-03
3.80000000e-02	4.25753610e-02	1.80341808e-03
3.82500000e-02	4.28381565e-02	1.81289962e-03
3.85000000e-02	4.23480739e-02	1.80605930e-03
3.87500000e-02	4.05238947e-02	1.69875786e-03
3.90000000e-02	4.03773709e-02	1.71588843e-03
3.92500000e-02	4.03519099e-02	1.69207504e-03
3.95000000e-02	3.98354368e-02	1.67922597e-03
3.97500000e-02	3.90411971e-02	1.64726863e-03
4.00000000e-02	3.88076418e-02	1.63639653e-03
4.02500000e-02	3.80763811e-02	1.59413451e-03
4.05000000e-02	3.77109782e-02	1.57052123e-03
4.07500000e-02	3.75229769e-02	1.55143784e-03
4.10000000e-02	3.74656630e-02	1.56207812e-03
4.12500000e-02	3.60689818e-02	1.50508760e-03
4.15000000e-02	3.66212884e-02	1.51782981e-03
4.17500000e-02	3.63081427e-02	1.50473341e-03
4.20000000e-02	3.57048221e-02	1.46218274e-03
4.22500000e-02	3.59313858e-02	1.46847147e-03
4.25000000e-02	3.48659058e-02	1.43409593e-03
4.27500000e-02	3.51208421e-02	1.43728154e-03
4.30000000e-02	3.45157940e-02	1.41649376e-03
4.32500000e-02	3.36736366e-02	1.37676207e-03
4.35000000e-02	3.42493426e-02	1.40861378e-03
4.37500000e-02	3.28275270e-02	1.32915533e-03
4.40000000e-02	3.36231588e-02	1.37143279e-03
4.42500000e-02	3.35691624e-02	1.36919188e-03
4.45000000e-02	3.24471090e-02	1.31085193e-03
4.47500000e-02	3.20423198e-02	1.29471315e-03
4.50000000e-02	3.19799673e-02	1.29047825e-03
4.52500000e-02	3.22436319e-02	1.30580584e-03
4.55000000e-02	3.19384389e-02	1.28456521e-03
4.57500000e-02	3.17970924e-02	1.27854275e-03
4.60000000e-02	3.06922396e-02	1.24136927e-03
4.62500000e-02	3.10371069e-02	1.24719248e-03
4.65000000e-02	3.11437527e-02	1.24424311e-03
4.67500000e-02	2.99549289e-02	1.19729776e-03
4.70000000e-02	2.98740751e-02	1.19014736e-03
4.72500000e-02	3.05656188e-02	1.21639367e-03
4.75000000e-02	3.04211460e-02	1.21574663e-03
4.77500000e-02	3.03912611e-02	1.20791603e-03
4.80000000e-02	2.93556854e-02	1.16500044e-03
4.82500000e-02	2.99665704e-02	1.18627517e-03
4.85000000e-02	2.95565046e-02	1.18887117e-03
4.87500000e-02	2.92908285e-02	1.15355930e-03
4.90000000e-02	2.93206708e-02	1.14483980e-03
4.92500000e-02	2.89174378e-02	1.12632598e-03
4.95000000e-02	2.85580387e-02	1.12552353e-03
4.97500000e-02	2.82042875e-02	1.11159664e-03
5.00000000e-02	2.89577053e-02	1.14035585e-03
5.02500000e-02	2.82634395e-02	1.10007918e-03
5.05000000e-02	2.83486920e-02	1.09456771e-03
5.07500000e-02	2.76969773e-02	1.08500398e-03
5.10000000e-02	2.85592496e-02	1.10858847e-03
5.12500000e-02	2.78882850e-02	1.08989688e-03
5.15000000e-02	2.76781649e-02	1.06304648e-03
5.17500000e-02	2.73379038e-02	1.05704641e-03
5.20000000e-02	2.74320024e-02	1.05516937e-03
5.22500000e-02	2.72937660e-02	1.05791963e-03
5.25000000e-02	2.72645101e-02	1.04700467e-03
5.27500000e-02	2.76490933e-02	1.05705702e-03
5.30000000e-02	2.63501979e-02	1.01854413e-03
5.32500000e-02	2.64040184e-02	1.01643109e-03
5.35000000e-02	2.69601581e-02	1.03301998e-03
5.37500000e-02	2.69964700e-02	1.02796412e-03
5.40000000e-02	2.63976150e-02	1.00959557e-03
5.42500000e-02	2.59377150e-02	9.83328814e-04
5.45000000e-02	2.58763802e-02	9.85052316e-04
5.47500000e-02	2.59732616e-02	9.86236782e-04
5.50000000e-02	2.55999808e-02	9.72146914e-04
5.52500000e-02	2.60737768e-02	9.89014529e-04
5.55000000e-02	2.62246627e-02	9.82667767e-04
5.57500000e-02	2.57580579e-02	9.76912284e-04
5.60000000e-02	2.56534790e-02	9.58462903e-04
5.62500000e-02	2.52763204e-02	9.55879742e-04
5.65000000e-02	2.48964917e-02	9.24903400e-04
5.67500000e-02	2.52083826e-02	9.49430878e-04
5.70000000e-02	2.57700551e-02	9.58283192e-04
5.72500000e-02	2.45945641e-02	9.23477406e-04
5.75000000e-02	2.48092493e-02	9.35917868e-04
5.77500000e-02	2.47884334e-02	9.20500772e-04
5.80000000e-02	2.41880458e-02	9.05510078e-04
5.82500000e-02	2.47880660e-02	9.15060997e-04
5.85000000e-02	2.43593172e-02	9.08386778e-04
5.87500000e-02	2.52459053e-02	9.24714144e-04
5.90000000e-02	2.43357920e-02	9.02591914e-04
5.92500000e-02	2.43014488e-02	9.01757937e-04
5.95000000e-02	2.41549092e-02	8.91478437e-04
5.97500000e-02	2.41507144e-02	8.95910990e-04
6.00000000e-02	2.42719702e-02	8.91985036e-04
6.02500000e-02	2.40805497e-02	8.83718331e-04
6.05000000e-02	2.43381602e-02	8.94203148e-04
6.07500000e-02	2.44970674e-02	8.97054456e-04
6.10000000e-02	2.50498711e-02	9.08520896e-04
6.12500000e-02	2.43709263e-02	8.84855337e-04
6.15000000e-02	2.44325724e-02	8.89126779e-04
6.17500000e-02	2.36694411e-02	8.58073432e-04
6.20000000e-02	2.36748916e-02	8.57954201e-04
6.22500000e-02	2.45225852e-02	8.85128324e-04
6.25000000e-02	2.40592539e-02	8.69315246e-04
6.27500000e-02	2.34495586e-02	8.48105813e-04
6.30000000e-02	2.37596469e-02	8.56165874e-04
6.32500000e-02	2.31463469e-02	8.36761079e-04
6.35000000e-02	2.36822644e-02	8.47763659e-04
6.37500000e-02	2.36690558e-02	8.56019035e-04
6.40000000e-02	2.34134183e-02	8.41109961e-04
6.42500000e-02	2.32991029e-02	8.37382971e-04
6.45000000e-02	2.31116015e-02	8.27520061e-04
6.47500000e-02	2.35098496e-02	8.38002258e-04
6.50000000e-02	2.38292424e-02	8.54699060e-04
6.52500000e-02	2.32625466e-02	8.34300066e-04
6.55000000e-02	2.28543661e-02	8.13085713e-04
6.57500000e-02	2.30803166e-02	8.22968487e-04
6.60000000e-02	2.32127352e-02	8.24061582e-04
6.62500000e-02	2.21080777e-02	7.85563979e-04
6.65000000e-02	2.34901717e-02	8.24896798e-04
6.67500000e-02	2.28602676e-02	8.00286070e-04
6.70000000e-02	2.26042867e-02	8.02309606e-04
6.72500000e-02	2.29333899e-02	8.13812386e-04
6.75000000e-02	2.25973499e-02	7.89942771e-04
6.77500000e-02	2.30085152e-02	8.07987433e-04
6.80000000e-02	2.26517929e-02	7.98242177e-04
6.82500000e-02	2.28697764e-02	7.99338389e-04
6.85000000e-02	2.19107305e-02	7.75421415e-04
6.87500000e-02	2.21791096e-02	7.80113690e-04
6.90000000e-02	2.33037087e-02	8.08383728e-04
6.92500000e-02	2.25522408e-02	7.89043919e-04
6.95000000e-02	2.22582183e-02	7.87880137e-04
6.97500000e-02	2.23109567e-02	7.75608887e-04
7.00000000e-02	2.22388327e-02	7.68119110e-04
7.02500000e-02	2.19073826e-02	7.53872414e-04
7.05000000e-02	2.18687355e-02	7.59444698e-04
7.07500000e-02	2.23262492e-02	7.71557350e-04
7.10000000e-02	2.23876471e-02	7.72578832e-04
7.12500000e-02	2.18120204e-02	7.54063585e-04
7.15000000e-02	2.24855464e-02	7.61428285e-04
7.17500000e-02	2.25577712e-02	7.66981873e-04
7.20000000e-02	2.20728433e-02	7.63146943e-04
7.22500000e-02	2.23258623e-02	7.65539386e-04
7.25000000e-02	2.16106541e-02	7.46717688e-04
7.27500000e-02	2.16630965e-02	7.43439191e-04
7.30000000e-02	2.20920205e-02	7.57193744e-04
7.32500000e-02	2.16924899e-02	7.37302813e-04
7.35000000e-02	2.20864291e-02	7.50080974e-04
7.37500000e-02	2.19323421e-02	7.51590309e-04
7.40000000e-02	2.20613475e-02	7.50618017e-04
7.42500000e-02	2.18204314e-02	7.38457121e-04
7.45000000e-02	2.18850148e-02	7.37238627e-04
7.47500000e-02	2.12824359e-02	7.17171783e-04
7.50000000e-02	2.12213445e-02	7.19092375e-04
7.52500000e-02	2.18612341e-02	7.36921770e-04
7.55000000e-02	2.20668251e-02	7.41996285e-04
7.57500000e-02	2.14828033e-02	7.22518844e-04
7.60000000e-02	2.16778712e-02	7.29638894e-04
7.62500000e-02	2.15530073e-02	7.29013294e-04
7.65000000e-02	2.22975377e-02	7.46479535e-04
7.67500000e-02	2.16104605e-02	7.16642201e-04
7.70000000e-02	2.16220221e-02	7.18962247e-04
7.72500000e-02	2.21317281e-02	7.50005790e-04
7.75000000e-02	2.18679806e-02	7.49222657e-04
7.77500000e-02	2.18138394e-02	7.50431208e-04
7.80000000e-02	2.18927020e-02	7.58825155e-04
7.82500000e-02	2.16276783e-02	7.50922958e-04
7.85000000e-02	2.23758543e-02	7.82677469e-04
7.87500000e-02	2.22576903e-02	7.83831725e-04
7.90000000e-02	2.11480193e-02	7.46981299e-04
7.92500000e-02	2.19208785e-02	7.79604884e-04
7.95000000e-02	2.14628756e-02	7.64126896e-04
7.97500000e-02	2.17739550e-02	7.75034116e-04
8.00000000e-02	2.11760693e-02	7.53941105e-04
8.02500000e-02	2.10647622e-02	7.53045020e-04
8.05000000e-02	2.13344572e-02	7.65624592e-04
8.07500000e-02	2.19784233e-02	7.92488304e-04
8.10000000e-02	2.13339013e-02	7.65500530e-04
8.12500000e-02	2.15277068e-02	7.74143127e-04
8.15000000e-02	2.13294991e-02	7.60367096e-04
8.17500000e-02	2.20668360e-02	8.00829251e-04
8.20000000e-02	2.14363039e-02	7.69014831e-04
8.22500000e-02	2.17228207e-02	7.82566064e-04
8.25000000e-02	2.05468296e-02	7.48830764e-04
8.27500000e-02	2.15275336e-02	7.81007566e-04
8.30000000e-02	2.13579649e-02	7.76707872e-04
8.32500000e-02	2.14805327e-02	7.87386312e-04
8.35000000e-02	2.09172781e-02	7.78172769e-04
8.37500000e-02	2.11194678e-02	7.60287261e-04
8.40000000e-02	2.11163620e-02	7.65773670e-04
8.42500000e-02	2.12580546e-02	7.79259095e-04
8.45000000e-02	2.07044108e-02	7.62007469e-04
8.47500000e-02	2.12085245e-02	7.76810132e-04
8.50000000e-02	2.12131741e-02	7.80501935e-04
8.52500000e-02	2.17603884e-02	7.98465960e-04
8.55000000e-02	2.12434295e-02	7.75834459e-04
8.57500000e-02	2.10787996e-02	7.72449239e-04
8.60000000e-02	2.14000017e-02	7.85337891e-04
8.62500000e-02	2.09677101e-02	7.66356220e-04
8.65000000e-02	2.06854656e-02	7.59412035e-04
8.67500000e-02	2.14696261e-02	7.86592589e-04
8.70000000e-02	2.14998225e-02	7.83465083e-04
8.72500000e-02	2.17328597e-02	7.71855810e-04
8.75000000e-02	2.14070654e-02	7.49387240e-04
8.77500000e-02	2.09152471e-02	7.34756796e-04
8.80000000e-02	2.10960144e-02	7.40672681e-04
8.82500000e-02	2.12173729e-02	7.31405473e-04
8.85000000e-02	2.12612715e-02	7.40558046e-04
8.87500000e-02	2.09907886e-02	7.13698297e-04
8.90000000e-02	2.13165704e-02	7.30020103e-04
8.92500000e-02	2.16691658e-02	7.43381033e-04
8.95000000e-02	2.07790320e-02	7.04436035e-04
8.97500000e-02	2.15652551e-02	7.28685748e-04
9.00000000e-02	2.09960532e-02	7.04849044e-04
9.02500000e-02	2.12586893e-02	7.15803166e-04
9.05000000e-02	2.08301170e-02	7.01625023e-04
9.07500000e-02	2.06980377e-02	6.97173386e-04
9.10000000e-02	2.13676099e-02	7.11456990e-04
9.12500000e-02	2.11194008e-02	7.03406632e-04
9.15000000e-02	2.10344000e-02	7.06547137e-04
9.17500000e-02	2.04550948e-02	6.81350540e-04
9.20000000e-02	2.06873117e-02	6.83388364e-04
9.22500000e-02	2.08535776e-02	6.90803644e-04
9.25000000e-02	2.09344168e-02	6.88536464e-04
9.27500000e-02	2.13042527e-02	6.96919101e-04
9.30000000e-02	2.05959282e-02	6.77763201e-04
9.32500000e-02	2.04495644e-02	6.76250240e-04
9.35000000e-02	2.07979998e-02	6.83998294e-04
9.37500000e-02	2.05236086e-02	6.69036218e-04
9.40000000e-02	2.09816686e-02	6.88707917e-04
9.42500000e-02	2.04131144e-02	6.68900918e-04
9.45000000e-02	2.06876303e-02	6.74182914e-04
9.47500000e-02	2.08249961e-02	6.79096147e-04
9.50000000e-02	2.04548500e-02	6.68795545e-04
9.52500000e-02	2.09083013e-02	6.75518906e-04
9.55000000e-02	2.08932514e-02	6.73709357e-04
9.57500000e-02	2.09133786e-02	6.72382420e-04
9.60000000e-02	2.00817771e-02	6.52430582e-04
9.62500000e-02	2.08776599e-02	6.74244152e-04
9.65000000e-02	2.07587294e-02	6.62994907e-04
9.67500000e-02	2.14635283e-02	6.88325789e-04
9.70000000e-02	2.11319642e-02	6.78408140e-04
9.72500000e-02	2.01813033e-02	6.43860165e-04
9.75000000e-02	2.07682465e-02	6.63213112e-04
9.77500000e-02	2.06872696e-02	6.52936265e-04
9.80000000e-02	2.09133251e-02	6.65548912e-04
9.82500000e-02	2.06706135e-02	6.60802263e-04
9.85000000e-02	2.08361130e-02	6.57883342e-04
9.87500000e-02	2.03045326e-02	6.46044029e-04
9.90000000e-02	2.07636900e-02	6.52594325e-04
9.92500000e-02	2.02771218e-02	6.46178230e-04
9.95000000e-02	2.01343684e-02	6.31453853e-04
9.97500000e-02	2.06537753e-02	6.52531153e-04
1.00000000e-01	2.01968799e-02	5.18796226e-04
1.00500000e-01	2.06371295e-02	4.59468641e-04
1.01000000e-01	2.03188122e-02	4.48281124e-04
1.01500000e-01	2.06801548e-02	4.54523094e-04
1.02000000e-01	2.07814607e-02	4.55486832e-04
1.02500000e-01	2.05862487e-02	4.50352709e-04
1.03000000e-01	2.05151157e-02	4.47649480e-04
1.03500000e-01	2.04476322e-02	4.45381536e-04
1.04000000e-01	2.05976256e-02	4.47444026e-04
1.04500000e-01	2.02714395e-02	4.39619174e-04
1.05000000e-01	2.04846954e-02	4.41700556e-04
1.05500000e-01	2.06348199e-02	4.42641250e-04
1.06000000e-01	2.05770221e-02	4.42938992e-04
1.06500000e-01	2.06927715e-02	4.43697121e-04
1.07000000e-01	2.01204142e-02	4.36501296e-04
1.07500000e-01	2.04025053e-02	4.50044504e-04
1.08000000e-01	2.02192144e-02	4.50233363e-04
1.08500000e-01	2.04815753e-02	4.60151756e-04
1.09000000e-01	2.00761041e-02	4.52991012e-04
1.09500000e-01	2.03007240e-02	4.61756633e-04
1.10000000e-01	2.03699445e-02	4.56497085e-04
1.10500000e-01	2.00793514e-02	4.40922056e-04
1.11000000e-01	2.04557798e-02	4.41340402e-04
1.11500000e-01	1.99610569e-02	4.29055122e-04
1.12000000e-01	2.04605651e-02	4.34314715e-04
1.12500000e-01	2.02957279e-02	4.31392079e-04
1.13000000e-01	1.99077044e-02	4.21890006e-04
1.13500000e-01	2.01717174e-02	4.26103056e-04
1.14000000e-01	2.04022943e-02	4.27948848e-04
1.14500000e-01	2.03696795e-02	4.24836573e-04
1.15000000e-01	2.02569319e-02	4.20149478e-04
1.15500000e-01	2.03128353e-02	4.22728029e-04
1.16000000e-01	2.00249775e-02	4.14650024e-04
1.16500000e-01	2.01630813e-02	4.17368510e-04
1.17000000e-01	2.02030892e-02	4.19439863e-04
1.17500000e-01	2.05558143e-02	4.22338941e-04
1.18000000e-01	2.03163033e-02	4.18689040e-04
1.18500000e-01	2.03455515e-02	4.15583506e-04
1.19000000e-01	2.03190880e-02	4.16085700e-04
1.19500000e-01	1.99585034e-02	4.05153230e-04
1.20000000e-01	2.01672595e-02	4.13128893e-04
1.20500000e-01	2.00796809e-02	4.06469781e-04
1.21000000e-01	2.00839989e-02	4.06013082e-04
1.21500000e-01	2.02827810e-02	4.10281965e-04
1.22000000e-01	2.01356694e-02	4.05173802e-04
1.22500000e-01	2.00640472e-02	4.03262818e-04
1.23000000e-01	2.03257205e-02	4.08541259e-04
1.23500000e-01	2.04792815e-02	4.11855086e-04
1.24000000e-01	2.02086238e-02	4.04717379e-04
1.24500000e-01	2.01909023e-02	4.00714263e-04
1.25000000e-01	2.01658710e-02	4.00409151e-04
1.25500000e-01	2.01990873e-02	4.01558020e-04
1.26000000e-01	2.01873847e-02	4.00099550e-04
1.26500000e-01	2.01204561e-02	3.98322339e-04
1.27000000e-01	2.00435126e-02	3.95375711e-04
1.27500000e-01	2.01173927e-02	3.94840124e-04
1.28000000e-01	2.00229328e-02	3.93414112e-04
1.28500000e-01	2.01065940e-02	3.95985854e-04
1.29000000e-01	2.02542917e-02	3.98992657e-04
1.29500000e-01	1.99942753e-02	3.89740511e-04
1.30000000e-01	2.00016671e-02	3.89574072e-04
1.30500000e-01	1.99047549e-02	3.87205106e-04
1.31000000e-01	2.02468492e-02	3.93680040e-04
1.31500000e-01	2.04111733e-02	3.94399729e-04
1.32000000e-01	2.02567433e-02	3.92909159e-04
1.32500000e-01	1.99081970e-02	3.83236815e-04
1.33000000e-01	2.01768297e-02	3.87892825e-04
1.33500000e-01	1.99244426e-02	3.81757049e-04
1.34000000e-01	2.01946581e-02	3.84993222e-04
1.34500000e-01	2.03952189e-02	3.89153552e-04
1.35000000e-01	2.02311441e-02	3.83484482e-04
1.35500000e-01	1.99604954e-02	3.79730430e-04
1.36000000e-01	2.04436495e-02	3.85285406e-04
1.36500000e-01	2.01342212e-02	3.81978094e-04
1.37000000e-01	2.00250376e-02	3.76751777e-04
1.37500000e-01	2.01428387e-02	3.80603616e-04
1.38000000e-01	2.01141072e-02	3.79176757e-04
1.38500000e-01	2.01829243e-02	3.77043443e-04
1.39000000e-01	2.01184682e-02	3.77648271e-04
1.39500000e-01	1.99685361e-02	3.74703128e-04
1.40000000e-01	2.00476222e-02	3.77688668e-04
1.40500000e-01	2.02563115e-02	3.79355493e-04
1.41000000e-01	2.00506029e-02	3.76869892e-04
1.41500000e-01	1.98263280e-02	3.72361515e-04
1.42000000e-01	1.94719027e-02	3.62300709e-04
1.42500000e-01	1.99975376e-02	3.73216949e-04
1.43000000e-01	2.00291018e-02	3.73691446e-04
1.43500000e-01	1.96421492e-02	3.66736394e-04
1.44000000e-01	1.99010579e-02	3.70126468e-04
1.44500000e-01	1.99513707e-02	3.67097380e-04
1.45000000e-01	1.98904389e-02	3.69397544e-04
1.45500000e-01	1.98934021e-02	3.67971397e-04
1.46000000e-01	1.97347971e-02	3.63470656e-04
1.46500000e-01	1.97564220e-02	3.63766203e-04
1.47000000e-01	1.97572440e-02	3.64838935e-04
1.47500000e-01	1.95223668e-02	3.57370176e-04
1.48000000e-01	1.97612359e-02	3.62343209e-04
1.48500000e-01	1.98612733e-02	3.63179020e-04
1.49000000e-01	1.99038365e-02	3.61681574e-04
1.49500000e-01	2.00276314e-02	3.63879422e-04
1.50000000e-01	1.95940735e-02	3.55375366e-04
1.50500000e-01	1.97409387e-02	3.61701955e-04
1.51000000e-01	1.92932194e-02	3.49620599e-04
1.51500000e-01	1.97785636e-02	3.57629233e-04
1.52000000e-01	1.94487728e-02	3.49703333e-04
1.52500000e-01	1.95140735e-02	3.51154350e-04
1.53000000e-01	1.94744983e-02	3.50513731e-04
1.53500000e-01	1.98705188e-02	3.54832150e-04
1.54000000e-01	1.94153265e-02	3.48675784e-04
1.54500000e-01	1.96852295e-02	3.57099472e-04
1.55000000e-01	1.96441132e-02	3.61263116e-04
1.55500000e-01	1.98126876e-02	3.67913873e-04
1.56000000e-01	1.97780489e-02	3.68996324e-04
1.56500000e-01	1.97800393e-02	3.69665428e-04
1.57000000e-01	1.95145525e-02	3.66097425e-04
1.57500000e-01	1.92521483e-02	3.53955378e-04
1.58000000e-01	1.95206684e-02	3.53365448e-04
1.58500000e-01	1.97757135e-02	3.55268206e-04
1.59000000e-01	1.93570859e-02	3.46286495e-04
1.59500000e-01	1.92545730e-02	3.44609681e-04
1.60000000e-01	1.94375183e-02	3.48919112e-04
1.60500000e-01	1.92606925e-02	3.43610027e-04
1.61000000e-01	1.91943686e-02	3.41654099e-04
1.61500000e-01	1.90582850e-02	3.37643768e-04
1.62000000e-01	1.95242467e-02	3.46531227e-04
1.62500000e-01	1.92775294e-02	3.40419416e-04
1.63000000e-01	1.93082127e-02	3.39888909e-04
1.63500000e-01	1.92639748e-02	3.40358654e-04
1.64000000e-01	1.91156031e-02	3.36732543e-04
1.64500000e-01	1.94367824e-02	3.41005977e-04
1.65000000e-01	1.92992618e-02	3.37903482e-04
1.65500000e-01	1.94840844e-02	3.40023921e-04
1.66000000e-01	1.95707727e-02	3.41156127e-04
1.66500000e-01	1.92382390e-02	3.35703054e-04
1.67000000e-01	1.92859828e-02	3.36517344e-04
1.67500000e-01	1.91246261e-02	3.31999260e-04
1.68000000e-01	1.95129112e-02	3.40101017e-04
1.68500000e-01	1.92535592e-02	3.32568382e-04
1.69000000e-01	1.92373952e-02	3.32859353e-04
1.69500000e-01	1.92736918e-02	3.32463022e-04
1.70000000e-01	1.92770218e-02	3.32245595e-04
1.70500000e-01	1.93788493e-02	3.34122937e-04
1.71000000e-01	1.91494851e-02	3.28545305e-04
1.71500000e-01	1.92255094e-02	3.28137940e-04
1.72000000e-01	1.91164036e-02	3.27478692e-04
1.72500000e-01	1.94884603e-02	3.33519312e-04
1.73000000e-01	1.89872056e-02	3.24415314e-04
1.73500000e-01	1.91945840e-02	3.25945912e-04
1.74000000e-01	1.91697414e-02	3.25292481e-04
1.74500000e-01	1.92503699e-02	3.25258689e-04
1.75000000e-01	1.92680973e-02	3.24556921e-04
1.75500000e-01	1.89920304e-02	3.20296333e-04
1.76000000e-01	1.89051779e-02	3.18264064e-04
1.76500000e-01	1.91773833e-02	3.22637120e-04
1.77000000e-01	1.90867956e-02	3.19771603e-04
1.77500000e-01	1.92573801e-02	3.23272652e-04
1.78000000e-01	1.89316130e-02	3.17290178e-04
1.78500000e-01	1.93912821e-02	3.24174539e-04
1.79000000e-01	1.90826482e-02	3.18469839e-04
1.79500000e-01	1.89372747e-02	3.16728733e-04
1.80000000e-01	1.91764228e-02	3.21377805e-04
1.80500000e-01	1.89263941e-02	3.16856158e-04
1.81000000e-01	1.89905594e-02	3.17660220e-04
1.81500000e-01	1.88460004e-02	3.14789595e-04
1.82000000e-01	1.90003189e-02	3.18407763e-04
1.82500000e-01	1.93405494e-02	3.20464823e-04
1.83000000e-01	1.89171315e-02	3.14486404e-04
1.83500000e-01	1.87760772e-02	3.11444500e-04
1.84000000e-01	1.89711723e-02	3.14670447e-04
1.84500000e-01	1.88341862e-02	3.12240310e-04
1.85000000e-01	1.89382268e-02	3.14477573e-04
1.85500000e-01	1.88362925e-02	3.10906306e-04
1.86000000e-01	1.89602383e-02	3.12637794e-04
1.86500000e-01	1.88056781e-02	3.08812372e-04
1.87000000e-01	1.86591043e-02	3.06847372e-04
1.87500000e-01	1.88999845e-02	3.09870105e-04
1.88000000e-01	1.89667651e-02	3.09921705e-04
1.88500000e-01	1.86519924e-02	3.05835144e-04
1.89000000e-01	1.88872873e-02	3.08948819e-04
1.89500000e-01	1.89093053e-02	3.09434071e-04
1.90000000e-01	1.88084669e-02	3.06050288e-04
1.90500000e-01	1.89819421e-02	3.09326418e-04
1.91000000e-01	1.86315622e-02	3.03703222e-04
1.91500000e-01	1.87133190e-02	3.04980732e-04
1.92000000e-01	1.85289935e-02	3.02502283e-04
1.92500000e-01	1.87251745e-02	3.04479667e-04
1.93000000e-01	1.87553265e-02	3.03813345e-04
1.93500000e-01	1.89216075e-02	3.05601139e-04
1.94000000e-01	1.87765955e-02	3.03119017e-04
1.94500000e-01	1.87812873e-02	3.03179642e-04
1.95000000e-01	1.87694213e-02	3.03623461e-04
1.95500000e-01	1.85318431e-02	2.98775005e-04
1.96000000e-01	1.89834857e-02	3.04398621e-04
1.96500000e-01	1.85798026e-02	2.98509802e-04
1.97000000e-01	1.85521601e-02	2.97005066e-04
1.97500000e-01	1.88692631e-02	3.02092562e-04
1.98000000e-01	1.86565157e-02	2.99446159e-04
1.98500000e-01	1.86660349e-02	2.96859063e-04
1.99000000e-01	1.87923172e-02	3.00480283e-04
1.99500000e-01	1.88962072e-02	2.99888707e-04
2.00000000e-01	1.85617335e-02	2.96391640e-04
2.00500000e-01	1.84533041e-02	2.93957520e-04
2.01000000e-01	1.85124736e-02	2.95928793e-04
2.01500000e-01	1.85110420e-02	2.95002496e-04
2.02000000e-01	1.86508053e-02	2.95490354e-04
2.02500000e-01	1.84921703e-02	2.91837805e-04
2.03000000e-01	1.83484533e-02	2.91519207e-04
2.03500000e-01	1.85999734e-02	2.93933383e-04
2.04000000e-01	1.84107691e-02	2.91267134e-04
2.04500000e-01	1.87373881e-02	2.95275158e-04
2.05000000e-01	1.85073316e-02	2.89956351e-04
2.05500000e-01	1.86558436e-02	2.91763993e-04
2.06000000e-01	1.84184151e-02	2.89115162e-04
2.06500000e-01	1.85086743e-02	2.91133661e-04
2.07000000e-01	1.83290899e-02	2.86113732e-04
2.07500000e-01	1.86548155e-02	2.90932671e-04
2.08000000e-01	1.88037198e-02	2.94845633e-04
2.08500000e-01	1.85530928e-02	2.88732038e-04
2.09000000e-01	1.83797508e-02	2.88138198e-04
2.09500000e-01	1.82127494e-02	2.84410455e-04
2.10000000e-01	1.84349653e-02	2.87323399e-04
2.10500000e-01	1.82652698e-02	2.84809460e-04
2.11000000e-01	1.85654141e-02	2.86466107e-04
2.11500000e-01	1.83321378e-02	2.85001984e-04
2.12000000e-01	1.85580074e-02	2.87525871e-04
2.12500000e-01	1.83378372e-02	2.83506054e-04
2.13000000e-01	1.83274072e-02	2.83404995e-04
2.13500000e-01	1.83709870e-02	2.82892194e-04
2.14000000e-01	1.83469285e-02	2.83258857e-04
2.14500000e-01	1.81673183e-02	2.78712530e-04
2.15000000e-01	1.83685032e-02	2.84235343e-04
2.15500000e-01	1.84062247e-02	2.80784139e-04
2.16000000e-01	1.85039990e-02	2.83825798e-04
2.16500000e-01	1.84356476e-02	2.81514679e-04
2.17000000e-01	1.81955070e-02	2.82322951e-04
2.17500000e-01	1.83314601e-02	2.89513437e-04
2.18000000e-01	1.83327502e-02	2.90654121e-04
2.18500000e-01	1.83816201e-02	2.93680691e-04
2.19000000e-01	1.83338546e-02	2.94723854e-04
2.19500000e-01	1.82451439e-02	2.91960878e-04
2.20000000e-01	1.85068175e-02	2.98865556e-04
2.20500000e-01	1.81585234e-02	2.93781563e-04
2.21000000e-01	1.81906078e-02	2.94729050e-04
2.21500000e-01	1.80933026e-02	2.95442551e-04
2.22000000e-01	1.82609482e-02	2.95597863e-04
2.22500000e-01	1.81363650e-02	2.95241196e-04
2.23000000e-01	1.81099792e-02	2.96157371e-04
2.23500000e-01	1.83009604e-02	3.00445656e-04
2.24000000e-01	1.83184538e-02	3.00229201e-04
2.24500000e-01	1.79672798e-02	2.95408819e-04
2.25000000e-01	1.82390136e-02	3.01915956e-04
2.25500000e-01	1.83885288e-02	3.03388582e-04
2.26000000e-01	1.81485650e-02	3.01901071e-04
2.26500000e-01	1.83035100e-02	2.98579532e-04
2.27000000e-01	1.84132085e-02	2.97384188e-04
2.27500000e-01	1.79956067e-02	2.89190930e-04
2.28000000e-01	1.83443085e-02	2.92385011e-04
2.28500000e-01	1.82481433e-02	2.90692359e-04
2.29000000e-01	1.79175569e-02	2.83273785e-04
2.29500000e-01	1.81322396e-02	2.85767428e-04
2.30000000e-01	1.81947418e-02	2.85584266e-04
2.30500000e-01	1.77691290e-02	2.78809551e-04
2.31000000e-01	1.79746990e-02	2.79714004e-04
2.31500000e-01	1.78476929e-02	2.79090454e-04
2.32000000e-01	1.82092309e-02	2.83467898e-04
2.32500000e-01	1.79661974e-02	2.79154389e-04
2.33000000e-01	1.81316864e-02	2.79949535e-04
2.33500000e-01	1.80583191e-02	2.78479960e-04
2.34000000e-01	1.80611757e-02	2.79181280e-04
2.34500000e-01	1.79476081e-02	2.74321280e-04
2.35000000e-01	1.80812177e-02	2.77377556e-04
2.35500000e-01	1.79353915e-02	2.73297519e-04
2.36000000e-01	1.81227198e-02	2.77746049e-04
2.36500000e-01	1.80889185e-02	2.75846737e-04
2.37000000e-01	1.79711006e-02	2.73564029e-04
2.37500000e-01	1.80092883e-02	2.73722979e-04
2.38000000e-01	1.80345514e-02	2.73838118e-04
2.38500000e-01	1.80296093e-02	2.73425126e-04
2.39000000e-01	1.79580384e-02	2.71615271e-04
2.39500000e-01	1.78266557e-02	2.70060759e-04
2.40000000e-01	1.77456320e-02	2.67862535e-04
2.40500000e-01	1.78172671e-02	2.67889866e-04
2.41000000e-01	1.77667097e-02	2.67214112e-04
2.41500000e-01	1.78444188e-02	2.66735059e-04
2.42000000e-01	1.80471044e-02	2.70493202e-04
2.42500000e-01	1.80484640e-02	2.68454643e-04
2.43000000e-01	1.82448785e-02	2.72420472e-04
2.43500000e-01	1.79252184e-02	2.67529232e-04
2.44000000e-01	1.79040292e-02	2.66993361e-04
2.44500000e-01	1.79790908e-02	2.67673207e-04
2.45000000e-01	1.79020332e-02	2.65956266e-04
2.45500000e-01	1.78529101e-02	2.65707975e-04
2.46000000e-01	1.79270543e-02	2.66309043e-04
2.46500000e-01	1.77309976e-02	2.61839972e-04
2.47000000e-01	1.78142192e-02	2.64863092e-04
2.47500000e-01	1.78455585e-02	2.63301686e-04
2.48000000e-01	1.79633702e-02	2.64940342e-04
2.48500000e-01	1.77538471e-02	2.61585038e-04
2.49000000e-01	1.78395960e-02	2.62623291e-04
2.49500000e-01	1.78822001e-02	2.63766125e-04
2.50000000e-01	1.77327524e-02	2.60452020e-04
2.50500000e-01	1.77712523e-02	2.61709390e-04
2.51000000e-01	1.77501724e-02	2.60115201e-04
2.51500000e-01	1.76792383e-02	2.59137003e-04
2.52000000e-01	1.77054873e-02	2.59870287e-04
2.52500000e-01	1.77041877e-02	2.58162490e-04
2.53000000e-01	1.76571194e-02	2.58041879e-04
2.53500000e-01	1.77357198e-02	2.58823399e-04
2.54000000e-01	1.76657079e-02	2.57664052e-04
2.54500000e-01	1.77994535e-02	2.58784152e-04
2.55000000e-01	1.76292045e-02	2.56958224e-04
2.55500000e-01	1.75361898e-02	2.54597054e-04
2.56000000e-01	1.78331054e-02	2.57895829e-04
2.56500000e-01	1.75617265e-02	2.53572537e-04
2.57000000e-01	1.73640641e-02	2.51520490e-04
2.57500000e-01	1.76574686e-02	2.55586220e-04
2.58000000e-01	1.75127737e-02	2.53786942e-04
2.58500000e-01	1.76287747e-02	2.54136612e-04
2.59000000e-01	1.73675377e-02	2.50741816e-04
2.59500000e-01	1.78308182e-02	2.55310574e-04
2.60000000e-01	1.75465143e-02	2.51791954e-04
2.60500000e-01	1.75576903e-02	2.51050891e-04
2.61000000e-01	1.76316870e-02	2.52439589e-04
2.61500000e-01	1.73362840e-02	2.49413001e-04
2.62000000e-01	1.75022960e-02	2.50645024e-04
2.62500000e-01	1.75105659e-02	2.50373523e-04
2.63000000e-01	1.74989700e-02	2.49756566e-04
2.63500000e-01	1.73926669e-02	2.46711612e-04
2.64000000e-01	1.75945779e-02	2.51053307e-04
2.64500000e-01	1.72131110e-02	2.45907998e-04
2.65000000e-01	1.74976156e-02	2.48908196e-04
2.65500000e-01	1.75910276e-02	2.49633137e-04
2.66000000e-01	1.74048691e-02	2.47645919e-04
2.66500000e-01	1.76669265e-02	2.50394996e-04
2.67000000e-01	1.75055270e-02	2.48054968e-04
2.67500000e-01	1.73880489e-02	2.44672977e-04
2.68000000e-01	1.75791295e-02	2.47993071e-04
2.68500000e-01	1.73487422e-02	2.44130721e-04
2.69000000e-01	1.72985837e-02	2.44273332e-04
2.69500000e-01	1.75621000e-02	2.46047252e-04
2.70000000e-01	1.74539069e-02	2.45063889e-04
2.70500000e-01	1.76103763e-02	2.46792822e-04
2.71000000e-01	1.76045953e-02	2.46327392e-04
2.71500000e-01	1.76266381e-02	2.46505229e-04
2.72000000e-01	1.73471494e-02	2.43218257e-04
2.72500000e-01	1.74238567e-02	2.43459269e-04
2.73000000e-01	1.74423474e-02	2.44336665e-04
2.73500000e-01	1.75150957e-02	2.44073331e-04
2.74000000e-01	1.74196782e-02	2.42980342e-04
2.74500000e-01	1.73823558e-02	2.41395675e-04
2.75000000e-01	1.73790688e-02	2.42809500e-04
2.75500000e-01	1.74206027e-02	2.43300542e-04
2.76000000e-01	1.73237429e-02	2.41003327e-04
2.76500000e-01	1.75532807e-02	2.44786497e-04
2.77000000e-01	1.73029930e-02	2.40131691e-04
2.77500000e-01	1.73223336e-02	2.40889797e-04
2.78000000e-01	1.73108712e-02	2.39928223e-04
2.78500000e-01	1.72183864e-02	2.38817418e-04
2.79000000e-01	1.72593623e-02	2.39005408e-04
2.79500000e-01	1.74081279e-02	2.40139238e-04
2.80000000e-01	1.72311386e-02	2.38580338e-04
2.80500000e-01	1.75243723e-02	2.41486307e-04
2.81000000e-01	1.73477682e-02	2.39208501e-04
2.81500000e-01	1.71259095e-02	2.36294028e-04
2.82000000e-01	1.73604661e-02	2.38738192e-04
2.82500000e-01	1.72216374e-02	2.38112038e-04
2.83000000e-01	1.71890251e-02	2.36414857e-04
2.83500000e-01	1.72108384e-02	2.35857378e-04
2.84000000e-01	1.70046556e-02	2.33088577e-04
2.84500000e-01	1.73313659e-02	2.37311447e-04
2.85000000e-01	1.73435785e-02	2.38410821e-04
2.85500000e-01	1.71650452e-02	2.34281993e-04
2.86000000e-01	1.71556745e-02	2.35555163e-04
2.86500000e-01	1.70388774e-02	2.33394722e-04
2.87000000e-01	1.70967141e-02	2.34151366e-04
2.87500000e-01	1.71537526e-02	2.32717267e-04
2.88000000e-01	1.70839380e-02	2.32498471e-04
2.88500000e-01	1.69973041e-02	2.31305770e-04
2.89000000e-01	1.70031170e-02	2.30744553e-04
2.89500000e-01	1.72439201e-02	2.34021930e-04
2.90000000e-01	1.72061794e-02	2.34609847e-04
2.90500000e-01	1.71465576e-02	2.32564611e-04
2.91000000e-01	1.71736061e-02	2.32660880e-04
2.91500000e-01	1.70417320e-02	2.30774725e-04
2.92000000e-01	1.71238906e-02	2.31769720e-04
2.92500000e-01	1.71671589e-02	2.31719775e-04
2.93000000e-01	1.70220085e-02	2.28866108e-04
2.93500000e-01	1.71079985e-02	2.29942627e-04
2.94000000e-01	1.70623407e-02	2.29663260e-04
2.94500000e-01	1.69833322e-02	2.28890875e-04
2.95000000e-01	1.71105771e-02	2.29834811e-04
2.95500000e-01	1.70859710e-02	2.30662609e-04
2.96000000e-01	1.72007308e-02	2.30029323e-04
2.96500000e-01	1.69761054e-02	2.27520030e-04
2.97000000e-01	1.71567234e-02	2.29629891e-04
2.97500000e-01	1.69675348e-02	2.27532718e-04
2.98000000e-01	1.70063639e-02	2.28144741e-04
2.98500000e-01	1.69951458e-02	2.27340450e-04
2.99000000e-01	1.69841377e-02	2.26394005e-04
2.99500000e-01	1.70716219e-02	2.27832501e-04
3.00000000e-01	1.73498999e-02	2.31154131e-04
3.00500000e-01	1.70352030e-02	2.26824437e-04
3.01000000e-01	1.69849368e-02	2.25580891e-04
3.01500000e-01	1.70342199e-02	2.26533722e-04
3.02000000e-01	1.67244445e-02	2.22780845e-04
3.02500000e-01	1.70178040e-02	2.26429621e-04
3.03000000e-01	1.69091012e-02	2.24610836e-04
3.03500000e-01	1.68877949e-02	2.23797256e-04
3.04000000e-01	1.69447759e-02	2.25650826e-04
3.04500000e-01	1.68941614e-02	2.22905304e-04
3.05000000e-01	1.68299662e-02	2.23211047e-04
3.05500000e-01	1.68879006e-02	2.23298122e-04
3.06000000e-01	1.67954430e-02	2.21746815e-04
3.06500000e-01	1.69414101e-02	2.23801829e-04
3.07000000e-01	1.67234272e-02	2.19980019e-04
3.07500000e-01	1.67316300e-02	2.20462425e-04
3.08000000e-01	1.67868113e-02	2.21379623e-04
3.08500000e-01	1.68513356e-02	2.21992442e-04
3.09000000e-01	1.68120091e-02	2.20857554e-04
3.09500000e-01	1.67377610e-02	2.20291719e-04
3.10000000e-01	1.67974127e-02	2.20563489e-04
3.10500000e-01	1.66627992e-02	2.18472421e-04
3.11000000e-01	1.69045782e-02	2.21832500e-04
3.11500000e-01	1.67429371e-02	2.19348830e-04
3.12000000e-01	1.68345144e-02	2.20294364e-04
3.12500000e-01	1.69514852e-02	2.21557340e-04
3.13000000e-01	1.68576332e-02	2.19662914e-04
3.13500000e-01	1.67053292e-02	2.18672655e-04
3.14000000e-01	1.69346957e-02	2.21051998e-04
3.14500000e-01	1.66985802e-02	2.17855317e-04
3.15000000e-01	1.67764662e-02	2.19129306e-04
3.15500000e-01	1.67765181e-02	2.18499709e-04
3.16000000e-01	1.65612831e-02	2.16097714e-04
3.16500000e-01	1.65656824e-02	2.15192542e-04
3.17000000e-01	1.68272085e-02	2.18564982e-04
3.17500000e-01	1.66843853e-02	2.16530819e-04
3.18000000e-01	1.65620555e-02	2.14544629e-04
3.18500000e-01	1.67260926e-02	2.16765939e-04
3.19000000e-01	1.68809984e-02	2.18186720e-04
3.19500000e-01	1.65821518e-02	2.13271719e-04
3.20000000e-01	1.65184883e-02	2.13306798e-04
3.20500000e-01	1.66256685e-02	2.15307885e-04
3.21000000e-01	1.65228690e-02	2.14204684e-04
3.21500000e-01	1.67236696e-02	2.15703954e-04
3.22000000e-01	1.66215673e-02	2.14303804e-04
3.22500000e-01	1.66493962e-02	2.14569347e-04
3.23000000e-01	1.67200770e-02	2.14694855e-04
3.23500000e-01	1.65164164e-02	2.12361536e-04
3.24000000e-01	1.65275061e-02	2.11876750e-04
3.24500000e-01	1.63402112e-02	2.10504625e-04
3.25000000e-01	1.64874675e-02	2.11453329e-04
3.25500000e-01	1.64880419e-02	2.11804004e-04
3.26000000e-01	1.65793600e-02	2.12231192e-04
3.26500000e-01	1.64971656e-02	2.11011573e-04
3.27000000e-01	1.62581450e-02	2.08207434e-04
3.27500000e-01	1.67291850e-02	2.13811056e-04
3.28000000e-01	1.65503818e-02	2.11970032e-04
3.28500000e-01	1.65999489e-02	2.11789033e-04
3.29000000e-01	1.65686307e-02	2.10661853e-04
3.29500000e-01	1.64859136e-02	2.11311751e-04
3.30000000e-01	1.63496468e-02	2.08449407e-04
3.30500000e-01	1.63668694e-02	2.08732875e-04
3.31000000e-01	1.63162824e-02	2.07155944e-04
3.31500000e-01	1.64367432e-02	2.08873639e-04
3.32000000e-01	1.63117321e-02	2.08401759e-04
3.32500000e-01	1.64484585e-02	2.08225932e-04
3.33000000e-01	1.64268168e-02	2.07664224e-04
3.33500000e-01	1.63429377e-02	2.06944962e-04
3.34000000e-01	1.63690503e-02	2.06859873e-04
3.34500000e-01	1.63849454e-02	2.07089363e-04
3.35000000e-01	1.63473099e-02	2.05852244e-04
3.35500000e-01	1.65617460e-02	2.09155781e-04
3.36000000e-01	1.64601111e-02	2.07261975e-04
3.36500000e-01	1.62635600e-02	2.05361292e-04
3.37000000e-01	1.62945383e-02	2.05274353e-04
3.37500000e-01	1.61957793e-02	2.05133968e-04
3.38000000e-01	1.62930405e-02	2.05776828e-04
3.38500000e-01	1.62076988e-02	2.04276546e-04
3.39000000e-01	1.63721077e-02	2.06620121e-04
3.39500000e-01	1.59912664e-02	2.01234665e-04
3.40000000e-01	1.63663514e-02	2.05632165e-04
3.40500000e-01	1.63626938e-02	2.04966830e-04
3.41000000e-01	1.62054819e-02	2.02872902e-04
3.41500000e-01	1.63934599e-02	2.06346298e-04
3.42000000e-01	1.61085963e-02	2.01767343e-04
3.42500000e-01	1.62361847e-02	2.03147275e-04
3.43000000e-01	1.61721031e-02	2.02892415e-04
3.43500000e-01	1.61738504e-02	2.02554028e-04
3.44000000e-01	1.60741692e-02	2.00926390e-04
3.44500000e-01	1.62077462e-02	2.02260110e-04
3.45000000e-01	1.62153431e-02	2.01893379e-04
3.45500000e-01	1.60157706e-02	1.99549130e-04
3.46000000e-01	1.61576480e-02	2.01993748e-04
3.46500000e-01	1.60616426e-02	1.99998137e-04
3.47000000e-01	1.61068760e-02	1.99888184e-04
3.47500000e-01	1.61776016e-02	2.01784515e-04
3.48000000e-01	1.59590359e-02	1.98628739e-04
3.48500000e-01	1.61874428e-02	2.01817220e-04
3.49000000e-01	1.62153526e-02	2.00169279e-04
3.49500000e-01	1.61894966e-02	2.00165847e-04
3.50000000e-01	1.62408215e-02	1.64106146e-04
3.51000000e-01	1.61243841e-02	1.41134668e-04
3.52000000e-01	1.60894995e-02	1.40672933e-04
3.53000000e-01	1.59869106e-02	1.39598920e-04
3.54000000e-01	1.59834700e-02	1.39013943e-04
3.55000000e-01	1.60282360e-02	1.39176580e-04
3.56000000e-01	1.60717267e-02	1.40274432e-04
3.57000000e-01	1.61030087e-02	1.43136233e-04
3.58000000e-01	1.58228143e-02	1.42163449e-04
3.59000000e-01	1.59549996e-02	1.44208823e-04
3.60000000e-01	1.59551354e-02	1.44754518e-04
3.61000000e-01	1.58589833e-02	1.44964767e-04
3.62000000e-01	1.58440503e-02	1.45552256e-04
3.63000000e-01	1.56999184e-02	1.44775425e-04
3.64000000e-01	1.57785992e-02	1.45925323e-04
3.65000000e-01	1.57729374e-02	1.46089000e-04
3.66000000e-01	1.58312653e-02	1.45166384e-04
3.67000000e-01	1.58130407e-02	1.42955617e-04
3.68000000e-01	1.58443672e-02	1.41931125e-04
3.69000000e-01	1.57072605e-02	1.40365393e-04
3.70000000e-01	1.59383889e-02	1.41387766e-04
3.71000000e-01	1.58200301e-02	1.42414169e-04
3.72000000e-01	1.57765162e-02	1.42744848e-04
3.73000000e-01	1.57066135e-02	1.42417361e-04
3.74000000e-01	1.56823738e-02	1.42335003e-04
3.75000000e-01	1.56512154e-02	1.42044251e-04
3.76000000e-01	1.58041302e-02	1.43629832e-04
3.77000000e-01	1.57640536e-02	1.43103992e-04
3.78000000e-01	1.57231806e-02	1.43215500e-04
3.79000000e-01	1.56082760e-02	1.41757902e-04
3.80000000e-01	1.56930029e-02	1.42421513e-04
3.81000000e-01	1.56951902e-02	1.42090093e-04
3.82000000e-01	1.56803768e-02	1.42423576e-04
3.83000000e-01	1.56822888e-02	1.41796758e-04
3.84000000e-01	1.56539821e-02	1.42142029e-04
3.85000000e-01	1.55980253e-02	1.41738104e-04
3.86000000e-01	1.55284324e-02	1.40905590e-04
3.87000000e-01	1.55931074e-02	1.41558253e-04
3.88000000e-01	1.55764178e-02	1.40912646e-04
3.89000000e-01	1.53784662e-02	1.39849768e-04
3.90000000e-01	1.54556664e-02	1.39956418e-04
3.91000000e-01	1.55050337e-02	1.40027931e-04
3.92000000e-01	1.54267384e-02	1.39593306e-04
3.93000000e-01	1.55139605e-02	1.40209783e-04
3.94000000e-01	1.54420484e-02	1.39572741e-04
3.95000000e-01	1.53237716e-02	1.39031179e-04
3.96000000e-01	1.54115274e-02	1.39343933e-04
3.97000000e-01	1.54470536e-02	1.39689242e-04
3.98000000e-01	1.54326047e-02	1.39503082e-04
3.99000000e-01	1.54661028e-02	1.40109175e-04
4.00000000e-01	1.53323520e-02	1.38868890e-04
4.01000000e-01	1.53712681e-02	1.39057462e-04
4.02000000e-01	1.52441276e-02	1.38274891e-04
4.03000000e-01	1.53081179e-02	1.38150245e-04
4.04000000e-01	1.53015938e-02	1.38504356e-04
4.05000000e-01	1.52896888e-02	1.38492244e-04
4.06000000e-01	1.52416173e-02	1.37887342e-04
4.07000000e-01	1.52478518e-02	1.37505517e-04
4.08000000e-01	1.53324949e-02	1.38387523e-04
4.09000000e-01	1.51959723e-02	1.37237137e-04
4.10000000e-01	1.51295476e-02	1.36896875e-04
4.11000000e-01	1.52486783e-02	1.37517804e-04
4.12000000e-01	1.52162388e-02	1.37134267e-04
4.13000000e-01	1.52440692e-02	1.37641153e-04
4.14000000e-01	1.52332613e-02	1.37332559e-04
4.15000000e-01	1.51290764e-02	1.36067758e-04
4.16000000e-01	1.51637411e-02	1.36705101e-04
4.17000000e-01	1.51135097e-02	1.36137897e-04
4.18000000e-01	1.53214065e-02	1.39750444e-04
4.19000000e-01	1.52704646e-02	1.40483342e-04
4.20000000e-01	1.52118867e-02	1.40989050e-04
4.21000000e-01	1.53015035e-02	1.42149380e-04
4.22000000e-01	1.53068403e-02	1.42459264e-04
4.23000000e-01	1.51744866e-02	1.41762530e-04
4.24000000e-01	1.52644220e-02	1.43372919e-04
4.25000000e-01	1.51470999e-02	1.42155151e-04
4.26000000e-01	1.51086649e-02	1.41948357e-04
4.27000000e-01	1.52331015e-02	1.43355777e-04
4.28000000e-01	1.50782671e-02	1.42203743e-04
4.29000000e-01	1.51770100e-02	1.43095326e-04
4.30000000e-01	1.51913526e-02	1.43444644e-04
4.31000000e-01	1.52763244e-02	1.43620740e-04
4.32000000e-01	1.52358741e-02	1.43581563e-04
4.33000000e-01	1.50182682e-02	1.41704675e-04
4.34000000e-01	1.51607181e-02	1.43007429e-04
4.35000000e-01	1.50390236e-02	1.41799657e-04
4.36000000e-01	1.51686062e-02	1.43370260e-04
4.37000000e-01	1.50535616e-02	1.42783487e-04
4.38000000e-01	1.49306307e-02	1.41831164e-04
4.39000000e-01	1.51228409e-02	1.43870191e-04
4.40000000e-01	1.48919648e-02	1.41762418e-04
4.41000000e-01	1.49270150e-02	1.42425321e-04
4.42000000e-01	1.48532560e-02	1.42011934e-04
4.43000000e-01	1.49390338e-02	1.43005817e-04
4.44000000e-01	1.48542223e-02	1.42703841e-04
4.45000000e-01	1.49778807e-02	1.43832399e-04
4.46000000e-01	1.49935288e-02	1.44037445e-04
4.47000000e-01	1.51183085e-02	1.45071497e-04
4.48000000e-01	1.48752142e-02	1.42859069e-04
4.49000000e-01	1.48511223e-02	1.43251709e-04
4.50000000e-01	1.49510345e-02	1.44135806e-04
4.51000000e-01	1.48917440e-02	1.43622244e-04
4.52000000e-01	1.48963563e-02	1.43730597e-04
4.53000000e-01	1.49131003e-02	1.43739946e-04
4.54000000e-01	1.49029549e-02	1.43984734e-04
4.55000000e-01	1.48777942e-02	1.44381374e-04
4.56000000e-01	1.48759830e-02	1.43983097e-04
4.57000000e-01	1.48109169e-02	1.43538063e-04
4.58000000e-01	1.49061178e-02	1.44410401e-04
4.59000000e-01	1.48918912e-02	1.44517272e-04
4.60000000e-01	1.47902746e-02	1.43685703e-04
4.61000000e-01	1.48354514e-02	1.44246751e-04
4.62000000e-01	1.47767448e-02	1.43983896e-04
4.63000000e-01	1.49130516e-02	1.44930594e-04
4.64000000e-01	1.46691425e-02	1.43352489e-04
4.65000000e-01	1.46671083e-02	1.43690550e-04
4.66000000e-01	1.48776978e-02	1.44915447e-04
4.67000000e-01	1.48408868e-02	1.45053800e-04
4.68000000e-01	1.48588107e-02	1.45431662e-04
4.69000000e-01	1.48675084e-02	1.45315839e-04
4.70000000e-01	1.48023508e-02	1.44877300e-04
4.71000000e-01	1.46461850e-02	1.43738471e-04
4.72000000e-01	1.47072295e-02	1.43650063e-04
4.73000000e-01	1.47047733e-02	1.43930449e-04
4.74000000e-01	1.46375401e-02	1.43350013e-04
4.75000000e-01	1.47128449e-02	1.43689324e-04
4.76000000e-01	1.46431357e-02	1.42781024e-04
4.77000000e-01	1.47436894e-02	1.44365483e-04
4.78000000e-01	1.45788004e-02	1.42819736e-04
4.79000000e-01	1.47401502e-02	1.43691943e-04
4.80000000e-01	1.47588381e-02	1.44561835e-04
4.81000000e-01	1.46830144e-02	1.44248267e-04
4.82000000e-01	1.46583942e-02	1.43774416e-04
4.83000000e-01	1.45918752e-02	1.43309881e-04
4.84000000e-01	1.46200990e-02	1.43749165e-04
4.85000000e-01	1.45833058e-02	1.44017491e-04
4.86000000e-01	1.46878182e-02	1.44311639e-04
4.87000000e-01	1.45480921e-02	1.43322744e-04
4.88000000e-01	1.44343523e-02	1.42080264e-04
4.89000000e-01	1.46415715e-02	1.43495932e-04
4.90000000e-01	1.46878403e-02	1.44678218e-04
4.91000000e-01	1.45179556e-02	1.43520802e-04
4.92000000e-01	1.44747769e-02	1.42783754e-04
4.93000000e-01	1.45748596e-02	1.43650536e-04
4.94000000e-01	1.45595397e-02	1.43653890e-04
4.95000000e-01	1.45900414e-02	1.44966748e-04
4.96000000e-01	1.44705331e-02	1.48567828e-04
4.97000000e-01	1.46835175e-02	1.52813300e-04
4.98000000e-01	1.45552602e-02	1.52974314e-04
4.99000000e-01	1.45939149e-02	1.55949830e-04
5.00000000e-01	1.45526398e-02	1.57341984e-04
5.01000000e-01	1.44998573e-02	1.57897540e-04
5.02000000e-01	1.44622769e-02	1.59387417e-04
5.03000000e-01	1.45737017e-02	1.62369912e-04
5.04000000e-01	1.46478553e-02	1.63850398e-04
5.05000000e-01	1.45382563e-02	1.60341809e-04
5.06000000e-01	1.43731701e-02	1.55574059e-04
5.07000000e-01	1.43851339e-02	1.54371104e-04
5.08000000e-01	1.44686528e-02	1.53862593e-04
5.09000000e-01	1.42627672e-02	1.51267419e-04
5.10000000e-01	1.44993313e-02	1.53142999e-04
5.11000000e-01	1.45787645e-02	1.52939027e-04
5.12000000e-01	1.44456437e-02	1.51225698e-04
5.13000000e-01	1.44480520e-02	1.51612725e-04
5.14000000e-01	1.43354276e-02	1.50322938e-04
5.15000000e-01	1.43013975e-02	1.49452358e-04
5.16000000e-01	1.43702659e-02	1.49678376e-04
5.17000000e-01	1.43619468e-02	1.49729777e-04
5.18000000e-01	1.43431337e-02	1.49137473e-04
5.19000000e-01	1.43268213e-02	1.48091115e-04
5.20000000e-01	1.42818114e-02	1.47988551e-04
5.21000000e-01	1.42564324e-02	1.47345390e-04
5.22000000e-01	1.42524955e-02	1.46962654e-04
5.23000000e-01	1.43582902e-02	1.47737790e-04
5.24000000e-01	1.43435950e-02	1.48066525e-04
5.25000000e-01	1.43622365e-02	1.47923738e-04
5.26000000e-01	1.41067424e-02	1.45689197e-04
5.27000000e-01	1.42750196e-02	1.47105293e-04
5.28000000e-01	1.43024255e-02	1.47148580e-04
5.29000000e-01	1.42319518e-02	1.47338567e-04
5.30000000e-01	1.42329769e-02	1.46731620e-04
5.31000000e-01	1.42351978e-02	1.47392494e-04
5.32000000e-01	1.41319503e-02	1.45889429e-04
5.33000000e-01	1.43067932e-02	1.47526284e-04
5.34000000e-01	1.41580635e-02	1.46051448e-04
5.35000000e-01	1.42371823e-02	1.46475388e-04
5.36000000e-01	1.41811989e-02	1.46478103e-04
5.37000000e-01	1.41709175e-02	1.45984690e-04
5.38000000e-01	1.41682190e-02	1.45716358e-04
5.39000000e-01	1.41252630e-02	1.45888913e-04
5.40000000e-01	1.41852580e-02	1.46328291e-04
5.41000000e-01	1.41171874e-02	1.45944501e-04
5.42000000e-01	1.40946920e-02	1.45540293e-04
5.43000000e-01	1.40720037e-02	1.45050020e-04
5.44000000e-01	1.42411002e-02	1.46809432e-04
5.45000000e-01	1.39450254e-02	1.43831720e-04
5.46000000e-01	1.41171032e-02	1.45535407e-04
5.47000000e-01	1.42265344e-02	1.46560686e-04
5.48000000e-01	1.40518622e-02	1.44857427e-04
5.49000000e-01	1.41208464e-02	1.45498635e-04
5.50000000e-01	1.38533610e-02	1.42597541e-04
5.51000000e-01	1.38781568e-02	1.42769167e-04
5.52000000e-01	1.40137537e-02	1.43773593e-04
5.53000000e-01	1.39429499e-02	1.43181350e-04
5.54000000e-01	1.39441130e-02	1.43345351e-04
5.55000000e-01	1.40101052e-02	1.43398329e-04
5.56000000e-01	1.37928244e-02	1.41489221e-04
5.57000000e-01	1.38730497e-02	1.42476003e-04
5.58000000e-01	1.39488590e-02	1.42882605e-04
5.59000000e-01	1.39555010e-02	1.42762216e-04
5.60000000e-01	1.38642785e-02	1.42404405e-04
5.61000000e-01	1.40303787e-02	1.43884921e-04
5.62000000e-01	1.40276254e-02	1.44031204e-04
5.63000000e-01	1.40545768e-02	1.43914796e-04
5.64000000e-01	1.38192403e-02	1.41876293e-04
5.65000000e-01	1.38261662e-02	1.42062063e-04
5.66000000e-01	1.38437977e-02	1.42091677e-04
5.67000000e-01	1.37067294e-02	1.41004663e-04
5.68000000e-01	1.37882637e-02	1.41573322e-04
5.69000000e-01	1.39194779e-02	1.42401688e-04
5.70000000e-01	1.38219471e-02	1.41293421e-04
5.71000000e-01	1.37560567e-02	1.40472042e-04
5.72000000e-01	1.37657312e-02	1.41139626e-04
5.73000000e-01	1.39061302e-02	1.42398416e-04
5.74000000e-01	1.36515774e-02	1.39949576e-04
5.75000000e-01	1.38005589e-02	1.41903969e-04
5.76000000e-01	1.37337227e-02	1.40975078e-04
5.77000000e-01	1.37451086e-02	1.41620790e-04
5.78000000e-01	1.36873470e-02	1.40739801e-04
5.79000000e-01	1.36963061e-02	1.41018704e-04
5.80000000e-01	1.37135678e-02	1.41157444e-04
5.81000000e-01	1.35997255e-02	1.39832807e-04
5.82000000e-01	1.37373939e-02	1.41570034e-04
5.83000000e-01	1.36499833e-02	1.40726069e-04
5.84000000e-01	1.35631021e-02	1.39645132e-04
5.85000000e-01	1.35187193e-02	1.39628725e-04
5.86000000e-01	1.36475339e-02	1.41126275e-04
5.87000000e-01	1.36193891e-02	1.39734151e-04
5.88000000e-01	1.35120123e-02	1.39473575e-04
5.89000000e-01	1.35705489e-02	1.40199699e-04
5.90000000e-01	1.35193757e-02	1.39737575e-04
5.91000000e-01	1.37427504e-02	1.41636221e-04
5.92000000e-01	1.36182825e-02	1.40585337e-04
5.93000000e-01	1.35676088e-02	1.40193053e-04
5.94000000e-01	1.35837997e-02	1.39894366e-04
5.95000000e-01	1.36044148e-02	1.39989714e-04
5.96000000e-01	1.35337910e-02	1.39782897e-04
5.97000000e-01	1.35409378e-02	1.39473554e-04
5.98000000e-01	1.36299384e-02	1.40853917e-04
5.99000000e-01	1.34003569e-02	1.38455234e-04
6.00000000e-01	1.34716672e-02	1.39436205e-04
6.01000000e-01	1.35020967e-02	1.39462588e-04
6.02000000e-01	1.34457075e-02	1.38892890e-04
6.03000000e-01	1.34902132e-02	1.39623697e-04
6.04000000e-01	1.36055744e-02	1.40391777e-04
6.05000000e-01	1.33838061e-02	1.38276786e-04
6.06000000e-01	1.34199004e-02	1.38826748e-04
6.07000000e-01	1.34676844e-02	1.39502800e-04
6.08000000e-01	1.34975181e-02	1.40049315e-04
6.09000000e-01	1.35103943e-02	1.39995092e-04
6.10000000e-01	1.34767659e-02	1.39164610e-04
6.11000000e-01	1.33169086e-02	1.38193318e-04
6.12000000e-01	1.34260294e-02	1.39056951e-04
6.13000000e-01	1.33203535e-02	1.38478022e-04
6.14000000e-01	1.34242357e-02	1.38732588e-04
6.15000000e-01	1.35139891e-02	1.39437186e-04
6.16000000e-01	1.33762481e-02	1.38531949e-04
6.17000000e-01	1.32915543e-02	1.37755555e-04
6.18000000e-01	1.35042962e-02	1.39759925e-04
6.19000000e-01	1.34105770e-02	1.38439362e-04
6.20000000e-01	1.33563568e-02	1.37839488e-04
6.21000000e-01	1.34001924e-02	1.38033365e-04
6.22000000e-01	1.33084101e-02	1.37128109e-04
6.23000000e-01	1.33236981e-02	1.37338584e-04
6.24000000e-01	1.33817435e-02	1.37329685e-04
6.25000000e-01	1.33085887e-02	1.36887045e-04
6.26000000e-01	1.33048260e-02	1.36517998e-04
6.27000000e-01	1.33125831e-02	1.37019752e-04
6.28000000e-01	1.31638749e-02	1.35129047e-04
6.29000000e-01	1.32295444e-02	1.35873203e-04
6.30000000e-01	1.32810632e-02	1.36671578e-04
6.31000000e-01	1.33448998e-02	1.37105064e-04
6.32000000e-01	1.32364800e-02	1.36004628e-04
6.33000000e-01	1.32691378e-02	1.35919450e-04
6.34000000e-01	1.32557148e-02	1.39902842e-04
6.35000000e-01	1.31938859e-02	1.43391923e-04
6.36000000e-01	1.32739726e-02	1.46434622e-04
6.37000000e-01	1.34315109e-02	1.50547711e-04
6.38000000e-01	1.32440710e-02	1.50356147e-04
6.39000000e-01	1.32389201e-02	1.52540292e-04
6.40000000e-01	1.33405514e-02	1.55157453e-04
6.41000000e-01	1.33113499e-02	1.57182162e-04
6.42000000e-01	1.33512613e-02	1.59099002e-04
6.43000000e-01	1.33549575e-02	1.59235149e-04
6.44000000e-01	1.34468788e-02	1.54235164e-04
6.45000000e-01	1.32225844e-02	1.49569563e-04
6.46000000e-01	1.32844756e-02	1.49151189e-04
6.47000000e-01	1.34759452e-02	1.49836629e-04
6.48000000e-01	1.33139188e-02	1.47454464e-04
6.49000000e-01	1.34536402e-02	1.47739009e-04
6.50000000e-01	1.32080985e-02	1.45168567e-04
6.51000000e-01	1.33249458e-02	1.44900600e-04
6.52000000e-01	1.33676318e-02	1.45125369e-04
6.53000000e-01	1.33616366e-02	1.44420163e-04
6.54000000e-01	1.33336246e-02	1.43771859e-04
6.55000000e-01	1.32333274e-02	1.42545074e-04
6.56000000e-01	1.31951315e-02	1.41621030e-04
6.57000000e-01	1.33418513e-02	1.42889532e-04
6.58000000e-01	1.32149021e-02	1.41858778e-04
6.59000000e-01	1.33235871e-02	1.42356156e-04
6.60000000e-01	1.31887475e-02	1.41741375e-04
6.61000000e-01	1.32510654e-02	1.41688599e-04
6.62000000e-01	1.32049294e-02	1.41641233e-04
6.63000000e-01	1.32358602e-02	1.41502073e-04
6.64000000e-01	1.31831012e-02	1.41078087e-04
6.65000000e-01	1.30289807e-02	1.39454055e-04
6.66000000e-01	1.33063397e-02	1.42207418e-04
6.67000000e-01	1.30841545e-02	1.39979515e-04
6.68000000e-01	1.30214758e-02	1.39480164e-04
6.69000000e-01	1.30223824e-02	1.38910935e-04
6.70000000e-01	1.32194123e-02	1.41014034e-04
6.71000000e-01	1.30295987e-02	1.39304719e-04
6.72000000e-01	1.32065935e-02	1.40740359e-04
6.73000000e-01	1.31910720e-02	1.39911406e-04
6.74000000e-01	1.30946407e-02	1.39540851e-04
6.75000000e-01	1.30585965e-02	1.38955829e-04
6.76000000e-01	1.31862155e-02	1.40742838e-04
6.77000000e-01	1.30479014e-02	1.38587422e-04
6.78000000e-01	1.31704931e-02	1.40035950e-04
6.79000000e-01	1.30041812e-02	1.38369895e-04
6.80000000e-01	1.29865372e-02	1.38492524e-04
6.81000000e-01	1.31821178e-02	1.40051186e-04
6.82000000e-01	1.29265043e-02	1.37324847e-04
6.83000000e-01	1.30506836e-02	1.38737004e-04
6.84000000e-01	1.29238009e-02	1.37217029e-04
6.85000000e-01	1.29139981e-02	1.37342310e-04
6.86000000e-01	1.28098234e-02	1.36703120e-04
6.87000000e-01	1.30347339e-02	1.37913968e-04
6.88000000e-01	1.31106775e-02	1.39171907e-04
6.89000000e-01	1.31429944e-02	1.39199830e-04
6.90000000e-01	1.29028184e-02	1.37522658e-04
6.91000000e-01	1.30160706e-02	1.37928554e-04
6.92000000e-01	1.30326304e-02	1.38417116e-04
6.93000000e-01	1.28633368e-02	1.36771807e-04
6.94000000e-01	1.30211382e-02	1.37871511e-04
6.95000000e-01	1.28431966e-02	1.36526659e-04
6.96000000e-01	1.29204166e-02	1.36936683e-04
6.97000000e-01	1.28877358e-02	1.36942682e-04
6.98000000e-01	1.29426305e-02	1.37392436e-04
6.99000000e-01	1.29676378e-02	1.37391688e-04
7.00000000e-01	1.28461580e-02	1.36528209e-04
7.01000000e-01	1.29172658e-02	1.37249035e-04
7.02000000e-01	1.29230590e-02	1.37187450e-04
7.03000000e-01	1.28852888e-02	1.36889821e-04
7.04000000e-01	1.29745444e-02	1.37366389e-04
7.05000000e-01	1.28863095e-02	1.36794119e-04
7.06000000e-01	1.27792525e-02	1.35323949e-04
7.07000000e-01	1.27640416e-02	1.35320161e-04
7.08000000e-01	1.28016998e-02	1.35383301e-04
7.09000000e-01	1.27803449e-02	1.35424810e-04
7.10000000e-01	1.27706348e-02	1.35429213e-04
7.11000000e-01	1.27374769e-02	1.35132877e-04
7.12000000e-01	1.26865394e-02	1.34343704e-04
7.13000000e-01	1.27084859e-02	1.34708258e-04
7.14000000e-01	1.26210811e-02	1.33986180e-04
7.15000000e-01	1.28185439e-02	1.36067149e-04
7.16000000e-01	1.25632308e-02	1.33724310e-04
7.17000000e-01	1.27327848e-02	1.35093051e-04
7.18000000e-01	1.27177418e-02	1.34904974e-04
7.19000000e-01	1.25497994e-02	1.33215334e-04
7.20000000e-01	1.27937055e-02	1.35566343e-04
7.21000000e-01	1.25911208e-02	1.33833064e-04
7.22000000e-01	1.26690640e-02	1.34833460e-04
7.23000000e-01	1.26821590e-02	1.34714472e-04
7.24000000e-01	1.25018302e-02	1.33034178e-04
7.25000000e-01	1.26050769e-02	1.33786076e-04
7.26000000e-01	1.25385504e-02	1.33115572e-04
7.27000000e-01	1.25295542e-02	1.32994630e-04
7.28000000e-01	1.24190402e-02	1.31886298e-04
7.29000000e-01	1.27430546e-02	1.35002436e-04
7.30000000e-01	1.24405790e-02	1.32599904e-04
7.31000000e-01	1.25903809e-02	1.33705419e-04
7.32000000e-01	1.25119611e-02	1.33480018e-04
7.33000000e-01	1.23458142e-02	1.31163435e-04
7.34000000e-01	1.24824940e-02	1.32418687e-04
7.35000000e-01	1.25181640e-02	1.32929042e-04
7.36000000e-01	1.24416338e-02	1.31709792e-04
7.37000000e-01	1.24219582e-02	1.31731280e-04
7.38000000e-01	1.24771970e-02	1.31865609e-04
7.39000000e-01	1.24938943e-02	1.31407157e-04
7.40000000e-01	1.23677991e-02	1.30060426e-04
7.41000000e-01	1.24087011e-02	1.30563796e-04
7.42000000e-01	1.24191015e-02	1.30563202e-04
7.43000000e-01	1.24239291e-02	1.30660222e-04
7.44000000e-01	1.24095771e-02	1.30401302e-04
7.45000000e-01	1.23618067e-02	1.29953379e-04
7.46000000e-01	1.24243020e-02	1.30865437e-04
7.47000000e-01	1.23705394e-02	1.30538792e-04
7.48000000e-01	1.23130856e-02	1.29919691e-04
7.49000000e-01	1.24136751e-02	1.30827514e-04
7.50000000e-01	1.22422616e-02	1.29208241e-04
7.51000000e-01	1.22866317e-02	1.29329725e-04
7.52000000e-01	1.23034940e-02	1.29595048e-04
7.53000000e-01	1.23831099e-02	1.30226560e-04
7.54000000e-01	1.23324019e-02	1.30238628e-04
7.55000000e-01	1.22758525e-02	1.29508178e-04
7.56000000e-01	1.23076770e-02	1.29612236e-04
7.57000000e-01	1.23714186e-02	1.30599071e-04
7.58000000e-01	1.23578490e-02	1.29920010e-04
7.59000000e-01	1.22834520e-02	1.28632263e-04
7.60000000e-01	1.22358124e-02	1.28548521e-04
7.61000000e-01	1.21938543e-02	1.28252026e-04
7.62000000e-01	1.21250761e-02	1.27111733e-04
7.63000000e-01	1.21733978e-02	1.27721076e-04
7.64000000e-01	1.22824059e-02	1.28066780e-04
7.65000000e-01	1.22864334e-02	1.28496635e-04
7.66000000e-01	1.21330480e-02	1.27273279e-04
7.67000000e-01	1.20768401e-02	1.26059936e-04
7.68000000e-01	1.22210646e-02	1.27693442e-04
7.69000000e-01	1.21237085e-02	1.26842461e-04
7.70000000e-01	1.22743534e-02	1.28286098e-04
7.71000000e-01	1.21767167e-02	1.26877950e-04
7.72000000e-01	1.22351345e-02	1.31797743e-04
7.73000000e-01	1.21131487e-02	1.34498507e-04
7.74000000e-01	1.20912682e-02	1.36952031e-04
7.75000000e-01	1.20544024e-02	1.38971143e-04
7.76000000e-01	1.20021549e-02	1.40549685e-04
7.77000000e-01	1.20842857e-02	1.43654462e-04
7.78000000e-01	1.21302482e-02	1.45994618e-04
7.79000000e-01	1.20737332e-02	1.46902283e-04
7.80000000e-01	1.19252373e-02	1.47455716e-04
7.81000000e-01	1.19874254e-02	1.49437243e-04
7.82000000e-01	1.19558633e-02	1.50613567e-04
7.83000000e-01	1.18650549e-02	1.51818809e-04
7.84000000e-01	1.17639877e-02	1.51901726e-04
7.85000000e-01	1.17783302e-02	1.54002235e-04
7.86000000e-01	1.18743166e-02	1.56919453e-04
7.87000000e-01	1.19071390e-02	1.57892283e-04
7.88000000e-01	1.18552240e-02	1.59661419e-04
7.89000000e-01	1.18244174e-02	1.60771438e-04
7.90000000e-01	1.18636095e-02	1.62969192e-04
7.91000000e-01	1.18763188e-02	1.64330197e-04
7.92000000e-01	1.19492544e-02	1.67002795e-04
7.93000000e-01	1.19902008e-02	1.69303264e-04
7.94000000e-01	1.19700977e-02	1.70228876e-04
7.95000000e-01	1.18133460e-02	1.70058044e-04
7.96000000e-01	1.17992993e-02	1.71185303e-04
7.97000000e-01	1.17263297e-02	1.73363729e-04
7.98000000e-01	1.17734445e-02	1.75260030e-04
7.99000000e-01	1.17616971e-02	1.76791728e-04
8.00000000e-01	1.16776493e-02	1.77538664e-04
8.01000000e-01	1.18844191e-02	1.81831016e-04
8.02000000e-01	1.16441948e-02	1.79683961e-04
8.03000000e-01	1.16329923e-02	1.82853396e-04
8.04000000e-01	1.16871430e-02	1.84751687e-04
8.05000000e-01	1.15992706e-02	1.86310264e-04
8.06000000e-01	1.17938835e-02	1.89570588e-04
8.07000000e-01	1.16746406e-02	1.90236763e-04
8.08000000e-01	1.16923231e-02	1.93167519e-04
8.09000000e-01	1.15950694e-02	1.93596045e-04
8.10000000e-01	1.15450813e-02	1.95300087e-04
8.11000000e-01	1.16322655e-02	1.97709954e-04
8.12000000e-01	1.15384258e-02	1.99264315e-04
8.13000000e-01	1.16586477e-02	2.04785322e-04
8.14000000e-01	1.14076629e-02	2.01872961e-04
8.15000000e-01	1.15434672e-02	2.06855707e-04
8.16000000e-01	1.16615472e-02	2.10065212e-04
8.17000000e-01	1.15230030e-02	2.13821392e-04
8.18000000e-01	1.15485230e-02	2.15787473e-04
8.19000000e-01	1.15812422e-02	2.18132135e-04
8.20000000e-01	1.14443757e-02	2.16882855e-04
8.21000000e-01	1.14422973e-02	2.22683389e-04
8.22000000e-01	1.14238248e-02	2.24235720e-04
8.23000000e-01	1.13116394e-02	2.24246996e-04
8.24000000e-01	1.16136549e-02	2.33711282e-04
8.25000000e-01	1.13250315e-02	2.31302492e-04
8.26000000e-01	1.13980370e-02	2.35334794e-04
8.27000000e-01	1.14700740e-02	2.41128904e-04
8.28000000e-01	1.13609276e-02	2.43494836e-04
8.29000000e-01	1.11414110e-02	2.43227256e-04
8.30000000e-01	1.13003396e-02	2.49251124e-04
8.31000000e-01	1.14161022e-02	2.54066658e-04
8.32000000e-01	1.13194410e-02	2.57547222e-04
8.33000000e-01	1.13194734e-02	2.62068556e-04
8.34000000e-01	1.11331004e-02	2.61762098e-04
8.35000000e-01	1.11974525e-02	2.68525474e-04
8.36000000e-01	1.11122066e-02	2.71974075e-04
8.37000000e-01	1.11119511e-02	2.77250087e-04
8.38000000e-01	1.12015627e-02	2.83726758e-04
8.39000000e-01	1.11273256e-02	2.88772301e-04
8.40000000e-01	1.15010602e-02	3.01595627e-04
8.41000000e-01	1.14037105e-02	3.10384644e-04
8.42000000e-01	1.08704461e-02	3.01406929e-04
8.43000000e-01	1.15684946e-02	3.22675349e-04
8.44000000e-01	1.10205437e-02	3.24209762e-04
8.45000000e-01	1.11590929e-02	3.32403290e-04
8.46000000e-01	1.09031725e-02	3.31508615e-04
8.47000000e-01	1.10618599e-02	3.51132461e-04
8.48000000e-01	1.13031064e-02	3.67446662e-04
8.49000000e-01	1.07113729e-02	3.61275635e-04
8.50000000e-01	1.12514598e-02	3.92730963e-04
8.51000000e-01	1.13217746e-02	4.04018022e-04
8.52000000e-01	1.08796268e-02	4.10042576e-04
8.53000000e-01	1.08619943e-02	4.23244178e-04
8.54000000e-01	1.10133340e-02	4.52910862e-04
8.55000000e-01	1.13141759e-02	4.77344861e-04
8.56000000e-01	1.08661469e-02	4.76590543e-04
8.57000000e-01	1.11694863e-02	4.91289977e-04
8.58000000e-01	1.10227312e-02	4.99202381e-04
8.59000000e-01	1.04950408e-02	5.01391944e-04
8.60000000e-01	1.06329229e-02	5.26861848e-04
8.61000000e-01	1.08511834e-02	5.63155526e-04
8.62000000e-01	1.05664226e-02	5.57873791e-04
8.63000000e-01	1.09099172e-02	5.99767628e-04
8.64000000e-01	1.06220429e-02	6.04907581e-04
8.65000000e-01	1.06119839e-02	6.43505730e-04
8.66000000e-01	1.05881060e-02	6.77730187e-04
8.67000000e-01	1.01550128e-02	6.90766047e-04
8.68000000e-01	1.00433722e-02	7.25836315e-04
8.69000000e-01	1.04467251e-02	7.96030077e-04
8.70000000e-01	9.84074627e-03	8.31622328e-04
8.71000000e-01	1.04440950e-02	9.88111088e-04
8.72000000e-01	1.01662316e-02	1.09788236e-03
8.73000000e-01	1.10645845e-02	1.31784995e-03
8.74000000e-01	1.14342575e-02	1.78548880e-03
8.75000000e-01	1.02062139e-02	3.23867214e-03
