% Filename : SEC10_00045_00014.h5
% Date & Time : 30-Oct-2025 18:06:04
% X-ray Energy (keV) : 13.30001
% Exposure Time (s) : 0.500
% Beam Center : 1461.24000, 208.98300
% Sample to Detector Distance (SDD) (mm) : 1990.750
% Detector Pixel Size (mm) : 0.075
% Photodiode Value : 141386.000
% I0 of Sample : 0
% I0 of Standard : 1
% 
% q(A^-1)   I(q)    I(q)_SE
0.00000000e+00	1.27782672e-02	6.76161859e-03
2.50000000e-04	0.00000000e+00	0.00000000e+00
5.00000000e-04	0.00000000e+00	0.00000000e+00
7.50000000e-04	0.00000000e+00	0.00000000e+00
1.00000000e-03	0.00000000e+00	0.00000000e+00
1.25000000e-03	0.00000000e+00	0.00000000e+00
1.50000000e-03	0.00000000e+00	0.00000000e+00
1.75000000e-03	0.00000000e+00	0.00000000e+00
2.00000000e-03	0.00000000e+00	0.00000000e+00
2.25000000e-03	0.00000000e+00	0.00000000e+00
2.50000000e-03	0.00000000e+00	0.00000000e+00
2.75000000e-03	0.00000000e+00	0.00000000e+00
3.00000000e-03	0.00000000e+00	0.00000000e+00
3.25000000e-03	1.45167704e+02	8.44368512e+01
3.50000000e-03	4.35330755e+02	1.03979574e+02
3.75000000e-03	3.13659247e+02	5.76150475e+01
4.00000000e-03	2.25701334e+02	3.68974263e+01
4.25000000e-03	1.91605723e+02	2.58495036e+01
4.50000000e-03	1.42390967e+02	1.67609625e+01
4.75000000e-03	1.22579409e+02	1.34690783e+01
5.00000000e-03	9.79511314e+01	1.02030424e+01
5.25000000e-03	7.90109080e+01	8.17327284e+00
5.50000000e-03	6.49670108e+01	6.51781855e+00
5.75000000e-03	5.53411462e+01	5.44535813e+00
6.00000000e-03	4.64134709e+01	4.35451647e+00
6.25000000e-03	3.98087654e+01	3.73845633e+00
6.50000000e-03	3.38272807e+01	3.09065188e+00
6.75000000e-03	2.88473321e+01	2.61995691e+00
7.00000000e-03	2.54326474e+01	2.24025331e+00
7.25000000e-03	2.17645268e+01	1.85205596e+00
7.50000000e-03	1.90293252e+01	1.61451125e+00
7.75000000e-03	1.68218501e+01	1.39832704e+00
8.00000000e-03	1.50586147e+01	1.24292912e+00
8.25000000e-03	1.36838580e+01	1.09106784e+00
8.50000000e-03	1.20933489e+01	9.39935211e-01
8.75000000e-03	1.08026670e+01	8.34752524e-01
9.00000000e-03	9.65690941e+00	7.39455115e-01
9.25000000e-03	8.62710191e+00	6.42647502e-01
9.50000000e-03	7.88712564e+00	5.78537561e-01
9.75000000e-03	7.13211962e+00	5.20576019e-01
1.00000000e-02	6.41327755e+00	4.58918491e-01
1.02500000e-02	5.94018659e+00	4.30381223e-01
1.05000000e-02	5.38562222e+00	3.75120067e-01
1.07500000e-02	4.93693804e+00	3.41550008e-01
1.10000000e-02	4.53330294e+00	3.08553594e-01
1.12500000e-02	4.15574603e+00	2.88554172e-01
1.15000000e-02	3.78489759e+00	2.55099731e-01
1.17500000e-02	3.53130869e+00	2.33025296e-01
1.20000000e-02	3.30011557e+00	2.16457195e-01
1.22500000e-02	2.97796312e+00	1.91579597e-01
1.25000000e-02	2.75552297e+00	1.77131658e-01
1.27500000e-02	2.63130969e+00	1.67931765e-01
1.30000000e-02	2.41954563e+00	1.51992602e-01
1.32500000e-02	2.23277142e+00	1.36939375e-01
1.35000000e-02	2.06995131e+00	1.27769481e-01
1.37500000e-02	1.89016627e+00	1.16054458e-01
1.40000000e-02	1.79542728e+00	1.09194736e-01
1.42500000e-02	1.66411439e+00	9.88205343e-02
1.45000000e-02	1.56291667e+00	9.32360235e-02
1.47500000e-02	1.47474393e+00	8.72820129e-02
1.50000000e-02	1.37131071e+00	8.02846921e-02
1.52500000e-02	1.30153924e+00	7.53766302e-02
1.55000000e-02	1.20410623e+00	6.87652750e-02
1.57500000e-02	1.13035981e+00	6.42044970e-02
1.60000000e-02	1.05843136e+00	5.90958423e-02
1.62500000e-02	9.87231790e-01	5.57865199e-02
1.65000000e-02	9.22646847e-01	5.08940231e-02
1.67500000e-02	8.86261934e-01	4.84684324e-02
1.70000000e-02	8.36534857e-01	4.57667059e-02
1.72500000e-02	7.83262462e-01	4.23733067e-02
1.75000000e-02	7.36234623e-01	3.95964285e-02
1.77500000e-02	6.94609152e-01	3.67476555e-02
1.80000000e-02	6.59697518e-01	3.50337720e-02
1.82500000e-02	6.22867343e-01	3.20645061e-02
1.85000000e-02	5.91780465e-01	3.12459532e-02
1.87500000e-02	5.60405869e-01	2.89140943e-02
1.90000000e-02	5.26748556e-01	2.71343763e-02
1.92500000e-02	4.99112023e-01	2.52090261e-02
1.95000000e-02	4.78476061e-01	2.40576978e-02
1.97500000e-02	4.48038829e-01	2.25899142e-02
2.00000000e-02	4.28921471e-01	2.13585710e-02
2.02500000e-02	4.13150692e-01	2.04392933e-02
2.05000000e-02	3.87906909e-01	1.88466361e-02
2.07500000e-02	3.73161173e-01	1.80930598e-02
2.10000000e-02	3.52351503e-01	1.72018066e-02
2.12500000e-02	3.34885583e-01	1.64286454e-02
2.15000000e-02	3.24309174e-01	1.58607405e-02
2.17500000e-02	3.09678356e-01	1.52420420e-02
2.20000000e-02	2.91235451e-01	1.43981655e-02
2.22500000e-02	2.81978588e-01	1.38598790e-02
2.25000000e-02	2.69645108e-01	1.32848478e-02
2.27500000e-02	2.58585119e-01	1.25233113e-02
2.30000000e-02	2.48110853e-01	1.21247913e-02
2.32500000e-02	2.38907488e-01	1.15745749e-02
2.35000000e-02	2.28891525e-01	1.12127536e-02
2.37500000e-02	2.19709379e-01	1.07177524e-02
2.40000000e-02	2.15651239e-01	1.05516090e-02
2.42500000e-02	2.05510183e-01	9.92679734e-03
2.45000000e-02	1.96454450e-01	9.55039819e-03
2.47500000e-02	1.92215696e-01	9.21414879e-03
2.50000000e-02	1.84727074e-01	8.86333802e-03
2.52500000e-02	1.78734351e-01	8.63729695e-03
2.55000000e-02	1.71630326e-01	8.11857587e-03
2.57500000e-02	1.66653632e-01	7.96046653e-03
2.60000000e-02	1.61877097e-01	7.69102687e-03
2.62500000e-02	1.58173050e-01	7.57772327e-03
2.65000000e-02	1.52138104e-01	7.17179206e-03
2.67500000e-02	1.47905530e-01	6.94814986e-03
2.70000000e-02	1.43395510e-01	6.77678185e-03
2.72500000e-02	1.38606471e-01	6.43962300e-03
2.75000000e-02	1.34578601e-01	6.39414703e-03
2.77500000e-02	1.30072639e-01	6.14726099e-03
2.80000000e-02	1.28400125e-01	5.93995544e-03
2.82500000e-02	1.23784865e-01	5.71389391e-03
2.85000000e-02	1.21240964e-01	5.62077592e-03
2.87500000e-02	1.18172464e-01	5.53222054e-03
2.90000000e-02	1.16023052e-01	5.40754231e-03
2.92500000e-02	1.12056107e-01	5.07650264e-03
2.95000000e-02	1.08408122e-01	5.01482178e-03
2.97500000e-02	1.05039097e-01	4.79535219e-03
3.00000000e-02	1.03643330e-01	4.75988397e-03
3.02500000e-02	1.02654249e-01	4.72783427e-03
3.05000000e-02	1.01169233e-01	4.53621285e-03
3.07500000e-02	9.79776037e-02	4.47082066e-03
3.10000000e-02	9.53596093e-02	4.34519956e-03
3.12500000e-02	9.41614058e-02	4.32090551e-03
3.15000000e-02	9.15151697e-02	4.12291546e-03
3.17500000e-02	8.83423048e-02	3.93797159e-03
3.20000000e-02	8.69063021e-02	3.92414729e-03
3.22500000e-02	8.54348850e-02	3.86441074e-03
3.25000000e-02	8.22925333e-02	3.70018394e-03
3.27500000e-02	7.98653922e-02	3.57621039e-03
3.30000000e-02	7.97333685e-02	3.52327272e-03
3.32500000e-02	7.96209416e-02	3.51589472e-03
3.35000000e-02	7.64023461e-02	3.42023984e-03
3.37500000e-02	7.56672304e-02	3.34213142e-03
3.40000000e-02	7.39441965e-02	3.25895191e-03
3.42500000e-02	7.29704732e-02	3.19320651e-03
3.45000000e-02	6.94910361e-02	3.04987056e-03
3.47500000e-02	6.84721504e-02	3.00595194e-03
3.50000000e-02	6.71736311e-02	2.95407946e-03
3.52500000e-02	6.71903309e-02	2.95153509e-03
3.55000000e-02	6.60007881e-02	2.84176722e-03
3.57500000e-02	6.45055080e-02	2.81841353e-03
3.60000000e-02	6.38473328e-02	2.77607172e-03
3.62500000e-02	6.34834684e-02	2.76743420e-03
3.65000000e-02	6.06614220e-02	2.62004632e-03
3.67500000e-02	6.09543300e-02	2.62147590e-03
3.70000000e-02	5.73619031e-02	2.45420239e-03
3.72500000e-02	5.75686442e-02	2.45697623e-03
3.75000000e-02	5.61488914e-02	2.41019282e-03
3.77500000e-02	5.67575205e-02	2.43208801e-03
3.80000000e-02	5.49933120e-02	2.33556528e-03
3.82500000e-02	5.48016227e-02	2.31347882e-03
3.85000000e-02	5.27436656e-02	2.25045305e-03
3.87500000e-02	5.25608023e-02	2.20673069e-03
3.90000000e-02	5.22819155e-02	2.21083239e-03
3.92500000e-02	5.11861863e-02	2.14155622e-03
3.95000000e-02	5.01856255e-02	2.11259546e-03
3.97500000e-02	5.07466199e-02	2.13684974e-03
4.00000000e-02	4.98651491e-02	2.09261521e-03
4.02500000e-02	5.02282669e-02	2.10211870e-03
4.05000000e-02	4.75400628e-02	1.97998269e-03
4.07500000e-02	4.65495918e-02	1.92241361e-03
4.10000000e-02	4.61216337e-02	1.93108985e-03
4.12500000e-02	4.60854253e-02	1.91756003e-03
4.15000000e-02	4.60428113e-02	1.89969263e-03
4.17500000e-02	4.53074298e-02	1.86432078e-03
4.20000000e-02	4.55366118e-02	1.86621340e-03
4.22500000e-02	4.43136920e-02	1.79833420e-03
4.25000000e-02	4.42743620e-02	1.81578818e-03
4.27500000e-02	4.26078275e-02	1.75198818e-03
4.30000000e-02	4.34940098e-02	1.76445382e-03
4.32500000e-02	4.33901329e-02	1.75595548e-03
4.35000000e-02	4.20654660e-02	1.72699535e-03
4.37500000e-02	4.16166064e-02	1.68534894e-03
4.40000000e-02	4.17700545e-02	1.69205266e-03
4.42500000e-02	4.17106398e-02	1.69485769e-03
4.45000000e-02	4.06231441e-02	1.63609430e-03
4.47500000e-02	3.92405456e-02	1.58305881e-03
4.50000000e-02	4.02015688e-02	1.61680912e-03
4.52500000e-02	3.88320514e-02	1.56364790e-03
4.55000000e-02	3.89701111e-02	1.55741960e-03
4.57500000e-02	3.96747399e-02	1.57201054e-03
4.60000000e-02	3.78413187e-02	1.51532455e-03
4.62500000e-02	3.80590321e-02	1.51874799e-03
4.65000000e-02	3.77078914e-02	1.49327572e-03
4.67500000e-02	3.70184752e-02	1.46753500e-03
4.70000000e-02	3.70552086e-02	1.46385360e-03
4.72500000e-02	3.59302559e-02	1.42454233e-03
4.75000000e-02	3.71437101e-02	1.47913606e-03
4.77500000e-02	3.70841193e-02	1.44434937e-03
4.80000000e-02	3.50777027e-02	1.37202676e-03
4.82500000e-02	3.56678093e-02	1.38930809e-03
4.85000000e-02	3.56160850e-02	1.40940151e-03
4.87500000e-02	3.52630770e-02	1.38602592e-03
4.90000000e-02	3.60835182e-02	1.40272534e-03
4.92500000e-02	3.54321025e-02	1.38046442e-03
4.95000000e-02	3.48979631e-02	1.35527448e-03
4.97500000e-02	3.39171995e-02	1.31922647e-03
5.00000000e-02	3.45466640e-02	1.33567279e-03
5.02500000e-02	3.46683261e-02	1.33422667e-03
5.05000000e-02	3.37797007e-02	1.29725938e-03
5.07500000e-02	3.34767984e-02	1.29432195e-03
5.10000000e-02	3.20610595e-02	1.24118538e-03
5.12500000e-02	3.40128315e-02	1.31631607e-03
5.15000000e-02	3.24995199e-02	1.23810658e-03
5.17500000e-02	3.25235259e-02	1.24811221e-03
5.20000000e-02	3.28905183e-02	1.24633079e-03
5.22500000e-02	3.18203530e-02	1.22228607e-03
5.25000000e-02	3.22727433e-02	1.22586048e-03
5.27500000e-02	3.26395970e-02	1.23351778e-03
5.30000000e-02	3.13693186e-02	1.19543390e-03
5.32500000e-02	3.10475395e-02	1.17684504e-03
5.35000000e-02	2.98524208e-02	1.14569473e-03
5.37500000e-02	3.10929997e-02	1.17808276e-03
5.40000000e-02	3.16238793e-02	1.20355905e-03
5.42500000e-02	3.10287371e-02	1.16482874e-03
5.45000000e-02	3.06769696e-02	1.16091273e-03
5.47500000e-02	3.00097168e-02	1.12745051e-03
5.50000000e-02	2.94565256e-02	1.10878637e-03
5.52500000e-02	3.03008827e-02	1.13350363e-03
5.55000000e-02	3.01561875e-02	1.12254526e-03
5.57500000e-02	2.98660667e-02	1.12330991e-03
5.60000000e-02	3.02781605e-02	1.12365494e-03
5.62500000e-02	2.96763413e-02	1.11048199e-03
5.65000000e-02	2.95690652e-02	1.09667027e-03
5.67500000e-02	2.99021176e-02	1.12106443e-03
5.70000000e-02	2.92357220e-02	1.08130529e-03
5.72500000e-02	2.94543974e-02	1.09087292e-03
5.75000000e-02	2.82526262e-02	1.05167442e-03
5.77500000e-02	2.90564766e-02	1.07123928e-03
5.80000000e-02	2.88351453e-02	1.06736320e-03
5.82500000e-02	2.86706147e-02	1.04613056e-03
5.85000000e-02	2.84775793e-02	1.05392124e-03
5.87500000e-02	2.84106188e-02	1.04122284e-03
5.90000000e-02	2.86096668e-02	1.04680627e-03
5.92500000e-02	2.88460997e-02	1.05316165e-03
5.95000000e-02	2.83453638e-02	1.03001908e-03
5.97500000e-02	2.81997308e-02	1.03469015e-03
6.00000000e-02	2.69222887e-02	9.80620865e-04
6.02500000e-02	2.71634021e-02	9.86550282e-04
6.05000000e-02	2.73028109e-02	9.88180862e-04
6.07500000e-02	2.81765790e-02	1.01628919e-03
6.10000000e-02	2.70445167e-02	9.79660425e-04
6.12500000e-02	2.68192742e-02	9.79559510e-04
6.15000000e-02	2.68676436e-02	9.71523113e-04
6.17500000e-02	2.70711311e-02	9.74723958e-04
6.20000000e-02	2.74244261e-02	9.89328096e-04
6.22500000e-02	2.62407589e-02	9.41746165e-04
6.25000000e-02	2.67190010e-02	9.59291092e-04
6.27500000e-02	2.63619817e-02	9.41667696e-04
6.30000000e-02	2.67459101e-02	9.56493160e-04
6.32500000e-02	2.66711537e-02	9.45844590e-04
6.35000000e-02	2.71684812e-02	9.72087409e-04
6.37500000e-02	2.62331886e-02	9.43248588e-04
6.40000000e-02	2.64514144e-02	9.36525596e-04
6.42500000e-02	2.65648336e-02	9.35472604e-04
6.45000000e-02	2.59170179e-02	9.17653186e-04
6.47500000e-02	2.61862222e-02	9.27046655e-04
6.50000000e-02	2.61756915e-02	9.26042555e-04
6.52500000e-02	2.54575209e-02	9.07339937e-04
6.55000000e-02	2.57421926e-02	9.13826777e-04
6.57500000e-02	2.57301856e-02	9.05535029e-04
6.60000000e-02	2.51248866e-02	8.84186319e-04
6.62500000e-02	2.54984329e-02	9.06564812e-04
6.65000000e-02	2.53309340e-02	8.83261440e-04
6.67500000e-02	2.52997041e-02	8.83533444e-04
6.70000000e-02	2.52063184e-02	8.85932338e-04
6.72500000e-02	2.50365916e-02	8.79517128e-04
6.75000000e-02	2.48894466e-02	8.67811454e-04
6.77500000e-02	2.49545512e-02	8.61409272e-04
6.80000000e-02	2.55103855e-02	8.91615907e-04
6.82500000e-02	2.57260585e-02	8.89088257e-04
6.85000000e-02	2.50458819e-02	8.71164760e-04
6.87500000e-02	2.50934132e-02	8.70130761e-04
6.90000000e-02	2.52799244e-02	8.74175526e-04
6.92500000e-02	2.56246774e-02	8.80503500e-04
6.95000000e-02	2.47506399e-02	8.52921903e-04
6.97500000e-02	2.48456920e-02	8.58990511e-04
7.00000000e-02	2.44951270e-02	8.41622380e-04
7.02500000e-02	2.47692543e-02	8.52558964e-04
7.05000000e-02	2.44944690e-02	8.40399740e-04
7.07500000e-02	2.44877916e-02	8.43790479e-04
7.10000000e-02	2.47897866e-02	8.44838969e-04
7.12500000e-02	2.43892335e-02	8.37192170e-04
7.15000000e-02	2.50920148e-02	8.57807779e-04
7.17500000e-02	2.43156054e-02	8.28257995e-04
7.20000000e-02	2.40917866e-02	8.26172100e-04
7.22500000e-02	2.43519755e-02	8.31697460e-04
7.25000000e-02	2.45830918e-02	8.30154707e-04
7.27500000e-02	2.48725335e-02	8.40067057e-04
7.30000000e-02	2.33220509e-02	7.95952321e-04
7.32500000e-02	2.40505609e-02	8.12104471e-04
7.35000000e-02	2.43349788e-02	8.23455981e-04
7.37500000e-02	2.41749782e-02	8.11533958e-04
7.40000000e-02	2.37327167e-02	8.05729838e-04
7.42500000e-02	2.42885352e-02	8.19525613e-04
7.45000000e-02	2.39402563e-02	8.03058789e-04
7.47500000e-02	2.35728325e-02	7.91745349e-04
7.50000000e-02	2.38184714e-02	7.96637505e-04
7.52500000e-02	2.37677838e-02	7.93362901e-04
7.55000000e-02	2.39291347e-02	8.01928289e-04
7.57500000e-02	2.37248688e-02	7.92588091e-04
7.60000000e-02	2.36802285e-02	7.91054043e-04
7.62500000e-02	2.37545574e-02	7.99024977e-04
7.65000000e-02	2.37998535e-02	7.89493911e-04
7.67500000e-02	2.33483630e-02	7.72549432e-04
7.70000000e-02	2.36184993e-02	7.79461996e-04
7.72500000e-02	2.30551466e-02	7.76437311e-04
7.75000000e-02	2.34069146e-02	7.93418400e-04
7.77500000e-02	2.33460527e-02	8.00202280e-04
7.80000000e-02	2.25619103e-02	7.84289073e-04
7.82500000e-02	2.35936755e-02	8.11702597e-04
7.85000000e-02	2.32045810e-02	8.04276661e-04
7.87500000e-02	2.33006564e-02	8.07081229e-04
7.90000000e-02	2.33548894e-02	8.15527300e-04
7.92500000e-02	2.32394144e-02	8.11232196e-04
7.95000000e-02	2.28898207e-02	8.03491447e-04
7.97500000e-02	2.31519303e-02	8.25636406e-04
8.00000000e-02	2.33937107e-02	8.17771309e-04
8.02500000e-02	2.31277905e-02	8.22668460e-04
8.05000000e-02	2.34130671e-02	8.29314534e-04
8.07500000e-02	2.32318436e-02	8.28561361e-04
8.10000000e-02	2.34748153e-02	8.39434588e-04
8.12500000e-02	2.28627317e-02	8.22799764e-04
8.15000000e-02	2.27532801e-02	8.05816235e-04
8.17500000e-02	2.28726670e-02	8.26709954e-04
8.20000000e-02	2.27347721e-02	8.14618335e-04
8.22500000e-02	2.28366323e-02	8.20351138e-04
8.25000000e-02	2.33289613e-02	8.37447698e-04
8.27500000e-02	2.19466692e-02	7.95731530e-04
8.30000000e-02	2.25095248e-02	8.18690749e-04
8.32500000e-02	2.22120442e-02	8.03746257e-04
8.35000000e-02	2.24484321e-02	8.26109987e-04
8.37500000e-02	2.25747514e-02	8.08280485e-04
8.40000000e-02	2.28935232e-02	8.28596872e-04
8.42500000e-02	2.26028278e-02	8.19817626e-04
8.45000000e-02	2.25492021e-02	8.20913804e-04
8.47500000e-02	2.32729840e-02	8.44675199e-04
8.50000000e-02	2.23352556e-02	8.13803430e-04
8.52500000e-02	2.23389109e-02	8.18228300e-04
8.55000000e-02	2.24160575e-02	8.19334338e-04
8.57500000e-02	2.22704564e-02	8.20126672e-04
8.60000000e-02	2.27707744e-02	8.36176127e-04
8.62500000e-02	2.16771473e-02	7.98969950e-04
8.65000000e-02	2.20557788e-02	8.09163515e-04
8.67500000e-02	2.27186884e-02	8.27255248e-04
8.70000000e-02	2.23848804e-02	8.02119187e-04
8.72500000e-02	2.28222736e-02	8.08375001e-04
8.75000000e-02	2.20552927e-02	7.75147106e-04
8.77500000e-02	2.19640029e-02	7.63129299e-04
8.80000000e-02	2.22370884e-02	7.77068940e-04
8.82500000e-02	2.29157216e-02	7.90177239e-04
8.85000000e-02	2.21102375e-02	7.71297779e-04
8.87500000e-02	2.24300365e-02	7.58633473e-04
8.90000000e-02	2.20350475e-02	7.52485730e-04
8.92500000e-02	2.22809944e-02	7.58393930e-04
8.95000000e-02	2.20167310e-02	7.45861803e-04
8.97500000e-02	2.25183485e-02	7.59318026e-04
9.00000000e-02	2.23224417e-02	7.56267751e-04
9.02500000e-02	2.18221452e-02	7.36747812e-04
9.05000000e-02	2.24970050e-02	7.58197639e-04
9.07500000e-02	2.16192941e-02	7.22431330e-04
9.10000000e-02	2.18742489e-02	7.27605049e-04
9.12500000e-02	2.23003778e-02	7.34950351e-04
9.15000000e-02	2.22376565e-02	7.33911843e-04
9.17500000e-02	2.16131890e-02	7.20130008e-04
9.20000000e-02	2.13642576e-02	7.08932472e-04
9.22500000e-02	2.14247723e-02	7.03527476e-04
9.25000000e-02	2.17384827e-02	7.17843666e-04
9.27500000e-02	2.17372978e-02	7.14421345e-04
9.30000000e-02	2.22099938e-02	7.33665753e-04
9.32500000e-02	2.18103097e-02	7.16388783e-04
9.35000000e-02	2.20986588e-02	7.14962256e-04
9.37500000e-02	2.22677049e-02	7.21673346e-04
9.40000000e-02	2.18881896e-02	7.19946692e-04
9.42500000e-02	2.15616691e-02	7.02339020e-04
9.45000000e-02	2.20292421e-02	7.13708240e-04
9.47500000e-02	2.19264292e-02	7.14281745e-04
9.50000000e-02	2.15508720e-02	6.95557323e-04
9.52500000e-02	2.17251501e-02	7.02794643e-04
9.55000000e-02	2.16336637e-02	6.91532859e-04
9.57500000e-02	2.16184130e-02	6.99092879e-04
9.60000000e-02	2.14086922e-02	6.88320708e-04
9.62500000e-02	2.12928957e-02	6.82378575e-04
9.65000000e-02	2.18059441e-02	6.97469826e-04
9.67500000e-02	2.19334889e-02	6.99572729e-04
9.70000000e-02	2.16182245e-02	6.94624422e-04
9.72500000e-02	2.08809091e-02	6.64344723e-04
9.75000000e-02	2.15977196e-02	6.88100124e-04
9.77500000e-02	2.15454639e-02	6.84482430e-04
9.80000000e-02	2.17264658e-02	6.83521659e-04
9.82500000e-02	2.11871995e-02	6.68868050e-04
9.85000000e-02	2.19321087e-02	6.89911914e-04
9.87500000e-02	2.13770341e-02	6.76362850e-04
9.90000000e-02	2.14898057e-02	6.79227370e-04
9.92500000e-02	2.15966796e-02	6.80579621e-04
9.95000000e-02	2.14134601e-02	6.70225607e-04
9.97500000e-02	2.11515857e-02	6.63296475e-04
1.00000000e-01	2.12953575e-02	5.45674391e-04
1.00500000e-01	2.17596957e-02	4.81207560e-04
1.01000000e-01	2.15216108e-02	4.74416897e-04
1.01500000e-01	2.12305461e-02	4.64522844e-04
1.02000000e-01	2.12006591e-02	4.63919161e-04
1.02500000e-01	2.10130623e-02	4.58905133e-04
1.03000000e-01	2.16044402e-02	4.70033244e-04
1.03500000e-01	2.13362161e-02	4.63307734e-04
1.04000000e-01	2.13245553e-02	4.60974770e-04
1.04500000e-01	2.13928955e-02	4.63379900e-04
1.05000000e-01	2.11577282e-02	4.56541633e-04
1.05500000e-01	2.15104380e-02	4.62339143e-04
1.06000000e-01	2.12792224e-02	4.56660800e-04
1.06500000e-01	2.16544988e-02	4.59077631e-04
1.07000000e-01	2.10860402e-02	4.55977351e-04
1.07500000e-01	2.14611644e-02	4.72186164e-04
1.08000000e-01	2.12159733e-02	4.72736751e-04
1.08500000e-01	2.13219821e-02	4.75589197e-04
1.09000000e-01	2.13598051e-02	4.80595479e-04
1.09500000e-01	2.13654319e-02	4.85581914e-04
1.10000000e-01	2.12448340e-02	4.72878695e-04
1.10500000e-01	2.09249099e-02	4.60601719e-04
1.11000000e-01	2.11875013e-02	4.55206496e-04
1.11500000e-01	2.11171768e-02	4.51029430e-04
1.12000000e-01	2.14446227e-02	4.54092793e-04
1.12500000e-01	2.15853879e-02	4.54169012e-04
1.13000000e-01	2.12190736e-02	4.47700045e-04
1.13500000e-01	2.12344392e-02	4.44738237e-04
1.14000000e-01	2.09701990e-02	4.38382431e-04
1.14500000e-01	2.09327138e-02	4.36898702e-04
1.15000000e-01	2.10432255e-02	4.36418156e-04
1.15500000e-01	2.09738160e-02	4.33825412e-04
1.16000000e-01	2.08597969e-02	4.29198745e-04
1.16500000e-01	2.09211697e-02	4.33786038e-04
1.17000000e-01	2.08561413e-02	4.29567085e-04
1.17500000e-01	2.07441232e-02	4.23894616e-04
1.18000000e-01	2.08822826e-02	4.30839537e-04
1.18500000e-01	2.11293632e-02	4.29890429e-04
1.19000000e-01	2.10797218e-02	4.30911565e-04
1.19500000e-01	2.06900191e-02	4.20378028e-04
1.20000000e-01	2.06540886e-02	4.19669262e-04
1.20500000e-01	2.07903690e-02	4.20142551e-04
1.21000000e-01	2.06806855e-02	4.17144337e-04
1.21500000e-01	2.11384931e-02	4.26260722e-04
1.22000000e-01	2.07150480e-02	4.17378554e-04
1.22500000e-01	2.09786892e-02	4.20506521e-04
1.23000000e-01	2.07330133e-02	4.15039910e-04
1.23500000e-01	2.11015675e-02	4.19238418e-04
1.24000000e-01	2.11487309e-02	4.23453995e-04
1.24500000e-01	2.09744655e-02	4.15818939e-04
1.25000000e-01	2.08200463e-02	4.11791136e-04
1.25500000e-01	2.10213786e-02	4.14950825e-04
1.26000000e-01	2.10419571e-02	4.16740950e-04
1.26500000e-01	2.08891186e-02	4.13770323e-04
1.27000000e-01	2.06918926e-02	4.07776618e-04
1.27500000e-01	2.08383008e-02	4.10006123e-04
1.28000000e-01	2.05923306e-02	4.05455272e-04
1.28500000e-01	2.08353663e-02	4.08582621e-04
1.29000000e-01	2.09826924e-02	4.08667733e-04
1.29500000e-01	2.07939542e-02	4.05322834e-04
1.30000000e-01	2.11207556e-02	4.09903696e-04
1.30500000e-01	2.09235192e-02	4.04718692e-04
1.31000000e-01	2.07070692e-02	4.01616309e-04
1.31500000e-01	2.07975111e-02	4.01801472e-04
1.32000000e-01	2.09992066e-02	4.05242295e-04
1.32500000e-01	2.08898137e-02	3.99611179e-04
1.33000000e-01	2.07910462e-02	4.00186876e-04
1.33500000e-01	2.08384773e-02	3.94132294e-04
1.34000000e-01	2.09358213e-02	4.00542192e-04
1.34500000e-01	2.03465503e-02	3.88038663e-04
1.35000000e-01	2.06178063e-02	3.89336379e-04
1.35500000e-01	2.10264174e-02	3.97128386e-04
1.36000000e-01	2.05500974e-02	3.87762541e-04
1.36500000e-01	2.06286853e-02	3.90252135e-04
1.37000000e-01	2.11674909e-02	3.95818979e-04
1.37500000e-01	2.09204940e-02	3.93739808e-04
1.38000000e-01	2.09619379e-02	3.93695252e-04
1.38500000e-01	2.05381923e-02	3.85494069e-04
1.39000000e-01	2.03737165e-02	3.83202383e-04
1.39500000e-01	2.05783822e-02	3.84145695e-04
1.40000000e-01	2.07993736e-02	3.89455122e-04
1.40500000e-01	2.05934085e-02	3.86048710e-04
1.41000000e-01	2.06610512e-02	3.84284762e-04
1.41500000e-01	2.06867171e-02	3.86625843e-04
1.42000000e-01	2.05519553e-02	3.81283888e-04
1.42500000e-01	2.05882073e-02	3.83791163e-04
1.43000000e-01	2.07589747e-02	3.85618785e-04
1.43500000e-01	2.05537311e-02	3.80956062e-04
1.44000000e-01	2.04309703e-02	3.76921336e-04
1.44500000e-01	2.00141635e-02	3.68869418e-04
1.45000000e-01	1.99573664e-02	3.69506111e-04
1.45500000e-01	2.04051846e-02	3.74747051e-04
1.46000000e-01	2.05181061e-02	3.75811330e-04
1.46500000e-01	2.04238626e-02	3.74830691e-04
1.47000000e-01	1.99964930e-02	3.67271640e-04
1.47500000e-01	2.02125012e-02	3.69485728e-04
1.48000000e-01	2.03919144e-02	3.72541810e-04
1.48500000e-01	2.01169995e-02	3.67393459e-04
1.49000000e-01	2.00844476e-02	3.65514203e-04
1.49500000e-01	1.96956286e-02	3.58633716e-04
1.50000000e-01	2.02881095e-02	3.69772787e-04
1.50500000e-01	2.01400027e-02	3.65909515e-04
1.51000000e-01	2.02060555e-02	3.64419436e-04
1.51500000e-01	2.03521555e-02	3.67131799e-04
1.52000000e-01	2.01955101e-02	3.61799158e-04
1.52500000e-01	2.01098966e-02	3.61344388e-04
1.53000000e-01	2.04552594e-02	3.64820500e-04
1.53500000e-01	2.01762803e-02	3.61430526e-04
1.54000000e-01	2.04503981e-02	3.62847418e-04
1.54500000e-01	2.02200292e-02	3.66786068e-04
1.55000000e-01	1.99701943e-02	3.68832148e-04
1.55500000e-01	2.02138511e-02	3.75554316e-04
1.56000000e-01	2.00057508e-02	3.73628552e-04
1.56500000e-01	1.99973212e-02	3.72501348e-04
1.57000000e-01	2.00549384e-02	3.73476538e-04
1.57500000e-01	2.01293363e-02	3.68300914e-04
1.58000000e-01	1.99438519e-02	3.61575234e-04
1.58500000e-01	2.02282506e-02	3.64012788e-04
1.59000000e-01	1.97552940e-02	3.53744143e-04
1.59500000e-01	1.99850117e-02	3.56266173e-04
1.60000000e-01	1.99125681e-02	3.55906247e-04
1.60500000e-01	1.99282705e-02	3.52506934e-04
1.61000000e-01	1.99194377e-02	3.52772990e-04
1.61500000e-01	1.99211736e-02	3.50835441e-04
1.62000000e-01	2.00566585e-02	3.54264133e-04
1.62500000e-01	1.95096114e-02	3.45602633e-04
1.63000000e-01	1.99673078e-02	3.50129092e-04
1.63500000e-01	1.96819741e-02	3.47054322e-04
1.64000000e-01	1.97577568e-02	3.46079612e-04
1.64500000e-01	1.94602416e-02	3.40665648e-04
1.65000000e-01	1.97546023e-02	3.46336679e-04
1.65500000e-01	1.98332636e-02	3.45488475e-04
1.66000000e-01	1.99023007e-02	3.47618714e-04
1.66500000e-01	1.98055616e-02	3.43065668e-04
1.67000000e-01	1.99726617e-02	3.46488345e-04
1.67500000e-01	1.96218560e-02	3.39951611e-04
1.68000000e-01	1.98711684e-02	3.44336261e-04
1.68500000e-01	1.98017240e-02	3.41652573e-04
1.69000000e-01	1.97615563e-02	3.41846384e-04
1.69500000e-01	1.95608011e-02	3.36239396e-04
1.70000000e-01	1.97444172e-02	3.39088954e-04
1.70500000e-01	1.96888766e-02	3.36597611e-04
1.71000000e-01	1.97343026e-02	3.38357656e-04
1.71500000e-01	1.97870548e-02	3.39359050e-04
1.72000000e-01	1.94217398e-02	3.33133354e-04
1.72500000e-01	1.94276526e-02	3.32910770e-04
1.73000000e-01	1.91869811e-02	3.28398819e-04
1.73500000e-01	1.97145402e-02	3.35747733e-04
1.74000000e-01	1.93716447e-02	3.29074692e-04
1.74500000e-01	1.95471009e-02	3.29142806e-04
1.75000000e-01	1.94195157e-02	3.28257867e-04
1.75500000e-01	1.92809856e-02	3.25231311e-04
1.76000000e-01	1.96864614e-02	3.30436676e-04
1.76500000e-01	1.93145702e-02	3.24909444e-04
1.77000000e-01	1.95055606e-02	3.27101844e-04
1.77500000e-01	1.93885518e-02	3.25180424e-04
1.78000000e-01	1.94180301e-02	3.25258764e-04
1.78500000e-01	1.92381152e-02	3.22687019e-04
1.79000000e-01	1.92850495e-02	3.21952399e-04
1.79500000e-01	1.94132907e-02	3.24709749e-04
1.80000000e-01	1.93716026e-02	3.25506690e-04
1.80500000e-01	1.93565694e-02	3.23932968e-04
1.81000000e-01	1.97219195e-02	3.28728383e-04
1.81500000e-01	1.94013760e-02	3.22689758e-04
1.82000000e-01	1.93978295e-02	3.22695483e-04
1.82500000e-01	1.92108998e-02	3.19310514e-04
1.83000000e-01	1.92862444e-02	3.19946002e-04
1.83500000e-01	1.94096911e-02	3.21556432e-04
1.84000000e-01	1.94124353e-02	3.21127980e-04
1.84500000e-01	1.97186217e-02	3.25375692e-04
1.85000000e-01	1.93469890e-02	3.20028941e-04
1.85500000e-01	1.92628754e-02	3.17179108e-04
1.86000000e-01	1.90106753e-02	3.12563941e-04
1.86500000e-01	1.90110844e-02	3.12396438e-04
1.87000000e-01	1.93702350e-02	3.17215591e-04
1.87500000e-01	1.92977476e-02	3.16654838e-04
1.88000000e-01	1.93466379e-02	3.16709992e-04
1.88500000e-01	1.90929745e-02	3.11783522e-04
1.89000000e-01	1.91682447e-02	3.11984092e-04
1.89500000e-01	1.90437084e-02	3.10500179e-04
1.90000000e-01	1.91899809e-02	3.12798246e-04
1.90500000e-01	1.91599894e-02	3.11272360e-04
1.91000000e-01	1.93323572e-02	3.13603312e-04
1.91500000e-01	1.93122034e-02	3.13107223e-04
1.92000000e-01	1.90877299e-02	3.09040186e-04
1.92500000e-01	1.92869594e-02	3.12043568e-04
1.93000000e-01	1.91574226e-02	3.10831207e-04
1.93500000e-01	1.91094027e-02	3.08917355e-04
1.94000000e-01	1.92871588e-02	3.10078573e-04
1.94500000e-01	1.90276153e-02	3.06757958e-04
1.95000000e-01	1.88433212e-02	3.04823396e-04
1.95500000e-01	1.89533912e-02	3.03112374e-04
1.96000000e-01	1.89138330e-02	3.04085023e-04
1.96500000e-01	1.88284353e-02	3.02279415e-04
1.97000000e-01	1.90569882e-02	3.05053294e-04
1.97500000e-01	1.92255980e-02	3.07083021e-04
1.98000000e-01	1.89201661e-02	3.01042096e-04
1.98500000e-01	1.90831338e-02	3.04937328e-04
1.99000000e-01	1.91225760e-02	3.05325803e-04
1.99500000e-01	1.90160317e-02	3.02042846e-04
2.00000000e-01	1.90957110e-02	3.03724467e-04
2.00500000e-01	1.88998525e-02	3.00577724e-04
2.01000000e-01	1.88058353e-02	2.97615083e-04
2.01500000e-01	1.88074874e-02	2.97430670e-04
2.02000000e-01	1.88734144e-02	2.98627502e-04
2.02500000e-01	1.87973216e-02	2.96703093e-04
2.03000000e-01	1.88855756e-02	2.97724940e-04
2.03500000e-01	1.89141907e-02	2.99013202e-04
2.04000000e-01	1.89410913e-02	2.98767005e-04
2.04500000e-01	1.87915832e-02	2.95796583e-04
2.05000000e-01	1.91422168e-02	2.99411589e-04
2.05500000e-01	1.87759877e-02	2.95257607e-04
2.06000000e-01	1.89403299e-02	2.95523885e-04
2.06500000e-01	1.88859243e-02	2.96414136e-04
2.07000000e-01	1.88320115e-02	2.94863941e-04
2.07500000e-01	1.90215362e-02	2.96486887e-04
2.08000000e-01	1.88759897e-02	2.93920788e-04
2.08500000e-01	1.87904960e-02	2.92246022e-04
2.09000000e-01	1.88787534e-02	2.93159749e-04
2.09500000e-01	1.89021654e-02	2.93624843e-04
2.10000000e-01	1.88373587e-02	2.92842312e-04
2.10500000e-01	1.88910058e-02	2.93958880e-04
2.11000000e-01	1.89276527e-02	2.92025445e-04
2.11500000e-01	1.86902793e-02	2.90189646e-04
2.12000000e-01	1.89597971e-02	2.92641849e-04
2.12500000e-01	1.88899377e-02	2.91879293e-04
2.13000000e-01	1.89936247e-02	2.92071325e-04
2.13500000e-01	1.84234702e-02	2.84800986e-04
2.14000000e-01	1.87308025e-02	2.88475775e-04
2.14500000e-01	1.88610998e-02	2.89621315e-04
2.15000000e-01	1.87988164e-02	2.89824923e-04
2.15500000e-01	1.87145983e-02	2.86507228e-04
2.16000000e-01	1.85989476e-02	2.84604430e-04
2.16500000e-01	1.87090796e-02	2.87354174e-04
2.17000000e-01	1.86280523e-02	2.88986832e-04
2.17500000e-01	1.86884039e-02	2.94800361e-04
2.18000000e-01	1.86366717e-02	2.94651923e-04
2.18500000e-01	1.88813304e-02	3.00114208e-04
2.19000000e-01	1.87069044e-02	2.99579558e-04
2.19500000e-01	1.88351305e-02	3.00264294e-04
2.20000000e-01	1.84993033e-02	2.98252885e-04
2.20500000e-01	1.86091093e-02	3.00458379e-04
2.21000000e-01	1.86629756e-02	3.01597018e-04
2.21500000e-01	1.85431920e-02	3.00479554e-04
2.22000000e-01	1.85722073e-02	3.00651543e-04
2.22500000e-01	1.82521682e-02	2.98529394e-04
2.23000000e-01	1.83620071e-02	3.00148791e-04
2.23500000e-01	1.84685457e-02	3.01376946e-04
2.24000000e-01	1.87419548e-02	3.06772782e-04
2.24500000e-01	1.87436101e-02	3.08130077e-04
2.25000000e-01	1.84861874e-02	3.04484520e-04
2.25500000e-01	1.85451828e-02	3.06193910e-04
2.26000000e-01	1.86196910e-02	3.07875381e-04
2.26500000e-01	1.85738360e-02	3.01750219e-04
2.27000000e-01	1.86611509e-02	3.00564805e-04
2.27500000e-01	1.83731014e-02	2.92893813e-04
2.28000000e-01	1.83743727e-02	2.93167950e-04
2.28500000e-01	1.85422257e-02	2.93527245e-04
2.29000000e-01	1.85824219e-02	2.92467585e-04
2.29500000e-01	1.85950386e-02	2.91697811e-04
2.30000000e-01	1.87420026e-02	2.94080664e-04
2.30500000e-01	1.84916403e-02	2.88090265e-04
2.31000000e-01	1.85000739e-02	2.88676816e-04
2.31500000e-01	1.84593976e-02	2.86043263e-04
2.32000000e-01	1.81812339e-02	2.82852710e-04
2.32500000e-01	1.86522076e-02	2.88739909e-04
2.33000000e-01	1.85454295e-02	2.85733196e-04
2.33500000e-01	1.85155469e-02	2.84157061e-04
2.34000000e-01	1.84297225e-02	2.81753351e-04
2.34500000e-01	1.82662765e-02	2.80028750e-04
2.35000000e-01	1.84565478e-02	2.83612524e-04
2.35500000e-01	1.81676489e-02	2.78018243e-04
2.36000000e-01	1.81798648e-02	2.78003057e-04
2.36500000e-01	1.83114553e-02	2.79994330e-04
2.37000000e-01	1.82649142e-02	2.78119299e-04
2.37500000e-01	1.82538964e-02	2.77687571e-04
2.38000000e-01	1.81396129e-02	2.74595065e-04
2.38500000e-01	1.82342849e-02	2.75901294e-04
2.39000000e-01	1.81341985e-02	2.75419709e-04
2.39500000e-01	1.84687951e-02	2.78197937e-04
2.40000000e-01	1.82763155e-02	2.74892826e-04
2.40500000e-01	1.81841482e-02	2.72803934e-04
2.41000000e-01	1.83501980e-02	2.74705092e-04
2.41500000e-01	1.83015216e-02	2.74609948e-04
2.42000000e-01	1.82403340e-02	2.73000928e-04
2.42500000e-01	1.83940926e-02	2.74673866e-04
2.43000000e-01	1.81995894e-02	2.71358219e-04
2.43500000e-01	1.81409609e-02	2.70020724e-04
2.44000000e-01	1.81100038e-02	2.69509174e-04
2.44500000e-01	1.81756840e-02	2.70436957e-04
2.45000000e-01	1.78736072e-02	2.66213580e-04
2.45500000e-01	1.81784534e-02	2.69024117e-04
2.46000000e-01	1.81947825e-02	2.69032786e-04
2.46500000e-01	1.82036863e-02	2.69363953e-04
2.47000000e-01	1.81083124e-02	2.66897074e-04
2.47500000e-01	1.82416294e-02	2.67361975e-04
2.48000000e-01	1.83668370e-02	2.69822894e-04
2.48500000e-01	1.80204777e-02	2.64893838e-04
2.49000000e-01	1.83205734e-02	2.68499011e-04
2.49500000e-01	1.79274344e-02	2.63094739e-04
2.50000000e-01	1.79329475e-02	2.62269826e-04
2.50500000e-01	1.81127154e-02	2.66956414e-04
2.51000000e-01	1.80198631e-02	2.63072007e-04
2.51500000e-01	1.81482531e-02	2.65759221e-04
2.52000000e-01	1.79041168e-02	2.62456824e-04
2.52500000e-01	1.79933107e-02	2.62893266e-04
2.53000000e-01	1.79860005e-02	2.62681004e-04
2.53500000e-01	1.79675438e-02	2.61946888e-04
2.54000000e-01	1.80490311e-02	2.63097930e-04
2.54500000e-01	1.78499991e-02	2.59675974e-04
2.55000000e-01	1.81566860e-02	2.63904861e-04
2.55500000e-01	1.80319712e-02	2.61734877e-04
2.56000000e-01	1.79005908e-02	2.59037875e-04
2.56500000e-01	1.81464405e-02	2.62178696e-04
2.57000000e-01	1.80130806e-02	2.59711673e-04
2.57500000e-01	1.81929022e-02	2.61843041e-04
2.58000000e-01	1.77758916e-02	2.57395450e-04
2.58500000e-01	1.81146989e-02	2.60281518e-04
2.59000000e-01	1.78269714e-02	2.57165718e-04
2.59500000e-01	1.80218627e-02	2.58968346e-04
2.60000000e-01	1.78506992e-02	2.57355476e-04
2.60500000e-01	1.80654852e-02	2.58349971e-04
2.61000000e-01	1.79093413e-02	2.55608896e-04
2.61500000e-01	1.80689870e-02	2.58725863e-04
2.62000000e-01	1.79163597e-02	2.55395963e-04
2.62500000e-01	1.79593105e-02	2.56679813e-04
2.63000000e-01	1.79014638e-02	2.54661008e-04
2.63500000e-01	1.79917790e-02	2.55435694e-04
2.64000000e-01	1.77565226e-02	2.52792752e-04
2.64500000e-01	1.79811832e-02	2.54924189e-04
2.65000000e-01	1.77375597e-02	2.52668965e-04
2.65500000e-01	1.76684290e-02	2.50612643e-04
2.66000000e-01	1.77736405e-02	2.51901089e-04
2.66500000e-01	1.78167998e-02	2.51787673e-04
2.67000000e-01	1.79646503e-02	2.54120824e-04
2.67500000e-01	1.78306791e-02	2.50710148e-04
2.68000000e-01	1.76155140e-02	2.49161255e-04
2.68500000e-01	1.76517106e-02	2.48209568e-04
2.69000000e-01	1.80286763e-02	2.53097193e-04
2.69500000e-01	1.76922892e-02	2.48975619e-04
2.70000000e-01	1.79503366e-02	2.51296662e-04
2.70500000e-01	1.77339703e-02	2.48131575e-04
2.71000000e-01	1.78350800e-02	2.50069473e-04
2.71500000e-01	1.74510489e-02	2.44228303e-04
2.72000000e-01	1.79455511e-02	2.49840226e-04
2.72500000e-01	1.76947859e-02	2.47834012e-04
2.73000000e-01	1.78247904e-02	2.48637456e-04
2.73500000e-01	1.79257747e-02	2.49322105e-04
2.74000000e-01	1.77945878e-02	2.47706012e-04
2.74500000e-01	1.76367605e-02	2.45007178e-04
2.75000000e-01	1.78629444e-02	2.48634582e-04
2.75500000e-01	1.76694772e-02	2.45768296e-04
2.76000000e-01	1.77661206e-02	2.45916540e-04
2.76500000e-01	1.75269125e-02	2.44315998e-04
2.77000000e-01	1.77038193e-02	2.45477237e-04
2.77500000e-01	1.76106655e-02	2.44161221e-04
2.78000000e-01	1.77068160e-02	2.45742250e-04
2.78500000e-01	1.76153756e-02	2.44072740e-04
2.79000000e-01	1.76257203e-02	2.44245780e-04
2.79500000e-01	1.76736495e-02	2.44499395e-04
2.80000000e-01	1.76962998e-02	2.44337296e-04
2.80500000e-01	1.77433296e-02	2.43489022e-04
2.81000000e-01	1.75639136e-02	2.42038936e-04
2.81500000e-01	1.75029685e-02	2.41270638e-04
2.82000000e-01	1.76454719e-02	2.41898149e-04
2.82500000e-01	1.76559414e-02	2.43133468e-04
2.83000000e-01	1.73427942e-02	2.38546279e-04
2.83500000e-01	1.76643433e-02	2.41433440e-04
2.84000000e-01	1.77493388e-02	2.43332311e-04
2.84500000e-01	1.74258323e-02	2.39355494e-04
2.85000000e-01	1.73725129e-02	2.37256477e-04
2.85500000e-01	1.74989211e-02	2.38090469e-04
2.86000000e-01	1.75144128e-02	2.39561906e-04
2.86500000e-01	1.72608863e-02	2.35246077e-04
2.87000000e-01	1.76752940e-02	2.41110209e-04
2.87500000e-01	1.73348315e-02	2.35990213e-04
2.88000000e-01	1.73388165e-02	2.34870362e-04
2.88500000e-01	1.73252416e-02	2.35783441e-04
2.89000000e-01	1.73550234e-02	2.35062361e-04
2.89500000e-01	1.75444788e-02	2.37103344e-04
2.90000000e-01	1.71892053e-02	2.33115548e-04
2.90500000e-01	1.75677603e-02	2.37681067e-04
2.91000000e-01	1.74429096e-02	2.35815163e-04
2.91500000e-01	1.76679085e-02	2.38172233e-04
2.92000000e-01	1.76203289e-02	2.37259068e-04
2.92500000e-01	1.74434794e-02	2.34381402e-04
2.93000000e-01	1.73593688e-02	2.33902835e-04
2.93500000e-01	1.73273634e-02	2.32722347e-04
2.94000000e-01	1.75410693e-02	2.35241957e-04
2.94500000e-01	1.73091839e-02	2.33515936e-04
2.95000000e-01	1.73408247e-02	2.31805344e-04
2.95500000e-01	1.71943241e-02	2.31660537e-04
2.96000000e-01	1.73730428e-02	2.32702252e-04
2.96500000e-01	1.73272260e-02	2.32167363e-04
2.97000000e-01	1.74176374e-02	2.32436993e-04
2.97500000e-01	1.69951082e-02	2.26761843e-04
2.98000000e-01	1.73337440e-02	2.30660816e-04
2.98500000e-01	1.71697398e-02	2.28729436e-04
2.99000000e-01	1.72523569e-02	2.29912939e-04
2.99500000e-01	1.72998859e-02	2.30369505e-04
3.00000000e-01	1.73216551e-02	2.30036170e-04
3.00500000e-01	1.72707887e-02	2.29985988e-04
3.01000000e-01	1.73668012e-02	2.30807819e-04
3.01500000e-01	1.71922677e-02	2.29008765e-04
3.02000000e-01	1.72279012e-02	2.28546573e-04
3.02500000e-01	1.71538831e-02	2.27345504e-04
3.03000000e-01	1.72834022e-02	2.29454376e-04
3.03500000e-01	1.71632137e-02	2.27214296e-04
3.04000000e-01	1.70466423e-02	2.26598216e-04
3.04500000e-01	1.70986223e-02	2.26200831e-04
3.05000000e-01	1.71240559e-02	2.26154534e-04
3.05500000e-01	1.69078768e-02	2.24123915e-04
3.06000000e-01	1.70266106e-02	2.24059080e-04
3.06500000e-01	1.72511675e-02	2.27949140e-04
3.07000000e-01	1.70576474e-02	2.24484595e-04
3.07500000e-01	1.72066571e-02	2.26902620e-04
3.08000000e-01	1.70271335e-02	2.23578080e-04
3.08500000e-01	1.71568218e-02	2.25226412e-04
3.09000000e-01	1.71304976e-02	2.24655762e-04
3.09500000e-01	1.69472077e-02	2.22349780e-04
3.10000000e-01	1.70976780e-02	2.23725559e-04
3.10500000e-01	1.71954144e-02	2.25017329e-04
3.11000000e-01	1.71546473e-02	2.24171659e-04
3.11500000e-01	1.71848465e-02	2.24235620e-04
3.12000000e-01	1.71879530e-02	2.24330585e-04
3.12500000e-01	1.69070646e-02	2.20877449e-04
3.13000000e-01	1.69684732e-02	2.21543116e-04
3.13500000e-01	1.70531696e-02	2.22382279e-04
3.14000000e-01	1.71354125e-02	2.22419890e-04
3.14500000e-01	1.70166226e-02	2.20420349e-04
3.15000000e-01	1.69969216e-02	2.20892964e-04
3.15500000e-01	1.71090468e-02	2.22200736e-04
3.16000000e-01	1.71553632e-02	2.23150124e-04
3.16500000e-01	1.70839013e-02	2.21524131e-04
3.17000000e-01	1.70220617e-02	2.20963868e-04
3.17500000e-01	1.70685948e-02	2.21134312e-04
3.18000000e-01	1.69795128e-02	2.19584071e-04
3.18500000e-01	1.69228364e-02	2.19052860e-04
3.19000000e-01	1.71107833e-02	2.20642994e-04
3.19500000e-01	1.68655428e-02	2.17826404e-04
3.20000000e-01	1.69362753e-02	2.19110864e-04
3.20500000e-01	1.67771871e-02	2.16371064e-04
3.21000000e-01	1.69169033e-02	2.18249946e-04
3.21500000e-01	1.69422833e-02	2.17496760e-04
3.22000000e-01	1.66722085e-02	2.15298096e-04
3.22500000e-01	1.68122624e-02	2.16320491e-04
3.23000000e-01	1.67141133e-02	2.14864500e-04
3.23500000e-01	1.69923524e-02	2.18490791e-04
3.24000000e-01	1.68365568e-02	2.15948848e-04
3.24500000e-01	1.69403375e-02	2.17086853e-04
3.25000000e-01	1.69804775e-02	2.16652407e-04
3.25500000e-01	1.68431943e-02	2.16275860e-04
3.26000000e-01	1.68265050e-02	2.15361320e-04
3.26500000e-01	1.67935787e-02	2.13715992e-04
3.27000000e-01	1.66176668e-02	2.12543735e-04
3.27500000e-01	1.66445871e-02	2.12557007e-04
3.28000000e-01	1.67526689e-02	2.13833125e-04
3.28500000e-01	1.66312543e-02	2.11523645e-04
3.29000000e-01	1.67229025e-02	2.13246930e-04
3.29500000e-01	1.67120000e-02	2.13415023e-04
3.30000000e-01	1.65285684e-02	2.10749625e-04
3.30500000e-01	1.68627509e-02	2.14500473e-04
3.31000000e-01	1.67994377e-02	2.13654844e-04
3.31500000e-01	1.66405833e-02	2.11162923e-04
3.32000000e-01	1.66003131e-02	2.10305393e-04
3.32500000e-01	1.66671876e-02	2.10149673e-04
3.33000000e-01	1.68305779e-02	2.12892388e-04
3.33500000e-01	1.67716607e-02	2.11521577e-04
3.34000000e-01	1.67711930e-02	2.12166242e-04
3.34500000e-01	1.68568059e-02	2.13050348e-04
3.35000000e-01	1.66552952e-02	2.09794131e-04
3.35500000e-01	1.66278466e-02	2.10052786e-04
3.36000000e-01	1.65968101e-02	2.08639396e-04
3.36500000e-01	1.66609436e-02	2.09615256e-04
3.37000000e-01	1.65212090e-02	2.07191636e-04
3.37500000e-01	1.65669264e-02	2.08705017e-04
3.38000000e-01	1.65999614e-02	2.09657820e-04
3.38500000e-01	1.66983460e-02	2.09633341e-04
3.39000000e-01	1.65495706e-02	2.09004885e-04
3.39500000e-01	1.66348544e-02	2.08356559e-04
3.40000000e-01	1.64915984e-02	2.07076741e-04
3.40500000e-01	1.66609856e-02	2.08845089e-04
3.41000000e-01	1.63675732e-02	2.04836173e-04
3.41500000e-01	1.64369572e-02	2.06767725e-04
3.42000000e-01	1.66145341e-02	2.07808719e-04
3.42500000e-01	1.66215065e-02	2.07864630e-04
3.43000000e-01	1.64126251e-02	2.05255231e-04
3.43500000e-01	1.66795780e-02	2.07750918e-04
3.44000000e-01	1.65094363e-02	2.06701812e-04
3.44500000e-01	1.65181375e-02	2.05425711e-04
3.45000000e-01	1.65898990e-02	2.07157227e-04
3.45500000e-01	1.64699596e-02	2.04504620e-04
3.46000000e-01	1.65993616e-02	2.06367625e-04
3.46500000e-01	1.63661176e-02	2.03365701e-04
3.47000000e-01	1.64808517e-02	2.04370905e-04
3.47500000e-01	1.65574684e-02	2.05696690e-04
3.48000000e-01	1.63706276e-02	2.03152029e-04
3.48500000e-01	1.65116020e-02	2.05411233e-04
3.49000000e-01	1.63655220e-02	2.02338506e-04
3.49500000e-01	1.63734481e-02	2.02421239e-04
3.50000000e-01	1.64871465e-02	1.66219358e-04
3.51000000e-01	1.62880133e-02	1.42458324e-04
3.52000000e-01	1.63945407e-02	1.43092424e-04
3.53000000e-01	1.62694130e-02	1.41297087e-04
3.54000000e-01	1.63473004e-02	1.41758588e-04
3.55000000e-01	1.64473312e-02	1.42588968e-04
3.56000000e-01	1.61791466e-02	1.41020335e-04
3.57000000e-01	1.62230026e-02	1.44203002e-04
3.58000000e-01	1.61530147e-02	1.44563295e-04
3.59000000e-01	1.61007653e-02	1.45594662e-04
3.60000000e-01	1.60693360e-02	1.46342932e-04
3.61000000e-01	1.61265871e-02	1.47239989e-04
3.62000000e-01	1.62045360e-02	1.48374016e-04
3.63000000e-01	1.62050807e-02	1.48884924e-04
3.64000000e-01	1.61623783e-02	1.48931734e-04
3.65000000e-01	1.61129560e-02	1.49107893e-04
3.66000000e-01	1.60096703e-02	1.46337247e-04
3.67000000e-01	1.61143566e-02	1.45329130e-04
3.68000000e-01	1.61245586e-02	1.44279949e-04
3.69000000e-01	1.60953948e-02	1.43487557e-04
3.70000000e-01	1.59507174e-02	1.41613999e-04
3.71000000e-01	1.60328479e-02	1.44148105e-04
3.72000000e-01	1.61498144e-02	1.46138594e-04
3.73000000e-01	1.61632122e-02	1.46384591e-04
3.74000000e-01	1.60177143e-02	1.45411255e-04
3.75000000e-01	1.59598366e-02	1.45110558e-04
3.76000000e-01	1.59272006e-02	1.44373913e-04
3.77000000e-01	1.58878522e-02	1.44566545e-04
3.78000000e-01	1.59156754e-02	1.44572005e-04
3.79000000e-01	1.57892434e-02	1.43559176e-04
3.80000000e-01	1.58272434e-02	1.43960400e-04
3.81000000e-01	1.59827333e-02	1.44651715e-04
3.82000000e-01	1.58549172e-02	1.43501499e-04
3.83000000e-01	1.58438266e-02	1.43299435e-04
3.84000000e-01	1.59022348e-02	1.43873675e-04
3.85000000e-01	1.59049894e-02	1.43835374e-04
3.86000000e-01	1.58358734e-02	1.43295088e-04
3.87000000e-01	1.58348951e-02	1.43132593e-04
3.88000000e-01	1.57963585e-02	1.42659045e-04
3.89000000e-01	1.58696309e-02	1.43452955e-04
3.90000000e-01	1.57731684e-02	1.42800482e-04
3.91000000e-01	1.57237226e-02	1.41879806e-04
3.92000000e-01	1.56687935e-02	1.41964633e-04
3.93000000e-01	1.57562665e-02	1.42097889e-04
3.94000000e-01	1.56903114e-02	1.41658459e-04
3.95000000e-01	1.57594240e-02	1.41986118e-04
3.96000000e-01	1.56183567e-02	1.41476199e-04
3.97000000e-01	1.57168790e-02	1.42013387e-04
3.98000000e-01	1.56554923e-02	1.41359644e-04
3.99000000e-01	1.56916903e-02	1.41661895e-04
4.00000000e-01	1.57062573e-02	1.41869350e-04
4.01000000e-01	1.55456204e-02	1.40311309e-04
4.02000000e-01	1.54386861e-02	1.39654521e-04
4.03000000e-01	1.57009281e-02	1.41442642e-04
4.04000000e-01	1.55024653e-02	1.40077464e-04
4.05000000e-01	1.56051253e-02	1.40829217e-04
4.06000000e-01	1.55213927e-02	1.40196998e-04
4.07000000e-01	1.54674722e-02	1.39268910e-04
4.08000000e-01	1.55224426e-02	1.39850889e-04
4.09000000e-01	1.54897700e-02	1.39536953e-04
4.10000000e-01	1.55523739e-02	1.40140066e-04
4.11000000e-01	1.56025433e-02	1.40147072e-04
4.12000000e-01	1.57024463e-02	1.41317691e-04
4.13000000e-01	1.54662833e-02	1.39286497e-04
4.14000000e-01	1.56467337e-02	1.40812207e-04
4.15000000e-01	1.53849419e-02	1.38450755e-04
4.16000000e-01	1.55115088e-02	1.39432657e-04
4.17000000e-01	1.54172332e-02	1.38979476e-04
4.18000000e-01	1.55280219e-02	1.41079027e-04
4.19000000e-01	1.54348190e-02	1.41808125e-04
4.20000000e-01	1.55723632e-02	1.44032623e-04
4.21000000e-01	1.54632866e-02	1.43215213e-04
4.22000000e-01	1.55168259e-02	1.44715015e-04
4.23000000e-01	1.55999964e-02	1.45382497e-04
4.24000000e-01	1.55802120e-02	1.46202269e-04
4.25000000e-01	1.55754243e-02	1.46086903e-04
4.26000000e-01	1.54990492e-02	1.44938484e-04
4.27000000e-01	1.53531197e-02	1.43886738e-04
4.28000000e-01	1.54638422e-02	1.45303078e-04
4.29000000e-01	1.54885163e-02	1.46117149e-04
4.30000000e-01	1.54914970e-02	1.46115658e-04
4.31000000e-01	1.54668061e-02	1.45288759e-04
4.32000000e-01	1.53750898e-02	1.44597332e-04
4.33000000e-01	1.54397309e-02	1.45433267e-04
4.34000000e-01	1.54203503e-02	1.45240695e-04
4.35000000e-01	1.53384275e-02	1.44733675e-04
4.36000000e-01	1.52650769e-02	1.44324084e-04
4.37000000e-01	1.52750519e-02	1.44712326e-04
4.38000000e-01	1.54077354e-02	1.46113751e-04
4.39000000e-01	1.52834390e-02	1.45351879e-04
4.40000000e-01	1.53462205e-02	1.45864482e-04
4.41000000e-01	1.52465878e-02	1.45211815e-04
4.42000000e-01	1.54036076e-02	1.46739832e-04
4.43000000e-01	1.53616341e-02	1.47028396e-04
4.44000000e-01	1.52087100e-02	1.45221733e-04
4.45000000e-01	1.53030762e-02	1.46387729e-04
4.46000000e-01	1.52876062e-02	1.46229110e-04
4.47000000e-01	1.52200208e-02	1.46177826e-04
4.48000000e-01	1.51717100e-02	1.45115045e-04
4.49000000e-01	1.52269905e-02	1.46354878e-04
4.50000000e-01	1.51068473e-02	1.45319025e-04
4.51000000e-01	1.51363478e-02	1.45480445e-04
4.52000000e-01	1.52005249e-02	1.46302489e-04
4.53000000e-01	1.52099690e-02	1.46432961e-04
4.54000000e-01	1.51233628e-02	1.45906204e-04
4.55000000e-01	1.52409285e-02	1.47228215e-04
4.56000000e-01	1.51530705e-02	1.46407965e-04
4.57000000e-01	1.52141088e-02	1.47433726e-04
4.58000000e-01	1.51853811e-02	1.46985617e-04
4.59000000e-01	1.51842670e-02	1.47183213e-04
4.60000000e-01	1.51236342e-02	1.46686033e-04
4.61000000e-01	1.52184197e-02	1.47591295e-04
4.62000000e-01	1.51306671e-02	1.46926838e-04
4.63000000e-01	1.51570638e-02	1.46949523e-04
4.64000000e-01	1.52044360e-02	1.47778192e-04
4.65000000e-01	1.50441887e-02	1.46601078e-04
4.66000000e-01	1.51783960e-02	1.47172477e-04
4.67000000e-01	1.50529790e-02	1.47093072e-04
4.68000000e-01	1.51796979e-02	1.47888870e-04
4.69000000e-01	1.50869692e-02	1.47129667e-04
4.70000000e-01	1.50813574e-02	1.47266556e-04
4.71000000e-01	1.50343642e-02	1.46631475e-04
4.72000000e-01	1.49695424e-02	1.45891088e-04
4.73000000e-01	1.50504124e-02	1.47137132e-04
4.74000000e-01	1.50802528e-02	1.47115697e-04
4.75000000e-01	1.50237853e-02	1.46627061e-04
4.76000000e-01	1.50897901e-02	1.47331590e-04
4.77000000e-01	1.49249219e-02	1.45537568e-04
4.78000000e-01	1.49791144e-02	1.46254521e-04
4.79000000e-01	1.49440980e-02	1.45455990e-04
4.80000000e-01	1.50224242e-02	1.46573978e-04
4.81000000e-01	1.50268013e-02	1.47274856e-04
4.82000000e-01	1.50056829e-02	1.46969776e-04
4.83000000e-01	1.49775532e-02	1.46907019e-04
4.84000000e-01	1.48774268e-02	1.45692683e-04
4.85000000e-01	1.49258259e-02	1.46397280e-04
4.86000000e-01	1.49317428e-02	1.46527258e-04
4.87000000e-01	1.49516572e-02	1.47000643e-04
4.88000000e-01	1.48882116e-02	1.46861474e-04
4.89000000e-01	1.49663800e-02	1.47132842e-04
4.90000000e-01	1.47797770e-02	1.45034441e-04
4.91000000e-01	1.47848573e-02	1.45582561e-04
4.92000000e-01	1.49181598e-02	1.46740519e-04
4.93000000e-01	1.49087005e-02	1.46560878e-04
4.94000000e-01	1.48074313e-02	1.46180420e-04
4.95000000e-01	1.48135392e-02	1.46735064e-04
4.96000000e-01	1.47813334e-02	1.51300513e-04
4.97000000e-01	1.48971500e-02	1.55127840e-04
4.98000000e-01	1.49565132e-02	1.57524365e-04
4.99000000e-01	1.47836010e-02	1.57999448e-04
5.00000000e-01	1.47721264e-02	1.59498023e-04
5.01000000e-01	1.48429678e-02	1.61903348e-04
5.02000000e-01	1.47168385e-02	1.61878520e-04
5.03000000e-01	1.48785586e-02	1.65161501e-04
5.04000000e-01	1.47858259e-02	1.65838487e-04
5.05000000e-01	1.47330338e-02	1.62359463e-04
5.06000000e-01	1.47515641e-02	1.59152498e-04
5.07000000e-01	1.46862014e-02	1.56774662e-04
5.08000000e-01	1.47220034e-02	1.56367419e-04
5.09000000e-01	1.48984367e-02	1.57396399e-04
5.10000000e-01	1.48587444e-02	1.56253633e-04
5.11000000e-01	1.47767959e-02	1.55020903e-04
5.12000000e-01	1.47092632e-02	1.54098232e-04
5.13000000e-01	1.45843192e-02	1.52748167e-04
5.14000000e-01	1.48200680e-02	1.54305324e-04
5.15000000e-01	1.47553511e-02	1.53615976e-04
5.16000000e-01	1.48890799e-02	1.54270441e-04
5.17000000e-01	1.47417229e-02	1.53037547e-04
5.18000000e-01	1.45786600e-02	1.51336344e-04
5.19000000e-01	1.46596862e-02	1.51457084e-04
5.20000000e-01	1.46891216e-02	1.51121490e-04
5.21000000e-01	1.46031834e-02	1.50499254e-04
5.22000000e-01	1.46559510e-02	1.50689999e-04
5.23000000e-01	1.46019373e-02	1.50120012e-04
5.24000000e-01	1.47324199e-02	1.51218909e-04
5.25000000e-01	1.46278608e-02	1.50548783e-04
5.26000000e-01	1.45688991e-02	1.49479528e-04
5.27000000e-01	1.45348033e-02	1.49666736e-04
5.28000000e-01	1.45941381e-02	1.50393136e-04
5.29000000e-01	1.46132679e-02	1.50751039e-04
5.30000000e-01	1.45598606e-02	1.49593644e-04
5.31000000e-01	1.43659846e-02	1.48051820e-04
5.32000000e-01	1.45244269e-02	1.49327156e-04
5.33000000e-01	1.45754005e-02	1.49742718e-04
5.34000000e-01	1.45726813e-02	1.50514392e-04
5.35000000e-01	1.45602047e-02	1.49452508e-04
5.36000000e-01	1.44602336e-02	1.48634587e-04
5.37000000e-01	1.44319551e-02	1.48692377e-04
5.38000000e-01	1.44777292e-02	1.48716451e-04
5.39000000e-01	1.44963692e-02	1.49317112e-04
5.40000000e-01	1.46174823e-02	1.50163774e-04
5.41000000e-01	1.45785280e-02	1.49979091e-04
5.42000000e-01	1.44891043e-02	1.48767927e-04
5.43000000e-01	1.45177758e-02	1.48975182e-04
5.44000000e-01	1.43816240e-02	1.47635176e-04
5.45000000e-01	1.45152987e-02	1.49248842e-04
5.46000000e-01	1.44492430e-02	1.48309322e-04
5.47000000e-01	1.44994024e-02	1.48839616e-04
5.48000000e-01	1.44535075e-02	1.48406312e-04
5.49000000e-01	1.43714021e-02	1.47606541e-04
5.50000000e-01	1.45072221e-02	1.48838669e-04
5.51000000e-01	1.43263232e-02	1.47023557e-04
5.52000000e-01	1.42476928e-02	1.45818083e-04
5.53000000e-01	1.42315806e-02	1.45701235e-04
5.54000000e-01	1.44383478e-02	1.47360934e-04
5.55000000e-01	1.43061854e-02	1.45727213e-04
5.56000000e-01	1.43581968e-02	1.46705724e-04
5.57000000e-01	1.44331943e-02	1.47215894e-04
5.58000000e-01	1.42544684e-02	1.45804461e-04
5.59000000e-01	1.43346653e-02	1.46374081e-04
5.60000000e-01	1.42212410e-02	1.45450778e-04
5.61000000e-01	1.44069432e-02	1.47448149e-04
5.62000000e-01	1.40744138e-02	1.44174547e-04
5.63000000e-01	1.42189501e-02	1.45502946e-04
5.64000000e-01	1.41411155e-02	1.44547835e-04
5.65000000e-01	1.40918334e-02	1.44208344e-04
5.66000000e-01	1.40741290e-02	1.44589329e-04
5.67000000e-01	1.41990016e-02	1.45210006e-04
5.68000000e-01	1.41570470e-02	1.44988194e-04
5.69000000e-01	1.41669015e-02	1.44454922e-04
5.70000000e-01	1.42290245e-02	1.45321530e-04
5.71000000e-01	1.41733288e-02	1.44243563e-04
5.72000000e-01	1.40859670e-02	1.43927579e-04
5.73000000e-01	1.40712003e-02	1.43921409e-04
5.74000000e-01	1.40374112e-02	1.43626215e-04
5.75000000e-01	1.41824152e-02	1.45313100e-04
5.76000000e-01	1.40934631e-02	1.44137632e-04
5.77000000e-01	1.40169289e-02	1.43660993e-04
5.78000000e-01	1.41243153e-02	1.44819505e-04
5.79000000e-01	1.41494719e-02	1.44629059e-04
5.80000000e-01	1.40498860e-02	1.44394645e-04
5.81000000e-01	1.41284283e-02	1.44721478e-04
5.82000000e-01	1.40431758e-02	1.43979212e-04
5.83000000e-01	1.39124983e-02	1.42593993e-04
5.84000000e-01	1.41114641e-02	1.44469795e-04
5.85000000e-01	1.41117764e-02	1.44463921e-04
5.86000000e-01	1.39802222e-02	1.43733831e-04
5.87000000e-01	1.39363967e-02	1.43070961e-04
5.88000000e-01	1.39241590e-02	1.43079371e-04
5.89000000e-01	1.40138025e-02	1.43728472e-04
5.90000000e-01	1.38690544e-02	1.42940970e-04
5.91000000e-01	1.39605845e-02	1.43975761e-04
5.92000000e-01	1.40166197e-02	1.44002742e-04
5.93000000e-01	1.39784164e-02	1.43599043e-04
5.94000000e-01	1.38417408e-02	1.42438522e-04
5.95000000e-01	1.39992076e-02	1.44123241e-04
5.96000000e-01	1.39131080e-02	1.43402736e-04
5.97000000e-01	1.39212664e-02	1.42654089e-04
5.98000000e-01	1.38532301e-02	1.42566716e-04
5.99000000e-01	1.38136503e-02	1.42773998e-04
6.00000000e-01	1.38366810e-02	1.42289423e-04
6.01000000e-01	1.37934637e-02	1.42170503e-04
6.02000000e-01	1.38851562e-02	1.42717314e-04
6.03000000e-01	1.38498838e-02	1.43208453e-04
6.04000000e-01	1.38556546e-02	1.42956471e-04
6.05000000e-01	1.37825421e-02	1.42027371e-04
6.06000000e-01	1.38362133e-02	1.42812308e-04
6.07000000e-01	1.38740182e-02	1.43440359e-04
6.08000000e-01	1.38510867e-02	1.42851403e-04
6.09000000e-01	1.37933335e-02	1.42298973e-04
6.10000000e-01	1.38641961e-02	1.42805676e-04
6.11000000e-01	1.37457063e-02	1.41863514e-04
6.12000000e-01	1.37305665e-02	1.41272252e-04
6.13000000e-01	1.36842339e-02	1.41864456e-04
6.14000000e-01	1.38831657e-02	1.42880095e-04
6.15000000e-01	1.39691425e-02	1.43597023e-04
6.16000000e-01	1.37368704e-02	1.41633197e-04
6.17000000e-01	1.36815093e-02	1.41397660e-04
6.18000000e-01	1.36505638e-02	1.40923185e-04
6.19000000e-01	1.37306037e-02	1.41550200e-04
6.20000000e-01	1.37349619e-02	1.41091069e-04
6.21000000e-01	1.36907019e-02	1.40895506e-04
6.22000000e-01	1.35840289e-02	1.39898234e-04
6.23000000e-01	1.37655973e-02	1.40959886e-04
6.24000000e-01	1.36038620e-02	1.39679979e-04
6.25000000e-01	1.36780379e-02	1.39729719e-04
6.26000000e-01	1.37391700e-02	1.40832986e-04
6.27000000e-01	1.36410966e-02	1.39594567e-04
6.28000000e-01	1.35809839e-02	1.39140441e-04
6.29000000e-01	1.36680433e-02	1.39671483e-04
6.30000000e-01	1.36011377e-02	1.39087501e-04
6.31000000e-01	1.35851188e-02	1.39309821e-04
6.32000000e-01	1.36867109e-02	1.40378712e-04
6.33000000e-01	1.36090867e-02	1.39348948e-04
6.34000000e-01	1.37312658e-02	1.43960127e-04
6.35000000e-01	1.36461477e-02	1.48079158e-04
6.36000000e-01	1.37366771e-02	1.50482187e-04
6.37000000e-01	1.35249420e-02	1.51742185e-04
6.38000000e-01	1.37079172e-02	1.55575961e-04
6.39000000e-01	1.36147342e-02	1.55696669e-04
6.40000000e-01	1.37817009e-02	1.59935791e-04
6.41000000e-01	1.38010944e-02	1.61074092e-04
6.42000000e-01	1.35673275e-02	1.60982415e-04
6.43000000e-01	1.36189843e-02	1.61691354e-04
6.44000000e-01	1.38491474e-02	1.58140191e-04
6.45000000e-01	1.37020582e-02	1.54631456e-04
6.46000000e-01	1.37249058e-02	1.53295713e-04
6.47000000e-01	1.36392131e-02	1.50811152e-04
6.48000000e-01	1.36578922e-02	1.50228514e-04
6.49000000e-01	1.36207633e-02	1.49462614e-04
6.50000000e-01	1.37375626e-02	1.49411214e-04
6.51000000e-01	1.37912895e-02	1.50333474e-04
6.52000000e-01	1.36347243e-02	1.48112000e-04
6.53000000e-01	1.37100346e-02	1.47934071e-04
6.54000000e-01	1.34364004e-02	1.44845555e-04
6.55000000e-01	1.36086074e-02	1.45598553e-04
6.56000000e-01	1.35914303e-02	1.45725773e-04
6.57000000e-01	1.35698885e-02	1.44872008e-04
6.58000000e-01	1.36694684e-02	1.45787157e-04
6.59000000e-01	1.36805361e-02	1.46298504e-04
6.60000000e-01	1.35592150e-02	1.44784326e-04
6.61000000e-01	1.36003612e-02	1.45344553e-04
6.62000000e-01	1.36199798e-02	1.45627704e-04
6.63000000e-01	1.36852583e-02	1.46253239e-04
6.64000000e-01	1.37349411e-02	1.45948564e-04
6.65000000e-01	1.35264310e-02	1.44783411e-04
6.66000000e-01	1.36299450e-02	1.45186303e-04
6.67000000e-01	1.35768839e-02	1.44169646e-04
6.68000000e-01	1.36428731e-02	1.45078432e-04
6.69000000e-01	1.35428879e-02	1.44280803e-04
6.70000000e-01	1.35024604e-02	1.43398650e-04
6.71000000e-01	1.35073726e-02	1.43244956e-04
6.72000000e-01	1.34807811e-02	1.42678520e-04
6.73000000e-01	1.34014996e-02	1.42840909e-04
6.74000000e-01	1.35596389e-02	1.43617394e-04
6.75000000e-01	1.35354137e-02	1.43785691e-04
6.76000000e-01	1.35700446e-02	1.43688700e-04
6.77000000e-01	1.35910677e-02	1.43900157e-04
6.78000000e-01	1.34416915e-02	1.42708849e-04
6.79000000e-01	1.34890529e-02	1.42717027e-04
6.80000000e-01	1.34245096e-02	1.42241323e-04
6.81000000e-01	1.35128601e-02	1.43149346e-04
6.82000000e-01	1.33475724e-02	1.42189921e-04
6.83000000e-01	1.33704809e-02	1.41439150e-04
6.84000000e-01	1.33965231e-02	1.41689827e-04
6.85000000e-01	1.35775701e-02	1.43419375e-04
6.86000000e-01	1.34385246e-02	1.41802575e-04
6.87000000e-01	1.34435021e-02	1.42330446e-04
6.88000000e-01	1.34933356e-02	1.42841479e-04
6.89000000e-01	1.33583725e-02	1.41401891e-04
6.90000000e-01	1.33720452e-02	1.41410948e-04
6.91000000e-01	1.33260379e-02	1.41358713e-04
6.92000000e-01	1.33491762e-02	1.41387758e-04
6.93000000e-01	1.33907993e-02	1.41632597e-04
6.94000000e-01	1.34597635e-02	1.42240389e-04
6.95000000e-01	1.32296535e-02	1.40488954e-04
6.96000000e-01	1.32531252e-02	1.40297991e-04
6.97000000e-01	1.33575065e-02	1.40705653e-04
6.98000000e-01	1.33798412e-02	1.41798790e-04
6.99000000e-01	1.32419981e-02	1.40256107e-04
7.00000000e-01	1.32980083e-02	1.40429202e-04
7.01000000e-01	1.33372216e-02	1.40840878e-04
7.02000000e-01	1.32390184e-02	1.39967263e-04
7.03000000e-01	1.32089275e-02	1.39577766e-04
7.04000000e-01	1.33428234e-02	1.41192670e-04
7.05000000e-01	1.32756663e-02	1.40429155e-04
7.06000000e-01	1.32379061e-02	1.40086267e-04
7.07000000e-01	1.31204327e-02	1.38584225e-04
7.08000000e-01	1.33525378e-02	1.40440638e-04
7.09000000e-01	1.31807145e-02	1.39309242e-04
7.10000000e-01	1.30378707e-02	1.37348165e-04
7.11000000e-01	1.30987882e-02	1.38071775e-04
7.12000000e-01	1.32335757e-02	1.39470654e-04
7.13000000e-01	1.31439939e-02	1.38892713e-04
7.14000000e-01	1.30627616e-02	1.38195356e-04
7.15000000e-01	1.32151887e-02	1.39489489e-04
7.16000000e-01	1.30311001e-02	1.37877861e-04
7.17000000e-01	1.32453964e-02	1.39759655e-04
7.18000000e-01	1.30507057e-02	1.37961074e-04
7.19000000e-01	1.30804538e-02	1.38269201e-04
7.20000000e-01	1.29572241e-02	1.37081374e-04
7.21000000e-01	1.31718176e-02	1.39571759e-04
7.22000000e-01	1.29483631e-02	1.37549203e-04
7.23000000e-01	1.30198261e-02	1.37979073e-04
7.24000000e-01	1.30494813e-02	1.37859883e-04
7.25000000e-01	1.28231921e-02	1.35692109e-04
7.26000000e-01	1.29830011e-02	1.37056632e-04
7.27000000e-01	1.29009479e-02	1.36597623e-04
7.28000000e-01	1.30906063e-02	1.38122866e-04
7.29000000e-01	1.29438623e-02	1.37110409e-04
7.30000000e-01	1.28724650e-02	1.36388129e-04
7.31000000e-01	1.29986972e-02	1.37602729e-04
7.32000000e-01	1.28874235e-02	1.36567448e-04
7.33000000e-01	1.29154977e-02	1.36833414e-04
7.34000000e-01	1.29387403e-02	1.36836170e-04
7.35000000e-01	1.29219157e-02	1.36399301e-04
7.36000000e-01	1.29881894e-02	1.36264136e-04
7.37000000e-01	1.28321974e-02	1.35093738e-04
7.38000000e-01	1.29723002e-02	1.36122436e-04
7.39000000e-01	1.28331295e-02	1.34782012e-04
7.40000000e-01	1.28463665e-02	1.34797814e-04
7.41000000e-01	1.28682738e-02	1.34443205e-04
7.42000000e-01	1.28230242e-02	1.34860386e-04
7.43000000e-01	1.28182408e-02	1.34458435e-04
7.44000000e-01	1.27682337e-02	1.33917274e-04
7.45000000e-01	1.28290256e-02	1.33989804e-04
7.46000000e-01	1.27785915e-02	1.33682269e-04
7.47000000e-01	1.27284658e-02	1.33793822e-04
7.48000000e-01	1.29523848e-02	1.35348708e-04
7.49000000e-01	1.27231605e-02	1.33128763e-04
7.50000000e-01	1.27367992e-02	1.33886384e-04
7.51000000e-01	1.28275673e-02	1.34056947e-04
7.52000000e-01	1.28877634e-02	1.34567961e-04
7.53000000e-01	1.27240851e-02	1.33676523e-04
7.54000000e-01	1.27011047e-02	1.33329864e-04
7.55000000e-01	1.27516329e-02	1.33559897e-04
7.56000000e-01	1.27394035e-02	1.33895589e-04
7.57000000e-01	1.25904783e-02	1.32212434e-04
7.58000000e-01	1.26348902e-02	1.32725892e-04
7.59000000e-01	1.25669023e-02	1.32085706e-04
7.60000000e-01	1.26163932e-02	1.31954500e-04
7.61000000e-01	1.26690508e-02	1.31996914e-04
7.62000000e-01	1.25880826e-02	1.31603352e-04
7.63000000e-01	1.27075731e-02	1.32524420e-04
7.64000000e-01	1.25610804e-02	1.30953770e-04
7.65000000e-01	1.26269063e-02	1.31174429e-04
7.66000000e-01	1.25655551e-02	1.30752059e-04
7.67000000e-01	1.26355078e-02	1.31508141e-04
7.68000000e-01	1.25803400e-02	1.30904780e-04
7.69000000e-01	1.25081702e-02	1.30209329e-04
7.70000000e-01	1.26437295e-02	1.31283001e-04
7.71000000e-01	1.25772570e-02	1.30569097e-04
7.72000000e-01	1.25427530e-02	1.34327254e-04
7.73000000e-01	1.25497907e-02	1.38601339e-04
7.74000000e-01	1.26879493e-02	1.42851961e-04
7.75000000e-01	1.25491475e-02	1.44007034e-04
7.76000000e-01	1.25387033e-02	1.46836097e-04
7.77000000e-01	1.24128486e-02	1.47110235e-04
7.78000000e-01	1.26583460e-02	1.50551331e-04
7.79000000e-01	1.25027449e-02	1.51506244e-04
7.80000000e-01	1.24313680e-02	1.52769268e-04
7.81000000e-01	1.24242430e-02	1.54179951e-04
7.82000000e-01	1.25455224e-02	1.57213946e-04
7.83000000e-01	1.23151777e-02	1.56187083e-04
7.84000000e-01	1.25596226e-02	1.60928879e-04
7.85000000e-01	1.23892167e-02	1.60891701e-04
7.86000000e-01	1.24017479e-02	1.62532311e-04
7.87000000e-01	1.24340193e-02	1.64684880e-04
7.88000000e-01	1.23204609e-02	1.64461052e-04
7.89000000e-01	1.24291250e-02	1.67914771e-04
7.90000000e-01	1.24205278e-02	1.69090156e-04
7.91000000e-01	1.23803156e-02	1.70024686e-04
7.92000000e-01	1.25032991e-02	1.74797389e-04
7.93000000e-01	1.23240814e-02	1.73427504e-04
7.94000000e-01	1.22737678e-02	1.74395551e-04
7.95000000e-01	1.21396992e-02	1.74800800e-04
7.96000000e-01	1.23157439e-02	1.78693742e-04
7.97000000e-01	1.21419776e-02	1.78331146e-04
7.98000000e-01	1.23024616e-02	1.81502401e-04
7.99000000e-01	1.22500600e-02	1.83458515e-04
8.00000000e-01	1.22661745e-02	1.85274263e-04
8.01000000e-01	1.21258359e-02	1.84273819e-04
8.02000000e-01	1.21955172e-02	1.88719203e-04
8.03000000e-01	1.20588958e-02	1.87781041e-04
8.04000000e-01	1.20921293e-02	1.90150786e-04
8.05000000e-01	1.20385850e-02	1.91666161e-04
8.06000000e-01	1.21653224e-02	1.94797312e-04
8.07000000e-01	1.21265680e-02	1.97078397e-04
8.08000000e-01	1.20011620e-02	1.98308868e-04
8.09000000e-01	1.19785264e-02	2.00132337e-04
8.10000000e-01	1.21740050e-02	2.04792645e-04
8.11000000e-01	1.21531406e-02	2.06348799e-04
8.12000000e-01	1.19975201e-02	2.06997723e-04
8.13000000e-01	1.20599752e-02	2.09306055e-04
8.14000000e-01	1.21181723e-02	2.12526034e-04
8.15000000e-01	1.20352220e-02	2.14307735e-04
8.16000000e-01	1.19960102e-02	2.17123995e-04
8.17000000e-01	1.19468633e-02	2.17946835e-04
8.18000000e-01	1.20217401e-02	2.21641908e-04
8.19000000e-01	1.17441596e-02	2.20962795e-04
8.20000000e-01	1.17919926e-02	2.24501552e-04
8.21000000e-01	1.17618103e-02	2.26796274e-04
8.22000000e-01	1.18354885e-02	2.30011649e-04
8.23000000e-01	1.19251933e-02	2.35734596e-04
8.24000000e-01	1.17311424e-02	2.36321759e-04
8.25000000e-01	1.15663664e-02	2.35093380e-04
8.26000000e-01	1.20391826e-02	2.48100217e-04
8.27000000e-01	1.20118594e-02	2.50106300e-04
8.28000000e-01	1.16780373e-02	2.47219154e-04
8.29000000e-01	1.14646120e-02	2.49296613e-04
8.30000000e-01	1.17006926e-02	2.56101652e-04
8.31000000e-01	1.18030276e-02	2.60127967e-04
8.32000000e-01	1.14650294e-02	2.61501964e-04
8.33000000e-01	1.17738245e-02	2.69693775e-04
8.34000000e-01	1.16852584e-02	2.75911611e-04
8.35000000e-01	1.16166781e-02	2.77216640e-04
8.36000000e-01	1.15717379e-02	2.80583564e-04
8.37000000e-01	1.17919528e-02	2.90976274e-04
8.38000000e-01	1.16887674e-02	2.95959114e-04
8.39000000e-01	1.18512872e-02	3.03800005e-04
8.40000000e-01	1.17753220e-02	3.08898803e-04
8.41000000e-01	1.15718886e-02	3.10854563e-04
8.42000000e-01	1.15585162e-02	3.20506900e-04
8.43000000e-01	1.12926987e-02	3.20128179e-04
8.44000000e-01	1.15511973e-02	3.32343882e-04
8.45000000e-01	1.13048813e-02	3.36531950e-04
8.46000000e-01	1.11708130e-02	3.45017098e-04
8.47000000e-01	1.11771878e-02	3.53108360e-04
8.48000000e-01	1.16775875e-02	3.74789288e-04
8.49000000e-01	1.16796032e-02	3.91165963e-04
8.50000000e-01	1.22418598e-02	4.15718891e-04
8.51000000e-01	1.14446196e-02	4.08928749e-04
8.52000000e-01	1.19875323e-02	4.41507586e-04
8.53000000e-01	1.16773303e-02	4.50652855e-04
8.54000000e-01	1.15641549e-02	4.71708592e-04
8.55000000e-01	1.12631950e-02	4.65078633e-04
8.56000000e-01	1.16014455e-02	5.08983175e-04
8.57000000e-01	1.15842323e-02	5.08794099e-04
8.58000000e-01	1.08997849e-02	5.01574175e-04
8.59000000e-01	1.11008832e-02	5.22366696e-04
8.60000000e-01	1.10271180e-02	5.26428472e-04
8.61000000e-01	1.10565359e-02	5.61265478e-04
8.62000000e-01	1.14844717e-02	5.96875569e-04
8.63000000e-01	1.14505369e-02	6.17622200e-04
8.64000000e-01	1.14387836e-02	6.36145777e-04
8.65000000e-01	1.15155695e-02	6.87957889e-04
8.66000000e-01	1.03695234e-02	6.53629945e-04
8.67000000e-01	1.15417802e-02	7.52013788e-04
8.68000000e-01	1.03068028e-02	7.31274344e-04
8.69000000e-01	1.11554005e-02	8.30887443e-04
8.70000000e-01	1.11156299e-02	9.35732159e-04
8.71000000e-01	1.04305948e-02	9.92868097e-04
8.72000000e-01	1.02207656e-02	1.07449703e-03
8.73000000e-01	1.05979428e-02	1.30339070e-03
8.74000000e-01	1.23988577e-02	1.99210606e-03
8.75000000e-01	8.51865552e-03	2.95094813e-03
