% Filename : SEC9_00044_00009.h5
% Date & Time : 30-Oct-2025 18:04:07
% X-ray Energy (keV) : 13.30001
% Exposure Time (s) : 0.500
% Beam Center : 1461.24000, 208.98300
% Sample to Detector Distance (SDD) (mm) : 1990.750
% Detector Pixel Size (mm) : 0.075
% Photodiode Value : 141111.000
% I0 of Sample : 0
% I0 of Standard : 1
% 
% q(A^-1)   I(q)    I(q)_SE
0.00000000e+00	8.96222183e-03	4.95864175e-03
2.50000000e-04	0.00000000e+00	0.00000000e+00
5.00000000e-04	0.00000000e+00	0.00000000e+00
7.50000000e-04	0.00000000e+00	0.00000000e+00
1.00000000e-03	0.00000000e+00	0.00000000e+00
1.25000000e-03	0.00000000e+00	0.00000000e+00
1.50000000e-03	0.00000000e+00	0.00000000e+00
1.75000000e-03	0.00000000e+00	0.00000000e+00
2.00000000e-03	0.00000000e+00	0.00000000e+00
2.25000000e-03	0.00000000e+00	0.00000000e+00
2.50000000e-03	0.00000000e+00	0.00000000e+00
2.75000000e-03	0.00000000e+00	0.00000000e+00
3.00000000e-03	0.00000000e+00	0.00000000e+00
3.25000000e-03	5.22334036e+02	3.06924182e+02
3.50000000e-03	6.96792408e+02	1.58766271e+02
3.75000000e-03	5.92214150e+02	1.09043167e+02
4.00000000e-03	4.42669763e+02	7.33034126e+01
4.25000000e-03	3.39168877e+02	4.64952694e+01
4.50000000e-03	3.06387709e+02	3.74788278e+01
4.75000000e-03	2.58119566e+02	2.84060362e+01
5.00000000e-03	2.06306278e+02	2.17500875e+01
5.25000000e-03	1.69801208e+02	1.77330323e+01
5.50000000e-03	1.42336563e+02	1.42852754e+01
5.75000000e-03	1.19405123e+02	1.17968633e+01
6.00000000e-03	9.66767129e+01	9.10880649e+00
6.25000000e-03	8.18165755e+01	7.64881497e+00
6.50000000e-03	6.94243851e+01	6.31890839e+00
6.75000000e-03	5.93649118e+01	5.31137645e+00
7.00000000e-03	5.30482669e+01	4.64632197e+00
7.25000000e-03	4.59233050e+01	3.93645645e+00
7.50000000e-03	4.00758504e+01	3.39799043e+00
7.75000000e-03	3.55946056e+01	2.96814228e+00
8.00000000e-03	3.08519698e+01	2.52694826e+00
8.25000000e-03	2.75385302e+01	2.19246300e+00
8.50000000e-03	2.42204845e+01	1.88896970e+00
8.75000000e-03	2.17354160e+01	1.67995830e+00
9.00000000e-03	1.93853347e+01	1.48286665e+00
9.25000000e-03	1.74019285e+01	1.29380868e+00
9.50000000e-03	1.60059675e+01	1.17141034e+00
9.75000000e-03	1.42979611e+01	1.03284796e+00
1.00000000e-02	1.29975112e+01	9.26458481e-01
1.02500000e-02	1.18775851e+01	8.53103905e-01
1.05000000e-02	1.09313379e+01	7.50369480e-01
1.07500000e-02	9.77513085e+00	6.68902013e-01
1.10000000e-02	9.02220661e+00	6.02719584e-01
1.12500000e-02	8.36388303e+00	5.71421768e-01
1.15000000e-02	7.63463107e+00	5.08085361e-01
1.17500000e-02	7.04832147e+00	4.59967748e-01
1.20000000e-02	6.47344024e+00	4.18029788e-01
1.22500000e-02	6.09361265e+00	3.86740014e-01
1.25000000e-02	5.62061693e+00	3.56582011e-01
1.27500000e-02	5.26736587e+00	3.30597417e-01
1.30000000e-02	4.89312162e+00	3.04429007e-01
1.32500000e-02	4.51271156e+00	2.72229515e-01
1.35000000e-02	4.21582564e+00	2.56070741e-01
1.37500000e-02	3.91173553e+00	2.36541633e-01
1.40000000e-02	3.58304542e+00	2.13010341e-01
1.42500000e-02	3.39198996e+00	1.97830981e-01
1.45000000e-02	3.19379815e+00	1.85315461e-01
1.47500000e-02	2.99880896e+00	1.72942847e-01
1.50000000e-02	2.81182291e+00	1.62101403e-01
1.52500000e-02	2.61377200e+00	1.48352745e-01
1.55000000e-02	2.50466418e+00	1.39999707e-01
1.57500000e-02	2.32138524e+00	1.29813963e-01
1.60000000e-02	2.17512456e+00	1.19465266e-01
1.62500000e-02	2.04773474e+00	1.13967902e-01
1.65000000e-02	1.92001603e+00	1.04409067e-01
1.67500000e-02	1.82684748e+00	9.75074808e-02
1.70000000e-02	1.70311500e+00	9.05516232e-02
1.72500000e-02	1.60345205e+00	8.48755214e-02
1.75000000e-02	1.52417230e+00	8.04965918e-02
1.77500000e-02	1.43168983e+00	7.37368271e-02
1.80000000e-02	1.35871372e+00	7.03566734e-02
1.82500000e-02	1.29339441e+00	6.49298793e-02
1.85000000e-02	1.21660517e+00	6.27110413e-02
1.87500000e-02	1.16265311e+00	5.85522424e-02
1.90000000e-02	1.09887518e+00	5.52143318e-02
1.92500000e-02	1.04441291e+00	5.17077110e-02
1.95000000e-02	9.91129376e-01	4.89009493e-02
1.97500000e-02	9.37315508e-01	4.63204398e-02
2.00000000e-02	9.10893620e-01	4.44976224e-02
2.02500000e-02	8.67195131e-01	4.21545713e-02
2.05000000e-02	8.32258255e-01	3.95525808e-02
2.07500000e-02	7.86515462e-01	3.74509450e-02
2.10000000e-02	7.55964312e-01	3.61838737e-02
2.12500000e-02	7.18827301e-01	3.43184465e-02
2.15000000e-02	6.99996371e-01	3.31136626e-02
2.17500000e-02	6.71035215e-01	3.20093867e-02
2.20000000e-02	6.37759497e-01	3.06117437e-02
2.22500000e-02	6.19500177e-01	2.94703023e-02
2.25000000e-02	6.01337885e-01	2.88438471e-02
2.27500000e-02	5.69741137e-01	2.68654255e-02
2.30000000e-02	5.44653425e-01	2.60764620e-02
2.32500000e-02	5.30563552e-01	2.50934982e-02
2.35000000e-02	5.07885450e-01	2.42738872e-02
2.37500000e-02	4.90724813e-01	2.32962521e-02
2.40000000e-02	4.66988854e-01	2.22331060e-02
2.42500000e-02	4.52561067e-01	2.13904603e-02
2.45000000e-02	4.31974824e-01	2.05094739e-02
2.47500000e-02	4.22144818e-01	1.98331405e-02
2.50000000e-02	4.07595902e-01	1.91588871e-02
2.52500000e-02	3.86815250e-01	1.83282487e-02
2.55000000e-02	3.79217926e-01	1.75993854e-02
2.57500000e-02	3.63914683e-01	1.69494124e-02
2.60000000e-02	3.50935103e-01	1.62479016e-02
2.62500000e-02	3.39390258e-01	1.59196987e-02
2.65000000e-02	3.25920954e-01	1.50897127e-02
2.67500000e-02	3.16212632e-01	1.45248515e-02
2.70000000e-02	3.06497982e-01	1.41595843e-02
2.72500000e-02	2.94972719e-01	1.34487670e-02
2.75000000e-02	2.87287554e-01	1.34144050e-02
2.77500000e-02	2.74594767e-01	1.27554356e-02
2.80000000e-02	2.70362235e-01	1.22538475e-02
2.82500000e-02	2.61053017e-01	1.18139887e-02
2.85000000e-02	2.51381367e-01	1.14170840e-02
2.87500000e-02	2.43652795e-01	1.11165902e-02
2.90000000e-02	2.37858318e-01	1.08442104e-02
2.92500000e-02	2.31533723e-01	1.02317893e-02
2.95000000e-02	2.24152912e-01	1.01242494e-02
2.97500000e-02	2.19460147e-01	9.82676508e-03
3.00000000e-02	2.07163060e-01	9.34298715e-03
3.02500000e-02	2.03381034e-01	9.15237979e-03
3.05000000e-02	1.98654108e-01	8.74375055e-03
3.07500000e-02	1.95583078e-01	8.70743571e-03
3.10000000e-02	1.89112009e-01	8.40816546e-03
3.12500000e-02	1.84480742e-01	8.27981323e-03
3.15000000e-02	1.80849591e-01	8.01333245e-03
3.17500000e-02	1.75493293e-01	7.61998873e-03
3.20000000e-02	1.70295951e-01	7.52968175e-03
3.22500000e-02	1.62539167e-01	7.15204402e-03
3.25000000e-02	1.62124879e-01	7.14423408e-03
3.27500000e-02	1.59786243e-01	6.96728660e-03
3.30000000e-02	1.53913075e-01	6.68166298e-03
3.32500000e-02	1.52062642e-01	6.57278458e-03
3.35000000e-02	1.45884361e-01	6.38495746e-03
3.37500000e-02	1.41201180e-01	6.09963661e-03
3.40000000e-02	1.40535051e-01	6.09119524e-03
3.42500000e-02	1.36510968e-01	5.86275982e-03
3.45000000e-02	1.35477891e-01	5.84913209e-03
3.47500000e-02	1.30101395e-01	5.57885296e-03
3.50000000e-02	1.29013107e-01	5.52078417e-03
3.52500000e-02	1.23173816e-01	5.26803373e-03
3.55000000e-02	1.22552811e-01	5.18596659e-03
3.57500000e-02	1.20383035e-01	5.15776062e-03
3.60000000e-02	1.16993927e-01	4.97221306e-03
3.62500000e-02	1.13714552e-01	4.87263322e-03
3.65000000e-02	1.11714106e-01	4.73239346e-03
3.67500000e-02	1.09257670e-01	4.61264424e-03
3.70000000e-02	1.09022680e-01	4.59629169e-03
3.72500000e-02	1.06058571e-01	4.44959232e-03
3.75000000e-02	1.02203016e-01	4.30171079e-03
3.77500000e-02	1.01676991e-01	4.25402313e-03
3.80000000e-02	9.97579235e-02	4.16748464e-03
3.82500000e-02	9.67385261e-02	4.00578784e-03
3.85000000e-02	9.58194303e-02	4.00572585e-03
3.87500000e-02	9.45944103e-02	3.92582109e-03
3.90000000e-02	9.32714517e-02	3.89272067e-03
3.92500000e-02	9.09444850e-02	3.74247158e-03
3.95000000e-02	8.89214498e-02	3.68361223e-03
3.97500000e-02	8.76883941e-02	3.61760745e-03
4.00000000e-02	8.63796225e-02	3.55290285e-03
4.02500000e-02	8.31879464e-02	3.42018049e-03
4.05000000e-02	8.34447746e-02	3.41106058e-03
4.07500000e-02	8.09220275e-02	3.29079504e-03
4.10000000e-02	8.10254708e-02	3.33400787e-03
4.12500000e-02	7.71357914e-02	3.14333558e-03
4.15000000e-02	7.71885999e-02	3.12242827e-03
4.17500000e-02	7.85109893e-02	3.17601268e-03
4.20000000e-02	7.49343083e-02	3.02555616e-03
4.22500000e-02	7.44475286e-02	2.99044109e-03
4.25000000e-02	7.24527567e-02	2.91145456e-03
4.27500000e-02	7.19104185e-02	2.87786345e-03
4.30000000e-02	7.14030975e-02	2.84585219e-03
4.32500000e-02	6.94406573e-02	2.76510417e-03
4.35000000e-02	6.90649533e-02	2.80202355e-03
4.37500000e-02	6.83019025e-02	2.70188738e-03
4.40000000e-02	6.65927337e-02	2.66051972e-03
4.42500000e-02	6.57736089e-02	2.60248583e-03
4.45000000e-02	6.57814421e-02	2.59360725e-03
4.47500000e-02	6.47561957e-02	2.55289141e-03
4.50000000e-02	6.25928389e-02	2.48205917e-03
4.52500000e-02	6.30883057e-02	2.47454045e-03
4.55000000e-02	6.21082660e-02	2.43850200e-03
4.57500000e-02	6.14538616e-02	2.39050951e-03
4.60000000e-02	6.10730184e-02	2.39407149e-03
4.62500000e-02	5.84047045e-02	2.28523028e-03
4.65000000e-02	5.78090689e-02	2.25367636e-03
4.67500000e-02	5.84776007e-02	2.25821704e-03
4.70000000e-02	5.82385630e-02	2.25165077e-03
4.72500000e-02	5.59868258e-02	2.17258901e-03
4.75000000e-02	5.61533690e-02	2.19884577e-03
4.77500000e-02	5.57512289e-02	2.14295940e-03
4.80000000e-02	5.49657220e-02	2.11689011e-03
4.82500000e-02	5.53180461e-02	2.11791271e-03
4.85000000e-02	5.35621630e-02	2.08863251e-03
4.87500000e-02	5.29112632e-02	2.03366783e-03
4.90000000e-02	5.18842501e-02	1.97817628e-03
4.92500000e-02	5.19822000e-02	1.99083339e-03
4.95000000e-02	5.25143164e-02	2.00153485e-03
4.97500000e-02	5.05725826e-02	1.95177678e-03
5.00000000e-02	5.05781438e-02	1.93860295e-03
5.02500000e-02	4.97348960e-02	1.88274640e-03
5.05000000e-02	4.99008732e-02	1.87780200e-03
5.07500000e-02	4.86185599e-02	1.84967883e-03
5.10000000e-02	4.83965661e-02	1.83592707e-03
5.12500000e-02	4.82107359e-02	1.82739978e-03
5.15000000e-02	4.77054594e-02	1.78721600e-03
5.17500000e-02	4.59320835e-02	1.74368826e-03
5.20000000e-02	4.59860990e-02	1.72649692e-03
5.22500000e-02	4.56060583e-02	1.71336429e-03
5.25000000e-02	4.61556636e-02	1.71763908e-03
5.27500000e-02	4.57659942e-02	1.70399639e-03
5.30000000e-02	4.56157656e-02	1.71356544e-03
5.32500000e-02	4.46560934e-02	1.67626939e-03
5.35000000e-02	4.45321838e-02	1.66840620e-03
5.37500000e-02	4.40753942e-02	1.63813961e-03
5.40000000e-02	4.30196166e-02	1.59956965e-03
5.42500000e-02	4.25552002e-02	1.57673905e-03
5.45000000e-02	4.28106067e-02	1.58461295e-03
5.47500000e-02	4.23055379e-02	1.55574420e-03
5.50000000e-02	4.19852856e-02	1.55494535e-03
5.52500000e-02	4.19872693e-02	1.54026167e-03
5.55000000e-02	4.07821949e-02	1.50026635e-03
5.57500000e-02	4.14054434e-02	1.52258899e-03
5.60000000e-02	4.08656717e-02	1.49600773e-03
5.62500000e-02	4.13159813e-02	1.52016399e-03
5.65000000e-02	3.93734670e-02	1.43606099e-03
5.67500000e-02	4.01478691e-02	1.46668659e-03
5.70000000e-02	4.11200950e-02	1.48867475e-03
5.72500000e-02	3.96559330e-02	1.44422468e-03
5.75000000e-02	4.03911602e-02	1.47743287e-03
5.77500000e-02	3.86847670e-02	1.39250881e-03
5.80000000e-02	3.84562864e-02	1.40076830e-03
5.82500000e-02	3.80505995e-02	1.37159741e-03
5.85000000e-02	3.78434482e-02	1.37478179e-03
5.87500000e-02	3.81980920e-02	1.37569616e-03
5.90000000e-02	3.74422901e-02	1.34606687e-03
5.92500000e-02	3.76112911e-02	1.34909457e-03
5.95000000e-02	3.73753958e-02	1.32877229e-03
5.97500000e-02	3.71533547e-02	1.33990178e-03
6.00000000e-02	3.70567379e-02	1.32629001e-03
6.02500000e-02	3.67579226e-02	1.32117474e-03
6.05000000e-02	3.62788697e-02	1.29787955e-03
6.07500000e-02	3.62332850e-02	1.28913888e-03
6.10000000e-02	3.57213219e-02	1.27697742e-03
6.12500000e-02	3.55086250e-02	1.25705776e-03
6.15000000e-02	3.57201433e-02	1.26395787e-03
6.17500000e-02	3.56623852e-02	1.26439319e-03
6.20000000e-02	3.48183729e-02	1.23479093e-03
6.22500000e-02	3.41620977e-02	1.21823096e-03
6.25000000e-02	3.41530200e-02	1.21053589e-03
6.27500000e-02	3.46238504e-02	1.20614799e-03
6.30000000e-02	3.41464850e-02	1.19901680e-03
6.32500000e-02	3.37397599e-02	1.18826692e-03
6.35000000e-02	3.37637566e-02	1.18932920e-03
6.37500000e-02	3.38682814e-02	1.18365605e-03
6.40000000e-02	3.33664286e-02	1.16656257e-03
6.42500000e-02	3.28207090e-02	1.14399820e-03
6.45000000e-02	3.27459869e-02	1.14592449e-03
6.47500000e-02	3.27847159e-02	1.14159516e-03
6.50000000e-02	3.31033443e-02	1.15160015e-03
6.52500000e-02	3.25541329e-02	1.12398318e-03
6.55000000e-02	3.16882004e-02	1.10140178e-03
6.57500000e-02	3.19485654e-02	1.10682838e-03
6.60000000e-02	3.19332094e-02	1.10682573e-03
6.62500000e-02	3.22356002e-02	1.11571385e-03
6.65000000e-02	3.16515643e-02	1.08608713e-03
6.67500000e-02	3.19935982e-02	1.10018411e-03
6.70000000e-02	3.23070515e-02	1.11861436e-03
6.72500000e-02	3.17826401e-02	1.09957088e-03
6.75000000e-02	3.08710139e-02	1.06784182e-03
6.77500000e-02	3.18500080e-02	1.08458968e-03
6.80000000e-02	3.13986508e-02	1.07908880e-03
6.82500000e-02	3.07798668e-02	1.04968255e-03
6.85000000e-02	3.10091467e-02	1.06868664e-03
6.87500000e-02	3.03349129e-02	1.03591444e-03
6.90000000e-02	3.07925431e-02	1.04405993e-03
6.92500000e-02	3.09992084e-02	1.04720695e-03
6.95000000e-02	3.10683648e-02	1.06179642e-03
6.97500000e-02	3.05361171e-02	1.04392575e-03
7.00000000e-02	3.03924578e-02	1.02998664e-03
7.02500000e-02	3.04001300e-02	1.03079914e-03
7.05000000e-02	2.94971433e-02	9.95556118e-04
7.07500000e-02	3.00408760e-02	1.02537023e-03
7.10000000e-02	2.91798142e-02	9.85075111e-04
7.12500000e-02	2.95754935e-02	9.96286179e-04
7.15000000e-02	2.92967544e-02	9.85468307e-04
7.17500000e-02	2.95970222e-02	9.98710449e-04
7.20000000e-02	2.90986858e-02	9.83500965e-04
7.22500000e-02	2.93548952e-02	9.87405329e-04
7.25000000e-02	2.86117193e-02	9.55126743e-04
7.27500000e-02	2.92851623e-02	9.81489056e-04
7.30000000e-02	2.83992589e-02	9.45795900e-04
7.32500000e-02	2.90209149e-02	9.64395975e-04
7.35000000e-02	2.86904658e-02	9.63694410e-04
7.37500000e-02	2.92065213e-02	9.66275024e-04
7.40000000e-02	2.90022825e-02	9.60546117e-04
7.42500000e-02	2.91045742e-02	9.65260670e-04
7.45000000e-02	2.85385610e-02	9.44781187e-04
7.47500000e-02	2.86772949e-02	9.48402463e-04
7.50000000e-02	2.83551472e-02	9.39860136e-04
7.52500000e-02	2.83690412e-02	9.42434949e-04
7.55000000e-02	2.78618755e-02	9.17089994e-04
7.57500000e-02	2.83288772e-02	9.34312926e-04
7.60000000e-02	2.80552715e-02	9.22328732e-04
7.62500000e-02	2.80570569e-02	9.30911377e-04
7.65000000e-02	2.82010032e-02	9.26092443e-04
7.67500000e-02	2.76250081e-02	9.07096341e-04
7.70000000e-02	2.80330173e-02	9.16275836e-04
7.72500000e-02	2.79627576e-02	9.26841501e-04
7.75000000e-02	2.75306090e-02	9.22092064e-04
7.77500000e-02	2.75748159e-02	9.36781403e-04
7.80000000e-02	2.76774002e-02	9.39616598e-04
7.82500000e-02	2.78603188e-02	9.48083853e-04
7.85000000e-02	2.78237799e-02	9.61995931e-04
7.87500000e-02	2.70828214e-02	9.32134138e-04
7.90000000e-02	2.71219380e-02	9.35669482e-04
7.92500000e-02	2.73353144e-02	9.44694491e-04
7.95000000e-02	2.67103119e-02	9.37550451e-04
7.97500000e-02	2.76001216e-02	9.66393290e-04
8.00000000e-02	2.68467985e-02	9.29216588e-04
8.02500000e-02	2.76468054e-02	9.64878559e-04
8.05000000e-02	2.73718921e-02	9.52386401e-04
8.07500000e-02	2.70291258e-02	9.52224161e-04
8.10000000e-02	2.71904385e-02	9.56107274e-04
8.12500000e-02	2.72940118e-02	9.66404368e-04
8.15000000e-02	2.64976240e-02	9.33037793e-04
8.17500000e-02	2.74456719e-02	9.71760659e-04
8.20000000e-02	2.65799901e-02	9.37992802e-04
8.22500000e-02	2.68890470e-02	9.57439879e-04
8.25000000e-02	2.64591050e-02	9.38741335e-04
8.27500000e-02	2.67984735e-02	9.50987889e-04
8.30000000e-02	2.68240147e-02	9.57935607e-04
8.32500000e-02	2.65666301e-02	9.54331530e-04
8.35000000e-02	2.66620483e-02	9.64728953e-04
8.37500000e-02	2.66489178e-02	9.51787967e-04
8.40000000e-02	2.61098052e-02	9.38811343e-04
8.42500000e-02	2.70817999e-02	9.72484553e-04
8.45000000e-02	2.58970672e-02	9.30491279e-04
8.47500000e-02	2.55993021e-02	9.25535207e-04
8.50000000e-02	2.63848281e-02	9.46270861e-04
8.52500000e-02	2.66166648e-02	9.63967145e-04
8.55000000e-02	2.61278593e-02	9.46869770e-04
8.57500000e-02	2.62354203e-02	9.52134994e-04
8.60000000e-02	2.59020035e-02	9.40721092e-04
8.62500000e-02	2.54294467e-02	9.19251692e-04
8.65000000e-02	2.56269054e-02	9.26852715e-04
8.67500000e-02	2.59066000e-02	9.33943669e-04
8.70000000e-02	2.54736970e-02	9.09091291e-04
8.72500000e-02	2.63187208e-02	9.19248819e-04
8.75000000e-02	2.44502193e-02	8.47400225e-04
8.77500000e-02	2.59784055e-02	8.90356894e-04
8.80000000e-02	2.52828564e-02	8.73554435e-04
8.82500000e-02	2.52397879e-02	8.68032781e-04
8.85000000e-02	2.56115735e-02	8.71802056e-04
8.87500000e-02	2.48813137e-02	8.34250913e-04
8.90000000e-02	2.55321732e-02	8.61491176e-04
8.92500000e-02	2.54831288e-02	8.48857353e-04
8.95000000e-02	2.49520065e-02	8.34645136e-04
8.97500000e-02	2.50221296e-02	8.30180920e-04
9.00000000e-02	2.52512794e-02	8.36120197e-04
9.02500000e-02	2.46433371e-02	8.20391751e-04
9.05000000e-02	2.53307845e-02	8.41045994e-04
9.07500000e-02	2.49117815e-02	8.21478049e-04
9.10000000e-02	2.47861939e-02	8.21316502e-04
9.12500000e-02	2.50565360e-02	8.30147722e-04
9.15000000e-02	2.45490651e-02	8.15254189e-04
9.17500000e-02	2.46238911e-02	8.15400791e-04
9.20000000e-02	2.47175969e-02	8.07242297e-04
9.22500000e-02	2.48255037e-02	8.11218239e-04
9.25000000e-02	2.43262615e-02	7.87477582e-04
9.27500000e-02	2.46329093e-02	8.00008031e-04
9.30000000e-02	2.40654048e-02	7.78758376e-04
9.32500000e-02	2.51340305e-02	8.15023597e-04
9.35000000e-02	2.41938847e-02	7.83757158e-04
9.37500000e-02	2.40303145e-02	7.72080735e-04
9.40000000e-02	2.42049312e-02	7.87444669e-04
9.42500000e-02	2.41392729e-02	7.72863281e-04
9.45000000e-02	2.40903464e-02	7.74325325e-04
9.47500000e-02	2.44471411e-02	7.80651614e-04
9.50000000e-02	2.40583318e-02	7.64452780e-04
9.52500000e-02	2.38403817e-02	7.63231663e-04
9.55000000e-02	2.42212339e-02	7.72501625e-04
9.57500000e-02	2.36423063e-02	7.55383846e-04
9.60000000e-02	2.38662448e-02	7.61715313e-04
9.62500000e-02	2.34694956e-02	7.48245398e-04
9.65000000e-02	2.38395640e-02	7.52948116e-04
9.67500000e-02	2.35668627e-02	7.46752416e-04
9.70000000e-02	2.34131443e-02	7.41131116e-04
9.72500000e-02	2.40159309e-02	7.59540174e-04
9.75000000e-02	2.43427288e-02	7.71608654e-04
9.77500000e-02	2.39192682e-02	7.48259039e-04
9.80000000e-02	2.39994176e-02	7.52561444e-04
9.82500000e-02	2.36809076e-02	7.45502515e-04
9.85000000e-02	2.34271995e-02	7.36688530e-04
9.87500000e-02	2.32538926e-02	7.29677895e-04
9.90000000e-02	2.33464018e-02	7.28417488e-04
9.92500000e-02	2.35253070e-02	7.39698046e-04
9.95000000e-02	2.39025361e-02	7.47582730e-04
9.97500000e-02	2.37896322e-02	7.40330300e-04
1.00000000e-01	2.30096132e-02	5.84508568e-04
1.00500000e-01	2.35703773e-02	5.19819037e-04
1.01000000e-01	2.34597222e-02	5.12090366e-04
1.01500000e-01	2.31938112e-02	5.04629251e-04
1.02000000e-01	2.32177483e-02	5.04532372e-04
1.02500000e-01	2.31227936e-02	4.98663566e-04
1.03000000e-01	2.32627313e-02	5.05060941e-04
1.03500000e-01	2.32097976e-02	5.00215918e-04
1.04000000e-01	2.29450671e-02	4.94690030e-04
1.04500000e-01	2.28867226e-02	4.91941564e-04
1.05000000e-01	2.31356376e-02	4.93532460e-04
1.05500000e-01	2.30420064e-02	4.90568676e-04
1.06000000e-01	2.31017409e-02	4.90845254e-04
1.06500000e-01	2.28891707e-02	4.84462829e-04
1.07000000e-01	2.29735982e-02	4.93235001e-04
1.07500000e-01	2.26703938e-02	4.93702135e-04
1.08000000e-01	2.26373273e-02	4.99842249e-04
1.08500000e-01	2.24604497e-02	5.00994675e-04
1.09000000e-01	2.23631556e-02	5.01633208e-04
1.09500000e-01	2.25161155e-02	5.07368067e-04
1.10000000e-01	2.24657753e-02	4.97102772e-04
1.10500000e-01	2.26720629e-02	4.93887601e-04
1.11000000e-01	2.24479312e-02	4.82336309e-04
1.11500000e-01	2.27267833e-02	4.84823024e-04
1.12000000e-01	2.25909413e-02	4.77133326e-04
1.12500000e-01	2.23633262e-02	4.69019129e-04
1.13000000e-01	2.25194674e-02	4.70233972e-04
1.13500000e-01	2.22161600e-02	4.65168557e-04
1.14000000e-01	2.23781407e-02	4.65955698e-04
1.14500000e-01	2.27145724e-02	4.70112738e-04
1.15000000e-01	2.26267723e-02	4.63604358e-04
1.15500000e-01	2.18547221e-02	4.50816177e-04
1.16000000e-01	2.26510553e-02	4.65908922e-04
1.16500000e-01	2.21768280e-02	4.55361860e-04
1.17000000e-01	2.23515605e-02	4.58745270e-04
1.17500000e-01	2.24518595e-02	4.58357641e-04
1.18000000e-01	2.24833305e-02	4.58327049e-04
1.18500000e-01	2.24021831e-02	4.54393520e-04
1.19000000e-01	2.19879326e-02	4.45537646e-04
1.19500000e-01	2.21710778e-02	4.47186968e-04
1.20000000e-01	2.20054878e-02	4.42159192e-04
1.20500000e-01	2.21764613e-02	4.45446995e-04
1.21000000e-01	2.19431507e-02	4.42067802e-04
1.21500000e-01	2.22684714e-02	4.47525373e-04
1.22000000e-01	2.23134132e-02	4.45651088e-04
1.22500000e-01	2.23892897e-02	4.43783134e-04
1.23000000e-01	2.20154039e-02	4.40381693e-04
1.23500000e-01	2.22029488e-02	4.40683916e-04
1.24000000e-01	2.22586705e-02	4.41459249e-04
1.24500000e-01	2.19269145e-02	4.32061202e-04
1.25000000e-01	2.22851715e-02	4.40539647e-04
1.25500000e-01	2.20623846e-02	4.34762219e-04
1.26000000e-01	2.21887026e-02	4.37491391e-04
1.26500000e-01	2.23421459e-02	4.38008948e-04
1.27000000e-01	2.19414154e-02	4.30127715e-04
1.27500000e-01	2.20828068e-02	4.31621827e-04
1.28000000e-01	2.23678295e-02	4.37529962e-04
1.28500000e-01	2.25370663e-02	4.37707357e-04
1.29000000e-01	2.19282531e-02	4.26827167e-04
1.29500000e-01	2.20559046e-02	4.29734454e-04
1.30000000e-01	2.21068755e-02	4.28172052e-04
1.30500000e-01	2.16706168e-02	4.19179685e-04
1.31000000e-01	2.23173277e-02	4.27988006e-04
1.31500000e-01	2.20764511e-02	4.23768613e-04
1.32000000e-01	2.21451445e-02	4.24154687e-04
1.32500000e-01	2.21156070e-02	4.22051549e-04
1.33000000e-01	2.16829502e-02	4.13338077e-04
1.33500000e-01	2.21309572e-02	4.18578641e-04
1.34000000e-01	2.19289057e-02	4.17357438e-04
1.34500000e-01	2.20162289e-02	4.17917771e-04
1.35000000e-01	2.17643294e-02	4.11537542e-04
1.35500000e-01	2.22044604e-02	4.19737748e-04
1.36000000e-01	2.17745540e-02	4.09160255e-04
1.36500000e-01	2.16677874e-02	4.07629951e-04
1.37000000e-01	2.19728810e-02	4.10185005e-04
1.37500000e-01	2.19357444e-02	4.11638580e-04
1.38000000e-01	2.18756030e-02	4.08636605e-04
1.38500000e-01	2.18470280e-02	4.07261967e-04
1.39000000e-01	2.17435306e-02	4.08556408e-04
1.39500000e-01	2.18854335e-02	4.06673744e-04
1.40000000e-01	2.14653022e-02	4.02044745e-04
1.40500000e-01	2.16316446e-02	4.01596887e-04
1.41000000e-01	2.12950973e-02	3.96736497e-04
1.41500000e-01	2.14035528e-02	3.98633617e-04
1.42000000e-01	2.09793096e-02	3.88192482e-04
1.42500000e-01	2.12537258e-02	3.94300050e-04
1.43000000e-01	2.12122054e-02	3.91520280e-04
1.43500000e-01	2.10541130e-02	3.88909532e-04
1.44000000e-01	2.12266774e-02	3.91516772e-04
1.44500000e-01	2.13803553e-02	3.91664367e-04
1.45000000e-01	2.09775119e-02	3.86020538e-04
1.45500000e-01	2.09031086e-02	3.83447364e-04
1.46000000e-01	2.10658328e-02	3.83139886e-04
1.46500000e-01	2.10443286e-02	3.84386688e-04
1.47000000e-01	2.10274899e-02	3.83123665e-04
1.47500000e-01	2.11731008e-02	3.85688927e-04
1.48000000e-01	2.09601280e-02	3.81638238e-04
1.48500000e-01	2.09446351e-02	3.81010226e-04
1.49000000e-01	2.10026072e-02	3.79867800e-04
1.49500000e-01	2.08128132e-02	3.76851582e-04
1.50000000e-01	2.10759528e-02	3.80390643e-04
1.50500000e-01	2.08277668e-02	3.76702622e-04
1.51000000e-01	2.09215014e-02	3.76957753e-04
1.51500000e-01	2.10914794e-02	3.79309695e-04
1.52000000e-01	2.09069509e-02	3.72158776e-04
1.52500000e-01	2.07410581e-02	3.71840279e-04
1.53000000e-01	2.10783331e-02	3.77169767e-04
1.53500000e-01	2.08756706e-02	3.73597802e-04
1.54000000e-01	2.06541231e-02	3.68800439e-04
1.54500000e-01	2.06458471e-02	3.75843425e-04
1.55000000e-01	2.08439605e-02	3.81418586e-04
1.55500000e-01	2.04570857e-02	3.79493931e-04
1.56000000e-01	2.07689443e-02	3.86776586e-04
1.56500000e-01	2.10623690e-02	3.91048579e-04
1.57000000e-01	2.05331592e-02	3.81948699e-04
1.57500000e-01	2.07485089e-02	3.78114531e-04
1.58000000e-01	2.09724540e-02	3.77345929e-04
1.58500000e-01	2.06197932e-02	3.70900661e-04
1.59000000e-01	2.03653588e-02	3.62900999e-04
1.59500000e-01	2.05582209e-02	3.64681454e-04
1.60000000e-01	2.06120415e-02	3.66418270e-04
1.60500000e-01	2.05312767e-02	3.64221494e-04
1.61000000e-01	2.07919565e-02	3.68476579e-04
1.61500000e-01	2.05486320e-02	3.62484493e-04
1.62000000e-01	2.07238148e-02	3.63916363e-04
1.62500000e-01	2.06532793e-02	3.62817531e-04
1.63000000e-01	2.03530639e-02	3.55961163e-04
1.63500000e-01	2.03238371e-02	3.57901387e-04
1.64000000e-01	1.99782256e-02	3.48189807e-04
1.64500000e-01	2.05233543e-02	3.57606008e-04
1.65000000e-01	2.04345382e-02	3.54951669e-04
1.65500000e-01	2.03557678e-02	3.53594848e-04
1.66000000e-01	2.04522419e-02	3.55669361e-04
1.66500000e-01	2.05204323e-02	3.54321712e-04
1.67000000e-01	2.06400382e-02	3.57721971e-04
1.67500000e-01	2.04794156e-02	3.52757223e-04
1.68000000e-01	2.04521402e-02	3.53335443e-04
1.68500000e-01	2.05409943e-02	3.52198877e-04
1.69000000e-01	2.04504789e-02	3.52739391e-04
1.69500000e-01	1.99409001e-02	3.42372977e-04
1.70000000e-01	2.03586384e-02	3.50394808e-04
1.70500000e-01	2.00788465e-02	3.43475544e-04
1.71000000e-01	2.03822358e-02	3.48972822e-04
1.71500000e-01	2.02885857e-02	3.47693082e-04
1.72000000e-01	2.01747154e-02	3.44564099e-04
1.72500000e-01	2.00620377e-02	3.40891109e-04
1.73000000e-01	2.02017270e-02	3.43801807e-04
1.73500000e-01	2.00039407e-02	3.38970966e-04
1.74000000e-01	2.01220675e-02	3.40635862e-04
1.74500000e-01	2.01890734e-02	3.39494797e-04
1.75000000e-01	2.00663938e-02	3.37299857e-04
1.75500000e-01	2.04293416e-02	3.40974713e-04
1.76000000e-01	1.99254219e-02	3.34199870e-04
1.76500000e-01	1.99706248e-02	3.35078950e-04
1.77000000e-01	2.00078049e-02	3.34576792e-04
1.77500000e-01	1.99306258e-02	3.33151377e-04
1.78000000e-01	1.99934936e-02	3.33939918e-04
1.78500000e-01	2.00248789e-02	3.33960410e-04
1.79000000e-01	1.99247258e-02	3.32549111e-04
1.79500000e-01	1.99370119e-02	3.32374417e-04
1.80000000e-01	1.98065342e-02	3.29818533e-04
1.80500000e-01	1.99640916e-02	3.32292995e-04
1.81000000e-01	1.98390407e-02	3.29922321e-04
1.81500000e-01	1.99932089e-02	3.31650216e-04
1.82000000e-01	1.97508520e-02	3.27015327e-04
1.82500000e-01	1.98678077e-02	3.28167275e-04
1.83000000e-01	2.00439930e-02	3.31142769e-04
1.83500000e-01	1.96600992e-02	3.25538992e-04
1.84000000e-01	1.99427192e-02	3.28368637e-04
1.84500000e-01	1.99167845e-02	3.28137942e-04
1.85000000e-01	1.99604435e-02	3.29646758e-04
1.85500000e-01	1.98196608e-02	3.24589936e-04
1.86000000e-01	1.98630716e-02	3.26188271e-04
1.86500000e-01	1.98806975e-02	3.25512813e-04
1.87000000e-01	1.97216034e-02	3.22615510e-04
1.87500000e-01	1.95270789e-02	3.20979842e-04
1.88000000e-01	1.97050160e-02	3.21267574e-04
1.88500000e-01	1.98137068e-02	3.22701951e-04
1.89000000e-01	1.97075901e-02	3.21936763e-04
1.89500000e-01	1.94994135e-02	3.17623935e-04
1.90000000e-01	1.97880630e-02	3.21737510e-04
1.90500000e-01	1.97788108e-02	3.21213722e-04
1.91000000e-01	1.94683575e-02	3.15988841e-04
1.91500000e-01	1.96842893e-02	3.19692341e-04
1.92000000e-01	1.94031089e-02	3.14085281e-04
1.92500000e-01	1.98140515e-02	3.19254738e-04
1.93000000e-01	1.96801079e-02	3.17395598e-04
1.93500000e-01	1.97336722e-02	3.17700356e-04
1.94000000e-01	1.95805790e-02	3.13370330e-04
1.94500000e-01	1.97455053e-02	3.17327932e-04
1.95000000e-01	1.93729592e-02	3.12405417e-04
1.95500000e-01	1.96721265e-02	3.14451556e-04
1.96000000e-01	1.94921123e-02	3.11622555e-04
1.96500000e-01	1.92522781e-02	3.09171525e-04
1.97000000e-01	1.96385417e-02	3.14182823e-04
1.97500000e-01	1.96103939e-02	3.12379653e-04
1.98000000e-01	1.96081146e-02	3.11208684e-04
1.98500000e-01	1.95216813e-02	3.10516555e-04
1.99000000e-01	1.95183092e-02	3.10117744e-04
1.99500000e-01	1.94553664e-02	3.09207579e-04
2.00000000e-01	1.92300314e-02	3.04864214e-04
2.00500000e-01	1.93308027e-02	3.06387579e-04
2.01000000e-01	1.94372176e-02	3.07933887e-04
2.01500000e-01	1.94271741e-02	3.06870471e-04
2.02000000e-01	1.94657064e-02	3.07599897e-04
2.02500000e-01	1.94654250e-02	3.07229486e-04
2.03000000e-01	1.92479304e-02	3.03249248e-04
2.03500000e-01	1.93494920e-02	3.04779786e-04
2.04000000e-01	1.94144272e-02	3.04511491e-04
2.04500000e-01	1.95609800e-02	3.07854383e-04
2.05000000e-01	1.91950789e-02	2.98902651e-04
2.05500000e-01	1.90653526e-02	2.99158005e-04
2.06000000e-01	1.92666819e-02	3.00474398e-04
2.06500000e-01	1.94674849e-02	3.05093225e-04
2.07000000e-01	1.92354321e-02	3.00111246e-04
2.07500000e-01	1.90817047e-02	2.97142628e-04
2.08000000e-01	1.89572718e-02	2.96504286e-04
2.08500000e-01	1.94408874e-02	3.01501579e-04
2.09000000e-01	1.93171647e-02	2.99987911e-04
2.09500000e-01	1.94396818e-02	3.01013583e-04
2.10000000e-01	1.93510002e-02	3.00278753e-04
2.10500000e-01	1.92978512e-02	3.00462780e-04
2.11000000e-01	1.93112383e-02	2.97694016e-04
2.11500000e-01	1.93092108e-02	2.98313933e-04
2.12000000e-01	1.92860038e-02	2.96905384e-04
2.12500000e-01	1.91341160e-02	2.94422181e-04
2.13000000e-01	1.90203122e-02	2.93330967e-04
2.13500000e-01	1.90983596e-02	2.94115112e-04
2.14000000e-01	1.92006565e-02	2.95143603e-04
2.14500000e-01	1.91162373e-02	2.92611356e-04
2.15000000e-01	1.89415852e-02	2.91591756e-04
2.15500000e-01	1.89172613e-02	2.89119113e-04
2.16000000e-01	1.93743030e-02	2.94444988e-04
2.16500000e-01	1.90291711e-02	2.90791313e-04
2.17000000e-01	1.90374524e-02	2.94679273e-04
2.17500000e-01	1.89876563e-02	2.99494569e-04
2.18000000e-01	1.90251265e-02	3.00120979e-04
2.18500000e-01	1.88452028e-02	3.00219140e-04
2.19000000e-01	1.88118930e-02	3.00690819e-04
2.19500000e-01	1.92506717e-02	3.07414497e-04
2.20000000e-01	1.90848542e-02	3.06617898e-04
2.20500000e-01	1.90485244e-02	3.06687051e-04
2.21000000e-01	1.90911723e-02	3.08318443e-04
2.21500000e-01	1.88419340e-02	3.05277466e-04
2.22000000e-01	1.90374163e-02	3.08610968e-04
2.22500000e-01	1.92736515e-02	3.11866218e-04
2.23000000e-01	1.89899403e-02	3.09261460e-04
2.23500000e-01	1.89306605e-02	3.09029693e-04
2.24000000e-01	1.89856653e-02	3.11088810e-04
2.24500000e-01	1.88486471e-02	3.09786548e-04
2.25000000e-01	1.90550348e-02	3.13720298e-04
2.25500000e-01	1.89592647e-02	3.11604033e-04
2.26000000e-01	1.87600132e-02	3.11155396e-04
2.26500000e-01	1.90580380e-02	3.08554713e-04
2.27000000e-01	1.89897790e-02	3.05441863e-04
2.27500000e-01	1.89980816e-02	3.02537973e-04
2.28000000e-01	1.89016010e-02	3.00368937e-04
2.28500000e-01	1.88420668e-02	2.98174777e-04
2.29000000e-01	1.88623252e-02	2.96304395e-04
2.29500000e-01	1.87785251e-02	2.95899143e-04
2.30000000e-01	1.86147471e-02	2.91666366e-04
2.30500000e-01	1.87611829e-02	2.91942265e-04
2.31000000e-01	1.87068787e-02	2.90506040e-04
2.31500000e-01	1.89311743e-02	2.93394478e-04
2.32000000e-01	1.88156612e-02	2.91441058e-04
2.32500000e-01	1.88125607e-02	2.91282699e-04
2.33000000e-01	1.87261167e-02	2.89868041e-04
2.33500000e-01	1.88079920e-02	2.88862135e-04
2.34000000e-01	1.88397347e-02	2.88477472e-04
2.34500000e-01	1.85732255e-02	2.83664797e-04
2.35000000e-01	1.86685125e-02	2.86414889e-04
2.35500000e-01	1.87642520e-02	2.86218045e-04
2.36000000e-01	1.85488880e-02	2.83552631e-04
2.36500000e-01	1.86944204e-02	2.84340600e-04
2.37000000e-01	1.85290366e-02	2.81542342e-04
2.37500000e-01	1.89271362e-02	2.87770933e-04
2.38000000e-01	1.86104487e-02	2.82128058e-04
2.38500000e-01	1.86761177e-02	2.82206696e-04
2.39000000e-01	1.86951517e-02	2.81335396e-04
2.39500000e-01	1.86841149e-02	2.80728909e-04
2.40000000e-01	1.87922245e-02	2.82948424e-04
2.40500000e-01	1.86987196e-02	2.79890281e-04
2.41000000e-01	1.86948843e-02	2.79712162e-04
2.41500000e-01	1.85154069e-02	2.77222294e-04
2.42000000e-01	1.87116508e-02	2.79590713e-04
2.42500000e-01	1.85211978e-02	2.76381733e-04
2.43000000e-01	1.83636204e-02	2.75018469e-04
2.43500000e-01	1.85150630e-02	2.75322561e-04
2.44000000e-01	1.84968654e-02	2.74329785e-04
2.44500000e-01	1.88127883e-02	2.78145163e-04
2.45000000e-01	1.86360534e-02	2.74556058e-04
2.45500000e-01	1.86135872e-02	2.74742073e-04
2.46000000e-01	1.86873984e-02	2.75824240e-04
2.46500000e-01	1.83188314e-02	2.70292388e-04
2.47000000e-01	1.85294352e-02	2.72514353e-04
2.47500000e-01	1.84512475e-02	2.71668717e-04
2.48000000e-01	1.85713288e-02	2.71773468e-04
2.48500000e-01	1.84055732e-02	2.69726899e-04
2.49000000e-01	1.85576868e-02	2.72303228e-04
2.49500000e-01	1.82596130e-02	2.68351469e-04
2.50000000e-01	1.85205341e-02	2.71091886e-04
2.50500000e-01	1.84179324e-02	2.69759506e-04
2.51000000e-01	1.83765831e-02	2.68995002e-04
2.51500000e-01	1.84154730e-02	2.68433582e-04
2.52000000e-01	1.84391755e-02	2.68963018e-04
2.52500000e-01	1.83291137e-02	2.66265868e-04
2.53000000e-01	1.85764323e-02	2.69305950e-04
2.53500000e-01	1.83402733e-02	2.67100241e-04
2.54000000e-01	1.86548480e-02	2.70357016e-04
2.54500000e-01	1.84420267e-02	2.67489925e-04
2.55000000e-01	1.83726558e-02	2.65608385e-04
2.55500000e-01	1.84699804e-02	2.66646819e-04
2.56000000e-01	1.80321099e-02	2.60306422e-04
2.56500000e-01	1.84911524e-02	2.66328407e-04
2.57000000e-01	1.84897181e-02	2.66334095e-04
2.57500000e-01	1.80865782e-02	2.61252706e-04
2.58000000e-01	1.84462159e-02	2.65997438e-04
2.58500000e-01	1.84626941e-02	2.65614566e-04
2.59000000e-01	1.83464368e-02	2.62983555e-04
2.59500000e-01	1.82959998e-02	2.62110746e-04
2.60000000e-01	1.84046207e-02	2.63063718e-04
2.60500000e-01	1.84752714e-02	2.63951085e-04
2.61000000e-01	1.83396000e-02	2.61652997e-04
2.61500000e-01	1.82336248e-02	2.60425134e-04
2.62000000e-01	1.82593491e-02	2.60409236e-04
2.62500000e-01	1.82656531e-02	2.61085172e-04
2.63000000e-01	1.82536535e-02	2.60042709e-04
2.63500000e-01	1.80941683e-02	2.56649516e-04
2.64000000e-01	1.83952129e-02	2.61418655e-04
2.64500000e-01	1.81956605e-02	2.57587770e-04
2.65000000e-01	1.82851419e-02	2.58574181e-04
2.65500000e-01	1.83377791e-02	2.59077567e-04
2.66000000e-01	1.82805983e-02	2.58297461e-04
2.66500000e-01	1.82977317e-02	2.57992529e-04
2.67000000e-01	1.82075678e-02	2.57056492e-04
2.67500000e-01	1.82890922e-02	2.57775113e-04
2.68000000e-01	1.83859005e-02	2.58329662e-04
2.68500000e-01	1.83257596e-02	2.56603443e-04
2.69000000e-01	1.82205256e-02	2.54897269e-04
2.69500000e-01	1.81755868e-02	2.53931169e-04
2.70000000e-01	1.80546179e-02	2.52874282e-04
2.70500000e-01	1.81719947e-02	2.54328541e-04
2.71000000e-01	1.79870345e-02	2.51684179e-04
2.71500000e-01	1.82976395e-02	2.55245491e-04
2.72000000e-01	1.80825905e-02	2.51557090e-04
2.72500000e-01	1.80708941e-02	2.52301424e-04
2.73000000e-01	1.78884553e-02	2.49930204e-04
2.73500000e-01	1.81267650e-02	2.52182248e-04
2.74000000e-01	1.80423034e-02	2.50460649e-04
2.74500000e-01	1.82186347e-02	2.52794725e-04
2.75000000e-01	1.82083715e-02	2.52667098e-04
2.75500000e-01	1.81200825e-02	2.51447137e-04
2.76000000e-01	1.80364793e-02	2.50037316e-04
2.76500000e-01	1.77307082e-02	2.45266537e-04
2.77000000e-01	1.79407614e-02	2.47570846e-04
2.77500000e-01	1.78282632e-02	2.46857171e-04
2.78000000e-01	1.81486799e-02	2.49454779e-04
2.78500000e-01	1.79408106e-02	2.48229368e-04
2.79000000e-01	1.79557945e-02	2.47809716e-04
2.79500000e-01	1.79442695e-02	2.46558173e-04
2.80000000e-01	1.80133495e-02	2.48380807e-04
2.80500000e-01	1.80774614e-02	2.48567471e-04
2.81000000e-01	1.78153387e-02	2.44825510e-04
2.81500000e-01	1.79149982e-02	2.45619993e-04
2.82000000e-01	1.79231201e-02	2.46367711e-04
2.82500000e-01	1.80944679e-02	2.48304109e-04
2.83000000e-01	1.81270299e-02	2.48072499e-04
2.83500000e-01	1.78284263e-02	2.44042879e-04
2.84000000e-01	1.77041866e-02	2.42190974e-04
2.84500000e-01	1.78867093e-02	2.43807176e-04
2.85000000e-01	1.79994193e-02	2.45383799e-04
2.85500000e-01	1.77562361e-02	2.42099208e-04
2.86000000e-01	1.78319386e-02	2.43088285e-04
2.86500000e-01	1.78922850e-02	2.43077058e-04
2.87000000e-01	1.79106078e-02	2.44136175e-04
2.87500000e-01	1.77332229e-02	2.39963810e-04
2.88000000e-01	1.77393962e-02	2.40356957e-04
2.88500000e-01	1.77190425e-02	2.40958975e-04
2.89000000e-01	1.78535805e-02	2.42569427e-04
2.89500000e-01	1.77556882e-02	2.40960402e-04
2.90000000e-01	1.77037930e-02	2.38808805e-04
2.90500000e-01	1.78718624e-02	2.40690431e-04
2.91000000e-01	1.77287437e-02	2.40164429e-04
2.91500000e-01	1.77478639e-02	2.38286297e-04
2.92000000e-01	1.77555312e-02	2.37836025e-04
2.92500000e-01	1.78027406e-02	2.39317654e-04
2.93000000e-01	1.77360019e-02	2.37949703e-04
2.93500000e-01	1.76532586e-02	2.36506659e-04
2.94000000e-01	1.77003435e-02	2.37135489e-04
2.94500000e-01	1.76551602e-02	2.37218301e-04
2.95000000e-01	1.77054507e-02	2.37296545e-04
2.95500000e-01	1.75999393e-02	2.35347147e-04
2.96000000e-01	1.75641212e-02	2.36120061e-04
2.96500000e-01	1.75952239e-02	2.35156775e-04
2.97000000e-01	1.76004838e-02	2.36007296e-04
2.97500000e-01	1.75175418e-02	2.34175193e-04
2.98000000e-01	1.75635715e-02	2.34240627e-04
2.98500000e-01	1.78241987e-02	2.37628340e-04
2.99000000e-01	1.76161827e-02	2.34473645e-04
2.99500000e-01	1.77319707e-02	2.36217234e-04
3.00000000e-01	1.77786979e-02	2.36509254e-04
3.00500000e-01	1.76134668e-02	2.33852865e-04
3.01000000e-01	1.76322620e-02	2.33713690e-04
3.01500000e-01	1.75117803e-02	2.32319161e-04
3.02000000e-01	1.74050477e-02	2.30101729e-04
3.02500000e-01	1.75358014e-02	2.31420491e-04
3.03000000e-01	1.76981083e-02	2.33555579e-04
3.03500000e-01	1.75646137e-02	2.31098924e-04
3.04000000e-01	1.77105780e-02	2.34554869e-04
3.04500000e-01	1.75611403e-02	2.31098922e-04
3.05000000e-01	1.78724052e-02	2.34412770e-04
3.05500000e-01	1.75473371e-02	2.32069524e-04
3.06000000e-01	1.74690335e-02	2.28719333e-04
3.06500000e-01	1.75148089e-02	2.29963121e-04
3.07000000e-01	1.74912427e-02	2.29649021e-04
3.07500000e-01	1.73839423e-02	2.28099770e-04
3.08000000e-01	1.74852469e-02	2.29825514e-04
3.08500000e-01	1.74141242e-02	2.28161774e-04
3.09000000e-01	1.73867115e-02	2.27260408e-04
3.09500000e-01	1.74147883e-02	2.28599233e-04
3.10000000e-01	1.74698963e-02	2.28911939e-04
3.10500000e-01	1.73707020e-02	2.26832152e-04
3.11000000e-01	1.71608601e-02	2.25361709e-04
3.11500000e-01	1.73137695e-02	2.25462953e-04
3.12000000e-01	1.72856071e-02	2.24904942e-04
3.12500000e-01	1.73109776e-02	2.25822956e-04
3.13000000e-01	1.72873587e-02	2.25239207e-04
3.13500000e-01	1.71522513e-02	2.23033495e-04
3.14000000e-01	1.71536854e-02	2.22468012e-04
3.14500000e-01	1.74166164e-02	2.26033083e-04
3.15000000e-01	1.72124869e-02	2.23698370e-04
3.15500000e-01	1.72077507e-02	2.23465020e-04
3.16000000e-01	1.71763709e-02	2.23020987e-04
3.16500000e-01	1.73210104e-02	2.24012399e-04
3.17000000e-01	1.72647489e-02	2.23953610e-04
3.17500000e-01	1.72706675e-02	2.24027771e-04
3.18000000e-01	1.72406648e-02	2.22885727e-04
3.18500000e-01	1.73281010e-02	2.23447671e-04
3.19000000e-01	1.73591889e-02	2.24479531e-04
3.19500000e-01	1.73962205e-02	2.23398167e-04
3.20000000e-01	1.73564890e-02	2.23662759e-04
3.20500000e-01	1.73411614e-02	2.23082748e-04
3.21000000e-01	1.70987184e-02	2.20553567e-04
3.21500000e-01	1.73147295e-02	2.21703114e-04
3.22000000e-01	1.71136004e-02	2.20447230e-04
3.22500000e-01	1.71166167e-02	2.20458639e-04
3.23000000e-01	1.70457113e-02	2.18342182e-04
3.23500000e-01	1.72146744e-02	2.20727010e-04
3.24000000e-01	1.71096707e-02	2.18868189e-04
3.24500000e-01	1.71457664e-02	2.20355920e-04
3.25000000e-01	1.72503181e-02	2.19492299e-04
3.25500000e-01	1.69235674e-02	2.17002251e-04
3.26000000e-01	1.68169324e-02	2.15134327e-04
3.26500000e-01	1.69012491e-02	2.15031682e-04
3.27000000e-01	1.72854394e-02	2.19493439e-04
3.27500000e-01	1.68204183e-02	2.14234148e-04
3.28000000e-01	1.70637914e-02	2.17681363e-04
3.28500000e-01	1.69872201e-02	2.15842165e-04
3.29000000e-01	1.69907633e-02	2.15746840e-04
3.29500000e-01	1.69556035e-02	2.15768460e-04
3.30000000e-01	1.70961448e-02	2.17263010e-04
3.30500000e-01	1.70473645e-02	2.16263432e-04
3.31000000e-01	1.69433109e-02	2.14500249e-04
3.31500000e-01	1.69529547e-02	2.14282301e-04
3.32000000e-01	1.69556586e-02	2.14701959e-04
3.32500000e-01	1.68203229e-02	2.12687552e-04
3.33000000e-01	1.68751476e-02	2.13025599e-04
3.33500000e-01	1.69802332e-02	2.15118648e-04
3.34000000e-01	1.68550825e-02	2.13067050e-04
3.34500000e-01	1.68945934e-02	2.12654121e-04
3.35000000e-01	1.68624846e-02	2.11348766e-04
3.35500000e-01	1.70547290e-02	2.14951073e-04
3.36000000e-01	1.68275581e-02	2.11669970e-04
3.36500000e-01	1.67130424e-02	2.10558768e-04
3.37000000e-01	1.67119627e-02	2.10267207e-04
3.37500000e-01	1.70509906e-02	2.14207957e-04
3.38000000e-01	1.70709849e-02	2.14217239e-04
3.38500000e-01	1.69116584e-02	2.11598826e-04
3.39000000e-01	1.67897353e-02	2.10392475e-04
3.39500000e-01	1.68989643e-02	2.11114964e-04
3.40000000e-01	1.67603804e-02	2.10035841e-04
3.40500000e-01	1.66008748e-02	2.07832583e-04
3.41000000e-01	1.66041929e-02	2.08349092e-04
3.41500000e-01	1.67154187e-02	2.09194901e-04
3.42000000e-01	1.68755862e-02	2.10367781e-04
3.42500000e-01	1.68479062e-02	2.10330219e-04
3.43000000e-01	1.69418237e-02	2.11049823e-04
3.43500000e-01	1.66744371e-02	2.07880273e-04
3.44000000e-01	1.67264999e-02	2.09095997e-04
3.44500000e-01	1.67866597e-02	2.08490945e-04
3.45000000e-01	1.66138647e-02	2.07257973e-04
3.45500000e-01	1.70154999e-02	2.11454548e-04
3.46000000e-01	1.68613483e-02	2.09243826e-04
3.46500000e-01	1.68348814e-02	2.08611539e-04
3.47000000e-01	1.64567532e-02	2.03928659e-04
3.47500000e-01	1.66667655e-02	2.06781253e-04
3.48000000e-01	1.65408101e-02	2.04687335e-04
3.48500000e-01	1.66409116e-02	2.06463281e-04
3.49000000e-01	1.65068407e-02	2.04321137e-04
3.49500000e-01	1.66111398e-02	2.05662763e-04
3.50000000e-01	1.65529197e-02	1.66981932e-04
3.51000000e-01	1.67016916e-02	1.45605187e-04
3.52000000e-01	1.65878825e-02	1.44319162e-04
3.53000000e-01	1.66330410e-02	1.44422802e-04
3.54000000e-01	1.65820787e-02	1.43653819e-04
3.55000000e-01	1.66488154e-02	1.44309521e-04
3.56000000e-01	1.65420672e-02	1.43703129e-04
3.57000000e-01	1.66018249e-02	1.46865747e-04
3.58000000e-01	1.64394724e-02	1.47238845e-04
3.59000000e-01	1.64082124e-02	1.47888060e-04
3.60000000e-01	1.64380760e-02	1.49055356e-04
3.61000000e-01	1.64156148e-02	1.49147199e-04
3.62000000e-01	1.63402027e-02	1.49328826e-04
3.63000000e-01	1.64675603e-02	1.51067206e-04
3.64000000e-01	1.64724558e-02	1.51452290e-04
3.65000000e-01	1.63269259e-02	1.51263351e-04
3.66000000e-01	1.63429849e-02	1.49260961e-04
3.67000000e-01	1.62972524e-02	1.47171445e-04
3.68000000e-01	1.63350764e-02	1.45978242e-04
3.69000000e-01	1.62856144e-02	1.44996762e-04
3.70000000e-01	1.62781079e-02	1.44045744e-04
3.71000000e-01	1.62021728e-02	1.45527848e-04
3.72000000e-01	1.62874861e-02	1.47221806e-04
3.73000000e-01	1.61940816e-02	1.46688045e-04
3.74000000e-01	1.61527357e-02	1.46619429e-04
3.75000000e-01	1.62375241e-02	1.47511949e-04
3.76000000e-01	1.63870168e-02	1.48194520e-04
3.77000000e-01	1.62587477e-02	1.47459498e-04
3.78000000e-01	1.62406117e-02	1.47032810e-04
3.79000000e-01	1.63176208e-02	1.47363525e-04
3.80000000e-01	1.62106552e-02	1.46512308e-04
3.81000000e-01	1.60041791e-02	1.44636996e-04
3.82000000e-01	1.60852808e-02	1.45348265e-04
3.83000000e-01	1.62380499e-02	1.46295342e-04
3.84000000e-01	1.61837286e-02	1.46623026e-04
3.85000000e-01	1.60228339e-02	1.44968865e-04
3.86000000e-01	1.60159356e-02	1.44578345e-04
3.87000000e-01	1.60863855e-02	1.45215701e-04
3.88000000e-01	1.60430682e-02	1.45088336e-04
3.89000000e-01	1.61019849e-02	1.44783885e-04
3.90000000e-01	1.60806995e-02	1.44645289e-04
3.91000000e-01	1.60487638e-02	1.44537183e-04
3.92000000e-01	1.59416275e-02	1.43724774e-04
3.93000000e-01	1.61239751e-02	1.44878966e-04
3.94000000e-01	1.59705885e-02	1.43938709e-04
3.95000000e-01	1.58602272e-02	1.42960890e-04
3.96000000e-01	1.59721274e-02	1.43905117e-04
3.97000000e-01	1.60159714e-02	1.43879928e-04
3.98000000e-01	1.58068507e-02	1.42784446e-04
3.99000000e-01	1.58399275e-02	1.42796659e-04
4.00000000e-01	1.59557997e-02	1.43622927e-04
4.01000000e-01	1.58857986e-02	1.42877514e-04
4.02000000e-01	1.57318546e-02	1.41972115e-04
4.03000000e-01	1.59339622e-02	1.43541421e-04
4.04000000e-01	1.58550617e-02	1.42843617e-04
4.05000000e-01	1.58744095e-02	1.43035731e-04
4.06000000e-01	1.58059117e-02	1.42257180e-04
4.07000000e-01	1.58868317e-02	1.42864430e-04
4.08000000e-01	1.57236078e-02	1.41628714e-04
4.09000000e-01	1.57812801e-02	1.41634420e-04
4.10000000e-01	1.57550991e-02	1.41665319e-04
4.11000000e-01	1.58195223e-02	1.42143092e-04
4.12000000e-01	1.57031858e-02	1.41046207e-04
4.13000000e-01	1.57437142e-02	1.41211895e-04
4.14000000e-01	1.57551840e-02	1.41535254e-04
4.15000000e-01	1.57559471e-02	1.41558559e-04
4.16000000e-01	1.56798788e-02	1.40687098e-04
4.17000000e-01	1.57328122e-02	1.41220762e-04
4.18000000e-01	1.57046271e-02	1.42387737e-04
4.19000000e-01	1.56483965e-02	1.43858187e-04
4.20000000e-01	1.56490976e-02	1.44421554e-04
4.21000000e-01	1.57363838e-02	1.45473879e-04
4.22000000e-01	1.57574935e-02	1.46105189e-04
4.23000000e-01	1.56807607e-02	1.46072230e-04
4.24000000e-01	1.56485554e-02	1.46150408e-04
4.25000000e-01	1.57094747e-02	1.47131076e-04
4.26000000e-01	1.56809894e-02	1.47102974e-04
4.27000000e-01	1.56869312e-02	1.46486047e-04
4.28000000e-01	1.56274007e-02	1.47086854e-04
4.29000000e-01	1.57764017e-02	1.48357991e-04
4.30000000e-01	1.57000397e-02	1.47700320e-04
4.31000000e-01	1.58187072e-02	1.48508622e-04
4.32000000e-01	1.56660024e-02	1.47496305e-04
4.33000000e-01	1.55808185e-02	1.46972432e-04
4.34000000e-01	1.56557407e-02	1.47395933e-04
4.35000000e-01	1.56914671e-02	1.47963562e-04
4.36000000e-01	1.57320053e-02	1.48325282e-04
4.37000000e-01	1.55902913e-02	1.47340771e-04
4.38000000e-01	1.55592817e-02	1.47551973e-04
4.39000000e-01	1.54788801e-02	1.46957176e-04
4.40000000e-01	1.56038631e-02	1.47452143e-04
4.41000000e-01	1.56407494e-02	1.48329321e-04
4.42000000e-01	1.56413870e-02	1.48438851e-04
4.43000000e-01	1.55386147e-02	1.48229237e-04
4.44000000e-01	1.55938079e-02	1.48971301e-04
4.45000000e-01	1.54830587e-02	1.47636144e-04
4.46000000e-01	1.55265174e-02	1.48114641e-04
4.47000000e-01	1.53710707e-02	1.47198057e-04
4.48000000e-01	1.53507213e-02	1.47077835e-04
4.49000000e-01	1.52898715e-02	1.47078943e-04
4.50000000e-01	1.54690007e-02	1.48415662e-04
4.51000000e-01	1.54472003e-02	1.48375453e-04
4.52000000e-01	1.55256715e-02	1.49165704e-04
4.53000000e-01	1.55837679e-02	1.49726787e-04
4.54000000e-01	1.53697326e-02	1.47855999e-04
4.55000000e-01	1.54961545e-02	1.49528375e-04
4.56000000e-01	1.54065880e-02	1.48636540e-04
4.57000000e-01	1.53601993e-02	1.48283460e-04
4.58000000e-01	1.53563326e-02	1.48710061e-04
4.59000000e-01	1.53550747e-02	1.48825454e-04
4.60000000e-01	1.54063702e-02	1.48429050e-04
4.61000000e-01	1.54219257e-02	1.49826256e-04
4.62000000e-01	1.55315458e-02	1.50321050e-04
4.63000000e-01	1.52669961e-02	1.48197408e-04
4.64000000e-01	1.53356747e-02	1.48941072e-04
4.65000000e-01	1.53290985e-02	1.49283971e-04
4.66000000e-01	1.53781600e-02	1.49174252e-04
4.67000000e-01	1.52385735e-02	1.48374933e-04
4.68000000e-01	1.52991256e-02	1.48997621e-04
4.69000000e-01	1.52741236e-02	1.48736576e-04
4.70000000e-01	1.52366110e-02	1.48740926e-04
4.71000000e-01	1.51525662e-02	1.47952760e-04
4.72000000e-01	1.53327644e-02	1.49679924e-04
4.73000000e-01	1.54088206e-02	1.50072875e-04
4.74000000e-01	1.52742638e-02	1.48748446e-04
4.75000000e-01	1.51930326e-02	1.47908920e-04
4.76000000e-01	1.51514754e-02	1.47525451e-04
4.77000000e-01	1.51837324e-02	1.48218937e-04
4.78000000e-01	1.52127600e-02	1.48451046e-04
4.79000000e-01	1.53113729e-02	1.48845276e-04
4.80000000e-01	1.52498568e-02	1.48613364e-04
4.81000000e-01	1.52531038e-02	1.48761426e-04
4.82000000e-01	1.51106897e-02	1.47709834e-04
4.83000000e-01	1.52207260e-02	1.48597051e-04
4.84000000e-01	1.52598023e-02	1.48932740e-04
4.85000000e-01	1.52336350e-02	1.49319236e-04
4.86000000e-01	1.51134258e-02	1.47977150e-04
4.87000000e-01	1.50446424e-02	1.47722513e-04
4.88000000e-01	1.51198844e-02	1.48094825e-04
4.89000000e-01	1.51022254e-02	1.48297745e-04
4.90000000e-01	1.50834195e-02	1.47813847e-04
4.91000000e-01	1.50726135e-02	1.47734317e-04
4.92000000e-01	1.51974412e-02	1.49211662e-04
4.93000000e-01	1.51863292e-02	1.49068474e-04
4.94000000e-01	1.50736198e-02	1.48498659e-04
4.95000000e-01	1.50164114e-02	1.49141049e-04
4.96000000e-01	1.50757512e-02	1.53943292e-04
4.97000000e-01	1.49905764e-02	1.55655477e-04
4.98000000e-01	1.51483561e-02	1.59066144e-04
4.99000000e-01	1.49381136e-02	1.59342794e-04
5.00000000e-01	1.49284699e-02	1.60852058e-04
5.01000000e-01	1.50989690e-02	1.64019140e-04
5.02000000e-01	1.50925317e-02	1.65570868e-04
5.03000000e-01	1.51750155e-02	1.68536637e-04
5.04000000e-01	1.50578119e-02	1.68551668e-04
5.05000000e-01	1.50454928e-02	1.65919004e-04
5.06000000e-01	1.52584692e-02	1.63623766e-04
5.07000000e-01	1.50798615e-02	1.60312165e-04
5.08000000e-01	1.50408772e-02	1.58830756e-04
5.09000000e-01	1.50424360e-02	1.58012057e-04
5.10000000e-01	1.50257932e-02	1.57875019e-04
5.11000000e-01	1.49775534e-02	1.56734289e-04
5.12000000e-01	1.49510918e-02	1.56708286e-04
5.13000000e-01	1.48946737e-02	1.56075726e-04
5.14000000e-01	1.50989816e-02	1.57274065e-04
5.15000000e-01	1.49739544e-02	1.55224565e-04
5.16000000e-01	1.50737660e-02	1.56028250e-04
5.17000000e-01	1.48651426e-02	1.54259961e-04
5.18000000e-01	1.48073892e-02	1.53318397e-04
5.19000000e-01	1.48502416e-02	1.53290387e-04
5.20000000e-01	1.48825937e-02	1.53026253e-04
5.21000000e-01	1.48330449e-02	1.52057439e-04
5.22000000e-01	1.48278663e-02	1.52190876e-04
5.23000000e-01	1.47696184e-02	1.51790648e-04
5.24000000e-01	1.48795597e-02	1.53109451e-04
5.25000000e-01	1.48063312e-02	1.51700706e-04
5.26000000e-01	1.49734776e-02	1.53147584e-04
5.27000000e-01	1.47148139e-02	1.51022039e-04
5.28000000e-01	1.47534039e-02	1.51368882e-04
5.29000000e-01	1.47139574e-02	1.51137558e-04
5.30000000e-01	1.48693731e-02	1.52878074e-04
5.31000000e-01	1.48170300e-02	1.52380091e-04
5.32000000e-01	1.48021852e-02	1.51878540e-04
5.33000000e-01	1.47624204e-02	1.50931313e-04
5.34000000e-01	1.47160716e-02	1.51122229e-04
5.35000000e-01	1.47432594e-02	1.51042949e-04
5.36000000e-01	1.47759358e-02	1.51055266e-04
5.37000000e-01	1.48414547e-02	1.51909286e-04
5.38000000e-01	1.48101587e-02	1.51487176e-04
5.39000000e-01	1.47250755e-02	1.51028020e-04
5.40000000e-01	1.46538776e-02	1.50144137e-04
5.41000000e-01	1.47002853e-02	1.50586508e-04
5.42000000e-01	1.47195743e-02	1.50722954e-04
5.43000000e-01	1.47089865e-02	1.50503831e-04
5.44000000e-01	1.46258782e-02	1.49829479e-04
5.45000000e-01	1.48154414e-02	1.51802717e-04
5.46000000e-01	1.45580582e-02	1.49486710e-04
5.47000000e-01	1.47016081e-02	1.51057012e-04
5.48000000e-01	1.46017939e-02	1.49523760e-04
5.49000000e-01	1.47096396e-02	1.50413785e-04
5.50000000e-01	1.44901570e-02	1.48733731e-04
5.51000000e-01	1.46607622e-02	1.49969711e-04
5.52000000e-01	1.47525985e-02	1.50927587e-04
5.53000000e-01	1.45416221e-02	1.48774655e-04
5.54000000e-01	1.45269346e-02	1.48152528e-04
5.55000000e-01	1.44525648e-02	1.47317603e-04
5.56000000e-01	1.47733826e-02	1.50107186e-04
5.57000000e-01	1.44925136e-02	1.47561529e-04
5.58000000e-01	1.44879886e-02	1.47917826e-04
5.59000000e-01	1.44834096e-02	1.47823833e-04
5.60000000e-01	1.45170092e-02	1.47811678e-04
5.61000000e-01	1.44797871e-02	1.47303536e-04
5.62000000e-01	1.45792208e-02	1.49293356e-04
5.63000000e-01	1.44237643e-02	1.47250950e-04
5.64000000e-01	1.44170024e-02	1.47171092e-04
5.65000000e-01	1.45207645e-02	1.48108672e-04
5.66000000e-01	1.45741985e-02	1.48283393e-04
5.67000000e-01	1.44096328e-02	1.47416268e-04
5.68000000e-01	1.44253532e-02	1.47300237e-04
5.69000000e-01	1.44281211e-02	1.46728346e-04
5.70000000e-01	1.43412134e-02	1.46276269e-04
5.71000000e-01	1.44562697e-02	1.47182992e-04
5.72000000e-01	1.44510675e-02	1.47263610e-04
5.73000000e-01	1.43758563e-02	1.47045805e-04
5.74000000e-01	1.43010243e-02	1.46132274e-04
5.75000000e-01	1.43506516e-02	1.46960955e-04
5.76000000e-01	1.42374600e-02	1.45584896e-04
5.77000000e-01	1.42928237e-02	1.46361541e-04
5.78000000e-01	1.42157044e-02	1.45440403e-04
5.79000000e-01	1.43517676e-02	1.46846894e-04
5.80000000e-01	1.43000642e-02	1.45640913e-04
5.81000000e-01	1.43642291e-02	1.46895727e-04
5.82000000e-01	1.43222390e-02	1.46817590e-04
5.83000000e-01	1.42228946e-02	1.45650980e-04
5.84000000e-01	1.42278602e-02	1.46107999e-04
5.85000000e-01	1.42819775e-02	1.46363083e-04
5.86000000e-01	1.42665349e-02	1.46053667e-04
5.87000000e-01	1.43272971e-02	1.46800493e-04
5.88000000e-01	1.41576375e-02	1.45516781e-04
5.89000000e-01	1.41807923e-02	1.45447723e-04
5.90000000e-01	1.43116180e-02	1.46580450e-04
5.91000000e-01	1.41854095e-02	1.45316559e-04
5.92000000e-01	1.40631673e-02	1.44471691e-04
5.93000000e-01	1.41698555e-02	1.45020822e-04
5.94000000e-01	1.42552676e-02	1.46352732e-04
5.95000000e-01	1.41580864e-02	1.45100771e-04
5.96000000e-01	1.41704785e-02	1.45214269e-04
5.97000000e-01	1.42004120e-02	1.45420238e-04
5.98000000e-01	1.39679049e-02	1.44283641e-04
5.99000000e-01	1.41803125e-02	1.45485145e-04
6.00000000e-01	1.41010696e-02	1.45045541e-04
6.01000000e-01	1.40857260e-02	1.45002935e-04
6.02000000e-01	1.41205203e-02	1.45001448e-04
6.03000000e-01	1.40457641e-02	1.44169109e-04
6.04000000e-01	1.40864491e-02	1.44706844e-04
6.05000000e-01	1.40408540e-02	1.44507164e-04
6.06000000e-01	1.40226872e-02	1.44031210e-04
6.07000000e-01	1.40700905e-02	1.44726922e-04
6.08000000e-01	1.40222427e-02	1.44210754e-04
6.09000000e-01	1.40653150e-02	1.44540536e-04
6.10000000e-01	1.39660702e-02	1.43280182e-04
6.11000000e-01	1.40654582e-02	1.44872804e-04
6.12000000e-01	1.39110598e-02	1.43477467e-04
6.13000000e-01	1.40867146e-02	1.44590977e-04
6.14000000e-01	1.41606332e-02	1.45507916e-04
6.15000000e-01	1.41454358e-02	1.45702889e-04
6.16000000e-01	1.39315135e-02	1.43535303e-04
6.17000000e-01	1.40517260e-02	1.44506670e-04
6.18000000e-01	1.38906935e-02	1.43342308e-04
6.19000000e-01	1.39577260e-02	1.43663144e-04
6.20000000e-01	1.40625366e-02	1.44252481e-04
6.21000000e-01	1.38916391e-02	1.43369367e-04
6.22000000e-01	1.38557546e-02	1.42671619e-04
6.23000000e-01	1.40425876e-02	1.43957296e-04
6.24000000e-01	1.38845366e-02	1.42012268e-04
6.25000000e-01	1.39034828e-02	1.41988508e-04
6.26000000e-01	1.39667788e-02	1.42703785e-04
6.27000000e-01	1.39947584e-02	1.43281688e-04
6.28000000e-01	1.39873969e-02	1.42837025e-04
6.29000000e-01	1.40125201e-02	1.43440195e-04
6.30000000e-01	1.39766125e-02	1.42661375e-04
6.31000000e-01	1.38190565e-02	1.41789279e-04
6.32000000e-01	1.39124903e-02	1.42153828e-04
6.33000000e-01	1.38929548e-02	1.41863531e-04
6.34000000e-01	1.40968414e-02	1.47437085e-04
6.35000000e-01	1.39637609e-02	1.50908221e-04
6.36000000e-01	1.39314742e-02	1.53582036e-04
6.37000000e-01	1.39419503e-02	1.55600016e-04
6.38000000e-01	1.39930767e-02	1.58425549e-04
6.39000000e-01	1.40206911e-02	1.60308679e-04
6.40000000e-01	1.38010652e-02	1.60017447e-04
6.41000000e-01	1.38963102e-02	1.62733739e-04
6.42000000e-01	1.38668642e-02	1.64037582e-04
6.43000000e-01	1.40168093e-02	1.65410364e-04
6.44000000e-01	1.41985214e-02	1.60976183e-04
6.45000000e-01	1.38778113e-02	1.56276812e-04
6.46000000e-01	1.40412052e-02	1.56430819e-04
6.47000000e-01	1.39419821e-02	1.54336625e-04
6.48000000e-01	1.38941821e-02	1.52680625e-04
6.49000000e-01	1.40584191e-02	1.53515987e-04
6.50000000e-01	1.40591375e-02	1.52249142e-04
6.51000000e-01	1.40777678e-02	1.52260787e-04
6.52000000e-01	1.40347854e-02	1.51709333e-04
6.53000000e-01	1.39738304e-02	1.49688307e-04
6.54000000e-01	1.38763441e-02	1.49440150e-04
6.55000000e-01	1.38013375e-02	1.47825279e-04
6.56000000e-01	1.37813006e-02	1.47458179e-04
6.57000000e-01	1.38337340e-02	1.48408730e-04
6.58000000e-01	1.40997307e-02	1.49839846e-04
6.59000000e-01	1.38815682e-02	1.47668624e-04
6.60000000e-01	1.39173426e-02	1.48124455e-04
6.61000000e-01	1.38831303e-02	1.47211662e-04
6.62000000e-01	1.38424981e-02	1.47571638e-04
6.63000000e-01	1.38677919e-02	1.48105350e-04
6.64000000e-01	1.39356848e-02	1.47549659e-04
6.65000000e-01	1.38460737e-02	1.47679293e-04
6.66000000e-01	1.37674545e-02	1.46252172e-04
6.67000000e-01	1.36276181e-02	1.44614241e-04
6.68000000e-01	1.38985331e-02	1.47214986e-04
6.69000000e-01	1.37777231e-02	1.46301108e-04
6.70000000e-01	1.37605388e-02	1.45410332e-04
6.71000000e-01	1.36680159e-02	1.45381602e-04
6.72000000e-01	1.38345613e-02	1.46286812e-04
6.73000000e-01	1.37783296e-02	1.45271149e-04
6.74000000e-01	1.39434060e-02	1.47341845e-04
6.75000000e-01	1.38077503e-02	1.46127586e-04
6.76000000e-01	1.36858414e-02	1.44948498e-04
6.77000000e-01	1.37722848e-02	1.45742191e-04
6.78000000e-01	1.37307267e-02	1.45253995e-04
6.79000000e-01	1.38735514e-02	1.46770290e-04
6.80000000e-01	1.37322394e-02	1.45048905e-04
6.81000000e-01	1.37391367e-02	1.45193471e-04
6.82000000e-01	1.36871427e-02	1.44556201e-04
6.83000000e-01	1.36615148e-02	1.44223033e-04
6.84000000e-01	1.36789608e-02	1.43921049e-04
6.85000000e-01	1.36883482e-02	1.44810883e-04
6.86000000e-01	1.37302746e-02	1.45223744e-04
6.87000000e-01	1.36974073e-02	1.44153298e-04
6.88000000e-01	1.36172047e-02	1.44270177e-04
6.89000000e-01	1.34927919e-02	1.42595729e-04
6.90000000e-01	1.37627031e-02	1.45493809e-04
6.91000000e-01	1.36349095e-02	1.44053474e-04
6.92000000e-01	1.37281571e-02	1.44772572e-04
6.93000000e-01	1.35703062e-02	1.43169762e-04
6.94000000e-01	1.35651393e-02	1.43414940e-04
6.95000000e-01	1.37387687e-02	1.44736837e-04
6.96000000e-01	1.35946867e-02	1.43416679e-04
6.97000000e-01	1.36298277e-02	1.43405896e-04
6.98000000e-01	1.37172032e-02	1.44979829e-04
6.99000000e-01	1.36924811e-02	1.44725308e-04
7.00000000e-01	1.34567941e-02	1.41769812e-04
7.01000000e-01	1.36166212e-02	1.42969172e-04
7.02000000e-01	1.34001057e-02	1.41603689e-04
7.03000000e-01	1.34969615e-02	1.42146525e-04
7.04000000e-01	1.34490380e-02	1.41789802e-04
7.05000000e-01	1.35021941e-02	1.42407182e-04
7.06000000e-01	1.35464116e-02	1.42396763e-04
7.07000000e-01	1.36040005e-02	1.43008034e-04
7.08000000e-01	1.34340204e-02	1.41015659e-04
7.09000000e-01	1.33503552e-02	1.40696128e-04
7.10000000e-01	1.33780708e-02	1.40804788e-04
7.11000000e-01	1.35598876e-02	1.42778957e-04
7.12000000e-01	1.33278722e-02	1.40038969e-04
7.13000000e-01	1.34703480e-02	1.42166924e-04
7.14000000e-01	1.35016907e-02	1.41941628e-04
7.15000000e-01	1.34311199e-02	1.41426348e-04
7.16000000e-01	1.31890123e-02	1.39047094e-04
7.17000000e-01	1.32802498e-02	1.39989872e-04
7.18000000e-01	1.33050577e-02	1.40262927e-04
7.19000000e-01	1.32870763e-02	1.40162657e-04
7.20000000e-01	1.32953701e-02	1.40552741e-04
7.21000000e-01	1.33646407e-02	1.40882602e-04
7.22000000e-01	1.33437117e-02	1.41012768e-04
7.23000000e-01	1.32492562e-02	1.40022325e-04
7.24000000e-01	1.33510424e-02	1.40232536e-04
7.25000000e-01	1.32821545e-02	1.40165798e-04
7.26000000e-01	1.32304335e-02	1.40053555e-04
7.27000000e-01	1.32639493e-02	1.39984817e-04
7.28000000e-01	1.32404310e-02	1.40127162e-04
7.29000000e-01	1.31808358e-02	1.39731821e-04
7.30000000e-01	1.31935313e-02	1.39364133e-04
7.31000000e-01	1.32585719e-02	1.39970723e-04
7.32000000e-01	1.30681294e-02	1.38093354e-04
7.33000000e-01	1.32894191e-02	1.40241119e-04
7.34000000e-01	1.31662692e-02	1.38568665e-04
7.35000000e-01	1.31467679e-02	1.38239194e-04
7.36000000e-01	1.30618566e-02	1.37666081e-04
7.37000000e-01	1.31942402e-02	1.38592852e-04
7.38000000e-01	1.31320962e-02	1.37773900e-04
7.39000000e-01	1.31093615e-02	1.37355787e-04
7.40000000e-01	1.31109802e-02	1.37122922e-04
7.41000000e-01	1.30644522e-02	1.36699499e-04
7.42000000e-01	1.30637674e-02	1.36746390e-04
7.43000000e-01	1.30573680e-02	1.36472194e-04
7.44000000e-01	1.30369334e-02	1.36215796e-04
7.45000000e-01	1.31714696e-02	1.37318759e-04
7.46000000e-01	1.30722632e-02	1.36396810e-04
7.47000000e-01	1.30914555e-02	1.37035966e-04
7.48000000e-01	1.29876491e-02	1.35995330e-04
7.49000000e-01	1.30752352e-02	1.36658539e-04
7.50000000e-01	1.30251234e-02	1.35883771e-04
7.51000000e-01	1.30621213e-02	1.36167071e-04
7.52000000e-01	1.29746415e-02	1.36053363e-04
7.53000000e-01	1.30652440e-02	1.36400907e-04
7.54000000e-01	1.30220035e-02	1.36166858e-04
7.55000000e-01	1.30675132e-02	1.37098042e-04
7.56000000e-01	1.29835768e-02	1.35791644e-04
7.57000000e-01	1.29240200e-02	1.35270668e-04
7.58000000e-01	1.29887793e-02	1.35808098e-04
7.59000000e-01	1.29997298e-02	1.35809080e-04
7.60000000e-01	1.28749374e-02	1.34291327e-04
7.61000000e-01	1.29511204e-02	1.35241909e-04
7.62000000e-01	1.29982244e-02	1.34790191e-04
7.63000000e-01	1.27869336e-02	1.33492758e-04
7.64000000e-01	1.28437029e-02	1.33598023e-04
7.65000000e-01	1.28475634e-02	1.33242920e-04
7.66000000e-01	1.28296949e-02	1.33046881e-04
7.67000000e-01	1.27439346e-02	1.32743467e-04
7.68000000e-01	1.27394413e-02	1.32491859e-04
7.69000000e-01	1.27733756e-02	1.32954413e-04
7.70000000e-01	1.27486434e-02	1.32832067e-04
7.71000000e-01	1.27941369e-02	1.32342510e-04
7.72000000e-01	1.27258215e-02	1.36213295e-04
7.73000000e-01	1.28054309e-02	1.41720472e-04
7.74000000e-01	1.27469594e-02	1.43404512e-04
7.75000000e-01	1.28075771e-02	1.46557619e-04
7.76000000e-01	1.26748535e-02	1.47697419e-04
7.77000000e-01	1.27572454e-02	1.50635987e-04
7.78000000e-01	1.27530179e-02	1.52609246e-04
7.79000000e-01	1.26750397e-02	1.53361330e-04
7.80000000e-01	1.27256520e-02	1.55615166e-04
7.81000000e-01	1.27255016e-02	1.57264829e-04
7.82000000e-01	1.27967606e-02	1.59832962e-04
7.83000000e-01	1.25415161e-02	1.58973954e-04
7.84000000e-01	1.27521140e-02	1.62720128e-04
7.85000000e-01	1.25304504e-02	1.61682085e-04
7.86000000e-01	1.26217764e-02	1.65679519e-04
7.87000000e-01	1.24576158e-02	1.65398598e-04
7.88000000e-01	1.25218519e-02	1.66972055e-04
7.89000000e-01	1.25686625e-02	1.69267353e-04
7.90000000e-01	1.26071557e-02	1.71300678e-04
7.91000000e-01	1.26124877e-02	1.73266016e-04
7.92000000e-01	1.24303742e-02	1.72830426e-04
7.93000000e-01	1.26271981e-02	1.77552269e-04
7.94000000e-01	1.24479804e-02	1.76396877e-04
7.95000000e-01	1.24194760e-02	1.77777101e-04
7.96000000e-01	1.23488529e-02	1.78577898e-04
7.97000000e-01	1.27271204e-02	1.85340461e-04
7.98000000e-01	1.24594209e-02	1.84173968e-04
7.99000000e-01	1.23021935e-02	1.83807300e-04
8.00000000e-01	1.24579580e-02	1.86686609e-04
8.01000000e-01	1.24137362e-02	1.89060732e-04
8.02000000e-01	1.24734076e-02	1.91420838e-04
8.03000000e-01	1.22453532e-02	1.90691826e-04
8.04000000e-01	1.25234872e-02	1.97228648e-04
8.05000000e-01	1.23240480e-02	1.95486962e-04
8.06000000e-01	1.23704247e-02	1.98552079e-04
8.07000000e-01	1.25397153e-02	2.02754180e-04
8.08000000e-01	1.24637889e-02	2.04652492e-04
8.09000000e-01	1.21489892e-02	2.01309343e-04
8.10000000e-01	1.23231534e-02	2.07291545e-04
8.11000000e-01	1.24139726e-02	2.09846430e-04
8.12000000e-01	1.21645775e-02	2.10127494e-04
8.13000000e-01	1.22087988e-02	2.12344829e-04
8.14000000e-01	1.23901143e-02	2.17591876e-04
8.15000000e-01	1.22015692e-02	2.16425722e-04
8.16000000e-01	1.21981365e-02	2.20305875e-04
8.17000000e-01	1.22998213e-02	2.23937517e-04
8.18000000e-01	1.21496009e-02	2.24086938e-04
8.19000000e-01	1.21915284e-02	2.27755209e-04
8.20000000e-01	1.22250557e-02	2.31288814e-04
8.21000000e-01	1.20191531e-02	2.31266668e-04
8.22000000e-01	1.21128303e-02	2.34669632e-04
8.23000000e-01	1.18689543e-02	2.34064735e-04
8.24000000e-01	1.21439347e-02	2.41907383e-04
8.25000000e-01	1.20409739e-02	2.42951494e-04
8.26000000e-01	1.23169320e-02	2.51767191e-04
8.27000000e-01	1.20914786e-02	2.52715326e-04
8.28000000e-01	1.20810491e-02	2.55633689e-04
8.29000000e-01	1.21241916e-02	2.59996830e-04
8.30000000e-01	1.21049880e-02	2.64015352e-04
8.31000000e-01	1.19816398e-02	2.67186708e-04
8.32000000e-01	1.20610998e-02	2.71128973e-04
8.33000000e-01	1.19084479e-02	2.73179901e-04
8.34000000e-01	1.20129473e-02	2.78816177e-04
8.35000000e-01	1.19095291e-02	2.83864367e-04
8.36000000e-01	1.20265843e-02	2.89480843e-04
8.37000000e-01	1.20471124e-02	2.97457091e-04
8.38000000e-01	1.13956892e-02	2.88172925e-04
8.39000000e-01	1.20881275e-02	3.11299271e-04
8.40000000e-01	1.17686698e-02	3.06478073e-04
8.41000000e-01	1.19030442e-02	3.21166171e-04
8.42000000e-01	1.15945895e-02	3.17554419e-04
8.43000000e-01	1.19834470e-02	3.36105644e-04
8.44000000e-01	1.15677581e-02	3.34447163e-04
8.45000000e-01	1.17965254e-02	3.47833410e-04
8.46000000e-01	1.19220283e-02	3.63133946e-04
8.47000000e-01	1.19618967e-02	3.73597598e-04
8.48000000e-01	1.18752512e-02	3.81538181e-04
8.49000000e-01	1.15560359e-02	3.86927953e-04
8.50000000e-01	1.17911944e-02	4.04370837e-04
8.51000000e-01	1.13938024e-02	4.11455495e-04
8.52000000e-01	1.17352397e-02	4.32171959e-04
8.53000000e-01	1.16034918e-02	4.51085093e-04
8.54000000e-01	1.16571592e-02	4.76551800e-04
8.55000000e-01	1.13667390e-02	4.80182715e-04
8.56000000e-01	1.09507746e-02	4.77409398e-04
8.57000000e-01	1.15579593e-02	5.05516008e-04
8.58000000e-01	1.13578710e-02	5.21659803e-04
8.59000000e-01	1.15239662e-02	5.39991510e-04
8.60000000e-01	1.14939113e-02	5.57324366e-04
8.61000000e-01	1.18860424e-02	5.98865630e-04
8.62000000e-01	1.17787568e-02	6.16058135e-04
8.63000000e-01	1.10953213e-02	6.12035583e-04
8.64000000e-01	1.10717868e-02	6.31184689e-04
8.65000000e-01	1.19259642e-02	6.97319091e-04
8.66000000e-01	1.13746097e-02	6.97723195e-04
8.67000000e-01	1.13301839e-02	7.42572714e-04
8.68000000e-01	1.13542577e-02	7.79990251e-04
8.69000000e-01	1.17278269e-02	8.80823570e-04
8.70000000e-01	1.22049193e-02	1.01938802e-03
8.71000000e-01	1.12339931e-02	1.05068077e-03
8.72000000e-01	1.03946867e-02	1.10780362e-03
8.73000000e-01	1.28824384e-02	1.58894852e-03
8.74000000e-01	1.40351150e-02	2.19551342e-03
8.75000000e-01	1.10958401e-02	3.46704138e-03
