% Filename : SHF7_00029_00021.h5
% Date & Time : 30-Oct-2025 17:16:00
% X-ray Energy (keV) : 13.30001
% Exposure Time (s) : 0.500
% Beam Center : 1461.24000, 208.98300
% Sample to Detector Distance (SDD) (mm) : 1990.750
% Detector Pixel Size (mm) : 0.075
% Photodiode Value : 136524.000
% I0 of Sample : 0
% I0 of Standard : 1
% 
% q(A^-1)   I(q)    I(q)_SE
0.00000000e+00	1.32333369e-02	7.24818714e-03
2.50000000e-04	0.00000000e+00	0.00000000e+00
5.00000000e-04	0.00000000e+00	0.00000000e+00
7.50000000e-04	0.00000000e+00	0.00000000e+00
1.00000000e-03	0.00000000e+00	0.00000000e+00
1.25000000e-03	0.00000000e+00	0.00000000e+00
1.50000000e-03	0.00000000e+00	0.00000000e+00
1.75000000e-03	0.00000000e+00	0.00000000e+00
2.00000000e-03	0.00000000e+00	0.00000000e+00
2.25000000e-03	0.00000000e+00	0.00000000e+00
2.50000000e-03	0.00000000e+00	0.00000000e+00
2.75000000e-03	0.00000000e+00	0.00000000e+00
3.00000000e-03	0.00000000e+00	0.00000000e+00
3.25000000e-03	1.05672516e+03	6.17051596e+02
3.50000000e-03	4.30416798e+02	1.23391311e+02
3.75000000e-03	2.86175457e+02	7.01806031e+01
4.00000000e-03	2.35634166e+02	5.68037953e+01
4.25000000e-03	1.49416861e+02	2.97411654e+01
4.50000000e-03	1.36953818e+02	2.25114467e+01
4.75000000e-03	1.23832069e+02	1.74966123e+01
5.00000000e-03	1.00692138e+02	1.35829409e+01
5.25000000e-03	8.59474007e+01	1.13502237e+01
5.50000000e-03	7.21564690e+01	8.88364298e+00
5.75000000e-03	6.32300714e+01	7.55437146e+00
6.00000000e-03	5.45259095e+01	6.34807844e+00
6.25000000e-03	4.80853572e+01	5.45139732e+00
6.50000000e-03	4.23560859e+01	4.72844700e+00
6.75000000e-03	3.74130800e+01	4.06568673e+00
7.00000000e-03	3.29671020e+01	3.37941225e+00
7.25000000e-03	2.90793503e+01	2.89835685e+00
7.50000000e-03	2.61798442e+01	2.59342975e+00
7.75000000e-03	2.35832928e+01	2.28163004e+00
8.00000000e-03	2.19252684e+01	2.09648411e+00
8.25000000e-03	1.95044845e+01	1.78205553e+00
8.50000000e-03	1.78764853e+01	1.61101384e+00
8.75000000e-03	1.63143768e+01	1.44314057e+00
9.00000000e-03	1.49574016e+01	1.31123164e+00
9.25000000e-03	1.36122316e+01	1.14541334e+00
9.50000000e-03	1.24363748e+01	1.01916665e+00
9.75000000e-03	1.13530722e+01	9.24823078e-01
1.00000000e-02	1.04225099e+01	8.27809040e-01
1.02500000e-02	9.77720779e+00	7.79455554e-01
1.05000000e-02	9.13488359e+00	6.90931395e-01
1.07500000e-02	8.43773123e+00	6.40399281e-01
1.10000000e-02	7.72286901e+00	5.68661730e-01
1.12500000e-02	7.29714780e+00	5.47904892e-01
1.15000000e-02	6.79828699e+00	4.99422570e-01
1.17500000e-02	6.27658082e+00	4.50326294e-01
1.20000000e-02	5.92044041e+00	4.20214590e-01
1.22500000e-02	5.56460377e+00	3.89540454e-01
1.25000000e-02	5.26715400e+00	3.67146306e-01
1.27500000e-02	4.96626962e+00	3.42314460e-01
1.30000000e-02	4.64871975e+00	3.12638595e-01
1.32500000e-02	4.33066510e+00	2.86607376e-01
1.35000000e-02	4.07355193e+00	2.68074622e-01
1.37500000e-02	3.84707572e+00	2.52136775e-01
1.40000000e-02	3.61737643e+00	2.34300265e-01
1.42500000e-02	3.42302662e+00	2.17084350e-01
1.45000000e-02	3.24974560e+00	2.04883658e-01
1.47500000e-02	3.07320983e+00	1.92070671e-01
1.50000000e-02	2.92690837e+00	1.81553912e-01
1.52500000e-02	2.78012130e+00	1.70117205e-01
1.55000000e-02	2.64815038e+00	1.58137219e-01
1.57500000e-02	2.48424609e+00	1.47969310e-01
1.60000000e-02	2.38635987e+00	1.40326452e-01
1.62500000e-02	2.30770576e+00	1.37556716e-01
1.65000000e-02	2.16979765e+00	1.26187784e-01
1.67500000e-02	2.12430439e+00	1.21057712e-01
1.70000000e-02	2.02259057e+00	1.15672083e-01
1.72500000e-02	1.94271461e+00	1.10118878e-01
1.75000000e-02	1.84687733e+00	1.04691387e-01
1.77500000e-02	1.76264183e+00	9.78715557e-02
1.80000000e-02	1.73179311e+00	9.65692369e-02
1.82500000e-02	1.64412828e+00	8.84834380e-02
1.85000000e-02	1.58076802e+00	8.72591322e-02
1.87500000e-02	1.51159405e+00	8.13653105e-02
1.90000000e-02	1.46545774e+00	7.85806146e-02
1.92500000e-02	1.40769581e+00	7.38641501e-02
1.95000000e-02	1.35586301e+00	7.06743802e-02
1.97500000e-02	1.31513214e+00	6.88964340e-02
2.00000000e-02	1.26404685e+00	6.53995693e-02
2.02500000e-02	1.21984854e+00	6.25598723e-02
2.05000000e-02	1.19355514e+00	5.99260088e-02
2.07500000e-02	1.15290321e+00	5.79172075e-02
2.10000000e-02	1.12141272e+00	5.67133921e-02
2.12500000e-02	1.10909743e+00	5.61072449e-02
2.15000000e-02	1.06562610e+00	5.33218372e-02
2.17500000e-02	1.04802095e+00	5.25473567e-02
2.20000000e-02	1.02725207e+00	5.20037717e-02
2.22500000e-02	9.97790018e-01	4.99559556e-02
2.25000000e-02	9.71297595e-01	4.91231860e-02
2.27500000e-02	9.48285521e-01	4.71462831e-02
2.30000000e-02	9.26216901e-01	4.65090792e-02
2.32500000e-02	9.01781208e-01	4.47122125e-02
2.35000000e-02	8.81596558e-01	4.42593756e-02
2.37500000e-02	8.63893201e-01	4.30269196e-02
2.40000000e-02	8.35277482e-01	4.17014767e-02
2.42500000e-02	8.24732307e-01	4.07674521e-02
2.45000000e-02	8.00299074e-01	3.96869372e-02
2.47500000e-02	7.84577319e-01	3.85407941e-02
2.50000000e-02	7.66932570e-01	3.78675118e-02
2.52500000e-02	7.51449360e-01	3.74031085e-02
2.55000000e-02	7.47074840e-01	3.60896943e-02
2.57500000e-02	7.23426837e-01	3.52539863e-02
2.60000000e-02	7.06785275e-01	3.40643460e-02
2.62500000e-02	6.97215687e-01	3.41274611e-02
2.65000000e-02	6.80050384e-01	3.30068806e-02
2.67500000e-02	6.73790574e-01	3.23975144e-02
2.70000000e-02	6.48448083e-01	3.13554064e-02
2.72500000e-02	6.42777527e-01	3.06845366e-02
2.75000000e-02	6.33766959e-01	3.07412675e-02
2.77500000e-02	6.18105589e-01	2.99288023e-02
2.80000000e-02	6.09989344e-01	2.87919680e-02
2.82500000e-02	5.93663924e-01	2.80594471e-02
2.85000000e-02	5.87318081e-01	2.77815852e-02
2.87500000e-02	5.77176743e-01	2.73908684e-02
2.90000000e-02	5.70498966e-01	2.72947707e-02
2.92500000e-02	5.56234712e-01	2.57394089e-02
2.95000000e-02	5.53863529e-01	2.61319179e-02
2.97500000e-02	5.38853713e-01	2.51470730e-02
3.00000000e-02	5.31179946e-01	2.50562759e-02
3.02500000e-02	5.26418588e-01	2.46470560e-02
3.05000000e-02	5.12547812e-01	2.33729271e-02
3.07500000e-02	5.02382606e-01	2.33353705e-02
3.10000000e-02	4.98560166e-01	2.30875056e-02
3.12500000e-02	4.90486972e-01	2.28700788e-02
3.15000000e-02	4.85424424e-01	2.23725588e-02
3.17500000e-02	4.78611325e-01	2.16728999e-02
3.20000000e-02	4.73533268e-01	2.17403305e-02
3.22500000e-02	4.62881707e-01	2.12171225e-02
3.25000000e-02	4.54906358e-01	2.08479059e-02
3.27500000e-02	4.49500485e-01	2.03815455e-02
3.30000000e-02	4.49233301e-01	2.02104676e-02
3.32500000e-02	4.39967914e-01	1.98207966e-02
3.35000000e-02	4.37031516e-01	1.99153626e-02
3.37500000e-02	4.31868787e-01	1.94719431e-02
3.40000000e-02	4.22334372e-01	1.90947560e-02
3.42500000e-02	4.16762574e-01	1.85919676e-02
3.45000000e-02	4.11106897e-01	1.84467209e-02
3.47500000e-02	4.08843300e-01	1.82643127e-02
3.50000000e-02	4.03545247e-01	1.80252818e-02
3.52500000e-02	4.02527297e-01	1.79054479e-02
3.55000000e-02	3.94718731e-01	1.73747804e-02
3.57500000e-02	3.89123713e-01	1.73373606e-02
3.60000000e-02	3.87851079e-01	1.72821023e-02
3.62500000e-02	3.81415938e-01	1.69752203e-02
3.65000000e-02	3.75241614e-01	1.65992093e-02
3.67500000e-02	3.73055766e-01	1.64371334e-02
3.70000000e-02	3.62830819e-01	1.60011638e-02
3.72500000e-02	3.62377885e-01	1.59372793e-02
3.75000000e-02	3.57055370e-01	1.57873662e-02
3.77500000e-02	3.55057385e-01	1.55904589e-02
3.80000000e-02	3.54401587e-01	1.54319866e-02
3.82500000e-02	3.52317006e-01	1.53166759e-02
3.85000000e-02	3.45470505e-01	1.51191800e-02
3.87500000e-02	3.41972972e-01	1.48662770e-02
3.90000000e-02	3.42112645e-01	1.49952858e-02
3.92500000e-02	3.37761787e-01	1.45649203e-02
3.95000000e-02	3.32124875e-01	1.44378267e-02
3.97500000e-02	3.30175792e-01	1.42962731e-02
4.00000000e-02	3.31611421e-01	1.43048940e-02
4.02500000e-02	3.30849470e-01	1.42468044e-02
4.05000000e-02	3.21580708e-01	1.37397664e-02
4.07500000e-02	3.20108342e-01	1.35860941e-02
4.10000000e-02	3.20491525e-01	1.37932565e-02
4.12500000e-02	3.15011616e-01	1.34983325e-02
4.15000000e-02	3.10349127e-01	1.31445042e-02
4.17500000e-02	3.13769833e-01	1.33247489e-02
4.20000000e-02	3.06845767e-01	1.29554764e-02
4.22500000e-02	3.04700381e-01	1.28637884e-02
4.25000000e-02	3.01347673e-01	1.28038377e-02
4.27500000e-02	3.00961030e-01	1.26520891e-02
4.30000000e-02	2.98979117e-01	1.25728985e-02
4.32500000e-02	2.94128594e-01	1.23708797e-02
4.35000000e-02	2.94325985e-01	1.24302471e-02
4.37500000e-02	2.91545628e-01	1.20976527e-02
4.40000000e-02	2.91814664e-01	1.22514305e-02
4.42500000e-02	2.88708967e-01	1.20753888e-02
4.45000000e-02	2.88187593e-01	1.20445686e-02
4.47500000e-02	2.88663462e-01	1.20134776e-02
4.50000000e-02	2.86543860e-01	1.19859187e-02
4.52500000e-02	2.80403001e-01	1.16312414e-02
4.55000000e-02	2.78346565e-01	1.15177586e-02
4.57500000e-02	2.77713464e-01	1.14412961e-02
4.60000000e-02	2.77744159e-01	1.14354665e-02
4.62500000e-02	2.76511073e-01	1.14189254e-02
4.65000000e-02	2.72286410e-01	1.11912482e-02
4.67500000e-02	2.71497596e-01	1.10574144e-02
4.70000000e-02	2.70241563e-01	1.10589679e-02
4.72500000e-02	2.66557963e-01	1.09364928e-02
4.75000000e-02	2.67656238e-01	1.10717932e-02
4.77500000e-02	2.64704710e-01	1.06924791e-02
4.80000000e-02	2.62329680e-01	1.06396448e-02
4.82500000e-02	2.58689975e-01	1.05250575e-02
4.85000000e-02	2.60323038e-01	1.06889528e-02
4.87500000e-02	2.61157507e-01	1.06416921e-02
4.90000000e-02	2.56358123e-01	1.03207033e-02
4.92500000e-02	2.54408608e-01	1.02365894e-02
4.95000000e-02	2.55430851e-01	1.03173932e-02
4.97500000e-02	2.53893281e-01	1.03094410e-02
5.00000000e-02	2.50997995e-01	1.01608650e-02
5.02500000e-02	2.50066768e-01	9.97452803e-03
5.05000000e-02	2.48180582e-01	9.94397218e-03
5.07500000e-02	2.48916230e-01	9.99018163e-03
5.10000000e-02	2.47572258e-01	9.99096586e-03
5.12500000e-02	2.45599089e-01	9.88689311e-03
5.15000000e-02	2.41606746e-01	9.61855195e-03
5.17500000e-02	2.41972321e-01	9.68558709e-03
5.20000000e-02	2.40038846e-01	9.57456774e-03
5.22500000e-02	2.41029914e-01	9.67887277e-03
5.25000000e-02	2.37301153e-01	9.41309774e-03
5.27500000e-02	2.40137448e-01	9.51353308e-03
5.30000000e-02	2.38193130e-01	9.53785816e-03
5.32500000e-02	2.37780782e-01	9.45949072e-03
5.35000000e-02	2.38739576e-01	9.48314441e-03
5.37500000e-02	2.33741758e-01	9.28349535e-03
5.40000000e-02	2.33416098e-01	9.24632021e-03
5.42500000e-02	2.31576483e-01	9.09385167e-03
5.45000000e-02	2.31730193e-01	9.16190606e-03
5.47500000e-02	2.31394852e-01	9.11205429e-03
5.50000000e-02	2.28074834e-01	8.98473625e-03
5.52500000e-02	2.31634704e-01	9.07693381e-03
5.55000000e-02	2.29649540e-01	8.99105735e-03
5.57500000e-02	2.26712203e-01	8.90016528e-03
5.60000000e-02	2.22757391e-01	8.70296672e-03
5.62500000e-02	2.24125971e-01	8.79177507e-03
5.65000000e-02	2.25021929e-01	8.82225243e-03
5.67500000e-02	2.22918586e-01	8.79977180e-03
5.70000000e-02	2.20448148e-01	8.55365514e-03
5.72500000e-02	2.21171875e-01	8.64797505e-03
5.75000000e-02	2.22685463e-01	8.75651850e-03
5.77500000e-02	2.21061120e-01	8.50303668e-03
5.80000000e-02	2.19105814e-01	8.56037438e-03
5.82500000e-02	2.18039973e-01	8.42641100e-03
5.85000000e-02	2.16314280e-01	8.42754020e-03
5.87500000e-02	2.18742787e-01	8.46484452e-03
5.90000000e-02	2.18608810e-01	8.46958966e-03
5.92500000e-02	2.13838541e-01	8.26243688e-03
5.95000000e-02	2.14424861e-01	8.27071969e-03
5.97500000e-02	2.13584655e-01	8.26457548e-03
6.00000000e-02	2.10668506e-01	8.12231664e-03
6.02500000e-02	2.12997487e-01	8.21042350e-03
6.05000000e-02	2.10104454e-01	8.08943340e-03
6.07500000e-02	2.10559430e-01	8.09429345e-03
6.10000000e-02	2.09062173e-01	8.05468042e-03
6.12500000e-02	2.08253992e-01	7.98350091e-03
6.15000000e-02	2.08598768e-01	7.96227076e-03
6.17500000e-02	2.07857915e-01	7.95418820e-03
6.20000000e-02	2.06040142e-01	7.89703211e-03
6.22500000e-02	2.05407754e-01	7.84679428e-03
6.25000000e-02	2.04480973e-01	7.83605411e-03
6.27500000e-02	2.04212891e-01	7.74506670e-03
6.30000000e-02	2.01998663e-01	7.64985221e-03
6.32500000e-02	2.02618452e-01	7.69305440e-03
6.35000000e-02	2.03543203e-01	7.75982306e-03
6.37500000e-02	1.99355023e-01	7.58452265e-03
6.40000000e-02	2.00264646e-01	7.59153514e-03
6.42500000e-02	2.00180627e-01	7.52719322e-03
6.45000000e-02	2.00837392e-01	7.56247459e-03
6.47500000e-02	2.01341063e-01	7.63203970e-03
6.50000000e-02	1.96423702e-01	7.41373125e-03
6.52500000e-02	1.98612669e-01	7.46687411e-03
6.55000000e-02	1.97680302e-01	7.48578602e-03
6.57500000e-02	1.97056873e-01	7.42924150e-03
6.60000000e-02	1.94780254e-01	7.31564306e-03
6.62500000e-02	1.97690049e-01	7.48491912e-03
6.65000000e-02	1.95306185e-01	7.31739607e-03
6.67500000e-02	1.92898038e-01	7.25339861e-03
6.70000000e-02	1.93411383e-01	7.28654746e-03
6.72500000e-02	1.94271811e-01	7.27652732e-03
6.75000000e-02	1.90976878e-01	7.10608121e-03
6.77500000e-02	1.92820066e-01	7.16250785e-03
6.80000000e-02	1.91421843e-01	7.13602227e-03
6.82500000e-02	1.90230537e-01	7.10249710e-03
6.85000000e-02	1.91045754e-01	7.18673809e-03
6.87500000e-02	1.87369014e-01	7.00073168e-03
6.90000000e-02	1.89582966e-01	7.04692987e-03
6.92500000e-02	1.86985971e-01	6.93984972e-03
6.95000000e-02	1.87480938e-01	6.98973237e-03
6.97500000e-02	1.88375001e-01	6.99673569e-03
7.00000000e-02	1.86666739e-01	6.91279090e-03
7.02500000e-02	1.88262544e-01	6.92608824e-03
7.05000000e-02	1.85852878e-01	6.86489453e-03
7.07500000e-02	1.86469035e-01	6.95000764e-03
7.10000000e-02	1.82353972e-01	6.67513624e-03
7.12500000e-02	1.84544345e-01	6.80521587e-03
7.15000000e-02	1.83091916e-01	6.71890278e-03
7.17500000e-02	1.84472628e-01	6.80458100e-03
7.20000000e-02	1.81729821e-01	6.73281569e-03
7.22500000e-02	1.81384560e-01	6.67094140e-03
7.25000000e-02	1.82604612e-01	6.70915356e-03
7.27500000e-02	1.81422336e-01	6.67026620e-03
7.30000000e-02	1.81562048e-01	6.65955897e-03
7.32500000e-02	1.79966161e-01	6.57721759e-03
7.35000000e-02	1.79544404e-01	6.59051307e-03
7.37500000e-02	1.79390303e-01	6.52699492e-03
7.40000000e-02	1.80649538e-01	6.58244554e-03
7.42500000e-02	1.77237792e-01	6.46226911e-03
7.45000000e-02	1.77321209e-01	6.47462150e-03
7.47500000e-02	1.76248589e-01	6.39157102e-03
7.50000000e-02	1.72986908e-01	6.29944105e-03
7.52500000e-02	1.77284465e-01	6.43984374e-03
7.55000000e-02	1.74812851e-01	6.34761197e-03
7.57500000e-02	1.73606186e-01	6.29248306e-03
7.60000000e-02	1.75214917e-01	6.34968527e-03
7.62500000e-02	1.75532667e-01	6.33757809e-03
7.65000000e-02	1.72730189e-01	6.24827006e-03
7.67500000e-02	1.71023381e-01	6.18192741e-03
7.70000000e-02	1.71068535e-01	6.15575842e-03
7.72500000e-02	1.74227050e-01	6.34844279e-03
7.75000000e-02	1.77177003e-01	6.49524936e-03
7.77500000e-02	1.77979697e-01	6.52376230e-03
7.80000000e-02	1.78064634e-01	6.56471234e-03
7.82500000e-02	1.80836400e-01	6.68603418e-03
7.85000000e-02	1.79831775e-01	6.70202543e-03
7.87500000e-02	1.81021914e-01	6.69499047e-03
7.90000000e-02	1.83143618e-01	6.81675171e-03
7.92500000e-02	1.79918813e-01	6.73315102e-03
7.95000000e-02	1.82637014e-01	6.82469042e-03
7.97500000e-02	1.83373262e-01	6.84741040e-03
8.00000000e-02	1.85315446e-01	6.89305935e-03
8.02500000e-02	1.84134977e-01	6.90135510e-03
8.05000000e-02	1.82365063e-01	6.82378569e-03
8.07500000e-02	1.83477085e-01	6.89592976e-03
8.10000000e-02	1.83575778e-01	6.89579585e-03
8.12500000e-02	1.85103224e-01	6.92896580e-03
8.15000000e-02	1.83636998e-01	6.91970223e-03
8.17500000e-02	1.83368223e-01	6.90287494e-03
8.20000000e-02	1.83346378e-01	6.90264449e-03
8.22500000e-02	1.82968976e-01	6.90016979e-03
8.25000000e-02	1.84609235e-01	6.96279534e-03
8.27500000e-02	1.83333582e-01	6.92508587e-03
8.30000000e-02	1.86732902e-01	7.09287137e-03
8.32500000e-02	1.84819168e-01	6.97600570e-03
8.35000000e-02	1.85418937e-01	7.02821209e-03
8.37500000e-02	1.84845555e-01	6.94880536e-03
8.40000000e-02	1.83808683e-01	6.94013070e-03
8.42500000e-02	1.81427109e-01	6.88168753e-03
8.45000000e-02	1.83684770e-01	6.98471726e-03
8.47500000e-02	1.82456786e-01	6.95215605e-03
8.50000000e-02	1.83611251e-01	6.91459552e-03
8.52500000e-02	1.82600049e-01	6.97145844e-03
8.55000000e-02	1.82575039e-01	6.90412977e-03
8.57500000e-02	1.83689931e-01	6.96359844e-03
8.60000000e-02	1.83070149e-01	6.95472874e-03
8.62500000e-02	1.83557648e-01	6.91273958e-03
8.65000000e-02	1.80525001e-01	6.84445787e-03
8.67500000e-02	1.78787516e-01	6.75770128e-03
8.70000000e-02	1.75570639e-01	6.61066018e-03
8.72500000e-02	1.71604734e-01	6.37008462e-03
8.75000000e-02	1.68791851e-01	6.22728817e-03
8.77500000e-02	1.68071712e-01	6.17191838e-03
8.80000000e-02	1.66728620e-01	6.12042116e-03
8.82500000e-02	1.66668725e-01	6.07968830e-03
8.85000000e-02	1.62649620e-01	5.95801114e-03
8.87500000e-02	1.61496389e-01	5.81201825e-03
8.90000000e-02	1.61280584e-01	5.86446589e-03
8.92500000e-02	1.59727188e-01	5.78327514e-03
8.95000000e-02	1.60256411e-01	5.78118048e-03
8.97500000e-02	1.59094169e-01	5.71892313e-03
9.00000000e-02	1.58621117e-01	5.64899319e-03
9.02500000e-02	1.55094029e-01	5.54887441e-03
9.05000000e-02	1.55384794e-01	5.58972686e-03
9.07500000e-02	1.55738359e-01	5.56344158e-03
9.10000000e-02	1.50454341e-01	5.36276940e-03
9.12500000e-02	1.51361027e-01	5.37410976e-03
9.15000000e-02	1.49973260e-01	5.31495386e-03
9.17500000e-02	1.49718251e-01	5.28334520e-03
9.20000000e-02	1.48604841e-01	5.24142906e-03
9.22500000e-02	1.48736161e-01	5.22877822e-03
9.25000000e-02	1.48298628e-01	5.19347085e-03
9.27500000e-02	1.46410588e-01	5.12371515e-03
9.30000000e-02	1.45683263e-01	5.09753134e-03
9.32500000e-02	1.44166576e-01	5.06946461e-03
9.35000000e-02	1.43253026e-01	4.98644661e-03
9.37500000e-02	1.42886723e-01	4.96813667e-03
9.40000000e-02	1.44561922e-01	5.02397975e-03
9.42500000e-02	1.40767432e-01	4.86037289e-03
9.45000000e-02	1.41362606e-01	4.87331300e-03
9.47500000e-02	1.40929793e-01	4.88703314e-03
9.50000000e-02	1.39601203e-01	4.78680486e-03
9.52500000e-02	1.38689048e-01	4.77392183e-03
9.55000000e-02	1.38147774e-01	4.78107690e-03
9.57500000e-02	1.36665207e-01	4.70046788e-03
9.60000000e-02	1.35286497e-01	4.63761939e-03
9.62500000e-02	1.34010695e-01	4.60466944e-03
9.65000000e-02	1.34976293e-01	4.61838163e-03
9.67500000e-02	1.34307057e-01	4.57831373e-03
9.70000000e-02	1.31843460e-01	4.52498454e-03
9.72500000e-02	1.32491642e-01	4.50511173e-03
9.75000000e-02	1.31016308e-01	4.45549554e-03
9.77500000e-02	1.31191179e-01	4.41554439e-03
9.80000000e-02	1.30819259e-01	4.42470613e-03
9.82500000e-02	1.29945093e-01	4.40684460e-03
9.85000000e-02	1.28235393e-01	4.34028095e-03
9.87500000e-02	1.29747587e-01	4.36755729e-03
9.90000000e-02	1.26393134e-01	4.25984485e-03
9.92500000e-02	1.25745113e-01	4.23051468e-03
9.95000000e-02	1.24741330e-01	4.19616473e-03
9.97500000e-02	1.25986864e-01	4.23820117e-03
1.00000000e-01	1.23773130e-01	3.37269573e-03
1.00500000e-01	1.23713232e-01	2.92909762e-03
1.01000000e-01	1.21231587e-01	2.83891746e-03
1.01500000e-01	1.20035361e-01	2.81086499e-03
1.02000000e-01	1.17840982e-01	2.75504281e-03
1.02500000e-01	1.17482999e-01	2.72633773e-03
1.03000000e-01	1.15663029e-01	2.68925999e-03
1.03500000e-01	1.14028978e-01	2.63957106e-03
1.04000000e-01	1.13529144e-01	2.63255928e-03
1.04500000e-01	1.13404790e-01	2.61350946e-03
1.05000000e-01	1.11679308e-01	2.54928055e-03
1.05500000e-01	1.09414924e-01	2.49419898e-03
1.06000000e-01	1.09010912e-01	2.48373387e-03
1.06500000e-01	1.07341111e-01	2.44940728e-03
1.07000000e-01	1.03718261e-01	2.39374884e-03
1.07500000e-01	9.80628914e-02	2.28815247e-03
1.08000000e-01	9.44565372e-02	2.25013835e-03
1.08500000e-01	9.33456492e-02	2.22461552e-03
1.09000000e-01	9.03833076e-02	2.17163291e-03
1.09500000e-01	8.71087292e-02	2.12465688e-03
1.10000000e-01	8.82979544e-02	2.11279061e-03
1.10500000e-01	9.09442099e-02	2.13763827e-03
1.11000000e-01	9.30823549e-02	2.13943515e-03
1.11500000e-01	9.27930950e-02	2.11971195e-03
1.12000000e-01	9.34637963e-02	2.11193461e-03
1.12500000e-01	9.25849471e-02	2.06570070e-03
1.13000000e-01	9.18400296e-02	2.05553195e-03
1.13500000e-01	9.12073022e-02	2.02474417e-03
1.14000000e-01	9.03250726e-02	1.99346930e-03
1.14500000e-01	8.93594793e-02	1.97767285e-03
1.15000000e-01	8.71400803e-02	1.91214428e-03
1.15500000e-01	8.64488799e-02	1.89204462e-03
1.16000000e-01	8.62842421e-02	1.87547578e-03
1.16500000e-01	8.56947692e-02	1.85980060e-03
1.17000000e-01	8.43706494e-02	1.82466256e-03
1.17500000e-01	8.38067207e-02	1.80044006e-03
1.18000000e-01	8.32537113e-02	1.79344209e-03
1.18500000e-01	8.17295563e-02	1.74485366e-03
1.19000000e-01	8.10426795e-02	1.72866839e-03
1.19500000e-01	8.04842217e-02	1.70526929e-03
1.20000000e-01	7.91478052e-02	1.67586887e-03
1.20500000e-01	7.77800833e-02	1.63875178e-03
1.21000000e-01	7.75332168e-02	1.62971334e-03
1.21500000e-01	7.71593642e-02	1.60900294e-03
1.22000000e-01	7.55686315e-02	1.57319645e-03
1.22500000e-01	7.48819652e-02	1.55968351e-03
1.23000000e-01	7.39619547e-02	1.53201532e-03
1.23500000e-01	7.34902227e-02	1.51444855e-03
1.24000000e-01	7.25474400e-02	1.48887427e-03
1.24500000e-01	7.21562261e-02	1.47087842e-03
1.25000000e-01	7.10217980e-02	1.44707902e-03
1.25500000e-01	7.05401727e-02	1.44235304e-03
1.26000000e-01	7.02657874e-02	1.42641612e-03
1.26500000e-01	6.91571796e-02	1.39668353e-03
1.27000000e-01	6.79875845e-02	1.36871415e-03
1.27500000e-01	6.73982933e-02	1.35257715e-03
1.28000000e-01	6.63275388e-02	1.32675197e-03
1.28500000e-01	6.59768720e-02	1.31535711e-03
1.29000000e-01	6.50741391e-02	1.29217869e-03
1.29500000e-01	6.36345140e-02	1.26215261e-03
1.30000000e-01	6.35709890e-02	1.25434003e-03
1.30500000e-01	6.30393832e-02	1.24109601e-03
1.31000000e-01	6.23359295e-02	1.21891472e-03
1.31500000e-01	6.13134877e-02	1.20489929e-03
1.32000000e-01	6.10759575e-02	1.19318141e-03
1.32500000e-01	6.01705207e-02	1.16428682e-03
1.33000000e-01	5.98118583e-02	1.15550633e-03
1.33500000e-01	5.88617853e-02	1.12948786e-03
1.34000000e-01	5.82632844e-02	1.11895061e-03
1.34500000e-01	5.78265971e-02	1.10792709e-03
1.35000000e-01	5.67502413e-02	1.07989376e-03
1.35500000e-01	5.62225419e-02	1.06293514e-03
1.36000000e-01	5.53649130e-02	1.04259649e-03
1.36500000e-01	5.53274546e-02	1.04903005e-03
1.37000000e-01	5.49176057e-02	1.02865062e-03
1.37500000e-01	5.35868048e-02	1.00611716e-03
1.38000000e-01	5.37036289e-02	1.00476574e-03
1.38500000e-01	5.30804659e-02	9.91387950e-04
1.39000000e-01	5.22731006e-02	9.79511128e-04
1.39500000e-01	5.18559351e-02	9.63412687e-04
1.40000000e-01	5.15754141e-02	9.60423353e-04
1.40500000e-01	5.12558898e-02	9.50925193e-04
1.41000000e-01	5.00025159e-02	9.24633876e-04
1.41500000e-01	4.95975978e-02	9.20394267e-04
1.42000000e-01	4.95503649e-02	9.07350642e-04
1.42500000e-01	4.91528686e-02	9.04083885e-04
1.43000000e-01	4.84627121e-02	8.85192146e-04
1.43500000e-01	4.74145607e-02	8.65227928e-04
1.44000000e-01	4.75195872e-02	8.65704990e-04
1.44500000e-01	4.73298926e-02	8.53079138e-04
1.45000000e-01	4.62817688e-02	8.41951830e-04
1.45500000e-01	4.65299037e-02	8.39769445e-04
1.46000000e-01	4.61405189e-02	8.31985435e-04
1.46500000e-01	4.54344923e-02	8.19535370e-04
1.47000000e-01	4.51435499e-02	8.07672344e-04
1.47500000e-01	4.41738797e-02	7.89934931e-04
1.48000000e-01	4.42321998e-02	7.89332519e-04
1.48500000e-01	4.36416214e-02	7.76229436e-04
1.49000000e-01	4.33495808e-02	7.70364608e-04
1.49500000e-01	4.27211974e-02	7.57420080e-04
1.50000000e-01	4.31040783e-02	7.62818761e-04
1.50500000e-01	4.21868411e-02	7.47950080e-04
1.51000000e-01	4.16539626e-02	7.35025650e-04
1.51500000e-01	4.17687518e-02	7.34652846e-04
1.52000000e-01	4.12416644e-02	7.20904182e-04
1.52500000e-01	4.10550310e-02	7.19841206e-04
1.53000000e-01	4.07074025e-02	7.12748502e-04
1.53500000e-01	4.03096565e-02	7.01873488e-04
1.54000000e-01	4.00522779e-02	6.94614268e-04
1.54500000e-01	3.94001482e-02	6.96803345e-04
1.55000000e-01	3.86656937e-02	6.93770918e-04
1.55500000e-01	3.79326744e-02	6.83371093e-04
1.56000000e-01	3.79259371e-02	6.87377561e-04
1.56500000e-01	3.71609529e-02	6.72487600e-04
1.57000000e-01	3.67536491e-02	6.65790817e-04
1.57500000e-01	3.67589539e-02	6.55461459e-04
1.58000000e-01	3.68302806e-02	6.46772780e-04
1.58500000e-01	3.66547592e-02	6.42788877e-04
1.59000000e-01	3.64968177e-02	6.34626124e-04
1.59500000e-01	3.61454802e-02	6.27488535e-04
1.60000000e-01	3.64725989e-02	6.33427411e-04
1.60500000e-01	3.62966466e-02	6.23742980e-04
1.61000000e-01	3.57949273e-02	6.17184976e-04
1.61500000e-01	3.58332185e-02	6.12947468e-04
1.62000000e-01	3.57391664e-02	6.10527460e-04
1.62500000e-01	3.52552794e-02	6.03722015e-04
1.63000000e-01	3.50881899e-02	5.96778777e-04
1.63500000e-01	3.43852193e-02	5.88226288e-04
1.64000000e-01	3.46215231e-02	5.86660637e-04
1.64500000e-01	3.41133331e-02	5.79670801e-04
1.65000000e-01	3.39447720e-02	5.73456312e-04
1.65500000e-01	3.40788838e-02	5.75037956e-04
1.66000000e-01	3.41254886e-02	5.75490685e-04
1.66500000e-01	3.35206523e-02	5.64137967e-04
1.67000000e-01	3.35643436e-02	5.64820648e-04
1.67500000e-01	3.32304355e-02	5.57162948e-04
1.68000000e-01	3.31243424e-02	5.54774275e-04
1.68500000e-01	3.30166552e-02	5.51616605e-04
1.69000000e-01	3.27713049e-02	5.46513007e-04
1.69500000e-01	3.27446123e-02	5.44341074e-04
1.70000000e-01	3.20115214e-02	5.32169298e-04
1.70500000e-01	3.25735215e-02	5.41277204e-04
1.71000000e-01	3.18901079e-02	5.31906254e-04
1.71500000e-01	3.20720064e-02	5.32587585e-04
1.72000000e-01	3.14927680e-02	5.22210816e-04
1.72500000e-01	3.19388458e-02	5.28713901e-04
1.73000000e-01	3.17068556e-02	5.21977333e-04
1.73500000e-01	3.13854157e-02	5.15657508e-04
1.74000000e-01	3.11758907e-02	5.12980047e-04
1.74500000e-01	3.09491194e-02	5.05449513e-04
1.75000000e-01	3.07200896e-02	5.00929137e-04
1.75500000e-01	3.11852239e-02	5.07222311e-04
1.76000000e-01	3.05399757e-02	4.96437160e-04
1.76500000e-01	3.04285868e-02	4.95825465e-04
1.77000000e-01	3.03575450e-02	4.92940398e-04
1.77500000e-01	3.03635270e-02	4.93126029e-04
1.78000000e-01	3.02456177e-02	4.89981787e-04
1.78500000e-01	2.99841161e-02	4.87560279e-04
1.79000000e-01	3.00958035e-02	4.88116403e-04
1.79500000e-01	2.97929884e-02	4.82974942e-04
1.80000000e-01	2.99671025e-02	4.86117083e-04
1.80500000e-01	2.97365089e-02	4.81451525e-04
1.81000000e-01	2.96627325e-02	4.79127363e-04
1.81500000e-01	2.95408360e-02	4.76475285e-04
1.82000000e-01	2.93024838e-02	4.73301312e-04
1.82500000e-01	2.91401902e-02	4.67882703e-04
1.83000000e-01	2.93869063e-02	4.72831651e-04
1.83500000e-01	2.94713649e-02	4.72213817e-04
1.84000000e-01	2.88882087e-02	4.63491931e-04
1.84500000e-01	2.88623467e-02	4.63647050e-04
1.85000000e-01	2.85544791e-02	4.56400038e-04
1.85500000e-01	2.89390152e-02	4.61048081e-04
1.86000000e-01	2.86854704e-02	4.58444680e-04
1.86500000e-01	2.85385725e-02	4.54761438e-04
1.87000000e-01	2.85246305e-02	4.54679379e-04
1.87500000e-01	2.84796890e-02	4.51673651e-04
1.88000000e-01	2.80300548e-02	4.45172877e-04
1.88500000e-01	2.78301888e-02	4.41968732e-04
1.89000000e-01	2.83994395e-02	4.49456867e-04
1.89500000e-01	2.81739981e-02	4.45559326e-04
1.90000000e-01	2.80236748e-02	4.41354537e-04
1.90500000e-01	2.77555688e-02	4.38477952e-04
1.91000000e-01	2.77316368e-02	4.37340400e-04
1.91500000e-01	2.80526167e-02	4.41380897e-04
1.92000000e-01	2.75972501e-02	4.34400821e-04
1.92500000e-01	2.78198358e-02	4.37132652e-04
1.93000000e-01	2.76470638e-02	4.34852666e-04
1.93500000e-01	2.74704824e-02	4.31428165e-04
1.94000000e-01	2.71690708e-02	4.25697510e-04
1.94500000e-01	2.75127186e-02	4.30319617e-04
1.95000000e-01	2.73480051e-02	4.27771590e-04
1.95500000e-01	2.72050162e-02	4.25174418e-04
1.96000000e-01	2.71078930e-02	4.21667782e-04
1.96500000e-01	2.71156867e-02	4.22390533e-04
1.97000000e-01	2.69910025e-02	4.21185316e-04
1.97500000e-01	2.69227775e-02	4.17841013e-04
1.98000000e-01	2.70559959e-02	4.20778684e-04
1.98500000e-01	2.70250861e-02	4.18766813e-04
1.99000000e-01	2.68141456e-02	4.15806830e-04
1.99500000e-01	2.68320466e-02	4.15189757e-04
2.00000000e-01	2.68822890e-02	4.15662826e-04
2.00500000e-01	2.70232759e-02	4.17946070e-04
2.01000000e-01	2.67914921e-02	4.12513367e-04
2.01500000e-01	2.68609501e-02	4.12937748e-04
2.02000000e-01	2.67053130e-02	4.12244855e-04
2.02500000e-01	2.64511082e-02	4.06518774e-04
2.03000000e-01	2.64510609e-02	4.07677535e-04
2.03500000e-01	2.64485335e-02	4.04679700e-04
2.04000000e-01	2.64326047e-02	4.06002066e-04
2.04500000e-01	2.59524755e-02	3.98505696e-04
2.05000000e-01	2.62107948e-02	4.00725122e-04
2.05500000e-01	2.62365629e-02	4.00897624e-04
2.06000000e-01	2.62875387e-02	3.99977382e-04
2.06500000e-01	2.58274231e-02	3.94342438e-04
2.07000000e-01	2.59463738e-02	3.94557351e-04
2.07500000e-01	2.59313420e-02	3.94156367e-04
2.08000000e-01	2.58210019e-02	3.94544964e-04
2.08500000e-01	2.61721955e-02	3.95902610e-04
2.09000000e-01	2.58542571e-02	3.93208263e-04
2.09500000e-01	2.57360467e-02	3.89761696e-04
2.10000000e-01	2.62360609e-02	3.97634887e-04
2.10500000e-01	2.59581925e-02	3.93052643e-04
2.11000000e-01	2.58967271e-02	3.90667380e-04
2.11500000e-01	2.54621284e-02	3.84930785e-04
2.12000000e-01	2.58716211e-02	3.88386658e-04
2.12500000e-01	2.58445356e-02	3.88904511e-04
2.13000000e-01	2.52323822e-02	3.79611871e-04
2.13500000e-01	2.54313715e-02	3.81834211e-04
2.14000000e-01	2.56317765e-02	3.86220960e-04
2.14500000e-01	2.55513091e-02	3.81729674e-04
2.15000000e-01	2.55095424e-02	3.82998658e-04
2.15500000e-01	2.54275833e-02	3.79266994e-04
2.16000000e-01	2.53278549e-02	3.78403654e-04
2.16500000e-01	2.52864573e-02	3.79208851e-04
2.17000000e-01	2.50100215e-02	3.79764104e-04
2.17500000e-01	2.54947471e-02	3.92527546e-04
2.18000000e-01	2.54573014e-02	3.91789655e-04
2.18500000e-01	2.51892063e-02	3.91386732e-04
2.19000000e-01	2.51127492e-02	3.91501509e-04
2.19500000e-01	2.51741399e-02	3.92632122e-04
2.20000000e-01	2.52393334e-02	3.95682180e-04
2.20500000e-01	2.50461710e-02	3.95193861e-04
2.21000000e-01	2.51690650e-02	3.97859575e-04
2.21500000e-01	2.48895622e-02	3.95639369e-04
2.22000000e-01	2.50672472e-02	3.98531870e-04
2.22500000e-01	2.51467751e-02	3.98839992e-04
2.23000000e-01	2.51320111e-02	4.00771628e-04
2.23500000e-01	2.50371393e-02	4.00269337e-04
2.24000000e-01	2.52924113e-02	4.04236825e-04
2.24500000e-01	2.50361873e-02	4.01999432e-04
2.25000000e-01	2.46550809e-02	3.96208131e-04
2.25500000e-01	2.53415309e-02	4.07976397e-04
2.26000000e-01	2.49561752e-02	4.04000080e-04
2.26500000e-01	2.50581485e-02	3.97780124e-04
2.27000000e-01	2.49535773e-02	3.92727196e-04
2.27500000e-01	2.47149633e-02	3.86787589e-04
2.28000000e-01	2.49031068e-02	3.88317146e-04
2.28500000e-01	2.46262149e-02	3.81478201e-04
2.29000000e-01	2.47590751e-02	3.82341918e-04
2.29500000e-01	2.48340633e-02	3.81691858e-04
2.30000000e-01	2.46542283e-02	3.76631158e-04
2.30500000e-01	2.44330903e-02	3.72441080e-04
2.31000000e-01	2.42572481e-02	3.69279241e-04
2.31500000e-01	2.45240951e-02	3.71997152e-04
2.32000000e-01	2.45342415e-02	3.72071779e-04
2.32500000e-01	2.44882630e-02	3.69689843e-04
2.33000000e-01	2.43932288e-02	3.68053194e-04
2.33500000e-01	2.42413832e-02	3.64700956e-04
2.34000000e-01	2.40376774e-02	3.61847389e-04
2.34500000e-01	2.46199688e-02	3.67755953e-04
2.35000000e-01	2.44112155e-02	3.66272325e-04
2.35500000e-01	2.44297562e-02	3.64353834e-04
2.36000000e-01	2.42367896e-02	3.62129609e-04
2.36500000e-01	2.41034335e-02	3.59963872e-04
2.37000000e-01	2.44667119e-02	3.62536728e-04
2.37500000e-01	2.45574823e-02	3.64283360e-04
2.38000000e-01	2.41795605e-02	3.57278688e-04
2.38500000e-01	2.38772131e-02	3.54440790e-04
2.39000000e-01	2.40180510e-02	3.54883161e-04
2.39500000e-01	2.41644003e-02	3.55516937e-04
2.40000000e-01	2.39737572e-02	3.52651856e-04
2.40500000e-01	2.37822237e-02	3.49256969e-04
2.41000000e-01	2.41144168e-02	3.54277911e-04
2.41500000e-01	2.39068242e-02	3.49003504e-04
2.42000000e-01	2.37405058e-02	3.48028720e-04
2.42500000e-01	2.40211844e-02	3.51218848e-04
2.43000000e-01	2.41042993e-02	3.50414314e-04
2.43500000e-01	2.36752979e-02	3.44136558e-04
2.44000000e-01	2.38010143e-02	3.47735893e-04
2.44500000e-01	2.38600783e-02	3.47046855e-04
2.45000000e-01	2.37424822e-02	3.44193044e-04
2.45500000e-01	2.36487445e-02	3.42732035e-04
2.46000000e-01	2.37925921e-02	3.43729771e-04
2.46500000e-01	2.35032039e-02	3.39063480e-04
2.47000000e-01	2.37412631e-02	3.43049859e-04
2.47500000e-01	2.36963598e-02	3.40875883e-04
2.48000000e-01	2.35474182e-02	3.39859522e-04
2.48500000e-01	2.37256619e-02	3.40684401e-04
2.49000000e-01	2.35704190e-02	3.38050280e-04
2.49500000e-01	2.36040771e-02	3.39184384e-04
2.50000000e-01	2.36011602e-02	3.37850533e-04
2.50500000e-01	2.34183388e-02	3.36229477e-04
2.51000000e-01	2.34823845e-02	3.35031921e-04
2.51500000e-01	2.31419884e-02	3.31723294e-04
2.52000000e-01	2.31035593e-02	3.30756818e-04
2.52500000e-01	2.35119825e-02	3.34708139e-04
2.53000000e-01	2.35071693e-02	3.35986152e-04
2.53500000e-01	2.30903170e-02	3.28609280e-04
2.54000000e-01	2.33501437e-02	3.32412633e-04
2.54500000e-01	2.34165185e-02	3.33537451e-04
2.55000000e-01	2.30468656e-02	3.27650003e-04
2.55500000e-01	2.31410867e-02	3.28212017e-04
2.56000000e-01	2.33492968e-02	3.30591186e-04
2.56500000e-01	2.31766275e-02	3.27832851e-04
2.57000000e-01	2.31558337e-02	3.26663035e-04
2.57500000e-01	2.30290514e-02	3.26027300e-04
2.58000000e-01	2.34029545e-02	3.30169140e-04
2.58500000e-01	2.29958193e-02	3.24230899e-04
2.59000000e-01	2.29541457e-02	3.23379046e-04
2.59500000e-01	2.29677826e-02	3.22447920e-04
2.60000000e-01	2.31211590e-02	3.23917893e-04
2.60500000e-01	2.29385288e-02	3.21755679e-04
2.61000000e-01	2.28805555e-02	3.20903957e-04
2.61500000e-01	2.32881848e-02	3.26054192e-04
2.62000000e-01	2.27755972e-02	3.18149703e-04
2.62500000e-01	2.29348543e-02	3.20435193e-04
2.63000000e-01	2.29203424e-02	3.20623188e-04
2.63500000e-01	2.26645543e-02	3.16689377e-04
2.64000000e-01	2.28384269e-02	3.19456308e-04
2.64500000e-01	2.26224945e-02	3.15474869e-04
2.65000000e-01	2.29642106e-02	3.19430856e-04
2.65500000e-01	2.26878492e-02	3.16296746e-04
2.66000000e-01	2.26289202e-02	3.14632046e-04
2.66500000e-01	2.28788416e-02	3.16737358e-04
2.67000000e-01	2.28917837e-02	3.16851644e-04
2.67500000e-01	2.27241460e-02	3.14650070e-04
2.68000000e-01	2.28252559e-02	3.14386467e-04
2.68500000e-01	2.25124379e-02	3.09914426e-04
2.69000000e-01	2.25231266e-02	3.10830776e-04
2.69500000e-01	2.23069385e-02	3.06736135e-04
2.70000000e-01	2.24017480e-02	3.09470238e-04
2.70500000e-01	2.22487270e-02	3.05747599e-04
2.71000000e-01	2.25650572e-02	3.08348563e-04
2.71500000e-01	2.25690703e-02	3.09889813e-04
2.72000000e-01	2.24927240e-02	3.07377974e-04
2.72500000e-01	2.24507852e-02	3.07053711e-04
2.73000000e-01	2.23826647e-02	3.06167975e-04
2.73500000e-01	2.24506671e-02	3.06885231e-04
2.74000000e-01	2.24999724e-02	3.08022980e-04
2.74500000e-01	2.23369806e-02	3.04325169e-04
2.75000000e-01	2.25938599e-02	3.07269425e-04
2.75500000e-01	2.24344676e-02	3.06573249e-04
2.76000000e-01	2.23526026e-02	3.04741645e-04
2.76500000e-01	2.22236344e-02	3.03244805e-04
2.77000000e-01	2.24773050e-02	3.04464620e-04
2.77500000e-01	2.22711000e-02	3.02607129e-04
2.78000000e-01	2.23106640e-02	3.02559275e-04
2.78500000e-01	2.23901495e-02	3.03277231e-04
2.79000000e-01	2.23894674e-02	3.03581609e-04
2.79500000e-01	2.22695011e-02	3.01067260e-04
2.80000000e-01	2.20656006e-02	2.98966225e-04
2.80500000e-01	2.21410838e-02	2.98903815e-04
2.81000000e-01	2.22011979e-02	2.99731198e-04
2.81500000e-01	2.22491368e-02	2.99490946e-04
2.82000000e-01	2.19729953e-02	2.96848557e-04
2.82500000e-01	2.23158328e-02	3.00301037e-04
2.83000000e-01	2.22408939e-02	2.99106521e-04
2.83500000e-01	2.19178800e-02	2.93731896e-04
2.84000000e-01	2.20851039e-02	2.96811964e-04
2.84500000e-01	2.19370483e-02	2.93942315e-04
2.85000000e-01	2.22360384e-02	2.97778413e-04
2.85500000e-01	2.20839068e-02	2.95583368e-04
2.86000000e-01	2.22035713e-02	2.97280588e-04
2.86500000e-01	2.18878419e-02	2.93158863e-04
2.87000000e-01	2.17712871e-02	2.90829903e-04
2.87500000e-01	2.17795969e-02	2.90428804e-04
2.88000000e-01	2.19010034e-02	2.91219727e-04
2.88500000e-01	2.19022269e-02	2.91672275e-04
2.89000000e-01	2.19456065e-02	2.91775547e-04
2.89500000e-01	2.18730705e-02	2.91784901e-04
2.90000000e-01	2.18052446e-02	2.90041956e-04
2.90500000e-01	2.19803979e-02	2.91649884e-04
2.91000000e-01	2.20128799e-02	2.91906300e-04
2.91500000e-01	2.19040406e-02	2.89564490e-04
2.92000000e-01	2.16455842e-02	2.86205512e-04
2.92500000e-01	2.19331375e-02	2.90474718e-04
2.93000000e-01	2.19715463e-02	2.89558388e-04
2.93500000e-01	2.18113473e-02	2.87313505e-04
2.94000000e-01	2.17176977e-02	2.85885837e-04
2.94500000e-01	2.17794365e-02	2.87736032e-04
2.95000000e-01	2.17017273e-02	2.84452806e-04
2.95500000e-01	2.14836675e-02	2.83606050e-04
2.96000000e-01	2.17199527e-02	2.85414970e-04
2.96500000e-01	2.17631503e-02	2.85575202e-04
2.97000000e-01	2.16239820e-02	2.84244471e-04
2.97500000e-01	2.17953800e-02	2.84721195e-04
2.98000000e-01	2.15869575e-02	2.83726298e-04
2.98500000e-01	2.16754622e-02	2.84893222e-04
2.99000000e-01	2.17816971e-02	2.84813548e-04
2.99500000e-01	2.16260717e-02	2.82492014e-04
3.00000000e-01	2.16352540e-02	2.82495686e-04
3.00500000e-01	2.15839361e-02	2.82691000e-04
3.01000000e-01	2.14076770e-02	2.79873452e-04
3.01500000e-01	2.18060220e-02	2.84257834e-04
3.02000000e-01	2.15160012e-02	2.80212209e-04
3.02500000e-01	2.16174773e-02	2.80656351e-04
3.03000000e-01	2.15621265e-02	2.80513546e-04
3.03500000e-01	2.14386553e-02	2.77535776e-04
3.04000000e-01	2.16315460e-02	2.80322424e-04
3.04500000e-01	2.14167133e-02	2.77648115e-04
3.05000000e-01	2.13699951e-02	2.77635735e-04
3.05500000e-01	2.14040145e-02	2.77095775e-04
3.06000000e-01	2.13002892e-02	2.74327625e-04
3.06500000e-01	2.15331762e-02	2.76515015e-04
3.07000000e-01	2.14532278e-02	2.75983823e-04
3.07500000e-01	2.15152395e-02	2.77075297e-04
3.08000000e-01	2.15940164e-02	2.77931967e-04
3.08500000e-01	2.12248280e-02	2.72783239e-04
3.09000000e-01	2.13827384e-02	2.75257033e-04
3.09500000e-01	2.15249276e-02	2.76685239e-04
3.10000000e-01	2.14142053e-02	2.74907581e-04
3.10500000e-01	2.13901261e-02	2.74895223e-04
3.11000000e-01	2.11792572e-02	2.71720739e-04
3.11500000e-01	2.12327802e-02	2.72565059e-04
3.12000000e-01	2.13331406e-02	2.73458834e-04
3.12500000e-01	2.11882996e-02	2.71840415e-04
3.13000000e-01	2.13315542e-02	2.71870147e-04
3.13500000e-01	2.13834199e-02	2.73063101e-04
3.14000000e-01	2.10176642e-02	2.68227739e-04
3.14500000e-01	2.10580559e-02	2.68612855e-04
3.15000000e-01	2.13675462e-02	2.73164929e-04
3.15500000e-01	2.14124007e-02	2.73009025e-04
3.16000000e-01	2.12521180e-02	2.70292612e-04
3.16500000e-01	2.11302159e-02	2.68881707e-04
3.17000000e-01	2.11650824e-02	2.68981193e-04
3.17500000e-01	2.14395820e-02	2.72944882e-04
3.18000000e-01	2.09707231e-02	2.65396483e-04
3.18500000e-01	2.10476343e-02	2.67681193e-04
3.19000000e-01	2.10230648e-02	2.66325326e-04
3.19500000e-01	2.11813706e-02	2.67779791e-04
3.20000000e-01	2.11707801e-02	2.68161011e-04
3.20500000e-01	2.10477149e-02	2.65835417e-04
3.21000000e-01	2.11224686e-02	2.67728075e-04
3.21500000e-01	2.08749141e-02	2.64682836e-04
3.22000000e-01	2.11319778e-02	2.66413050e-04
3.22500000e-01	2.10880413e-02	2.65097517e-04
3.23000000e-01	2.11084971e-02	2.65764209e-04
3.23500000e-01	2.09782528e-02	2.64469479e-04
3.24000000e-01	2.08727918e-02	2.62037072e-04
3.24500000e-01	2.11837021e-02	2.67182242e-04
3.25000000e-01	2.08304503e-02	2.62320695e-04
3.25500000e-01	2.09710810e-02	2.62922782e-04
3.26000000e-01	2.09353365e-02	2.62132715e-04
3.26500000e-01	2.08767424e-02	2.61070631e-04
3.27000000e-01	2.09940125e-02	2.62071035e-04
3.27500000e-01	2.08503197e-02	2.60705288e-04
3.28000000e-01	2.07524512e-02	2.59880328e-04
3.28500000e-01	2.07084312e-02	2.57739514e-04
3.29000000e-01	2.09195107e-02	2.60498100e-04
3.29500000e-01	2.10568295e-02	2.63759222e-04
3.30000000e-01	2.08115795e-02	2.58827223e-04
3.30500000e-01	2.09488356e-02	2.61059431e-04
3.31000000e-01	2.08148790e-02	2.59045731e-04
3.31500000e-01	2.07849297e-02	2.58331159e-04
3.32000000e-01	2.06766241e-02	2.57468753e-04
3.32500000e-01	2.08011577e-02	2.58195093e-04
3.33000000e-01	2.06894361e-02	2.57255615e-04
3.33500000e-01	2.06814790e-02	2.56429420e-04
3.34000000e-01	2.07646165e-02	2.57145240e-04
3.34500000e-01	2.05358792e-02	2.55824520e-04
3.35000000e-01	2.08300590e-02	2.57251262e-04
3.35500000e-01	2.07689305e-02	2.57276077e-04
3.36000000e-01	2.07000023e-02	2.55154348e-04
3.36500000e-01	2.07274606e-02	2.55579452e-04
3.37000000e-01	2.05127065e-02	2.52790682e-04
3.37500000e-01	2.07916199e-02	2.56549211e-04
3.38000000e-01	2.06978125e-02	2.54370191e-04
3.38500000e-01	2.08700004e-02	2.56220494e-04
3.39000000e-01	2.07203790e-02	2.55961709e-04
3.39500000e-01	2.06587154e-02	2.52996289e-04
3.40000000e-01	2.04329793e-02	2.51658976e-04
3.40500000e-01	2.06685465e-02	2.53818567e-04
3.41000000e-01	2.04954035e-02	2.51043024e-04
3.41500000e-01	2.04856144e-02	2.51173276e-04
3.42000000e-01	2.06684378e-02	2.52692559e-04
3.42500000e-01	2.06628593e-02	2.53325506e-04
3.43000000e-01	2.04494904e-02	2.50152901e-04
3.43500000e-01	2.06835840e-02	2.52741502e-04
3.44000000e-01	2.06172499e-02	2.52620010e-04
3.44500000e-01	2.06100850e-02	2.52110047e-04
3.45000000e-01	2.06663848e-02	2.52249436e-04
3.45500000e-01	2.06184105e-02	2.50434918e-04
3.46000000e-01	2.04265243e-02	2.48221824e-04
3.46500000e-01	2.08791374e-02	2.53467042e-04
3.47000000e-01	2.03706301e-02	2.48029146e-04
3.47500000e-01	2.03599921e-02	2.47865436e-04
3.48000000e-01	2.05945372e-02	2.49379436e-04
3.48500000e-01	2.05779522e-02	2.50047798e-04
3.49000000e-01	2.04812755e-02	2.48264087e-04
3.49500000e-01	2.06808632e-02	2.50652577e-04
3.50000000e-01	2.05067081e-02	2.03089803e-04
3.51000000e-01	2.03485784e-02	1.74291983e-04
3.52000000e-01	2.03370269e-02	1.73779694e-04
3.53000000e-01	2.02160474e-02	1.72293693e-04
3.54000000e-01	2.04488801e-02	1.74202599e-04
3.55000000e-01	2.04166891e-02	1.73459781e-04
3.56000000e-01	2.03908077e-02	1.74253929e-04
3.57000000e-01	2.03625926e-02	1.76736598e-04
3.58000000e-01	2.03422374e-02	1.78421505e-04
3.59000000e-01	2.02859525e-02	1.79148553e-04
3.60000000e-01	2.02196813e-02	1.79898750e-04
3.61000000e-01	2.03530804e-02	1.81390004e-04
3.62000000e-01	2.03498645e-02	1.82666238e-04
3.63000000e-01	2.01340761e-02	1.81167944e-04
3.64000000e-01	2.03348597e-02	1.83520604e-04
3.65000000e-01	2.02518028e-02	1.83354838e-04
3.66000000e-01	2.02348320e-02	1.81213360e-04
3.67000000e-01	2.01085517e-02	1.77388984e-04
3.68000000e-01	2.02092554e-02	1.76853823e-04
3.69000000e-01	2.01788356e-02	1.76169614e-04
3.70000000e-01	2.02810394e-02	1.75589182e-04
3.71000000e-01	2.01995507e-02	1.77414409e-04
3.72000000e-01	2.02617597e-02	1.79798343e-04
3.73000000e-01	2.01231806e-02	1.78479093e-04
3.74000000e-01	2.00511141e-02	1.78100522e-04
3.75000000e-01	2.01940569e-02	1.79131464e-04
3.76000000e-01	2.02110325e-02	1.79418142e-04
3.77000000e-01	2.00519436e-02	1.78222720e-04
3.78000000e-01	2.00596487e-02	1.78265920e-04
3.79000000e-01	2.00525466e-02	1.78258826e-04
3.80000000e-01	1.99945870e-02	1.76931504e-04
3.81000000e-01	1.98774459e-02	1.75931139e-04
3.82000000e-01	1.99826487e-02	1.77186538e-04
3.83000000e-01	2.00214125e-02	1.77061275e-04
3.84000000e-01	1.99629965e-02	1.76814005e-04
3.85000000e-01	2.00014157e-02	1.76932676e-04
3.86000000e-01	2.00014204e-02	1.77124816e-04
3.87000000e-01	2.00914541e-02	1.77851040e-04
3.88000000e-01	1.98523891e-02	1.75827874e-04
3.89000000e-01	2.01239600e-02	1.78009639e-04
3.90000000e-01	1.99804789e-02	1.76687107e-04
3.91000000e-01	1.99444940e-02	1.76076451e-04
3.92000000e-01	2.00325822e-02	1.76988030e-04
3.93000000e-01	1.98782606e-02	1.75563583e-04
3.94000000e-01	1.98934864e-02	1.75665404e-04
3.95000000e-01	2.00266525e-02	1.76386561e-04
3.96000000e-01	2.01304136e-02	1.77177947e-04
3.97000000e-01	1.98556724e-02	1.75140692e-04
3.98000000e-01	1.98645875e-02	1.75456899e-04
3.99000000e-01	1.99931545e-02	1.76630408e-04
4.00000000e-01	1.98319963e-02	1.75330829e-04
4.01000000e-01	1.99635877e-02	1.75760729e-04
4.02000000e-01	1.97806455e-02	1.74567168e-04
4.03000000e-01	1.97451386e-02	1.74114877e-04
4.04000000e-01	1.97205816e-02	1.73634843e-04
4.05000000e-01	1.99586657e-02	1.76231731e-04
4.06000000e-01	1.97717682e-02	1.74116381e-04
4.07000000e-01	1.97985967e-02	1.74424902e-04
4.08000000e-01	1.98446883e-02	1.74828795e-04
4.09000000e-01	1.99182956e-02	1.74851346e-04
4.10000000e-01	1.97225991e-02	1.73597103e-04
4.11000000e-01	1.98450763e-02	1.74222087e-04
4.12000000e-01	1.97607714e-02	1.74060384e-04
4.13000000e-01	1.99399865e-02	1.75333079e-04
4.14000000e-01	1.97043093e-02	1.73158511e-04
4.15000000e-01	1.97598252e-02	1.73191813e-04
4.16000000e-01	1.97582359e-02	1.73457858e-04
4.17000000e-01	1.97120486e-02	1.72764343e-04
4.18000000e-01	1.97317012e-02	1.74785424e-04
4.19000000e-01	1.98910196e-02	1.78330807e-04
4.20000000e-01	1.98190353e-02	1.79021609e-04
4.21000000e-01	1.99378129e-02	1.80319451e-04
4.22000000e-01	1.98984231e-02	1.80569618e-04
4.23000000e-01	1.98440066e-02	1.80752966e-04
4.24000000e-01	1.99490533e-02	1.82701614e-04
4.25000000e-01	1.98900327e-02	1.82117829e-04
4.26000000e-01	1.98784125e-02	1.82226368e-04
4.27000000e-01	2.01325026e-02	1.84010437e-04
4.28000000e-01	1.98212048e-02	1.81635589e-04
4.29000000e-01	1.99460231e-02	1.83240323e-04
4.30000000e-01	1.98379069e-02	1.81594946e-04
4.31000000e-01	1.99176628e-02	1.82309462e-04
4.32000000e-01	1.98603513e-02	1.82387014e-04
4.33000000e-01	1.98648429e-02	1.82299747e-04
4.34000000e-01	1.98166748e-02	1.82894645e-04
4.35000000e-01	1.98647585e-02	1.82943188e-04
4.36000000e-01	1.99231954e-02	1.83371381e-04
4.37000000e-01	1.97817998e-02	1.82689927e-04
4.38000000e-01	1.97689752e-02	1.82656392e-04
4.39000000e-01	1.99770142e-02	1.84881184e-04
4.40000000e-01	1.97824796e-02	1.83306809e-04
4.41000000e-01	1.98143659e-02	1.83571940e-04
4.42000000e-01	1.98588406e-02	1.84640047e-04
4.43000000e-01	1.97785819e-02	1.84179408e-04
4.44000000e-01	1.97842369e-02	1.84106965e-04
4.45000000e-01	1.98392893e-02	1.84863608e-04
4.46000000e-01	1.96774973e-02	1.83592447e-04
4.47000000e-01	1.97244899e-02	1.84571780e-04
4.48000000e-01	1.97562320e-02	1.84203564e-04
4.49000000e-01	1.98625054e-02	1.86237926e-04
4.50000000e-01	1.96962374e-02	1.84800408e-04
4.51000000e-01	1.97401906e-02	1.85155766e-04
4.52000000e-01	1.98710891e-02	1.85989049e-04
4.53000000e-01	1.98176700e-02	1.86048590e-04
4.54000000e-01	1.99188968e-02	1.87103000e-04
4.55000000e-01	1.99036324e-02	1.87132291e-04
4.56000000e-01	1.98989839e-02	1.87489237e-04
4.57000000e-01	1.98749786e-02	1.87448657e-04
4.58000000e-01	1.98607680e-02	1.87341041e-04
4.59000000e-01	1.98878733e-02	1.87660964e-04
4.60000000e-01	1.96910261e-02	1.86077087e-04
4.61000000e-01	1.97883054e-02	1.86843842e-04
4.62000000e-01	1.96668491e-02	1.86488771e-04
4.63000000e-01	1.99542737e-02	1.88901698e-04
4.64000000e-01	1.98909485e-02	1.87944700e-04
4.65000000e-01	1.96215761e-02	1.86314344e-04
4.66000000e-01	1.99953870e-02	1.89416379e-04
4.67000000e-01	1.97826995e-02	1.87883869e-04
4.68000000e-01	1.97839940e-02	1.87906010e-04
4.69000000e-01	1.97913743e-02	1.88495730e-04
4.70000000e-01	1.98745661e-02	1.88541972e-04
4.71000000e-01	1.97695130e-02	1.87925326e-04
4.72000000e-01	1.98116686e-02	1.88385433e-04
4.73000000e-01	2.00727572e-02	1.90217041e-04
4.74000000e-01	1.98158745e-02	1.88173899e-04
4.75000000e-01	1.96656304e-02	1.86471754e-04
4.76000000e-01	1.97949470e-02	1.87980136e-04
4.77000000e-01	1.99020806e-02	1.88911301e-04
4.78000000e-01	1.96783892e-02	1.87126704e-04
4.79000000e-01	1.97756630e-02	1.88199385e-04
4.80000000e-01	1.97058586e-02	1.87145690e-04
4.81000000e-01	1.98432084e-02	1.88745147e-04
4.82000000e-01	1.98690297e-02	1.89085592e-04
4.83000000e-01	1.99064051e-02	1.89361199e-04
4.84000000e-01	1.98909633e-02	1.89391360e-04
4.85000000e-01	1.99506226e-02	1.90057188e-04
4.86000000e-01	1.97857480e-02	1.88691279e-04
4.87000000e-01	1.98132485e-02	1.88928279e-04
4.88000000e-01	1.98630473e-02	1.89117564e-04
4.89000000e-01	1.99200779e-02	1.90226504e-04
4.90000000e-01	2.00364261e-02	1.91800929e-04
4.91000000e-01	1.99275758e-02	1.90338571e-04
4.92000000e-01	1.98244112e-02	1.89694695e-04
4.93000000e-01	1.98401879e-02	1.90104407e-04
4.94000000e-01	1.98296273e-02	1.90268689e-04
4.95000000e-01	1.99956834e-02	1.92447462e-04
4.96000000e-01	2.00025124e-02	1.98280285e-04
4.97000000e-01	1.99574513e-02	2.01228414e-04
4.98000000e-01	1.99975669e-02	2.05037173e-04
4.99000000e-01	2.01980863e-02	2.08955527e-04
5.00000000e-01	2.00132550e-02	2.09304926e-04
5.01000000e-01	1.99983462e-02	2.12002375e-04
5.02000000e-01	2.00398858e-02	2.13819083e-04
5.03000000e-01	2.01127847e-02	2.16383117e-04
5.04000000e-01	2.01219878e-02	2.17466979e-04
5.05000000e-01	2.02274150e-02	2.15761165e-04
5.06000000e-01	2.01534321e-02	2.10773621e-04
5.07000000e-01	2.01523011e-02	2.08348392e-04
5.08000000e-01	2.02256407e-02	2.07422850e-04
5.09000000e-01	2.02810164e-02	2.07347271e-04
5.10000000e-01	2.00972049e-02	2.05309958e-04
5.11000000e-01	2.01760625e-02	2.05035665e-04
5.12000000e-01	2.00384840e-02	2.03392799e-04
5.13000000e-01	2.00797127e-02	2.04310016e-04
5.14000000e-01	1.99201466e-02	2.01695452e-04
5.15000000e-01	2.01394184e-02	2.02859678e-04
5.16000000e-01	2.01248537e-02	2.02266036e-04
5.17000000e-01	2.00193463e-02	2.01081826e-04
5.18000000e-01	2.00936621e-02	2.01550976e-04
5.19000000e-01	2.01169469e-02	2.01390648e-04
5.20000000e-01	2.00146575e-02	1.99723358e-04
5.21000000e-01	2.01226341e-02	2.00482110e-04
5.22000000e-01	1.99493275e-02	1.98848373e-04
5.23000000e-01	2.01716238e-02	2.00842059e-04
5.24000000e-01	2.01534140e-02	2.00412160e-04
5.25000000e-01	2.02319348e-02	2.00988059e-04
5.26000000e-01	2.02119751e-02	2.01141050e-04
5.27000000e-01	1.99090276e-02	1.97709620e-04
5.28000000e-01	1.98453378e-02	1.97906144e-04
5.29000000e-01	2.02902053e-02	2.01607249e-04
5.30000000e-01	2.02420789e-02	2.00796786e-04
5.31000000e-01	2.02019344e-02	2.00990642e-04
5.32000000e-01	2.00405469e-02	1.99903792e-04
5.33000000e-01	2.03953829e-02	2.02531813e-04
5.34000000e-01	2.01454319e-02	2.00251916e-04
5.35000000e-01	2.02528616e-02	2.01618906e-04
5.36000000e-01	2.01401224e-02	2.00059097e-04
5.37000000e-01	2.03657846e-02	2.02203761e-04
5.38000000e-01	2.02215470e-02	2.01011961e-04
5.39000000e-01	2.02529588e-02	2.01146109e-04
5.40000000e-01	2.01332382e-02	1.99928214e-04
5.41000000e-01	2.02770458e-02	2.01409542e-04
5.42000000e-01	2.02946441e-02	2.01920658e-04
5.43000000e-01	2.02684640e-02	2.00843756e-04
5.44000000e-01	2.01644157e-02	2.00309009e-04
5.45000000e-01	2.01435902e-02	1.99826574e-04
5.46000000e-01	2.00157848e-02	1.98805555e-04
5.47000000e-01	2.02064128e-02	2.00602914e-04
5.48000000e-01	2.02371362e-02	2.00449561e-04
5.49000000e-01	2.03888839e-02	2.02231685e-04
5.50000000e-01	2.01874773e-02	2.00670750e-04
5.51000000e-01	2.01839035e-02	1.99647062e-04
5.52000000e-01	2.03689141e-02	2.00647818e-04
5.53000000e-01	2.02885449e-02	1.99964180e-04
5.54000000e-01	2.01831457e-02	1.99132326e-04
5.55000000e-01	2.03715949e-02	2.01058470e-04
5.56000000e-01	2.03102717e-02	1.99997345e-04
5.57000000e-01	2.01662881e-02	1.98610978e-04
5.58000000e-01	2.04240135e-02	2.01143237e-04
5.59000000e-01	2.03216204e-02	2.00311909e-04
5.60000000e-01	2.02648247e-02	1.99821346e-04
5.61000000e-01	2.02987983e-02	1.99677751e-04
5.62000000e-01	2.03484797e-02	2.00262118e-04
5.63000000e-01	2.02971683e-02	1.99791156e-04
5.64000000e-01	2.01125654e-02	1.98045136e-04
5.65000000e-01	2.01841175e-02	1.99323707e-04
5.66000000e-01	2.02092710e-02	1.99081220e-04
5.67000000e-01	2.02873572e-02	2.00358481e-04
5.68000000e-01	2.02973884e-02	2.00252561e-04
5.69000000e-01	2.03741571e-02	2.00029250e-04
5.70000000e-01	2.03494208e-02	2.00050801e-04
5.71000000e-01	2.03683804e-02	2.00315815e-04
5.72000000e-01	2.03119388e-02	1.99897072e-04
5.73000000e-01	2.02571574e-02	1.99740475e-04
5.74000000e-01	2.03738473e-02	2.00549676e-04
5.75000000e-01	2.04229965e-02	2.01361796e-04
5.76000000e-01	2.02195483e-02	1.99436093e-04
5.77000000e-01	2.03269190e-02	2.00174259e-04
5.78000000e-01	2.03689088e-02	2.00774236e-04
5.79000000e-01	2.02541387e-02	1.99852571e-04
5.80000000e-01	2.04979041e-02	2.01753381e-04
5.81000000e-01	2.02555942e-02	1.99846390e-04
5.82000000e-01	2.03118971e-02	2.00635266e-04
5.83000000e-01	2.01744660e-02	1.99179177e-04
5.84000000e-01	2.04047313e-02	2.01199069e-04
5.85000000e-01	2.02137910e-02	1.99576375e-04
5.86000000e-01	2.02311944e-02	1.99902730e-04
5.87000000e-01	2.02797734e-02	2.00507275e-04
5.88000000e-01	2.02762031e-02	2.00197818e-04
5.89000000e-01	2.02846054e-02	2.00462064e-04
5.90000000e-01	2.02434082e-02	2.00279485e-04
5.91000000e-01	2.03910305e-02	2.01374373e-04
5.92000000e-01	2.04654486e-02	2.01658836e-04
5.93000000e-01	2.03951810e-02	2.01391498e-04
5.94000000e-01	2.03257405e-02	2.00273585e-04
5.95000000e-01	2.03566294e-02	2.00778881e-04
5.96000000e-01	2.02892744e-02	2.00448062e-04
5.97000000e-01	2.03675729e-02	2.01284207e-04
5.98000000e-01	2.02123333e-02	1.99669520e-04
5.99000000e-01	2.01744719e-02	1.99111861e-04
6.00000000e-01	2.03535074e-02	2.01056534e-04
6.01000000e-01	2.05068701e-02	2.02548636e-04
6.02000000e-01	2.02626353e-02	2.00375274e-04
6.03000000e-01	2.03299627e-02	2.00992220e-04
6.04000000e-01	2.02860337e-02	2.00966014e-04
6.05000000e-01	2.02503532e-02	2.00164094e-04
6.06000000e-01	2.02821611e-02	2.00630624e-04
6.07000000e-01	2.04098039e-02	2.01578587e-04
6.08000000e-01	2.03477091e-02	2.01377698e-04
6.09000000e-01	2.02953706e-02	2.00614457e-04
6.10000000e-01	2.04237887e-02	2.01679203e-04
6.11000000e-01	2.03345873e-02	2.01495516e-04
6.12000000e-01	2.03922204e-02	2.02111742e-04
6.13000000e-01	2.05632962e-02	2.03851029e-04
6.14000000e-01	2.02608404e-02	2.00510449e-04
6.15000000e-01	2.03048759e-02	2.01163105e-04
6.16000000e-01	2.03100775e-02	2.01173933e-04
6.17000000e-01	2.04294585e-02	2.02380203e-04
6.18000000e-01	2.04660465e-02	2.02152401e-04
6.19000000e-01	2.02403191e-02	2.00121756e-04
6.20000000e-01	2.02443029e-02	2.00106324e-04
6.21000000e-01	2.03550998e-02	2.01253392e-04
6.22000000e-01	2.02931066e-02	2.00363210e-04
6.23000000e-01	2.03684068e-02	2.00406965e-04
6.24000000e-01	2.02433700e-02	1.99208743e-04
6.25000000e-01	2.00442223e-02	1.96907141e-04
6.26000000e-01	2.02627126e-02	1.98926377e-04
6.27000000e-01	2.03841627e-02	2.00192037e-04
6.28000000e-01	2.03083282e-02	1.99298576e-04
6.29000000e-01	2.02959808e-02	1.99252357e-04
6.30000000e-01	2.02920045e-02	1.99733444e-04
6.31000000e-01	2.04765558e-02	2.00739944e-04
6.32000000e-01	2.04231488e-02	2.00647898e-04
6.33000000e-01	2.02976264e-02	1.99405064e-04
6.34000000e-01	2.02548627e-02	2.04560541e-04
6.35000000e-01	2.03087737e-02	2.10066305e-04
6.36000000e-01	2.03722335e-02	2.14855303e-04
6.37000000e-01	2.04119074e-02	2.18661464e-04
6.38000000e-01	2.01956776e-02	2.19459001e-04
6.39000000e-01	2.03718427e-02	2.23436023e-04
6.40000000e-01	2.04220631e-02	2.27754866e-04
6.41000000e-01	2.03000940e-02	2.28658158e-04
6.42000000e-01	2.03921937e-02	2.31631178e-04
6.43000000e-01	2.04243723e-02	2.31915112e-04
6.44000000e-01	2.07041118e-02	2.27011270e-04
6.45000000e-01	2.04679407e-02	2.20673091e-04
6.46000000e-01	2.03214144e-02	2.17777049e-04
6.47000000e-01	2.04754016e-02	2.17555487e-04
6.48000000e-01	2.02463188e-02	2.14098168e-04
6.49000000e-01	2.03908526e-02	2.14429208e-04
6.50000000e-01	2.03487451e-02	2.12255241e-04
6.51000000e-01	2.03634658e-02	2.11559408e-04
6.52000000e-01	2.03507444e-02	2.11217961e-04
6.53000000e-01	2.03119187e-02	2.09507898e-04
6.54000000e-01	2.05653403e-02	2.11744989e-04
6.55000000e-01	2.02571160e-02	2.08408874e-04
6.56000000e-01	2.03136731e-02	2.08404895e-04
6.57000000e-01	2.05289376e-02	2.10308958e-04
6.58000000e-01	2.04131537e-02	2.08578299e-04
6.59000000e-01	2.03709812e-02	2.08278248e-04
6.60000000e-01	2.03066482e-02	2.07569815e-04
6.61000000e-01	2.02136834e-02	2.06372464e-04
6.62000000e-01	2.04248447e-02	2.08552668e-04
6.63000000e-01	2.01564807e-02	2.06005540e-04
6.64000000e-01	2.01352203e-02	2.05673568e-04
6.65000000e-01	2.03653387e-02	2.07980493e-04
6.66000000e-01	2.03220478e-02	2.07274545e-04
6.67000000e-01	2.03184487e-02	2.06946477e-04
6.68000000e-01	2.01900782e-02	2.05643337e-04
6.69000000e-01	2.02010373e-02	2.05455461e-04
6.70000000e-01	2.02750590e-02	2.06110599e-04
6.71000000e-01	2.02263636e-02	2.05725754e-04
6.72000000e-01	2.01139689e-02	2.04379869e-04
6.73000000e-01	2.02409054e-02	2.05412320e-04
6.74000000e-01	2.01025960e-02	2.04551742e-04
6.75000000e-01	2.00298948e-02	2.03787434e-04
6.76000000e-01	2.00782429e-02	2.04177204e-04
6.77000000e-01	2.00254877e-02	2.03416979e-04
6.78000000e-01	2.00929904e-02	2.03596317e-04
6.79000000e-01	2.00433290e-02	2.03506250e-04
6.80000000e-01	2.00171816e-02	2.02987941e-04
6.81000000e-01	1.99721857e-02	2.02788230e-04
6.82000000e-01	1.98890357e-02	2.01770589e-04
6.83000000e-01	1.99822836e-02	2.02853985e-04
6.84000000e-01	1.98831141e-02	2.01704399e-04
6.85000000e-01	2.00518406e-02	2.03459846e-04
6.86000000e-01	1.99395161e-02	2.02283870e-04
6.87000000e-01	1.99731551e-02	2.02263295e-04
6.88000000e-01	1.97946066e-02	2.00826313e-04
6.89000000e-01	1.98781313e-02	2.01033395e-04
6.90000000e-01	2.00084486e-02	2.03307428e-04
6.91000000e-01	1.98158204e-02	2.00687456e-04
6.92000000e-01	1.99209105e-02	2.01951656e-04
6.93000000e-01	1.98420309e-02	2.00864663e-04
6.94000000e-01	1.98720401e-02	2.01390275e-04
6.95000000e-01	1.98765172e-02	2.01404856e-04
6.96000000e-01	1.98659592e-02	2.01129489e-04
6.97000000e-01	1.97434479e-02	1.99614141e-04
6.98000000e-01	1.96362614e-02	1.99006980e-04
6.99000000e-01	1.97112019e-02	1.99651550e-04
7.00000000e-01	1.98512398e-02	2.00891685e-04
7.01000000e-01	1.97722263e-02	2.00617384e-04
7.02000000e-01	1.96666340e-02	1.98847584e-04
7.03000000e-01	1.95501640e-02	1.97837503e-04
7.04000000e-01	1.97191677e-02	1.99617493e-04
7.05000000e-01	1.95301977e-02	1.97790272e-04
7.06000000e-01	1.95406716e-02	1.97941866e-04
7.07000000e-01	1.95808068e-02	1.97981679e-04
7.08000000e-01	1.95264123e-02	1.97141884e-04
7.09000000e-01	1.94389487e-02	1.96121849e-04
7.10000000e-01	1.96511110e-02	1.98479577e-04
7.11000000e-01	1.94051971e-02	1.96386912e-04
7.12000000e-01	1.94620718e-02	1.97158858e-04
7.13000000e-01	1.94293407e-02	1.96498677e-04
7.14000000e-01	1.93850142e-02	1.95885448e-04
7.15000000e-01	1.94117341e-02	1.96429407e-04
7.16000000e-01	1.93547840e-02	1.95970041e-04
7.17000000e-01	1.93429648e-02	1.96039520e-04
7.18000000e-01	1.92038210e-02	1.94439546e-04
7.19000000e-01	1.91347799e-02	1.94060664e-04
7.20000000e-01	1.91370107e-02	1.94055887e-04
7.21000000e-01	1.92443093e-02	1.94912796e-04
7.22000000e-01	1.90268210e-02	1.92505024e-04
7.23000000e-01	1.90266182e-02	1.92881084e-04
7.24000000e-01	1.90501730e-02	1.93249591e-04
7.25000000e-01	1.91284601e-02	1.93914839e-04
7.26000000e-01	1.91221494e-02	1.94084735e-04
7.27000000e-01	1.90504396e-02	1.93042491e-04
7.28000000e-01	1.90318498e-02	1.92601145e-04
7.29000000e-01	1.91130350e-02	1.93651162e-04
7.30000000e-01	1.87696607e-02	1.90460606e-04
7.31000000e-01	1.90788535e-02	1.93881545e-04
7.32000000e-01	1.91255456e-02	1.93435243e-04
7.33000000e-01	1.89324309e-02	1.91773777e-04
7.34000000e-01	1.88989094e-02	1.91219118e-04
7.35000000e-01	1.89054359e-02	1.91419457e-04
7.36000000e-01	1.88286773e-02	1.90620823e-04
7.37000000e-01	1.88721594e-02	1.90388835e-04
7.38000000e-01	1.87627335e-02	1.89331764e-04
7.39000000e-01	1.87068315e-02	1.88457980e-04
7.40000000e-01	1.87400784e-02	1.88624206e-04
7.41000000e-01	1.86079681e-02	1.87221769e-04
7.42000000e-01	1.86691564e-02	1.87442808e-04
7.43000000e-01	1.87175155e-02	1.87716632e-04
7.44000000e-01	1.87285711e-02	1.87815430e-04
7.45000000e-01	1.86334059e-02	1.86991427e-04
7.46000000e-01	1.89357640e-02	1.89861844e-04
7.47000000e-01	1.85281039e-02	1.86399250e-04
7.48000000e-01	1.87644485e-02	1.88095028e-04
7.49000000e-01	1.87425169e-02	1.87848102e-04
7.50000000e-01	1.86590642e-02	1.87068023e-04
7.51000000e-01	1.84756466e-02	1.85833407e-04
7.52000000e-01	1.86716650e-02	1.87750832e-04
7.53000000e-01	1.85894363e-02	1.86778277e-04
7.54000000e-01	1.84353403e-02	1.85433378e-04
7.55000000e-01	1.85423232e-02	1.86319026e-04
7.56000000e-01	1.84353414e-02	1.85812880e-04
7.57000000e-01	1.84792206e-02	1.85602224e-04
7.58000000e-01	1.84353021e-02	1.85592786e-04
7.59000000e-01	1.83384955e-02	1.84074983e-04
7.60000000e-01	1.84421771e-02	1.84642744e-04
7.61000000e-01	1.84444358e-02	1.84723493e-04
7.62000000e-01	1.83054101e-02	1.83091801e-04
7.63000000e-01	1.83778878e-02	1.83276739e-04
7.64000000e-01	1.83427018e-02	1.83025783e-04
7.65000000e-01	1.82446378e-02	1.81674902e-04
7.66000000e-01	1.82757675e-02	1.81873092e-04
7.67000000e-01	1.83318076e-02	1.82799235e-04
7.68000000e-01	1.81857681e-02	1.81044389e-04
7.69000000e-01	1.81447477e-02	1.80944798e-04
7.70000000e-01	1.81450894e-02	1.80987655e-04
7.71000000e-01	1.81782250e-02	1.81264600e-04
7.72000000e-01	1.82430036e-02	1.87184065e-04
7.73000000e-01	1.79179753e-02	1.90513533e-04
7.74000000e-01	1.81002669e-02	1.95930373e-04
7.75000000e-01	1.80666282e-02	1.98823326e-04
7.76000000e-01	1.80684651e-02	2.02301757e-04
7.77000000e-01	1.79424626e-02	2.03046469e-04
7.78000000e-01	1.79369258e-02	2.06314846e-04
7.79000000e-01	1.83508667e-02	2.13075540e-04
7.80000000e-01	1.80804449e-02	2.12223955e-04
7.81000000e-01	1.79411951e-02	2.13453069e-04
7.82000000e-01	1.78357808e-02	2.14452752e-04
7.83000000e-01	1.81157714e-02	2.20029826e-04
7.84000000e-01	1.80203051e-02	2.22105034e-04
7.85000000e-01	1.80420231e-02	2.23409258e-04
7.86000000e-01	1.77974171e-02	2.24099283e-04
7.87000000e-01	1.78555081e-02	2.26776971e-04
7.88000000e-01	1.77748678e-02	2.27692691e-04
7.89000000e-01	1.78300328e-02	2.30999096e-04
7.90000000e-01	1.79501800e-02	2.35632498e-04
7.91000000e-01	1.75874758e-02	2.32298855e-04
7.92000000e-01	1.80099414e-02	2.38666779e-04
7.93000000e-01	1.78404275e-02	2.39842038e-04
7.94000000e-01	1.78084944e-02	2.42311655e-04
7.95000000e-01	1.74763241e-02	2.40573021e-04
7.96000000e-01	1.77176766e-02	2.46329670e-04
7.97000000e-01	1.75457853e-02	2.45706180e-04
7.98000000e-01	1.80047054e-02	2.55002202e-04
7.99000000e-01	1.76185019e-02	2.51715857e-04
8.00000000e-01	1.77428713e-02	2.56380982e-04
8.01000000e-01	1.76091010e-02	2.57111246e-04
8.02000000e-01	1.76796436e-02	2.60409020e-04
8.03000000e-01	1.74887550e-02	2.60898589e-04
8.04000000e-01	1.75686621e-02	2.65738497e-04
8.05000000e-01	1.73842238e-02	2.64221537e-04
8.06000000e-01	1.71650116e-02	2.65096492e-04
8.07000000e-01	1.74487147e-02	2.71746754e-04
8.08000000e-01	1.73590130e-02	2.73977118e-04
8.09000000e-01	1.73737402e-02	2.76145873e-04
8.10000000e-01	1.75970357e-02	2.83236896e-04
8.11000000e-01	1.71690062e-02	2.79813858e-04
8.12000000e-01	1.73187966e-02	2.85167597e-04
8.13000000e-01	1.74208212e-02	2.90522553e-04
8.14000000e-01	1.73242241e-02	2.90856746e-04
8.15000000e-01	1.72761576e-02	2.95185763e-04
8.16000000e-01	1.74333286e-02	2.98996111e-04
8.17000000e-01	1.70102420e-02	2.97190730e-04
8.18000000e-01	1.72360319e-02	3.05866254e-04
8.19000000e-01	1.71890595e-02	3.07974248e-04
8.20000000e-01	1.70729888e-02	3.10935015e-04
8.21000000e-01	1.69760165e-02	3.13829927e-04
8.22000000e-01	1.72210559e-02	3.20521021e-04
8.23000000e-01	1.72226738e-02	3.26545464e-04
8.24000000e-01	1.73541119e-02	3.31358153e-04
8.25000000e-01	1.71135668e-02	3.30176173e-04
8.26000000e-01	1.68101456e-02	3.32459740e-04
8.27000000e-01	1.68632214e-02	3.37080389e-04
8.28000000e-01	1.70034392e-02	3.46613228e-04
8.29000000e-01	1.69236923e-02	3.50116713e-04
8.30000000e-01	1.68101684e-02	3.51727363e-04
8.31000000e-01	1.66883403e-02	3.55868026e-04
8.32000000e-01	1.67004752e-02	3.62823468e-04
8.33000000e-01	1.68105435e-02	3.71329472e-04
8.34000000e-01	1.66348835e-02	3.70772855e-04
8.35000000e-01	1.70008648e-02	3.88466111e-04
8.36000000e-01	1.67882245e-02	3.91651036e-04
8.37000000e-01	1.66696706e-02	3.96584152e-04
8.38000000e-01	1.64806011e-02	3.98035037e-04
8.39000000e-01	1.71360526e-02	4.22709655e-04
8.40000000e-01	1.68094276e-02	4.20681949e-04
8.41000000e-01	1.68730254e-02	4.35618240e-04
8.42000000e-01	1.65671476e-02	4.34452279e-04
8.43000000e-01	1.65010927e-02	4.45511345e-04
8.44000000e-01	1.61989201e-02	4.52155373e-04
8.45000000e-01	1.63283481e-02	4.63965336e-04
8.46000000e-01	1.67542127e-02	4.92909601e-04
8.47000000e-01	1.70590085e-02	5.10123800e-04
8.48000000e-01	1.66361890e-02	5.12742249e-04
8.49000000e-01	1.67882501e-02	5.36830936e-04
8.50000000e-01	1.66629178e-02	5.50755017e-04
8.51000000e-01	1.67744682e-02	5.74508917e-04
8.52000000e-01	1.66679188e-02	5.97821331e-04
8.53000000e-01	1.67418602e-02	6.22933693e-04
8.54000000e-01	1.62856403e-02	6.27967328e-04
8.55000000e-01	1.61470888e-02	6.50260484e-04
8.56000000e-01	1.67290336e-02	6.90399907e-04
8.57000000e-01	1.61952957e-02	6.91522806e-04
8.58000000e-01	1.67827135e-02	7.36465985e-04
8.59000000e-01	1.67358345e-02	7.52704851e-04
8.60000000e-01	1.65522299e-02	7.64709163e-04
8.61000000e-01	1.59969798e-02	7.81530903e-04
8.62000000e-01	1.64802368e-02	8.29955739e-04
8.63000000e-01	1.57930252e-02	8.36322406e-04
8.64000000e-01	1.69112287e-02	9.24213137e-04
8.65000000e-01	1.64527760e-02	9.24256003e-04
8.66000000e-01	1.64881509e-02	9.77898816e-04
8.67000000e-01	1.69694523e-02	1.07095932e-03
8.68000000e-01	1.55805357e-02	1.06141943e-03
8.69000000e-01	1.57057279e-02	1.16636089e-03
8.70000000e-01	1.61010014e-02	1.28909207e-03
8.71000000e-01	1.70280344e-02	1.46641316e-03
8.72000000e-01	1.75086294e-02	1.68449114e-03
8.73000000e-01	1.71037343e-02	1.97524176e-03
8.74000000e-01	1.69571609e-02	2.50090749e-03
8.75000000e-01	1.23508476e-02	3.94533524e-03
