% Filename : SHF7_00029_00025.h5
% Date & Time : 30-Oct-2025 17:16:11
% X-ray Energy (keV) : 13.30001
% Exposure Time (s) : 0.500
% Beam Center : 1461.24000, 208.98300
% Sample to Detector Distance (SDD) (mm) : 1990.750
% Detector Pixel Size (mm) : 0.075
% Photodiode Value : 138700.000
% I0 of Sample : 0
% I0 of Standard : 1
% 
% q(A^-1)   I(q)    I(q)_SE
0.00000000e+00	1.56309143e-02	8.02962781e-03
2.50000000e-04	0.00000000e+00	0.00000000e+00
5.00000000e-04	0.00000000e+00	0.00000000e+00
7.50000000e-04	0.00000000e+00	0.00000000e+00
1.00000000e-03	0.00000000e+00	0.00000000e+00
1.25000000e-03	0.00000000e+00	0.00000000e+00
1.50000000e-03	0.00000000e+00	0.00000000e+00
1.75000000e-03	0.00000000e+00	0.00000000e+00
2.00000000e-03	0.00000000e+00	0.00000000e+00
2.25000000e-03	0.00000000e+00	0.00000000e+00
2.50000000e-03	0.00000000e+00	0.00000000e+00
2.75000000e-03	0.00000000e+00	0.00000000e+00
3.00000000e-03	0.00000000e+00	0.00000000e+00
3.25000000e-03	6.18861721e+02	3.60112994e+02
3.50000000e-03	3.24019039e+02	8.61150006e+01
3.75000000e-03	2.20175895e+02	4.99543005e+01
4.00000000e-03	1.66301312e+02	3.42382214e+01
4.25000000e-03	1.05818340e+02	1.76217751e+01
4.50000000e-03	9.57873557e+01	1.37469635e+01
4.75000000e-03	8.87142585e+01	1.13437902e+01
5.00000000e-03	7.20758327e+01	8.85004513e+00
5.25000000e-03	6.14845974e+01	7.46271746e+00
5.50000000e-03	5.39221458e+01	6.27603453e+00
5.75000000e-03	4.62309588e+01	5.16010699e+00
6.00000000e-03	3.89799002e+01	4.25694040e+00
6.25000000e-03	3.43867509e+01	3.67456891e+00
6.50000000e-03	2.96955792e+01	3.06031160e+00
6.75000000e-03	2.64259749e+01	2.66871303e+00
7.00000000e-03	2.36967741e+01	2.30351927e+00
7.25000000e-03	2.06041628e+01	1.94369292e+00
7.50000000e-03	1.84484423e+01	1.73373339e+00
7.75000000e-03	1.63908931e+01	1.49874413e+00
8.00000000e-03	1.52355609e+01	1.36033016e+00
8.25000000e-03	1.35892290e+01	1.17005892e+00
8.50000000e-03	1.23464932e+01	1.04576845e+00
8.75000000e-03	1.13566328e+01	9.57847675e-01
9.00000000e-03	1.03651204e+01	8.61021717e-01
9.25000000e-03	9.54494597e+00	7.69804022e-01
9.50000000e-03	8.72825299e+00	6.88009506e-01
9.75000000e-03	7.92500693e+00	6.19501736e-01
1.00000000e-02	7.30752596e+00	5.62925710e-01
1.02500000e-02	6.72535487e+00	5.18534716e-01
1.05000000e-02	6.37580907e+00	4.72301269e-01
1.07500000e-02	5.88657565e+00	4.36526361e-01
1.10000000e-02	5.44149069e+00	3.93689093e-01
1.12500000e-02	5.11646011e+00	3.76098304e-01
1.15000000e-02	4.77484015e+00	3.43153071e-01
1.17500000e-02	4.37542352e+00	3.05426866e-01
1.20000000e-02	4.12903167e+00	2.87696965e-01
1.22500000e-02	3.86689967e+00	2.65336503e-01
1.25000000e-02	3.63957560e+00	2.47880718e-01
1.27500000e-02	3.42696575e+00	2.30370515e-01
1.30000000e-02	3.22775574e+00	2.13617463e-01
1.32500000e-02	2.99316082e+00	1.93639701e-01
1.35000000e-02	2.80733077e+00	1.82244493e-01
1.37500000e-02	2.66285167e+00	1.71530635e-01
1.40000000e-02	2.49006439e+00	1.58550914e-01
1.42500000e-02	2.34606568e+00	1.46654169e-01
1.45000000e-02	2.23903443e+00	1.38636812e-01
1.47500000e-02	2.10290302e+00	1.29550748e-01
1.50000000e-02	1.99973654e+00	1.22095914e-01
1.52500000e-02	1.91164957e+00	1.15222523e-01
1.55000000e-02	1.80992467e+00	1.07421812e-01
1.57500000e-02	1.73059186e+00	1.02338040e-01
1.60000000e-02	1.64743502e+00	9.61602811e-02
1.62500000e-02	1.57545713e+00	9.30990594e-02
1.65000000e-02	1.48261028e+00	8.55285598e-02
1.67500000e-02	1.43152030e+00	8.13246427e-02
1.70000000e-02	1.36754697e+00	7.75936039e-02
1.72500000e-02	1.30542125e+00	7.31989289e-02
1.75000000e-02	1.24854439e+00	6.96952260e-02
1.77500000e-02	1.18329309e+00	6.45257748e-02
1.80000000e-02	1.15277566e+00	6.32920615e-02
1.82500000e-02	1.09781987e+00	5.85630491e-02
1.85000000e-02	1.05200171e+00	5.75588486e-02
1.87500000e-02	1.01707349e+00	5.43705961e-02
1.90000000e-02	9.73020062e-01	5.15032928e-02
1.92500000e-02	9.28682470e-01	4.83437847e-02
1.95000000e-02	8.91635334e-01	4.60665168e-02
1.97500000e-02	8.68688750e-01	4.51735617e-02
2.00000000e-02	8.33271523e-01	4.29113441e-02
2.02500000e-02	8.06615094e-01	4.10981129e-02
2.05000000e-02	7.76232348e-01	3.87710688e-02
2.07500000e-02	7.59154749e-01	3.80239534e-02
2.10000000e-02	7.39280136e-01	3.73688005e-02
2.12500000e-02	7.26985168e-01	3.65984954e-02
2.15000000e-02	7.01045203e-01	3.52142259e-02
2.17500000e-02	6.80992327e-01	3.42599338e-02
2.20000000e-02	6.66485339e-01	3.35051904e-02
2.22500000e-02	6.39137232e-01	3.19362899e-02
2.25000000e-02	6.31149950e-01	3.17999589e-02
2.27500000e-02	6.05534830e-01	3.00726305e-02
2.30000000e-02	6.00813994e-01	3.00973756e-02
2.32500000e-02	5.79416689e-01	2.88410125e-02
2.35000000e-02	5.69416354e-01	2.86364589e-02
2.37500000e-02	5.57344091e-01	2.77114086e-02
2.40000000e-02	5.37098661e-01	2.69048950e-02
2.42500000e-02	5.28767943e-01	2.62449002e-02
2.45000000e-02	5.14907605e-01	2.55936708e-02
2.47500000e-02	5.05979330e-01	2.48889566e-02
2.50000000e-02	4.84966710e-01	2.39064625e-02
2.52500000e-02	4.74804875e-01	2.35779699e-02
2.55000000e-02	4.69681510e-01	2.26965902e-02
2.57500000e-02	4.60051280e-01	2.23816395e-02
2.60000000e-02	4.46667110e-01	2.16272511e-02
2.62500000e-02	4.40789566e-01	2.16178977e-02
2.65000000e-02	4.27013601e-01	2.06845345e-02
2.67500000e-02	4.24081771e-01	2.04300740e-02
2.70000000e-02	4.07644783e-01	1.96896362e-02
2.72500000e-02	4.05508125e-01	1.92789966e-02
2.75000000e-02	3.88521927e-01	1.89323363e-02
2.77500000e-02	3.85779909e-01	1.87425251e-02
2.80000000e-02	3.80945567e-01	1.79809111e-02
2.82500000e-02	3.75217602e-01	1.77492854e-02
2.85000000e-02	3.67496825e-01	1.74617550e-02
2.87500000e-02	3.58218993e-01	1.71536221e-02
2.90000000e-02	3.53542209e-01	1.69454242e-02
2.92500000e-02	3.48553945e-01	1.61171369e-02
2.95000000e-02	3.38943862e-01	1.60366615e-02
2.97500000e-02	3.34737478e-01	1.55937630e-02
3.00000000e-02	3.30321756e-01	1.55206842e-02
3.02500000e-02	3.26330134e-01	1.52964628e-02
3.05000000e-02	3.22755141e-01	1.47904554e-02
3.07500000e-02	3.14125374e-01	1.45804728e-02
3.10000000e-02	3.08191226e-01	1.43044654e-02
3.12500000e-02	3.02823837e-01	1.41822251e-02
3.15000000e-02	2.97155840e-01	1.37498763e-02
3.17500000e-02	2.92799796e-01	1.33227037e-02
3.20000000e-02	2.87703914e-01	1.32301071e-02
3.22500000e-02	2.82255620e-01	1.29936060e-02
3.25000000e-02	2.77103622e-01	1.27510897e-02
3.27500000e-02	2.72964990e-01	1.24399675e-02
3.30000000e-02	2.72680164e-01	1.23288308e-02
3.32500000e-02	2.67626606e-01	1.21028096e-02
3.35000000e-02	2.69340503e-01	1.23382091e-02
3.37500000e-02	2.62185465e-01	1.18608163e-02
3.40000000e-02	2.58418685e-01	1.16951859e-02
3.42500000e-02	2.55400922e-01	1.14571834e-02
3.45000000e-02	2.55276024e-01	1.15390794e-02
3.47500000e-02	2.52091330e-01	1.12948792e-02
3.50000000e-02	2.45768626e-01	1.10213197e-02
3.52500000e-02	2.41354329e-01	1.08168182e-02
3.55000000e-02	2.38351489e-01	1.05656697e-02
3.57500000e-02	2.39123599e-01	1.07251733e-02
3.60000000e-02	2.32412816e-01	1.03596821e-02
3.62500000e-02	2.29586552e-01	1.03048954e-02
3.65000000e-02	2.27497672e-01	1.01236883e-02
3.67500000e-02	2.27660563e-01	1.00821640e-02
3.70000000e-02	2.25236056e-01	9.97405572e-03
3.72500000e-02	2.20776676e-01	9.73991616e-03
3.75000000e-02	2.16736578e-01	9.58800129e-03
3.77500000e-02	2.14644106e-01	9.42880458e-03
3.80000000e-02	2.14750123e-01	9.42355108e-03
3.82500000e-02	2.12922580e-01	9.29418800e-03
3.85000000e-02	2.10488383e-01	9.28104736e-03
3.87500000e-02	2.05289056e-01	8.93467088e-03
3.90000000e-02	2.02603186e-01	8.90046034e-03
3.92500000e-02	2.01952268e-01	8.69320698e-03
3.95000000e-02	2.00577200e-01	8.71308446e-03
3.97500000e-02	1.97910298e-01	8.59998371e-03
4.00000000e-02	2.00081255e-01	8.66720993e-03
4.02500000e-02	1.95746619e-01	8.43720390e-03
4.05000000e-02	1.94098352e-01	8.31088725e-03
4.07500000e-02	1.91221678e-01	8.19563530e-03
4.10000000e-02	1.91110301e-01	8.22738483e-03
4.12500000e-02	1.88915214e-01	8.12155685e-03
4.15000000e-02	1.88170642e-01	8.00363248e-03
4.17500000e-02	1.85021550e-01	7.82914341e-03
4.20000000e-02	1.86485402e-01	7.92996797e-03
4.22500000e-02	1.85534747e-01	7.89141430e-03
4.25000000e-02	1.83737812e-01	7.81951195e-03
4.27500000e-02	1.81470929e-01	7.65717895e-03
4.30000000e-02	1.80431837e-01	7.61237174e-03
4.32500000e-02	1.77673667e-01	7.46369693e-03
4.35000000e-02	1.77679252e-01	7.50889748e-03
4.37500000e-02	1.73726582e-01	7.22245362e-03
4.40000000e-02	1.75322070e-01	7.41621648e-03
4.42500000e-02	1.70183194e-01	7.12222743e-03
4.45000000e-02	1.72640509e-01	7.21966471e-03
4.47500000e-02	1.71052801e-01	7.12039238e-03
4.50000000e-02	1.69181283e-01	7.10961464e-03
4.52500000e-02	1.68631783e-01	7.01534807e-03
4.55000000e-02	1.66980334e-01	6.94215699e-03
4.57500000e-02	1.66387882e-01	6.82932246e-03
4.60000000e-02	1.65376348e-01	6.88359558e-03
4.62500000e-02	1.65549193e-01	6.90693627e-03
4.65000000e-02	1.63668644e-01	6.72390972e-03
4.67500000e-02	1.61796714e-01	6.63156379e-03
4.70000000e-02	1.62285196e-01	6.67362182e-03
4.72500000e-02	1.59508864e-01	6.54290222e-03
4.75000000e-02	1.59532679e-01	6.59165973e-03
4.77500000e-02	1.58788514e-01	6.45096407e-03
4.80000000e-02	1.55955328e-01	6.36485974e-03
4.82500000e-02	1.54748692e-01	6.30872160e-03
4.85000000e-02	1.57281461e-01	6.46564297e-03
4.87500000e-02	1.56372391e-01	6.36653401e-03
4.90000000e-02	1.55502979e-01	6.25272197e-03
4.92500000e-02	1.53232019e-01	6.20837144e-03
4.95000000e-02	1.49875332e-01	6.06290459e-03
4.97500000e-02	1.52341795e-01	6.18625173e-03
5.00000000e-02	1.49961757e-01	6.10081431e-03
5.02500000e-02	1.50304148e-01	6.04249645e-03
5.05000000e-02	1.48664149e-01	5.98048745e-03
5.07500000e-02	1.49518518e-01	6.03736603e-03
5.10000000e-02	1.47498581e-01	5.93283911e-03
5.12500000e-02	1.48610860e-01	5.98954293e-03
5.15000000e-02	1.45457730e-01	5.81741105e-03
5.17500000e-02	1.45025733e-01	5.83608564e-03
5.20000000e-02	1.45889072e-01	5.83403494e-03
5.22500000e-02	1.43069487e-01	5.76386920e-03
5.25000000e-02	1.43574924e-01	5.71573567e-03
5.27500000e-02	1.42902022e-01	5.63873659e-03
5.30000000e-02	1.42701969e-01	5.71840940e-03
5.32500000e-02	1.41967436e-01	5.66277816e-03
5.35000000e-02	1.43922570e-01	5.73202774e-03
5.37500000e-02	1.39747283e-01	5.54208929e-03
5.40000000e-02	1.38981406e-01	5.51446260e-03
5.42500000e-02	1.38411092e-01	5.44874774e-03
5.45000000e-02	1.38009877e-01	5.46394270e-03
5.47500000e-02	1.38098549e-01	5.43488610e-03
5.50000000e-02	1.38643109e-01	5.47846205e-03
5.52500000e-02	1.37231351e-01	5.35164548e-03
5.55000000e-02	1.34507113e-01	5.26091884e-03
5.57500000e-02	1.36328319e-01	5.37419966e-03
5.60000000e-02	1.34349297e-01	5.25721155e-03
5.62500000e-02	1.34852062e-01	5.29811511e-03
5.65000000e-02	1.35295136e-01	5.28657255e-03
5.67500000e-02	1.34475124e-01	5.27257571e-03
5.70000000e-02	1.33213551e-01	5.15110629e-03
5.72500000e-02	1.32879736e-01	5.18600528e-03
5.75000000e-02	1.32560864e-01	5.17758258e-03
5.77500000e-02	1.31235088e-01	5.06166849e-03
5.80000000e-02	1.32221013e-01	5.13604321e-03
5.82500000e-02	1.30853627e-01	5.06361326e-03
5.85000000e-02	1.30942831e-01	5.10727733e-03
5.87500000e-02	1.30289066e-01	5.03878840e-03
5.90000000e-02	1.31034404e-01	5.02962715e-03
5.92500000e-02	1.28901953e-01	4.93819655e-03
5.95000000e-02	1.27882394e-01	4.91805265e-03
5.97500000e-02	1.28442267e-01	5.00734502e-03
6.00000000e-02	1.28718926e-01	4.96109969e-03
6.02500000e-02	1.26451634e-01	4.84690363e-03
6.05000000e-02	1.25540789e-01	4.81545788e-03
6.07500000e-02	1.26248840e-01	4.84410315e-03
6.10000000e-02	1.26586030e-01	4.85208723e-03
6.12500000e-02	1.26493565e-01	4.83129985e-03
6.15000000e-02	1.25955635e-01	4.77441913e-03
6.17500000e-02	1.24580859e-01	4.75151491e-03
6.20000000e-02	1.23833069e-01	4.72719193e-03
6.22500000e-02	1.24439931e-01	4.77115792e-03
6.25000000e-02	1.23095654e-01	4.71768260e-03
6.27500000e-02	1.22823208e-01	4.63063439e-03
6.30000000e-02	1.24056820e-01	4.71190385e-03
6.32500000e-02	1.22194707e-01	4.64874924e-03
6.35000000e-02	1.21580277e-01	4.62701798e-03
6.37500000e-02	1.24198783e-01	4.73552566e-03
6.40000000e-02	1.21322959e-01	4.60295526e-03
6.42500000e-02	1.20829522e-01	4.56719455e-03
6.45000000e-02	1.20277688e-01	4.55361297e-03
6.47500000e-02	1.21215917e-01	4.60076144e-03
6.50000000e-02	1.19393952e-01	4.49908479e-03
6.52500000e-02	1.19845080e-01	4.50801231e-03
6.55000000e-02	1.18246710e-01	4.44766851e-03
6.57500000e-02	1.18186030e-01	4.45782451e-03
6.60000000e-02	1.17430301e-01	4.41320465e-03
6.62500000e-02	1.19109945e-01	4.48224421e-03
6.65000000e-02	1.17444754e-01	4.37428415e-03
6.67500000e-02	1.17552206e-01	4.40766422e-03
6.70000000e-02	1.18274890e-01	4.45054070e-03
6.72500000e-02	1.17602041e-01	4.39725112e-03
6.75000000e-02	1.16057490e-01	4.27467024e-03
6.77500000e-02	1.15586104e-01	4.28053713e-03
6.80000000e-02	1.15630051e-01	4.31040627e-03
6.82500000e-02	1.16436519e-01	4.36068294e-03
6.85000000e-02	1.15573689e-01	4.31166049e-03
6.87500000e-02	1.15195677e-01	4.25818085e-03
6.90000000e-02	1.14913889e-01	4.24389190e-03
6.92500000e-02	1.14021453e-01	4.22050941e-03
6.95000000e-02	1.14097578e-01	4.25590790e-03
6.97500000e-02	1.14308144e-01	4.23839439e-03
7.00000000e-02	1.12317912e-01	4.14896222e-03
7.02500000e-02	1.13602828e-01	4.19859696e-03
7.05000000e-02	1.12569107e-01	4.12953925e-03
7.07500000e-02	1.14664076e-01	4.26212297e-03
7.10000000e-02	1.12208373e-01	4.10470432e-03
7.12500000e-02	1.13084369e-01	4.16912391e-03
7.15000000e-02	1.12458159e-01	4.12555188e-03
7.17500000e-02	1.12617411e-01	4.12562486e-03
7.20000000e-02	1.10652416e-01	4.05596521e-03
7.22500000e-02	1.11173169e-01	4.06422859e-03
7.25000000e-02	1.10973500e-01	4.05443972e-03
7.27500000e-02	1.10000850e-01	4.01548147e-03
7.30000000e-02	1.10162411e-01	4.01770206e-03
7.32500000e-02	1.10842904e-01	3.99287714e-03
7.35000000e-02	1.09780598e-01	4.02561077e-03
7.37500000e-02	1.08358593e-01	3.92803296e-03
7.40000000e-02	1.09141840e-01	3.94341365e-03
7.42500000e-02	1.08962995e-01	3.96328095e-03
7.45000000e-02	1.07208475e-01	3.87276282e-03
7.47500000e-02	1.06730132e-01	3.85086863e-03
7.50000000e-02	1.07651411e-01	3.87920180e-03
7.52500000e-02	1.07811342e-01	3.91564385e-03
7.55000000e-02	1.07954900e-01	3.88380580e-03
7.57500000e-02	1.06982550e-01	3.86188556e-03
7.60000000e-02	1.06016679e-01	3.80771996e-03
7.62500000e-02	1.06604735e-01	3.85064464e-03
7.65000000e-02	1.06085053e-01	3.81075910e-03
7.67500000e-02	1.05575822e-01	3.80208019e-03
7.70000000e-02	1.04684324e-01	3.74188985e-03
7.72500000e-02	1.07680417e-01	3.89988150e-03
7.75000000e-02	1.09780221e-01	4.00013548e-03
7.77500000e-02	1.08888370e-01	3.97017373e-03
7.80000000e-02	1.09212366e-01	4.00001694e-03
7.82500000e-02	1.10136623e-01	4.05774649e-03
7.85000000e-02	1.11698926e-01	4.13766347e-03
7.87500000e-02	1.11951596e-01	4.12439401e-03
7.90000000e-02	1.12737410e-01	4.16574632e-03
7.92500000e-02	1.11031506e-01	4.11899498e-03
7.95000000e-02	1.11481487e-01	4.15388320e-03
7.97500000e-02	1.11640040e-01	4.19709706e-03
8.00000000e-02	1.11838368e-01	4.14271291e-03
8.02500000e-02	1.11949089e-01	4.16237701e-03
8.05000000e-02	1.11818077e-01	4.20461220e-03
8.07500000e-02	1.12874790e-01	4.22792474e-03
8.10000000e-02	1.12779049e-01	4.20827415e-03
8.12500000e-02	1.13667478e-01	4.24365356e-03
8.15000000e-02	1.12141787e-01	4.19118860e-03
8.17500000e-02	1.12810516e-01	4.25474947e-03
8.20000000e-02	1.13243519e-01	4.25986462e-03
8.22500000e-02	1.12510973e-01	4.21633681e-03
8.25000000e-02	1.13054555e-01	4.27155274e-03
8.27500000e-02	1.11283106e-01	4.17680819e-03
8.30000000e-02	1.13604156e-01	4.26677575e-03
8.32500000e-02	1.12642174e-01	4.28207977e-03
8.35000000e-02	1.13238595e-01	4.32976962e-03
8.37500000e-02	1.10959391e-01	4.13677194e-03
8.40000000e-02	1.14726387e-01	4.32153979e-03
8.42500000e-02	1.11800760e-01	4.21976158e-03
8.45000000e-02	1.13919883e-01	4.33752956e-03
8.47500000e-02	1.10348769e-01	4.18008533e-03
8.50000000e-02	1.13009531e-01	4.24360309e-03
8.52500000e-02	1.11947348e-01	4.25276634e-03
8.55000000e-02	1.12238332e-01	4.23131972e-03
8.57500000e-02	1.12781238e-01	4.28169420e-03
8.60000000e-02	1.12811649e-01	4.28398934e-03
8.62500000e-02	1.11774367e-01	4.20557525e-03
8.65000000e-02	1.10694896e-01	4.17736225e-03
8.67500000e-02	1.11879332e-01	4.19180917e-03
8.70000000e-02	1.07965668e-01	4.05531997e-03
8.72500000e-02	1.05863198e-01	3.92312097e-03
8.75000000e-02	1.06144852e-01	3.88111007e-03
8.77500000e-02	1.03825258e-01	3.79221472e-03
8.80000000e-02	1.02229055e-01	3.75135121e-03
8.82500000e-02	1.01718815e-01	3.70336807e-03
8.85000000e-02	1.02022527e-01	3.70704626e-03
8.87500000e-02	1.01207353e-01	3.61409149e-03
8.90000000e-02	9.96478611e-02	3.58592908e-03
8.92500000e-02	9.96897801e-02	3.56838011e-03
8.95000000e-02	9.85425344e-02	3.54003477e-03
8.97500000e-02	9.89755970e-02	3.53102643e-03
9.00000000e-02	9.77219272e-02	3.46113327e-03
9.02500000e-02	9.68400023e-02	3.44303568e-03
9.05000000e-02	9.65865212e-02	3.42180451e-03
9.07500000e-02	9.60009914e-02	3.38582739e-03
9.10000000e-02	9.47314634e-02	3.33323066e-03
9.12500000e-02	9.47214610e-02	3.31462509e-03
9.15000000e-02	9.39036990e-02	3.29725945e-03
9.17500000e-02	9.25378975e-02	3.25733874e-03
9.20000000e-02	9.38595516e-02	3.26787884e-03
9.22500000e-02	9.38112263e-02	3.26116665e-03
9.25000000e-02	9.23080156e-02	3.21716908e-03
9.27500000e-02	9.14911273e-02	3.18886811e-03
9.30000000e-02	9.00438379e-02	3.13295666e-03
9.32500000e-02	9.12947493e-02	3.18205281e-03
9.35000000e-02	9.09987175e-02	3.13102262e-03
9.37500000e-02	8.99386642e-02	3.11408375e-03
9.40000000e-02	8.91777542e-02	3.09328898e-03
9.42500000e-02	8.89982613e-02	3.04629678e-03
9.45000000e-02	8.80863646e-02	3.01474087e-03
9.47500000e-02	8.72736546e-02	2.98619467e-03
9.50000000e-02	8.80019378e-02	2.99156708e-03
9.52500000e-02	8.81067135e-02	3.00254131e-03
9.55000000e-02	8.59279635e-02	2.93552311e-03
9.57500000e-02	8.59993477e-02	2.93146051e-03
9.60000000e-02	8.54890279e-02	2.88120109e-03
9.62500000e-02	8.50637234e-02	2.87485097e-03
9.65000000e-02	8.37472853e-02	2.82507486e-03
9.67500000e-02	8.52866549e-02	2.86812945e-03
9.70000000e-02	8.35403933e-02	2.82944400e-03
9.72500000e-02	8.31077832e-02	2.79322316e-03
9.75000000e-02	8.32923626e-02	2.79578172e-03
9.77500000e-02	8.28803725e-02	2.78348376e-03
9.80000000e-02	8.23977278e-02	2.78581200e-03
9.82500000e-02	8.24775036e-02	2.76155295e-03
9.85000000e-02	8.28233135e-02	2.75813795e-03
9.87500000e-02	8.09854244e-02	2.68814539e-03
9.90000000e-02	8.14519671e-02	2.70086062e-03
9.92500000e-02	7.94103427e-02	2.65339216e-03
9.95000000e-02	7.98591598e-02	2.64750909e-03
9.97500000e-02	7.96641881e-02	2.63683995e-03
1.00000000e-01	7.80373206e-02	2.10364498e-03
1.00500000e-01	7.89319578e-02	1.84946354e-03
1.01000000e-01	7.79945415e-02	1.80866041e-03
1.01500000e-01	7.74712261e-02	1.79750978e-03
1.02000000e-01	7.57544472e-02	1.74232737e-03
1.02500000e-01	7.62466641e-02	1.74292166e-03
1.03000000e-01	7.40806743e-02	1.69832080e-03
1.03500000e-01	7.38129818e-02	1.68239257e-03
1.04000000e-01	7.28742909e-02	1.66051627e-03
1.04500000e-01	7.27969053e-02	1.64980816e-03
1.05000000e-01	7.18225615e-02	1.62203434e-03
1.05500000e-01	7.09801242e-02	1.59706102e-03
1.06000000e-01	7.07550646e-02	1.58860134e-03
1.06500000e-01	6.90454718e-02	1.54416800e-03
1.07000000e-01	6.74293796e-02	1.53151741e-03
1.07500000e-01	6.41755818e-02	1.48202503e-03
1.08000000e-01	6.17575683e-02	1.43731049e-03
1.08500000e-01	6.02754140e-02	1.40669012e-03
1.09000000e-01	5.87793612e-02	1.39383469e-03
1.09500000e-01	5.82013251e-02	1.37805599e-03
1.10000000e-01	5.81054967e-02	1.36269346e-03
1.10500000e-01	6.05400492e-02	1.38928457e-03
1.11000000e-01	6.11813687e-02	1.37639731e-03
1.11500000e-01	6.12415255e-02	1.37582137e-03
1.12000000e-01	6.14161997e-02	1.36587930e-03
1.12500000e-01	6.17008226e-02	1.36466733e-03
1.13000000e-01	6.09652029e-02	1.33634261e-03
1.13500000e-01	6.10306582e-02	1.33807835e-03
1.14000000e-01	6.00942136e-02	1.30306577e-03
1.14500000e-01	5.89520460e-02	1.27661910e-03
1.15000000e-01	5.83745762e-02	1.25504878e-03
1.15500000e-01	5.83588133e-02	1.25793237e-03
1.16000000e-01	5.79555734e-02	1.23892436e-03
1.16500000e-01	5.79927165e-02	1.23647198e-03
1.17000000e-01	5.67780583e-02	1.20730585e-03
1.17500000e-01	5.59655639e-02	1.18544481e-03
1.18000000e-01	5.52161564e-02	1.17289048e-03
1.18500000e-01	5.55275977e-02	1.16213354e-03
1.19000000e-01	5.46301589e-02	1.14142777e-03
1.19500000e-01	5.38704458e-02	1.12395680e-03
1.20000000e-01	5.34348564e-02	1.10970412e-03
1.20500000e-01	5.33309887e-02	1.10478073e-03
1.21000000e-01	5.31510714e-02	1.09812030e-03
1.21500000e-01	5.22955155e-02	1.07849779e-03
1.22000000e-01	5.16206944e-02	1.06011582e-03
1.22500000e-01	5.20491129e-02	1.06359494e-03
1.23000000e-01	5.11583699e-02	1.04114444e-03
1.23500000e-01	5.10893979e-02	1.03837014e-03
1.24000000e-01	5.02036279e-02	1.01899609e-03
1.24500000e-01	4.97677469e-02	1.00055926e-03
1.25000000e-01	4.92040197e-02	9.91514173e-04
1.25500000e-01	4.87801358e-02	9.78941423e-04
1.26000000e-01	4.83652675e-02	9.64006417e-04
1.26500000e-01	4.76028063e-02	9.46314507e-04
1.27000000e-01	4.73720656e-02	9.40218896e-04
1.27500000e-01	4.72204106e-02	9.33738487e-04
1.28000000e-01	4.67118387e-02	9.22505126e-04
1.28500000e-01	4.62488459e-02	9.10022884e-04
1.29000000e-01	4.58543683e-02	9.00678187e-04
1.29500000e-01	4.49919886e-02	8.79875989e-04
1.30000000e-01	4.47949885e-02	8.76179789e-04
1.30500000e-01	4.48917046e-02	8.75140383e-04
1.31000000e-01	4.39174704e-02	8.51853764e-04
1.31500000e-01	4.38378380e-02	8.48631893e-04
1.32000000e-01	4.34232874e-02	8.33506274e-04
1.32500000e-01	4.25796473e-02	8.19711053e-04
1.33000000e-01	4.20694990e-02	8.04280213e-04
1.33500000e-01	4.22836546e-02	8.03476273e-04
1.34000000e-01	4.20043238e-02	7.98922525e-04
1.34500000e-01	4.13720601e-02	7.82986615e-04
1.35000000e-01	4.16168473e-02	7.85221933e-04
1.35500000e-01	4.06135845e-02	7.66470500e-04
1.36000000e-01	4.04588382e-02	7.58641587e-04
1.36500000e-01	4.01365683e-02	7.54348670e-04
1.37000000e-01	3.98706122e-02	7.42715616e-04
1.37500000e-01	3.90700122e-02	7.32492966e-04
1.38000000e-01	3.91405654e-02	7.27208452e-04
1.38500000e-01	3.84583220e-02	7.12532733e-04
1.39000000e-01	3.92220594e-02	7.28053764e-04
1.39500000e-01	3.85646954e-02	7.13746326e-04
1.40000000e-01	3.78341294e-02	7.03216338e-04
1.40500000e-01	3.75261262e-02	6.92130889e-04
1.41000000e-01	3.76178506e-02	6.92654070e-04
1.41500000e-01	3.71172862e-02	6.83511259e-04
1.42000000e-01	3.68717512e-02	6.74605622e-04
1.42500000e-01	3.68370235e-02	6.73461008e-04
1.43000000e-01	3.57310022e-02	6.54408996e-04
1.43500000e-01	3.61549703e-02	6.57046172e-04
1.44000000e-01	3.54158725e-02	6.41489006e-04
1.44500000e-01	3.53596216e-02	6.42502297e-04
1.45000000e-01	3.50602371e-02	6.33870814e-04
1.45500000e-01	3.49605163e-02	6.30634045e-04
1.46000000e-01	3.44272377e-02	6.21314720e-04
1.46500000e-01	3.44370209e-02	6.19350630e-04
1.47000000e-01	3.41142097e-02	6.14288755e-04
1.47500000e-01	3.41508019e-02	6.13022200e-04
1.48000000e-01	3.36322788e-02	6.00092711e-04
1.48500000e-01	3.33515922e-02	5.97221629e-04
1.49000000e-01	3.31078873e-02	5.89657580e-04
1.49500000e-01	3.29897620e-02	5.86371721e-04
1.50000000e-01	3.33161236e-02	5.90393749e-04
1.50500000e-01	3.24841480e-02	5.77296359e-04
1.51000000e-01	3.24699057e-02	5.74242735e-04
1.51500000e-01	3.20227944e-02	5.64823959e-04
1.52000000e-01	3.18805743e-02	5.60980777e-04
1.52500000e-01	3.16926773e-02	5.58240801e-04
1.53000000e-01	3.17487320e-02	5.57357494e-04
1.53500000e-01	3.13378339e-02	5.47149648e-04
1.54000000e-01	3.11843335e-02	5.45199543e-04
1.54500000e-01	3.03993089e-02	5.40758886e-04
1.55000000e-01	3.03677364e-02	5.49040841e-04
1.55500000e-01	2.98941537e-02	5.41990122e-04
1.56000000e-01	2.98494153e-02	5.45183597e-04
1.56500000e-01	2.93780683e-02	5.35346854e-04
1.57000000e-01	2.89248411e-02	5.30160763e-04
1.57500000e-01	2.95945605e-02	5.30321855e-04
1.58000000e-01	2.91122325e-02	5.13870319e-04
1.58500000e-01	2.90281299e-02	5.11838951e-04
1.59000000e-01	2.93078801e-02	5.10602816e-04
1.59500000e-01	2.93139844e-02	5.11121893e-04
1.60000000e-01	2.88726549e-02	5.04107936e-04
1.60500000e-01	2.87793963e-02	4.98503992e-04
1.61000000e-01	2.89593106e-02	5.01898814e-04
1.61500000e-01	2.83561507e-02	4.89398820e-04
1.62000000e-01	2.85304712e-02	4.92068583e-04
1.62500000e-01	2.82903132e-02	4.88875430e-04
1.63000000e-01	2.83098832e-02	4.86713948e-04
1.63500000e-01	2.79640586e-02	4.82059519e-04
1.64000000e-01	2.79082749e-02	4.77537139e-04
1.64500000e-01	2.77786690e-02	4.73918441e-04
1.65000000e-01	2.75178501e-02	4.70885826e-04
1.65500000e-01	2.77666182e-02	4.71851422e-04
1.66000000e-01	2.75954495e-02	4.70096013e-04
1.66500000e-01	2.75896983e-02	4.66456923e-04
1.67000000e-01	2.69753423e-02	4.58630905e-04
1.67500000e-01	2.69376225e-02	4.57339007e-04
1.68000000e-01	2.74520778e-02	4.64495426e-04
1.68500000e-01	2.69858074e-02	4.55636334e-04
1.69000000e-01	2.70251341e-02	4.54796619e-04
1.69500000e-01	2.65561484e-02	4.45909638e-04
1.70000000e-01	2.67884928e-02	4.50312628e-04
1.70500000e-01	2.65281221e-02	4.46202780e-04
1.71000000e-01	2.64817148e-02	4.42782496e-04
1.71500000e-01	2.65474485e-02	4.45201340e-04
1.72000000e-01	2.64866508e-02	4.42090578e-04
1.72500000e-01	2.62324510e-02	4.36666958e-04
1.73000000e-01	2.59658807e-02	4.33582505e-04
1.73500000e-01	2.59179132e-02	4.31069085e-04
1.74000000e-01	2.58748185e-02	4.29671776e-04
1.74500000e-01	2.60382188e-02	4.29767212e-04
1.75000000e-01	2.56808211e-02	4.22255130e-04
1.75500000e-01	2.57166984e-02	4.22385123e-04
1.76000000e-01	2.58060791e-02	4.23626641e-04
1.76500000e-01	2.53075382e-02	4.17089525e-04
1.77000000e-01	2.51036435e-02	4.12114929e-04
1.77500000e-01	2.51556608e-02	4.13630385e-04
1.78000000e-01	2.52875693e-02	4.16093673e-04
1.78500000e-01	2.56079336e-02	4.19532438e-04
1.79000000e-01	2.52100467e-02	4.12232718e-04
1.79500000e-01	2.50114946e-02	4.11456311e-04
1.80000000e-01	2.51269581e-02	4.12454036e-04
1.80500000e-01	2.48323661e-02	4.07423296e-04
1.81000000e-01	2.48665285e-02	4.07030233e-04
1.81500000e-01	2.48253754e-02	4.06012759e-04
1.82000000e-01	2.45581807e-02	4.01518029e-04
1.82500000e-01	2.46537276e-02	3.99965372e-04
1.83000000e-01	2.49490922e-02	4.05703382e-04
1.83500000e-01	2.47544229e-02	4.02744557e-04
1.84000000e-01	2.46215420e-02	3.98503282e-04
1.84500000e-01	2.41897860e-02	3.93139435e-04
1.85000000e-01	2.42113696e-02	3.91924362e-04
1.85500000e-01	2.46380489e-02	3.96754526e-04
1.86000000e-01	2.40188902e-02	3.87889587e-04
1.86500000e-01	2.41853053e-02	3.90175648e-04
1.87000000e-01	2.41513556e-02	3.89074666e-04
1.87500000e-01	2.39421135e-02	3.84928397e-04
1.88000000e-01	2.41446314e-02	3.86468602e-04
1.88500000e-01	2.40157373e-02	3.84823178e-04
1.89000000e-01	2.37552725e-02	3.80733055e-04
1.89500000e-01	2.36453742e-02	3.79250201e-04
1.90000000e-01	2.39613070e-02	3.82142891e-04
1.90500000e-01	2.39834710e-02	3.83405012e-04
1.91000000e-01	2.34420584e-02	3.73533496e-04
1.91500000e-01	2.33522899e-02	3.73778689e-04
1.92000000e-01	2.37300756e-02	3.76010858e-04
1.92500000e-01	2.37862610e-02	3.78778191e-04
1.93000000e-01	2.39904832e-02	3.80769203e-04
1.93500000e-01	2.34350837e-02	3.72783039e-04
1.94000000e-01	2.33539262e-02	3.70029958e-04
1.94500000e-01	2.33876858e-02	3.70830662e-04
1.95000000e-01	2.35540855e-02	3.73201902e-04
1.95500000e-01	2.35010244e-02	3.70141925e-04
1.96000000e-01	2.35145553e-02	3.70371686e-04
1.96500000e-01	2.34238865e-02	3.69379174e-04
1.97000000e-01	2.32453173e-02	3.66555599e-04
1.97500000e-01	2.32665320e-02	3.64928395e-04
1.98000000e-01	2.33226423e-02	3.65952744e-04
1.98500000e-01	2.29086934e-02	3.59342776e-04
1.99000000e-01	2.33089049e-02	3.65012815e-04
1.99500000e-01	2.32397649e-02	3.62558826e-04
2.00000000e-01	2.33490382e-02	3.63971191e-04
2.00500000e-01	2.32551969e-02	3.62481408e-04
2.01000000e-01	2.31505364e-02	3.61041195e-04
2.01500000e-01	2.27519753e-02	3.55331503e-04
2.02000000e-01	2.30447056e-02	3.58819837e-04
2.02500000e-01	2.30010157e-02	3.56850498e-04
2.03000000e-01	2.27551004e-02	3.53227464e-04
2.03500000e-01	2.27836494e-02	3.52212674e-04
2.04000000e-01	2.28499886e-02	3.54405939e-04
2.04500000e-01	2.27351544e-02	3.51284482e-04
2.05000000e-01	2.29456066e-02	3.54019504e-04
2.05500000e-01	2.25314217e-02	3.49102667e-04
2.06000000e-01	2.26467674e-02	3.48771210e-04
2.06500000e-01	2.28279422e-02	3.49901990e-04
2.07000000e-01	2.25309916e-02	3.46455962e-04
2.07500000e-01	2.26985783e-02	3.49117586e-04
2.08000000e-01	2.26731631e-02	3.48688656e-04
2.08500000e-01	2.24166502e-02	3.42956500e-04
2.09000000e-01	2.23792433e-02	3.42211468e-04
2.09500000e-01	2.25952076e-02	3.45376681e-04
2.10000000e-01	2.25006899e-02	3.43509385e-04
2.10500000e-01	2.25848476e-02	3.44927335e-04
2.11000000e-01	2.23610852e-02	3.40396994e-04
2.11500000e-01	2.25026453e-02	3.43704344e-04
2.12000000e-01	2.24816624e-02	3.42619574e-04
2.12500000e-01	2.25305716e-02	3.42007150e-04
2.13000000e-01	2.24065517e-02	3.41932167e-04
2.13500000e-01	2.23157265e-02	3.37937391e-04
2.14000000e-01	2.21568218e-02	3.36364293e-04
2.14500000e-01	2.20598215e-02	3.33716923e-04
2.15000000e-01	2.23534909e-02	3.38891012e-04
2.15500000e-01	2.25300231e-02	3.39449529e-04
2.16000000e-01	2.19452828e-02	3.30611231e-04
2.16500000e-01	2.21757733e-02	3.34665509e-04
2.17000000e-01	2.21155071e-02	3.38415740e-04
2.17500000e-01	2.21533619e-02	3.45271157e-04
2.18000000e-01	2.18856452e-02	3.40493304e-04
2.18500000e-01	2.20865615e-02	3.46532179e-04
2.19000000e-01	2.26209331e-02	3.53283959e-04
2.19500000e-01	2.22141955e-02	3.50960072e-04
2.20000000e-01	2.21951720e-02	3.52943187e-04
2.20500000e-01	2.21526346e-02	3.52019957e-04
2.21000000e-01	2.19690575e-02	3.49039772e-04
2.21500000e-01	2.19037140e-02	3.51244466e-04
2.22000000e-01	2.22749723e-02	3.56734257e-04
2.22500000e-01	2.19740862e-02	3.51731841e-04
2.23000000e-01	2.21496930e-02	3.55544225e-04
2.23500000e-01	2.20237522e-02	3.55634339e-04
2.24000000e-01	2.18581100e-02	3.53113705e-04
2.24500000e-01	2.18706416e-02	3.55743332e-04
2.25000000e-01	2.17160203e-02	3.52128506e-04
2.25500000e-01	2.16931063e-02	3.52367496e-04
2.26000000e-01	2.20718009e-02	3.61548258e-04
2.26500000e-01	2.17332492e-02	3.49218399e-04
2.27000000e-01	2.20776139e-02	3.50853063e-04
2.27500000e-01	2.21927672e-02	3.49568820e-04
2.28000000e-01	2.18309859e-02	3.43425636e-04
2.28500000e-01	2.18403884e-02	3.41186764e-04
2.29000000e-01	2.15954794e-02	3.36157323e-04
2.29500000e-01	2.15613989e-02	3.33908991e-04
2.30000000e-01	2.16694348e-02	3.33837476e-04
2.30500000e-01	2.16897653e-02	3.33357087e-04
2.31000000e-01	2.17090955e-02	3.33316119e-04
2.31500000e-01	2.16624474e-02	3.32477312e-04
2.32000000e-01	2.15948467e-02	3.30172578e-04
2.32500000e-01	2.15279304e-02	3.29724790e-04
2.33000000e-01	2.15745314e-02	3.28985211e-04
2.33500000e-01	2.13623559e-02	3.24800218e-04
2.34000000e-01	2.13580335e-02	3.24899869e-04
2.34500000e-01	2.14730334e-02	3.23951394e-04
2.35000000e-01	2.13688009e-02	3.24037193e-04
2.35500000e-01	2.14004484e-02	3.23459642e-04
2.36000000e-01	2.12003160e-02	3.21403420e-04
2.36500000e-01	2.13536899e-02	3.21640063e-04
2.37000000e-01	2.13363866e-02	3.20938442e-04
2.37500000e-01	2.12532965e-02	3.19102854e-04
2.38000000e-01	2.13446114e-02	3.19616231e-04
2.38500000e-01	2.14846056e-02	3.21448138e-04
2.39000000e-01	2.12312176e-02	3.17619904e-04
2.39500000e-01	2.12748592e-02	3.16319077e-04
2.40000000e-01	2.13937536e-02	3.17469650e-04
2.40500000e-01	2.13324122e-02	3.16293520e-04
2.41000000e-01	2.11800692e-02	3.13588552e-04
2.41500000e-01	2.14277619e-02	3.15581322e-04
2.42000000e-01	2.10911973e-02	3.10952578e-04
2.42500000e-01	2.11633910e-02	3.10695458e-04
2.43000000e-01	2.11261841e-02	3.10894518e-04
2.43500000e-01	2.08301188e-02	3.07150044e-04
2.44000000e-01	2.13936907e-02	3.13764592e-04
2.44500000e-01	2.10769312e-02	3.09156170e-04
2.45000000e-01	2.07983766e-02	3.04286182e-04
2.45500000e-01	2.09238708e-02	3.05378851e-04
2.46000000e-01	2.10376360e-02	3.06739200e-04
2.46500000e-01	2.10523350e-02	3.06475360e-04
2.47000000e-01	2.08247209e-02	3.04950398e-04
2.47500000e-01	2.08098622e-02	3.01536608e-04
2.48000000e-01	2.09441890e-02	3.05348330e-04
2.48500000e-01	2.08998118e-02	3.03536697e-04
2.49000000e-01	2.06056619e-02	2.98439797e-04
2.49500000e-01	2.09902545e-02	3.04041346e-04
2.50000000e-01	2.10195679e-02	3.03295000e-04
2.50500000e-01	2.08643844e-02	3.03027222e-04
2.51000000e-01	2.08065871e-02	3.00083145e-04
2.51500000e-01	2.09140830e-02	3.01818919e-04
2.52000000e-01	2.11701896e-02	3.05076430e-04
2.52500000e-01	2.10767948e-02	3.02679851e-04
2.53000000e-01	2.08501988e-02	2.99836909e-04
2.53500000e-01	2.06657134e-02	2.96774881e-04
2.54000000e-01	2.05058473e-02	2.94959506e-04
2.54500000e-01	2.07139455e-02	2.97822402e-04
2.55000000e-01	2.08161756e-02	2.97666084e-04
2.55500000e-01	2.05590269e-02	2.94199433e-04
2.56000000e-01	2.05201314e-02	2.92451978e-04
2.56500000e-01	2.04830491e-02	2.92807530e-04
2.57000000e-01	2.06087858e-02	2.93856991e-04
2.57500000e-01	2.04460801e-02	2.91326521e-04
2.58000000e-01	2.07336275e-02	2.95743059e-04
2.58500000e-01	2.03974069e-02	2.91590643e-04
2.59000000e-01	2.09254140e-02	2.96892246e-04
2.59500000e-01	2.09077244e-02	2.96499876e-04
2.60000000e-01	2.07386087e-02	2.94717558e-04
2.60500000e-01	2.02544071e-02	2.87392930e-04
2.61000000e-01	2.04761790e-02	2.89504621e-04
2.61500000e-01	2.02787034e-02	2.87278897e-04
2.62000000e-01	2.04289017e-02	2.88366854e-04
2.62500000e-01	2.03087414e-02	2.87232357e-04
2.63000000e-01	2.04535176e-02	2.88068543e-04
2.63500000e-01	2.04482867e-02	2.87562064e-04
2.64000000e-01	2.02708485e-02	2.85498292e-04
2.64500000e-01	2.03077375e-02	2.85477386e-04
2.65000000e-01	2.04470438e-02	2.87012919e-04
2.65500000e-01	2.05559359e-02	2.87609235e-04
2.66000000e-01	2.04877072e-02	2.86786087e-04
2.66500000e-01	2.04332552e-02	2.85764805e-04
2.67000000e-01	2.04174267e-02	2.84777523e-04
2.67500000e-01	2.04869279e-02	2.84628532e-04
2.68000000e-01	2.01170126e-02	2.80989171e-04
2.68500000e-01	2.04380673e-02	2.84289138e-04
2.69000000e-01	2.01159241e-02	2.79579524e-04
2.69500000e-01	2.02419057e-02	2.80729188e-04
2.70000000e-01	2.02634295e-02	2.80699047e-04
2.70500000e-01	2.00267763e-02	2.77895868e-04
2.71000000e-01	2.02908306e-02	2.79686729e-04
2.71500000e-01	2.00780381e-02	2.78468773e-04
2.72000000e-01	2.02575325e-02	2.80407038e-04
2.72500000e-01	2.01391558e-02	2.78411632e-04
2.73000000e-01	2.00349152e-02	2.76702562e-04
2.73500000e-01	2.02153839e-02	2.78224112e-04
2.74000000e-01	2.03235743e-02	2.79883774e-04
2.74500000e-01	1.99390169e-02	2.74829428e-04
2.75000000e-01	2.01633896e-02	2.76875391e-04
2.75500000e-01	2.01787204e-02	2.76210436e-04
2.76000000e-01	2.01261581e-02	2.76309234e-04
2.76500000e-01	2.01866827e-02	2.77875404e-04
2.77000000e-01	1.99887892e-02	2.74494512e-04
2.77500000e-01	2.01533521e-02	2.76748379e-04
2.78000000e-01	2.00952916e-02	2.74328935e-04
2.78500000e-01	1.99337406e-02	2.72728032e-04
2.79000000e-01	2.00609846e-02	2.73305746e-04
2.79500000e-01	1.99336369e-02	2.72138751e-04
2.80000000e-01	1.99567530e-02	2.72564424e-04
2.80500000e-01	2.00200957e-02	2.72532629e-04
2.81000000e-01	1.98498123e-02	2.69561450e-04
2.81500000e-01	1.98169330e-02	2.69644886e-04
2.82000000e-01	1.97938541e-02	2.68704580e-04
2.82500000e-01	1.96912874e-02	2.68536156e-04
2.83000000e-01	1.99019917e-02	2.69784556e-04
2.83500000e-01	1.95916069e-02	2.65921832e-04
2.84000000e-01	1.97037185e-02	2.66917681e-04
2.84500000e-01	1.97924294e-02	2.68122745e-04
2.85000000e-01	1.97899007e-02	2.68164194e-04
2.85500000e-01	1.98034717e-02	2.67571230e-04
2.86000000e-01	1.97791793e-02	2.67446516e-04
2.86500000e-01	1.98370664e-02	2.66964245e-04
2.87000000e-01	1.97159098e-02	2.66740951e-04
2.87500000e-01	1.98690829e-02	2.66432507e-04
2.88000000e-01	1.98223000e-02	2.65336360e-04
2.88500000e-01	1.95304047e-02	2.62366697e-04
2.89000000e-01	1.96451179e-02	2.64177930e-04
2.89500000e-01	1.97085333e-02	2.64369701e-04
2.90000000e-01	1.94413454e-02	2.60691068e-04
2.90500000e-01	1.97005820e-02	2.64094106e-04
2.91000000e-01	1.96032641e-02	2.62698960e-04
2.91500000e-01	1.95941784e-02	2.61897762e-04
2.92000000e-01	1.96626822e-02	2.63023079e-04
2.92500000e-01	1.96740089e-02	2.62380943e-04
2.93000000e-01	1.97758901e-02	2.63530217e-04
2.93500000e-01	1.95007107e-02	2.59500399e-04
2.94000000e-01	1.95838269e-02	2.60510324e-04
2.94500000e-01	1.94620093e-02	2.59228068e-04
2.95000000e-01	1.96000699e-02	2.59998733e-04
2.95500000e-01	1.94766052e-02	2.58837066e-04
2.96000000e-01	1.97007403e-02	2.61363658e-04
2.96500000e-01	1.95032401e-02	2.58703438e-04
2.97000000e-01	1.96631482e-02	2.60158468e-04
2.97500000e-01	1.93521685e-02	2.56024637e-04
2.98000000e-01	1.94963414e-02	2.57899636e-04
2.98500000e-01	1.93884351e-02	2.55695190e-04
2.99000000e-01	1.95697921e-02	2.58268715e-04
2.99500000e-01	1.95077225e-02	2.56931119e-04
3.00000000e-01	1.95024140e-02	2.56697243e-04
3.00500000e-01	1.96172145e-02	2.58566881e-04
3.01000000e-01	1.95380579e-02	2.56832329e-04
3.01500000e-01	1.93403285e-02	2.54383857e-04
3.02000000e-01	1.95077097e-02	2.56142247e-04
3.02500000e-01	1.93165080e-02	2.53243347e-04
3.03000000e-01	1.92139292e-02	2.52195161e-04
3.03500000e-01	1.95772951e-02	2.55602545e-04
3.04000000e-01	1.93859147e-02	2.54284192e-04
3.04500000e-01	1.91749941e-02	2.51436320e-04
3.05000000e-01	1.93383702e-02	2.51944032e-04
3.05500000e-01	1.93683866e-02	2.53005333e-04
3.06000000e-01	1.93629126e-02	2.51614852e-04
3.06500000e-01	1.93376436e-02	2.52731702e-04
3.07000000e-01	1.93377446e-02	2.51102406e-04
3.07500000e-01	1.92819006e-02	2.50626466e-04
3.08000000e-01	1.93552293e-02	2.52244434e-04
3.08500000e-01	1.93424088e-02	2.50616263e-04
3.09000000e-01	1.94147425e-02	2.51926915e-04
3.09500000e-01	1.92472509e-02	2.49491323e-04
3.10000000e-01	1.91323645e-02	2.48383667e-04
3.10500000e-01	1.93344812e-02	2.50244763e-04
3.11000000e-01	1.90943148e-02	2.47522941e-04
3.11500000e-01	1.91722444e-02	2.48149861e-04
3.12000000e-01	1.90974566e-02	2.46778959e-04
3.12500000e-01	1.92870362e-02	2.49146969e-04
3.13000000e-01	1.90036023e-02	2.46243537e-04
3.13500000e-01	1.93175088e-02	2.48868043e-04
3.14000000e-01	1.92504953e-02	2.47655332e-04
3.14500000e-01	1.90782420e-02	2.44538902e-04
3.15000000e-01	1.94466009e-02	2.49983920e-04
3.15500000e-01	1.91340716e-02	2.45543451e-04
3.16000000e-01	1.90291605e-02	2.45011155e-04
3.16500000e-01	1.89788668e-02	2.44112861e-04
3.17000000e-01	1.89397825e-02	2.43134350e-04
3.17500000e-01	1.90801012e-02	2.45148779e-04
3.18000000e-01	1.90096330e-02	2.43135063e-04
3.18500000e-01	1.92235192e-02	2.46448968e-04
3.19000000e-01	1.92464107e-02	2.46390669e-04
3.19500000e-01	1.90518118e-02	2.42821452e-04
3.20000000e-01	1.91734451e-02	2.45142597e-04
3.20500000e-01	1.91496247e-02	2.43242653e-04
3.21000000e-01	1.89771529e-02	2.42691841e-04
3.21500000e-01	1.88162011e-02	2.39287031e-04
3.22000000e-01	1.88788521e-02	2.40134797e-04
3.22500000e-01	1.89146885e-02	2.40660192e-04
3.23000000e-01	1.88456168e-02	2.39458720e-04
3.23500000e-01	1.87664418e-02	2.39483177e-04
3.24000000e-01	1.87507574e-02	2.38295539e-04
3.24500000e-01	1.90563049e-02	2.41901274e-04
3.25000000e-01	1.88839416e-02	2.38751521e-04
3.25500000e-01	1.90495600e-02	2.41148855e-04
3.26000000e-01	1.89072877e-02	2.39182925e-04
3.26500000e-01	1.90243003e-02	2.39492715e-04
3.27000000e-01	1.90797011e-02	2.41392847e-04
3.27500000e-01	1.89530158e-02	2.39037965e-04
3.28000000e-01	1.89173577e-02	2.39059489e-04
3.28500000e-01	1.90687461e-02	2.39684006e-04
3.29000000e-01	1.88215793e-02	2.37030721e-04
3.29500000e-01	1.88088515e-02	2.37265558e-04
3.30000000e-01	1.89835855e-02	2.38403102e-04
3.30500000e-01	1.88405722e-02	2.37024346e-04
3.31000000e-01	1.88062307e-02	2.36291750e-04
3.31500000e-01	1.86742135e-02	2.34835555e-04
3.32000000e-01	1.88180956e-02	2.36303777e-04
3.32500000e-01	1.85259148e-02	2.32789081e-04
3.33000000e-01	1.87162518e-02	2.35881872e-04
3.33500000e-01	1.87088401e-02	2.34194616e-04
3.34000000e-01	1.87586253e-02	2.34033284e-04
3.34500000e-01	1.87992381e-02	2.35015227e-04
3.35000000e-01	1.88016768e-02	2.34040698e-04
3.35500000e-01	1.86552156e-02	2.32364504e-04
3.36000000e-01	1.87155738e-02	2.33287881e-04
3.36500000e-01	1.88489536e-02	2.34480555e-04
3.37000000e-01	1.84729012e-02	2.29207729e-04
3.37500000e-01	1.86548529e-02	2.32720358e-04
3.38000000e-01	1.85269839e-02	2.30858642e-04
3.38500000e-01	1.87954195e-02	2.33404116e-04
3.39000000e-01	1.85263000e-02	2.30556642e-04
3.39500000e-01	1.85024029e-02	2.30213641e-04
3.40000000e-01	1.86314560e-02	2.31470165e-04
3.40500000e-01	1.85559199e-02	2.30443034e-04
3.41000000e-01	1.86307431e-02	2.30761651e-04
3.41500000e-01	1.83747380e-02	2.28314319e-04
3.42000000e-01	1.85709265e-02	2.29106326e-04
3.42500000e-01	1.84151568e-02	2.27786352e-04
3.43000000e-01	1.86550351e-02	2.30025182e-04
3.43500000e-01	1.84817344e-02	2.28109154e-04
3.44000000e-01	1.83944400e-02	2.27823521e-04
3.44500000e-01	1.86388844e-02	2.29108088e-04
3.45000000e-01	1.84205871e-02	2.27413122e-04
3.45500000e-01	1.85561318e-02	2.28481321e-04
3.46000000e-01	1.85234519e-02	2.27779183e-04
3.46500000e-01	1.84512454e-02	2.26539940e-04
3.47000000e-01	1.83412424e-02	2.25462517e-04
3.47500000e-01	1.83152661e-02	2.25301443e-04
3.48000000e-01	1.85183245e-02	2.26973895e-04
3.48500000e-01	1.84534548e-02	2.26004057e-04
3.49000000e-01	1.84810552e-02	2.25696417e-04
3.49500000e-01	1.85759605e-02	2.26960209e-04
3.50000000e-01	1.85273479e-02	1.84757713e-04
3.51000000e-01	1.85018792e-02	1.60010269e-04
3.52000000e-01	1.83792761e-02	1.58598446e-04
3.53000000e-01	1.83911275e-02	1.58211549e-04
3.54000000e-01	1.83455386e-02	1.57584567e-04
3.55000000e-01	1.84669142e-02	1.58442566e-04
3.56000000e-01	1.82501695e-02	1.57562191e-04
3.57000000e-01	1.83938470e-02	1.61421038e-04
3.58000000e-01	1.84268951e-02	1.62744966e-04
3.59000000e-01	1.83402444e-02	1.63520329e-04
3.60000000e-01	1.82605872e-02	1.63800755e-04
3.61000000e-01	1.83168303e-02	1.64946670e-04
3.62000000e-01	1.83976951e-02	1.66234241e-04
3.63000000e-01	1.81771181e-02	1.65339135e-04
3.64000000e-01	1.81603097e-02	1.65743240e-04
3.65000000e-01	1.81930425e-02	1.66072347e-04
3.66000000e-01	1.82966964e-02	1.65289177e-04
3.67000000e-01	1.81661979e-02	1.61961298e-04
3.68000000e-01	1.82238919e-02	1.61370175e-04
3.69000000e-01	1.80718243e-02	1.59515147e-04
3.70000000e-01	1.81103159e-02	1.58702878e-04
3.71000000e-01	1.80589359e-02	1.60273424e-04
3.72000000e-01	1.80354195e-02	1.60977671e-04
3.73000000e-01	1.82285206e-02	1.63525227e-04
3.74000000e-01	1.79978203e-02	1.61315828e-04
3.75000000e-01	1.80663451e-02	1.62315282e-04
3.76000000e-01	1.83098140e-02	1.63780394e-04
3.77000000e-01	1.81987164e-02	1.62913599e-04
3.78000000e-01	1.81222318e-02	1.62856481e-04
3.79000000e-01	1.79537386e-02	1.60896189e-04
3.80000000e-01	1.79880781e-02	1.60961269e-04
3.81000000e-01	1.80672625e-02	1.61408740e-04
3.82000000e-01	1.79459772e-02	1.60539765e-04
3.83000000e-01	1.80183710e-02	1.61150185e-04
3.84000000e-01	1.79734834e-02	1.61028028e-04
3.85000000e-01	1.81271837e-02	1.62238660e-04
3.86000000e-01	1.77973406e-02	1.59162811e-04
3.87000000e-01	1.78899034e-02	1.59488526e-04
3.88000000e-01	1.78412794e-02	1.59571820e-04
3.89000000e-01	1.79496157e-02	1.59939641e-04
3.90000000e-01	1.79429047e-02	1.60197198e-04
3.91000000e-01	1.79598783e-02	1.60199665e-04
3.92000000e-01	1.77819759e-02	1.58921729e-04
3.93000000e-01	1.78805123e-02	1.59332204e-04
3.94000000e-01	1.77724502e-02	1.58313089e-04
3.95000000e-01	1.78337929e-02	1.59002407e-04
3.96000000e-01	1.78538141e-02	1.58799285e-04
3.97000000e-01	1.79230561e-02	1.59791686e-04
3.98000000e-01	1.78319762e-02	1.59309392e-04
3.99000000e-01	1.76685580e-02	1.57666942e-04
4.00000000e-01	1.78131894e-02	1.58840234e-04
4.01000000e-01	1.78520952e-02	1.59268785e-04
4.02000000e-01	1.77600429e-02	1.58327490e-04
4.03000000e-01	1.77619026e-02	1.58190148e-04
4.04000000e-01	1.78565475e-02	1.59258643e-04
4.05000000e-01	1.75637911e-02	1.56488054e-04
4.06000000e-01	1.76992114e-02	1.57544904e-04
4.07000000e-01	1.78025459e-02	1.58489227e-04
4.08000000e-01	1.77075462e-02	1.57337269e-04
4.09000000e-01	1.76354548e-02	1.56623477e-04
4.10000000e-01	1.75976585e-02	1.56510113e-04
4.11000000e-01	1.77690199e-02	1.57809230e-04
4.12000000e-01	1.76028948e-02	1.56440309e-04
4.13000000e-01	1.77413249e-02	1.57566293e-04
4.14000000e-01	1.77939275e-02	1.57738298e-04
4.15000000e-01	1.75316238e-02	1.55646819e-04
4.16000000e-01	1.76140293e-02	1.56209760e-04
4.17000000e-01	1.76816349e-02	1.56477195e-04
4.18000000e-01	1.76217686e-02	1.57999871e-04
4.19000000e-01	1.76584666e-02	1.60330624e-04
4.20000000e-01	1.78005846e-02	1.62087565e-04
4.21000000e-01	1.76927179e-02	1.62294881e-04
4.22000000e-01	1.77825663e-02	1.63126500e-04
4.23000000e-01	1.76944679e-02	1.63093830e-04
4.24000000e-01	1.77454505e-02	1.63768534e-04
4.25000000e-01	1.77916341e-02	1.64630402e-04
4.26000000e-01	1.75780366e-02	1.62371784e-04
4.27000000e-01	1.75845606e-02	1.62881210e-04
4.28000000e-01	1.77329534e-02	1.64478925e-04
4.29000000e-01	1.77231163e-02	1.64365583e-04
4.30000000e-01	1.77772064e-02	1.65529325e-04
4.31000000e-01	1.77225669e-02	1.64377049e-04
4.32000000e-01	1.76852359e-02	1.64050135e-04
4.33000000e-01	1.76004815e-02	1.63499459e-04
4.34000000e-01	1.75970864e-02	1.63511314e-04
4.35000000e-01	1.77065144e-02	1.64754219e-04
4.36000000e-01	1.76282759e-02	1.64303710e-04
4.37000000e-01	1.75256570e-02	1.63355548e-04
4.38000000e-01	1.75904588e-02	1.64654235e-04
4.39000000e-01	1.76523248e-02	1.65133164e-04
4.40000000e-01	1.75109021e-02	1.64065647e-04
4.41000000e-01	1.75172653e-02	1.64581486e-04
4.42000000e-01	1.75692114e-02	1.64978090e-04
4.43000000e-01	1.76442971e-02	1.65684086e-04
4.44000000e-01	1.76403385e-02	1.65935536e-04
4.45000000e-01	1.76111880e-02	1.65820743e-04
4.46000000e-01	1.75566678e-02	1.65522850e-04
4.47000000e-01	1.75767232e-02	1.65738200e-04
4.48000000e-01	1.75420233e-02	1.66064304e-04
4.49000000e-01	1.75104203e-02	1.65637452e-04
4.50000000e-01	1.75255073e-02	1.66357123e-04
4.51000000e-01	1.75711459e-02	1.66527076e-04
4.52000000e-01	1.76238216e-02	1.67262090e-04
4.53000000e-01	1.76382823e-02	1.67138921e-04
4.54000000e-01	1.74742422e-02	1.65642047e-04
4.55000000e-01	1.74804219e-02	1.66176308e-04
4.56000000e-01	1.74715491e-02	1.66469027e-04
4.57000000e-01	1.74369338e-02	1.66173178e-04
4.58000000e-01	1.75245914e-02	1.67039722e-04
4.59000000e-01	1.75218550e-02	1.66875479e-04
4.60000000e-01	1.75480437e-02	1.67451459e-04
4.61000000e-01	1.75232222e-02	1.67414074e-04
4.62000000e-01	1.75451385e-02	1.67568563e-04
4.63000000e-01	1.75491763e-02	1.67716804e-04
4.64000000e-01	1.74000198e-02	1.66728860e-04
4.65000000e-01	1.76160335e-02	1.69414508e-04
4.66000000e-01	1.74406850e-02	1.67468598e-04
4.67000000e-01	1.76348124e-02	1.69135612e-04
4.68000000e-01	1.73628520e-02	1.66926636e-04
4.69000000e-01	1.73933645e-02	1.67603151e-04
4.70000000e-01	1.75810949e-02	1.69079747e-04
4.71000000e-01	1.75086986e-02	1.68258033e-04
4.72000000e-01	1.77558487e-02	1.70296170e-04
4.73000000e-01	1.76452532e-02	1.69412791e-04
4.74000000e-01	1.75054154e-02	1.67958274e-04
4.75000000e-01	1.74496556e-02	1.67599943e-04
4.76000000e-01	1.75428495e-02	1.68350740e-04
4.77000000e-01	1.75141843e-02	1.67677481e-04
4.78000000e-01	1.74521786e-02	1.67751266e-04
4.79000000e-01	1.74195418e-02	1.67423980e-04
4.80000000e-01	1.74246657e-02	1.68172750e-04
4.81000000e-01	1.73196718e-02	1.67058739e-04
4.82000000e-01	1.73755930e-02	1.67326706e-04
4.83000000e-01	1.73372596e-02	1.67592123e-04
4.84000000e-01	1.74854923e-02	1.68286216e-04
4.85000000e-01	1.74679183e-02	1.68460927e-04
4.86000000e-01	1.75166326e-02	1.69491406e-04
4.87000000e-01	1.74293818e-02	1.68531446e-04
4.88000000e-01	1.74836947e-02	1.68271647e-04
4.89000000e-01	1.74128094e-02	1.68419558e-04
4.90000000e-01	1.74270022e-02	1.68487418e-04
4.91000000e-01	1.73480603e-02	1.68050092e-04
4.92000000e-01	1.74869486e-02	1.69427304e-04
4.93000000e-01	1.75139410e-02	1.69660193e-04
4.94000000e-01	1.74120175e-02	1.69018844e-04
4.95000000e-01	1.73321863e-02	1.69541199e-04
4.96000000e-01	1.73363059e-02	1.74325714e-04
4.97000000e-01	1.73874192e-02	1.78284499e-04
4.98000000e-01	1.74418019e-02	1.81245805e-04
4.99000000e-01	1.74556905e-02	1.82866707e-04
5.00000000e-01	1.74132974e-02	1.84512669e-04
5.01000000e-01	1.75595536e-02	1.87810356e-04
5.02000000e-01	1.74262943e-02	1.88760310e-04
5.03000000e-01	1.77058905e-02	1.92985886e-04
5.04000000e-01	1.74516969e-02	1.91998387e-04
5.05000000e-01	1.75927206e-02	1.90358842e-04
5.06000000e-01	1.73750444e-02	1.84383991e-04
5.07000000e-01	1.75061493e-02	1.83604684e-04
5.08000000e-01	1.74245301e-02	1.81662022e-04
5.09000000e-01	1.74826911e-02	1.80920254e-04
5.10000000e-01	1.73948028e-02	1.80191833e-04
5.11000000e-01	1.74060177e-02	1.79400270e-04
5.12000000e-01	1.74258085e-02	1.79306562e-04
5.13000000e-01	1.73368660e-02	1.78398112e-04
5.14000000e-01	1.73182124e-02	1.77685526e-04
5.15000000e-01	1.74829422e-02	1.78579272e-04
5.16000000e-01	1.75114155e-02	1.78305208e-04
5.17000000e-01	1.74397261e-02	1.77770822e-04
5.18000000e-01	1.73767012e-02	1.76972120e-04
5.19000000e-01	1.74436703e-02	1.76485196e-04
5.20000000e-01	1.75094906e-02	1.76839872e-04
5.21000000e-01	1.74865737e-02	1.77081492e-04
5.22000000e-01	1.74413828e-02	1.76358630e-04
5.23000000e-01	1.72962910e-02	1.74727018e-04
5.24000000e-01	1.75326036e-02	1.76872633e-04
5.25000000e-01	1.75120615e-02	1.76443353e-04
5.26000000e-01	1.73655125e-02	1.75266649e-04
5.27000000e-01	1.73362255e-02	1.74652621e-04
5.28000000e-01	1.75052502e-02	1.76345299e-04
5.29000000e-01	1.74825116e-02	1.75942958e-04
5.30000000e-01	1.73878040e-02	1.75053121e-04
5.31000000e-01	1.73882560e-02	1.75335343e-04
5.32000000e-01	1.74174270e-02	1.75688571e-04
5.33000000e-01	1.74572809e-02	1.75648290e-04
5.34000000e-01	1.74492411e-02	1.75756784e-04
5.35000000e-01	1.73785852e-02	1.75238724e-04
5.36000000e-01	1.72570608e-02	1.74042092e-04
5.37000000e-01	1.74766637e-02	1.76144127e-04
5.38000000e-01	1.75753845e-02	1.76862405e-04
5.39000000e-01	1.74448282e-02	1.75657956e-04
5.40000000e-01	1.72754716e-02	1.73552527e-04
5.41000000e-01	1.73968103e-02	1.75223612e-04
5.42000000e-01	1.74412195e-02	1.76020636e-04
5.43000000e-01	1.73511647e-02	1.74765433e-04
5.44000000e-01	1.74789089e-02	1.75554256e-04
5.45000000e-01	1.74232974e-02	1.75787681e-04
5.46000000e-01	1.72660974e-02	1.73983218e-04
5.47000000e-01	1.74404178e-02	1.75539285e-04
5.48000000e-01	1.72969785e-02	1.73847083e-04
5.49000000e-01	1.73086295e-02	1.74256437e-04
5.50000000e-01	1.75199810e-02	1.76580893e-04
5.51000000e-01	1.73477039e-02	1.74269516e-04
5.52000000e-01	1.73470122e-02	1.73970799e-04
5.53000000e-01	1.72504505e-02	1.72920648e-04
5.54000000e-01	1.73826927e-02	1.73851559e-04
5.55000000e-01	1.74492767e-02	1.73971933e-04
5.56000000e-01	1.73248413e-02	1.73183522e-04
5.57000000e-01	1.72711903e-02	1.72699658e-04
5.58000000e-01	1.73134826e-02	1.73446747e-04
5.59000000e-01	1.73927774e-02	1.74195936e-04
5.60000000e-01	1.73891349e-02	1.73862150e-04
5.61000000e-01	1.74072036e-02	1.73688732e-04
5.62000000e-01	1.72546798e-02	1.73075352e-04
5.63000000e-01	1.73164920e-02	1.73610436e-04
5.64000000e-01	1.73562612e-02	1.73482155e-04
5.65000000e-01	1.72897548e-02	1.73234431e-04
5.66000000e-01	1.72453241e-02	1.72723586e-04
5.67000000e-01	1.73177787e-02	1.73377336e-04
5.68000000e-01	1.72338547e-02	1.72503033e-04
5.69000000e-01	1.73583887e-02	1.73031239e-04
5.70000000e-01	1.73330132e-02	1.72847293e-04
5.71000000e-01	1.75406406e-02	1.74572488e-04
5.72000000e-01	1.73618698e-02	1.73662142e-04
5.73000000e-01	1.73944950e-02	1.74002075e-04
5.74000000e-01	1.72808910e-02	1.72531438e-04
5.75000000e-01	1.72812229e-02	1.73104565e-04
5.76000000e-01	1.72212909e-02	1.72496014e-04
5.77000000e-01	1.74913584e-02	1.74646514e-04
5.78000000e-01	1.73383951e-02	1.73470118e-04
5.79000000e-01	1.73574914e-02	1.73784873e-04
5.80000000e-01	1.72272355e-02	1.72737836e-04
5.81000000e-01	1.72015881e-02	1.72837455e-04
5.82000000e-01	1.71752887e-02	1.72377590e-04
5.83000000e-01	1.71365399e-02	1.72386818e-04
5.84000000e-01	1.70725157e-02	1.71582026e-04
5.85000000e-01	1.71976992e-02	1.72476776e-04
5.86000000e-01	1.73575311e-02	1.74353672e-04
5.87000000e-01	1.70787697e-02	1.71234022e-04
5.88000000e-01	1.73435535e-02	1.73769333e-04
5.89000000e-01	1.71469340e-02	1.72674957e-04
5.90000000e-01	1.73123026e-02	1.73907069e-04
5.91000000e-01	1.72391676e-02	1.73144405e-04
5.92000000e-01	1.71904695e-02	1.72468086e-04
5.93000000e-01	1.73895637e-02	1.74387511e-04
5.94000000e-01	1.71108829e-02	1.71981180e-04
5.95000000e-01	1.70554738e-02	1.71678509e-04
5.96000000e-01	1.73444515e-02	1.73655831e-04
5.97000000e-01	1.72292768e-02	1.72946231e-04
5.98000000e-01	1.71639728e-02	1.73036470e-04
5.99000000e-01	1.72800068e-02	1.73377893e-04
6.00000000e-01	1.71915886e-02	1.72690559e-04
6.01000000e-01	1.71062378e-02	1.71936480e-04
6.02000000e-01	1.72025410e-02	1.72852796e-04
6.03000000e-01	1.71264367e-02	1.72490891e-04
6.04000000e-01	1.71131191e-02	1.71701294e-04
6.05000000e-01	1.71366205e-02	1.72482046e-04
6.06000000e-01	1.71602818e-02	1.72436968e-04
6.07000000e-01	1.70273566e-02	1.71615468e-04
6.08000000e-01	1.70674900e-02	1.72262148e-04
6.09000000e-01	1.72063300e-02	1.72934921e-04
6.10000000e-01	1.70707292e-02	1.71901526e-04
6.11000000e-01	1.72319605e-02	1.73212972e-04
6.12000000e-01	1.71113817e-02	1.72398454e-04
6.13000000e-01	1.71859314e-02	1.73157177e-04
6.14000000e-01	1.70499062e-02	1.71716093e-04
6.15000000e-01	1.70189082e-02	1.71690811e-04
6.16000000e-01	1.71494719e-02	1.72646954e-04
6.17000000e-01	1.71074526e-02	1.72427468e-04
6.18000000e-01	1.71080405e-02	1.72623102e-04
6.19000000e-01	1.69558457e-02	1.70523079e-04
6.20000000e-01	1.70337378e-02	1.71108105e-04
6.21000000e-01	1.71346347e-02	1.71506332e-04
6.22000000e-01	1.70505960e-02	1.70905822e-04
6.23000000e-01	1.69261458e-02	1.69505100e-04
6.24000000e-01	1.70390797e-02	1.70411476e-04
6.25000000e-01	1.71140288e-02	1.71328802e-04
6.26000000e-01	1.70653545e-02	1.70214706e-04
6.27000000e-01	1.71557476e-02	1.71193150e-04
6.28000000e-01	1.71042044e-02	1.70725198e-04
6.29000000e-01	1.70574113e-02	1.70201157e-04
6.30000000e-01	1.68609736e-02	1.68612662e-04
6.31000000e-01	1.69319926e-02	1.69855424e-04
6.32000000e-01	1.69653339e-02	1.69714680e-04
6.33000000e-01	1.70663120e-02	1.71044015e-04
6.34000000e-01	1.70732956e-02	1.75014236e-04
6.35000000e-01	1.71681607e-02	1.81132650e-04
6.36000000e-01	1.69755516e-02	1.83542571e-04
6.37000000e-01	1.71153594e-02	1.86428924e-04
6.38000000e-01	1.71131602e-02	1.88758015e-04
6.39000000e-01	1.68901468e-02	1.89443036e-04
6.40000000e-01	1.70502164e-02	1.93203218e-04
6.41000000e-01	1.71292470e-02	1.96197982e-04
6.42000000e-01	1.69995118e-02	1.96837767e-04
6.43000000e-01	1.73418477e-02	2.00121839e-04
6.44000000e-01	1.70331246e-02	1.90047828e-04
6.45000000e-01	1.71298209e-02	1.88257647e-04
6.46000000e-01	1.71924892e-02	1.87396633e-04
6.47000000e-01	1.70424359e-02	1.84355067e-04
6.48000000e-01	1.69921365e-02	1.82973252e-04
6.49000000e-01	1.71961607e-02	1.83605983e-04
6.50000000e-01	1.70897414e-02	1.81762942e-04
6.51000000e-01	1.71231123e-02	1.81082042e-04
6.52000000e-01	1.70675051e-02	1.79824506e-04
6.53000000e-01	1.69710418e-02	1.78826761e-04
6.54000000e-01	1.70254280e-02	1.78475303e-04
6.55000000e-01	1.70958579e-02	1.78936555e-04
6.56000000e-01	1.71418953e-02	1.78906199e-04
6.57000000e-01	1.72183860e-02	1.79840505e-04
6.58000000e-01	1.68572435e-02	1.75357024e-04
6.59000000e-01	1.69024251e-02	1.75923002e-04
6.60000000e-01	1.67775756e-02	1.74594211e-04
6.61000000e-01	1.71692901e-02	1.78335497e-04
6.62000000e-01	1.69850693e-02	1.76503865e-04
6.63000000e-01	1.68140497e-02	1.74939373e-04
6.64000000e-01	1.69851932e-02	1.76245768e-04
6.65000000e-01	1.70008932e-02	1.76697851e-04
6.66000000e-01	1.70011664e-02	1.76322672e-04
6.67000000e-01	1.68607724e-02	1.75099261e-04
6.68000000e-01	1.70158722e-02	1.76822855e-04
6.69000000e-01	1.70061268e-02	1.76088754e-04
6.70000000e-01	1.70243669e-02	1.76372212e-04
6.71000000e-01	1.68691271e-02	1.74680686e-04
6.72000000e-01	1.68343525e-02	1.74197759e-04
6.73000000e-01	1.69627732e-02	1.75480031e-04
6.74000000e-01	1.69536972e-02	1.75128741e-04
6.75000000e-01	1.67077735e-02	1.73094082e-04
6.76000000e-01	1.69439100e-02	1.74553691e-04
6.77000000e-01	1.69174202e-02	1.74572552e-04
6.78000000e-01	1.68737966e-02	1.74669569e-04
6.79000000e-01	1.66796819e-02	1.72937214e-04
6.80000000e-01	1.67150876e-02	1.72572029e-04
6.81000000e-01	1.66130955e-02	1.71711902e-04
6.82000000e-01	1.67421864e-02	1.73307011e-04
6.83000000e-01	1.67689617e-02	1.73394186e-04
6.84000000e-01	1.67365979e-02	1.72876652e-04
6.85000000e-01	1.66843837e-02	1.72435313e-04
6.86000000e-01	1.67244978e-02	1.72680411e-04
6.87000000e-01	1.67465737e-02	1.72856368e-04
6.88000000e-01	1.67869716e-02	1.73062527e-04
6.89000000e-01	1.66501582e-02	1.71800272e-04
6.90000000e-01	1.65237230e-02	1.70667250e-04
6.91000000e-01	1.65843803e-02	1.71643766e-04
6.92000000e-01	1.66256549e-02	1.71897813e-04
6.93000000e-01	1.65849747e-02	1.71011115e-04
6.94000000e-01	1.66648834e-02	1.71462635e-04
6.95000000e-01	1.67876799e-02	1.72751866e-04
6.96000000e-01	1.66008099e-02	1.71254569e-04
6.97000000e-01	1.65381206e-02	1.70147669e-04
6.98000000e-01	1.65872574e-02	1.70764269e-04
6.99000000e-01	1.64571078e-02	1.69319407e-04
7.00000000e-01	1.64892864e-02	1.69632312e-04
7.01000000e-01	1.64557317e-02	1.69864084e-04
7.02000000e-01	1.65041407e-02	1.70144180e-04
7.03000000e-01	1.64072071e-02	1.69271535e-04
7.04000000e-01	1.64933725e-02	1.69974384e-04
7.05000000e-01	1.65050334e-02	1.70323943e-04
7.06000000e-01	1.63909399e-02	1.68954643e-04
7.07000000e-01	1.63537346e-02	1.68490956e-04
7.08000000e-01	1.62831032e-02	1.67039262e-04
7.09000000e-01	1.62667721e-02	1.67863124e-04
7.10000000e-01	1.63614715e-02	1.68507055e-04
7.11000000e-01	1.63657417e-02	1.68646895e-04
7.12000000e-01	1.61713764e-02	1.66330165e-04
7.13000000e-01	1.61994579e-02	1.66617551e-04
7.14000000e-01	1.63305215e-02	1.68530650e-04
7.15000000e-01	1.62045280e-02	1.67120035e-04
7.16000000e-01	1.61756428e-02	1.67030838e-04
7.17000000e-01	1.63356953e-02	1.68374563e-04
7.18000000e-01	1.61061213e-02	1.66325761e-04
7.19000000e-01	1.62375271e-02	1.67225626e-04
7.20000000e-01	1.62371208e-02	1.67346903e-04
7.21000000e-01	1.62665436e-02	1.67657817e-04
7.22000000e-01	1.60866581e-02	1.66243350e-04
7.23000000e-01	1.61537596e-02	1.66583851e-04
7.24000000e-01	1.60488744e-02	1.65472919e-04
7.25000000e-01	1.58984023e-02	1.64145487e-04
7.26000000e-01	1.59747053e-02	1.64738037e-04
7.27000000e-01	1.59875089e-02	1.64877358e-04
7.28000000e-01	1.61156996e-02	1.66407594e-04
7.29000000e-01	1.58756819e-02	1.64415827e-04
7.30000000e-01	1.59697043e-02	1.65165343e-04
7.31000000e-01	1.60416781e-02	1.65797932e-04
7.32000000e-01	1.58158550e-02	1.63534135e-04
7.33000000e-01	1.60749989e-02	1.65592173e-04
7.34000000e-01	1.60201890e-02	1.64498138e-04
7.35000000e-01	1.59240762e-02	1.63853018e-04
7.36000000e-01	1.57360088e-02	1.61691144e-04
7.37000000e-01	1.58267441e-02	1.62804658e-04
7.38000000e-01	1.58948504e-02	1.62586004e-04
7.39000000e-01	1.59115444e-02	1.62797982e-04
7.40000000e-01	1.58716242e-02	1.62485777e-04
7.41000000e-01	1.57872815e-02	1.60833488e-04
7.42000000e-01	1.57042222e-02	1.60214641e-04
7.43000000e-01	1.57359903e-02	1.61046743e-04
7.44000000e-01	1.57098237e-02	1.60860504e-04
7.45000000e-01	1.56525912e-02	1.60086828e-04
7.46000000e-01	1.57885665e-02	1.61539514e-04
7.47000000e-01	1.56960802e-02	1.60346699e-04
7.48000000e-01	1.57728051e-02	1.60997734e-04
7.49000000e-01	1.57377801e-02	1.60922908e-04
7.50000000e-01	1.56385786e-02	1.60143503e-04
7.51000000e-01	1.57118013e-02	1.60660653e-04
7.52000000e-01	1.57176429e-02	1.60571256e-04
7.53000000e-01	1.55703015e-02	1.59864047e-04
7.54000000e-01	1.57386217e-02	1.61002027e-04
7.55000000e-01	1.57266921e-02	1.60852862e-04
7.56000000e-01	1.56746349e-02	1.60649759e-04
7.57000000e-01	1.55285432e-02	1.59135178e-04
7.58000000e-01	1.56446599e-02	1.59635711e-04
7.59000000e-01	1.55581673e-02	1.59342706e-04
7.60000000e-01	1.55013079e-02	1.58137273e-04
7.61000000e-01	1.53951171e-02	1.56887842e-04
7.62000000e-01	1.54845127e-02	1.57066130e-04
7.63000000e-01	1.55312718e-02	1.58010378e-04
7.64000000e-01	1.52967130e-02	1.55571317e-04
7.65000000e-01	1.54723929e-02	1.56979869e-04
7.66000000e-01	1.54181565e-02	1.55817665e-04
7.67000000e-01	1.54471948e-02	1.56523696e-04
7.68000000e-01	1.53073234e-02	1.54916405e-04
7.69000000e-01	1.54647821e-02	1.56909242e-04
7.70000000e-01	1.54055262e-02	1.56391997e-04
7.71000000e-01	1.53875469e-02	1.56230243e-04
7.72000000e-01	1.53575968e-02	1.60209938e-04
7.73000000e-01	1.52839555e-02	1.65463539e-04
7.74000000e-01	1.52974457e-02	1.68042318e-04
7.75000000e-01	1.51857298e-02	1.70755479e-04
7.76000000e-01	1.54404212e-02	1.75944682e-04
7.77000000e-01	1.51480369e-02	1.75307060e-04
7.78000000e-01	1.50820565e-02	1.76599098e-04
7.79000000e-01	1.52887309e-02	1.80439995e-04
7.80000000e-01	1.53023045e-02	1.82837579e-04
7.81000000e-01	1.52664853e-02	1.84511188e-04
7.82000000e-01	1.51132274e-02	1.84486881e-04
7.83000000e-01	1.50227498e-02	1.86390738e-04
7.84000000e-01	1.51874874e-02	1.90407294e-04
7.85000000e-01	1.50004774e-02	1.90045377e-04
7.86000000e-01	1.50559440e-02	1.93005785e-04
7.87000000e-01	1.50577044e-02	1.94227576e-04
7.88000000e-01	1.51381739e-02	1.96783650e-04
7.89000000e-01	1.49746463e-02	1.97097717e-04
7.90000000e-01	1.49731704e-02	2.00824381e-04
7.91000000e-01	1.48980499e-02	2.00937063e-04
7.92000000e-01	1.50156577e-02	2.03791849e-04
7.93000000e-01	1.49476243e-02	2.04166363e-04
7.94000000e-01	1.50054342e-02	2.07502507e-04
7.95000000e-01	1.49312502e-02	2.09275717e-04
7.96000000e-01	1.50981481e-02	2.12828301e-04
7.97000000e-01	1.50565748e-02	2.14529494e-04
7.98000000e-01	1.48399410e-02	2.14692889e-04
7.99000000e-01	1.48797849e-02	2.17785109e-04
8.00000000e-01	1.49200598e-02	2.19027612e-04
8.01000000e-01	1.49328041e-02	2.21171638e-04
8.02000000e-01	1.49744375e-02	2.24796188e-04
8.03000000e-01	1.50983484e-02	2.29582748e-04
8.04000000e-01	1.48219484e-02	2.27093671e-04
8.05000000e-01	1.50487137e-02	2.33281774e-04
8.06000000e-01	1.49103909e-02	2.34104176e-04
8.07000000e-01	1.48195397e-02	2.34747279e-04
8.08000000e-01	1.47738273e-02	2.38350028e-04
8.09000000e-01	1.47094318e-02	2.38103772e-04
8.10000000e-01	1.46236394e-02	2.40232094e-04
8.11000000e-01	1.47408953e-02	2.44100868e-04
8.12000000e-01	1.47353826e-02	2.46640582e-04
8.13000000e-01	1.46018837e-02	2.47808905e-04
8.14000000e-01	1.45553533e-02	2.50295638e-04
8.15000000e-01	1.45803020e-02	2.52661645e-04
8.16000000e-01	1.45437114e-02	2.56886156e-04
8.17000000e-01	1.45797220e-02	2.59725867e-04
8.18000000e-01	1.44994687e-02	2.62281976e-04
8.19000000e-01	1.45627493e-02	2.65213995e-04
8.20000000e-01	1.48253605e-02	2.72765426e-04
8.21000000e-01	1.43893854e-02	2.69007214e-04
8.22000000e-01	1.43390107e-02	2.72222001e-04
8.23000000e-01	1.45394076e-02	2.80631721e-04
8.24000000e-01	1.47221050e-02	2.87182860e-04
8.25000000e-01	1.45424345e-02	2.87435831e-04
8.26000000e-01	1.45356223e-02	2.91597315e-04
8.27000000e-01	1.43921827e-02	2.94056092e-04
8.28000000e-01	1.43483018e-02	2.97905220e-04
8.29000000e-01	1.42341908e-02	2.99747597e-04
8.30000000e-01	1.44892301e-02	3.07320997e-04
8.31000000e-01	1.41436121e-02	3.05181098e-04
8.32000000e-01	1.43508908e-02	3.16715991e-04
8.33000000e-01	1.38410058e-02	3.11623186e-04
8.34000000e-01	1.45543636e-02	3.30276733e-04
8.35000000e-01	1.41897145e-02	3.29309723e-04
8.36000000e-01	1.43727682e-02	3.40248353e-04
8.37000000e-01	1.40259207e-02	3.37697889e-04
8.38000000e-01	1.43124801e-02	3.49023589e-04
8.39000000e-01	1.38083484e-02	3.50626191e-04
8.40000000e-01	1.41114090e-02	3.61929065e-04
8.41000000e-01	1.43419786e-02	3.76404101e-04
8.42000000e-01	1.39910223e-02	3.76078843e-04
8.43000000e-01	1.42357188e-02	3.91924780e-04
8.44000000e-01	1.43995939e-02	4.02888188e-04
8.45000000e-01	1.40114021e-02	4.06513495e-04
8.46000000e-01	1.39526810e-02	4.16113196e-04
8.47000000e-01	1.39714420e-02	4.29952635e-04
8.48000000e-01	1.34712017e-02	4.26142158e-04
8.49000000e-01	1.40342616e-02	4.55109862e-04
8.50000000e-01	1.38626113e-02	4.65455624e-04
8.51000000e-01	1.35168590e-02	4.70362031e-04
8.52000000e-01	1.35418002e-02	4.95317234e-04
8.53000000e-01	1.41531267e-02	5.32261446e-04
8.54000000e-01	1.35028422e-02	5.39380744e-04
8.55000000e-01	1.35502576e-02	5.61570704e-04
8.56000000e-01	1.30953622e-02	5.52149143e-04
8.57000000e-01	1.41234280e-02	6.16296269e-04
8.58000000e-01	1.43951541e-02	6.33156889e-04
8.59000000e-01	1.33419812e-02	6.14197114e-04
8.60000000e-01	1.40273274e-02	6.61741916e-04
8.61000000e-01	1.37275340e-02	6.65863235e-04
8.62000000e-01	1.40779002e-02	7.22265797e-04
8.63000000e-01	1.39982004e-02	7.39656887e-04
8.64000000e-01	1.35473866e-02	7.53029285e-04
8.65000000e-01	1.38520438e-02	7.98956391e-04
8.66000000e-01	1.34634036e-02	8.25555265e-04
8.67000000e-01	1.36705947e-02	8.83027070e-04
8.68000000e-01	1.36240884e-02	9.38146490e-04
8.69000000e-01	1.33842673e-02	9.98413892e-04
8.70000000e-01	1.33304497e-02	1.07773615e-03
8.71000000e-01	1.40031636e-02	1.21372874e-03
8.72000000e-01	1.29645894e-02	1.36414483e-03
8.73000000e-01	1.35999538e-02	1.60818234e-03
8.74000000e-01	1.51474290e-02	2.31753656e-03
8.75000000e-01	1.95381647e-02	6.12488207e-03
