% Filename : SHF7_00029_00032.h5
% Date & Time : 30-Oct-2025 17:16:31
% X-ray Energy (keV) : 13.30001
% Exposure Time (s) : 0.500
% Beam Center : 1461.24000, 208.98300
% Sample to Detector Distance (SDD) (mm) : 1990.750
% Detector Pixel Size (mm) : 0.075
% Photodiode Value : 138156.000
% I0 of Sample : 0
% I0 of Standard : 1
% 
% q(A^-1)   I(q)    I(q)_SE
0.00000000e+00	1.96155200e-02	1.05430119e-02
2.50000000e-04	0.00000000e+00	0.00000000e+00
5.00000000e-04	0.00000000e+00	0.00000000e+00
7.50000000e-04	0.00000000e+00	0.00000000e+00
1.00000000e-03	0.00000000e+00	0.00000000e+00
1.25000000e-03	0.00000000e+00	0.00000000e+00
1.50000000e-03	0.00000000e+00	0.00000000e+00
1.75000000e-03	0.00000000e+00	0.00000000e+00
2.00000000e-03	0.00000000e+00	0.00000000e+00
2.25000000e-03	0.00000000e+00	0.00000000e+00
2.50000000e-03	0.00000000e+00	0.00000000e+00
2.75000000e-03	0.00000000e+00	0.00000000e+00
3.00000000e-03	0.00000000e+00	0.00000000e+00
3.25000000e-03	1.39245572e+03	8.25180982e+02
3.50000000e-03	4.94191274e+02	1.51671281e+02
3.75000000e-03	3.14443727e+02	7.70389083e+01
4.00000000e-03	2.57603082e+02	6.14297917e+01
4.25000000e-03	1.59432291e+02	3.25286639e+01
4.50000000e-03	1.46864943e+02	2.53424903e+01
4.75000000e-03	1.36425730e+02	2.07697004e+01
5.00000000e-03	1.08130439e+02	1.53826099e+01
5.25000000e-03	9.05617462e+01	1.24425796e+01
5.50000000e-03	7.56992071e+01	9.93891487e+00
5.75000000e-03	6.52980019e+01	8.28417559e+00
6.00000000e-03	5.39227970e+01	6.54882006e+00
6.25000000e-03	4.79424848e+01	5.73009087e+00
6.50000000e-03	4.16836399e+01	4.84764879e+00
6.75000000e-03	3.64930441e+01	4.10882978e+00
7.00000000e-03	3.26821473e+01	3.53830799e+00
7.25000000e-03	2.88316670e+01	3.04077620e+00
7.50000000e-03	2.56144091e+01	2.68221456e+00
7.75000000e-03	2.28534789e+01	2.34710123e+00
8.00000000e-03	2.12224532e+01	2.11786140e+00
8.25000000e-03	1.88220669e+01	1.80545909e+00
8.50000000e-03	1.70423625e+01	1.59830569e+00
8.75000000e-03	1.54261164e+01	1.42072569e+00
9.00000000e-03	1.39635168e+01	1.27231877e+00
9.25000000e-03	1.27752657e+01	1.13461004e+00
9.50000000e-03	1.16059471e+01	1.00271993e+00
9.75000000e-03	1.06301344e+01	9.05899767e-01
1.00000000e-02	9.67116536e+00	8.13569487e-01
1.02500000e-02	8.94945734e+00	7.55088281e-01
1.05000000e-02	8.31379723e+00	6.61604934e-01
1.07500000e-02	7.72540739e+00	6.13943593e-01
1.10000000e-02	7.04639757e+00	5.43985271e-01
1.12500000e-02	6.61840727e+00	5.22739082e-01
1.15000000e-02	6.18118972e+00	4.77007660e-01
1.17500000e-02	5.59692991e+00	4.18846455e-01
1.20000000e-02	5.27213196e+00	3.90576152e-01
1.22500000e-02	4.95969648e+00	3.62918435e-01
1.25000000e-02	4.67874460e+00	3.40043780e-01
1.27500000e-02	4.31000904e+00	3.08619010e-01
1.30000000e-02	4.08076333e+00	2.86873922e-01
1.32500000e-02	3.79233203e+00	2.59730533e-01
1.35000000e-02	3.59311003e+00	2.47053061e-01
1.37500000e-02	3.35171057e+00	2.27970380e-01
1.40000000e-02	3.14541059e+00	2.11652477e-01
1.42500000e-02	2.98960678e+00	1.97438911e-01
1.45000000e-02	2.82124583e+00	1.84267401e-01
1.47500000e-02	2.65004116e+00	1.71833411e-01
1.50000000e-02	2.49314061e+00	1.60045216e-01
1.52500000e-02	2.38700862e+00	1.51336415e-01
1.55000000e-02	2.24587948e+00	1.39554122e-01
1.57500000e-02	2.11958795e+00	1.31636350e-01
1.60000000e-02	2.01688475e+00	1.23011737e-01
1.62500000e-02	1.94726479e+00	1.20384351e-01
1.65000000e-02	1.81365757e+00	1.09577606e-01
1.67500000e-02	1.75317015e+00	1.03502638e-01
1.70000000e-02	1.65789573e+00	9.83741474e-02
1.72500000e-02	1.58439923e+00	9.29600389e-02
1.75000000e-02	1.52045149e+00	8.89716018e-02
1.77500000e-02	1.43761870e+00	8.21943463e-02
1.80000000e-02	1.40855578e+00	8.04392212e-02
1.82500000e-02	1.33987765e+00	7.48877320e-02
1.85000000e-02	1.28359633e+00	7.36634321e-02
1.87500000e-02	1.23056444e+00	6.85859329e-02
1.90000000e-02	1.18460705e+00	6.57054449e-02
1.92500000e-02	1.13035222e+00	6.13621116e-02
1.95000000e-02	1.08550620e+00	5.88120871e-02
1.97500000e-02	1.04835938e+00	5.71921942e-02
2.00000000e-02	1.00691637e+00	5.40763297e-02
2.02500000e-02	9.73776286e-01	5.19710664e-02
2.05000000e-02	9.44784973e-01	4.90265014e-02
2.07500000e-02	9.03685002e-01	4.71905107e-02
2.10000000e-02	8.81523873e-01	4.61180763e-02
2.12500000e-02	8.67008252e-01	4.52959347e-02
2.15000000e-02	8.36262658e-01	4.33566253e-02
2.17500000e-02	8.16032776e-01	4.25413537e-02
2.20000000e-02	7.97915790e-01	4.16375101e-02
2.22500000e-02	7.74661550e-01	4.02116961e-02
2.25000000e-02	7.61247870e-01	3.97519441e-02
2.27500000e-02	7.26829311e-01	3.73543642e-02
2.30000000e-02	7.20646104e-01	3.74530939e-02
2.32500000e-02	6.91722142e-01	3.54856284e-02
2.35000000e-02	6.81659703e-01	3.53644001e-02
2.37500000e-02	6.62957446e-01	3.40799687e-02
2.40000000e-02	6.47165515e-01	3.32707328e-02
2.42500000e-02	6.33647622e-01	3.23333677e-02
2.45000000e-02	6.20630224e-01	3.18729523e-02
2.47500000e-02	5.98458692e-01	3.03150871e-02
2.50000000e-02	5.84804300e-01	2.97808285e-02
2.52500000e-02	5.75393641e-01	2.94755290e-02
2.55000000e-02	5.64117576e-01	2.81525766e-02
2.57500000e-02	5.53248203e-01	2.77624592e-02
2.60000000e-02	5.35678565e-01	2.66561163e-02
2.62500000e-02	5.25578696e-01	2.64448644e-02
2.65000000e-02	5.08419500e-01	2.52612586e-02
2.67500000e-02	5.00568398e-01	2.46931949e-02
2.70000000e-02	4.87003852e-01	2.41240129e-02
2.72500000e-02	4.80277381e-01	2.35449622e-02
2.75000000e-02	4.66927463e-01	2.32038742e-02
2.77500000e-02	4.57046960e-01	2.26987239e-02
2.80000000e-02	4.49867525e-01	2.18311555e-02
2.82500000e-02	4.37950858e-01	2.12101575e-02
2.85000000e-02	4.34742967e-01	2.10865124e-02
2.87500000e-02	4.25453406e-01	2.08325446e-02
2.90000000e-02	4.19544940e-01	2.05202063e-02
2.92500000e-02	4.11003284e-01	1.94888596e-02
2.95000000e-02	4.03467504e-01	1.95486159e-02
2.97500000e-02	3.97547637e-01	1.90381383e-02
3.00000000e-02	3.94099918e-01	1.90160328e-02
3.02500000e-02	3.87183207e-01	1.86412512e-02
3.05000000e-02	3.79675354e-01	1.77994370e-02
3.07500000e-02	3.69863645e-01	1.75195018e-02
3.10000000e-02	3.65998733e-01	1.73879398e-02
3.12500000e-02	3.58284075e-01	1.70760309e-02
3.15000000e-02	3.53374314e-01	1.67310324e-02
3.17500000e-02	3.42871641e-01	1.59165499e-02
3.20000000e-02	3.40766523e-01	1.59501048e-02
3.22500000e-02	3.36791236e-01	1.58111740e-02
3.25000000e-02	3.32374745e-01	1.56514415e-02
3.27500000e-02	3.27416935e-01	1.52251393e-02
3.30000000e-02	3.23016743e-01	1.48715493e-02
3.32500000e-02	3.16323235e-01	1.46345355e-02
3.35000000e-02	3.14345200e-01	1.46639443e-02
3.37500000e-02	3.09187333e-01	1.42254646e-02
3.40000000e-02	3.05317176e-01	1.41316105e-02
3.42500000e-02	3.02279276e-01	1.38642543e-02
3.45000000e-02	2.96497735e-01	1.36652578e-02
3.47500000e-02	2.95539227e-01	1.34927490e-02
3.50000000e-02	2.89408706e-01	1.32201363e-02
3.52500000e-02	2.85784108e-01	1.31013674e-02
3.55000000e-02	2.80863228e-01	1.26606542e-02
3.57500000e-02	2.82106773e-01	1.28519853e-02
3.60000000e-02	2.73913060e-01	1.24673477e-02
3.62500000e-02	2.71555767e-01	1.23664559e-02
3.65000000e-02	2.66312199e-01	1.20124319e-02
3.67500000e-02	2.69297469e-01	1.21071156e-02
3.70000000e-02	2.61212854e-01	1.17430404e-02
3.72500000e-02	2.58101100e-01	1.15442369e-02
3.75000000e-02	2.55630204e-01	1.15309796e-02
3.77500000e-02	2.56535646e-01	1.14369947e-02
3.80000000e-02	2.54299313e-01	1.13256302e-02
3.82500000e-02	2.48114847e-01	1.09881890e-02
3.85000000e-02	2.46095287e-01	1.09884161e-02
3.87500000e-02	2.40096813e-01	1.06164411e-02
3.90000000e-02	2.41026088e-01	1.07572338e-02
3.92500000e-02	2.38889686e-01	1.04788031e-02
3.95000000e-02	2.36666763e-01	1.04365642e-02
3.97500000e-02	2.31284413e-01	1.01954441e-02
4.00000000e-02	2.34184930e-01	1.03124650e-02
4.02500000e-02	2.33402943e-01	1.02087266e-02
4.05000000e-02	2.29333841e-01	9.97330775e-03
4.07500000e-02	2.27658816e-01	9.82055272e-03
4.10000000e-02	2.25439393e-01	9.87128853e-03
4.12500000e-02	2.23653556e-01	9.73432667e-03
4.15000000e-02	2.23429622e-01	9.64667380e-03
4.17500000e-02	2.20232200e-01	9.54193715e-03
4.20000000e-02	2.19018987e-01	9.42390551e-03
4.22500000e-02	2.16187079e-01	9.29832556e-03
4.25000000e-02	2.14266571e-01	9.25576479e-03
4.27500000e-02	2.11528991e-01	9.06952970e-03
4.30000000e-02	2.13347534e-01	9.09105855e-03
4.32500000e-02	2.07840613e-01	8.87331247e-03
4.35000000e-02	2.07684947e-01	8.95966045e-03
4.37500000e-02	2.05687137e-01	8.73680226e-03
4.40000000e-02	2.05827713e-01	8.80735706e-03
4.42500000e-02	2.03493233e-01	8.65743492e-03
4.45000000e-02	2.05552826e-01	8.68488643e-03
4.47500000e-02	2.00768183e-01	8.51693661e-03
4.50000000e-02	2.00491040e-01	8.52395051e-03
4.52500000e-02	1.98148054e-01	8.33585935e-03
4.55000000e-02	1.98508551e-01	8.31955694e-03
4.57500000e-02	1.95001284e-01	8.19982334e-03
4.60000000e-02	1.94240989e-01	8.19379682e-03
4.62500000e-02	1.95942894e-01	8.21166076e-03
4.65000000e-02	1.92499652e-01	8.00103544e-03
4.67500000e-02	1.92688435e-01	8.00903493e-03
4.70000000e-02	1.90950159e-01	7.89867490e-03
4.72500000e-02	1.89139051e-01	7.88154252e-03
4.75000000e-02	1.87398424e-01	7.84997896e-03
4.77500000e-02	1.87545595e-01	7.70294995e-03
4.80000000e-02	1.85930434e-01	7.65485076e-03
4.82500000e-02	1.83792003e-01	7.58825244e-03
4.85000000e-02	1.82340845e-01	7.59015771e-03
4.87500000e-02	1.84254083e-01	7.64474556e-03
4.90000000e-02	1.81988942e-01	7.46434299e-03
4.92500000e-02	1.81002411e-01	7.38901510e-03
4.95000000e-02	1.79483819e-01	7.36845868e-03
4.97500000e-02	1.81790432e-01	7.48653194e-03
5.00000000e-02	1.78129963e-01	7.30582786e-03
5.02500000e-02	1.77955127e-01	7.23450745e-03
5.05000000e-02	1.76116532e-01	7.14420393e-03
5.07500000e-02	1.75482690e-01	7.16142105e-03
5.10000000e-02	1.76711839e-01	7.22202202e-03
5.12500000e-02	1.72294171e-01	7.02320497e-03
5.15000000e-02	1.72278771e-01	6.95088420e-03
5.17500000e-02	1.71370207e-01	6.95916787e-03
5.20000000e-02	1.71132208e-01	6.86118849e-03
5.22500000e-02	1.70863712e-01	6.94970857e-03
5.25000000e-02	1.70692581e-01	6.85648972e-03
5.27500000e-02	1.68789049e-01	6.78908734e-03
5.30000000e-02	1.69128826e-01	6.81698346e-03
5.32500000e-02	1.68354950e-01	6.77283137e-03
5.35000000e-02	1.69308281e-01	6.82594214e-03
5.37500000e-02	1.64728491e-01	6.57823009e-03
5.40000000e-02	1.64686908e-01	6.58455146e-03
5.42500000e-02	1.64222523e-01	6.55963990e-03
5.45000000e-02	1.64822531e-01	6.58499301e-03
5.47500000e-02	1.63922464e-01	6.51511688e-03
5.50000000e-02	1.62835824e-01	6.52475468e-03
5.52500000e-02	1.63053215e-01	6.46709842e-03
5.55000000e-02	1.62140894e-01	6.44953418e-03
5.57500000e-02	1.61146160e-01	6.41893780e-03
5.60000000e-02	1.59013983e-01	6.30430425e-03
5.62500000e-02	1.59783734e-01	6.31596521e-03
5.65000000e-02	1.56814614e-01	6.18532438e-03
5.67500000e-02	1.58184626e-01	6.27920188e-03
5.70000000e-02	1.59654255e-01	6.26161596e-03
5.72500000e-02	1.58106551e-01	6.24884854e-03
5.75000000e-02	1.57516148e-01	6.22942621e-03
5.77500000e-02	1.56770802e-01	6.13394805e-03
5.80000000e-02	1.57174322e-01	6.22031339e-03
5.82500000e-02	1.53678006e-01	6.00102964e-03
5.85000000e-02	1.55595250e-01	6.10301143e-03
5.87500000e-02	1.54707299e-01	6.02481058e-03
5.90000000e-02	1.54312891e-01	6.01785812e-03
5.92500000e-02	1.52375017e-01	5.96061275e-03
5.95000000e-02	1.53510268e-01	5.97246822e-03
5.97500000e-02	1.52145231e-01	5.96694041e-03
6.00000000e-02	1.50826220e-01	5.85634933e-03
6.02500000e-02	1.49676170e-01	5.80278754e-03
6.05000000e-02	1.49125044e-01	5.78133992e-03
6.07500000e-02	1.49140617e-01	5.80425384e-03
6.10000000e-02	1.48640930e-01	5.78134838e-03
6.12500000e-02	1.49264783e-01	5.77358606e-03
6.15000000e-02	1.47187959e-01	5.68034084e-03
6.17500000e-02	1.45633908e-01	5.60909718e-03
6.20000000e-02	1.46368235e-01	5.63851008e-03
6.22500000e-02	1.47254876e-01	5.69594791e-03
6.25000000e-02	1.45956473e-01	5.60948528e-03
6.27500000e-02	1.46269183e-01	5.60370043e-03
6.30000000e-02	1.44378089e-01	5.55412733e-03
6.32500000e-02	1.45121697e-01	5.55553187e-03
6.35000000e-02	1.45656939e-01	5.55562441e-03
6.37500000e-02	1.45717861e-01	5.59536475e-03
6.40000000e-02	1.45338247e-01	5.57796060e-03
6.42500000e-02	1.44264889e-01	5.48429270e-03
6.45000000e-02	1.42115063e-01	5.39059755e-03
6.47500000e-02	1.42670350e-01	5.43242599e-03
6.50000000e-02	1.43056833e-01	5.42185999e-03
6.52500000e-02	1.43885697e-01	5.43459566e-03
6.55000000e-02	1.40363782e-01	5.32849862e-03
6.57500000e-02	1.43815070e-01	5.45474830e-03
6.60000000e-02	1.39750768e-01	5.28445136e-03
6.62500000e-02	1.41626005e-01	5.36571427e-03
6.65000000e-02	1.39733397e-01	5.27898703e-03
6.67500000e-02	1.39568589e-01	5.26575537e-03
6.70000000e-02	1.39540656e-01	5.27706153e-03
6.72500000e-02	1.39352464e-01	5.25905179e-03
6.75000000e-02	1.36469768e-01	5.10050933e-03
6.77500000e-02	1.38514853e-01	5.19947987e-03
6.80000000e-02	1.36678307e-01	5.14180508e-03
6.82500000e-02	1.35846094e-01	5.10202524e-03
6.85000000e-02	1.37045515e-01	5.18421605e-03
6.87500000e-02	1.36447340e-01	5.11692146e-03
6.90000000e-02	1.35465218e-01	5.05544024e-03
6.92500000e-02	1.36451366e-01	5.08763630e-03
6.95000000e-02	1.34984369e-01	5.08067265e-03
6.97500000e-02	1.35094441e-01	5.06766341e-03
7.00000000e-02	1.34021350e-01	4.98476022e-03
7.02500000e-02	1.34979061e-01	4.98599084e-03
7.05000000e-02	1.33918950e-01	4.96888939e-03
7.07500000e-02	1.34351755e-01	5.02055555e-03
7.10000000e-02	1.32711872e-01	4.91229939e-03
7.12500000e-02	1.33112067e-01	4.92315284e-03
7.15000000e-02	1.34251759e-01	4.96200826e-03
7.17500000e-02	1.31882235e-01	4.89443894e-03
7.20000000e-02	1.31652874e-01	4.89348983e-03
7.22500000e-02	1.31622229e-01	4.85852267e-03
7.25000000e-02	1.31375456e-01	4.83912578e-03
7.27500000e-02	1.30500050e-01	4.80443127e-03
7.30000000e-02	1.31017824e-01	4.80990751e-03
7.32500000e-02	1.29303579e-01	4.71534487e-03
7.35000000e-02	1.30392961e-01	4.80014668e-03
7.37500000e-02	1.27304642e-01	4.66301549e-03
7.40000000e-02	1.29079166e-01	4.72648933e-03
7.42500000e-02	1.27902628e-01	4.68328347e-03
7.45000000e-02	1.29273678e-01	4.73077483e-03
7.47500000e-02	1.27387495e-01	4.63017038e-03
7.50000000e-02	1.26326127e-01	4.58108540e-03
7.52500000e-02	1.26005431e-01	4.58762293e-03
7.55000000e-02	1.25982026e-01	4.56093047e-03
7.57500000e-02	1.26535837e-01	4.58395239e-03
7.60000000e-02	1.23960817e-01	4.50859612e-03
7.62500000e-02	1.24549169e-01	4.52767668e-03
7.65000000e-02	1.24308406e-01	4.50912283e-03
7.67500000e-02	1.23894822e-01	4.48645300e-03
7.70000000e-02	1.23679464e-01	4.45105258e-03
7.72500000e-02	1.26722321e-01	4.63309199e-03
7.75000000e-02	1.28934435e-01	4.71933807e-03
7.77500000e-02	1.29700122e-01	4.77617193e-03
7.80000000e-02	1.30843200e-01	4.81953074e-03
7.82500000e-02	1.29650096e-01	4.80822462e-03
7.85000000e-02	1.31030220e-01	4.90235518e-03
7.87500000e-02	1.31769022e-01	4.88554817e-03
7.90000000e-02	1.30979874e-01	4.92073669e-03
7.92500000e-02	1.30650488e-01	4.90060045e-03
7.95000000e-02	1.30571271e-01	4.88986441e-03
7.97500000e-02	1.31590449e-01	4.95934611e-03
8.00000000e-02	1.33989436e-01	5.01090526e-03
8.02500000e-02	1.32482623e-01	4.99427860e-03
8.05000000e-02	1.30563525e-01	4.89701415e-03
8.07500000e-02	1.35815029e-01	5.12615294e-03
8.10000000e-02	1.32987256e-01	5.02845314e-03
8.12500000e-02	1.33037095e-01	5.00189042e-03
8.15000000e-02	1.32020450e-01	4.94495276e-03
8.17500000e-02	1.32868964e-01	5.04570977e-03
8.20000000e-02	1.32911753e-01	5.03045076e-03
8.22500000e-02	1.32528714e-01	5.00887490e-03
8.25000000e-02	1.33473798e-01	5.03061281e-03
8.27500000e-02	1.32745276e-01	4.99937279e-03
8.30000000e-02	1.32933271e-01	5.03145718e-03
8.32500000e-02	1.32786212e-01	5.04352659e-03
8.35000000e-02	1.34110114e-01	5.12038369e-03
8.37500000e-02	1.32805769e-01	4.99435961e-03
8.40000000e-02	1.33077769e-01	5.03592948e-03
8.42500000e-02	1.30260309e-01	4.95573272e-03
8.45000000e-02	1.33212684e-01	5.07740879e-03
8.47500000e-02	1.32175639e-01	5.03485194e-03
8.50000000e-02	1.31867298e-01	4.96316472e-03
8.52500000e-02	1.31216988e-01	5.00187603e-03
8.55000000e-02	1.33816504e-01	5.05793641e-03
8.57500000e-02	1.33342409e-01	5.04460150e-03
8.60000000e-02	1.31368007e-01	5.00545216e-03
8.62500000e-02	1.30994104e-01	4.93795393e-03
8.65000000e-02	1.32171360e-01	5.00940329e-03
8.67500000e-02	1.29860865e-01	4.90920546e-03
8.70000000e-02	1.27317800e-01	4.77282392e-03
8.72500000e-02	1.25802357e-01	4.64299806e-03
8.75000000e-02	1.23015666e-01	4.52595861e-03
8.77500000e-02	1.21015266e-01	4.47025987e-03
8.80000000e-02	1.21456575e-01	4.47095320e-03
8.82500000e-02	1.19920281e-01	4.39553092e-03
8.85000000e-02	1.20030368e-01	4.37658660e-03
8.87500000e-02	1.18174444e-01	4.24736408e-03
8.90000000e-02	1.17362050e-01	4.26168386e-03
8.92500000e-02	1.16780464e-01	4.21402052e-03
8.95000000e-02	1.16104754e-01	4.20070440e-03
8.97500000e-02	1.14364398e-01	4.09491318e-03
9.00000000e-02	1.13588111e-01	4.04717594e-03
9.02500000e-02	1.13943460e-01	4.09634955e-03
9.05000000e-02	1.12981180e-01	4.04480824e-03
9.07500000e-02	1.11551585e-01	3.96521702e-03
9.10000000e-02	1.10186454e-01	3.89285047e-03
9.12500000e-02	1.10182017e-01	3.89183286e-03
9.15000000e-02	1.10884039e-01	3.91506013e-03
9.17500000e-02	1.10417354e-01	3.90832828e-03
9.20000000e-02	1.09382353e-01	3.85441359e-03
9.22500000e-02	1.08910585e-01	3.83323683e-03
9.25000000e-02	1.07701352e-01	3.75017109e-03
9.27500000e-02	1.07419641e-01	3.75585875e-03
9.30000000e-02	1.07221792e-01	3.74002840e-03
9.32500000e-02	1.06221818e-01	3.72469432e-03
9.35000000e-02	1.05535177e-01	3.67146104e-03
9.37500000e-02	1.04977238e-01	3.64700437e-03
9.40000000e-02	1.04628826e-01	3.65902212e-03
9.42500000e-02	1.04181289e-01	3.60830242e-03
9.45000000e-02	1.02736474e-01	3.54926952e-03
9.47500000e-02	1.02289158e-01	3.53848097e-03
9.50000000e-02	1.01094922e-01	3.48226382e-03
9.52500000e-02	1.01247574e-01	3.47997189e-03
9.55000000e-02	1.01484236e-01	3.46875574e-03
9.57500000e-02	1.01499768e-01	3.49519252e-03
9.60000000e-02	9.99615859e-02	3.42534392e-03
9.62500000e-02	9.90444308e-02	3.38392385e-03
9.65000000e-02	9.97832354e-02	3.39963385e-03
9.67500000e-02	9.91415955e-02	3.37099358e-03
9.70000000e-02	9.68478152e-02	3.26561686e-03
9.72500000e-02	9.73890683e-02	3.31186371e-03
9.75000000e-02	9.71466569e-02	3.28275661e-03
9.77500000e-02	9.50698485e-02	3.19349418e-03
9.80000000e-02	9.55065495e-02	3.22636412e-03
9.82500000e-02	9.57260761e-02	3.21965252e-03
9.85000000e-02	9.45717193e-02	3.17953584e-03
9.87500000e-02	9.49434083e-02	3.19086413e-03
9.90000000e-02	9.32547391e-02	3.12410362e-03
9.92500000e-02	9.28654071e-02	3.12711399e-03
9.95000000e-02	9.26557550e-02	3.10971700e-03
9.97500000e-02	9.30037689e-02	3.08102654e-03
1.00000000e-01	9.29722290e-02	2.53426562e-03
1.00500000e-01	9.12698609e-02	2.15244416e-03
1.01000000e-01	8.93270159e-02	2.08902252e-03
1.01500000e-01	8.87106901e-02	2.07317926e-03
1.02000000e-01	8.80225736e-02	2.04822948e-03
1.02500000e-01	8.72236619e-02	2.01282159e-03
1.03000000e-01	8.70033099e-02	2.01229425e-03
1.03500000e-01	8.55274002e-02	1.96484444e-03
1.04000000e-01	8.45006611e-02	1.94145350e-03
1.04500000e-01	8.34331286e-02	1.91194934e-03
1.05000000e-01	8.35794927e-02	1.89606660e-03
1.05500000e-01	8.17825992e-02	1.86762487e-03
1.06000000e-01	8.16551180e-02	1.84510608e-03
1.06500000e-01	8.00927629e-02	1.80333686e-03
1.07000000e-01	7.76053810e-02	1.77838367e-03
1.07500000e-01	7.31750318e-02	1.70644916e-03
1.08000000e-01	7.12269113e-02	1.67290984e-03
1.08500000e-01	6.95915251e-02	1.65149495e-03
1.09000000e-01	6.77197881e-02	1.61166932e-03
1.09500000e-01	6.63408466e-02	1.59419814e-03
1.10000000e-01	6.65469315e-02	1.57660286e-03
1.10500000e-01	6.93976139e-02	1.60489343e-03
1.11000000e-01	6.97742317e-02	1.58707253e-03
1.11500000e-01	6.99552581e-02	1.58808282e-03
1.12000000e-01	7.07910392e-02	1.58227992e-03
1.12500000e-01	7.03453224e-02	1.56157624e-03
1.13000000e-01	6.95942510e-02	1.54630596e-03
1.13500000e-01	6.85315457e-02	1.51470899e-03
1.14000000e-01	6.82648513e-02	1.49530689e-03
1.14500000e-01	6.78283085e-02	1.48420940e-03
1.15000000e-01	6.69671350e-02	1.45110190e-03
1.15500000e-01	6.66332380e-02	1.44480569e-03
1.16000000e-01	6.56791562e-02	1.41333872e-03
1.16500000e-01	6.53648424e-02	1.39858871e-03
1.17000000e-01	6.45760016e-02	1.38751522e-03
1.17500000e-01	6.40251446e-02	1.36553482e-03
1.18000000e-01	6.34785104e-02	1.35023391e-03
1.18500000e-01	6.25010813e-02	1.32048678e-03
1.19000000e-01	6.24897873e-02	1.31518000e-03
1.19500000e-01	6.17797916e-02	1.30125981e-03
1.20000000e-01	6.08961237e-02	1.27516089e-03
1.20500000e-01	6.05927563e-02	1.26298649e-03
1.21000000e-01	6.00877916e-02	1.24768239e-03
1.21500000e-01	5.89949217e-02	1.22087219e-03
1.22000000e-01	5.82273562e-02	1.20534111e-03
1.22500000e-01	5.73859784e-02	1.18013262e-03
1.23000000e-01	5.71737231e-02	1.17274255e-03
1.23500000e-01	5.64369630e-02	1.15412949e-03
1.24000000e-01	5.60542656e-02	1.14593191e-03
1.24500000e-01	5.57201602e-02	1.12569624e-03
1.25000000e-01	5.54122780e-02	1.12463844e-03
1.25500000e-01	5.47044580e-02	1.10359691e-03
1.26000000e-01	5.45175349e-02	1.09764445e-03
1.26500000e-01	5.38079582e-02	1.07514992e-03
1.27000000e-01	5.30631227e-02	1.05978431e-03
1.27500000e-01	5.28351692e-02	1.05480634e-03
1.28000000e-01	5.21610488e-02	1.03949175e-03
1.28500000e-01	5.21727709e-02	1.02899764e-03
1.29000000e-01	5.11264236e-02	1.01106859e-03
1.29500000e-01	5.10139259e-02	1.00134559e-03
1.30000000e-01	5.05277105e-02	9.90020198e-04
1.30500000e-01	4.95916914e-02	9.69066571e-04
1.31000000e-01	4.89961655e-02	9.51353670e-04
1.31500000e-01	4.87215834e-02	9.47468995e-04
1.32000000e-01	4.85914836e-02	9.37410233e-04
1.32500000e-01	4.74494814e-02	9.15891646e-04
1.33000000e-01	4.70776679e-02	9.09241587e-04
1.33500000e-01	4.66497121e-02	8.93928207e-04
1.34000000e-01	4.65945382e-02	8.86884971e-04
1.34500000e-01	4.58858819e-02	8.68578437e-04
1.35000000e-01	4.53256318e-02	8.60997145e-04
1.35500000e-01	4.55293095e-02	8.58330288e-04
1.36000000e-01	4.44193585e-02	8.35251397e-04
1.36500000e-01	4.43359792e-02	8.35632891e-04
1.37000000e-01	4.38025935e-02	8.18793331e-04
1.37500000e-01	4.37579421e-02	8.16312241e-04
1.38000000e-01	4.32484662e-02	8.07030283e-04
1.38500000e-01	4.30032693e-02	7.96911645e-04
1.39000000e-01	4.28445133e-02	7.98705737e-04
1.39500000e-01	4.18805688e-02	7.80576706e-04
1.40000000e-01	4.18618734e-02	7.75721768e-04
1.40500000e-01	4.14195133e-02	7.63695234e-04
1.41000000e-01	4.11793955e-02	7.61904845e-04
1.41500000e-01	4.03378473e-02	7.43084397e-04
1.42000000e-01	4.01448901e-02	7.35846949e-04
1.42500000e-01	4.00765689e-02	7.37837800e-04
1.43000000e-01	3.94100555e-02	7.22473796e-04
1.43500000e-01	3.91450364e-02	7.14737434e-04
1.44000000e-01	3.91493905e-02	7.12887500e-04
1.44500000e-01	3.88537961e-02	7.02976778e-04
1.45000000e-01	3.84141003e-02	6.96016892e-04
1.45500000e-01	3.83503410e-02	6.91055510e-04
1.46000000e-01	3.75599230e-02	6.77300797e-04
1.46500000e-01	3.71449459e-02	6.68368103e-04
1.47000000e-01	3.71029250e-02	6.66943060e-04
1.47500000e-01	3.68826841e-02	6.59104075e-04
1.48000000e-01	3.69065947e-02	6.61123270e-04
1.48500000e-01	3.57765830e-02	6.38493853e-04
1.49000000e-01	3.59830168e-02	6.37584455e-04
1.49500000e-01	3.58858151e-02	6.36350773e-04
1.50000000e-01	3.56812412e-02	6.31563418e-04
1.50500000e-01	3.53398456e-02	6.28309248e-04
1.51000000e-01	3.50166122e-02	6.17607054e-04
1.51500000e-01	3.45376304e-02	6.07549909e-04
1.52000000e-01	3.48258661e-02	6.10350037e-04
1.52500000e-01	3.44388720e-02	6.04448061e-04
1.53000000e-01	3.41349685e-02	5.99472367e-04
1.53500000e-01	3.37028391e-02	5.89470904e-04
1.54000000e-01	3.37223051e-02	5.85469393e-04
1.54500000e-01	3.30647452e-02	5.86407136e-04
1.55000000e-01	3.27380061e-02	5.89468977e-04
1.55500000e-01	3.22317356e-02	5.81974656e-04
1.56000000e-01	3.16900566e-02	5.77599317e-04
1.56500000e-01	3.19448138e-02	5.79083112e-04
1.57000000e-01	3.13113809e-02	5.69637363e-04
1.57500000e-01	3.14027286e-02	5.61004666e-04
1.58000000e-01	3.18301426e-02	5.59224267e-04
1.58500000e-01	3.13677801e-02	5.50487278e-04
1.59000000e-01	3.14280203e-02	5.48499631e-04
1.59500000e-01	3.11823859e-02	5.42327444e-04
1.60000000e-01	3.11866005e-02	5.42492175e-04
1.60500000e-01	3.12926376e-02	5.41021633e-04
1.61000000e-01	3.08163989e-02	5.33554537e-04
1.61500000e-01	3.06587148e-02	5.25427926e-04
1.62000000e-01	3.04898339e-02	5.24553984e-04
1.62500000e-01	3.06322889e-02	5.25586377e-04
1.63000000e-01	2.99250849e-02	5.11953067e-04
1.63500000e-01	3.00377982e-02	5.16718680e-04
1.64000000e-01	2.97657151e-02	5.06699360e-04
1.64500000e-01	2.94918752e-02	5.05015021e-04
1.65000000e-01	2.98906061e-02	5.07565612e-04
1.65500000e-01	2.97375687e-02	5.05277813e-04
1.66000000e-01	2.96374438e-02	5.03132677e-04
1.66500000e-01	2.91142250e-02	4.92935482e-04
1.67000000e-01	2.90331172e-02	4.90500538e-04
1.67500000e-01	2.88705373e-02	4.87973689e-04
1.68000000e-01	2.88842631e-02	4.87663740e-04
1.68500000e-01	2.89632493e-02	4.87185257e-04
1.69000000e-01	2.89374838e-02	4.87261976e-04
1.69500000e-01	2.84421113e-02	4.75400107e-04
1.70000000e-01	2.80990096e-02	4.71890901e-04
1.70500000e-01	2.82552272e-02	4.72668893e-04
1.71000000e-01	2.81075475e-02	4.69544306e-04
1.71500000e-01	2.81316494e-02	4.69550015e-04
1.72000000e-01	2.78237547e-02	4.61915500e-04
1.72500000e-01	2.78868612e-02	4.62786139e-04
1.73000000e-01	2.77941060e-02	4.61293074e-04
1.73500000e-01	2.72186020e-02	4.51041414e-04
1.74000000e-01	2.77906362e-02	4.60140291e-04
1.74500000e-01	2.71981094e-02	4.47291362e-04
1.75000000e-01	2.75775887e-02	4.51390222e-04
1.75500000e-01	2.70285182e-02	4.42549293e-04
1.76000000e-01	2.72808876e-02	4.47986759e-04
1.76500000e-01	2.70087282e-02	4.42248817e-04
1.77000000e-01	2.69940172e-02	4.40765869e-04
1.77500000e-01	2.67404183e-02	4.37687887e-04
1.78000000e-01	2.67303212e-02	4.36518733e-04
1.78500000e-01	2.70386294e-02	4.41059242e-04
1.79000000e-01	2.68393530e-02	4.37464203e-04
1.79500000e-01	2.64417415e-02	4.32178571e-04
1.80000000e-01	2.64862225e-02	4.32988977e-04
1.80500000e-01	2.67657298e-02	4.36071985e-04
1.81000000e-01	2.65435390e-02	4.31971855e-04
1.81500000e-01	2.59089140e-02	4.22022070e-04
1.82000000e-01	2.61622493e-02	4.25173030e-04
1.82500000e-01	2.60173577e-02	4.21952820e-04
1.83000000e-01	2.58030505e-02	4.20005161e-04
1.83500000e-01	2.62615681e-02	4.24886481e-04
1.84000000e-01	2.58432705e-02	4.16749176e-04
1.84500000e-01	2.59032233e-02	4.18202557e-04
1.85000000e-01	2.57098653e-02	4.14410550e-04
1.85500000e-01	2.55514963e-02	4.11258535e-04
1.86000000e-01	2.56263262e-02	4.10581303e-04
1.86500000e-01	2.53555569e-02	4.06649859e-04
1.87000000e-01	2.57234554e-02	4.12659760e-04
1.87500000e-01	2.54713468e-02	4.07352508e-04
1.88000000e-01	2.51635460e-02	4.02832844e-04
1.88500000e-01	2.51385749e-02	4.02756351e-04
1.89000000e-01	2.53297813e-02	4.03909720e-04
1.89500000e-01	2.55620243e-02	4.07276505e-04
1.90000000e-01	2.51268738e-02	3.98676917e-04
1.90500000e-01	2.51733828e-02	3.99368985e-04
1.91000000e-01	2.50482640e-02	3.97885218e-04
1.91500000e-01	2.50976424e-02	3.98440311e-04
1.92000000e-01	2.48837040e-02	3.93832876e-04
1.92500000e-01	2.47567361e-02	3.91626993e-04
1.93000000e-01	2.46326953e-02	3.89782215e-04
1.93500000e-01	2.49418745e-02	3.93881363e-04
1.94000000e-01	2.48714766e-02	3.93436020e-04
1.94500000e-01	2.50207262e-02	3.92970661e-04
1.95000000e-01	2.43216150e-02	3.82939323e-04
1.95500000e-01	2.46819179e-02	3.86311354e-04
1.96000000e-01	2.46808602e-02	3.86743856e-04
1.96500000e-01	2.44342699e-02	3.83932424e-04
1.97000000e-01	2.44894256e-02	3.83894460e-04
1.97500000e-01	2.45134351e-02	3.84204889e-04
1.98000000e-01	2.42508927e-02	3.79266728e-04
1.98500000e-01	2.42996169e-02	3.79230992e-04
1.99000000e-01	2.45535954e-02	3.82625256e-04
1.99500000e-01	2.42746633e-02	3.77313617e-04
2.00000000e-01	2.40953810e-02	3.75435605e-04
2.00500000e-01	2.41569702e-02	3.76663564e-04
2.01000000e-01	2.41559214e-02	3.75393054e-04
2.01500000e-01	2.42510589e-02	3.76909174e-04
2.02000000e-01	2.41273711e-02	3.74576426e-04
2.02500000e-01	2.42629908e-02	3.74581477e-04
2.03000000e-01	2.42170755e-02	3.74939283e-04
2.03500000e-01	2.39153889e-02	3.69319676e-04
2.04000000e-01	2.38795576e-02	3.68491314e-04
2.04500000e-01	2.38991915e-02	3.68412370e-04
2.05000000e-01	2.37271837e-02	3.64128874e-04
2.05500000e-01	2.36269426e-02	3.64246760e-04
2.06000000e-01	2.38116834e-02	3.64035462e-04
2.06500000e-01	2.38174040e-02	3.65832585e-04
2.07000000e-01	2.37857859e-02	3.63945469e-04
2.07500000e-01	2.35675097e-02	3.61041085e-04
2.08000000e-01	2.35409807e-02	3.62368320e-04
2.08500000e-01	2.38778477e-02	3.63280471e-04
2.09000000e-01	2.36371493e-02	3.61011495e-04
2.09500000e-01	2.33981722e-02	3.56958338e-04
2.10000000e-01	2.38626507e-02	3.63489302e-04
2.10500000e-01	2.33721966e-02	3.57185180e-04
2.11000000e-01	2.34912153e-02	3.56317613e-04
2.11500000e-01	2.34084808e-02	3.55397148e-04
2.12000000e-01	2.33208251e-02	3.53468533e-04
2.12500000e-01	2.31314593e-02	3.51377158e-04
2.13000000e-01	2.31200072e-02	3.49201114e-04
2.13500000e-01	2.32332890e-02	3.52029282e-04
2.14000000e-01	2.33975611e-02	3.53769285e-04
2.14500000e-01	2.35476398e-02	3.53882903e-04
2.15000000e-01	2.31562073e-02	3.50050106e-04
2.15500000e-01	2.30761096e-02	3.46622144e-04
2.16000000e-01	2.30410895e-02	3.46568808e-04
2.16500000e-01	2.34190382e-02	3.52191670e-04
2.17000000e-01	2.30998692e-02	3.52041710e-04
2.17500000e-01	2.35047291e-02	3.63446231e-04
2.18000000e-01	2.28056861e-02	3.55065872e-04
2.18500000e-01	2.30724283e-02	3.61248421e-04
2.19000000e-01	2.27264745e-02	3.57199490e-04
2.19500000e-01	2.30082915e-02	3.61277091e-04
2.20000000e-01	2.30239237e-02	3.63108286e-04
2.20500000e-01	2.30969343e-02	3.65350153e-04
2.21000000e-01	2.31255875e-02	3.68743162e-04
2.21500000e-01	2.28957434e-02	3.65247715e-04
2.22000000e-01	2.32145431e-02	3.69439055e-04
2.22500000e-01	2.33177508e-02	3.71793343e-04
2.23000000e-01	2.30638136e-02	3.68503998e-04
2.23500000e-01	2.30318313e-02	3.70192322e-04
2.24000000e-01	2.28752941e-02	3.69278554e-04
2.24500000e-01	2.29637389e-02	3.70166533e-04
2.25000000e-01	2.28330222e-02	3.69965515e-04
2.25500000e-01	2.28126725e-02	3.70378156e-04
2.26000000e-01	2.27199005e-02	3.71375664e-04
2.26500000e-01	2.28751272e-02	3.63608296e-04
2.27000000e-01	2.28782438e-02	3.61694518e-04
2.27500000e-01	2.25980721e-02	3.55841477e-04
2.28000000e-01	2.26667699e-02	3.54684804e-04
2.28500000e-01	2.24974809e-02	3.50024413e-04
2.29000000e-01	2.25255740e-02	3.50094432e-04
2.29500000e-01	2.26632256e-02	3.49666398e-04
2.30000000e-01	2.27940946e-02	3.51141687e-04
2.30500000e-01	2.26693006e-02	3.47878427e-04
2.31000000e-01	2.25999701e-02	3.46864326e-04
2.31500000e-01	2.25892921e-02	3.45155093e-04
2.32000000e-01	2.22819886e-02	3.40240779e-04
2.32500000e-01	2.21928017e-02	3.37715875e-04
2.33000000e-01	2.23842453e-02	3.39964329e-04
2.33500000e-01	2.23428618e-02	3.39829115e-04
2.34000000e-01	2.25066826e-02	3.40624827e-04
2.34500000e-01	2.25054000e-02	3.39519154e-04
2.35000000e-01	2.23583647e-02	3.37036707e-04
2.35500000e-01	2.23285420e-02	3.35570330e-04
2.36000000e-01	2.22280715e-02	3.32960040e-04
2.36500000e-01	2.23998785e-02	3.35896250e-04
2.37000000e-01	2.24080036e-02	3.35379700e-04
2.37500000e-01	2.20914193e-02	3.29888577e-04
2.38000000e-01	2.22298490e-02	3.31628667e-04
2.38500000e-01	2.19906607e-02	3.27556045e-04
2.39000000e-01	2.20981133e-02	3.27652759e-04
2.39500000e-01	2.20802926e-02	3.27674867e-04
2.40000000e-01	2.20544298e-02	3.26915953e-04
2.40500000e-01	2.20022143e-02	3.24424316e-04
2.41000000e-01	2.18781654e-02	3.23364151e-04
2.41500000e-01	2.22330520e-02	3.27647744e-04
2.42000000e-01	2.20977635e-02	3.25461940e-04
2.42500000e-01	2.20784519e-02	3.23997424e-04
2.43000000e-01	2.18829101e-02	3.21255223e-04
2.43500000e-01	2.17013262e-02	3.18381542e-04
2.44000000e-01	2.21118765e-02	3.23550144e-04
2.44500000e-01	2.18480796e-02	3.19527288e-04
2.45000000e-01	2.18585526e-02	3.18015559e-04
2.45500000e-01	2.19523933e-02	3.19344638e-04
2.46000000e-01	2.20675598e-02	3.21666702e-04
2.46500000e-01	2.16024715e-02	3.13272252e-04
2.47000000e-01	2.19459110e-02	3.20230367e-04
2.47500000e-01	2.18353981e-02	3.16401117e-04
2.48000000e-01	2.18168342e-02	3.17348979e-04
2.48500000e-01	2.17186710e-02	3.14736646e-04
2.49000000e-01	2.18000985e-02	3.15163153e-04
2.49500000e-01	2.18133075e-02	3.15099074e-04
2.50000000e-01	2.20456748e-02	3.17221383e-04
2.50500000e-01	2.17554666e-02	3.13280066e-04
2.51000000e-01	2.17003087e-02	3.12969379e-04
2.51500000e-01	2.16459492e-02	3.10738105e-04
2.52000000e-01	2.16411903e-02	3.10333177e-04
2.52500000e-01	2.15707627e-02	3.08366545e-04
2.53000000e-01	2.16309226e-02	3.11050097e-04
2.53500000e-01	2.18420714e-02	3.13265360e-04
2.54000000e-01	2.15883071e-02	3.08240929e-04
2.54500000e-01	2.13731382e-02	3.05777496e-04
2.55000000e-01	2.13992648e-02	3.05638509e-04
2.55500000e-01	2.16796513e-02	3.08971175e-04
2.56000000e-01	2.12575441e-02	3.02764912e-04
2.56500000e-01	2.13448148e-02	3.04818530e-04
2.57000000e-01	2.14385070e-02	3.04333402e-04
2.57500000e-01	2.14345714e-02	3.04369942e-04
2.58000000e-01	2.13361920e-02	3.03002062e-04
2.58500000e-01	2.12649770e-02	3.02358913e-04
2.59000000e-01	2.14639244e-02	3.04116614e-04
2.59500000e-01	2.15657302e-02	3.04155129e-04
2.60000000e-01	2.12169155e-02	3.00173387e-04
2.60500000e-01	2.12063062e-02	2.99265434e-04
2.61000000e-01	2.12997239e-02	3.00818388e-04
2.61500000e-01	2.11418587e-02	2.98145193e-04
2.62000000e-01	2.12756202e-02	2.99081096e-04
2.62500000e-01	2.10550070e-02	2.97534060e-04
2.63000000e-01	2.12522623e-02	2.98987915e-04
2.63500000e-01	2.09964151e-02	2.93711016e-04
2.64000000e-01	2.13614205e-02	2.99534469e-04
2.64500000e-01	2.10198706e-02	2.94247211e-04
2.65000000e-01	2.10644602e-02	2.95506516e-04
2.65500000e-01	2.12813519e-02	2.96824276e-04
2.66000000e-01	2.11728124e-02	2.95800045e-04
2.66500000e-01	2.11925453e-02	2.94730501e-04
2.67000000e-01	2.10630367e-02	2.92438096e-04
2.67500000e-01	2.08986916e-02	2.90645932e-04
2.68000000e-01	2.09662856e-02	2.91442528e-04
2.68500000e-01	2.10570468e-02	2.92449766e-04
2.69000000e-01	2.09008421e-02	2.89618889e-04
2.69500000e-01	2.08729715e-02	2.89022678e-04
2.70000000e-01	2.08803669e-02	2.89389606e-04
2.70500000e-01	2.11750399e-02	2.91486979e-04
2.71000000e-01	2.11750106e-02	2.91543007e-04
2.71500000e-01	2.06057460e-02	2.84483465e-04
2.72000000e-01	2.07550754e-02	2.85801112e-04
2.72500000e-01	2.08991430e-02	2.88235766e-04
2.73000000e-01	2.09620843e-02	2.88465053e-04
2.73500000e-01	2.08595713e-02	2.86413576e-04
2.74000000e-01	2.10261855e-02	2.88946131e-04
2.74500000e-01	2.06068233e-02	2.82144056e-04
2.75000000e-01	2.07499355e-02	2.84819022e-04
2.75500000e-01	2.10070762e-02	2.87865800e-04
2.76000000e-01	2.07438893e-02	2.83603868e-04
2.76500000e-01	2.06966434e-02	2.83416277e-04
2.77000000e-01	2.07835358e-02	2.83845886e-04
2.77500000e-01	2.07835589e-02	2.84395836e-04
2.78000000e-01	2.07782925e-02	2.83781671e-04
2.78500000e-01	2.07276636e-02	2.83313386e-04
2.79000000e-01	2.06002801e-02	2.81085888e-04
2.79500000e-01	2.05552719e-02	2.79280470e-04
2.80000000e-01	2.07819123e-02	2.82824971e-04
2.80500000e-01	2.05620210e-02	2.78828012e-04
2.81000000e-01	2.06639142e-02	2.80937370e-04
2.81500000e-01	2.09014350e-02	2.83201811e-04
2.82000000e-01	2.04921997e-02	2.78208462e-04
2.82500000e-01	2.07203652e-02	2.81891691e-04
2.83000000e-01	2.04384545e-02	2.76730341e-04
2.83500000e-01	2.05695867e-02	2.78801621e-04
2.84000000e-01	2.05905493e-02	2.77847395e-04
2.84500000e-01	2.05933831e-02	2.77255641e-04
2.85000000e-01	2.04705798e-02	2.75295130e-04
2.85500000e-01	2.04758432e-02	2.76008113e-04
2.86000000e-01	2.05929770e-02	2.77106211e-04
2.86500000e-01	2.07452525e-02	2.78591589e-04
2.87000000e-01	2.06082754e-02	2.76757257e-04
2.87500000e-01	2.01666413e-02	2.70217648e-04
2.88000000e-01	2.07727881e-02	2.77291718e-04
2.88500000e-01	2.01939201e-02	2.70375513e-04
2.89000000e-01	2.03890683e-02	2.73320733e-04
2.89500000e-01	2.04690991e-02	2.73209125e-04
2.90000000e-01	2.04130396e-02	2.72600559e-04
2.90500000e-01	2.02266139e-02	2.70367927e-04
2.91000000e-01	2.02932821e-02	2.69970476e-04
2.91500000e-01	2.03942217e-02	2.70609016e-04
2.92000000e-01	2.01442091e-02	2.67753418e-04
2.92500000e-01	2.03559819e-02	2.70754418e-04
2.93000000e-01	2.02038937e-02	2.68427374e-04
2.93500000e-01	2.03904626e-02	2.71390992e-04
2.94000000e-01	2.02968996e-02	2.67609920e-04
2.94500000e-01	2.01389645e-02	2.68395265e-04
2.95000000e-01	2.01844673e-02	2.66184128e-04
2.95500000e-01	2.02065777e-02	2.66799590e-04
2.96000000e-01	2.03214468e-02	2.68093614e-04
2.96500000e-01	2.01389768e-02	2.65667258e-04
2.97000000e-01	2.00925859e-02	2.66168494e-04
2.97500000e-01	2.01334393e-02	2.65287610e-04
2.98000000e-01	2.01418765e-02	2.64564140e-04
2.98500000e-01	2.00231449e-02	2.64310370e-04
2.99000000e-01	2.02868106e-02	2.66451190e-04
2.99500000e-01	2.01103091e-02	2.64046882e-04
3.00000000e-01	2.01763137e-02	2.64363462e-04
3.00500000e-01	2.02221526e-02	2.66173815e-04
3.01000000e-01	2.01896172e-02	2.64323483e-04
3.01500000e-01	2.01123862e-02	2.63835232e-04
3.02000000e-01	1.99504324e-02	2.61225834e-04
3.02500000e-01	2.00528066e-02	2.62362588e-04
3.03000000e-01	2.01496802e-02	2.64423719e-04
3.03500000e-01	2.00891438e-02	2.61814674e-04
3.04000000e-01	2.00757433e-02	2.62415023e-04
3.04500000e-01	1.98306183e-02	2.58128240e-04
3.05000000e-01	2.00768864e-02	2.61707927e-04
3.05500000e-01	1.99926808e-02	2.59963983e-04
3.06000000e-01	2.00548218e-02	2.60645141e-04
3.06500000e-01	1.99997602e-02	2.59566934e-04
3.07000000e-01	1.99483610e-02	2.58737992e-04
3.07500000e-01	1.99842408e-02	2.59539901e-04
3.08000000e-01	1.99196274e-02	2.58627113e-04
3.08500000e-01	2.02499178e-02	2.61701055e-04
3.09000000e-01	1.98609466e-02	2.57403263e-04
3.09500000e-01	1.99806412e-02	2.58229786e-04
3.10000000e-01	1.99742634e-02	2.58262048e-04
3.10500000e-01	1.97573393e-02	2.55611058e-04
3.11000000e-01	1.98224742e-02	2.56194525e-04
3.11500000e-01	1.99605160e-02	2.57278358e-04
3.12000000e-01	1.97685068e-02	2.54256474e-04
3.12500000e-01	1.97979370e-02	2.55126123e-04
3.13000000e-01	1.98741776e-02	2.54737161e-04
3.13500000e-01	1.97749201e-02	2.54254802e-04
3.14000000e-01	1.98071018e-02	2.54172972e-04
3.14500000e-01	1.98003507e-02	2.53465801e-04
3.15000000e-01	1.97101879e-02	2.53613782e-04
3.15500000e-01	1.97241294e-02	2.52180861e-04
3.16000000e-01	1.97954195e-02	2.53566680e-04
3.16500000e-01	1.95404468e-02	2.51132471e-04
3.17000000e-01	1.96982147e-02	2.52229719e-04
3.17500000e-01	1.97863271e-02	2.53104113e-04
3.18000000e-01	1.97813171e-02	2.51948820e-04
3.18500000e-01	1.98662725e-02	2.53478579e-04
3.19000000e-01	2.00134992e-02	2.55237484e-04
3.19500000e-01	1.96959594e-02	2.50516460e-04
3.20000000e-01	1.97850654e-02	2.51644661e-04
3.20500000e-01	1.96343096e-02	2.50198500e-04
3.21000000e-01	1.96040580e-02	2.48340919e-04
3.21500000e-01	1.96813194e-02	2.49293631e-04
3.22000000e-01	1.97459325e-02	2.50377927e-04
3.22500000e-01	1.95387445e-02	2.47461542e-04
3.23000000e-01	1.94642403e-02	2.46180033e-04
3.23500000e-01	1.93789678e-02	2.45193321e-04
3.24000000e-01	1.94080816e-02	2.45326172e-04
3.24500000e-01	1.95663809e-02	2.47884266e-04
3.25000000e-01	1.95111038e-02	2.45751467e-04
3.25500000e-01	1.96419564e-02	2.47669335e-04
3.26000000e-01	1.95222993e-02	2.46360421e-04
3.26500000e-01	1.94825829e-02	2.45690682e-04
3.27000000e-01	1.95421519e-02	2.46906299e-04
3.27500000e-01	1.94663827e-02	2.45533306e-04
3.28000000e-01	1.94712599e-02	2.45720575e-04
3.28500000e-01	1.93596638e-02	2.43180563e-04
3.29000000e-01	1.94037760e-02	2.43462629e-04
3.29500000e-01	1.94724617e-02	2.45284269e-04
3.30000000e-01	1.95599537e-02	2.45402501e-04
3.30500000e-01	1.94588437e-02	2.44557299e-04
3.31000000e-01	1.96082753e-02	2.45502697e-04
3.31500000e-01	1.94457691e-02	2.42976557e-04
3.32000000e-01	1.94032575e-02	2.43235297e-04
3.32500000e-01	1.94994184e-02	2.43234372e-04
3.33000000e-01	1.95605520e-02	2.44192156e-04
3.33500000e-01	1.92363590e-02	2.40220852e-04
3.34000000e-01	1.93680937e-02	2.41583800e-04
3.34500000e-01	1.93377816e-02	2.40830830e-04
3.35000000e-01	1.93096706e-02	2.40358496e-04
3.35500000e-01	1.93424600e-02	2.40992993e-04
3.36000000e-01	1.94366136e-02	2.41423684e-04
3.36500000e-01	1.90954695e-02	2.37526216e-04
3.37000000e-01	1.90831849e-02	2.36780560e-04
3.37500000e-01	1.91760309e-02	2.38898201e-04
3.38000000e-01	1.93094616e-02	2.40056607e-04
3.38500000e-01	1.91265541e-02	2.36586943e-04
3.39000000e-01	1.93284974e-02	2.39759688e-04
3.39500000e-01	1.93828237e-02	2.39699923e-04
3.40000000e-01	1.93809707e-02	2.39807449e-04
3.40500000e-01	1.90430732e-02	2.35354293e-04
3.41000000e-01	1.91856507e-02	2.36630159e-04
3.41500000e-01	1.90259386e-02	2.35682760e-04
3.42000000e-01	1.91761598e-02	2.36175331e-04
3.42500000e-01	1.92950652e-02	2.37682367e-04
3.43000000e-01	1.90562330e-02	2.34622048e-04
3.43500000e-01	1.91709562e-02	2.36060986e-04
3.44000000e-01	1.90346278e-02	2.34019042e-04
3.44500000e-01	1.92017538e-02	2.35308370e-04
3.45000000e-01	1.91174499e-02	2.35121536e-04
3.45500000e-01	1.91281289e-02	2.34115167e-04
3.46000000e-01	1.90575677e-02	2.33793833e-04
3.46500000e-01	1.91053092e-02	2.34291624e-04
3.47000000e-01	1.91018888e-02	2.34205399e-04
3.47500000e-01	1.92189387e-02	2.34287644e-04
3.48000000e-01	1.91241961e-02	2.34106014e-04
3.48500000e-01	1.92363091e-02	2.34587448e-04
3.49000000e-01	1.92358417e-02	2.34401320e-04
3.49500000e-01	1.90682662e-02	2.33102087e-04
3.50000000e-01	1.91684741e-02	1.90306183e-04
3.51000000e-01	1.89744176e-02	1.63391335e-04
3.52000000e-01	1.91029567e-02	1.64347374e-04
3.53000000e-01	1.91002474e-02	1.63435769e-04
3.54000000e-01	1.89886312e-02	1.62740514e-04
3.55000000e-01	1.89617634e-02	1.61995124e-04
3.56000000e-01	1.89413829e-02	1.62670621e-04
3.57000000e-01	1.89256304e-02	1.65492426e-04
3.58000000e-01	1.88924552e-02	1.66892330e-04
3.59000000e-01	1.90388579e-02	1.69368235e-04
3.60000000e-01	1.88007245e-02	1.68408630e-04
3.61000000e-01	1.88998850e-02	1.70099649e-04
3.62000000e-01	1.86706254e-02	1.68351735e-04
3.63000000e-01	1.88205876e-02	1.70765646e-04
3.64000000e-01	1.87839037e-02	1.70592389e-04
3.65000000e-01	1.88495435e-02	1.71783102e-04
3.66000000e-01	1.86301451e-02	1.67993992e-04
3.67000000e-01	1.89193788e-02	1.68208620e-04
3.68000000e-01	1.88321883e-02	1.66085858e-04
3.69000000e-01	1.88833632e-02	1.65337099e-04
3.70000000e-01	1.88681089e-02	1.64819414e-04
3.71000000e-01	1.87266716e-02	1.65815079e-04
3.72000000e-01	1.87537345e-02	1.66902382e-04
3.73000000e-01	1.87026108e-02	1.66894167e-04
3.74000000e-01	1.87070910e-02	1.66807517e-04
3.75000000e-01	1.86138628e-02	1.66460590e-04
3.76000000e-01	1.87356138e-02	1.67347843e-04
3.77000000e-01	1.85399570e-02	1.66136753e-04
3.78000000e-01	1.85819620e-02	1.66572671e-04
3.79000000e-01	1.87917846e-02	1.67432840e-04
3.80000000e-01	1.86623964e-02	1.66645229e-04
3.81000000e-01	1.85606504e-02	1.65766644e-04
3.82000000e-01	1.86479842e-02	1.66046704e-04
3.83000000e-01	1.84840729e-02	1.64476587e-04
3.84000000e-01	1.85131196e-02	1.65020531e-04
3.85000000e-01	1.85934086e-02	1.66368722e-04
3.86000000e-01	1.84760347e-02	1.64970638e-04
3.87000000e-01	1.85700054e-02	1.65570383e-04
3.88000000e-01	1.86305305e-02	1.65868970e-04
3.89000000e-01	1.84604259e-02	1.63878095e-04
3.90000000e-01	1.85084614e-02	1.64696469e-04
3.91000000e-01	1.85102460e-02	1.64609629e-04
3.92000000e-01	1.84721248e-02	1.64129287e-04
3.93000000e-01	1.84127168e-02	1.63358450e-04
3.94000000e-01	1.85292031e-02	1.64900908e-04
3.95000000e-01	1.84868772e-02	1.63724196e-04
3.96000000e-01	1.84879488e-02	1.64075083e-04
3.97000000e-01	1.85651513e-02	1.64888060e-04
3.98000000e-01	1.86091533e-02	1.65252206e-04
3.99000000e-01	1.83640458e-02	1.63211264e-04
4.00000000e-01	1.84346006e-02	1.63810203e-04
4.01000000e-01	1.84724842e-02	1.64047265e-04
4.02000000e-01	1.84977876e-02	1.64247159e-04
4.03000000e-01	1.83550799e-02	1.63223274e-04
4.04000000e-01	1.84647052e-02	1.63865976e-04
4.05000000e-01	1.83677352e-02	1.62625665e-04
4.06000000e-01	1.83069614e-02	1.62752356e-04
4.07000000e-01	1.84591758e-02	1.63680821e-04
4.08000000e-01	1.82751442e-02	1.62336613e-04
4.09000000e-01	1.84653923e-02	1.63457433e-04
4.10000000e-01	1.83320558e-02	1.62157329e-04
4.11000000e-01	1.81817461e-02	1.60864191e-04
4.12000000e-01	1.83325100e-02	1.62163448e-04
4.13000000e-01	1.84136109e-02	1.62814086e-04
4.14000000e-01	1.82699571e-02	1.61792133e-04
4.15000000e-01	1.82872854e-02	1.61289694e-04
4.16000000e-01	1.82940741e-02	1.61586938e-04
4.17000000e-01	1.83032456e-02	1.61553997e-04
4.18000000e-01	1.83133794e-02	1.63362803e-04
4.19000000e-01	1.82981431e-02	1.65507839e-04
4.20000000e-01	1.83371720e-02	1.66777494e-04
4.21000000e-01	1.84274775e-02	1.67835869e-04
4.22000000e-01	1.84080444e-02	1.68430090e-04
4.23000000e-01	1.85269597e-02	1.69935869e-04
4.24000000e-01	1.84778482e-02	1.69956497e-04
4.25000000e-01	1.83929615e-02	1.69325081e-04
4.26000000e-01	1.85498810e-02	1.71253717e-04
4.27000000e-01	1.84282457e-02	1.69267421e-04
4.28000000e-01	1.82122962e-02	1.68186762e-04
4.29000000e-01	1.84301211e-02	1.70372438e-04
4.30000000e-01	1.83404288e-02	1.69505732e-04
4.31000000e-01	1.83774422e-02	1.69892230e-04
4.32000000e-01	1.82056314e-02	1.68498733e-04
4.33000000e-01	1.83048725e-02	1.69640742e-04
4.34000000e-01	1.81396497e-02	1.68234077e-04
4.35000000e-01	1.83547919e-02	1.70252698e-04
4.36000000e-01	1.83018381e-02	1.69976879e-04
4.37000000e-01	1.81826841e-02	1.69470594e-04
4.38000000e-01	1.82838034e-02	1.70097402e-04
4.39000000e-01	1.82608906e-02	1.70154617e-04
4.40000000e-01	1.82150628e-02	1.70205256e-04
4.41000000e-01	1.81491639e-02	1.69779232e-04
4.42000000e-01	1.82535407e-02	1.70724323e-04
4.43000000e-01	1.82475407e-02	1.70916092e-04
4.44000000e-01	1.83423296e-02	1.72174050e-04
4.45000000e-01	1.81937766e-02	1.70721634e-04
4.46000000e-01	1.82934939e-02	1.71562426e-04
4.47000000e-01	1.82498675e-02	1.71826153e-04
4.48000000e-01	1.82718326e-02	1.72143288e-04
4.49000000e-01	1.82112720e-02	1.71599229e-04
4.50000000e-01	1.81174933e-02	1.71245228e-04
4.51000000e-01	1.81095069e-02	1.71402304e-04
4.52000000e-01	1.82197378e-02	1.72321937e-04
4.53000000e-01	1.81041795e-02	1.71072915e-04
4.54000000e-01	1.82464942e-02	1.72395873e-04
4.55000000e-01	1.83141915e-02	1.73821322e-04
4.56000000e-01	1.82793565e-02	1.73357302e-04
4.57000000e-01	1.80424079e-02	1.71403068e-04
4.58000000e-01	1.81801689e-02	1.72518830e-04
4.59000000e-01	1.82091143e-02	1.72952968e-04
4.60000000e-01	1.81232379e-02	1.72683165e-04
4.61000000e-01	1.82297137e-02	1.73380773e-04
4.62000000e-01	1.83187052e-02	1.73883055e-04
4.63000000e-01	1.80660684e-02	1.72430171e-04
4.64000000e-01	1.80777028e-02	1.72917931e-04
4.65000000e-01	1.81185455e-02	1.73147314e-04
4.66000000e-01	1.82317327e-02	1.74203905e-04
4.67000000e-01	1.80894949e-02	1.73217408e-04
4.68000000e-01	1.80794564e-02	1.73286911e-04
4.69000000e-01	1.82512924e-02	1.74291525e-04
4.70000000e-01	1.82507368e-02	1.74942379e-04
4.71000000e-01	1.80915809e-02	1.72877771e-04
4.72000000e-01	1.80744044e-02	1.73221299e-04
4.73000000e-01	1.82174401e-02	1.74235949e-04
4.74000000e-01	1.82245666e-02	1.74538177e-04
4.75000000e-01	1.79916064e-02	1.72161745e-04
4.76000000e-01	1.83079340e-02	1.74996646e-04
4.77000000e-01	1.80946518e-02	1.73310749e-04
4.78000000e-01	1.82190734e-02	1.74407744e-04
4.79000000e-01	1.82167438e-02	1.74080924e-04
4.80000000e-01	1.81449949e-02	1.73729311e-04
4.81000000e-01	1.81754803e-02	1.74424940e-04
4.82000000e-01	1.81504081e-02	1.74017656e-04
4.83000000e-01	1.81280367e-02	1.73570235e-04
4.84000000e-01	1.80558111e-02	1.73451946e-04
4.85000000e-01	1.81956534e-02	1.75494256e-04
4.86000000e-01	1.81453249e-02	1.74498234e-04
4.87000000e-01	1.80019137e-02	1.73208435e-04
4.88000000e-01	1.81698117e-02	1.74865291e-04
4.89000000e-01	1.83155024e-02	1.76009668e-04
4.90000000e-01	1.80496213e-02	1.73639455e-04
4.91000000e-01	1.81677822e-02	1.74700277e-04
4.92000000e-01	1.81172177e-02	1.74484956e-04
4.93000000e-01	1.81521973e-02	1.75273819e-04
4.94000000e-01	1.82204997e-02	1.75525237e-04
4.95000000e-01	1.81618455e-02	1.76454347e-04
4.96000000e-01	1.83522869e-02	1.83039952e-04
4.97000000e-01	1.80919598e-02	1.84118770e-04
4.98000000e-01	1.82388395e-02	1.88433030e-04
4.99000000e-01	1.81571817e-02	1.89616845e-04
5.00000000e-01	1.80894121e-02	1.91111240e-04
5.01000000e-01	1.83222135e-02	1.94752130e-04
5.02000000e-01	1.82303281e-02	1.96239911e-04
5.03000000e-01	1.81479090e-02	1.97384310e-04
5.04000000e-01	1.83536193e-02	2.00892634e-04
5.05000000e-01	1.83491389e-02	1.97388590e-04
5.06000000e-01	1.84291796e-02	1.94344301e-04
5.07000000e-01	1.81626100e-02	1.89534439e-04
5.08000000e-01	1.81858739e-02	1.88534799e-04
5.09000000e-01	1.82826471e-02	1.88647129e-04
5.10000000e-01	1.83176691e-02	1.88650420e-04
5.11000000e-01	1.82896872e-02	1.87785750e-04
5.12000000e-01	1.83219370e-02	1.87531706e-04
5.13000000e-01	1.81685491e-02	1.85776643e-04
5.14000000e-01	1.82712533e-02	1.86272341e-04
5.15000000e-01	1.81600808e-02	1.84801548e-04
5.16000000e-01	1.81555069e-02	1.84790398e-04
5.17000000e-01	1.82201232e-02	1.84885406e-04
5.18000000e-01	1.81791399e-02	1.83875752e-04
5.19000000e-01	1.82828208e-02	1.83870377e-04
5.20000000e-01	1.81766785e-02	1.82946188e-04
5.21000000e-01	1.82095596e-02	1.83358144e-04
5.22000000e-01	1.84214371e-02	1.85071714e-04
5.23000000e-01	1.82358355e-02	1.83469230e-04
5.24000000e-01	1.82571879e-02	1.83946544e-04
5.25000000e-01	1.81439865e-02	1.82335537e-04
5.26000000e-01	1.83142704e-02	1.83774089e-04
5.27000000e-01	1.83644136e-02	1.84068742e-04
5.28000000e-01	1.80876145e-02	1.81677999e-04
5.29000000e-01	1.83346964e-02	1.83680800e-04
5.30000000e-01	1.83132672e-02	1.83512630e-04
5.31000000e-01	1.82202976e-02	1.83412823e-04
5.32000000e-01	1.82240476e-02	1.83082180e-04
5.33000000e-01	1.80896017e-02	1.81527843e-04
5.34000000e-01	1.82623414e-02	1.83433191e-04
5.35000000e-01	1.82612013e-02	1.82942636e-04
5.36000000e-01	1.81127153e-02	1.81972656e-04
5.37000000e-01	1.81172236e-02	1.81608549e-04
5.38000000e-01	1.82377872e-02	1.83153111e-04
5.39000000e-01	1.82661293e-02	1.83129465e-04
5.40000000e-01	1.83199038e-02	1.83792160e-04
5.41000000e-01	1.80717017e-02	1.81321479e-04
5.42000000e-01	1.83810062e-02	1.84062238e-04
5.43000000e-01	1.82313124e-02	1.82317644e-04
5.44000000e-01	1.81691034e-02	1.82056723e-04
5.45000000e-01	1.80739155e-02	1.81821449e-04
5.46000000e-01	1.82495916e-02	1.82674732e-04
5.47000000e-01	1.81910311e-02	1.82770731e-04
5.48000000e-01	1.80168775e-02	1.80757785e-04
5.49000000e-01	1.83217384e-02	1.83639101e-04
5.50000000e-01	1.79284159e-02	1.79609125e-04
5.51000000e-01	1.84013419e-02	1.83763627e-04
5.52000000e-01	1.82864626e-02	1.82680655e-04
5.53000000e-01	1.82457185e-02	1.81634903e-04
5.54000000e-01	1.81968252e-02	1.81717606e-04
5.55000000e-01	1.81960116e-02	1.80862053e-04
5.56000000e-01	1.82719613e-02	1.81479345e-04
5.57000000e-01	1.82431724e-02	1.81746421e-04
5.58000000e-01	1.81079993e-02	1.80179905e-04
5.59000000e-01	1.81737545e-02	1.80782476e-04
5.60000000e-01	1.81245085e-02	1.80559592e-04
5.61000000e-01	1.81485017e-02	1.80514851e-04
5.62000000e-01	1.82371516e-02	1.81362222e-04
5.63000000e-01	1.81668115e-02	1.80596470e-04
5.64000000e-01	1.80859736e-02	1.80142205e-04
5.65000000e-01	1.82010571e-02	1.80785216e-04
5.66000000e-01	1.80814024e-02	1.80407175e-04
5.67000000e-01	1.82021385e-02	1.81803039e-04
5.68000000e-01	1.81345435e-02	1.80457172e-04
5.69000000e-01	1.81588930e-02	1.80594264e-04
5.70000000e-01	1.80310805e-02	1.79532371e-04
5.71000000e-01	1.81946655e-02	1.80923246e-04
5.72000000e-01	1.80805082e-02	1.79646948e-04
5.73000000e-01	1.81580997e-02	1.81111699e-04
5.74000000e-01	1.82803359e-02	1.81784661e-04
5.75000000e-01	1.82252908e-02	1.81964884e-04
5.76000000e-01	1.79285512e-02	1.78777065e-04
5.77000000e-01	1.81247098e-02	1.80598733e-04
5.78000000e-01	1.81642096e-02	1.80630136e-04
5.79000000e-01	1.81496540e-02	1.81057250e-04
5.80000000e-01	1.82257124e-02	1.81530473e-04
5.81000000e-01	1.81605968e-02	1.80581188e-04
5.82000000e-01	1.81904637e-02	1.81463493e-04
5.83000000e-01	1.82881438e-02	1.81687090e-04
5.84000000e-01	1.81265250e-02	1.80639215e-04
5.85000000e-01	1.81651417e-02	1.81120436e-04
5.86000000e-01	1.79073914e-02	1.78540275e-04
5.87000000e-01	1.81546072e-02	1.81242915e-04
5.88000000e-01	1.79912253e-02	1.80015314e-04
5.89000000e-01	1.80107542e-02	1.80051213e-04
5.90000000e-01	1.81524380e-02	1.80872621e-04
5.91000000e-01	1.79759919e-02	1.79841347e-04
5.92000000e-01	1.81872165e-02	1.81636080e-04
5.93000000e-01	1.81858588e-02	1.81522532e-04
5.94000000e-01	1.80670024e-02	1.80504174e-04
5.95000000e-01	1.79836562e-02	1.79597765e-04
5.96000000e-01	1.80499479e-02	1.80602832e-04
5.97000000e-01	1.79674952e-02	1.79828110e-04
5.98000000e-01	1.79134463e-02	1.79593266e-04
5.99000000e-01	1.80223846e-02	1.79827982e-04
6.00000000e-01	1.81525972e-02	1.81593195e-04
6.01000000e-01	1.82453594e-02	1.82394373e-04
6.02000000e-01	1.79880333e-02	1.79436528e-04
6.03000000e-01	1.80929734e-02	1.80709771e-04
6.04000000e-01	1.81473227e-02	1.81468521e-04
6.05000000e-01	1.80974299e-02	1.80733866e-04
6.06000000e-01	1.79905667e-02	1.79944474e-04
6.07000000e-01	1.81101825e-02	1.80982843e-04
6.08000000e-01	1.80169563e-02	1.80312929e-04
6.09000000e-01	1.79574935e-02	1.80241841e-04
6.10000000e-01	1.80067339e-02	1.79928638e-04
6.11000000e-01	1.81052790e-02	1.80786441e-04
6.12000000e-01	1.80564795e-02	1.80957438e-04
6.13000000e-01	1.81967021e-02	1.81894781e-04
6.14000000e-01	1.81127204e-02	1.81081473e-04
6.15000000e-01	1.81190988e-02	1.81161429e-04
6.16000000e-01	1.81703399e-02	1.82232862e-04
6.17000000e-01	1.79012203e-02	1.79320865e-04
6.18000000e-01	1.79211987e-02	1.80080583e-04
6.19000000e-01	1.78973746e-02	1.79056568e-04
6.20000000e-01	1.79695895e-02	1.79589357e-04
6.21000000e-01	1.80348310e-02	1.79424840e-04
6.22000000e-01	1.81309091e-02	1.80073895e-04
6.23000000e-01	1.79388271e-02	1.78271099e-04
6.24000000e-01	1.79786502e-02	1.78837247e-04
6.25000000e-01	1.80974730e-02	1.79505225e-04
6.26000000e-01	1.80041512e-02	1.78461728e-04
6.27000000e-01	1.80177685e-02	1.78964676e-04
6.28000000e-01	1.79595933e-02	1.78477178e-04
6.29000000e-01	1.79819543e-02	1.78985207e-04
6.30000000e-01	1.77025461e-02	1.76508536e-04
6.31000000e-01	1.79740317e-02	1.78749072e-04
6.32000000e-01	1.78892829e-02	1.77715089e-04
6.33000000e-01	1.82031911e-02	1.80504910e-04
6.34000000e-01	1.80094398e-02	1.83383136e-04
6.35000000e-01	1.79669294e-02	1.88762235e-04
6.36000000e-01	1.82253911e-02	1.94784732e-04
6.37000000e-01	1.81913865e-02	1.97226438e-04
6.38000000e-01	1.78962791e-02	1.96435080e-04
6.39000000e-01	1.79638588e-02	1.99578854e-04
6.40000000e-01	1.79372050e-02	2.02099277e-04
6.41000000e-01	1.80022939e-02	2.04841781e-04
6.42000000e-01	1.81678032e-02	2.08162430e-04
6.43000000e-01	1.80907070e-02	2.08296995e-04
6.44000000e-01	1.81277652e-02	2.00714657e-04
6.45000000e-01	1.82672826e-02	1.99321924e-04
6.46000000e-01	1.81507351e-02	1.96645700e-04
6.47000000e-01	1.80694089e-02	1.94031898e-04
6.48000000e-01	1.82883834e-02	1.94729185e-04
6.49000000e-01	1.81773811e-02	1.93104735e-04
6.50000000e-01	1.79718329e-02	1.89427503e-04
6.51000000e-01	1.80378759e-02	1.90942418e-04
6.52000000e-01	1.79388770e-02	1.88447600e-04
6.53000000e-01	1.81637928e-02	1.89543666e-04
6.54000000e-01	1.78278780e-02	1.85770753e-04
6.55000000e-01	1.81199485e-02	1.88321033e-04
6.56000000e-01	1.78838612e-02	1.85746472e-04
6.57000000e-01	1.79071050e-02	1.85330628e-04
6.58000000e-01	1.80572141e-02	1.86968201e-04
6.59000000e-01	1.81039820e-02	1.87686508e-04
6.60000000e-01	1.80313791e-02	1.86504711e-04
6.61000000e-01	1.80298493e-02	1.86155469e-04
6.62000000e-01	1.79098619e-02	1.85285382e-04
6.63000000e-01	1.80776930e-02	1.86614659e-04
6.64000000e-01	1.78814685e-02	1.84688111e-04
6.65000000e-01	1.79497644e-02	1.85131713e-04
6.66000000e-01	1.79759500e-02	1.85126786e-04
6.67000000e-01	1.79073408e-02	1.84017373e-04
6.68000000e-01	1.78279068e-02	1.84128744e-04
6.69000000e-01	1.78397894e-02	1.84295371e-04
6.70000000e-01	1.79067394e-02	1.84070473e-04
6.71000000e-01	1.79563961e-02	1.84899762e-04
6.72000000e-01	1.77943790e-02	1.83267642e-04
6.73000000e-01	1.78703491e-02	1.83682202e-04
6.74000000e-01	1.78396527e-02	1.83680597e-04
6.75000000e-01	1.78327561e-02	1.83086833e-04
6.76000000e-01	1.78158674e-02	1.83007175e-04
6.77000000e-01	1.78941424e-02	1.83945053e-04
6.78000000e-01	1.76096978e-02	1.81211071e-04
6.79000000e-01	1.76219225e-02	1.81557793e-04
6.80000000e-01	1.77781656e-02	1.82652637e-04
6.81000000e-01	1.77372230e-02	1.82405810e-04
6.82000000e-01	1.77236320e-02	1.81585368e-04
6.83000000e-01	1.76954856e-02	1.81467729e-04
6.84000000e-01	1.77674081e-02	1.82243319e-04
6.85000000e-01	1.74234291e-02	1.78578619e-04
6.86000000e-01	1.75028342e-02	1.79501163e-04
6.87000000e-01	1.76347597e-02	1.80906069e-04
6.88000000e-01	1.76900474e-02	1.81495749e-04
6.89000000e-01	1.74111011e-02	1.78068100e-04
6.90000000e-01	1.76292244e-02	1.80805254e-04
6.91000000e-01	1.75978288e-02	1.80079440e-04
6.92000000e-01	1.74353134e-02	1.78679426e-04
6.93000000e-01	1.78094691e-02	1.82627988e-04
6.94000000e-01	1.75144626e-02	1.79246941e-04
6.95000000e-01	1.74929466e-02	1.79879184e-04
6.96000000e-01	1.76239532e-02	1.80199334e-04
6.97000000e-01	1.76539890e-02	1.80970982e-04
6.98000000e-01	1.75677123e-02	1.79774348e-04
6.99000000e-01	1.74335573e-02	1.79020843e-04
7.00000000e-01	1.73831873e-02	1.77623412e-04
7.01000000e-01	1.74440795e-02	1.78443323e-04
7.02000000e-01	1.73734104e-02	1.78319326e-04
7.03000000e-01	1.73326302e-02	1.77930440e-04
7.04000000e-01	1.73490086e-02	1.77822373e-04
7.05000000e-01	1.74171313e-02	1.78225950e-04
7.06000000e-01	1.74610738e-02	1.78448721e-04
7.07000000e-01	1.73541370e-02	1.77604631e-04
7.08000000e-01	1.71650205e-02	1.75395058e-04
7.09000000e-01	1.72264687e-02	1.76185202e-04
7.10000000e-01	1.73426863e-02	1.77273657e-04
7.11000000e-01	1.71506594e-02	1.75646309e-04
7.12000000e-01	1.72754348e-02	1.76633892e-04
7.13000000e-01	1.71713273e-02	1.76021335e-04
7.14000000e-01	1.70519920e-02	1.74995582e-04
7.15000000e-01	1.71841805e-02	1.76077070e-04
7.16000000e-01	1.70686296e-02	1.75174749e-04
7.17000000e-01	1.72866521e-02	1.76822944e-04
7.18000000e-01	1.70126087e-02	1.74138275e-04
7.19000000e-01	1.71409131e-02	1.75420468e-04
7.20000000e-01	1.71404427e-02	1.75117070e-04
7.21000000e-01	1.70248437e-02	1.74171621e-04
7.22000000e-01	1.70384923e-02	1.74928252e-04
7.23000000e-01	1.68438849e-02	1.72716964e-04
7.24000000e-01	1.69456005e-02	1.73663827e-04
7.25000000e-01	1.68466771e-02	1.73149894e-04
7.26000000e-01	1.68279355e-02	1.72567993e-04
7.27000000e-01	1.69301586e-02	1.74083082e-04
7.28000000e-01	1.67561908e-02	1.72238804e-04
7.29000000e-01	1.66641447e-02	1.71226538e-04
7.30000000e-01	1.67860614e-02	1.72651868e-04
7.31000000e-01	1.68486452e-02	1.73050314e-04
7.32000000e-01	1.68265883e-02	1.72969049e-04
7.33000000e-01	1.67536075e-02	1.72165096e-04
7.34000000e-01	1.68643257e-02	1.72803959e-04
7.35000000e-01	1.68454058e-02	1.72139138e-04
7.36000000e-01	1.67567568e-02	1.71487145e-04
7.37000000e-01	1.65307978e-02	1.68772429e-04
7.38000000e-01	1.67867481e-02	1.71282133e-04
7.39000000e-01	1.67896222e-02	1.70637937e-04
7.40000000e-01	1.67006668e-02	1.69841345e-04
7.41000000e-01	1.65574858e-02	1.68414088e-04
7.42000000e-01	1.66299356e-02	1.68602486e-04
7.43000000e-01	1.67445434e-02	1.70113728e-04
7.44000000e-01	1.66645883e-02	1.69132506e-04
7.45000000e-01	1.67053455e-02	1.69795423e-04
7.46000000e-01	1.67012846e-02	1.69384798e-04
7.47000000e-01	1.65011085e-02	1.67931390e-04
7.48000000e-01	1.66141505e-02	1.68471131e-04
7.49000000e-01	1.65387752e-02	1.68219998e-04
7.50000000e-01	1.66677440e-02	1.69354519e-04
7.51000000e-01	1.65139969e-02	1.68179730e-04
7.52000000e-01	1.63239245e-02	1.66358289e-04
7.53000000e-01	1.64797833e-02	1.67739085e-04
7.54000000e-01	1.64125110e-02	1.66745466e-04
7.55000000e-01	1.64491380e-02	1.67738634e-04
7.56000000e-01	1.64375493e-02	1.67205218e-04
7.57000000e-01	1.63266678e-02	1.66607339e-04
7.58000000e-01	1.64402514e-02	1.67416029e-04
7.59000000e-01	1.64209275e-02	1.67152666e-04
7.60000000e-01	1.63932226e-02	1.66637300e-04
7.61000000e-01	1.64038224e-02	1.66189288e-04
7.62000000e-01	1.64169957e-02	1.66038685e-04
7.63000000e-01	1.62131024e-02	1.64007231e-04
7.64000000e-01	1.61753113e-02	1.63408409e-04
7.65000000e-01	1.61308315e-02	1.62982327e-04
7.66000000e-01	1.63327854e-02	1.64580414e-04
7.67000000e-01	1.60493211e-02	1.62159691e-04
7.68000000e-01	1.62108005e-02	1.63413396e-04
7.69000000e-01	1.61948861e-02	1.62982199e-04
7.70000000e-01	1.61329667e-02	1.62747284e-04
7.71000000e-01	1.62067591e-02	1.63103746e-04
7.72000000e-01	1.61076201e-02	1.67726134e-04
7.73000000e-01	1.60593419e-02	1.72543799e-04
7.74000000e-01	1.61233146e-02	1.76385247e-04
7.75000000e-01	1.62136764e-02	1.80380076e-04
7.76000000e-01	1.60566019e-02	1.82348131e-04
7.77000000e-01	1.61467248e-02	1.84967107e-04
7.78000000e-01	1.61376386e-02	1.87512741e-04
7.79000000e-01	1.58807629e-02	1.87671191e-04
7.80000000e-01	1.59784449e-02	1.90216504e-04
7.81000000e-01	1.60022953e-02	1.92389214e-04
7.82000000e-01	1.59137519e-02	1.94718771e-04
7.83000000e-01	1.58804989e-02	1.95204844e-04
7.84000000e-01	1.59984755e-02	1.99458488e-04
7.85000000e-01	1.59122758e-02	1.99930282e-04
7.86000000e-01	1.60046194e-02	2.03564542e-04
7.87000000e-01	1.58667276e-02	2.03368259e-04
7.88000000e-01	1.57115371e-02	2.04336730e-04
7.89000000e-01	1.57598142e-02	2.06283107e-04
7.90000000e-01	1.58464793e-02	2.09525152e-04
7.91000000e-01	1.58684088e-02	2.13029167e-04
7.92000000e-01	1.58347453e-02	2.14109680e-04
7.93000000e-01	1.58952226e-02	2.16734282e-04
7.94000000e-01	1.59348884e-02	2.18760209e-04
7.95000000e-01	1.58166570e-02	2.19562879e-04
7.96000000e-01	1.56220149e-02	2.20201721e-04
7.97000000e-01	1.56933082e-02	2.22466270e-04
7.98000000e-01	1.56745447e-02	2.24341711e-04
7.99000000e-01	1.59228883e-02	2.30073135e-04
8.00000000e-01	1.59437772e-02	2.33419073e-04
8.01000000e-01	1.55383150e-02	2.29665607e-04
8.02000000e-01	1.55516401e-02	2.31737316e-04
8.03000000e-01	1.56240151e-02	2.37328364e-04
8.04000000e-01	1.55854635e-02	2.38098094e-04
8.05000000e-01	1.57793130e-02	2.42846194e-04
8.06000000e-01	1.54991441e-02	2.41334945e-04
8.07000000e-01	1.57786395e-02	2.47694726e-04
8.08000000e-01	1.56893989e-02	2.50093719e-04
8.09000000e-01	1.52130649e-02	2.45754049e-04
8.10000000e-01	1.56258780e-02	2.55778829e-04
8.11000000e-01	1.53896216e-02	2.53732926e-04
8.12000000e-01	1.54782350e-02	2.58619711e-04
8.13000000e-01	1.54240725e-02	2.59598022e-04
8.14000000e-01	1.54225209e-02	2.62146784e-04
8.15000000e-01	1.53032214e-02	2.65344729e-04
8.16000000e-01	1.52799534e-02	2.67361334e-04
8.17000000e-01	1.52652688e-02	2.70188471e-04
8.18000000e-01	1.52843855e-02	2.73821758e-04
8.19000000e-01	1.51475626e-02	2.75881180e-04
8.20000000e-01	1.52867831e-02	2.80103117e-04
8.21000000e-01	1.51887045e-02	2.82508355e-04
8.22000000e-01	1.52079517e-02	2.86656262e-04
8.23000000e-01	1.53073391e-02	2.91367134e-04
8.24000000e-01	1.55898375e-02	3.00904716e-04
8.25000000e-01	1.50238386e-02	2.93903927e-04
8.26000000e-01	1.53347160e-02	3.05683807e-04
8.27000000e-01	1.51473734e-02	3.06508068e-04
8.28000000e-01	1.50630817e-02	3.10409546e-04
8.29000000e-01	1.49784946e-02	3.13325872e-04
8.30000000e-01	1.50460090e-02	3.18445270e-04
8.31000000e-01	1.49325638e-02	3.23038644e-04
8.32000000e-01	1.47993110e-02	3.25871974e-04
8.33000000e-01	1.52102308e-02	3.38171976e-04
8.34000000e-01	1.52864575e-02	3.44950553e-04
8.35000000e-01	1.47996394e-02	3.43277596e-04
8.36000000e-01	1.50230790e-02	3.52685066e-04
8.37000000e-01	1.50946227e-02	3.62494214e-04
8.38000000e-01	1.49583571e-02	3.67828108e-04
8.39000000e-01	1.46413630e-02	3.65786334e-04
8.40000000e-01	1.49681634e-02	3.83696038e-04
8.41000000e-01	1.52539909e-02	3.97193508e-04
8.42000000e-01	1.47935357e-02	3.97222363e-04
8.43000000e-01	1.47259108e-02	4.01372207e-04
8.44000000e-01	1.48691598e-02	4.13666426e-04
8.45000000e-01	1.47508791e-02	4.21305352e-04
8.46000000e-01	1.48942694e-02	4.39171792e-04
8.47000000e-01	1.46091104e-02	4.40712251e-04
8.48000000e-01	1.49382476e-02	4.63139562e-04
8.49000000e-01	1.49418419e-02	4.82352154e-04
8.50000000e-01	1.48043319e-02	4.95435908e-04
8.51000000e-01	1.50358621e-02	5.21927455e-04
8.52000000e-01	1.51889424e-02	5.36467667e-04
8.53000000e-01	1.47460716e-02	5.56235120e-04
8.54000000e-01	1.48576231e-02	5.90178627e-04
8.55000000e-01	1.46998478e-02	5.98401509e-04
8.56000000e-01	1.46840964e-02	6.12225134e-04
8.57000000e-01	1.48134920e-02	6.41347718e-04
8.58000000e-01	1.41871598e-02	6.37672338e-04
8.59000000e-01	1.39251531e-02	6.39767914e-04
8.60000000e-01	1.38251176e-02	6.60233767e-04
8.61000000e-01	1.52395248e-02	7.29759280e-04
8.62000000e-01	1.52144033e-02	7.69661981e-04
8.63000000e-01	1.45246372e-02	7.60735071e-04
8.64000000e-01	1.44310347e-02	7.87450255e-04
8.65000000e-01	1.47246187e-02	8.43792356e-04
8.66000000e-01	1.44231802e-02	8.73612764e-04
8.67000000e-01	1.42504618e-02	9.02273076e-04
8.68000000e-01	1.46727897e-02	1.00162878e-03
8.69000000e-01	1.33536249e-02	9.79569278e-04
8.70000000e-01	1.38786057e-02	1.10944781e-03
8.71000000e-01	1.43043832e-02	1.26199639e-03
8.72000000e-01	1.47851884e-02	1.47235763e-03
8.73000000e-01	1.45343618e-02	1.70224282e-03
8.74000000e-01	1.49165134e-02	2.33672810e-03
8.75000000e-01	1.48203062e-02	5.08332590e-03
