% Filename : SHF7_00029_00016.h5
% Date & Time : 30-Oct-2025 17:15:46
% X-ray Energy (keV) : 13.30001
% Exposure Time (s) : 0.500
% Beam Center : 1461.24000, 208.98300
% Sample to Detector Distance (SDD) (mm) : 1990.750
% Detector Pixel Size (mm) : 0.075
% Photodiode Value : 136261.000
% I0 of Sample : 0
% I0 of Standard : 1
% 
% q(A^-1)   I(q)    I(q)_SE
0.00000000e+00	1.32588893e-02	7.73119134e-03
2.50000000e-04	0.00000000e+00	0.00000000e+00
5.00000000e-04	0.00000000e+00	0.00000000e+00
7.50000000e-04	0.00000000e+00	0.00000000e+00
1.00000000e-03	0.00000000e+00	0.00000000e+00
1.25000000e-03	0.00000000e+00	0.00000000e+00
1.50000000e-03	0.00000000e+00	0.00000000e+00
1.75000000e-03	0.00000000e+00	0.00000000e+00
2.00000000e-03	0.00000000e+00	0.00000000e+00
2.25000000e-03	0.00000000e+00	0.00000000e+00
2.50000000e-03	0.00000000e+00	0.00000000e+00
2.75000000e-03	0.00000000e+00	0.00000000e+00
3.00000000e-03	0.00000000e+00	0.00000000e+00
3.25000000e-03	1.37590764e+03	8.03504156e+02
3.50000000e-03	5.24142014e+02	1.53576820e+02
3.75000000e-03	3.62825727e+02	9.77636696e+01
4.00000000e-03	2.88179267e+02	7.12595321e+01
4.25000000e-03	1.84232298e+02	3.79934653e+01
4.50000000e-03	1.66050580e+02	2.76002009e+01
4.75000000e-03	1.49159275e+02	2.18220485e+01
5.00000000e-03	1.19983949e+02	1.65269803e+01
5.25000000e-03	9.96886162e+01	1.33053726e+01
5.50000000e-03	8.33113719e+01	1.05614070e+01
5.75000000e-03	7.27145860e+01	8.87518488e+00
6.00000000e-03	6.01228933e+01	6.99359491e+00
6.25000000e-03	5.28772434e+01	5.98115230e+00
6.50000000e-03	4.57163166e+01	5.04572884e+00
6.75000000e-03	4.00309801e+01	4.25796582e+00
7.00000000e-03	3.61013910e+01	3.68570803e+00
7.25000000e-03	3.14201755e+01	3.12954463e+00
7.50000000e-03	2.81895496e+01	2.78534568e+00
7.75000000e-03	2.49833238e+01	2.39466875e+00
8.00000000e-03	2.32953889e+01	2.19606849e+00
8.25000000e-03	2.08145663e+01	1.88496265e+00
8.50000000e-03	1.89164953e+01	1.68579151e+00
8.75000000e-03	1.72527081e+01	1.50590590e+00
9.00000000e-03	1.58664357e+01	1.37285540e+00
9.25000000e-03	1.43452760e+01	1.19961547e+00
9.50000000e-03	1.29966026e+01	1.06312266e+00
9.75000000e-03	1.21228414e+01	9.87708142e-01
1.00000000e-02	1.10096840e+01	8.80636063e-01
1.02500000e-02	1.02828047e+01	8.23945208e-01
1.05000000e-02	9.63452981e+00	7.41263333e-01
1.07500000e-02	8.87154307e+00	6.82556829e-01
1.10000000e-02	8.14773282e+00	6.07063537e-01
1.12500000e-02	7.65814795e+00	5.80906619e-01
1.15000000e-02	7.08573105e+00	5.26247891e-01
1.17500000e-02	6.50774965e+00	4.71089686e-01
1.20000000e-02	6.10930901e+00	4.37088073e-01
1.22500000e-02	5.73297428e+00	4.03734877e-01
1.25000000e-02	5.43729737e+00	3.81751827e-01
1.27500000e-02	5.07921380e+00	3.51367934e-01
1.30000000e-02	4.78894226e+00	3.25873555e-01
1.32500000e-02	4.45931116e+00	2.97047710e-01
1.35000000e-02	4.23506495e+00	2.82366828e-01
1.37500000e-02	3.97517085e+00	2.63463565e-01
1.40000000e-02	3.74284626e+00	2.45560986e-01
1.42500000e-02	3.51945535e+00	2.25261233e-01
1.45000000e-02	3.34312896e+00	2.12784718e-01
1.47500000e-02	3.14569978e+00	1.98770586e-01
1.50000000e-02	3.01011694e+00	1.87793218e-01
1.52500000e-02	2.84304366e+00	1.74996778e-01
1.55000000e-02	2.68776116e+00	1.62529833e-01
1.57500000e-02	2.55434509e+00	1.53991836e-01
1.60000000e-02	2.42866313e+00	1.44334275e-01
1.62500000e-02	2.33039837e+00	1.39717892e-01
1.65000000e-02	2.19942024e+00	1.29188744e-01
1.67500000e-02	2.13320679e+00	1.22791716e-01
1.70000000e-02	2.03624661e+00	1.17318296e-01
1.72500000e-02	1.93550099e+00	1.10915117e-01
1.75000000e-02	1.85792074e+00	1.05704622e-01
1.77500000e-02	1.77391122e+00	9.84034608e-02
1.80000000e-02	1.72292099e+00	9.57322826e-02
1.82500000e-02	1.63915112e+00	8.85575846e-02
1.85000000e-02	1.57503149e+00	8.74434790e-02
1.87500000e-02	1.52418877e+00	8.23918523e-02
1.90000000e-02	1.46031876e+00	7.87575540e-02
1.92500000e-02	1.41387511e+00	7.48688950e-02
1.95000000e-02	1.35557855e+00	7.15077824e-02
1.97500000e-02	1.31486260e+00	6.96546087e-02
2.00000000e-02	1.27067873e+00	6.62262406e-02
2.02500000e-02	1.22153047e+00	6.33076545e-02
2.05000000e-02	1.19751895e+00	6.06893531e-02
2.07500000e-02	1.15212545e+00	5.83555311e-02
2.10000000e-02	1.12204315e+00	5.71572285e-02
2.12500000e-02	1.10291541e+00	5.62875846e-02
2.15000000e-02	1.06995500e+00	5.41526689e-02
2.17500000e-02	1.05241859e+00	5.33675741e-02
2.20000000e-02	1.01878438e+00	5.19245276e-02
2.22500000e-02	9.89212957e-01	4.99898349e-02
2.25000000e-02	9.84084510e-01	5.02588355e-02
2.27500000e-02	9.40146859e-01	4.74072125e-02
2.30000000e-02	9.29106377e-01	4.70434356e-02
2.32500000e-02	9.00359523e-01	4.51055501e-02
2.35000000e-02	8.84338853e-01	4.48147669e-02
2.37500000e-02	8.60659246e-01	4.31548189e-02
2.40000000e-02	8.43407331e-01	4.24460611e-02
2.42500000e-02	8.23444401e-01	4.11413191e-02
2.45000000e-02	8.02985606e-01	4.02385010e-02
2.47500000e-02	7.87092085e-01	3.89464655e-02
2.50000000e-02	7.74133377e-01	3.84695664e-02
2.52500000e-02	7.51158267e-01	3.74172375e-02
2.55000000e-02	7.39131412e-01	3.60353532e-02
2.57500000e-02	7.23345797e-01	3.55551790e-02
2.60000000e-02	7.02547867e-01	3.43092363e-02
2.62500000e-02	6.92324901e-01	3.41392044e-02
2.65000000e-02	6.82317079e-01	3.33575255e-02
2.67500000e-02	6.71542548e-01	3.24871064e-02
2.70000000e-02	6.59105620e-01	3.21089076e-02
2.72500000e-02	6.36847183e-01	3.06115689e-02
2.75000000e-02	6.22634491e-01	3.03679163e-02
2.77500000e-02	6.11723151e-01	2.97769911e-02
2.80000000e-02	6.02348956e-01	2.85880366e-02
2.82500000e-02	5.89461767e-01	2.80132877e-02
2.85000000e-02	5.83528595e-01	2.78149993e-02
2.87500000e-02	5.72199912e-01	2.73637410e-02
2.90000000e-02	5.63328939e-01	2.70457332e-02
2.92500000e-02	5.53832904e-01	2.56042002e-02
2.95000000e-02	5.51446003e-01	2.61585891e-02
2.97500000e-02	5.37313213e-01	2.51394958e-02
3.00000000e-02	5.34205187e-01	2.51983998e-02
3.02500000e-02	5.26851473e-01	2.48463066e-02
3.05000000e-02	5.10761415e-01	2.34932974e-02
3.07500000e-02	5.04304520e-01	2.35241218e-02
3.10000000e-02	4.98583174e-01	2.31984185e-02
3.12500000e-02	4.88998103e-01	2.28668021e-02
3.15000000e-02	4.79824920e-01	2.22500255e-02
3.17500000e-02	4.77017882e-01	2.17143985e-02
3.20000000e-02	4.72810928e-01	2.17808850e-02
3.22500000e-02	4.58343499e-01	2.11291754e-02
3.25000000e-02	4.58168729e-01	2.11982960e-02
3.27500000e-02	4.49271800e-01	2.05905897e-02
3.30000000e-02	4.42538241e-01	2.00317404e-02
3.32500000e-02	4.35008965e-01	1.96696765e-02
3.35000000e-02	4.31533699e-01	1.97856265e-02
3.37500000e-02	4.31032616e-01	1.95114965e-02
3.40000000e-02	4.19615412e-01	1.90720265e-02
3.42500000e-02	4.21612144e-01	1.89551750e-02
3.45000000e-02	4.13644851e-01	1.86952388e-02
3.47500000e-02	4.08032567e-01	1.84109399e-02
3.50000000e-02	4.03479927e-01	1.81302287e-02
3.52500000e-02	3.97754002e-01	1.78662462e-02
3.55000000e-02	3.90335388e-01	1.72925524e-02
3.57500000e-02	3.87626213e-01	1.74171497e-02
3.60000000e-02	3.79672235e-01	1.69230271e-02
3.62500000e-02	3.76223970e-01	1.68696530e-02
3.65000000e-02	3.66096674e-01	1.63176616e-02
3.67500000e-02	3.70787096e-01	1.64259305e-02
3.70000000e-02	3.64944425e-01	1.61346932e-02
3.72500000e-02	3.65073219e-01	1.61743893e-02
3.75000000e-02	3.55599910e-01	1.58702166e-02
3.77500000e-02	3.52401282e-01	1.55130733e-02
3.80000000e-02	3.53209850e-01	1.54795878e-02
3.82500000e-02	3.50293157e-01	1.52420388e-02
3.85000000e-02	3.47646855e-01	1.53944088e-02
3.87500000e-02	3.39917519e-01	1.48025017e-02
3.90000000e-02	3.38694206e-01	1.48738779e-02
3.92500000e-02	3.37082915e-01	1.45751053e-02
3.95000000e-02	3.31452943e-01	1.44121844e-02
3.97500000e-02	3.28547283e-01	1.42778304e-02
4.00000000e-02	3.26149220e-01	1.41856075e-02
4.02500000e-02	3.25796097e-01	1.40984331e-02
4.05000000e-02	3.20317502e-01	1.37100222e-02
4.07500000e-02	3.16717405e-01	1.35535133e-02
4.10000000e-02	3.19307060e-01	1.37792324e-02
4.12500000e-02	3.12303352e-01	1.34765613e-02
4.15000000e-02	3.11450540e-01	1.33042034e-02
4.17500000e-02	3.09297736e-01	1.32030789e-02
4.20000000e-02	3.05204439e-01	1.29929981e-02
4.22500000e-02	3.05922438e-01	1.29289040e-02
4.25000000e-02	3.01001005e-01	1.27330540e-02
4.27500000e-02	2.98888236e-01	1.26094153e-02
4.30000000e-02	2.99450191e-01	1.26498907e-02
4.32500000e-02	2.95131583e-01	1.24700074e-02
4.35000000e-02	2.91774749e-01	1.23859171e-02
4.37500000e-02	2.91215793e-01	1.21388448e-02
4.40000000e-02	2.90891921e-01	1.22445348e-02
4.42500000e-02	2.85955338e-01	1.20101748e-02
4.45000000e-02	2.85323406e-01	1.18843592e-02
4.47500000e-02	2.82703937e-01	1.18161132e-02
4.50000000e-02	2.80585387e-01	1.17687446e-02
4.52500000e-02	2.78576623e-01	1.15859254e-02
4.55000000e-02	2.77677736e-01	1.15450298e-02
4.57500000e-02	2.75048086e-01	1.13854108e-02
4.60000000e-02	2.77444822e-01	1.15477301e-02
4.62500000e-02	2.74218371e-01	1.13909616e-02
4.65000000e-02	2.67619726e-01	1.10434129e-02
4.67500000e-02	2.72743310e-01	1.11713596e-02
4.70000000e-02	2.67921590e-01	1.09849224e-02
4.72500000e-02	2.64571510e-01	1.08804831e-02
4.75000000e-02	2.67093194e-01	1.10573622e-02
4.77500000e-02	2.64140060e-01	1.07496347e-02
4.80000000e-02	2.63001699e-01	1.07461844e-02
4.82500000e-02	2.58252856e-01	1.05851163e-02
4.85000000e-02	2.59680288e-01	1.07443285e-02
4.87500000e-02	2.56759119e-01	1.05303691e-02
4.90000000e-02	2.55845764e-01	1.03531711e-02
4.92500000e-02	2.51864645e-01	1.02313228e-02
4.95000000e-02	2.50421216e-01	1.01629421e-02
4.97500000e-02	2.51794408e-01	1.02820269e-02
5.00000000e-02	2.49328990e-01	1.01719076e-02
5.02500000e-02	2.49174018e-01	1.00195786e-02
5.05000000e-02	2.47028741e-01	9.95753042e-03
5.07500000e-02	2.45193129e-01	9.97683554e-03
5.10000000e-02	2.47247930e-01	1.00024292e-02
5.12500000e-02	2.42419462e-01	9.78503883e-03
5.15000000e-02	2.39863399e-01	9.59054201e-03
5.17500000e-02	2.42294436e-01	9.77822211e-03
5.20000000e-02	2.40171254e-01	9.59020600e-03
5.22500000e-02	2.40075885e-01	9.71861103e-03
5.25000000e-02	2.34682236e-01	9.39685164e-03
5.27500000e-02	2.37396164e-01	9.46284897e-03
5.30000000e-02	2.37246706e-01	9.56365312e-03
5.32500000e-02	2.33989098e-01	9.36154780e-03
5.35000000e-02	2.34598888e-01	9.39247136e-03
5.37500000e-02	2.33347879e-01	9.29645277e-03
5.40000000e-02	2.33172091e-01	9.25725757e-03
5.42500000e-02	2.30272662e-01	9.18551835e-03
5.45000000e-02	2.30179397e-01	9.13466189e-03
5.47500000e-02	2.30822170e-01	9.16703241e-03
5.50000000e-02	2.27984197e-01	9.04968788e-03
5.52500000e-02	2.26743874e-01	8.92655122e-03
5.55000000e-02	2.25019832e-01	8.86012932e-03
5.57500000e-02	2.24974437e-01	8.93728749e-03
5.60000000e-02	2.24303275e-01	8.80722862e-03
5.62500000e-02	2.22746512e-01	8.80897715e-03
5.65000000e-02	2.23504193e-01	8.76425186e-03
5.67500000e-02	2.24363513e-01	8.83232022e-03
5.70000000e-02	2.22394916e-01	8.75898194e-03
5.72500000e-02	2.20778138e-01	8.69819700e-03
5.75000000e-02	2.21246402e-01	8.70787168e-03
5.77500000e-02	2.17394458e-01	8.41783845e-03
5.80000000e-02	2.19540685e-01	8.57094325e-03
5.82500000e-02	2.15727320e-01	8.40720253e-03
5.85000000e-02	2.14873497e-01	8.37789913e-03
5.87500000e-02	2.15359897e-01	8.38879028e-03
5.90000000e-02	2.13777214e-01	8.30641308e-03
5.92500000e-02	2.10881554e-01	8.16857602e-03
5.95000000e-02	2.15313573e-01	8.33129086e-03
5.97500000e-02	2.13668196e-01	8.34661475e-03
6.00000000e-02	2.10907187e-01	8.17047551e-03
6.02500000e-02	2.10629870e-01	8.15845227e-03
6.05000000e-02	2.08449533e-01	8.06258441e-03
6.07500000e-02	2.11000386e-01	8.19395930e-03
6.10000000e-02	2.07688618e-01	8.00876602e-03
6.12500000e-02	2.07826279e-01	8.04701717e-03
6.15000000e-02	2.07092623e-01	7.95113245e-03
6.17500000e-02	2.05777817e-01	7.89697622e-03
6.20000000e-02	2.04035483e-01	7.83243434e-03
6.22500000e-02	2.05405130e-01	7.88379694e-03
6.25000000e-02	2.05397257e-01	7.95211929e-03
6.27500000e-02	2.01905398e-01	7.70256483e-03
6.30000000e-02	2.02200096e-01	7.71718767e-03
6.32500000e-02	2.03081583e-01	7.75053259e-03
6.35000000e-02	2.00562296e-01	7.63760427e-03
6.37500000e-02	2.01214142e-01	7.72988039e-03
6.40000000e-02	2.00326600e-01	7.64517943e-03
6.42500000e-02	1.98562248e-01	7.56671662e-03
6.45000000e-02	1.98677331e-01	7.52433384e-03
6.47500000e-02	1.99231306e-01	7.56991461e-03
6.50000000e-02	1.96123820e-01	7.46672841e-03
6.52500000e-02	1.98169035e-01	7.46047738e-03
6.55000000e-02	1.95554057e-01	7.41439824e-03
6.57500000e-02	1.94864954e-01	7.33951196e-03
6.60000000e-02	1.94473802e-01	7.36124808e-03
6.62500000e-02	1.96746594e-01	7.46036380e-03
6.65000000e-02	1.90891361e-01	7.19686632e-03
6.67500000e-02	1.93522872e-01	7.28272947e-03
6.70000000e-02	1.93651819e-01	7.31977169e-03
6.72500000e-02	1.91715113e-01	7.21969778e-03
6.75000000e-02	1.92079049e-01	7.20005481e-03
6.77500000e-02	1.90557273e-01	7.11630690e-03
6.80000000e-02	1.90277098e-01	7.17256452e-03
6.82500000e-02	1.88186128e-01	7.08761431e-03
6.85000000e-02	1.90832912e-01	7.18494779e-03
6.87500000e-02	1.88729910e-01	7.04278819e-03
6.90000000e-02	1.88341144e-01	7.02594458e-03
6.92500000e-02	1.87807238e-01	7.04162349e-03
6.95000000e-02	1.87177019e-01	7.02122692e-03
6.97500000e-02	1.88036423e-01	7.03361166e-03
7.00000000e-02	1.86925728e-01	6.92646308e-03
7.02500000e-02	1.86801298e-01	6.93196923e-03
7.05000000e-02	1.84997740e-01	6.83957359e-03
7.07500000e-02	1.84994738e-01	6.89760753e-03
7.10000000e-02	1.83831251e-01	6.81050361e-03
7.12500000e-02	1.82787904e-01	6.76854273e-03
7.15000000e-02	1.83167644e-01	6.74514368e-03
7.17500000e-02	1.83574391e-01	6.78991783e-03
7.20000000e-02	1.80081947e-01	6.69292057e-03
7.22500000e-02	1.81665305e-01	6.72253482e-03
7.25000000e-02	1.82075447e-01	6.66687483e-03
7.27500000e-02	1.78245817e-01	6.57600758e-03
7.30000000e-02	1.81917404e-01	6.71415834e-03
7.32500000e-02	1.79081285e-01	6.54953188e-03
7.35000000e-02	1.79317967e-01	6.63437919e-03
7.37500000e-02	1.78910074e-01	6.57181010e-03
7.40000000e-02	1.76850327e-01	6.49385431e-03
7.42500000e-02	1.76545579e-01	6.47122862e-03
7.45000000e-02	1.76974244e-01	6.46295804e-03
7.47500000e-02	1.74682964e-01	6.36729589e-03
7.50000000e-02	1.74497666e-01	6.37676655e-03
7.52500000e-02	1.75760869e-01	6.39447661e-03
7.55000000e-02	1.72988731e-01	6.33730770e-03
7.57500000e-02	1.72990612e-01	6.31759854e-03
7.60000000e-02	1.71592508e-01	6.25811191e-03
7.62500000e-02	1.71055734e-01	6.22489753e-03
7.65000000e-02	1.74174474e-01	6.35097759e-03
7.67500000e-02	1.69613943e-01	6.15757066e-03
7.70000000e-02	1.71012013e-01	6.18603177e-03
7.72500000e-02	1.74432341e-01	6.38136352e-03
7.75000000e-02	1.76145807e-01	6.48393935e-03
7.77500000e-02	1.78423153e-01	6.58657796e-03
7.80000000e-02	1.80303073e-01	6.66837445e-03
7.82500000e-02	1.80374500e-01	6.69533650e-03
7.85000000e-02	1.80427358e-01	6.72909033e-03
7.87500000e-02	1.80622983e-01	6.71437150e-03
7.90000000e-02	1.81518028e-01	6.79484667e-03
7.92500000e-02	1.81274289e-01	6.76686853e-03
7.95000000e-02	1.80782109e-01	6.79570794e-03
7.97500000e-02	1.83610140e-01	6.91691018e-03
8.00000000e-02	1.81753432e-01	6.80148531e-03
8.02500000e-02	1.83903899e-01	6.89118642e-03
8.05000000e-02	1.81348541e-01	6.78932149e-03
8.07500000e-02	1.83190860e-01	6.92702915e-03
8.10000000e-02	1.83071750e-01	6.92374157e-03
8.12500000e-02	1.81882584e-01	6.86095825e-03
8.15000000e-02	1.82764436e-01	6.89108693e-03
8.17500000e-02	1.84779499e-01	7.01849001e-03
8.20000000e-02	1.82989556e-01	6.91051586e-03
8.22500000e-02	1.83053110e-01	6.92209988e-03
8.25000000e-02	1.86254358e-01	7.04722478e-03
8.27500000e-02	1.84158094e-01	6.94748532e-03
8.30000000e-02	1.84263279e-01	7.01100104e-03
8.32500000e-02	1.85153623e-01	7.03757829e-03
8.35000000e-02	1.86596388e-01	7.10600071e-03
8.37500000e-02	1.83946403e-01	6.92639452e-03
8.40000000e-02	1.82871903e-01	6.89659977e-03
8.42500000e-02	1.81884095e-01	6.90269082e-03
8.45000000e-02	1.81216268e-01	6.90081904e-03
8.47500000e-02	1.81353140e-01	6.92799114e-03
8.50000000e-02	1.82003150e-01	6.90239320e-03
8.52500000e-02	1.81047981e-01	6.90170545e-03
8.55000000e-02	1.81554280e-01	6.87220145e-03
8.57500000e-02	1.82956565e-01	6.98717079e-03
8.60000000e-02	1.82658565e-01	6.96211693e-03
8.62500000e-02	1.80845039e-01	6.83779084e-03
8.65000000e-02	1.82006373e-01	6.87391425e-03
8.67500000e-02	1.79894649e-01	6.81604661e-03
8.70000000e-02	1.73787014e-01	6.57545900e-03
8.72500000e-02	1.70656203e-01	6.37538716e-03
8.75000000e-02	1.71200904e-01	6.29122499e-03
8.77500000e-02	1.69286229e-01	6.24384068e-03
8.80000000e-02	1.67296707e-01	6.15977218e-03
8.82500000e-02	1.64077733e-01	6.00355617e-03
8.85000000e-02	1.61676905e-01	5.93711565e-03
8.87500000e-02	1.61573896e-01	5.83074124e-03
8.90000000e-02	1.62098635e-01	5.89868970e-03
8.92500000e-02	1.60197564e-01	5.86185532e-03
8.95000000e-02	1.58379290e-01	5.72767580e-03
8.97500000e-02	1.56690056e-01	5.61538009e-03
9.00000000e-02	1.55549084e-01	5.57161530e-03
9.02500000e-02	1.54896258e-01	5.55967892e-03
9.05000000e-02	1.53210943e-01	5.50310047e-03
9.07500000e-02	1.54015543e-01	5.50755524e-03
9.10000000e-02	1.51833331e-01	5.38763823e-03
9.12500000e-02	1.51490384e-01	5.35756372e-03
9.15000000e-02	1.49016234e-01	5.30351199e-03
9.17500000e-02	1.46746097e-01	5.20602948e-03
9.20000000e-02	1.48725719e-01	5.26887535e-03
9.22500000e-02	1.48853890e-01	5.27007794e-03
9.25000000e-02	1.46062469e-01	5.14974106e-03
9.27500000e-02	1.45035938e-01	5.10485966e-03
9.30000000e-02	1.44522981e-01	5.07506728e-03
9.32500000e-02	1.42843634e-01	5.02030056e-03
9.35000000e-02	1.42809190e-01	4.99614521e-03
9.37500000e-02	1.42931060e-01	4.98192696e-03
9.40000000e-02	1.43818189e-01	5.03502361e-03
9.42500000e-02	1.40062178e-01	4.88271237e-03
9.45000000e-02	1.39011922e-01	4.84773131e-03
9.47500000e-02	1.38454533e-01	4.82777864e-03
9.50000000e-02	1.38123251e-01	4.76921339e-03
9.52500000e-02	1.38383997e-01	4.77292069e-03
9.55000000e-02	1.35869602e-01	4.69238576e-03
9.57500000e-02	1.35499785e-01	4.68304778e-03
9.60000000e-02	1.35098239e-01	4.64306540e-03
9.62500000e-02	1.35165860e-01	4.64375485e-03
9.65000000e-02	1.35584774e-01	4.65936642e-03
9.67500000e-02	1.33857884e-01	4.59237603e-03
9.70000000e-02	1.32093663e-01	4.52466637e-03
9.72500000e-02	1.30877387e-01	4.46458004e-03
9.75000000e-02	1.31060422e-01	4.47363832e-03
9.77500000e-02	1.30149251e-01	4.40301154e-03
9.80000000e-02	1.29313960e-01	4.39226406e-03
9.82500000e-02	1.28398700e-01	4.36129464e-03
9.85000000e-02	1.27100018e-01	4.31426201e-03
9.87500000e-02	1.29097769e-01	4.34832343e-03
9.90000000e-02	1.26250416e-01	4.27908361e-03
9.92500000e-02	1.24142667e-01	4.19380117e-03
9.95000000e-02	1.24155193e-01	4.19304320e-03
9.97500000e-02	1.25669086e-01	4.21451549e-03
1.00000000e-01	1.22839860e-01	3.36935431e-03
1.00500000e-01	1.21947770e-01	2.90599746e-03
1.01000000e-01	1.19718527e-01	2.81706279e-03
1.01500000e-01	1.19190825e-01	2.81300581e-03
1.02000000e-01	1.17819932e-01	2.76297218e-03
1.02500000e-01	1.17340442e-01	2.73018661e-03
1.03000000e-01	1.14777762e-01	2.67541306e-03
1.03500000e-01	1.14845277e-01	2.65618424e-03
1.04000000e-01	1.12252484e-01	2.59594327e-03
1.04500000e-01	1.11400207e-01	2.56992355e-03
1.05000000e-01	1.11079481e-01	2.53804106e-03
1.05500000e-01	1.09649277e-01	2.52291234e-03
1.06000000e-01	1.07622544e-01	2.45220554e-03
1.06500000e-01	1.05586171e-01	2.40260439e-03
1.07000000e-01	1.02432721e-01	2.36135629e-03
1.07500000e-01	9.80371479e-02	2.30324617e-03
1.08000000e-01	9.38880915e-02	2.23007790e-03
1.08500000e-01	9.05978957e-02	2.16569449e-03
1.09000000e-01	8.84217524e-02	2.12253558e-03
1.09500000e-01	8.64990367e-02	2.09504543e-03
1.10000000e-01	8.78074195e-02	2.09956128e-03
1.10500000e-01	9.00964678e-02	2.11600136e-03
1.11000000e-01	9.14080968e-02	2.10581038e-03
1.11500000e-01	9.15939625e-02	2.09265112e-03
1.12000000e-01	9.17447013e-02	2.08352731e-03
1.12500000e-01	9.11633134e-02	2.04082880e-03
1.13000000e-01	9.05891723e-02	2.02595105e-03
1.13500000e-01	9.01775878e-02	2.00755097e-03
1.14000000e-01	8.95610546e-02	1.98220473e-03
1.14500000e-01	8.78234323e-02	1.93969378e-03
1.15000000e-01	8.74500667e-02	1.90949089e-03
1.15500000e-01	8.61645948e-02	1.89075226e-03
1.16000000e-01	8.56014230e-02	1.87168496e-03
1.16500000e-01	8.43728065e-02	1.83597333e-03
1.17000000e-01	8.36518684e-02	1.80787521e-03
1.17500000e-01	8.30796807e-02	1.78304601e-03
1.18000000e-01	8.17914781e-02	1.75842007e-03
1.18500000e-01	8.09168300e-02	1.72390739e-03
1.19000000e-01	8.02386983e-02	1.70730413e-03
1.19500000e-01	7.91389425e-02	1.67959921e-03
1.20000000e-01	7.85994307e-02	1.66205843e-03
1.20500000e-01	7.73042562e-02	1.62418045e-03
1.21000000e-01	7.59703975e-02	1.59193421e-03
1.21500000e-01	7.61078470e-02	1.59150642e-03
1.22000000e-01	7.56035632e-02	1.56669547e-03
1.22500000e-01	7.45709786e-02	1.54226737e-03
1.23000000e-01	7.36603889e-02	1.52682541e-03
1.23500000e-01	7.20713206e-02	1.47783294e-03
1.24000000e-01	7.19379895e-02	1.47961268e-03
1.24500000e-01	7.12086416e-02	1.45855012e-03
1.25000000e-01	7.12508769e-02	1.45460175e-03
1.25500000e-01	6.97795356e-02	1.41460266e-03
1.26000000e-01	6.99111192e-02	1.41878073e-03
1.26500000e-01	6.86589793e-02	1.38991568e-03
1.27000000e-01	6.73033242e-02	1.35711485e-03
1.27500000e-01	6.69001873e-02	1.34256445e-03
1.28000000e-01	6.62455452e-02	1.32640462e-03
1.28500000e-01	6.54766544e-02	1.30550979e-03
1.29000000e-01	6.49488495e-02	1.29184764e-03
1.29500000e-01	6.32687675e-02	1.24867238e-03
1.30000000e-01	6.32792432e-02	1.24941781e-03
1.30500000e-01	6.29965941e-02	1.23709161e-03
1.31000000e-01	6.14212312e-02	1.21066501e-03
1.31500000e-01	6.15625694e-02	1.20540152e-03
1.32000000e-01	6.15980012e-02	1.19913633e-03
1.32500000e-01	5.96514953e-02	1.15480757e-03
1.33000000e-01	5.92602847e-02	1.14972644e-03
1.33500000e-01	5.84057527e-02	1.12093560e-03
1.34000000e-01	5.79129942e-02	1.11455263e-03
1.34500000e-01	5.68983733e-02	1.08710493e-03
1.35000000e-01	5.60356347e-02	1.06886922e-03
1.35500000e-01	5.64830952e-02	1.07094283e-03
1.36000000e-01	5.54451742e-02	1.04381202e-03
1.36500000e-01	5.49229788e-02	1.04175171e-03
1.37000000e-01	5.39738706e-02	1.01374648e-03
1.37500000e-01	5.38358719e-02	1.01091565e-03
1.38000000e-01	5.34947404e-02	9.99354105e-04
1.38500000e-01	5.32854570e-02	9.93938524e-04
1.39000000e-01	5.21495527e-02	9.75780010e-04
1.39500000e-01	5.17099237e-02	9.60529640e-04
1.40000000e-01	5.12539113e-02	9.56502486e-04
1.40500000e-01	5.02515073e-02	9.33900174e-04
1.41000000e-01	5.00744310e-02	9.25519905e-04
1.41500000e-01	4.97585998e-02	9.20415654e-04
1.42000000e-01	4.85415811e-02	8.91896971e-04
1.42500000e-01	4.85209265e-02	8.99473457e-04
1.43000000e-01	4.82105480e-02	8.83701357e-04
1.43500000e-01	4.77152600e-02	8.71402670e-04
1.44000000e-01	4.74578719e-02	8.66912713e-04
1.44500000e-01	4.71384810e-02	8.54553151e-04
1.45000000e-01	4.60022211e-02	8.35550711e-04
1.45500000e-01	4.62027997e-02	8.39339752e-04
1.46000000e-01	4.56520206e-02	8.23252716e-04
1.46500000e-01	4.52746613e-02	8.15770719e-04
1.47000000e-01	4.50942611e-02	8.09738756e-04
1.47500000e-01	4.40625251e-02	7.90228099e-04
1.48000000e-01	4.37191548e-02	7.77981329e-04
1.48500000e-01	4.34656225e-02	7.74692940e-04
1.49000000e-01	4.29459280e-02	7.66144666e-04
1.49500000e-01	4.30251798e-02	7.63245548e-04
1.50000000e-01	4.22206378e-02	7.48637294e-04
1.50500000e-01	4.22723701e-02	7.50836601e-04
1.51000000e-01	4.15217477e-02	7.33306214e-04
1.51500000e-01	4.13002123e-02	7.25679875e-04
1.52000000e-01	4.09464936e-02	7.18178985e-04
1.52500000e-01	4.13103868e-02	7.23983139e-04
1.53000000e-01	4.04873359e-02	7.08189118e-04
1.53500000e-01	4.02358512e-02	7.03454492e-04
1.54000000e-01	3.98882866e-02	6.93072222e-04
1.54500000e-01	3.92561719e-02	6.93896309e-04
1.55000000e-01	3.83482380e-02	6.88716260e-04
1.55500000e-01	3.74510479e-02	6.78234245e-04
1.56000000e-01	3.77491447e-02	6.83785440e-04
1.56500000e-01	3.72182788e-02	6.72405729e-04
1.57000000e-01	3.66623778e-02	6.68360711e-04
1.57500000e-01	3.64583773e-02	6.52336346e-04
1.58000000e-01	3.68864934e-02	6.48761371e-04
1.58500000e-01	3.68233740e-02	6.45293893e-04
1.59000000e-01	3.67274867e-02	6.37609350e-04
1.59500000e-01	3.67487156e-02	6.35060201e-04
1.60000000e-01	3.58667379e-02	6.21441816e-04
1.60500000e-01	3.60140713e-02	6.20180596e-04
1.61000000e-01	3.62695397e-02	6.25354727e-04
1.61500000e-01	3.56427888e-02	6.10904949e-04
1.62000000e-01	3.55801759e-02	6.06715971e-04
1.62500000e-01	3.50780611e-02	6.01414513e-04
1.63000000e-01	3.50489221e-02	5.97088921e-04
1.63500000e-01	3.48343108e-02	5.96379307e-04
1.64000000e-01	3.45289938e-02	5.86127969e-04
1.64500000e-01	3.41766392e-02	5.80853348e-04
1.65000000e-01	3.37930763e-02	5.72393992e-04
1.65500000e-01	3.38545643e-02	5.70982641e-04
1.66000000e-01	3.34344256e-02	5.64425240e-04
1.66500000e-01	3.41361553e-02	5.73926927e-04
1.67000000e-01	3.35154513e-02	5.64821971e-04
1.67500000e-01	3.29492175e-02	5.52997010e-04
1.68000000e-01	3.30097710e-02	5.53345810e-04
1.68500000e-01	3.27674648e-02	5.49326360e-04
1.69000000e-01	3.25525737e-02	5.44319752e-04
1.69500000e-01	3.26527201e-02	5.45111380e-04
1.70000000e-01	3.24349574e-02	5.40053540e-04
1.70500000e-01	3.24232816e-02	5.38564027e-04
1.71000000e-01	3.21774238e-02	5.34139609e-04
1.71500000e-01	3.21278393e-02	5.33183252e-04
1.72000000e-01	3.17365900e-02	5.25367756e-04
1.72500000e-01	3.14754590e-02	5.20235223e-04
1.73000000e-01	3.14003287e-02	5.17633971e-04
1.73500000e-01	3.12133760e-02	5.12472827e-04
1.74000000e-01	3.14532034e-02	5.15213660e-04
1.74500000e-01	3.09583070e-02	5.05194340e-04
1.75000000e-01	3.10853603e-02	5.06894532e-04
1.75500000e-01	3.05271977e-02	4.96625036e-04
1.76000000e-01	3.05534066e-02	4.97856535e-04
1.76500000e-01	3.04721528e-02	4.96860537e-04
1.77000000e-01	3.02006679e-02	4.91339233e-04
1.77500000e-01	3.00008599e-02	4.89714757e-04
1.78000000e-01	3.00152206e-02	4.86134330e-04
1.78500000e-01	2.99194107e-02	4.85824967e-04
1.79000000e-01	2.98657580e-02	4.84317652e-04
1.79500000e-01	2.99105058e-02	4.85042585e-04
1.80000000e-01	2.96020720e-02	4.80843485e-04
1.80500000e-01	2.96777281e-02	4.80331650e-04
1.81000000e-01	2.95374992e-02	4.78051740e-04
1.81500000e-01	2.90889971e-02	4.69618223e-04
1.82000000e-01	2.92859919e-02	4.73535789e-04
1.82500000e-01	2.90776341e-02	4.68694273e-04
1.83000000e-01	2.92415696e-02	4.70967212e-04
1.83500000e-01	2.86905510e-02	4.61426245e-04
1.84000000e-01	2.89237025e-02	4.63080139e-04
1.84500000e-01	2.89686929e-02	4.64284260e-04
1.85000000e-01	2.85410974e-02	4.57337456e-04
1.85500000e-01	2.88821934e-02	4.62324417e-04
1.86000000e-01	2.84333889e-02	4.54277000e-04
1.86500000e-01	2.84003277e-02	4.52556320e-04
1.87000000e-01	2.83646432e-02	4.51928325e-04
1.87500000e-01	2.82026420e-02	4.49051580e-04
1.88000000e-01	2.80753298e-02	4.46463091e-04
1.88500000e-01	2.81198551e-02	4.45934530e-04
1.89000000e-01	2.80197622e-02	4.43112982e-04
1.89500000e-01	2.83520756e-02	4.50676403e-04
1.90000000e-01	2.79459491e-02	4.41315874e-04
1.90500000e-01	2.77285590e-02	4.38697623e-04
1.91000000e-01	2.77006695e-02	4.35950824e-04
1.91500000e-01	2.75856027e-02	4.35070806e-04
1.92000000e-01	2.73463088e-02	4.29142214e-04
1.92500000e-01	2.75086724e-02	4.32331609e-04
1.93000000e-01	2.76713672e-02	4.35121333e-04
1.93500000e-01	2.75855802e-02	4.32713787e-04
1.94000000e-01	2.72418080e-02	4.29007077e-04
1.94500000e-01	2.71579197e-02	4.25724255e-04
1.95000000e-01	2.69723865e-02	4.23436254e-04
1.95500000e-01	2.70556410e-02	4.21911759e-04
1.96000000e-01	2.67864207e-02	4.19443721e-04
1.96500000e-01	2.70982039e-02	4.22605108e-04
1.97000000e-01	2.71020018e-02	4.20950854e-04
1.97500000e-01	2.69149681e-02	4.17633649e-04
1.98000000e-01	2.68025005e-02	4.16681967e-04
1.98500000e-01	2.70897478e-02	4.18539252e-04
1.99000000e-01	2.65979078e-02	4.12191941e-04
1.99500000e-01	2.68641457e-02	4.15581732e-04
2.00000000e-01	2.67060952e-02	4.12461144e-04
2.00500000e-01	2.66299947e-02	4.12808876e-04
2.01000000e-01	2.68658619e-02	4.14304188e-04
2.01500000e-01	2.64254397e-02	4.07669326e-04
2.02000000e-01	2.63983319e-02	4.06219772e-04
2.02500000e-01	2.62261190e-02	4.03406351e-04
2.03000000e-01	2.64397952e-02	4.06359845e-04
2.03500000e-01	2.61419750e-02	4.01495050e-04
2.04000000e-01	2.61322141e-02	4.00509468e-04
2.04500000e-01	2.60402050e-02	4.00228746e-04
2.05000000e-01	2.63288512e-02	4.01580653e-04
2.05500000e-01	2.63650258e-02	4.03390688e-04
2.06000000e-01	2.59533232e-02	3.94733316e-04
2.06500000e-01	2.57787236e-02	3.94419603e-04
2.07000000e-01	2.61613544e-02	3.97683012e-04
2.07500000e-01	2.59764097e-02	3.96469986e-04
2.08000000e-01	2.59840353e-02	3.95911440e-04
2.08500000e-01	2.56771873e-02	3.89105886e-04
2.09000000e-01	2.57041616e-02	3.90619463e-04
2.09500000e-01	2.56336276e-02	3.88282157e-04
2.10000000e-01	2.61335893e-02	3.94774493e-04
2.10500000e-01	2.54838622e-02	3.85979576e-04
2.11000000e-01	2.58234438e-02	3.88404675e-04
2.11500000e-01	2.53262661e-02	3.83765708e-04
2.12000000e-01	2.54317345e-02	3.83502530e-04
2.12500000e-01	2.53595064e-02	3.81607864e-04
2.13000000e-01	2.55562382e-02	3.84360957e-04
2.13500000e-01	2.54629922e-02	3.82430905e-04
2.14000000e-01	2.55831401e-02	3.84435633e-04
2.14500000e-01	2.55053534e-02	3.80900209e-04
2.15000000e-01	2.51843022e-02	3.80587708e-04
2.15500000e-01	2.53313270e-02	3.77229417e-04
2.16000000e-01	2.53508429e-02	3.79256541e-04
2.16500000e-01	2.53352630e-02	3.77495697e-04
2.17000000e-01	2.50819495e-02	3.80193135e-04
2.17500000e-01	2.53448919e-02	3.89905628e-04
2.18000000e-01	2.53037302e-02	3.90198227e-04
2.18500000e-01	2.50123025e-02	3.87521844e-04
2.19000000e-01	2.49357846e-02	3.89212941e-04
2.19500000e-01	2.52856681e-02	3.94919807e-04
2.20000000e-01	2.50905765e-02	3.95127315e-04
2.20500000e-01	2.51656894e-02	3.95036360e-04
2.21000000e-01	2.49709779e-02	3.95141129e-04
2.21500000e-01	2.48286058e-02	3.94525614e-04
2.22000000e-01	2.51610317e-02	3.98677279e-04
2.22500000e-01	2.51017011e-02	3.98749050e-04
2.23000000e-01	2.49597131e-02	3.97760147e-04
2.23500000e-01	2.49504417e-02	4.00068676e-04
2.24000000e-01	2.47646653e-02	3.96839688e-04
2.24500000e-01	2.48772088e-02	4.00116670e-04
2.25000000e-01	2.51156758e-02	4.03480498e-04
2.25500000e-01	2.51769570e-02	4.04696716e-04
2.26000000e-01	2.47989666e-02	4.02171707e-04
2.26500000e-01	2.48875461e-02	3.96564617e-04
2.27000000e-01	2.45541385e-02	3.87215045e-04
2.27500000e-01	2.48181334e-02	3.87247146e-04
2.28000000e-01	2.45783179e-02	3.82996093e-04
2.28500000e-01	2.48513591e-02	3.84667875e-04
2.29000000e-01	2.44069496e-02	3.75734134e-04
2.29500000e-01	2.46729557e-02	3.79863969e-04
2.30000000e-01	2.47369409e-02	3.79093089e-04
2.30500000e-01	2.46285232e-02	3.75053895e-04
2.31000000e-01	2.44908315e-02	3.73126176e-04
2.31500000e-01	2.46089562e-02	3.74323531e-04
2.32000000e-01	2.45108145e-02	3.71665713e-04
2.32500000e-01	2.43855448e-02	3.68795290e-04
2.33000000e-01	2.41331537e-02	3.64664474e-04
2.33500000e-01	2.43463076e-02	3.66379898e-04
2.34000000e-01	2.44281185e-02	3.66184408e-04
2.34500000e-01	2.42032938e-02	3.62358922e-04
2.35000000e-01	2.42367429e-02	3.63549357e-04
2.35500000e-01	2.44273656e-02	3.64447367e-04
2.36000000e-01	2.41912548e-02	3.61569491e-04
2.36500000e-01	2.41433134e-02	3.59774984e-04
2.37000000e-01	2.39076632e-02	3.56221478e-04
2.37500000e-01	2.40424896e-02	3.57648976e-04
2.38000000e-01	2.38256647e-02	3.52751179e-04
2.38500000e-01	2.39457890e-02	3.55377026e-04
2.39000000e-01	2.38879227e-02	3.53550788e-04
2.39500000e-01	2.41293282e-02	3.56476553e-04
2.40000000e-01	2.41839722e-02	3.54729510e-04
2.40500000e-01	2.38631728e-02	3.50455727e-04
2.41000000e-01	2.38677764e-02	3.49828753e-04
2.41500000e-01	2.39940835e-02	3.51257587e-04
2.42000000e-01	2.38329178e-02	3.48292188e-04
2.42500000e-01	2.35195872e-02	3.44210817e-04
2.43000000e-01	2.35539597e-02	3.43779647e-04
2.43500000e-01	2.35003840e-02	3.42917934e-04
2.44000000e-01	2.36329981e-02	3.43120145e-04
2.44500000e-01	2.37451866e-02	3.46551090e-04
2.45000000e-01	2.34195872e-02	3.38812359e-04
2.45500000e-01	2.35736957e-02	3.42147187e-04
2.46000000e-01	2.32784386e-02	3.37946376e-04
2.46500000e-01	2.37144651e-02	3.42347655e-04
2.47000000e-01	2.36197852e-02	3.42613516e-04
2.47500000e-01	2.37412175e-02	3.41414944e-04
2.48000000e-01	2.33581651e-02	3.37061647e-04
2.48500000e-01	2.36863315e-02	3.39775985e-04
2.49000000e-01	2.35300273e-02	3.37653494e-04
2.49500000e-01	2.35172119e-02	3.37833675e-04
2.50000000e-01	2.34228430e-02	3.34458087e-04
2.50500000e-01	2.34074592e-02	3.35382232e-04
2.51000000e-01	2.35372491e-02	3.35365827e-04
2.51500000e-01	2.34685170e-02	3.36354010e-04
2.52000000e-01	2.34474812e-02	3.34979577e-04
2.52500000e-01	2.33968985e-02	3.33035776e-04
2.53000000e-01	2.31962085e-02	3.30815861e-04
2.53500000e-01	2.32354214e-02	3.30549546e-04
2.54000000e-01	2.32659943e-02	3.30511094e-04
2.54500000e-01	2.33921563e-02	3.31908285e-04
2.55000000e-01	2.32126080e-02	3.29546109e-04
2.55500000e-01	2.31336013e-02	3.27266978e-04
2.56000000e-01	2.30848133e-02	3.27294030e-04
2.56500000e-01	2.33224828e-02	3.29314192e-04
2.57000000e-01	2.31464356e-02	3.26546247e-04
2.57500000e-01	2.32287634e-02	3.27785914e-04
2.58000000e-01	2.28481263e-02	3.22068810e-04
2.58500000e-01	2.31360893e-02	3.26633222e-04
2.59000000e-01	2.32153845e-02	3.26708589e-04
2.59500000e-01	2.31684883e-02	3.24289844e-04
2.60000000e-01	2.29258248e-02	3.23240536e-04
2.60500000e-01	2.31321287e-02	3.24020708e-04
2.61000000e-01	2.28126024e-02	3.19836077e-04
2.61500000e-01	2.27004389e-02	3.18328446e-04
2.62000000e-01	2.28823732e-02	3.20650559e-04
2.62500000e-01	2.27528293e-02	3.18107133e-04
2.63000000e-01	2.30496204e-02	3.22211345e-04
2.63500000e-01	2.30421477e-02	3.21223681e-04
2.64000000e-01	2.29294277e-02	3.20031633e-04
2.64500000e-01	2.28126875e-02	3.17748891e-04
2.65000000e-01	2.27220220e-02	3.17212386e-04
2.65500000e-01	2.26533247e-02	3.13981084e-04
2.66000000e-01	2.27238696e-02	3.16173996e-04
2.66500000e-01	2.26246677e-02	3.14074202e-04
2.67000000e-01	2.25620117e-02	3.12649049e-04
2.67500000e-01	2.25884840e-02	3.12026727e-04
2.68000000e-01	2.26608375e-02	3.12279915e-04
2.68500000e-01	2.24017275e-02	3.08483727e-04
2.69000000e-01	2.24530741e-02	3.09357133e-04
2.69500000e-01	2.26007584e-02	3.10868912e-04
2.70000000e-01	2.24952212e-02	3.10357570e-04
2.70500000e-01	2.21931718e-02	3.05498276e-04
2.71000000e-01	2.24325082e-02	3.08080956e-04
2.71500000e-01	2.25554727e-02	3.09656633e-04
2.72000000e-01	2.25061623e-02	3.08251935e-04
2.72500000e-01	2.23564035e-02	3.06630683e-04
2.73000000e-01	2.25441172e-02	3.08846650e-04
2.73500000e-01	2.25152016e-02	3.08353679e-04
2.74000000e-01	2.25795154e-02	3.07927622e-04
2.74500000e-01	2.23316067e-02	3.04197641e-04
2.75000000e-01	2.23924974e-02	3.04956771e-04
2.75500000e-01	2.23531762e-02	3.04783884e-04
2.76000000e-01	2.23193099e-02	3.03931962e-04
2.76500000e-01	2.22993229e-02	3.04064792e-04
2.77000000e-01	2.22869723e-02	3.02138013e-04
2.77500000e-01	2.22565230e-02	3.02357826e-04
2.78000000e-01	2.21648586e-02	3.00283661e-04
2.78500000e-01	2.23217687e-02	3.02461975e-04
2.79000000e-01	2.23570835e-02	3.02916799e-04
2.79500000e-01	2.22248027e-02	3.01041756e-04
2.80000000e-01	2.21089602e-02	3.00060494e-04
2.80500000e-01	2.20482438e-02	2.98103302e-04
2.81000000e-01	2.23254218e-02	3.01005542e-04
2.81500000e-01	2.22462164e-02	3.00185807e-04
2.82000000e-01	2.23711453e-02	3.00923864e-04
2.82500000e-01	2.23436035e-02	3.00261354e-04
2.83000000e-01	2.21623921e-02	2.97575717e-04
2.83500000e-01	2.19776323e-02	2.95496072e-04
2.84000000e-01	2.20065115e-02	2.95759104e-04
2.84500000e-01	2.18992803e-02	2.93312596e-04
2.85000000e-01	2.18566750e-02	2.93270827e-04
2.85500000e-01	2.19043804e-02	2.92694986e-04
2.86000000e-01	2.20917653e-02	2.95901648e-04
2.86500000e-01	2.19360831e-02	2.93688344e-04
2.87000000e-01	2.18703814e-02	2.92812202e-04
2.87500000e-01	2.18746152e-02	2.91214121e-04
2.88000000e-01	2.19507078e-02	2.91089781e-04
2.88500000e-01	2.17987970e-02	2.90330983e-04
2.89000000e-01	2.19515703e-02	2.92311323e-04
2.89500000e-01	2.16963425e-02	2.88235139e-04
2.90000000e-01	2.15815689e-02	2.87838168e-04
2.90500000e-01	2.18453808e-02	2.89302555e-04
2.91000000e-01	2.16926050e-02	2.87106007e-04
2.91500000e-01	2.16730298e-02	2.85670628e-04
2.92000000e-01	2.18712600e-02	2.89602508e-04
2.92500000e-01	2.17286951e-02	2.86759838e-04
2.93000000e-01	2.17533742e-02	2.87257334e-04
2.93500000e-01	2.16999907e-02	2.87275712e-04
2.94000000e-01	2.17821765e-02	2.87582711e-04
2.94500000e-01	2.18258629e-02	2.88510375e-04
2.95000000e-01	2.16646622e-02	2.84174988e-04
2.95500000e-01	2.17657958e-02	2.87082440e-04
2.96000000e-01	2.16974717e-02	2.84726241e-04
2.96500000e-01	2.17026429e-02	2.85024111e-04
2.97000000e-01	2.15954964e-02	2.83639666e-04
2.97500000e-01	2.14864696e-02	2.81310988e-04
2.98000000e-01	2.15962250e-02	2.83021270e-04
2.98500000e-01	2.16806107e-02	2.84110232e-04
2.99000000e-01	2.14882200e-02	2.80441750e-04
2.99500000e-01	2.15063812e-02	2.81098225e-04
3.00000000e-01	2.16406021e-02	2.81821885e-04
3.00500000e-01	2.15091597e-02	2.81953709e-04
3.01000000e-01	2.15788610e-02	2.80524064e-04
3.01500000e-01	2.16110180e-02	2.82928731e-04
3.02000000e-01	2.16431994e-02	2.81422718e-04
3.02500000e-01	2.16761849e-02	2.82072831e-04
3.03000000e-01	2.15343194e-02	2.79821991e-04
3.03500000e-01	2.14455861e-02	2.78209190e-04
3.04000000e-01	2.15678571e-02	2.80632491e-04
3.04500000e-01	2.14370176e-02	2.77545458e-04
3.05000000e-01	2.14772760e-02	2.78712165e-04
3.05500000e-01	2.12399469e-02	2.73989467e-04
3.06000000e-01	2.15578290e-02	2.77441223e-04
3.06500000e-01	2.15537189e-02	2.78326733e-04
3.07000000e-01	2.13784631e-02	2.76196939e-04
3.07500000e-01	2.13675499e-02	2.75694682e-04
3.08000000e-01	2.12846241e-02	2.75104593e-04
3.08500000e-01	2.12242720e-02	2.73304494e-04
3.09000000e-01	2.12854144e-02	2.74130886e-04
3.09500000e-01	2.11116214e-02	2.71503964e-04
3.10000000e-01	2.11508645e-02	2.73009246e-04
3.10500000e-01	2.12611512e-02	2.73306926e-04
3.11000000e-01	2.12579488e-02	2.72294692e-04
3.11500000e-01	2.12449368e-02	2.72236026e-04
3.12000000e-01	2.12900651e-02	2.72674352e-04
3.12500000e-01	2.14305240e-02	2.74787131e-04
3.13000000e-01	2.14054628e-02	2.73019141e-04
3.13500000e-01	2.11914745e-02	2.71164120e-04
3.14000000e-01	2.11685292e-02	2.69987968e-04
3.14500000e-01	2.11556836e-02	2.69449162e-04
3.15000000e-01	2.12266497e-02	2.70881368e-04
3.15500000e-01	2.11024282e-02	2.69071723e-04
3.16000000e-01	2.13093913e-02	2.71842084e-04
3.16500000e-01	2.11811147e-02	2.69787786e-04
3.17000000e-01	2.12921822e-02	2.69828664e-04
3.17500000e-01	2.10928551e-02	2.68246566e-04
3.18000000e-01	2.10460893e-02	2.67606506e-04
3.18500000e-01	2.08242940e-02	2.64618855e-04
3.19000000e-01	2.09138268e-02	2.65614492e-04
3.19500000e-01	2.10537533e-02	2.67090777e-04
3.20000000e-01	2.11299714e-02	2.67736223e-04
3.20500000e-01	2.09977519e-02	2.65231782e-04
3.21000000e-01	2.12406431e-02	2.68263071e-04
3.21500000e-01	2.07132028e-02	2.62257119e-04
3.22000000e-01	2.10055068e-02	2.65978252e-04
3.22500000e-01	2.10288152e-02	2.65166114e-04
3.23000000e-01	2.10165244e-02	2.64404948e-04
3.23500000e-01	2.09684339e-02	2.64327582e-04
3.24000000e-01	2.06642229e-02	2.59499508e-04
3.24500000e-01	2.10718273e-02	2.65421559e-04
3.25000000e-01	2.09014664e-02	2.62762416e-04
3.25500000e-01	2.08625204e-02	2.62595216e-04
3.26000000e-01	2.08140038e-02	2.60886739e-04
3.26500000e-01	2.07931212e-02	2.60448457e-04
3.27000000e-01	2.08169412e-02	2.61056133e-04
3.27500000e-01	2.06639094e-02	2.59039582e-04
3.28000000e-01	2.06900701e-02	2.58332681e-04
3.28500000e-01	2.07659333e-02	2.59652880e-04
3.29000000e-01	2.06851406e-02	2.59343427e-04
3.29500000e-01	2.07651004e-02	2.59674667e-04
3.30000000e-01	2.07704241e-02	2.58768767e-04
3.30500000e-01	2.07512767e-02	2.58732110e-04
3.31000000e-01	2.09984346e-02	2.60641630e-04
3.31500000e-01	2.07196269e-02	2.57430721e-04
3.32000000e-01	2.08389847e-02	2.59373945e-04
3.32500000e-01	2.06324189e-02	2.56685905e-04
3.33000000e-01	2.06979371e-02	2.57052748e-04
3.33500000e-01	2.06830488e-02	2.55930355e-04
3.34000000e-01	2.09107488e-02	2.58986253e-04
3.34500000e-01	2.04764631e-02	2.54126939e-04
3.35000000e-01	2.06099481e-02	2.54510300e-04
3.35500000e-01	2.07243858e-02	2.55974888e-04
3.36000000e-01	2.07684920e-02	2.56874787e-04
3.36500000e-01	2.07966884e-02	2.57645372e-04
3.37000000e-01	2.08794376e-02	2.57132574e-04
3.37500000e-01	2.05997181e-02	2.54475750e-04
3.38000000e-01	2.05783182e-02	2.53751353e-04
3.38500000e-01	2.07004637e-02	2.54328904e-04
3.39000000e-01	2.05583184e-02	2.53558693e-04
3.39500000e-01	2.05908361e-02	2.53016579e-04
3.40000000e-01	2.04152353e-02	2.51574830e-04
3.40500000e-01	2.05336074e-02	2.52423097e-04
3.41000000e-01	2.08473640e-02	2.54981235e-04
3.41500000e-01	2.06223439e-02	2.53121597e-04
3.42000000e-01	2.07008712e-02	2.53000147e-04
3.42500000e-01	2.05174272e-02	2.51192581e-04
3.43000000e-01	2.04336808e-02	2.49944424e-04
3.43500000e-01	2.05700351e-02	2.51739883e-04
3.44000000e-01	2.05644172e-02	2.51593782e-04
3.44500000e-01	2.06560441e-02	2.51669472e-04
3.45000000e-01	2.05026947e-02	2.50675879e-04
3.45500000e-01	2.05141996e-02	2.50216944e-04
3.46000000e-01	2.03782375e-02	2.48855811e-04
3.46500000e-01	2.03920240e-02	2.48525459e-04
3.47000000e-01	2.04742937e-02	2.48584170e-04
3.47500000e-01	2.05643547e-02	2.50340979e-04
3.48000000e-01	2.03625737e-02	2.47683946e-04
3.48500000e-01	2.05636959e-02	2.50683543e-04
3.49000000e-01	2.04379484e-02	2.48042410e-04
3.49500000e-01	2.04136379e-02	2.47635587e-04
3.50000000e-01	2.04441989e-02	2.02371356e-04
3.51000000e-01	2.05022926e-02	1.75462467e-04
3.52000000e-01	2.01579737e-02	1.72796678e-04
3.53000000e-01	2.04046212e-02	1.73808221e-04
3.54000000e-01	2.02670987e-02	1.72209282e-04
3.55000000e-01	2.03487207e-02	1.73130773e-04
3.56000000e-01	2.02897428e-02	1.73133721e-04
3.57000000e-01	2.02888262e-02	1.76391378e-04
3.58000000e-01	2.03021878e-02	1.77702839e-04
3.59000000e-01	2.01907200e-02	1.78108143e-04
3.60000000e-01	2.02253353e-02	1.79924392e-04
3.61000000e-01	2.01902280e-02	1.80199845e-04
3.62000000e-01	2.01056871e-02	1.80522820e-04
3.63000000e-01	2.02752239e-02	1.82941177e-04
3.64000000e-01	2.01254748e-02	1.81801355e-04
3.65000000e-01	2.03302663e-02	1.83974471e-04
3.66000000e-01	2.01642864e-02	1.80284596e-04
3.67000000e-01	2.01851324e-02	1.78179617e-04
3.68000000e-01	2.02196283e-02	1.77540924e-04
3.69000000e-01	2.01988741e-02	1.76030724e-04
3.70000000e-01	2.01327675e-02	1.74925570e-04
3.71000000e-01	2.00206894e-02	1.76075641e-04
3.72000000e-01	2.02998948e-02	1.79917682e-04
3.73000000e-01	2.02154109e-02	1.78962213e-04
3.74000000e-01	2.01100120e-02	1.78359812e-04
3.75000000e-01	2.01055152e-02	1.78861886e-04
3.76000000e-01	2.00384549e-02	1.77815398e-04
3.77000000e-01	2.01579188e-02	1.78879390e-04
3.78000000e-01	1.98230197e-02	1.76148072e-04
3.79000000e-01	2.01950955e-02	1.79133434e-04
3.80000000e-01	2.01220277e-02	1.78414088e-04
3.81000000e-01	2.00198448e-02	1.77600137e-04
3.82000000e-01	1.98846965e-02	1.76339583e-04
3.83000000e-01	1.99849297e-02	1.76655504e-04
3.84000000e-01	2.01279937e-02	1.78394461e-04
3.85000000e-01	1.99049498e-02	1.76439642e-04
3.86000000e-01	1.99528881e-02	1.76526746e-04
3.87000000e-01	1.98907444e-02	1.76240411e-04
3.88000000e-01	1.99113880e-02	1.76320706e-04
3.89000000e-01	1.99787461e-02	1.76620195e-04
3.90000000e-01	1.97694377e-02	1.75100689e-04
3.91000000e-01	1.98508539e-02	1.76137004e-04
3.92000000e-01	1.99246878e-02	1.75814497e-04
3.93000000e-01	1.97212418e-02	1.74410771e-04
3.94000000e-01	1.98662722e-02	1.75408091e-04
3.95000000e-01	2.00569533e-02	1.76930569e-04
3.96000000e-01	1.97929704e-02	1.74670270e-04
3.97000000e-01	1.99344472e-02	1.76245882e-04
3.98000000e-01	1.99425003e-02	1.75938279e-04
3.99000000e-01	1.99336887e-02	1.75656161e-04
4.00000000e-01	1.97544981e-02	1.74236844e-04
4.01000000e-01	1.98535366e-02	1.75196731e-04
4.02000000e-01	1.98788332e-02	1.75396506e-04
4.03000000e-01	1.98060081e-02	1.74865991e-04
4.04000000e-01	1.96503467e-02	1.73383596e-04
4.05000000e-01	1.97123253e-02	1.73922182e-04
4.06000000e-01	1.96487988e-02	1.73608954e-04
4.07000000e-01	1.97366817e-02	1.73724664e-04
4.08000000e-01	1.98273989e-02	1.74588380e-04
4.09000000e-01	1.96083382e-02	1.72679540e-04
4.10000000e-01	1.97007240e-02	1.73290384e-04
4.11000000e-01	1.96311826e-02	1.72703314e-04
4.12000000e-01	1.98014630e-02	1.74351473e-04
4.13000000e-01	1.98480392e-02	1.74527637e-04
4.14000000e-01	1.98780617e-02	1.74055202e-04
4.15000000e-01	1.97396312e-02	1.73067929e-04
4.16000000e-01	1.95457818e-02	1.71682886e-04
4.17000000e-01	1.97751601e-02	1.73654299e-04
4.18000000e-01	1.96338087e-02	1.74283930e-04
4.19000000e-01	1.97423778e-02	1.77362870e-04
4.20000000e-01	1.98082431e-02	1.78860605e-04
4.21000000e-01	1.99259062e-02	1.79933262e-04
4.22000000e-01	1.99797321e-02	1.81207568e-04
4.23000000e-01	1.96198098e-02	1.79858740e-04
4.24000000e-01	1.97474313e-02	1.81083792e-04
4.25000000e-01	1.97478331e-02	1.80628840e-04
4.26000000e-01	1.98522004e-02	1.81461893e-04
4.27000000e-01	1.98386889e-02	1.81641407e-04
4.28000000e-01	1.96976807e-02	1.81127808e-04
4.29000000e-01	1.97623005e-02	1.81732827e-04
4.30000000e-01	1.96799965e-02	1.80738981e-04
4.31000000e-01	1.97556919e-02	1.80893977e-04
4.32000000e-01	1.97464590e-02	1.81397996e-04
4.33000000e-01	1.97952236e-02	1.82094371e-04
4.34000000e-01	1.97545462e-02	1.82064643e-04
4.35000000e-01	1.96062941e-02	1.80702415e-04
4.36000000e-01	1.97066539e-02	1.81885691e-04
4.37000000e-01	1.98235038e-02	1.83056099e-04
4.38000000e-01	1.97813260e-02	1.82994929e-04
4.39000000e-01	1.96675072e-02	1.82672205e-04
4.40000000e-01	1.98068303e-02	1.83035314e-04
4.41000000e-01	1.96187660e-02	1.82699867e-04
4.42000000e-01	1.98679146e-02	1.84543757e-04
4.43000000e-01	1.97577760e-02	1.83769906e-04
4.44000000e-01	1.96677296e-02	1.82977099e-04
4.45000000e-01	1.97037628e-02	1.83550752e-04
4.46000000e-01	1.97032663e-02	1.83644332e-04
4.47000000e-01	1.97506719e-02	1.84980252e-04
4.48000000e-01	1.96230027e-02	1.83642540e-04
4.49000000e-01	1.98483556e-02	1.86066827e-04
4.50000000e-01	1.97153937e-02	1.84830718e-04
4.51000000e-01	1.96404068e-02	1.84452606e-04
4.52000000e-01	1.97489627e-02	1.85458691e-04
4.53000000e-01	1.98318693e-02	1.85981176e-04
4.54000000e-01	1.96802185e-02	1.85067846e-04
4.55000000e-01	1.96160283e-02	1.84618659e-04
4.56000000e-01	1.96421390e-02	1.85329882e-04
4.57000000e-01	1.97568378e-02	1.85790773e-04
4.58000000e-01	1.97369355e-02	1.85767855e-04
4.59000000e-01	1.96723512e-02	1.85592128e-04
4.60000000e-01	1.96664073e-02	1.85951559e-04
4.61000000e-01	1.97401726e-02	1.86528594e-04
4.62000000e-01	1.96502331e-02	1.86207209e-04
4.63000000e-01	1.96235037e-02	1.86017785e-04
4.64000000e-01	1.97522367e-02	1.86940710e-04
4.65000000e-01	1.97927211e-02	1.87584601e-04
4.66000000e-01	1.95861418e-02	1.85932082e-04
4.67000000e-01	1.98432012e-02	1.87916127e-04
4.68000000e-01	1.96680993e-02	1.87149270e-04
4.69000000e-01	1.97836963e-02	1.87429895e-04
4.70000000e-01	1.98277756e-02	1.88626584e-04
4.71000000e-01	1.97245513e-02	1.87800793e-04
4.72000000e-01	1.97791546e-02	1.87762739e-04
4.73000000e-01	1.96274731e-02	1.86201972e-04
4.74000000e-01	1.97616355e-02	1.87226790e-04
4.75000000e-01	1.97526467e-02	1.87466421e-04
4.76000000e-01	1.97614688e-02	1.87723374e-04
4.77000000e-01	1.96757865e-02	1.87196081e-04
4.78000000e-01	1.98110536e-02	1.88619893e-04
4.79000000e-01	1.98890866e-02	1.88831106e-04
4.80000000e-01	1.96435285e-02	1.87417464e-04
4.81000000e-01	1.97484761e-02	1.88049068e-04
4.82000000e-01	1.97598027e-02	1.88248344e-04
4.83000000e-01	1.97434387e-02	1.87983846e-04
4.84000000e-01	1.98562404e-02	1.89330815e-04
4.85000000e-01	1.99624812e-02	1.90299331e-04
4.86000000e-01	1.97612565e-02	1.88478224e-04
4.87000000e-01	1.98638894e-02	1.89190433e-04
4.88000000e-01	1.98284192e-02	1.89339941e-04
4.89000000e-01	1.98167538e-02	1.88960539e-04
4.90000000e-01	1.98560731e-02	1.89865893e-04
4.91000000e-01	1.97491735e-02	1.88930279e-04
4.92000000e-01	1.97875063e-02	1.89299217e-04
4.93000000e-01	1.98134646e-02	1.89357805e-04
4.94000000e-01	1.96728692e-02	1.88632175e-04
4.95000000e-01	1.98278967e-02	1.91195885e-04
4.96000000e-01	1.99147939e-02	1.97278125e-04
4.97000000e-01	1.98465580e-02	2.00228343e-04
4.98000000e-01	1.98824032e-02	2.03942188e-04
4.99000000e-01	1.97958858e-02	2.04924216e-04
5.00000000e-01	2.00904667e-02	2.10542928e-04
5.01000000e-01	2.00789870e-02	2.12299492e-04
5.02000000e-01	2.00639256e-02	2.13819694e-04
5.03000000e-01	2.01155399e-02	2.16244897e-04
5.04000000e-01	2.01017735e-02	2.17997648e-04
5.05000000e-01	2.00726125e-02	2.14635839e-04
5.06000000e-01	2.01233431e-02	2.10741057e-04
5.07000000e-01	2.00890252e-02	2.08264042e-04
5.08000000e-01	1.99005531e-02	2.04836413e-04
5.09000000e-01	2.00559782e-02	2.05627355e-04
5.10000000e-01	1.98728777e-02	2.02713976e-04
5.11000000e-01	2.01008603e-02	2.04479969e-04
5.12000000e-01	2.00212260e-02	2.03063458e-04
5.13000000e-01	2.01269906e-02	2.04034933e-04
5.14000000e-01	1.98946031e-02	2.00877379e-04
5.15000000e-01	1.99863145e-02	2.01673722e-04
5.16000000e-01	1.99306967e-02	2.00767791e-04
5.17000000e-01	1.99921915e-02	2.01020071e-04
5.18000000e-01	1.99241637e-02	2.00526636e-04
5.19000000e-01	2.01238815e-02	2.01075394e-04
5.20000000e-01	1.99753564e-02	1.99046935e-04
5.21000000e-01	2.00699654e-02	2.00020564e-04
5.22000000e-01	1.99927673e-02	1.98719677e-04
5.23000000e-01	2.01415489e-02	2.00354944e-04
5.24000000e-01	2.00585556e-02	2.00012511e-04
5.25000000e-01	1.99530080e-02	1.98476856e-04
5.26000000e-01	1.98995089e-02	1.98016355e-04
5.27000000e-01	2.01619596e-02	2.00143706e-04
5.28000000e-01	2.00568923e-02	1.99673908e-04
5.29000000e-01	2.02118526e-02	2.00777417e-04
5.30000000e-01	2.00524197e-02	1.99458254e-04
5.31000000e-01	2.00562221e-02	1.99714145e-04
5.32000000e-01	2.00513004e-02	1.99367877e-04
5.33000000e-01	2.01230271e-02	1.99896585e-04
5.34000000e-01	2.01030102e-02	2.00042550e-04
5.35000000e-01	1.99043916e-02	1.97830514e-04
5.36000000e-01	2.00553092e-02	1.99543651e-04
5.37000000e-01	2.02240420e-02	2.00808707e-04
5.38000000e-01	1.98997078e-02	1.97996545e-04
5.39000000e-01	2.00516413e-02	1.99668387e-04
5.40000000e-01	2.02241172e-02	2.00648424e-04
5.41000000e-01	2.01732323e-02	2.00428924e-04
5.42000000e-01	2.01231524e-02	1.99665222e-04
5.43000000e-01	2.01634370e-02	1.99743362e-04
5.44000000e-01	2.02807043e-02	2.00843762e-04
5.45000000e-01	2.01345206e-02	1.99970072e-04
5.46000000e-01	2.00331272e-02	1.99258302e-04
5.47000000e-01	2.00566568e-02	1.99630876e-04
5.48000000e-01	2.01616223e-02	2.00114841e-04
5.49000000e-01	2.00861457e-02	1.98871479e-04
5.50000000e-01	2.00014859e-02	1.99096558e-04
5.51000000e-01	2.01635211e-02	1.99844861e-04
5.52000000e-01	2.00600300e-02	1.98102814e-04
5.53000000e-01	2.01090452e-02	1.98549784e-04
5.54000000e-01	2.01102262e-02	1.98566437e-04
5.55000000e-01	2.04048609e-02	2.01121541e-04
5.56000000e-01	2.02324854e-02	1.99288884e-04
5.57000000e-01	2.02060211e-02	1.99535147e-04
5.58000000e-01	2.01704709e-02	1.99782634e-04
5.59000000e-01	2.01889185e-02	1.99014010e-04
5.60000000e-01	2.00631675e-02	1.98216619e-04
5.61000000e-01	2.01299607e-02	1.98222061e-04
5.62000000e-01	2.02773110e-02	1.99626847e-04
5.63000000e-01	2.00301297e-02	1.97687796e-04
5.64000000e-01	2.01982170e-02	1.99018742e-04
5.65000000e-01	2.01305495e-02	1.98375223e-04
5.66000000e-01	2.02074551e-02	1.99405277e-04
5.67000000e-01	2.01572883e-02	1.98982887e-04
5.68000000e-01	2.01054622e-02	1.98260710e-04
5.69000000e-01	2.01618624e-02	1.98375451e-04
5.70000000e-01	2.01246839e-02	1.97722228e-04
5.71000000e-01	2.00135119e-02	1.97091955e-04
5.72000000e-01	2.02234012e-02	1.99072490e-04
5.73000000e-01	2.02329964e-02	2.00073405e-04
5.74000000e-01	2.01236910e-02	1.98634705e-04
5.75000000e-01	2.02279945e-02	1.99649057e-04
5.76000000e-01	2.00710769e-02	1.98148415e-04
5.77000000e-01	1.99937763e-02	1.96968612e-04
5.78000000e-01	2.00613110e-02	1.98266317e-04
5.79000000e-01	2.01232198e-02	1.98163810e-04
5.80000000e-01	2.02171276e-02	1.99509721e-04
5.81000000e-01	2.02144160e-02	1.99228954e-04
5.82000000e-01	2.00936959e-02	1.97932200e-04
5.83000000e-01	2.01703957e-02	1.99402700e-04
5.84000000e-01	2.03143375e-02	2.00043532e-04
5.85000000e-01	2.02085522e-02	1.99474223e-04
5.86000000e-01	2.02653652e-02	2.00433714e-04
5.87000000e-01	2.02730951e-02	2.00265945e-04
5.88000000e-01	2.02722773e-02	1.99965370e-04
5.89000000e-01	2.01762617e-02	1.99362641e-04
5.90000000e-01	2.01257779e-02	1.98665229e-04
5.91000000e-01	2.00548504e-02	1.98542858e-04
5.92000000e-01	2.02164217e-02	1.99381452e-04
5.93000000e-01	2.00672051e-02	1.99003397e-04
5.94000000e-01	2.03084220e-02	2.00646494e-04
5.95000000e-01	2.00655967e-02	1.98658167e-04
5.96000000e-01	2.02167520e-02	2.00436677e-04
5.97000000e-01	2.01885857e-02	1.99272664e-04
5.98000000e-01	2.02069634e-02	1.99859651e-04
5.99000000e-01	2.02993341e-02	2.00698240e-04
6.00000000e-01	2.02275212e-02	1.99720458e-04
6.01000000e-01	2.02296250e-02	2.00187382e-04
6.02000000e-01	2.03188400e-02	2.00789264e-04
6.03000000e-01	2.02958171e-02	2.00522404e-04
6.04000000e-01	1.99996556e-02	1.98275571e-04
6.05000000e-01	2.01569590e-02	1.99374208e-04
6.06000000e-01	2.01703963e-02	1.99567689e-04
6.07000000e-01	2.01884556e-02	2.00254299e-04
6.08000000e-01	2.03355880e-02	2.01007131e-04
6.09000000e-01	2.01227483e-02	1.99034706e-04
6.10000000e-01	2.01298728e-02	1.98983246e-04
6.11000000e-01	2.01594587e-02	1.99500396e-04
6.12000000e-01	2.03103386e-02	2.01025470e-04
6.13000000e-01	2.02530423e-02	2.00452612e-04
6.14000000e-01	2.02329749e-02	2.00787084e-04
6.15000000e-01	1.99336254e-02	1.97745631e-04
6.16000000e-01	2.01611134e-02	1.99953612e-04
6.17000000e-01	2.02873192e-02	2.00837466e-04
6.18000000e-01	2.02227016e-02	2.00207162e-04
6.19000000e-01	2.02378865e-02	1.99661719e-04
6.20000000e-01	2.01760141e-02	1.99243901e-04
6.21000000e-01	2.01287687e-02	1.98476676e-04
6.22000000e-01	2.01657895e-02	1.98947331e-04
6.23000000e-01	2.02870653e-02	1.99980766e-04
6.24000000e-01	2.01291050e-02	1.97541307e-04
6.25000000e-01	2.01906675e-02	1.97991491e-04
6.26000000e-01	2.01030758e-02	1.97515950e-04
6.27000000e-01	2.02172944e-02	1.99097024e-04
6.28000000e-01	2.01308929e-02	1.98243333e-04
6.29000000e-01	2.00277056e-02	1.96784436e-04
6.30000000e-01	2.01557073e-02	1.97905427e-04
6.31000000e-01	2.01189775e-02	1.97612226e-04
6.32000000e-01	2.01561001e-02	1.98191107e-04
6.33000000e-01	2.01363188e-02	1.98138788e-04
6.34000000e-01	2.01045361e-02	2.03259563e-04
6.35000000e-01	2.02120863e-02	2.09825302e-04
6.36000000e-01	2.02091660e-02	2.13024419e-04
6.37000000e-01	2.00985816e-02	2.15609610e-04
6.38000000e-01	2.02626998e-02	2.20466884e-04
6.39000000e-01	2.02530861e-02	2.22629394e-04
6.40000000e-01	2.01581722e-02	2.24822470e-04
6.41000000e-01	2.04649372e-02	2.29460617e-04
6.42000000e-01	2.05110463e-02	2.33111088e-04
6.43000000e-01	2.02528863e-02	2.30765086e-04
6.44000000e-01	2.03940979e-02	2.23441316e-04
6.45000000e-01	2.03359953e-02	2.20178223e-04
6.46000000e-01	2.03563178e-02	2.17891734e-04
6.47000000e-01	2.02883715e-02	2.16192953e-04
6.48000000e-01	2.02238907e-02	2.13732670e-04
6.49000000e-01	2.03517945e-02	2.13915117e-04
6.50000000e-01	2.01096079e-02	2.09934634e-04
6.51000000e-01	2.01697417e-02	2.10624387e-04
6.52000000e-01	2.02300968e-02	2.09723208e-04
6.53000000e-01	2.02330412e-02	2.09360546e-04
6.54000000e-01	2.01929606e-02	2.08184839e-04
6.55000000e-01	2.02097121e-02	2.07667176e-04
6.56000000e-01	2.03167511e-02	2.08524306e-04
6.57000000e-01	2.02186622e-02	2.07407477e-04
6.58000000e-01	2.02052604e-02	2.07714308e-04
6.59000000e-01	2.02415255e-02	2.07146523e-04
6.60000000e-01	2.01599018e-02	2.06232745e-04
6.61000000e-01	2.00208167e-02	2.04227384e-04
6.62000000e-01	2.02364414e-02	2.07043912e-04
6.63000000e-01	2.01556876e-02	2.06504122e-04
6.64000000e-01	2.00112805e-02	2.04326734e-04
6.65000000e-01	2.02379884e-02	2.06797122e-04
6.66000000e-01	2.01319160e-02	2.05335632e-04
6.67000000e-01	1.99151553e-02	2.02418365e-04
6.68000000e-01	2.02398699e-02	2.06050738e-04
6.69000000e-01	2.02326732e-02	2.06040567e-04
6.70000000e-01	1.98876891e-02	2.02237454e-04
6.71000000e-01	1.99643068e-02	2.03352398e-04
6.72000000e-01	2.01458887e-02	2.04367521e-04
6.73000000e-01	1.99408750e-02	2.02800455e-04
6.74000000e-01	2.00991786e-02	2.04326217e-04
6.75000000e-01	1.99799218e-02	2.02714860e-04
6.76000000e-01	2.01918881e-02	2.05437882e-04
6.77000000e-01	1.99932573e-02	2.02922552e-04
6.78000000e-01	1.98475524e-02	2.01186897e-04
6.79000000e-01	1.97539919e-02	2.00706164e-04
6.80000000e-01	1.97577964e-02	2.00855644e-04
6.81000000e-01	2.00600339e-02	2.03352784e-04
6.82000000e-01	1.98081770e-02	2.01478108e-04
6.83000000e-01	1.97875355e-02	2.00442110e-04
6.84000000e-01	1.98200199e-02	2.01261573e-04
6.85000000e-01	1.98148840e-02	2.00761574e-04
6.86000000e-01	1.97808295e-02	2.00410152e-04
6.87000000e-01	1.99376680e-02	2.02122926e-04
6.88000000e-01	1.95780592e-02	1.98584255e-04
6.89000000e-01	1.97287117e-02	1.99740532e-04
6.90000000e-01	1.97823748e-02	2.00603191e-04
6.91000000e-01	1.97985502e-02	2.00593513e-04
6.92000000e-01	1.96215864e-02	1.99070271e-04
6.93000000e-01	1.96287820e-02	1.99216981e-04
6.94000000e-01	1.97725126e-02	2.00801731e-04
6.95000000e-01	1.95145393e-02	1.97659407e-04
6.96000000e-01	1.94228102e-02	1.97433793e-04
6.97000000e-01	1.95976091e-02	1.98440453e-04
6.98000000e-01	1.96767237e-02	1.99529718e-04
6.99000000e-01	1.96248116e-02	1.99002002e-04
7.00000000e-01	1.94950800e-02	1.96976028e-04
7.01000000e-01	1.95415690e-02	1.98390276e-04
7.02000000e-01	1.96543454e-02	1.98859701e-04
7.03000000e-01	1.94754993e-02	1.97316542e-04
7.04000000e-01	1.93840730e-02	1.96506468e-04
7.05000000e-01	1.96381556e-02	1.99170985e-04
7.06000000e-01	1.95132806e-02	1.97419292e-04
7.07000000e-01	1.92910543e-02	1.95323789e-04
7.08000000e-01	1.95249627e-02	1.97004011e-04
7.09000000e-01	1.92311289e-02	1.94475402e-04
7.10000000e-01	1.92852643e-02	1.94948893e-04
7.11000000e-01	1.93267924e-02	1.95928761e-04
7.12000000e-01	1.90998720e-02	1.92769719e-04
7.13000000e-01	1.91992220e-02	1.94585682e-04
7.14000000e-01	1.89976446e-02	1.92714663e-04
7.15000000e-01	1.92386433e-02	1.95074784e-04
7.16000000e-01	1.90730607e-02	1.93270455e-04
7.17000000e-01	1.91016336e-02	1.93917105e-04
7.18000000e-01	1.90416293e-02	1.92982353e-04
7.19000000e-01	1.92521029e-02	1.95522261e-04
7.20000000e-01	1.90541869e-02	1.93090062e-04
7.21000000e-01	1.91823520e-02	1.94930635e-04
7.22000000e-01	1.91536308e-02	1.94142820e-04
7.23000000e-01	1.89936099e-02	1.92904085e-04
7.24000000e-01	1.89369507e-02	1.92024784e-04
7.25000000e-01	1.89593592e-02	1.91850285e-04
7.26000000e-01	1.88844547e-02	1.91214609e-04
7.27000000e-01	1.89758262e-02	1.92455852e-04
7.28000000e-01	1.90392649e-02	1.93165945e-04
7.29000000e-01	1.89314935e-02	1.92124268e-04
7.30000000e-01	1.88909125e-02	1.91743742e-04
7.31000000e-01	1.87424254e-02	1.90492019e-04
7.32000000e-01	1.87101140e-02	1.90257445e-04
7.33000000e-01	1.88098243e-02	1.90795465e-04
7.34000000e-01	1.88630109e-02	1.91000563e-04
7.35000000e-01	1.88056189e-02	1.90188410e-04
7.36000000e-01	1.87960030e-02	1.89629148e-04
7.37000000e-01	1.87567237e-02	1.89859347e-04
7.38000000e-01	1.87797061e-02	1.89184540e-04
7.39000000e-01	1.87658750e-02	1.88862805e-04
7.40000000e-01	1.85810130e-02	1.87128286e-04
7.41000000e-01	1.85617203e-02	1.87166811e-04
7.42000000e-01	1.85677226e-02	1.86634101e-04
7.43000000e-01	1.85538862e-02	1.86501038e-04
7.44000000e-01	1.86210304e-02	1.86922747e-04
7.45000000e-01	1.83667816e-02	1.84294127e-04
7.46000000e-01	1.84687438e-02	1.85185830e-04
7.47000000e-01	1.86327477e-02	1.87275547e-04
7.48000000e-01	1.86395805e-02	1.87349991e-04
7.49000000e-01	1.85365387e-02	1.86555733e-04
7.50000000e-01	1.85023597e-02	1.85924652e-04
7.51000000e-01	1.84328830e-02	1.85627610e-04
7.52000000e-01	1.84497865e-02	1.85880429e-04
7.53000000e-01	1.85298118e-02	1.85784102e-04
7.54000000e-01	1.84730003e-02	1.85770483e-04
7.55000000e-01	1.83407442e-02	1.84349353e-04
7.56000000e-01	1.82578904e-02	1.84056345e-04
7.57000000e-01	1.82011162e-02	1.83748411e-04
7.58000000e-01	1.81917052e-02	1.83360790e-04
7.59000000e-01	1.83254796e-02	1.84157603e-04
7.60000000e-01	1.83865549e-02	1.84388956e-04
7.61000000e-01	1.81505667e-02	1.81998013e-04
7.62000000e-01	1.82003786e-02	1.82058015e-04
7.63000000e-01	1.80790392e-02	1.81333564e-04
7.64000000e-01	1.81915879e-02	1.81209304e-04
7.65000000e-01	1.80592945e-02	1.80104768e-04
7.66000000e-01	1.82369954e-02	1.81883185e-04
7.67000000e-01	1.80502003e-02	1.79507408e-04
7.68000000e-01	1.79872263e-02	1.79873297e-04
7.69000000e-01	1.81349442e-02	1.81284003e-04
7.70000000e-01	1.81654381e-02	1.81336015e-04
7.71000000e-01	1.80271264e-02	1.79352625e-04
7.72000000e-01	1.80606287e-02	1.85515904e-04
7.73000000e-01	1.79959199e-02	1.91281015e-04
7.74000000e-01	1.80934649e-02	1.95752607e-04
7.75000000e-01	1.79987179e-02	1.98032225e-04
7.76000000e-01	1.80332066e-02	2.01391925e-04
7.77000000e-01	1.76586721e-02	2.01257226e-04
7.78000000e-01	1.80294344e-02	2.07476919e-04
7.79000000e-01	1.79311258e-02	2.08199800e-04
7.80000000e-01	1.79370082e-02	2.11494709e-04
7.81000000e-01	1.78523680e-02	2.12350944e-04
7.82000000e-01	1.78021714e-02	2.14860943e-04
7.83000000e-01	1.79496729e-02	2.18363307e-04
7.84000000e-01	1.78123511e-02	2.18745241e-04
7.85000000e-01	1.78930638e-02	2.21895979e-04
7.86000000e-01	1.78330614e-02	2.23930765e-04
7.87000000e-01	1.78302357e-02	2.25557746e-04
7.88000000e-01	1.76757587e-02	2.26827011e-04
7.89000000e-01	1.78091743e-02	2.29909774e-04
7.90000000e-01	1.78515209e-02	2.32550094e-04
7.91000000e-01	1.76249759e-02	2.32937182e-04
7.92000000e-01	1.75764418e-02	2.34579793e-04
7.93000000e-01	1.76671428e-02	2.37103552e-04
7.94000000e-01	1.78700663e-02	2.41926646e-04
7.95000000e-01	1.77359705e-02	2.43931585e-04
7.96000000e-01	1.77117803e-02	2.46513214e-04
7.97000000e-01	1.77499147e-02	2.49128719e-04
7.98000000e-01	1.74107078e-02	2.46924911e-04
7.99000000e-01	1.74894812e-02	2.51144912e-04
8.00000000e-01	1.75606404e-02	2.54575024e-04
8.01000000e-01	1.73519895e-02	2.54680531e-04
8.02000000e-01	1.75356640e-02	2.59812464e-04
8.03000000e-01	1.74998275e-02	2.61050789e-04
8.04000000e-01	1.75294037e-02	2.65275036e-04
8.05000000e-01	1.75917249e-02	2.67278207e-04
8.06000000e-01	1.74295702e-02	2.68632129e-04
8.07000000e-01	1.76323005e-02	2.74916293e-04
8.08000000e-01	1.73369207e-02	2.73911555e-04
8.09000000e-01	1.74721275e-02	2.78494136e-04
8.10000000e-01	1.73955126e-02	2.81017449e-04
8.11000000e-01	1.74218835e-02	2.83506362e-04
8.12000000e-01	1.70370082e-02	2.80708269e-04
8.13000000e-01	1.72276015e-02	2.87935456e-04
8.14000000e-01	1.76425144e-02	2.96083789e-04
8.15000000e-01	1.73296272e-02	2.95824186e-04
8.16000000e-01	1.70894914e-02	2.94417652e-04
8.17000000e-01	1.70778357e-02	2.98699815e-04
8.18000000e-01	1.70886317e-02	3.03430838e-04
8.19000000e-01	1.72991970e-02	3.10160949e-04
8.20000000e-01	1.72702022e-02	3.12566680e-04
8.21000000e-01	1.70499348e-02	3.15534718e-04
8.22000000e-01	1.68881689e-02	3.16104864e-04
8.23000000e-01	1.71996023e-02	3.26841066e-04
8.24000000e-01	1.69167534e-02	3.25166437e-04
8.25000000e-01	1.70489974e-02	3.31803116e-04
8.26000000e-01	1.69955407e-02	3.34921311e-04
8.27000000e-01	1.68876853e-02	3.37177115e-04
8.28000000e-01	1.67692861e-02	3.41477555e-04
8.29000000e-01	1.70649059e-02	3.52198812e-04
8.30000000e-01	1.69666220e-02	3.55156322e-04
8.31000000e-01	1.68743678e-02	3.58916929e-04
8.32000000e-01	1.71149281e-02	3.69957306e-04
8.33000000e-01	1.71076317e-02	3.76823505e-04
8.34000000e-01	1.69017930e-02	3.76636482e-04
8.35000000e-01	1.67054635e-02	3.80090012e-04
8.36000000e-01	1.67532527e-02	3.88031483e-04
8.37000000e-01	1.65725447e-02	3.94066091e-04
8.38000000e-01	1.67924442e-02	4.06579725e-04
8.39000000e-01	1.66797001e-02	4.12374514e-04
8.40000000e-01	1.66451671e-02	4.19514955e-04
8.41000000e-01	1.65591620e-02	4.29085073e-04
8.42000000e-01	1.64307197e-02	4.32367126e-04
8.43000000e-01	1.64038275e-02	4.44670428e-04
8.44000000e-01	1.64117875e-02	4.52871091e-04
8.45000000e-01	1.66840767e-02	4.74772370e-04
8.46000000e-01	1.65096827e-02	4.80952604e-04
8.47000000e-01	1.67258781e-02	5.00814553e-04
8.48000000e-01	1.68648475e-02	5.26567342e-04
8.49000000e-01	1.63988009e-02	5.20447969e-04
8.50000000e-01	1.63045825e-02	5.39130289e-04
8.51000000e-01	1.69441047e-02	5.86776115e-04
8.52000000e-01	1.67102850e-02	5.93702711e-04
8.53000000e-01	1.61350160e-02	6.01374929e-04
8.54000000e-01	1.62136893e-02	6.24073875e-04
8.55000000e-01	1.63537546e-02	6.54007554e-04
8.56000000e-01	1.54420108e-02	6.47236308e-04
8.57000000e-01	1.64144905e-02	6.94139112e-04
8.58000000e-01	1.62323532e-02	7.12181258e-04
8.59000000e-01	1.61241463e-02	7.21325757e-04
8.60000000e-01	1.69670299e-02	7.90598366e-04
8.61000000e-01	1.59535055e-02	7.69007374e-04
8.62000000e-01	1.56472348e-02	7.89513624e-04
8.63000000e-01	1.56497407e-02	8.13800344e-04
8.64000000e-01	1.68253174e-02	9.19600074e-04
8.65000000e-01	1.64975020e-02	9.37844759e-04
8.66000000e-01	1.70084000e-02	9.96493825e-04
8.67000000e-01	1.62264314e-02	1.01266185e-03
8.68000000e-01	1.65461354e-02	1.12751173e-03
8.69000000e-01	1.62218541e-02	1.17755093e-03
8.70000000e-01	1.72628667e-02	1.32560102e-03
8.71000000e-01	1.59380435e-02	1.40007561e-03
8.72000000e-01	1.75025666e-02	1.73006677e-03
8.73000000e-01	1.69692922e-02	1.95290449e-03
8.74000000e-01	1.65970788e-02	2.53634091e-03
8.75000000e-01	1.50263982e-02	4.75997918e-03
