% Filename : SNCHoHie_2_00048_00009.h5
% Date & Time : 30-Oct-2025 18:15:10
% X-ray Energy (keV) : 13.30001
% Exposure Time (s) : 0.500
% Beam Center : 1461.24000, 208.98300
% Sample to Detector Distance (SDD) (mm) : 1990.750
% Detector Pixel Size (mm) : 0.075
% Photodiode Value : 141581.000
% I0 of Sample : 0
% I0 of Standard : 1
% 
% q(A^-1)   I(q)    I(q)_SE
0.00000000e+00	7.65641091e-03	4.77460393e-03
2.50000000e-04	0.00000000e+00	0.00000000e+00
5.00000000e-04	0.00000000e+00	0.00000000e+00
7.50000000e-04	0.00000000e+00	0.00000000e+00
1.00000000e-03	0.00000000e+00	0.00000000e+00
1.25000000e-03	0.00000000e+00	0.00000000e+00
1.50000000e-03	0.00000000e+00	0.00000000e+00
1.75000000e-03	0.00000000e+00	0.00000000e+00
2.00000000e-03	0.00000000e+00	0.00000000e+00
2.25000000e-03	0.00000000e+00	0.00000000e+00
2.50000000e-03	0.00000000e+00	0.00000000e+00
2.75000000e-03	0.00000000e+00	0.00000000e+00
3.00000000e-03	0.00000000e+00	0.00000000e+00
3.25000000e-03	7.07692169e+02	6.93662872e+02
3.50000000e-03	5.38568575e+01	2.69809179e+01
3.75000000e-03	8.39578415e+01	5.22791377e+01
4.00000000e-03	6.45535011e+01	3.76710871e+01
4.25000000e-03	3.86154529e+01	2.21430854e+01
4.50000000e-03	3.78060622e+01	1.81144264e+01
4.75000000e-03	3.20730285e+01	1.35085499e+01
5.00000000e-03	2.53174545e+01	1.04483590e+01
5.25000000e-03	2.17973385e+01	9.46115831e+00
5.50000000e-03	1.82059520e+01	8.46624186e+00
5.75000000e-03	1.50118871e+01	7.02165235e+00
6.00000000e-03	1.17932714e+01	5.26569530e+00
6.25000000e-03	1.03276143e+01	4.50035973e+00
6.50000000e-03	9.03101009e+00	3.87215175e+00
6.75000000e-03	7.76428137e+00	3.14487383e+00
7.00000000e-03	6.66233009e+00	2.60399850e+00
7.25000000e-03	5.84942764e+00	2.33185600e+00
7.50000000e-03	5.28246780e+00	2.11953102e+00
7.75000000e-03	4.30517532e+00	1.69030490e+00
8.00000000e-03	3.86015302e+00	1.55464526e+00
8.25000000e-03	3.27887891e+00	1.35059853e+00
8.50000000e-03	2.78747853e+00	1.13351313e+00
8.75000000e-03	2.50994653e+00	9.97719072e-01
9.00000000e-03	2.25292322e+00	8.76341988e-01
9.25000000e-03	1.98874563e+00	7.57222087e-01
9.50000000e-03	1.82157982e+00	6.83080508e-01
9.75000000e-03	1.66509554e+00	6.16414719e-01
1.00000000e-02	1.41737136e+00	5.03750271e-01
1.02500000e-02	9.94642795e-01	3.41907213e-01
1.05000000e-02	1.16187649e+00	4.09491594e-01
1.07500000e-02	1.09493140e+00	3.96032999e-01
1.10000000e-02	9.53695728e-01	3.35631559e-01
1.12500000e-02	8.87124409e-01	3.21426358e-01
1.15000000e-02	7.91581220e-01	2.78855340e-01
1.17500000e-02	7.14441006e-01	2.55998955e-01
1.20000000e-02	7.22539136e-01	2.55702725e-01
1.22500000e-02	6.82814303e-01	2.38828548e-01
1.25000000e-02	6.21157502e-01	2.14494328e-01
1.27500000e-02	5.82932950e-01	1.94938617e-01
1.30000000e-02	5.29433614e-01	1.67939113e-01
1.32500000e-02	4.94623991e-01	1.59186227e-01
1.35000000e-02	4.75190685e-01	1.51675639e-01
1.37500000e-02	4.19819341e-01	1.29838027e-01
1.40000000e-02	3.73442107e-01	1.11820253e-01
1.42500000e-02	3.48267678e-01	1.04678297e-01
1.45000000e-02	3.48462127e-01	1.12256480e-01
1.47500000e-02	3.24642699e-01	1.02505358e-01
1.50000000e-02	3.01126172e-01	9.01518507e-02
1.52500000e-02	2.77252745e-01	8.20726045e-02
1.55000000e-02	2.19857136e-01	6.33908661e-02
1.57500000e-02	2.51497308e-01	7.06661320e-02
1.60000000e-02	2.37165492e-01	6.68689305e-02
1.62500000e-02	2.25063648e-01	6.25303684e-02
1.65000000e-02	1.98663715e-01	5.41279501e-02
1.67500000e-02	1.87188855e-01	4.91189001e-02
1.70000000e-02	1.85724584e-01	5.04838986e-02
1.72500000e-02	1.75456584e-01	4.89521674e-02
1.75000000e-02	1.63524377e-01	4.52762848e-02
1.77500000e-02	1.54445263e-01	3.98053785e-02
1.80000000e-02	1.54254712e-01	3.92508797e-02
1.82500000e-02	1.43667952e-01	3.55080862e-02
1.85000000e-02	1.41383345e-01	3.62045689e-02
1.87500000e-02	1.33037487e-01	3.06632885e-02
1.90000000e-02	1.25517177e-01	2.79338431e-02
1.92500000e-02	1.18566564e-01	2.68122392e-02
1.95000000e-02	1.15727430e-01	2.64136118e-02
1.97500000e-02	1.11369335e-01	2.60221620e-02
2.00000000e-02	1.07981634e-01	2.43869846e-02
2.02500000e-02	1.03601670e-01	2.38101103e-02
2.05000000e-02	9.60570185e-02	2.05940214e-02
2.07500000e-02	9.82857303e-02	2.13762522e-02
2.10000000e-02	9.37043442e-02	1.96907427e-02
2.12500000e-02	9.10914167e-02	1.78178259e-02
2.15000000e-02	8.75207417e-02	1.69493359e-02
2.17500000e-02	8.61878350e-02	1.69232080e-02
2.20000000e-02	8.47663148e-02	1.61253868e-02
2.22500000e-02	7.53298686e-02	1.38470676e-02
2.25000000e-02	8.05834852e-02	1.48261688e-02
2.27500000e-02	7.72772130e-02	1.42868444e-02
2.30000000e-02	7.70289028e-02	1.46596215e-02
2.32500000e-02	7.47382638e-02	1.47568695e-02
2.35000000e-02	7.45403250e-02	1.38939666e-02
2.37500000e-02	7.04262255e-02	1.28797235e-02
2.40000000e-02	6.59685001e-02	1.17235877e-02
2.42500000e-02	6.74130788e-02	1.19436561e-02
2.45000000e-02	6.80521551e-02	1.17989235e-02
2.47500000e-02	6.41964915e-02	1.08260008e-02
2.50000000e-02	6.33498226e-02	1.01996870e-02
2.52500000e-02	6.08030968e-02	9.64492000e-03
2.55000000e-02	6.02015766e-02	9.52249041e-03
2.57500000e-02	5.93663729e-02	9.77762337e-03
2.60000000e-02	5.85912342e-02	8.95649419e-03
2.62500000e-02	5.63958856e-02	8.62883073e-03
2.65000000e-02	5.68436177e-02	8.23362855e-03
2.67500000e-02	5.37159619e-02	7.74560345e-03
2.70000000e-02	5.45129918e-02	8.06771890e-03
2.72500000e-02	5.25651893e-02	7.28624470e-03
2.75000000e-02	5.17827201e-02	6.85822522e-03
2.77500000e-02	5.25851597e-02	6.76998999e-03
2.80000000e-02	5.00858882e-02	6.42225724e-03
2.82500000e-02	4.99348620e-02	6.77010092e-03
2.85000000e-02	4.98691325e-02	6.20815148e-03
2.87500000e-02	4.73290150e-02	5.95245162e-03
2.90000000e-02	4.68573833e-02	5.74084106e-03
2.92500000e-02	4.65192301e-02	5.34402255e-03
2.95000000e-02	4.50438549e-02	4.89096019e-03
2.97500000e-02	4.54551773e-02	5.25023288e-03
3.00000000e-02	4.53982857e-02	4.96509816e-03
3.02500000e-02	4.47879898e-02	5.15608272e-03
3.05000000e-02	4.19379474e-02	4.42138620e-03
3.07500000e-02	4.33766672e-02	4.74783413e-03
3.10000000e-02	4.25509383e-02	4.51198423e-03
3.12500000e-02	4.17463985e-02	4.51363639e-03
3.15000000e-02	4.14795315e-02	4.25435159e-03
3.17500000e-02	4.06337906e-02	4.03632094e-03
3.20000000e-02	3.94787264e-02	3.97118135e-03
3.22500000e-02	4.01703756e-02	4.10172780e-03
3.25000000e-02	3.90828107e-02	3.71263380e-03
3.27500000e-02	3.88973499e-02	3.75238653e-03
3.30000000e-02	3.78229243e-02	3.40537250e-03
3.32500000e-02	3.82393702e-02	3.51533360e-03
3.35000000e-02	3.73723700e-02	3.46518560e-03
3.37500000e-02	3.67101816e-02	3.25206103e-03
3.40000000e-02	3.66788437e-02	3.08228322e-03
3.42500000e-02	3.62572541e-02	3.17507682e-03
3.45000000e-02	3.49903979e-02	3.06135293e-03
3.47500000e-02	3.51331793e-02	3.07918807e-03
3.50000000e-02	3.42176306e-02	2.74751285e-03
3.52500000e-02	3.47845270e-02	2.78607529e-03
3.55000000e-02	3.31766681e-02	2.61168918e-03
3.57500000e-02	3.41871450e-02	2.61677832e-03
3.60000000e-02	3.31238249e-02	2.58374681e-03
3.62500000e-02	3.16435596e-02	2.26132020e-03
3.65000000e-02	3.32401235e-02	2.47909348e-03
3.67500000e-02	3.27273270e-02	2.39283310e-03
3.70000000e-02	3.22862800e-02	2.37509312e-03
3.72500000e-02	3.25175933e-02	2.47832702e-03
3.75000000e-02	3.14989498e-02	2.17623141e-03
3.77500000e-02	3.11455027e-02	2.26366448e-03
3.80000000e-02	3.07937787e-02	2.10533697e-03
3.82500000e-02	3.08104810e-02	1.99341764e-03
3.85000000e-02	3.07582068e-02	2.06577280e-03
3.87500000e-02	2.98514139e-02	2.03143784e-03
3.90000000e-02	3.06555047e-02	2.05005351e-03
3.92500000e-02	2.87945277e-02	1.92858523e-03
3.95000000e-02	3.05535175e-02	1.98566143e-03
3.97500000e-02	2.93920340e-02	1.93673191e-03
4.00000000e-02	2.85147383e-02	1.74984710e-03
4.02500000e-02	2.89334837e-02	1.75800488e-03
4.05000000e-02	2.99428236e-02	1.82405692e-03
4.07500000e-02	2.83956996e-02	1.62033397e-03
4.10000000e-02	2.86898071e-02	1.70770325e-03
4.12500000e-02	2.84451212e-02	1.70366413e-03
4.15000000e-02	2.81410868e-02	1.50148282e-03
4.17500000e-02	2.80212804e-02	1.57242633e-03
4.20000000e-02	2.75331656e-02	1.57067256e-03
4.22500000e-02	2.73896023e-02	1.52425243e-03
4.25000000e-02	2.74967664e-02	1.54373336e-03
4.27500000e-02	2.72034311e-02	1.53976559e-03
4.30000000e-02	2.72219121e-02	1.46765833e-03
4.32500000e-02	2.74110284e-02	1.49448387e-03
4.35000000e-02	2.69015540e-02	1.47068312e-03
4.37500000e-02	2.73393944e-02	1.39603669e-03
4.40000000e-02	2.71799530e-02	1.41818307e-03
4.42500000e-02	2.71243403e-02	1.37841018e-03
4.45000000e-02	2.71528811e-02	1.36325482e-03
4.47500000e-02	2.63190805e-02	1.30655822e-03
4.50000000e-02	2.53793736e-02	1.29587201e-03
4.52500000e-02	2.60434286e-02	1.34796952e-03
4.55000000e-02	2.76356055e-02	1.36164462e-03
4.57500000e-02	2.65512541e-02	1.28853877e-03
4.60000000e-02	2.55901916e-02	1.23563099e-03
4.62500000e-02	2.54161872e-02	1.20646828e-03
4.65000000e-02	2.63987641e-02	1.21735194e-03
4.67500000e-02	2.56857294e-02	1.21439818e-03
4.70000000e-02	2.51938992e-02	1.19665660e-03
4.72500000e-02	2.61105142e-02	1.23635808e-03
4.75000000e-02	2.47465976e-02	1.14499696e-03
4.77500000e-02	2.49895077e-02	1.13524281e-03
4.80000000e-02	2.47637589e-02	1.13654575e-03
4.82500000e-02	2.49032585e-02	1.09254695e-03
4.85000000e-02	2.56474805e-02	1.16575740e-03
4.87500000e-02	2.51418606e-02	1.15030781e-03
4.90000000e-02	2.52542499e-02	1.14226193e-03
4.92500000e-02	2.51631939e-02	1.12332129e-03
4.95000000e-02	2.45708066e-02	1.07103308e-03
4.97500000e-02	2.49821128e-02	1.12028604e-03
5.00000000e-02	2.47145972e-02	1.08080911e-03
5.02500000e-02	2.47689866e-02	1.06514188e-03
5.05000000e-02	2.45134977e-02	1.04720232e-03
5.07500000e-02	2.40744639e-02	1.05671408e-03
5.10000000e-02	2.43029850e-02	1.05462227e-03
5.12500000e-02	2.37179040e-02	1.01549857e-03
5.15000000e-02	2.50457935e-02	1.09336398e-03
5.17500000e-02	2.31148649e-02	9.92698152e-04
5.20000000e-02	2.38845927e-02	1.01110080e-03
5.22500000e-02	2.40806001e-02	1.03847188e-03
5.25000000e-02	2.34741668e-02	9.85392359e-04
5.27500000e-02	2.32371229e-02	9.69606200e-04
5.30000000e-02	2.31936722e-02	9.75833337e-04
5.32500000e-02	2.39056680e-02	9.91785928e-04
5.35000000e-02	2.33254984e-02	9.67137296e-04
5.37500000e-02	2.36457160e-02	9.60626863e-04
5.40000000e-02	2.33768528e-02	9.61973389e-04
5.42500000e-02	2.33312733e-02	9.38652345e-04
5.45000000e-02	2.32995597e-02	9.61606433e-04
5.47500000e-02	2.38012378e-02	9.69941792e-04
5.50000000e-02	2.29725745e-02	9.42114929e-04
5.52500000e-02	2.27374703e-02	9.02107004e-04
5.55000000e-02	2.35556688e-02	9.29411936e-04
5.57500000e-02	2.28083569e-02	9.17587281e-04
5.60000000e-02	2.25775726e-02	8.94864326e-04
5.62500000e-02	2.30214673e-02	9.32506970e-04
5.65000000e-02	2.30287209e-02	9.17944896e-04
5.67500000e-02	2.22721618e-02	8.79980372e-04
5.70000000e-02	2.26387754e-02	8.96108431e-04
5.72500000e-02	2.28516131e-02	8.79969312e-04
5.75000000e-02	2.27479254e-02	8.88401482e-04
5.77500000e-02	2.22654119e-02	8.59914582e-04
5.80000000e-02	2.21826772e-02	8.64553988e-04
5.82500000e-02	2.21054164e-02	8.58731703e-04
5.85000000e-02	2.25072711e-02	8.69779664e-04
5.87500000e-02	2.23902283e-02	8.66039372e-04
5.90000000e-02	2.24779910e-02	8.67814656e-04
5.92500000e-02	2.25782687e-02	8.68331235e-04
5.95000000e-02	2.22259537e-02	8.48885761e-04
5.97500000e-02	2.22575551e-02	8.61116519e-04
6.00000000e-02	2.24656460e-02	8.53467133e-04
6.02500000e-02	2.17884561e-02	8.32865879e-04
6.05000000e-02	2.17690801e-02	8.19583088e-04
6.07500000e-02	2.23627942e-02	8.52977466e-04
6.10000000e-02	2.21513494e-02	8.46505760e-04
6.12500000e-02	2.27406479e-02	8.50058543e-04
6.15000000e-02	2.23715852e-02	8.37920642e-04
6.17500000e-02	2.21057726e-02	8.29894390e-04
6.20000000e-02	2.14490800e-02	8.08554923e-04
6.22500000e-02	2.13521109e-02	8.01823606e-04
6.25000000e-02	2.21964819e-02	8.29463775e-04
6.27500000e-02	2.11785813e-02	7.87759994e-04
6.30000000e-02	2.13373859e-02	7.94226683e-04
6.32500000e-02	2.20148708e-02	8.14445673e-04
6.35000000e-02	2.18932819e-02	8.12843837e-04
6.37500000e-02	2.20415887e-02	8.13101146e-04
6.40000000e-02	2.21580884e-02	8.11774553e-04
6.42500000e-02	2.16292831e-02	7.93853719e-04
6.45000000e-02	2.18173131e-02	7.92531113e-04
6.47500000e-02	2.18766711e-02	7.99980673e-04
6.50000000e-02	2.21089069e-02	7.98196903e-04
6.52500000e-02	2.16910056e-02	7.84122547e-04
6.55000000e-02	2.11018518e-02	7.63901024e-04
6.57500000e-02	2.15738917e-02	7.76458937e-04
6.60000000e-02	2.20630290e-02	7.91861671e-04
6.62500000e-02	2.15240381e-02	7.77951659e-04
6.65000000e-02	2.13793692e-02	7.69722438e-04
6.67500000e-02	2.12751376e-02	7.61116847e-04
6.70000000e-02	2.17188826e-02	7.79417034e-04
6.72500000e-02	2.15857976e-02	7.73439032e-04
6.75000000e-02	2.18008451e-02	7.72455348e-04
6.77500000e-02	2.16653818e-02	7.67506360e-04
6.80000000e-02	2.17638913e-02	7.73970346e-04
6.82500000e-02	2.17439934e-02	7.73446664e-04
6.85000000e-02	2.20211135e-02	7.77986269e-04
6.87500000e-02	2.10682734e-02	7.47640007e-04
6.90000000e-02	2.13028684e-02	7.52599072e-04
6.92500000e-02	2.14245864e-02	7.54349498e-04
6.95000000e-02	2.09961535e-02	7.40439002e-04
6.97500000e-02	2.10083614e-02	7.42219463e-04
7.00000000e-02	2.08979627e-02	7.36922935e-04
7.02500000e-02	2.07670393e-02	7.18125087e-04
7.05000000e-02	2.09849624e-02	7.33662534e-04
7.07500000e-02	2.14089523e-02	7.54224607e-04
7.10000000e-02	2.13814056e-02	7.46226603e-04
7.12500000e-02	2.09251344e-02	7.30530695e-04
7.15000000e-02	2.11778686e-02	7.31275435e-04
7.17500000e-02	2.09767967e-02	7.27576406e-04
7.20000000e-02	2.09424792e-02	7.31053736e-04
7.22500000e-02	2.05808047e-02	7.20096231e-04
7.25000000e-02	2.13780733e-02	7.35594201e-04
7.27500000e-02	2.16580260e-02	7.46230733e-04
7.30000000e-02	2.11352084e-02	7.27828045e-04
7.32500000e-02	2.08144885e-02	7.09936636e-04
7.35000000e-02	2.10681799e-02	7.27794972e-04
7.37500000e-02	2.07739406e-02	7.13649469e-04
7.40000000e-02	2.04597180e-02	7.08156021e-04
7.42500000e-02	2.08715217e-02	7.14652301e-04
7.45000000e-02	2.03912336e-02	6.94054330e-04
7.47500000e-02	2.10379347e-02	7.18974837e-04
7.50000000e-02	2.10599375e-02	7.21152969e-04
7.52500000e-02	2.07192470e-02	7.05822309e-04
7.55000000e-02	2.08623940e-02	7.05088692e-04
7.57500000e-02	2.11807008e-02	7.19052420e-04
7.60000000e-02	2.09647479e-02	7.09807458e-04
7.62500000e-02	2.06304665e-02	7.00742205e-04
7.65000000e-02	2.09099295e-02	7.06228156e-04
7.67500000e-02	2.12167061e-02	7.15845788e-04
7.70000000e-02	2.10435275e-02	7.01416691e-04
7.72500000e-02	2.04180281e-02	7.01160153e-04
7.75000000e-02	2.08884130e-02	7.23772555e-04
7.77500000e-02	2.06064463e-02	7.14144519e-04
7.80000000e-02	2.15150618e-02	7.46939784e-04
7.82500000e-02	2.08320100e-02	7.31460655e-04
7.85000000e-02	2.12992808e-02	7.52919153e-04
7.87500000e-02	2.04913326e-02	7.23811916e-04
7.90000000e-02	2.06661479e-02	7.35526746e-04
7.92500000e-02	2.08394069e-02	7.36110190e-04
7.95000000e-02	2.08754550e-02	7.41221220e-04
7.97500000e-02	2.02421994e-02	7.24631394e-04
8.00000000e-02	2.07990984e-02	7.43132884e-04
8.02500000e-02	2.07150180e-02	7.38923583e-04
8.05000000e-02	2.08334339e-02	7.46393149e-04
8.07500000e-02	2.11942765e-02	7.65070001e-04
8.10000000e-02	2.08135167e-02	7.50218116e-04
8.12500000e-02	2.11825517e-02	7.63129487e-04
8.15000000e-02	2.09609528e-02	7.65340007e-04
8.17500000e-02	2.09957333e-02	7.60982073e-04
8.20000000e-02	2.08356197e-02	7.56671722e-04
8.22500000e-02	2.08554318e-02	7.60565205e-04
8.25000000e-02	2.03337068e-02	7.38956808e-04
8.27500000e-02	2.04258503e-02	7.36567162e-04
8.30000000e-02	2.04117156e-02	7.50803422e-04
8.32500000e-02	2.08419919e-02	7.62546739e-04
8.35000000e-02	2.06114927e-02	7.62875907e-04
8.37500000e-02	2.12346384e-02	7.67608472e-04
8.40000000e-02	2.01777036e-02	7.38413517e-04
8.42500000e-02	2.00342747e-02	7.43416856e-04
8.45000000e-02	2.05836714e-02	7.53180660e-04
8.47500000e-02	2.11038330e-02	7.77275210e-04
8.50000000e-02	1.98130624e-02	7.29565360e-04
8.52500000e-02	2.03160509e-02	7.56010963e-04
8.55000000e-02	2.05328415e-02	7.54837436e-04
8.57500000e-02	2.00909060e-02	7.48365138e-04
8.60000000e-02	2.02561518e-02	7.52428948e-04
8.62500000e-02	2.06125776e-02	7.62750868e-04
8.65000000e-02	1.99428017e-02	7.35653980e-04
8.67500000e-02	2.04925393e-02	7.51977756e-04
8.70000000e-02	2.07599708e-02	7.52557059e-04
8.72500000e-02	1.99610713e-02	7.20233574e-04
8.75000000e-02	2.06184336e-02	7.29168835e-04
8.77500000e-02	1.98068424e-02	6.99521564e-04
8.80000000e-02	1.98806343e-02	7.03392105e-04
8.82500000e-02	2.06366957e-02	7.17316492e-04
8.85000000e-02	2.04807190e-02	7.21216733e-04
8.87500000e-02	2.05818545e-02	7.02981102e-04
8.90000000e-02	2.03885342e-02	7.05760840e-04
8.92500000e-02	2.07234639e-02	7.05141586e-04
8.95000000e-02	2.03916851e-02	7.02729657e-04
8.97500000e-02	2.05824913e-02	7.02038934e-04
9.00000000e-02	2.04600043e-02	6.92054992e-04
9.02500000e-02	2.03199622e-02	6.91423293e-04
9.05000000e-02	1.98967675e-02	6.79314628e-04
9.07500000e-02	1.98059370e-02	6.68037568e-04
9.10000000e-02	2.01849040e-02	6.74403914e-04
9.12500000e-02	2.04343745e-02	6.81826561e-04
9.15000000e-02	1.98882941e-02	6.67272178e-04
9.17500000e-02	2.03468709e-02	6.76920624e-04
9.20000000e-02	2.07048585e-02	6.91586552e-04
9.22500000e-02	1.99371965e-02	6.68231161e-04
9.25000000e-02	2.04006932e-02	6.72812034e-04
9.27500000e-02	2.09361646e-02	6.95945406e-04
9.30000000e-02	2.03514792e-02	6.73013367e-04
9.32500000e-02	2.03224149e-02	6.74118045e-04
9.35000000e-02	2.01089947e-02	6.63067245e-04
9.37500000e-02	2.08962165e-02	6.85349223e-04
9.40000000e-02	2.01052550e-02	6.66963795e-04
9.42500000e-02	2.01109726e-02	6.61255007e-04
9.45000000e-02	2.01444415e-02	6.59209810e-04
9.47500000e-02	2.06124671e-02	6.71193344e-04
9.50000000e-02	2.04463950e-02	6.66791213e-04
9.52500000e-02	2.04202757e-02	6.61529460e-04
9.55000000e-02	2.05255549e-02	6.63594504e-04
9.57500000e-02	2.02131383e-02	6.58087511e-04
9.60000000e-02	1.95535935e-02	6.33032077e-04
9.62500000e-02	2.03592658e-02	6.57980275e-04
9.65000000e-02	2.05397233e-02	6.60677372e-04
9.67500000e-02	1.93979357e-02	6.26157613e-04
9.70000000e-02	1.99894575e-02	6.41886318e-04
9.72500000e-02	2.03163255e-02	6.49579262e-04
9.75000000e-02	2.03419609e-02	6.53556570e-04
9.77500000e-02	2.02532296e-02	6.39523992e-04
9.80000000e-02	2.01467890e-02	6.44760766e-04
9.82500000e-02	2.03094238e-02	6.43368767e-04
9.85000000e-02	2.02010562e-02	6.43521630e-04
9.87500000e-02	1.98393815e-02	6.33439047e-04
9.90000000e-02	2.02357394e-02	6.44966768e-04
9.92500000e-02	2.04901948e-02	6.47109300e-04
9.95000000e-02	2.00628884e-02	6.33098094e-04
9.97500000e-02	2.08366392e-02	6.52024654e-04
1.00000000e-01	1.99722365e-02	5.11851560e-04
1.00500000e-01	2.00010226e-02	4.47601168e-04
1.01000000e-01	2.01710052e-02	4.44350451e-04
1.01500000e-01	1.97597964e-02	4.37843949e-04
1.02000000e-01	2.00238765e-02	4.38169835e-04
1.02500000e-01	2.02541386e-02	4.41892018e-04
1.03000000e-01	2.02856432e-02	4.46115886e-04
1.03500000e-01	1.98951143e-02	4.35353527e-04
1.04000000e-01	2.00615302e-02	4.36375000e-04
1.04500000e-01	1.98784737e-02	4.31368912e-04
1.05000000e-01	1.98584918e-02	4.28128446e-04
1.05500000e-01	2.00351311e-02	4.32621938e-04
1.06000000e-01	1.98719213e-02	4.25524612e-04
1.06500000e-01	2.01753135e-02	4.35025706e-04
1.07000000e-01	2.01604725e-02	4.40453474e-04
1.07500000e-01	2.05179617e-02	4.54681579e-04
1.08000000e-01	2.00740694e-02	4.48204633e-04
1.08500000e-01	1.99976301e-02	4.50109444e-04
1.09000000e-01	2.00883738e-02	4.54275615e-04
1.09500000e-01	1.99852335e-02	4.54279776e-04
1.10000000e-01	2.01647593e-02	4.53026552e-04
1.10500000e-01	2.00060715e-02	4.40341275e-04
1.11000000e-01	2.01379429e-02	4.37762797e-04
1.11500000e-01	1.97893961e-02	4.25189060e-04
1.12000000e-01	1.99134189e-02	4.24244800e-04
1.12500000e-01	1.99260149e-02	4.21975579e-04
1.13000000e-01	1.94815949e-02	4.13444609e-04
1.13500000e-01	1.98197424e-02	4.19154044e-04
1.14000000e-01	2.01048568e-02	4.21958707e-04
1.14500000e-01	2.00379900e-02	4.20122029e-04
1.15000000e-01	2.00987021e-02	4.19005287e-04
1.15500000e-01	2.00454107e-02	4.18593208e-04
1.16000000e-01	1.98934106e-02	4.13142570e-04
1.16500000e-01	1.99756640e-02	4.14825256e-04
1.17000000e-01	2.01049991e-02	4.17965976e-04
1.17500000e-01	1.96657437e-02	4.06746828e-04
1.18000000e-01	1.99464787e-02	4.10078567e-04
1.18500000e-01	2.00778558e-02	4.10161154e-04
1.19000000e-01	1.99328353e-02	4.08951273e-04
1.19500000e-01	2.00454032e-02	4.09739770e-04
1.20000000e-01	1.96299097e-02	3.98323397e-04
1.20500000e-01	1.98605488e-02	4.02248703e-04
1.21000000e-01	2.00881123e-02	4.05707640e-04
1.21500000e-01	2.00127877e-02	4.05798269e-04
1.22000000e-01	1.98890778e-02	4.02610849e-04
1.22500000e-01	2.00584858e-02	4.04804784e-04
1.23000000e-01	2.01739452e-02	4.04042312e-04
1.23500000e-01	1.97683425e-02	3.97387381e-04
1.24000000e-01	2.00528267e-02	4.01041929e-04
1.24500000e-01	2.00322892e-02	3.98976367e-04
1.25000000e-01	1.97367816e-02	3.95478687e-04
1.25500000e-01	1.95303603e-02	3.87566520e-04
1.26000000e-01	2.00159409e-02	3.96993829e-04
1.26500000e-01	1.98502223e-02	3.92083759e-04
1.27000000e-01	1.98738978e-02	3.91500771e-04
1.27500000e-01	2.02977870e-02	4.00195299e-04
1.28000000e-01	1.98480557e-02	3.91474903e-04
1.28500000e-01	2.00800538e-02	3.94026653e-04
1.29000000e-01	1.96822913e-02	3.85890652e-04
1.29500000e-01	1.94962051e-02	3.82159424e-04
1.30000000e-01	2.01073782e-02	3.90741484e-04
1.30500000e-01	1.97505505e-02	3.86153279e-04
1.31000000e-01	2.00514716e-02	3.90244201e-04
1.31500000e-01	1.96469132e-02	3.81847063e-04
1.32000000e-01	1.98301898e-02	3.84744937e-04
1.32500000e-01	2.01520569e-02	3.87883291e-04
1.33000000e-01	1.97279059e-02	3.79128577e-04
1.33500000e-01	2.00884871e-02	3.83272505e-04
1.34000000e-01	1.97855615e-02	3.79407584e-04
1.34500000e-01	2.00557003e-02	3.80980502e-04
1.35000000e-01	1.98782880e-02	3.78050672e-04
1.35500000e-01	1.97565746e-02	3.74413891e-04
1.36000000e-01	1.97722631e-02	3.72974046e-04
1.36500000e-01	2.00235803e-02	3.79630069e-04
1.37000000e-01	1.99231649e-02	3.75722623e-04
1.37500000e-01	1.98538918e-02	3.75077212e-04
1.38000000e-01	1.96479632e-02	3.69913303e-04
1.38500000e-01	1.98571634e-02	3.75594463e-04
1.39000000e-01	2.00322332e-02	3.75667315e-04
1.39500000e-01	1.97259639e-02	3.71130177e-04
1.40000000e-01	1.98589644e-02	3.74262097e-04
1.40500000e-01	1.96862204e-02	3.69431069e-04
1.41000000e-01	1.95394868e-02	3.67660820e-04
1.41500000e-01	1.95749185e-02	3.68637775e-04
1.42000000e-01	1.95572305e-02	3.64318195e-04
1.42500000e-01	1.97550766e-02	3.68638569e-04
1.43000000e-01	1.95872859e-02	3.66380150e-04
1.43500000e-01	1.94215662e-02	3.61122160e-04
1.44000000e-01	1.96767955e-02	3.64986812e-04
1.44500000e-01	1.99473341e-02	3.67676483e-04
1.45000000e-01	1.97136050e-02	3.64235677e-04
1.45500000e-01	1.96948274e-02	3.63581257e-04
1.46000000e-01	1.96405888e-02	3.61719339e-04
1.46500000e-01	1.92826754e-02	3.55956209e-04
1.47000000e-01	1.95187963e-02	3.59220036e-04
1.47500000e-01	1.95770036e-02	3.58445499e-04
1.48000000e-01	1.94952734e-02	3.58167515e-04
1.48500000e-01	1.93922618e-02	3.54477306e-04
1.49000000e-01	1.95522031e-02	3.56482728e-04
1.49500000e-01	1.95882223e-02	3.56547570e-04
1.50000000e-01	1.95784603e-02	3.55011991e-04
1.50500000e-01	1.97410331e-02	3.58482198e-04
1.51000000e-01	1.96490718e-02	3.55898646e-04
1.51500000e-01	1.97345669e-02	3.56817447e-04
1.52000000e-01	1.95377762e-02	3.52214459e-04
1.52500000e-01	1.97871963e-02	3.56599881e-04
1.53000000e-01	1.95068426e-02	3.50964400e-04
1.53500000e-01	1.93715811e-02	3.47942759e-04
1.54000000e-01	1.93172238e-02	3.47231283e-04
1.54500000e-01	1.94933885e-02	3.55693470e-04
1.55000000e-01	1.92789284e-02	3.55606180e-04
1.55500000e-01	1.92841264e-02	3.58217068e-04
1.56000000e-01	1.93398402e-02	3.61697942e-04
1.56500000e-01	1.94570583e-02	3.63064338e-04
1.57000000e-01	1.95087916e-02	3.63811558e-04
1.57500000e-01	1.93945471e-02	3.56715122e-04
1.58000000e-01	1.92682941e-02	3.48989403e-04
1.58500000e-01	1.94868737e-02	3.51660565e-04
1.59000000e-01	1.92590969e-02	3.45592230e-04
1.59500000e-01	1.92114953e-02	3.43052823e-04
1.60000000e-01	1.93131099e-02	3.44739587e-04
1.60500000e-01	1.91869934e-02	3.41551868e-04
1.61000000e-01	1.92675444e-02	3.42555663e-04
1.61500000e-01	1.94027627e-02	3.44035615e-04
1.62000000e-01	1.92592586e-02	3.42111144e-04
1.62500000e-01	1.92852051e-02	3.42241202e-04
1.63000000e-01	1.92116472e-02	3.37919062e-04
1.63500000e-01	1.93423330e-02	3.44113334e-04
1.64000000e-01	1.92546257e-02	3.37598955e-04
1.64500000e-01	1.90330265e-02	3.33864444e-04
1.65000000e-01	1.93579087e-02	3.39379376e-04
1.65500000e-01	1.88982601e-02	3.30128514e-04
1.66000000e-01	1.91282502e-02	3.33769596e-04
1.66500000e-01	1.93525184e-02	3.35368875e-04
1.67000000e-01	1.90615075e-02	3.33371719e-04
1.67500000e-01	1.90998489e-02	3.29990167e-04
1.68000000e-01	1.88416479e-02	3.27785949e-04
1.68500000e-01	1.92100767e-02	3.32953326e-04
1.69000000e-01	1.91631193e-02	3.30934646e-04
1.69500000e-01	1.90966402e-02	3.30146407e-04
1.70000000e-01	1.93385884e-02	3.32556960e-04
1.70500000e-01	1.93699262e-02	3.33147778e-04
1.71000000e-01	1.92001344e-02	3.30029773e-04
1.71500000e-01	1.92551474e-02	3.31560074e-04
1.72000000e-01	1.91423390e-02	3.27215487e-04
1.72500000e-01	1.90647983e-02	3.25148138e-04
1.73000000e-01	1.90637204e-02	3.26439660e-04
1.73500000e-01	1.92613371e-02	3.27639373e-04
1.74000000e-01	1.91074343e-02	3.23912971e-04
1.74500000e-01	1.89171728e-02	3.18651112e-04
1.75000000e-01	1.88410430e-02	3.17032869e-04
1.75500000e-01	1.90779694e-02	3.20099613e-04
1.76000000e-01	1.89584713e-02	3.18412479e-04
1.76500000e-01	1.88590974e-02	3.17606766e-04
1.77000000e-01	1.88197801e-02	3.16188251e-04
1.77500000e-01	1.88704021e-02	3.16349388e-04
1.78000000e-01	1.90933518e-02	3.19768234e-04
1.78500000e-01	1.89389476e-02	3.17937586e-04
1.79000000e-01	1.87804093e-02	3.15648178e-04
1.79500000e-01	1.90477823e-02	3.19280112e-04
1.80000000e-01	1.88200729e-02	3.15620952e-04
1.80500000e-01	1.87011145e-02	3.13431233e-04
1.81000000e-01	1.86210995e-02	3.11614465e-04
1.81500000e-01	1.88104188e-02	3.13087793e-04
1.82000000e-01	1.86856429e-02	3.12471346e-04
1.82500000e-01	1.85855391e-02	3.09177964e-04
1.83000000e-01	1.88794912e-02	3.15070234e-04
1.83500000e-01	1.87397206e-02	3.11165109e-04
1.84000000e-01	1.87312738e-02	3.11033556e-04
1.84500000e-01	1.87405715e-02	3.09512523e-04
1.85000000e-01	1.88275541e-02	3.10016820e-04
1.85500000e-01	1.86479588e-02	3.07617294e-04
1.86000000e-01	1.87507772e-02	3.09734416e-04
1.86500000e-01	1.88009751e-02	3.08964453e-04
1.87000000e-01	1.87632073e-02	3.08791960e-04
1.87500000e-01	1.85121262e-02	3.04395197e-04
1.88000000e-01	1.86924503e-02	3.08519553e-04
1.88500000e-01	1.85406860e-02	3.02975429e-04
1.89000000e-01	1.84614048e-02	3.01937082e-04
1.89500000e-01	1.87393444e-02	3.06450239e-04
1.90000000e-01	1.87745755e-02	3.06970026e-04
1.90500000e-01	1.87489788e-02	3.05549691e-04
1.91000000e-01	1.85874216e-02	3.02837297e-04
1.91500000e-01	1.87965684e-02	3.05729711e-04
1.92000000e-01	1.84893380e-02	2.99967287e-04
1.92500000e-01	1.85197701e-02	3.01122943e-04
1.93000000e-01	1.85281750e-02	3.00039688e-04
1.93500000e-01	1.85989500e-02	3.01640050e-04
1.94000000e-01	1.85748092e-02	2.99987861e-04
1.94500000e-01	1.86867339e-02	3.02057977e-04
1.95000000e-01	1.84799332e-02	2.99479070e-04
1.95500000e-01	1.84827409e-02	2.96273057e-04
1.96000000e-01	1.86276263e-02	2.98994853e-04
1.96500000e-01	1.83127907e-02	2.95152571e-04
1.97000000e-01	1.86764269e-02	2.99961659e-04
1.97500000e-01	1.83190449e-02	2.93624749e-04
1.98000000e-01	1.85182606e-02	2.95674322e-04
1.98500000e-01	1.84482901e-02	2.94706118e-04
1.99000000e-01	1.84178139e-02	2.94627333e-04
1.99500000e-01	1.86497385e-02	2.96180625e-04
2.00000000e-01	1.84048945e-02	2.93270179e-04
2.00500000e-01	1.84570839e-02	2.93943340e-04
2.01000000e-01	1.87838990e-02	2.97343993e-04
2.01500000e-01	1.86417629e-02	2.97045843e-04
2.02000000e-01	1.84272254e-02	2.91940245e-04
2.02500000e-01	1.84390985e-02	2.90395646e-04
2.03000000e-01	1.84259543e-02	2.91325144e-04
2.03500000e-01	1.85194569e-02	2.92672677e-04
2.04000000e-01	1.87400369e-02	2.95286270e-04
2.04500000e-01	1.84416483e-02	2.90548915e-04
2.05000000e-01	1.83967665e-02	2.89334873e-04
2.05500000e-01	1.84826300e-02	2.92121890e-04
2.06000000e-01	1.81915970e-02	2.84777527e-04
2.06500000e-01	1.85995691e-02	2.91720348e-04
2.07000000e-01	1.84963583e-02	2.89601243e-04
2.07500000e-01	1.81425531e-02	2.84034385e-04
2.08000000e-01	1.81355968e-02	2.85448738e-04
2.08500000e-01	1.83005751e-02	2.86142877e-04
2.09000000e-01	1.84543795e-02	2.88171755e-04
2.09500000e-01	1.81993703e-02	2.82940124e-04
2.10000000e-01	1.82961369e-02	2.85757975e-04
2.10500000e-01	1.83640629e-02	2.86531199e-04
2.11000000e-01	1.84534064e-02	2.86817022e-04
2.11500000e-01	1.81133241e-02	2.81865867e-04
2.12000000e-01	1.83871405e-02	2.83480154e-04
2.12500000e-01	1.81537053e-02	2.81367644e-04
2.13000000e-01	1.82188720e-02	2.81765193e-04
2.13500000e-01	1.82290740e-02	2.80256078e-04
2.14000000e-01	1.80907909e-02	2.79646806e-04
2.14500000e-01	1.82636594e-02	2.80251988e-04
2.15000000e-01	1.82121892e-02	2.81223827e-04
2.15500000e-01	1.82572378e-02	2.79805508e-04
2.16000000e-01	1.82465442e-02	2.80594417e-04
2.16500000e-01	1.82020021e-02	2.79101851e-04
2.17000000e-01	1.82751232e-02	2.82820198e-04
2.17500000e-01	1.82120550e-02	2.88816180e-04
2.18000000e-01	1.78904450e-02	2.83772560e-04
2.18500000e-01	1.81115855e-02	2.89236509e-04
2.19000000e-01	1.81909573e-02	2.91673682e-04
2.19500000e-01	1.78591881e-02	2.86627294e-04
2.20000000e-01	1.80926993e-02	2.91702293e-04
2.20500000e-01	1.80446648e-02	2.91220630e-04
2.21000000e-01	1.79230224e-02	2.91126594e-04
2.21500000e-01	1.79391380e-02	2.92287728e-04
2.22000000e-01	1.80784624e-02	2.94052408e-04
2.22500000e-01	1.82039828e-02	2.96564385e-04
2.23000000e-01	1.81894341e-02	2.97957761e-04
2.23500000e-01	1.79433898e-02	2.95079911e-04
2.24000000e-01	1.78340237e-02	2.93344673e-04
2.24500000e-01	1.79570898e-02	2.96440475e-04
2.25000000e-01	1.81391032e-02	2.99451079e-04
2.25500000e-01	1.79214389e-02	2.97486047e-04
2.26000000e-01	1.78854960e-02	2.97723882e-04
2.26500000e-01	1.79650672e-02	2.93007771e-04
2.27000000e-01	1.81708191e-02	2.94019445e-04
2.27500000e-01	1.81262050e-02	2.90785864e-04
2.28000000e-01	1.80531941e-02	2.89189674e-04
2.28500000e-01	1.81757986e-02	2.89629888e-04
2.29000000e-01	1.81239533e-02	2.86809073e-04
2.29500000e-01	1.76966472e-02	2.78785775e-04
2.30000000e-01	1.79222219e-02	2.82020477e-04
2.30500000e-01	1.79030210e-02	2.80548967e-04
2.31000000e-01	1.80290537e-02	2.81995697e-04
2.31500000e-01	1.79226319e-02	2.79973213e-04
2.32000000e-01	1.79764277e-02	2.80507332e-04
2.32500000e-01	1.78670409e-02	2.76673612e-04
2.33000000e-01	1.79211735e-02	2.78833956e-04
2.33500000e-01	1.80470970e-02	2.78540101e-04
2.34000000e-01	1.79480105e-02	2.76840620e-04
2.34500000e-01	1.76060662e-02	2.70565696e-04
2.35000000e-01	1.79593639e-02	2.76850048e-04
2.35500000e-01	1.77556765e-02	2.72305706e-04
2.36000000e-01	1.77234188e-02	2.71819446e-04
2.36500000e-01	1.79702474e-02	2.74937235e-04
2.37000000e-01	1.79520954e-02	2.73335513e-04
2.37500000e-01	1.78824219e-02	2.73724991e-04
2.38000000e-01	1.76913740e-02	2.69363446e-04
2.38500000e-01	1.80080494e-02	2.73677356e-04
2.39000000e-01	1.78285146e-02	2.71086336e-04
2.39500000e-01	1.77838370e-02	2.68675326e-04
2.40000000e-01	1.77038049e-02	2.68138309e-04
2.40500000e-01	1.73939669e-02	2.62146597e-04
2.41000000e-01	1.75982087e-02	2.65353053e-04
2.41500000e-01	1.77821225e-02	2.66019056e-04
2.42000000e-01	1.77650617e-02	2.66369228e-04
2.42500000e-01	1.75720176e-02	2.64079056e-04
2.43000000e-01	1.77029445e-02	2.65035098e-04
2.43500000e-01	1.75947463e-02	2.63388623e-04
2.44000000e-01	1.76464095e-02	2.62587580e-04
2.44500000e-01	1.76227886e-02	2.62439879e-04
2.45000000e-01	1.80775473e-02	2.68502490e-04
2.45500000e-01	1.78281723e-02	2.64845703e-04
2.46000000e-01	1.77372944e-02	2.63696242e-04
2.46500000e-01	1.78422104e-02	2.63121081e-04
2.47000000e-01	1.76397235e-02	2.60818114e-04
2.47500000e-01	1.77916656e-02	2.62265527e-04
2.48000000e-01	1.76757796e-02	2.60940246e-04
2.48500000e-01	1.76628899e-02	2.60044279e-04
2.49000000e-01	1.76576899e-02	2.59702750e-04
2.49500000e-01	1.75609103e-02	2.58615310e-04
2.50000000e-01	1.73574449e-02	2.55789699e-04
2.50500000e-01	1.75783967e-02	2.59035888e-04
2.51000000e-01	1.72730063e-02	2.53788598e-04
2.51500000e-01	1.76518818e-02	2.59050778e-04
2.52000000e-01	1.75830250e-02	2.57821260e-04
2.52500000e-01	1.75450758e-02	2.56554735e-04
2.53000000e-01	1.75042475e-02	2.56319511e-04
2.53500000e-01	1.76773272e-02	2.57611787e-04
2.54000000e-01	1.76585488e-02	2.57421951e-04
2.54500000e-01	1.77502046e-02	2.58314109e-04
2.55000000e-01	1.75095378e-02	2.54480723e-04
2.55500000e-01	1.74476273e-02	2.53647592e-04
2.56000000e-01	1.75176173e-02	2.54931162e-04
2.56500000e-01	1.75824981e-02	2.54470905e-04
2.57000000e-01	1.75376285e-02	2.53428628e-04
2.57500000e-01	1.76147946e-02	2.54572119e-04
2.58000000e-01	1.74813882e-02	2.53420325e-04
2.58500000e-01	1.75117710e-02	2.52576211e-04
2.59000000e-01	1.76057732e-02	2.53039152e-04
2.59500000e-01	1.74892093e-02	2.51471508e-04
2.60000000e-01	1.75340136e-02	2.52308439e-04
2.60500000e-01	1.76343486e-02	2.53987859e-04
2.61000000e-01	1.74354791e-02	2.50535500e-04
2.61500000e-01	1.74592153e-02	2.51099189e-04
2.62000000e-01	1.75830421e-02	2.51340449e-04
2.62500000e-01	1.74152294e-02	2.49490359e-04
2.63000000e-01	1.74079967e-02	2.48831459e-04
2.63500000e-01	1.73804406e-02	2.47654597e-04
2.64000000e-01	1.74056755e-02	2.48399635e-04
2.64500000e-01	1.74151715e-02	2.47716036e-04
2.65000000e-01	1.73609623e-02	2.47764547e-04
2.65500000e-01	1.74737223e-02	2.49279072e-04
2.66000000e-01	1.73771021e-02	2.46982237e-04
2.66500000e-01	1.71766625e-02	2.43931208e-04
2.67000000e-01	1.71445342e-02	2.43528708e-04
2.67500000e-01	1.71506516e-02	2.43134544e-04
2.68000000e-01	1.72651155e-02	2.43605718e-04
2.68500000e-01	1.72162920e-02	2.44163651e-04
2.69000000e-01	1.71920991e-02	2.41908946e-04
2.69500000e-01	1.74235053e-02	2.45110267e-04
2.70000000e-01	1.70307913e-02	2.40120772e-04
2.70500000e-01	1.73624640e-02	2.43941254e-04
2.71000000e-01	1.73219088e-02	2.43346509e-04
2.71500000e-01	1.72344754e-02	2.42634484e-04
2.72000000e-01	1.71578743e-02	2.40813117e-04
2.72500000e-01	1.73200233e-02	2.42890039e-04
2.73000000e-01	1.72312035e-02	2.40768993e-04
2.73500000e-01	1.71075631e-02	2.39393753e-04
2.74000000e-01	1.72993236e-02	2.41845489e-04
2.74500000e-01	1.71616203e-02	2.39976525e-04
2.75000000e-01	1.72289660e-02	2.41091252e-04
2.75500000e-01	1.73148178e-02	2.41144581e-04
2.76000000e-01	1.71951765e-02	2.39243630e-04
2.76500000e-01	1.74005747e-02	2.41852500e-04
2.77000000e-01	1.72318079e-02	2.39293378e-04
2.77500000e-01	1.73348659e-02	2.40804188e-04
2.78000000e-01	1.72846183e-02	2.39159629e-04
2.78500000e-01	1.72957531e-02	2.39922492e-04
2.79000000e-01	1.69384576e-02	2.34687779e-04
2.79500000e-01	1.71141212e-02	2.37368159e-04
2.80000000e-01	1.70864450e-02	2.36655392e-04
2.80500000e-01	1.71630571e-02	2.37012698e-04
2.81000000e-01	1.71873019e-02	2.37296496e-04
2.81500000e-01	1.71816503e-02	2.36499235e-04
2.82000000e-01	1.73177353e-02	2.37991177e-04
2.82500000e-01	1.72391559e-02	2.38589575e-04
2.83000000e-01	1.70537667e-02	2.34346514e-04
2.83500000e-01	1.70084746e-02	2.33678519e-04
2.84000000e-01	1.69833469e-02	2.33560086e-04
2.84500000e-01	1.70839798e-02	2.34678090e-04
2.85000000e-01	1.72017231e-02	2.35162847e-04
2.85500000e-01	1.70493805e-02	2.32704585e-04
2.86000000e-01	1.71069095e-02	2.33997960e-04
2.86500000e-01	1.69024394e-02	2.30894736e-04
2.87000000e-01	1.69643392e-02	2.31883846e-04
2.87500000e-01	1.70200949e-02	2.31272203e-04
2.88000000e-01	1.70116040e-02	2.30598967e-04
2.88500000e-01	1.70302696e-02	2.32838195e-04
2.89000000e-01	1.70752211e-02	2.32309979e-04
2.89500000e-01	1.69024456e-02	2.30388674e-04
2.90000000e-01	1.70800335e-02	2.31695059e-04
2.90500000e-01	1.69600825e-02	2.28911862e-04
2.91000000e-01	1.70498442e-02	2.30783160e-04
2.91500000e-01	1.69424254e-02	2.28984521e-04
2.92000000e-01	1.70700547e-02	2.30210665e-04
2.92500000e-01	1.70325432e-02	2.29085821e-04
2.93000000e-01	1.69212340e-02	2.28094199e-04
2.93500000e-01	1.70299224e-02	2.28708737e-04
2.94000000e-01	1.69481641e-02	2.28597032e-04
2.94500000e-01	1.69783623e-02	2.30119187e-04
2.95000000e-01	1.69014633e-02	2.26657671e-04
2.95500000e-01	1.68914393e-02	2.27823367e-04
2.96000000e-01	1.66916714e-02	2.24761560e-04
2.96500000e-01	1.68593825e-02	2.26090707e-04
2.97000000e-01	1.69393672e-02	2.27597156e-04
2.97500000e-01	1.70456144e-02	2.27661091e-04
2.98000000e-01	1.69280853e-02	2.26571989e-04
2.98500000e-01	1.67452367e-02	2.23976128e-04
2.99000000e-01	1.69724683e-02	2.26048539e-04
2.99500000e-01	1.67643851e-02	2.24845912e-04
3.00000000e-01	1.66409282e-02	2.22859563e-04
3.00500000e-01	1.68860700e-02	2.25389004e-04
3.01000000e-01	1.66353158e-02	2.21528477e-04
3.01500000e-01	1.67636142e-02	2.22810265e-04
3.02000000e-01	1.69363808e-02	2.24489360e-04
3.02500000e-01	1.68844005e-02	2.23914857e-04
3.03000000e-01	1.66848459e-02	2.22206054e-04
3.03500000e-01	1.68763682e-02	2.23691691e-04
3.04000000e-01	1.65927312e-02	2.20290885e-04
3.04500000e-01	1.67518831e-02	2.21047962e-04
3.05000000e-01	1.68739795e-02	2.23277246e-04
3.05500000e-01	1.67911741e-02	2.22284726e-04
3.06000000e-01	1.68002226e-02	2.21026403e-04
3.06500000e-01	1.67742853e-02	2.21510841e-04
3.07000000e-01	1.65320271e-02	2.18032843e-04
3.07500000e-01	1.67477779e-02	2.19608274e-04
3.08000000e-01	1.67594728e-02	2.20594520e-04
3.08500000e-01	1.66982680e-02	2.19256409e-04
3.09000000e-01	1.67647654e-02	2.20598525e-04
3.09500000e-01	1.66435406e-02	2.18418930e-04
3.10000000e-01	1.66844947e-02	2.19929264e-04
3.10500000e-01	1.65912466e-02	2.18415431e-04
3.11000000e-01	1.66248505e-02	2.18225211e-04
3.11500000e-01	1.65521711e-02	2.16613914e-04
3.12000000e-01	1.65650425e-02	2.16065430e-04
3.12500000e-01	1.67381270e-02	2.18808651e-04
3.13000000e-01	1.67600036e-02	2.18447326e-04
3.13500000e-01	1.64744518e-02	2.15766169e-04
3.14000000e-01	1.67369959e-02	2.18020045e-04
3.14500000e-01	1.67444375e-02	2.18283982e-04
3.15000000e-01	1.66935635e-02	2.17433917e-04
3.15500000e-01	1.66731171e-02	2.16781915e-04
3.16000000e-01	1.65979164e-02	2.16005322e-04
3.16500000e-01	1.66320297e-02	2.16278146e-04
3.17000000e-01	1.65303962e-02	2.15393541e-04
3.17500000e-01	1.65416393e-02	2.14583402e-04
3.18000000e-01	1.65867579e-02	2.15419639e-04
3.18500000e-01	1.66028191e-02	2.15062910e-04
3.19000000e-01	1.65362235e-02	2.14208283e-04
3.19500000e-01	1.66138632e-02	2.15488365e-04
3.20000000e-01	1.66346205e-02	2.15733187e-04
3.20500000e-01	1.66015081e-02	2.14521218e-04
3.21000000e-01	1.65795571e-02	2.14311104e-04
3.21500000e-01	1.63548984e-02	2.11385800e-04
3.22000000e-01	1.64869951e-02	2.12623682e-04
3.22500000e-01	1.64012246e-02	2.10803812e-04
3.23000000e-01	1.65290500e-02	2.12637445e-04
3.23500000e-01	1.64503565e-02	2.11772542e-04
3.24000000e-01	1.65125656e-02	2.11222714e-04
3.24500000e-01	1.65695003e-02	2.13515636e-04
3.25000000e-01	1.64574057e-02	2.11134013e-04
3.25500000e-01	1.62607832e-02	2.08952477e-04
3.26000000e-01	1.63420152e-02	2.09079265e-04
3.26500000e-01	1.63944655e-02	2.10174641e-04
3.27000000e-01	1.64325296e-02	2.09971143e-04
3.27500000e-01	1.62154762e-02	2.07630420e-04
3.28000000e-01	1.63182950e-02	2.08940134e-04
3.28500000e-01	1.62958674e-02	2.07868004e-04
3.29000000e-01	1.62321395e-02	2.07399932e-04
3.29500000e-01	1.62676893e-02	2.07785480e-04
3.30000000e-01	1.63387079e-02	2.09029026e-04
3.30500000e-01	1.62967765e-02	2.07787961e-04
3.31000000e-01	1.61952459e-02	2.07110584e-04
3.31500000e-01	1.62780228e-02	2.06965408e-04
3.32000000e-01	1.60948753e-02	2.04823895e-04
3.32500000e-01	1.63204742e-02	2.07115923e-04
3.33000000e-01	1.61924929e-02	2.05805218e-04
3.33500000e-01	1.61402273e-02	2.05954777e-04
3.34000000e-01	1.61694928e-02	2.05591559e-04
3.34500000e-01	1.61601222e-02	2.05456739e-04
3.35000000e-01	1.61441215e-02	2.04392801e-04
3.35500000e-01	1.62068770e-02	2.05403825e-04
3.36000000e-01	1.62730618e-02	2.05499729e-04
3.36500000e-01	1.62302081e-02	2.05259537e-04
3.37000000e-01	1.61963708e-02	2.03959702e-04
3.37500000e-01	1.60773996e-02	2.02842031e-04
3.38000000e-01	1.63176906e-02	2.05529617e-04
3.38500000e-01	1.62587812e-02	2.04705346e-04
3.39000000e-01	1.61415002e-02	2.03767923e-04
3.39500000e-01	1.61886867e-02	2.03320868e-04
3.40000000e-01	1.59983798e-02	2.01963426e-04
3.40500000e-01	1.62701537e-02	2.04919192e-04
3.41000000e-01	1.59585488e-02	2.00530077e-04
3.41500000e-01	1.60799975e-02	2.02113902e-04
3.42000000e-01	1.59539711e-02	2.00488651e-04
3.42500000e-01	1.61007932e-02	2.01959698e-04
3.43000000e-01	1.60289588e-02	2.00990326e-04
3.43500000e-01	1.61056932e-02	2.00669158e-04
3.44000000e-01	1.59368623e-02	2.00138492e-04
3.44500000e-01	1.60915089e-02	2.01188818e-04
3.45000000e-01	1.62299803e-02	2.02935986e-04
3.45500000e-01	1.60154969e-02	1.99028522e-04
3.46000000e-01	1.60872411e-02	2.00466949e-04
3.46500000e-01	1.60838639e-02	1.99878078e-04
3.47000000e-01	1.59007985e-02	1.98631303e-04
3.47500000e-01	1.59488228e-02	1.98449476e-04
3.48000000e-01	1.58144723e-02	1.96697942e-04
3.48500000e-01	1.60756501e-02	1.99810353e-04
3.49000000e-01	1.59354625e-02	1.97454829e-04
3.49500000e-01	1.60141591e-02	1.98705610e-04
3.50000000e-01	1.59977357e-02	1.62221631e-04
3.51000000e-01	1.59798598e-02	1.39885056e-04
3.52000000e-01	1.58777389e-02	1.38991233e-04
3.53000000e-01	1.60746308e-02	1.39824291e-04
3.54000000e-01	1.59046892e-02	1.38307421e-04
3.55000000e-01	1.58346495e-02	1.37750078e-04
3.56000000e-01	1.58187083e-02	1.38583906e-04
3.57000000e-01	1.58292825e-02	1.40791454e-04
3.58000000e-01	1.58205372e-02	1.41876307e-04
3.59000000e-01	1.58360811e-02	1.42982700e-04
3.60000000e-01	1.58025323e-02	1.43572029e-04
3.61000000e-01	1.58406515e-02	1.45036141e-04
3.62000000e-01	1.57275426e-02	1.44377772e-04
3.63000000e-01	1.58128742e-02	1.45925929e-04
3.64000000e-01	1.56182946e-02	1.44646826e-04
3.65000000e-01	1.58352976e-02	1.46554668e-04
3.66000000e-01	1.56992960e-02	1.44139876e-04
3.67000000e-01	1.56457174e-02	1.41840514e-04
3.68000000e-01	1.57830095e-02	1.41553827e-04
3.69000000e-01	1.56934916e-02	1.40064803e-04
3.70000000e-01	1.56427301e-02	1.39256269e-04
3.71000000e-01	1.56092959e-02	1.40719717e-04
3.72000000e-01	1.56804591e-02	1.42116402e-04
3.73000000e-01	1.55982926e-02	1.41926688e-04
3.74000000e-01	1.57765057e-02	1.43396745e-04
3.75000000e-01	1.55910179e-02	1.42040057e-04
3.76000000e-01	1.55827091e-02	1.41942580e-04
3.77000000e-01	1.55680230e-02	1.41628548e-04
3.78000000e-01	1.55866793e-02	1.41663169e-04
3.79000000e-01	1.56998234e-02	1.42861447e-04
3.80000000e-01	1.54974250e-02	1.40511899e-04
3.81000000e-01	1.54460700e-02	1.40120285e-04
3.82000000e-01	1.55063197e-02	1.40879643e-04
3.83000000e-01	1.54523838e-02	1.39993657e-04
3.84000000e-01	1.53023424e-02	1.38905144e-04
3.85000000e-01	1.53502934e-02	1.39818592e-04
3.86000000e-01	1.53302191e-02	1.39173883e-04
3.87000000e-01	1.54368293e-02	1.40155519e-04
3.88000000e-01	1.54458799e-02	1.40139761e-04
3.89000000e-01	1.53735374e-02	1.39439306e-04
3.90000000e-01	1.53801001e-02	1.39404589e-04
3.91000000e-01	1.54635460e-02	1.39854530e-04
3.92000000e-01	1.53753370e-02	1.39182051e-04
3.93000000e-01	1.54070330e-02	1.39442274e-04
3.94000000e-01	1.53473960e-02	1.39089738e-04
3.95000000e-01	1.53102192e-02	1.38481990e-04
3.96000000e-01	1.53899432e-02	1.38918805e-04
3.97000000e-01	1.52812097e-02	1.38334574e-04
3.98000000e-01	1.52050900e-02	1.37985718e-04
3.99000000e-01	1.52607278e-02	1.38507970e-04
4.00000000e-01	1.52287113e-02	1.38124449e-04
4.01000000e-01	1.52147393e-02	1.37810260e-04
4.02000000e-01	1.53395933e-02	1.38697477e-04
4.03000000e-01	1.51326272e-02	1.36880602e-04
4.04000000e-01	1.53102785e-02	1.38062428e-04
4.05000000e-01	1.52243578e-02	1.37951640e-04
4.06000000e-01	1.52866686e-02	1.38126324e-04
4.07000000e-01	1.50311507e-02	1.36019436e-04
4.08000000e-01	1.50502866e-02	1.36182631e-04
4.09000000e-01	1.51288316e-02	1.36735243e-04
4.10000000e-01	1.51102449e-02	1.36755969e-04
4.11000000e-01	1.51793846e-02	1.36868648e-04
4.12000000e-01	1.50407854e-02	1.36265131e-04
4.13000000e-01	1.50769588e-02	1.35760415e-04
4.14000000e-01	1.50611003e-02	1.36021320e-04
4.15000000e-01	1.49915187e-02	1.35067407e-04
4.16000000e-01	1.50377119e-02	1.35694135e-04
4.17000000e-01	1.50784368e-02	1.35692148e-04
4.18000000e-01	1.50375133e-02	1.37012121e-04
4.19000000e-01	1.52143373e-02	1.40221595e-04
4.20000000e-01	1.50889142e-02	1.40320946e-04
4.21000000e-01	1.51025148e-02	1.40530854e-04
4.22000000e-01	1.50805838e-02	1.40941818e-04
4.23000000e-01	1.49721851e-02	1.40493463e-04
4.24000000e-01	1.50782809e-02	1.41794812e-04
4.25000000e-01	1.51605053e-02	1.42245241e-04
4.26000000e-01	1.51273798e-02	1.42012022e-04
4.27000000e-01	1.50497048e-02	1.41556823e-04
4.28000000e-01	1.50409260e-02	1.41409864e-04
4.29000000e-01	1.50867816e-02	1.42916565e-04
4.30000000e-01	1.50485679e-02	1.42226285e-04
4.31000000e-01	1.50510121e-02	1.41698530e-04
4.32000000e-01	1.49080119e-02	1.40816639e-04
4.33000000e-01	1.51279399e-02	1.42693766e-04
4.34000000e-01	1.48908345e-02	1.41277262e-04
4.35000000e-01	1.47868051e-02	1.40452720e-04
4.36000000e-01	1.49746390e-02	1.42022838e-04
4.37000000e-01	1.47429583e-02	1.40336403e-04
4.38000000e-01	1.48380893e-02	1.40859241e-04
4.39000000e-01	1.48288156e-02	1.41512443e-04
4.40000000e-01	1.48530327e-02	1.42067676e-04
4.41000000e-01	1.49403335e-02	1.42400286e-04
4.42000000e-01	1.49630961e-02	1.42901425e-04
4.43000000e-01	1.49359020e-02	1.43106266e-04
4.44000000e-01	1.49703032e-02	1.43549521e-04
4.45000000e-01	1.49318694e-02	1.43125915e-04
4.46000000e-01	1.49274704e-02	1.42606644e-04
4.47000000e-01	1.49043951e-02	1.43040917e-04
4.48000000e-01	1.47473667e-02	1.41992526e-04
4.49000000e-01	1.47897155e-02	1.42639689e-04
4.50000000e-01	1.48588034e-02	1.43506712e-04
4.51000000e-01	1.47987600e-02	1.43002039e-04
4.52000000e-01	1.47547628e-02	1.42910696e-04
4.53000000e-01	1.48102335e-02	1.43118491e-04
4.54000000e-01	1.47849358e-02	1.43148353e-04
4.55000000e-01	1.47869221e-02	1.43041688e-04
4.56000000e-01	1.47473383e-02	1.43018206e-04
4.57000000e-01	1.47367011e-02	1.42622721e-04
4.58000000e-01	1.46309251e-02	1.42217372e-04
4.59000000e-01	1.47648017e-02	1.43434266e-04
4.60000000e-01	1.46504289e-02	1.42454137e-04
4.61000000e-01	1.47546952e-02	1.43684378e-04
4.62000000e-01	1.46140347e-02	1.42552855e-04
4.63000000e-01	1.48128311e-02	1.44418603e-04
4.64000000e-01	1.45730167e-02	1.42663515e-04
4.65000000e-01	1.47162017e-02	1.43816312e-04
4.66000000e-01	1.46957711e-02	1.43222012e-04
4.67000000e-01	1.45997566e-02	1.42675474e-04
4.68000000e-01	1.46326165e-02	1.42889756e-04
4.69000000e-01	1.46275350e-02	1.43646366e-04
4.70000000e-01	1.45207034e-02	1.42335957e-04
4.71000000e-01	1.46394993e-02	1.43361407e-04
4.72000000e-01	1.44798002e-02	1.42068966e-04
4.73000000e-01	1.46812879e-02	1.43719252e-04
4.74000000e-01	1.45282961e-02	1.42497069e-04
4.75000000e-01	1.44826371e-02	1.42305154e-04
4.76000000e-01	1.44824177e-02	1.41714470e-04
4.77000000e-01	1.46001582e-02	1.42982842e-04
4.78000000e-01	1.45462698e-02	1.42528333e-04
4.79000000e-01	1.44735479e-02	1.41806132e-04
4.80000000e-01	1.45424569e-02	1.42615550e-04
4.81000000e-01	1.45608656e-02	1.42853431e-04
4.82000000e-01	1.44593147e-02	1.41760052e-04
4.83000000e-01	1.44651696e-02	1.42031210e-04
4.84000000e-01	1.44581781e-02	1.42477081e-04
4.85000000e-01	1.44761131e-02	1.42277227e-04
4.86000000e-01	1.44307427e-02	1.42161448e-04
4.87000000e-01	1.44050050e-02	1.41690132e-04
4.88000000e-01	1.43211118e-02	1.41226514e-04
4.89000000e-01	1.44068822e-02	1.42221606e-04
4.90000000e-01	1.44851308e-02	1.43054159e-04
4.91000000e-01	1.43848094e-02	1.41777418e-04
4.92000000e-01	1.43890413e-02	1.42115438e-04
4.93000000e-01	1.44461497e-02	1.42898553e-04
4.94000000e-01	1.45107656e-02	1.43280554e-04
4.95000000e-01	1.43869935e-02	1.42978406e-04
4.96000000e-01	1.43766253e-02	1.47315914e-04
4.97000000e-01	1.44326435e-02	1.50659587e-04
4.98000000e-01	1.44548613e-02	1.52867002e-04
4.99000000e-01	1.43707033e-02	1.53794941e-04
5.00000000e-01	1.42624727e-02	1.54716941e-04
5.01000000e-01	1.44014501e-02	1.57037323e-04
5.02000000e-01	1.43979746e-02	1.59069821e-04
5.03000000e-01	1.44947728e-02	1.61580131e-04
5.04000000e-01	1.44019127e-02	1.61530037e-04
5.05000000e-01	1.43519355e-02	1.58493443e-04
5.06000000e-01	1.43756777e-02	1.55505965e-04
5.07000000e-01	1.43624266e-02	1.53961674e-04
5.08000000e-01	1.42499499e-02	1.51790563e-04
5.09000000e-01	1.43852909e-02	1.52265093e-04
5.10000000e-01	1.41850365e-02	1.50504682e-04
5.11000000e-01	1.43108309e-02	1.50821193e-04
5.12000000e-01	1.42673786e-02	1.49535921e-04
5.13000000e-01	1.42885667e-02	1.49926261e-04
5.14000000e-01	1.41984679e-02	1.48793927e-04
5.15000000e-01	1.43306641e-02	1.49371465e-04
5.16000000e-01	1.41525982e-02	1.47548445e-04
5.17000000e-01	1.42467163e-02	1.48445295e-04
5.18000000e-01	1.42351992e-02	1.48375111e-04
5.19000000e-01	1.41487755e-02	1.46510938e-04
5.20000000e-01	1.42458457e-02	1.47073136e-04
5.21000000e-01	1.42002442e-02	1.46343087e-04
5.22000000e-01	1.41287637e-02	1.46263092e-04
5.23000000e-01	1.42212842e-02	1.47065165e-04
5.24000000e-01	1.42304777e-02	1.46912517e-04
5.25000000e-01	1.41368389e-02	1.45797592e-04
5.26000000e-01	1.41490578e-02	1.45672107e-04
5.27000000e-01	1.41243910e-02	1.45413466e-04
5.28000000e-01	1.39517228e-02	1.44064842e-04
5.29000000e-01	1.41174178e-02	1.45694821e-04
5.30000000e-01	1.40868956e-02	1.45417180e-04
5.31000000e-01	1.40100696e-02	1.44951220e-04
5.32000000e-01	1.40067787e-02	1.44724878e-04
5.33000000e-01	1.41374439e-02	1.45885483e-04
5.34000000e-01	1.40020908e-02	1.45065308e-04
5.35000000e-01	1.40208741e-02	1.45058266e-04
5.36000000e-01	1.39239447e-02	1.44075172e-04
5.37000000e-01	1.39568971e-02	1.44084166e-04
5.38000000e-01	1.41203244e-02	1.45515691e-04
5.39000000e-01	1.38912520e-02	1.43228371e-04
5.40000000e-01	1.40509826e-02	1.45167482e-04
5.41000000e-01	1.41212628e-02	1.45549543e-04
5.42000000e-01	1.39366444e-02	1.44048701e-04
5.43000000e-01	1.39661083e-02	1.44194803e-04
5.44000000e-01	1.39954137e-02	1.44477455e-04
5.45000000e-01	1.38970054e-02	1.43131130e-04
5.46000000e-01	1.38583302e-02	1.43270509e-04
5.47000000e-01	1.39727485e-02	1.43946361e-04
5.48000000e-01	1.39362016e-02	1.44017981e-04
5.49000000e-01	1.38353608e-02	1.42616381e-04
5.50000000e-01	1.38907765e-02	1.43329722e-04
5.51000000e-01	1.38794343e-02	1.43241317e-04
5.52000000e-01	1.38449719e-02	1.42001032e-04
5.53000000e-01	1.37587439e-02	1.41338324e-04
5.54000000e-01	1.37522291e-02	1.41067812e-04
5.55000000e-01	1.37553960e-02	1.41347376e-04
5.56000000e-01	1.37525549e-02	1.41037566e-04
5.57000000e-01	1.38211003e-02	1.41803575e-04
5.58000000e-01	1.37443281e-02	1.41535337e-04
5.59000000e-01	1.37824090e-02	1.41587732e-04
5.60000000e-01	1.39130728e-02	1.42560216e-04
5.61000000e-01	1.37112186e-02	1.39945441e-04
5.62000000e-01	1.37221255e-02	1.41497548e-04
5.63000000e-01	1.36989808e-02	1.40597329e-04
5.64000000e-01	1.37373692e-02	1.40773167e-04
5.65000000e-01	1.36567349e-02	1.40253704e-04
5.66000000e-01	1.37785595e-02	1.41437217e-04
5.67000000e-01	1.37071990e-02	1.40737194e-04
5.68000000e-01	1.36009440e-02	1.40066547e-04
5.69000000e-01	1.37046534e-02	1.40146640e-04
5.70000000e-01	1.37772328e-02	1.41014664e-04
5.71000000e-01	1.36366989e-02	1.40039967e-04
5.72000000e-01	1.36067059e-02	1.39471764e-04
5.73000000e-01	1.35909042e-02	1.39808549e-04
5.74000000e-01	1.36602033e-02	1.40479464e-04
5.75000000e-01	1.35192230e-02	1.38886036e-04
5.76000000e-01	1.36823600e-02	1.40598830e-04
5.77000000e-01	1.35519827e-02	1.39063173e-04
5.78000000e-01	1.36444611e-02	1.40327578e-04
5.79000000e-01	1.35401643e-02	1.39123454e-04
5.80000000e-01	1.36203742e-02	1.39762831e-04
5.81000000e-01	1.36185112e-02	1.40042614e-04
5.82000000e-01	1.36005374e-02	1.40229396e-04
5.83000000e-01	1.35793630e-02	1.39548185e-04
5.84000000e-01	1.34573710e-02	1.38995816e-04
5.85000000e-01	1.35019520e-02	1.39410068e-04
5.86000000e-01	1.34308519e-02	1.38953649e-04
5.87000000e-01	1.34773978e-02	1.38692453e-04
5.88000000e-01	1.35495772e-02	1.39819021e-04
5.89000000e-01	1.34180779e-02	1.38806200e-04
5.90000000e-01	1.34131374e-02	1.38444377e-04
5.91000000e-01	1.33767005e-02	1.38376772e-04
5.92000000e-01	1.35866573e-02	1.40445474e-04
5.93000000e-01	1.35006976e-02	1.39612638e-04
5.94000000e-01	1.34092168e-02	1.38457666e-04
5.95000000e-01	1.34478548e-02	1.39030184e-04
5.96000000e-01	1.33568919e-02	1.37813738e-04
5.97000000e-01	1.33876064e-02	1.38516043e-04
5.98000000e-01	1.33662612e-02	1.38238733e-04
5.99000000e-01	1.32776900e-02	1.37290589e-04
6.00000000e-01	1.33557181e-02	1.38031642e-04
6.01000000e-01	1.32223111e-02	1.36666016e-04
6.02000000e-01	1.34492447e-02	1.38909189e-04
6.03000000e-01	1.33269998e-02	1.37599303e-04
6.04000000e-01	1.33021194e-02	1.37973329e-04
6.05000000e-01	1.34112633e-02	1.38598031e-04
6.06000000e-01	1.34179403e-02	1.39065886e-04
6.07000000e-01	1.33651956e-02	1.38210925e-04
6.08000000e-01	1.32223381e-02	1.36976237e-04
6.09000000e-01	1.32519850e-02	1.37178643e-04
6.10000000e-01	1.32454944e-02	1.37204902e-04
6.11000000e-01	1.33015584e-02	1.38487293e-04
6.12000000e-01	1.33329155e-02	1.38378901e-04
6.13000000e-01	1.32282589e-02	1.37397106e-04
6.14000000e-01	1.31919491e-02	1.36518559e-04
6.15000000e-01	1.32392610e-02	1.37532637e-04
6.16000000e-01	1.33045817e-02	1.37921831e-04
6.17000000e-01	1.33222209e-02	1.38475141e-04
6.18000000e-01	1.31585282e-02	1.36669623e-04
6.19000000e-01	1.32042309e-02	1.36923356e-04
6.20000000e-01	1.31496952e-02	1.35952700e-04
6.21000000e-01	1.30653362e-02	1.34993967e-04
6.22000000e-01	1.30355117e-02	1.35445136e-04
6.23000000e-01	1.31314665e-02	1.35778587e-04
6.24000000e-01	1.31346511e-02	1.35044032e-04
6.25000000e-01	1.31360174e-02	1.35211969e-04
6.26000000e-01	1.31498908e-02	1.35078160e-04
6.27000000e-01	1.31540577e-02	1.35577395e-04
6.28000000e-01	1.32102817e-02	1.35926706e-04
6.29000000e-01	1.31943480e-02	1.35553815e-04
6.30000000e-01	1.31300193e-02	1.35087322e-04
6.31000000e-01	1.31110454e-02	1.35396283e-04
6.32000000e-01	1.30415210e-02	1.34726428e-04
6.33000000e-01	1.31362475e-02	1.35290889e-04
6.34000000e-01	1.30190284e-02	1.38130364e-04
6.35000000e-01	1.31702583e-02	1.42999127e-04
6.36000000e-01	1.31342986e-02	1.45592735e-04
6.37000000e-01	1.31151151e-02	1.47891987e-04
6.38000000e-01	1.31184622e-02	1.49580436e-04
6.39000000e-01	1.30131787e-02	1.50662621e-04
6.40000000e-01	1.31798944e-02	1.54349114e-04
6.41000000e-01	1.31402888e-02	1.55061135e-04
6.42000000e-01	1.32108748e-02	1.57560443e-04
6.43000000e-01	1.30787229e-02	1.56448363e-04
6.44000000e-01	1.32174927e-02	1.51785678e-04
6.45000000e-01	1.31265704e-02	1.48913189e-04
6.46000000e-01	1.32156300e-02	1.48598283e-04
6.47000000e-01	1.31898085e-02	1.46942009e-04
6.48000000e-01	1.31592417e-02	1.46025937e-04
6.49000000e-01	1.30892642e-02	1.44252524e-04
6.50000000e-01	1.32664981e-02	1.45035922e-04
6.51000000e-01	1.31993918e-02	1.44772508e-04
6.52000000e-01	1.32212105e-02	1.43802444e-04
6.53000000e-01	1.31649648e-02	1.42799931e-04
6.54000000e-01	1.31455315e-02	1.42056382e-04
6.55000000e-01	1.30232331e-02	1.40500929e-04
6.56000000e-01	1.31151414e-02	1.41632903e-04
6.57000000e-01	1.30876882e-02	1.40834989e-04
6.58000000e-01	1.31413645e-02	1.41231654e-04
6.59000000e-01	1.30439584e-02	1.40226818e-04
6.60000000e-01	1.31977504e-02	1.41887989e-04
6.61000000e-01	1.31604098e-02	1.40925567e-04
6.62000000e-01	1.31731904e-02	1.41366037e-04
6.63000000e-01	1.30315833e-02	1.39901906e-04
6.64000000e-01	1.30558579e-02	1.39339691e-04
6.65000000e-01	1.29353272e-02	1.38638857e-04
6.66000000e-01	1.29489534e-02	1.38679310e-04
6.67000000e-01	1.30576373e-02	1.39831632e-04
6.68000000e-01	1.30545563e-02	1.39379895e-04
6.69000000e-01	1.30088106e-02	1.38785207e-04
6.70000000e-01	1.30172964e-02	1.38902739e-04
6.71000000e-01	1.31000370e-02	1.40034301e-04
6.72000000e-01	1.30012357e-02	1.38719835e-04
6.73000000e-01	1.30910625e-02	1.39451371e-04
6.74000000e-01	1.30367900e-02	1.39432673e-04
6.75000000e-01	1.28666479e-02	1.36815695e-04
6.76000000e-01	1.29031105e-02	1.37722136e-04
6.77000000e-01	1.28860177e-02	1.37410633e-04
6.78000000e-01	1.28480041e-02	1.37155877e-04
6.79000000e-01	1.29940355e-02	1.38375401e-04
6.80000000e-01	1.28658007e-02	1.37189652e-04
6.81000000e-01	1.28790950e-02	1.36992683e-04
6.82000000e-01	1.28086028e-02	1.37123205e-04
6.83000000e-01	1.27727761e-02	1.36471699e-04
6.84000000e-01	1.29066711e-02	1.36913206e-04
6.85000000e-01	1.29475394e-02	1.37627777e-04
6.86000000e-01	1.29067111e-02	1.37127728e-04
6.87000000e-01	1.28145726e-02	1.36461485e-04
6.88000000e-01	1.27078844e-02	1.35849411e-04
6.89000000e-01	1.26379982e-02	1.34750237e-04
6.90000000e-01	1.27630666e-02	1.35936954e-04
6.91000000e-01	1.26562130e-02	1.34829252e-04
6.92000000e-01	1.27229567e-02	1.35691383e-04
6.93000000e-01	1.27718450e-02	1.35986641e-04
6.94000000e-01	1.28401596e-02	1.36239179e-04
6.95000000e-01	1.27727875e-02	1.35519895e-04
6.96000000e-01	1.27098505e-02	1.35340292e-04
6.97000000e-01	1.27088320e-02	1.34898259e-04
6.98000000e-01	1.25837269e-02	1.33581744e-04
6.99000000e-01	1.26339787e-02	1.34175634e-04
7.00000000e-01	1.26064846e-02	1.34119939e-04
7.01000000e-01	1.26251113e-02	1.34139971e-04
7.02000000e-01	1.27289853e-02	1.35122320e-04
7.03000000e-01	1.25248890e-02	1.33275254e-04
7.04000000e-01	1.27320404e-02	1.35602948e-04
7.05000000e-01	1.27504266e-02	1.35662059e-04
7.06000000e-01	1.26373029e-02	1.34389758e-04
7.07000000e-01	1.26307336e-02	1.34390933e-04
7.08000000e-01	1.26393121e-02	1.33986540e-04
7.09000000e-01	1.25870128e-02	1.33649045e-04
7.10000000e-01	1.24795471e-02	1.32443919e-04
7.11000000e-01	1.24687075e-02	1.32710137e-04
7.12000000e-01	1.26539774e-02	1.34374992e-04
7.13000000e-01	1.24629420e-02	1.32813079e-04
7.14000000e-01	1.25045803e-02	1.32810439e-04
7.15000000e-01	1.25853648e-02	1.33593115e-04
7.16000000e-01	1.25682555e-02	1.33303380e-04
7.17000000e-01	1.24860361e-02	1.32718985e-04
7.18000000e-01	1.25895020e-02	1.33922691e-04
7.19000000e-01	1.25433629e-02	1.33194797e-04
7.20000000e-01	1.25269749e-02	1.33543874e-04
7.21000000e-01	1.26170332e-02	1.34031256e-04
7.22000000e-01	1.23371297e-02	1.31351659e-04
7.23000000e-01	1.24678736e-02	1.32881186e-04
7.24000000e-01	1.24217873e-02	1.32007875e-04
7.25000000e-01	1.23979331e-02	1.31439904e-04
7.26000000e-01	1.23168625e-02	1.31037693e-04
7.27000000e-01	1.24871137e-02	1.32916131e-04
7.28000000e-01	1.22661963e-02	1.30574276e-04
7.29000000e-01	1.23297125e-02	1.31694181e-04
7.30000000e-01	1.23637528e-02	1.31735488e-04
7.31000000e-01	1.22729659e-02	1.30696656e-04
7.32000000e-01	1.22534832e-02	1.30892401e-04
7.33000000e-01	1.22825830e-02	1.30742542e-04
7.34000000e-01	1.23367712e-02	1.31241290e-04
7.35000000e-01	1.22754216e-02	1.30518443e-04
7.36000000e-01	1.23315881e-02	1.30667803e-04
7.37000000e-01	1.22880367e-02	1.29896745e-04
7.38000000e-01	1.22635507e-02	1.30342996e-04
7.39000000e-01	1.22296163e-02	1.28793989e-04
7.40000000e-01	1.22745803e-02	1.29620484e-04
7.41000000e-01	1.22542930e-02	1.29514426e-04
7.42000000e-01	1.23532939e-02	1.30378703e-04
7.43000000e-01	1.23321446e-02	1.29862870e-04
7.44000000e-01	1.21271454e-02	1.28358232e-04
7.45000000e-01	1.22261179e-02	1.29175760e-04
7.46000000e-01	1.22679585e-02	1.29217079e-04
7.47000000e-01	1.21206749e-02	1.27621392e-04
7.48000000e-01	1.22684579e-02	1.29408261e-04
7.49000000e-01	1.22111470e-02	1.28483875e-04
7.50000000e-01	1.21664205e-02	1.28479503e-04
7.51000000e-01	1.22160698e-02	1.28679488e-04
7.52000000e-01	1.22116824e-02	1.28798080e-04
7.53000000e-01	1.21302788e-02	1.28339287e-04
7.54000000e-01	1.21168480e-02	1.28137830e-04
7.55000000e-01	1.21499387e-02	1.28045125e-04
7.56000000e-01	1.21735110e-02	1.28255059e-04
7.57000000e-01	1.20239756e-02	1.26649298e-04
7.58000000e-01	1.21663485e-02	1.28102188e-04
7.59000000e-01	1.22664573e-02	1.29423651e-04
7.60000000e-01	1.20837906e-02	1.27393014e-04
7.61000000e-01	1.20827367e-02	1.26705531e-04
7.62000000e-01	1.19695625e-02	1.25670206e-04
7.63000000e-01	1.20228986e-02	1.26131668e-04
7.64000000e-01	1.20515981e-02	1.26496696e-04
7.65000000e-01	1.20217497e-02	1.26313737e-04
7.66000000e-01	1.19839961e-02	1.25873111e-04
7.67000000e-01	1.19326541e-02	1.24946402e-04
7.68000000e-01	1.20745734e-02	1.26437374e-04
7.69000000e-01	1.18936139e-02	1.24456323e-04
7.70000000e-01	1.19105597e-02	1.25164189e-04
7.71000000e-01	1.20784424e-02	1.26187763e-04
7.72000000e-01	1.19890174e-02	1.29211516e-04
7.73000000e-01	1.20121869e-02	1.33862887e-04
7.74000000e-01	1.18670255e-02	1.34902701e-04
7.75000000e-01	1.20076532e-02	1.38521560e-04
7.76000000e-01	1.18917887e-02	1.39694206e-04
7.77000000e-01	1.19284572e-02	1.42185379e-04
7.78000000e-01	1.17333754e-02	1.42420103e-04
7.79000000e-01	1.19255733e-02	1.45526738e-04
7.80000000e-01	1.19527424e-02	1.46666365e-04
7.81000000e-01	1.18571191e-02	1.48091661e-04
7.82000000e-01	1.19139010e-02	1.50865887e-04
7.83000000e-01	1.17952090e-02	1.51222132e-04
7.84000000e-01	1.17240867e-02	1.52433461e-04
7.85000000e-01	1.18469979e-02	1.54518740e-04
7.86000000e-01	1.16877554e-02	1.54128752e-04
7.87000000e-01	1.16909827e-02	1.55758915e-04
7.88000000e-01	1.17118364e-02	1.58180250e-04
7.89000000e-01	1.19982507e-02	1.62749320e-04
7.90000000e-01	1.16974367e-02	1.60821918e-04
7.91000000e-01	1.16693434e-02	1.61460409e-04
7.92000000e-01	1.16266080e-02	1.63333528e-04
7.93000000e-01	1.16284009e-02	1.65226049e-04
7.94000000e-01	1.17129564e-02	1.67926335e-04
7.95000000e-01	1.16384149e-02	1.68320929e-04
7.96000000e-01	1.16556984e-02	1.70169122e-04
7.97000000e-01	1.15463132e-02	1.69929285e-04
7.98000000e-01	1.15517944e-02	1.71581494e-04
7.99000000e-01	1.16224965e-02	1.75409074e-04
8.00000000e-01	1.16980896e-02	1.76967876e-04
8.01000000e-01	1.15915869e-02	1.77945476e-04
8.02000000e-01	1.14572562e-02	1.76902348e-04
8.03000000e-01	1.16397414e-02	1.82751187e-04
8.04000000e-01	1.15255349e-02	1.82653387e-04
8.05000000e-01	1.16243963e-02	1.86537277e-04
8.06000000e-01	1.14645345e-02	1.85056825e-04
8.07000000e-01	1.14947826e-02	1.89359526e-04
8.08000000e-01	1.16441291e-02	1.91687439e-04
8.09000000e-01	1.14716206e-02	1.92244306e-04
8.10000000e-01	1.15342335e-02	1.94553256e-04
8.11000000e-01	1.14096876e-02	1.93628715e-04
8.12000000e-01	1.13827423e-02	1.97641341e-04
8.13000000e-01	1.14535781e-02	2.00334330e-04
8.14000000e-01	1.16086746e-02	2.04879133e-04
8.15000000e-01	1.15241851e-02	2.06247725e-04
8.16000000e-01	1.11294638e-02	2.02554348e-04
8.17000000e-01	1.12792246e-02	2.07316442e-04
8.18000000e-01	1.15178249e-02	2.14189322e-04
8.19000000e-01	1.15283754e-02	2.15925841e-04
8.20000000e-01	1.13785996e-02	2.17220238e-04
8.21000000e-01	1.14565237e-02	2.20444749e-04
8.22000000e-01	1.12919956e-02	2.21110412e-04
8.23000000e-01	1.11819315e-02	2.23486402e-04
8.24000000e-01	1.13593400e-02	2.29259935e-04
8.25000000e-01	1.10866535e-02	2.27377307e-04
8.26000000e-01	1.11863896e-02	2.33324180e-04
8.27000000e-01	1.10849226e-02	2.34007348e-04
8.28000000e-01	1.12155147e-02	2.39109993e-04
8.29000000e-01	1.13791708e-02	2.47801656e-04
8.30000000e-01	1.09650598e-02	2.43079219e-04
8.31000000e-01	1.13091765e-02	2.53261811e-04
8.32000000e-01	1.11851786e-02	2.55810641e-04
8.33000000e-01	1.10444583e-02	2.57208205e-04
8.34000000e-01	1.10516115e-02	2.60281888e-04
8.35000000e-01	1.13293413e-02	2.71827951e-04
8.36000000e-01	1.09513424e-02	2.67587277e-04
8.37000000e-01	1.09483075e-02	2.73900021e-04
8.38000000e-01	1.08392324e-02	2.77858081e-04
8.39000000e-01	1.10940951e-02	2.87050888e-04
8.40000000e-01	1.10240028e-02	2.91435679e-04
8.41000000e-01	1.11734355e-02	3.02160866e-04
8.42000000e-01	1.10509573e-02	3.05125620e-04
8.43000000e-01	1.09947239e-02	3.10729476e-04
8.44000000e-01	1.14641854e-02	3.30242419e-04
8.45000000e-01	1.09242393e-02	3.27187521e-04
8.46000000e-01	1.10369903e-02	3.36404376e-04
8.47000000e-01	1.09699405e-02	3.46126825e-04
8.48000000e-01	1.05153798e-02	3.44709571e-04
8.49000000e-01	1.07766352e-02	3.63279398e-04
8.50000000e-01	1.08230414e-02	3.75734569e-04
8.51000000e-01	1.09186870e-02	3.94724053e-04
8.52000000e-01	1.01557524e-02	3.87742162e-04
8.53000000e-01	1.10835398e-02	4.31730484e-04
8.54000000e-01	1.11502102e-02	4.60541142e-04
8.55000000e-01	1.07534856e-02	4.53740527e-04
8.56000000e-01	1.10591488e-02	4.80800745e-04
8.57000000e-01	1.08656935e-02	4.82546285e-04
8.58000000e-01	1.07224184e-02	4.89556449e-04
8.59000000e-01	1.04422717e-02	4.95505643e-04
8.60000000e-01	1.06267215e-02	5.30484096e-04
8.61000000e-01	1.06386586e-02	5.34387561e-04
8.62000000e-01	1.08492547e-02	5.70685638e-04
8.63000000e-01	1.03372840e-02	5.64131566e-04
8.64000000e-01	1.02590405e-02	5.95266635e-04
8.65000000e-01	1.01277403e-02	6.11283936e-04
8.66000000e-01	1.02999332e-02	6.49206026e-04
8.67000000e-01	1.05459534e-02	6.98049181e-04
8.68000000e-01	1.09281651e-02	7.55853440e-04
8.69000000e-01	1.07131429e-02	8.29993187e-04
8.70000000e-01	1.20434630e-02	9.84723520e-04
8.71000000e-01	1.02060899e-02	9.62446206e-04
8.72000000e-01	9.43925965e-03	9.85766462e-04
8.73000000e-01	1.11205739e-02	1.39368485e-03
8.74000000e-01	1.16256325e-02	1.89270937e-03
8.75000000e-01	9.78299604e-03	3.53320419e-03
