% Filename : SNCHoHie_2_00048_00020.h5
% Date & Time : 30-Oct-2025 18:15:41
% X-ray Energy (keV) : 13.30001
% Exposure Time (s) : 0.500
% Beam Center : 1461.24000, 208.98300
% Sample to Detector Distance (SDD) (mm) : 1990.750
% Detector Pixel Size (mm) : 0.075
% Photodiode Value : 141187.000
% I0 of Sample : 0
% I0 of Standard : 1
% 
% q(A^-1)   I(q)    I(q)_SE
0.00000000e+00	1.40759035e-02	7.99126089e-03
2.50000000e-04	0.00000000e+00	0.00000000e+00
5.00000000e-04	0.00000000e+00	0.00000000e+00
7.50000000e-04	0.00000000e+00	0.00000000e+00
1.00000000e-03	0.00000000e+00	0.00000000e+00
1.25000000e-03	0.00000000e+00	0.00000000e+00
1.50000000e-03	0.00000000e+00	0.00000000e+00
1.75000000e-03	0.00000000e+00	0.00000000e+00
2.00000000e-03	0.00000000e+00	0.00000000e+00
2.25000000e-03	0.00000000e+00	0.00000000e+00
2.50000000e-03	0.00000000e+00	0.00000000e+00
2.75000000e-03	0.00000000e+00	0.00000000e+00
3.00000000e-03	0.00000000e+00	0.00000000e+00
3.25000000e-03	2.83616987e+02	2.79920208e+02
3.50000000e-03	1.51368097e+01	8.07803166e+00
3.75000000e-03	4.62416619e+01	3.29070210e+01
4.00000000e-03	2.59732346e+01	1.61051248e+01
4.25000000e-03	1.46518574e+01	8.95600343e+00
4.50000000e-03	1.76074108e+01	9.02707325e+00
4.75000000e-03	1.47838683e+01	6.62737265e+00
5.00000000e-03	1.14426736e+01	5.30035396e+00
5.25000000e-03	1.01022721e+01	4.97144697e+00
5.50000000e-03	7.79192433e+00	3.71306363e+00
5.75000000e-03	6.63545761e+00	3.35397300e+00
6.00000000e-03	5.31287221e+00	2.59691402e+00
6.25000000e-03	4.48665462e+00	2.11192428e+00
6.50000000e-03	3.97361958e+00	1.80320448e+00
6.75000000e-03	3.28870332e+00	1.43461086e+00
7.00000000e-03	2.90130832e+00	1.19766693e+00
7.25000000e-03	2.49367738e+00	1.06439317e+00
7.50000000e-03	2.24835752e+00	9.68086961e-01
7.75000000e-03	1.89025460e+00	8.29334945e-01
8.00000000e-03	1.65852140e+00	7.18890011e-01
8.25000000e-03	1.45700243e+00	6.40795896e-01
8.50000000e-03	1.26254443e+00	5.76404233e-01
8.75000000e-03	1.14876796e+00	5.17875447e-01
9.00000000e-03	1.03658794e+00	4.62412127e-01
9.25000000e-03	9.03629123e-01	3.86180125e-01
9.50000000e-03	7.90373639e-01	3.21804402e-01
9.75000000e-03	7.25415692e-01	2.85854274e-01
1.00000000e-02	6.29424273e-01	2.40207335e-01
1.02500000e-02	4.21505338e-01	1.63620278e-01
1.05000000e-02	5.32513690e-01	2.15699902e-01
1.07500000e-02	4.86319434e-01	1.92349006e-01
1.10000000e-02	4.42542668e-01	1.72586314e-01
1.12500000e-02	4.13433044e-01	1.68612067e-01
1.15000000e-02	3.68095074e-01	1.47883731e-01
1.17500000e-02	3.27180520e-01	1.30116291e-01
1.20000000e-02	3.11565482e-01	1.19282742e-01
1.22500000e-02	2.96244737e-01	1.11993480e-01
1.25000000e-02	2.69170278e-01	9.67232413e-02
1.27500000e-02	2.47669122e-01	8.39092553e-02
1.30000000e-02	2.35010224e-01	7.95169566e-02
1.32500000e-02	2.10423149e-01	7.08866889e-02
1.35000000e-02	2.03986908e-01	6.77921210e-02
1.37500000e-02	1.83675071e-01	5.91416620e-02
1.40000000e-02	1.70790016e-01	5.54054230e-02
1.42500000e-02	1.62958361e-01	5.17672417e-02
1.45000000e-02	1.54397840e-01	4.87165241e-02
1.47500000e-02	1.44005489e-01	4.60959561e-02
1.50000000e-02	1.33699882e-01	4.19402153e-02
1.52500000e-02	1.28990017e-01	3.89953734e-02
1.55000000e-02	1.07054073e-01	3.38078799e-02
1.57500000e-02	1.08309848e-01	2.98141802e-02
1.60000000e-02	1.01547693e-01	2.65731830e-02
1.62500000e-02	1.01208821e-01	2.66166509e-02
1.65000000e-02	9.74983075e-02	2.55926667e-02
1.67500000e-02	9.24017188e-02	2.35434605e-02
1.70000000e-02	8.82828097e-02	2.32609012e-02
1.72500000e-02	8.24951131e-02	2.07492491e-02
1.75000000e-02	8.04036868e-02	2.07429064e-02
1.77500000e-02	7.71098263e-02	1.98405770e-02
1.80000000e-02	7.24548129e-02	1.77517089e-02
1.82500000e-02	7.03179789e-02	1.58652581e-02
1.85000000e-02	7.25023763e-02	1.68603131e-02
1.87500000e-02	6.29731398e-02	1.30053819e-02
1.90000000e-02	6.35234801e-02	1.23027796e-02
1.92500000e-02	6.10590069e-02	1.16882101e-02
1.95000000e-02	5.86843822e-02	1.11955164e-02
1.97500000e-02	5.71399496e-02	1.09199153e-02
2.00000000e-02	5.42809977e-02	1.04872491e-02
2.02500000e-02	5.45309570e-02	9.95392168e-03
2.05000000e-02	5.16169342e-02	9.42041162e-03
2.07500000e-02	4.98310749e-02	9.51894658e-03
2.10000000e-02	4.93020403e-02	8.79635203e-03
2.12500000e-02	4.85065238e-02	8.34651771e-03
2.15000000e-02	4.81195963e-02	7.56347227e-03
2.17500000e-02	4.70688640e-02	6.82096800e-03
2.20000000e-02	4.64073111e-02	6.76569641e-03
2.22500000e-02	4.29474395e-02	6.53196308e-03
2.25000000e-02	4.51454620e-02	6.28996541e-03
2.27500000e-02	4.16266166e-02	5.81562550e-03
2.30000000e-02	4.20066796e-02	5.90609910e-03
2.32500000e-02	4.02005355e-02	5.16153241e-03
2.35000000e-02	4.18146649e-02	5.93590492e-03
2.37500000e-02	4.05043821e-02	5.43321159e-03
2.40000000e-02	3.91778514e-02	5.05373192e-03
2.42500000e-02	3.88993630e-02	4.93882281e-03
2.45000000e-02	3.78429479e-02	4.69805186e-03
2.47500000e-02	3.91498207e-02	4.49033700e-03
2.50000000e-02	3.79016583e-02	4.51449821e-03
2.52500000e-02	3.70069578e-02	3.95865390e-03
2.55000000e-02	3.68666141e-02	4.21360810e-03
2.57500000e-02	3.60264744e-02	3.82269321e-03
2.60000000e-02	3.46944068e-02	3.61520761e-03
2.62500000e-02	3.43311826e-02	3.48883807e-03
2.65000000e-02	3.49617740e-02	3.54335253e-03
2.67500000e-02	3.40220898e-02	3.52887701e-03
2.70000000e-02	3.34935453e-02	3.28748523e-03
2.72500000e-02	3.31174612e-02	2.99811450e-03
2.75000000e-02	3.34089871e-02	3.08851972e-03
2.77500000e-02	3.18542940e-02	2.72019924e-03
2.80000000e-02	3.16780269e-02	2.62125494e-03
2.82500000e-02	3.17478863e-02	2.53926460e-03
2.85000000e-02	3.15862011e-02	2.71082578e-03
2.87500000e-02	3.24901438e-02	2.50171684e-03
2.90000000e-02	3.09650714e-02	2.28936188e-03
2.92500000e-02	3.01782618e-02	2.12643941e-03
2.95000000e-02	3.05217684e-02	2.07937609e-03
2.97500000e-02	3.10478183e-02	2.28892123e-03
3.00000000e-02	2.98101497e-02	2.11650489e-03
3.02500000e-02	3.02609153e-02	2.20906049e-03
3.05000000e-02	3.08648080e-02	2.05800920e-03
3.07500000e-02	2.95284512e-02	1.93671372e-03
3.10000000e-02	2.94201049e-02	1.85833544e-03
3.12500000e-02	3.01099447e-02	2.02860648e-03
3.15000000e-02	2.96330050e-02	1.92628233e-03
3.17500000e-02	3.02841216e-02	1.87286114e-03
3.20000000e-02	3.00142857e-02	1.81853747e-03
3.22500000e-02	2.86023564e-02	1.79524254e-03
3.25000000e-02	2.89133713e-02	1.76841074e-03
3.27500000e-02	2.89017480e-02	1.74859076e-03
3.30000000e-02	2.80348466e-02	1.64128168e-03
3.32500000e-02	2.82180724e-02	1.62554661e-03
3.35000000e-02	2.76204690e-02	1.56749889e-03
3.37500000e-02	2.71264607e-02	1.55227747e-03
3.40000000e-02	2.73125148e-02	1.51379119e-03
3.42500000e-02	2.75404107e-02	1.52745316e-03
3.45000000e-02	2.70240094e-02	1.51129705e-03
3.47500000e-02	2.66409465e-02	1.44725714e-03
3.50000000e-02	2.61146346e-02	1.43922355e-03
3.52500000e-02	2.68850592e-02	1.44629420e-03
3.55000000e-02	2.55613260e-02	1.40013756e-03
3.57500000e-02	2.70207277e-02	1.39788002e-03
3.60000000e-02	2.60655962e-02	1.36003674e-03
3.62500000e-02	2.67078630e-02	1.34192850e-03
3.65000000e-02	2.65270405e-02	1.39242283e-03
3.67500000e-02	2.59189541e-02	1.36158140e-03
3.70000000e-02	2.56544417e-02	1.33552174e-03
3.72500000e-02	2.52283850e-02	1.30939259e-03
3.75000000e-02	2.56719866e-02	1.30573517e-03
3.77500000e-02	2.53471147e-02	1.24281291e-03
3.80000000e-02	2.48239246e-02	1.25178743e-03
3.82500000e-02	2.60321809e-02	1.26026807e-03
3.85000000e-02	2.48555324e-02	1.25286581e-03
3.87500000e-02	2.48344385e-02	1.19250009e-03
3.90000000e-02	2.46327657e-02	1.22186616e-03
3.92500000e-02	2.55479264e-02	1.20535083e-03
3.95000000e-02	2.48113894e-02	1.21288956e-03
3.97500000e-02	2.40072202e-02	1.15748001e-03
4.00000000e-02	2.51769431e-02	1.21107369e-03
4.02500000e-02	2.47897549e-02	1.17563602e-03
4.05000000e-02	2.32634098e-02	1.09578161e-03
4.07500000e-02	2.41167624e-02	1.14688587e-03
4.10000000e-02	2.40630484e-02	1.12656446e-03
4.12500000e-02	2.41104461e-02	1.15348494e-03
4.15000000e-02	2.38184614e-02	1.09711735e-03
4.17500000e-02	2.38433434e-02	1.08752038e-03
4.20000000e-02	2.41624415e-02	1.09266306e-03
4.22500000e-02	2.37950524e-02	1.06791987e-03
4.25000000e-02	2.40638762e-02	1.07736576e-03
4.27500000e-02	2.40011412e-02	1.07563602e-03
4.30000000e-02	2.34399342e-02	1.05378910e-03
4.32500000e-02	2.34024204e-02	1.04924837e-03
4.35000000e-02	2.35907466e-02	1.05857203e-03
4.37500000e-02	2.32937245e-02	1.03013284e-03
4.40000000e-02	2.40181346e-02	1.05077452e-03
4.42500000e-02	2.35451195e-02	1.04991265e-03
4.45000000e-02	2.40618745e-02	1.05121899e-03
4.47500000e-02	2.37808033e-02	1.04461793e-03
4.50000000e-02	2.35023334e-02	1.02753859e-03
4.52500000e-02	2.37049573e-02	1.00179416e-03
4.55000000e-02	2.27082649e-02	9.80815683e-04
4.57500000e-02	2.31209220e-02	9.93394215e-04
4.60000000e-02	2.34930180e-02	1.00675745e-03
4.62500000e-02	2.30369642e-02	9.79655909e-04
4.65000000e-02	2.31248719e-02	9.83548047e-04
4.67500000e-02	2.34988172e-02	9.94234689e-04
4.70000000e-02	2.27181483e-02	9.58462407e-04
4.72500000e-02	2.33209529e-02	9.87534396e-04
4.75000000e-02	2.25671655e-02	9.53186855e-04
4.77500000e-02	2.27635883e-02	9.40016077e-04
4.80000000e-02	2.27806725e-02	9.49256046e-04
4.82500000e-02	2.28130563e-02	9.59838247e-04
4.85000000e-02	2.26202902e-02	9.50164156e-04
4.87500000e-02	2.29327068e-02	9.55643989e-04
4.90000000e-02	2.23825687e-02	9.25366961e-04
4.92500000e-02	2.21542597e-02	9.15728562e-04
4.95000000e-02	2.24772235e-02	9.06232251e-04
4.97500000e-02	2.25268677e-02	9.30629446e-04
5.00000000e-02	2.19103928e-02	8.99442388e-04
5.02500000e-02	2.19471355e-02	8.85558849e-04
5.05000000e-02	2.27392223e-02	9.19117300e-04
5.07500000e-02	2.24223028e-02	9.05154958e-04
5.10000000e-02	2.22146066e-02	8.91581716e-04
5.12500000e-02	2.27949614e-02	9.17444654e-04
5.15000000e-02	2.23076830e-02	8.87283596e-04
5.17500000e-02	2.24419022e-02	8.98183815e-04
5.20000000e-02	2.16844874e-02	8.71195643e-04
5.22500000e-02	2.22073517e-02	8.89777523e-04
5.25000000e-02	2.22129718e-02	8.73916057e-04
5.27500000e-02	2.21744542e-02	8.77782699e-04
5.30000000e-02	2.17324361e-02	8.57291560e-04
5.32500000e-02	2.16960523e-02	8.58232463e-04
5.35000000e-02	2.19699848e-02	8.62884007e-04
5.37500000e-02	2.15145965e-02	8.48512817e-04
5.40000000e-02	2.09802736e-02	8.25295179e-04
5.42500000e-02	2.18997860e-02	8.53024514e-04
5.45000000e-02	2.08722772e-02	8.22828732e-04
5.47500000e-02	2.13963149e-02	8.39155375e-04
5.50000000e-02	2.18673689e-02	8.58051340e-04
5.52500000e-02	2.17515073e-02	8.43068092e-04
5.55000000e-02	2.19992824e-02	8.47429914e-04
5.57500000e-02	2.20922106e-02	8.56347830e-04
5.60000000e-02	2.19461182e-02	8.48681610e-04
5.62500000e-02	2.19138781e-02	8.43917381e-04
5.65000000e-02	2.13202023e-02	8.31303483e-04
5.67500000e-02	2.14730342e-02	8.24874025e-04
5.70000000e-02	2.16689896e-02	8.18800616e-04
5.72500000e-02	2.22049190e-02	8.45247194e-04
5.75000000e-02	2.14046640e-02	8.19630143e-04
5.77500000e-02	2.20717573e-02	8.28939129e-04
5.80000000e-02	2.14012391e-02	8.23099243e-04
5.82500000e-02	2.12077859e-02	8.08960129e-04
5.85000000e-02	2.11376053e-02	7.97815436e-04
5.87500000e-02	2.15869685e-02	8.15739011e-04
5.90000000e-02	2.09623005e-02	7.89474496e-04
5.92500000e-02	2.11502379e-02	7.99110151e-04
5.95000000e-02	2.12540573e-02	7.98567239e-04
5.97500000e-02	2.13226470e-02	8.05092328e-04
6.00000000e-02	2.08740624e-02	7.78365633e-04
6.02500000e-02	2.10202451e-02	7.80289788e-04
6.05000000e-02	2.06056750e-02	7.69843598e-04
6.07500000e-02	2.09357449e-02	7.83592132e-04
6.10000000e-02	2.17885345e-02	8.11559079e-04
6.12500000e-02	2.12300877e-02	7.87177679e-04
6.15000000e-02	2.09143626e-02	7.73487671e-04
6.17500000e-02	2.07251888e-02	7.65910483e-04
6.20000000e-02	2.14164131e-02	7.89093899e-04
6.22500000e-02	2.12706516e-02	7.85585615e-04
6.25000000e-02	2.07969030e-02	7.63871942e-04
6.27500000e-02	2.05711729e-02	7.48773195e-04
6.30000000e-02	2.06052442e-02	7.59666374e-04
6.32500000e-02	2.06213134e-02	7.52799575e-04
6.35000000e-02	2.10896541e-02	7.64760010e-04
6.37500000e-02	2.10439470e-02	7.68395042e-04
6.40000000e-02	2.06695728e-02	7.50809088e-04
6.42500000e-02	2.05371032e-02	7.45012735e-04
6.45000000e-02	2.06540225e-02	7.51555933e-04
6.47500000e-02	2.12480539e-02	7.73668044e-04
6.50000000e-02	2.10854038e-02	7.63177981e-04
6.52500000e-02	2.12229080e-02	7.62693662e-04
6.55000000e-02	2.06683877e-02	7.44390914e-04
6.57500000e-02	2.02221653e-02	7.33755235e-04
6.60000000e-02	2.09823521e-02	7.52721166e-04
6.62500000e-02	2.08023334e-02	7.53753035e-04
6.65000000e-02	2.12406158e-02	7.61557122e-04
6.67500000e-02	2.06084651e-02	7.37002856e-04
6.70000000e-02	2.06305030e-02	7.36638143e-04
6.72500000e-02	2.03766376e-02	7.31111888e-04
6.75000000e-02	2.12089456e-02	7.49971836e-04
6.77500000e-02	2.02140435e-02	7.22766889e-04
6.80000000e-02	2.04289827e-02	7.27740242e-04
6.82500000e-02	2.10121405e-02	7.43168157e-04
6.85000000e-02	2.00497768e-02	7.18352645e-04
6.87500000e-02	2.07592075e-02	7.31407099e-04
6.90000000e-02	2.08187464e-02	7.28589486e-04
6.92500000e-02	2.09462780e-02	7.40220253e-04
6.95000000e-02	2.15478664e-02	7.49373644e-04
6.97500000e-02	1.99194085e-02	7.01787944e-04
7.00000000e-02	2.05994330e-02	7.18634752e-04
7.02500000e-02	2.07179730e-02	7.19931912e-04
7.05000000e-02	2.03415888e-02	7.07107306e-04
7.07500000e-02	2.05835926e-02	7.20238102e-04
7.10000000e-02	2.04563860e-02	7.05222577e-04
7.12500000e-02	2.04810446e-02	7.10602911e-04
7.15000000e-02	2.03995482e-02	7.02064149e-04
7.17500000e-02	2.02571382e-02	7.03292899e-04
7.20000000e-02	2.07501650e-02	7.20519843e-04
7.22500000e-02	2.10445967e-02	7.25027508e-04
7.25000000e-02	2.04442758e-02	7.03483780e-04
7.27500000e-02	2.01167527e-02	6.96928670e-04
7.30000000e-02	2.04723611e-02	7.03714000e-04
7.32500000e-02	2.05448307e-02	7.05204236e-04
7.35000000e-02	1.98650267e-02	6.83106767e-04
7.37500000e-02	2.01695457e-02	6.89755387e-04
7.40000000e-02	2.05261776e-02	6.99714370e-04
7.42500000e-02	2.05689082e-02	7.03017065e-04
7.45000000e-02	2.02388188e-02	6.85071444e-04
7.47500000e-02	2.00383454e-02	6.83622096e-04
7.50000000e-02	2.04630768e-02	6.99520384e-04
7.52500000e-02	2.05831473e-02	7.01803137e-04
7.55000000e-02	2.06872977e-02	6.99243149e-04
7.57500000e-02	2.04140707e-02	6.86338643e-04
7.60000000e-02	1.99874433e-02	6.79755742e-04
7.62500000e-02	2.01980826e-02	6.82336293e-04
7.65000000e-02	1.98505203e-02	6.73907411e-04
7.67500000e-02	1.98965416e-02	6.67523759e-04
7.70000000e-02	2.10662798e-02	7.01041831e-04
7.72500000e-02	2.03766820e-02	6.99882353e-04
7.75000000e-02	2.02268702e-02	7.00636216e-04
7.77500000e-02	2.03746081e-02	7.09613044e-04
7.80000000e-02	2.06341017e-02	7.17778275e-04
7.82500000e-02	1.97186423e-02	6.95558001e-04
7.85000000e-02	2.00147438e-02	7.10127410e-04
7.87500000e-02	2.03457022e-02	7.19278831e-04
7.90000000e-02	2.01608632e-02	7.12170928e-04
7.92500000e-02	1.96472371e-02	6.96858507e-04
7.95000000e-02	2.05735718e-02	7.32989577e-04
7.97500000e-02	2.04116582e-02	7.25782166e-04
8.00000000e-02	2.02708365e-02	7.21765005e-04
8.02500000e-02	1.99752563e-02	7.16441828e-04
8.05000000e-02	2.03182184e-02	7.29754967e-04
8.07500000e-02	2.06511195e-02	7.43140737e-04
8.10000000e-02	1.99129439e-02	7.23020114e-04
8.12500000e-02	2.03522349e-02	7.32508551e-04
8.15000000e-02	2.02819223e-02	7.28415568e-04
8.17500000e-02	2.06419093e-02	7.51104971e-04
8.20000000e-02	2.02711722e-02	7.35268764e-04
8.22500000e-02	1.98804018e-02	7.31323986e-04
8.25000000e-02	1.92210297e-02	7.07187974e-04
8.27500000e-02	1.99124159e-02	7.29425132e-04
8.30000000e-02	2.04097667e-02	7.45452445e-04
8.32500000e-02	1.98255960e-02	7.28008120e-04
8.35000000e-02	2.05708215e-02	7.57931590e-04
8.37500000e-02	1.98647758e-02	7.23173279e-04
8.40000000e-02	1.97665771e-02	7.31472449e-04
8.42500000e-02	2.03777281e-02	7.43455281e-04
8.45000000e-02	2.03305150e-02	7.52387434e-04
8.47500000e-02	1.97358410e-02	7.30247707e-04
8.50000000e-02	2.01597413e-02	7.48519626e-04
8.52500000e-02	1.98719566e-02	7.37609924e-04
8.55000000e-02	1.99383822e-02	7.35959138e-04
8.57500000e-02	1.99050985e-02	7.42112200e-04
8.60000000e-02	1.95799464e-02	7.28391371e-04
8.62500000e-02	2.00093120e-02	7.37141524e-04
8.65000000e-02	1.98781793e-02	7.38192934e-04
8.67500000e-02	2.02955584e-02	7.44887086e-04
8.70000000e-02	2.02250731e-02	7.29166728e-04
8.72500000e-02	2.00218789e-02	7.14465598e-04
8.75000000e-02	1.99107506e-02	7.09764712e-04
8.77500000e-02	2.03311445e-02	7.11599361e-04
8.80000000e-02	2.03025501e-02	7.11895028e-04
8.82500000e-02	1.99902977e-02	7.02678713e-04
8.85000000e-02	1.99463274e-02	6.95792309e-04
8.87500000e-02	2.00224193e-02	6.85405803e-04
8.90000000e-02	1.99563516e-02	6.90031822e-04
8.92500000e-02	1.98332434e-02	6.79892611e-04
8.95000000e-02	1.99470750e-02	6.86084494e-04
8.97500000e-02	2.04121977e-02	6.92661847e-04
9.00000000e-02	2.02553563e-02	6.84394393e-04
9.02500000e-02	1.99384098e-02	6.77313675e-04
9.05000000e-02	2.03671003e-02	6.84259516e-04
9.07500000e-02	2.01760306e-02	6.77180623e-04
9.10000000e-02	2.02277050e-02	6.80616269e-04
9.12500000e-02	1.98135898e-02	6.64889012e-04
9.15000000e-02	2.00739708e-02	6.68034285e-04
9.17500000e-02	2.01285965e-02	6.74588221e-04
9.20000000e-02	2.00196852e-02	6.68922503e-04
9.22500000e-02	1.99795816e-02	6.62673053e-04
9.25000000e-02	2.02032197e-02	6.67147736e-04
9.27500000e-02	1.91227407e-02	6.36267523e-04
9.30000000e-02	1.98614270e-02	6.56681027e-04
9.32500000e-02	2.02166910e-02	6.68646147e-04
9.35000000e-02	2.00010270e-02	6.51519047e-04
9.37500000e-02	1.99708095e-02	6.58395534e-04
9.40000000e-02	2.00704469e-02	6.62984778e-04
9.42500000e-02	2.00220384e-02	6.60377213e-04
9.45000000e-02	2.00006504e-02	6.55036427e-04
9.47500000e-02	2.00689436e-02	6.54797860e-04
9.50000000e-02	1.97426575e-02	6.42185784e-04
9.52500000e-02	1.94434821e-02	6.36180568e-04
9.55000000e-02	2.00337908e-02	6.49509597e-04
9.57500000e-02	2.01560024e-02	6.54664044e-04
9.60000000e-02	2.01377725e-02	6.56521094e-04
9.62500000e-02	2.01415368e-02	6.50413413e-04
9.65000000e-02	2.03109722e-02	6.54205551e-04
9.67500000e-02	1.97238945e-02	6.37210165e-04
9.70000000e-02	1.98927271e-02	6.35268176e-04
9.72500000e-02	2.02499706e-02	6.44328668e-04
9.75000000e-02	1.98847508e-02	6.39066973e-04
9.77500000e-02	1.99226658e-02	6.35016044e-04
9.80000000e-02	2.01297823e-02	6.40257770e-04
9.82500000e-02	1.97675759e-02	6.32277623e-04
9.85000000e-02	2.00437267e-02	6.32016544e-04
9.87500000e-02	2.02728506e-02	6.40356567e-04
9.90000000e-02	1.99069911e-02	6.27817234e-04
9.92500000e-02	2.01767168e-02	6.43565092e-04
9.95000000e-02	1.95921627e-02	6.22684718e-04
9.97500000e-02	1.99433951e-02	6.29834565e-04
1.00000000e-01	1.99277660e-02	5.11202962e-04
1.00500000e-01	1.97884591e-02	4.43495726e-04
1.01000000e-01	1.99264154e-02	4.40862324e-04
1.01500000e-01	1.98090702e-02	4.39479532e-04
1.02000000e-01	1.98554010e-02	4.36591296e-04
1.02500000e-01	1.97108647e-02	4.31337752e-04
1.03000000e-01	1.96258270e-02	4.33178931e-04
1.03500000e-01	1.99220542e-02	4.35014839e-04
1.04000000e-01	1.98996492e-02	4.35286073e-04
1.04500000e-01	1.94054955e-02	4.23485210e-04
1.05000000e-01	1.94831474e-02	4.22345340e-04
1.05500000e-01	2.01320359e-02	4.33765173e-04
1.06000000e-01	1.95569101e-02	4.23361983e-04
1.06500000e-01	1.97103057e-02	4.23342950e-04
1.07000000e-01	1.97501490e-02	4.30346219e-04
1.07500000e-01	1.97686556e-02	4.38799976e-04
1.08000000e-01	1.95811772e-02	4.36727536e-04
1.08500000e-01	1.96670930e-02	4.44823294e-04
1.09000000e-01	1.98560712e-02	4.49484652e-04
1.09500000e-01	1.99334690e-02	4.54983890e-04
1.10000000e-01	1.98617078e-02	4.47403341e-04
1.10500000e-01	1.97514652e-02	4.33039242e-04
1.11000000e-01	1.98299099e-02	4.29018859e-04
1.11500000e-01	2.00338473e-02	4.33920549e-04
1.12000000e-01	1.96288989e-02	4.18732593e-04
1.12500000e-01	1.98452885e-02	4.19878137e-04
1.13000000e-01	1.98581589e-02	4.20880112e-04
1.13500000e-01	1.98324132e-02	4.18457277e-04
1.14000000e-01	1.99288425e-02	4.16982053e-04
1.14500000e-01	2.00097085e-02	4.19933703e-04
1.15000000e-01	1.97892844e-02	4.11810682e-04
1.15500000e-01	2.02522657e-02	4.24498101e-04
1.16000000e-01	1.97939359e-02	4.11998471e-04
1.16500000e-01	1.99473731e-02	4.15710577e-04
1.17000000e-01	1.96690369e-02	4.07771909e-04
1.17500000e-01	1.98647179e-02	4.06714174e-04
1.18000000e-01	1.96610518e-02	4.06783742e-04
1.18500000e-01	1.95618805e-02	4.00024355e-04
1.19000000e-01	1.95099549e-02	3.98628584e-04
1.19500000e-01	1.96196941e-02	4.00748458e-04
1.20000000e-01	1.99520591e-02	4.05714052e-04
1.20500000e-01	1.96707060e-02	3.98882574e-04
1.21000000e-01	1.98818342e-02	4.02909042e-04
1.21500000e-01	1.96988126e-02	3.99954920e-04
1.22000000e-01	1.98634784e-02	4.01407728e-04
1.22500000e-01	1.93742111e-02	3.90632414e-04
1.23000000e-01	1.96885778e-02	3.94872381e-04
1.23500000e-01	1.97850910e-02	3.95430275e-04
1.24000000e-01	1.96244311e-02	3.94195834e-04
1.24500000e-01	1.94940074e-02	3.89008160e-04
1.25000000e-01	1.97918600e-02	3.93981268e-04
1.25500000e-01	1.97267471e-02	3.93124284e-04
1.26000000e-01	1.94854275e-02	3.87816088e-04
1.26500000e-01	1.98337105e-02	3.92045188e-04
1.27000000e-01	1.96276105e-02	3.89046287e-04
1.27500000e-01	1.95822428e-02	3.87386881e-04
1.28000000e-01	1.97255142e-02	3.89491059e-04
1.28500000e-01	1.97425608e-02	3.88953993e-04
1.29000000e-01	2.00069395e-02	3.91996590e-04
1.29500000e-01	1.99656729e-02	3.88943463e-04
1.30000000e-01	1.97513385e-02	3.85436886e-04
1.30500000e-01	1.96892696e-02	3.84889923e-04
1.31000000e-01	1.96395683e-02	3.80469167e-04
1.31500000e-01	1.96101113e-02	3.80699478e-04
1.32000000e-01	1.98317273e-02	3.83466948e-04
1.32500000e-01	1.99678429e-02	3.85643862e-04
1.33000000e-01	1.95358198e-02	3.77060224e-04
1.33500000e-01	1.95539474e-02	3.74491673e-04
1.34000000e-01	1.94937447e-02	3.72916128e-04
1.34500000e-01	1.98263858e-02	3.78422885e-04
1.35000000e-01	1.93014932e-02	3.69310629e-04
1.35500000e-01	1.97498502e-02	3.75797556e-04
1.36000000e-01	1.97504235e-02	3.76589360e-04
1.36500000e-01	1.97816760e-02	3.76752406e-04
1.37000000e-01	1.96160280e-02	3.71122997e-04
1.37500000e-01	1.98965192e-02	3.75821010e-04
1.38000000e-01	1.95696761e-02	3.70215023e-04
1.38500000e-01	1.95223840e-02	3.69549961e-04
1.39000000e-01	1.96591620e-02	3.70754623e-04
1.39500000e-01	1.95912829e-02	3.68273936e-04
1.40000000e-01	1.99073281e-02	3.74257399e-04
1.40500000e-01	1.96416812e-02	3.69047179e-04
1.41000000e-01	1.93133412e-02	3.61667990e-04
1.41500000e-01	1.96645426e-02	3.69950025e-04
1.42000000e-01	1.97528197e-02	3.66546555e-04
1.42500000e-01	1.95712944e-02	3.66448699e-04
1.43000000e-01	1.97222419e-02	3.67605960e-04
1.43500000e-01	1.94112168e-02	3.61825115e-04
1.44000000e-01	1.95205542e-02	3.62532058e-04
1.44500000e-01	1.95984050e-02	3.62358503e-04
1.45000000e-01	1.97713458e-02	3.65766222e-04
1.45500000e-01	1.96590188e-02	3.64074474e-04
1.46000000e-01	1.95104974e-02	3.60236951e-04
1.46500000e-01	1.94970948e-02	3.58281537e-04
1.47000000e-01	1.94321997e-02	3.57276684e-04
1.47500000e-01	1.97973372e-02	3.60447912e-04
1.48000000e-01	1.94202972e-02	3.56694240e-04
1.48500000e-01	1.96324180e-02	3.60233344e-04
1.49000000e-01	1.97507684e-02	3.59228494e-04
1.49500000e-01	1.96296886e-02	3.57103881e-04
1.50000000e-01	1.95766757e-02	3.56613919e-04
1.50500000e-01	1.92047211e-02	3.50429520e-04
1.51000000e-01	1.94908686e-02	3.51225387e-04
1.51500000e-01	1.94575761e-02	3.52154894e-04
1.52000000e-01	1.92293110e-02	3.46329706e-04
1.52500000e-01	1.92702245e-02	3.48310881e-04
1.53000000e-01	1.92898633e-02	3.47953254e-04
1.53500000e-01	1.91522557e-02	3.45695433e-04
1.54000000e-01	1.91804779e-02	3.44330158e-04
1.54500000e-01	1.93460588e-02	3.53939789e-04
1.55000000e-01	1.94212045e-02	3.60656680e-04
1.55500000e-01	1.91768835e-02	3.56832350e-04
1.56000000e-01	1.95081708e-02	3.65814956e-04
1.56500000e-01	1.93473830e-02	3.61367807e-04
1.57000000e-01	1.92543261e-02	3.61996280e-04
1.57500000e-01	1.91723337e-02	3.52710242e-04
1.58000000e-01	1.91980880e-02	3.47852206e-04
1.58500000e-01	1.91466257e-02	3.46688430e-04
1.59000000e-01	1.91364806e-02	3.43089579e-04
1.59500000e-01	1.92243263e-02	3.44076240e-04
1.60000000e-01	1.96563694e-02	3.50117658e-04
1.60500000e-01	1.92292343e-02	3.42092639e-04
1.61000000e-01	1.92821759e-02	3.44764465e-04
1.61500000e-01	1.89870012e-02	3.36942155e-04
1.62000000e-01	1.92620404e-02	3.40980995e-04
1.62500000e-01	1.91496566e-02	3.39421862e-04
1.63000000e-01	1.90808676e-02	3.36297103e-04
1.63500000e-01	1.90381323e-02	3.38995892e-04
1.64000000e-01	1.92485498e-02	3.38552074e-04
1.64500000e-01	1.91852986e-02	3.37166824e-04
1.65000000e-01	1.94131479e-02	3.38692239e-04
1.65500000e-01	1.93776256e-02	3.38912492e-04
1.66000000e-01	1.87775376e-02	3.28548796e-04
1.66500000e-01	1.88917746e-02	3.29614658e-04
1.67000000e-01	1.89688242e-02	3.32368217e-04
1.67500000e-01	1.89217524e-02	3.29542016e-04
1.68000000e-01	1.91311090e-02	3.32785855e-04
1.68500000e-01	1.90722605e-02	3.30180507e-04
1.69000000e-01	1.89872329e-02	3.30179245e-04
1.69500000e-01	1.87327061e-02	3.23358324e-04
1.70000000e-01	1.91968140e-02	3.31230085e-04
1.70500000e-01	1.88621934e-02	3.25418912e-04
1.71000000e-01	1.91611716e-02	3.30442439e-04
1.71500000e-01	1.88742761e-02	3.24546564e-04
1.72000000e-01	1.90853513e-02	3.27281655e-04
1.72500000e-01	1.86194221e-02	3.20079039e-04
1.73000000e-01	1.90047870e-02	3.24470111e-04
1.73500000e-01	1.92211646e-02	3.27734078e-04
1.74000000e-01	1.91344172e-02	3.25182057e-04
1.74500000e-01	1.87169706e-02	3.17112362e-04
1.75000000e-01	1.90814377e-02	3.21644488e-04
1.75500000e-01	1.90128646e-02	3.19888831e-04
1.76000000e-01	1.84898848e-02	3.12414847e-04
1.76500000e-01	1.88239109e-02	3.17811830e-04
1.77000000e-01	1.90064630e-02	3.19599388e-04
1.77500000e-01	1.90160259e-02	3.19531313e-04
1.78000000e-01	1.89459701e-02	3.18572539e-04
1.78500000e-01	1.88668018e-02	3.16896893e-04
1.79000000e-01	1.86915525e-02	3.14417054e-04
1.79500000e-01	1.89082465e-02	3.18615473e-04
1.80000000e-01	1.89205415e-02	3.17605711e-04
1.80500000e-01	1.87699541e-02	3.14746699e-04
1.81000000e-01	1.89278274e-02	3.16707771e-04
1.81500000e-01	1.85574838e-02	3.09824365e-04
1.82000000e-01	1.85703478e-02	3.11018864e-04
1.82500000e-01	1.88011969e-02	3.12927063e-04
1.83000000e-01	1.88631571e-02	3.14030956e-04
1.83500000e-01	1.89423784e-02	3.14972054e-04
1.84000000e-01	1.86336079e-02	3.09809069e-04
1.84500000e-01	1.86723190e-02	3.09746696e-04
1.85000000e-01	1.87684740e-02	3.10902728e-04
1.85500000e-01	1.87796735e-02	3.09922950e-04
1.86000000e-01	1.85332590e-02	3.05577382e-04
1.86500000e-01	1.89209973e-02	3.11372266e-04
1.87000000e-01	1.86754246e-02	3.07690441e-04
1.87500000e-01	1.85403662e-02	3.04251740e-04
1.88000000e-01	1.85955431e-02	3.05701278e-04
1.88500000e-01	1.86157272e-02	3.04746273e-04
1.89000000e-01	1.87706486e-02	3.06566017e-04
1.89500000e-01	1.86743698e-02	3.05642905e-04
1.90000000e-01	1.86513883e-02	3.03729045e-04
1.90500000e-01	1.85259541e-02	3.01859271e-04
1.91000000e-01	1.84981569e-02	3.01792430e-04
1.91500000e-01	1.87201353e-02	3.04316387e-04
1.92000000e-01	1.86104427e-02	3.00909916e-04
1.92500000e-01	1.84364171e-02	2.99775722e-04
1.93000000e-01	1.84178371e-02	2.99403076e-04
1.93500000e-01	1.85868108e-02	3.01173864e-04
1.94000000e-01	1.86080854e-02	3.01029885e-04
1.94500000e-01	1.83277388e-02	2.96342398e-04
1.95000000e-01	1.82178116e-02	2.94339592e-04
1.95500000e-01	1.85445206e-02	2.98218572e-04
1.96000000e-01	1.83341435e-02	2.95160228e-04
1.96500000e-01	1.85680855e-02	2.99247443e-04
1.97000000e-01	1.83752732e-02	2.95151082e-04
1.97500000e-01	1.83124787e-02	2.93714457e-04
1.98000000e-01	1.82476065e-02	2.91923865e-04
1.98500000e-01	1.82444090e-02	2.91977562e-04
1.99000000e-01	1.85839397e-02	2.96520584e-04
1.99500000e-01	1.85137552e-02	2.95091372e-04
2.00000000e-01	1.83461951e-02	2.92648531e-04
2.00500000e-01	1.85045919e-02	2.95430896e-04
2.01000000e-01	1.83035332e-02	2.92543776e-04
2.01500000e-01	1.82741471e-02	2.90854006e-04
2.02000000e-01	1.84261029e-02	2.91892449e-04
2.02500000e-01	1.82939416e-02	2.89548617e-04
2.03000000e-01	1.83570840e-02	2.90770537e-04
2.03500000e-01	1.85190250e-02	2.93754508e-04
2.04000000e-01	1.85031755e-02	2.91886424e-04
2.04500000e-01	1.83360326e-02	2.90000257e-04
2.05000000e-01	1.83829926e-02	2.89413864e-04
2.05500000e-01	1.83605809e-02	2.88406777e-04
2.06000000e-01	1.81146515e-02	2.84541106e-04
2.06500000e-01	1.81565077e-02	2.85583963e-04
2.07000000e-01	1.81312966e-02	2.83772835e-04
2.07500000e-01	1.81902960e-02	2.85490604e-04
2.08000000e-01	1.83312241e-02	2.87106058e-04
2.08500000e-01	1.81662742e-02	2.83722350e-04
2.09000000e-01	1.83992859e-02	2.88335400e-04
2.09500000e-01	1.81395917e-02	2.82468510e-04
2.10000000e-01	1.81174368e-02	2.83569528e-04
2.10500000e-01	1.81436555e-02	2.82285803e-04
2.11000000e-01	1.81489484e-02	2.81921486e-04
2.11500000e-01	1.82493488e-02	2.83636836e-04
2.12000000e-01	1.82793049e-02	2.82347773e-04
2.12500000e-01	1.78878331e-02	2.78610921e-04
2.13000000e-01	1.81711868e-02	2.81366379e-04
2.13500000e-01	1.80589487e-02	2.79049823e-04
2.14000000e-01	1.79687781e-02	2.77427505e-04
2.14500000e-01	1.80638553e-02	2.77304422e-04
2.15000000e-01	1.80377169e-02	2.79475537e-04
2.15500000e-01	1.83044954e-02	2.80549915e-04
2.16000000e-01	1.82641378e-02	2.79853614e-04
2.16500000e-01	1.78183172e-02	2.75178849e-04
2.17000000e-01	1.82937789e-02	2.84676304e-04
2.17500000e-01	1.77404375e-02	2.81563403e-04
2.18000000e-01	1.81792608e-02	2.86691080e-04
2.18500000e-01	1.81451554e-02	2.89839104e-04
2.19000000e-01	1.80090420e-02	2.89217307e-04
2.19500000e-01	1.81196028e-02	2.91024010e-04
2.20000000e-01	1.81360167e-02	2.93603601e-04
2.20500000e-01	1.81042483e-02	2.93636114e-04
2.21000000e-01	1.82172823e-02	2.96008802e-04
2.21500000e-01	1.79183751e-02	2.92046679e-04
2.22000000e-01	1.79546862e-02	2.92063584e-04
2.22500000e-01	1.81738936e-02	2.96836686e-04
2.23000000e-01	1.79289816e-02	2.94544466e-04
2.23500000e-01	1.82117070e-02	2.98339924e-04
2.24000000e-01	1.81354669e-02	2.97432351e-04
2.24500000e-01	1.78959339e-02	2.96160561e-04
2.25000000e-01	1.81811508e-02	2.98114863e-04
2.25500000e-01	1.78126305e-02	2.94825441e-04
2.26000000e-01	1.75693126e-02	2.92264218e-04
2.26500000e-01	1.81093576e-02	2.96303302e-04
2.27000000e-01	1.81546723e-02	2.92879769e-04
2.27500000e-01	1.77980207e-02	2.87089473e-04
2.28000000e-01	1.77697887e-02	2.84457613e-04
2.28500000e-01	1.79738562e-02	2.85210801e-04
2.29000000e-01	1.78592801e-02	2.83555004e-04
2.29500000e-01	1.78639623e-02	2.82532972e-04
2.30000000e-01	1.79596441e-02	2.81662331e-04
2.30500000e-01	1.80499839e-02	2.82145460e-04
2.31000000e-01	1.81388101e-02	2.84742500e-04
2.31500000e-01	1.80374587e-02	2.81155454e-04
2.32000000e-01	1.78681496e-02	2.78910389e-04
2.32500000e-01	1.77314691e-02	2.75207434e-04
2.33000000e-01	1.77300928e-02	2.75149740e-04
2.33500000e-01	1.77991551e-02	2.75891765e-04
2.34000000e-01	1.76176917e-02	2.72494608e-04
2.34500000e-01	1.77357271e-02	2.74105810e-04
2.35000000e-01	1.78030289e-02	2.73731626e-04
2.35500000e-01	1.77335045e-02	2.71500604e-04
2.36000000e-01	1.77196050e-02	2.71306059e-04
2.36500000e-01	1.79233197e-02	2.74004824e-04
2.37000000e-01	1.76400191e-02	2.69301143e-04
2.37500000e-01	1.76613939e-02	2.69514209e-04
2.38000000e-01	1.76109797e-02	2.68063039e-04
2.38500000e-01	1.76820686e-02	2.68694234e-04
2.39000000e-01	1.76424960e-02	2.66650723e-04
2.39500000e-01	1.79293534e-02	2.71685461e-04
2.40000000e-01	1.77281805e-02	2.67441365e-04
2.40500000e-01	1.76463410e-02	2.65467892e-04
2.41000000e-01	1.78154901e-02	2.68806682e-04
2.41500000e-01	1.77294568e-02	2.66379293e-04
2.42000000e-01	1.77855431e-02	2.66764593e-04
2.42500000e-01	1.77184040e-02	2.65003287e-04
2.43000000e-01	1.76221039e-02	2.64435950e-04
2.43500000e-01	1.75391353e-02	2.62826066e-04
2.44000000e-01	1.77667976e-02	2.64686103e-04
2.44500000e-01	1.76953968e-02	2.64580530e-04
2.45000000e-01	1.78574414e-02	2.65321462e-04
2.45500000e-01	1.76371936e-02	2.62552663e-04
2.46000000e-01	1.75781644e-02	2.61245354e-04
2.46500000e-01	1.75092800e-02	2.60078968e-04
2.47000000e-01	1.77765532e-02	2.62590211e-04
2.47500000e-01	1.74441444e-02	2.57677490e-04
2.48000000e-01	1.76127010e-02	2.60019896e-04
2.48500000e-01	1.77316598e-02	2.61260508e-04
2.49000000e-01	1.75378041e-02	2.57799079e-04
2.49500000e-01	1.74575666e-02	2.57128799e-04
2.50000000e-01	1.75496433e-02	2.57527872e-04
2.50500000e-01	1.74194129e-02	2.56809805e-04
2.51000000e-01	1.76392894e-02	2.58192213e-04
2.51500000e-01	1.75894756e-02	2.57337687e-04
2.52000000e-01	1.74989543e-02	2.57256157e-04
2.52500000e-01	1.76356682e-02	2.57792913e-04
2.53000000e-01	1.75355668e-02	2.56737818e-04
2.53500000e-01	1.74422020e-02	2.55020135e-04
2.54000000e-01	1.73727751e-02	2.54691177e-04
2.54500000e-01	1.74790008e-02	2.56116266e-04
2.55000000e-01	1.75410933e-02	2.54728678e-04
2.55500000e-01	1.72240331e-02	2.51280218e-04
2.56000000e-01	1.73291397e-02	2.51667716e-04
2.56500000e-01	1.74568804e-02	2.54070297e-04
2.57000000e-01	1.76004370e-02	2.54542669e-04
2.57500000e-01	1.74953741e-02	2.52913890e-04
2.58000000e-01	1.74747133e-02	2.53107294e-04
2.58500000e-01	1.73763723e-02	2.51035014e-04
2.59000000e-01	1.73538402e-02	2.51172081e-04
2.59500000e-01	1.72587759e-02	2.48777180e-04
2.60000000e-01	1.73658818e-02	2.49630234e-04
2.60500000e-01	1.72801961e-02	2.48415677e-04
2.61000000e-01	1.74328388e-02	2.50122440e-04
2.61500000e-01	1.73785824e-02	2.49824562e-04
2.62000000e-01	1.71399357e-02	2.46173228e-04
2.62500000e-01	1.73030306e-02	2.48287724e-04
2.63000000e-01	1.75091655e-02	2.50435116e-04
2.63500000e-01	1.73474028e-02	2.47692514e-04
2.64000000e-01	1.73676558e-02	2.48536068e-04
2.64500000e-01	1.71359057e-02	2.44069062e-04
2.65000000e-01	1.75721598e-02	2.50056120e-04
2.65500000e-01	1.72492857e-02	2.45262219e-04
2.66000000e-01	1.72559344e-02	2.45773511e-04
2.66500000e-01	1.73662116e-02	2.46808082e-04
2.67000000e-01	1.75220399e-02	2.48351355e-04
2.67500000e-01	1.74556823e-02	2.46213949e-04
2.68000000e-01	1.71284097e-02	2.43399541e-04
2.68500000e-01	1.71736702e-02	2.42829287e-04
2.69000000e-01	1.71351416e-02	2.41588061e-04
2.69500000e-01	1.69526419e-02	2.38928702e-04
2.70000000e-01	1.71137178e-02	2.41176695e-04
2.70500000e-01	1.74162826e-02	2.44956933e-04
2.71000000e-01	1.70831542e-02	2.40070093e-04
2.71500000e-01	1.72166793e-02	2.42182260e-04
2.72000000e-01	1.72141297e-02	2.41260638e-04
2.72500000e-01	1.71575349e-02	2.41276569e-04
2.73000000e-01	1.73082005e-02	2.41845729e-04
2.73500000e-01	1.73121777e-02	2.42284831e-04
2.74000000e-01	1.72839494e-02	2.42160263e-04
2.74500000e-01	1.70321410e-02	2.38077014e-04
2.75000000e-01	1.72332366e-02	2.40172963e-04
2.75500000e-01	1.70167663e-02	2.37815643e-04
2.76000000e-01	1.72190744e-02	2.39118767e-04
2.76500000e-01	1.70919522e-02	2.39613718e-04
2.77000000e-01	1.70183628e-02	2.36271490e-04
2.77500000e-01	1.72323432e-02	2.40216041e-04
2.78000000e-01	1.70796064e-02	2.37903062e-04
2.78500000e-01	1.73028824e-02	2.40057817e-04
2.79000000e-01	1.71941862e-02	2.38684547e-04
2.79500000e-01	1.72516980e-02	2.38524267e-04
2.80000000e-01	1.70531192e-02	2.36281351e-04
2.80500000e-01	1.73085322e-02	2.38731712e-04
2.81000000e-01	1.70315213e-02	2.35292146e-04
2.81500000e-01	1.70879537e-02	2.35951341e-04
2.82000000e-01	1.71229340e-02	2.35633945e-04
2.82500000e-01	1.71846262e-02	2.36952909e-04
2.83000000e-01	1.69900243e-02	2.33447528e-04
2.83500000e-01	1.70910814e-02	2.35004465e-04
2.84000000e-01	1.67909133e-02	2.31641178e-04
2.84500000e-01	1.70769520e-02	2.34069319e-04
2.85000000e-01	1.70076768e-02	2.33046151e-04
2.85500000e-01	1.70947860e-02	2.33179673e-04
2.86000000e-01	1.67767510e-02	2.30236384e-04
2.86500000e-01	1.69199530e-02	2.32061555e-04
2.87000000e-01	1.71058999e-02	2.32819917e-04
2.87500000e-01	1.71259261e-02	2.33112109e-04
2.88000000e-01	1.71688395e-02	2.32809596e-04
2.88500000e-01	1.68268415e-02	2.29824399e-04
2.89000000e-01	1.69687590e-02	2.31365906e-04
2.89500000e-01	1.69839957e-02	2.30718249e-04
2.90000000e-01	1.66883065e-02	2.26977310e-04
2.90500000e-01	1.69167914e-02	2.30209588e-04
2.91000000e-01	1.70917193e-02	2.31196384e-04
2.91500000e-01	1.69961043e-02	2.29576223e-04
2.92000000e-01	1.70388886e-02	2.30014313e-04
2.92500000e-01	1.68786586e-02	2.27986820e-04
2.93000000e-01	1.69726936e-02	2.28889943e-04
2.93500000e-01	1.70471212e-02	2.29317704e-04
2.94000000e-01	1.67721045e-02	2.26465722e-04
2.94500000e-01	1.69946758e-02	2.28872015e-04
2.95000000e-01	1.67682717e-02	2.25442246e-04
2.95500000e-01	1.68122688e-02	2.25814362e-04
2.96000000e-01	1.68269471e-02	2.25342264e-04
2.96500000e-01	1.67204000e-02	2.24348568e-04
2.97000000e-01	1.68769449e-02	2.26701055e-04
2.97500000e-01	1.69948183e-02	2.27090975e-04
2.98000000e-01	1.69544809e-02	2.26704379e-04
2.98500000e-01	1.65725807e-02	2.23102536e-04
2.99000000e-01	1.67464227e-02	2.24345717e-04
2.99500000e-01	1.66352882e-02	2.23216465e-04
3.00000000e-01	1.67803842e-02	2.24408939e-04
3.00500000e-01	1.68773508e-02	2.24791846e-04
3.01000000e-01	1.66844792e-02	2.22926597e-04
3.01500000e-01	1.67664174e-02	2.23144451e-04
3.02000000e-01	1.67725010e-02	2.23440977e-04
3.02500000e-01	1.69042008e-02	2.24510634e-04
3.03000000e-01	1.69392510e-02	2.24562644e-04
3.03500000e-01	1.66025272e-02	2.20067306e-04
3.04000000e-01	1.68179725e-02	2.23445942e-04
3.04500000e-01	1.68081039e-02	2.23276042e-04
3.05000000e-01	1.67664882e-02	2.22111203e-04
3.05500000e-01	1.67477489e-02	2.22195880e-04
3.06000000e-01	1.68894179e-02	2.21346876e-04
3.06500000e-01	1.68393517e-02	2.22169102e-04
3.07000000e-01	1.66734971e-02	2.20124702e-04
3.07500000e-01	1.66152565e-02	2.19223090e-04
3.08000000e-01	1.68095962e-02	2.21954665e-04
3.08500000e-01	1.66473541e-02	2.18875947e-04
3.09000000e-01	1.66898283e-02	2.19103231e-04
3.09500000e-01	1.65687495e-02	2.18232834e-04
3.10000000e-01	1.68997457e-02	2.21706085e-04
3.10500000e-01	1.64492765e-02	2.16307464e-04
3.11000000e-01	1.67920023e-02	2.20151952e-04
3.11500000e-01	1.66069730e-02	2.17792275e-04
3.12000000e-01	1.64526137e-02	2.16121113e-04
3.12500000e-01	1.65938371e-02	2.17837969e-04
3.13000000e-01	1.66409051e-02	2.17291584e-04
3.13500000e-01	1.68606796e-02	2.19471914e-04
3.14000000e-01	1.65786861e-02	2.16795897e-04
3.14500000e-01	1.64042353e-02	2.14348960e-04
3.15000000e-01	1.65827296e-02	2.16450457e-04
3.15500000e-01	1.64746711e-02	2.15364288e-04
3.16000000e-01	1.67644994e-02	2.18811753e-04
3.16500000e-01	1.67461276e-02	2.17123712e-04
3.17000000e-01	1.64224020e-02	2.14155118e-04
3.17500000e-01	1.63604552e-02	2.12588154e-04
3.18000000e-01	1.64769853e-02	2.13404814e-04
3.18500000e-01	1.64896868e-02	2.14475161e-04
3.19000000e-01	1.64158362e-02	2.13463519e-04
3.19500000e-01	1.64634031e-02	2.13841546e-04
3.20000000e-01	1.65434274e-02	2.14033650e-04
3.20500000e-01	1.65951223e-02	2.13958328e-04
3.21000000e-01	1.62761266e-02	2.10838119e-04
3.21500000e-01	1.65409830e-02	2.13715657e-04
3.22000000e-01	1.62229700e-02	2.09652021e-04
3.22500000e-01	1.66251897e-02	2.14073797e-04
3.23000000e-01	1.62482739e-02	2.09223516e-04
3.23500000e-01	1.63716834e-02	2.10945174e-04
3.24000000e-01	1.64052896e-02	2.10877291e-04
3.24500000e-01	1.65027725e-02	2.12291644e-04
3.25000000e-01	1.63913492e-02	2.10040546e-04
3.25500000e-01	1.63391100e-02	2.10132572e-04
3.26000000e-01	1.61752772e-02	2.07975810e-04
3.26500000e-01	1.62853760e-02	2.07928079e-04
3.27000000e-01	1.63396469e-02	2.09055807e-04
3.27500000e-01	1.63851868e-02	2.09192414e-04
3.28000000e-01	1.65344797e-02	2.12213096e-04
3.28500000e-01	1.61577184e-02	2.06985519e-04
3.29000000e-01	1.62724343e-02	2.07892184e-04
3.29500000e-01	1.61567786e-02	2.06332785e-04
3.30000000e-01	1.61930717e-02	2.07140462e-04
3.30500000e-01	1.61955782e-02	2.06545376e-04
3.31000000e-01	1.63043553e-02	2.07678361e-04
3.31500000e-01	1.62651328e-02	2.06956144e-04
3.32000000e-01	1.62175418e-02	2.06746337e-04
3.32500000e-01	1.62169837e-02	2.06272186e-04
3.33000000e-01	1.63317821e-02	2.06739509e-04
3.33500000e-01	1.63666121e-02	2.07039158e-04
3.34000000e-01	1.62121486e-02	2.06336702e-04
3.34500000e-01	1.62995831e-02	2.06377827e-04
3.35000000e-01	1.61940761e-02	2.04937545e-04
3.35500000e-01	1.61464747e-02	2.04488524e-04
3.36000000e-01	1.60938600e-02	2.03701097e-04
3.36500000e-01	1.60872849e-02	2.03316130e-04
3.37000000e-01	1.60642024e-02	2.03267152e-04
3.37500000e-01	1.62754221e-02	2.05928535e-04
3.38000000e-01	1.61904172e-02	2.04684422e-04
3.38500000e-01	1.62495883e-02	2.04409887e-04
3.39000000e-01	1.59586342e-02	2.01927070e-04
3.39500000e-01	1.60307123e-02	2.01819461e-04
3.40000000e-01	1.60794120e-02	2.02639578e-04
3.40500000e-01	1.60821153e-02	2.03291797e-04
3.41000000e-01	1.61908453e-02	2.02813074e-04
3.41500000e-01	1.61200289e-02	2.02786299e-04
3.42000000e-01	1.61028700e-02	2.01778859e-04
3.42500000e-01	1.59229165e-02	2.00288914e-04
3.43000000e-01	1.61516178e-02	2.01579724e-04
3.43500000e-01	1.60849424e-02	2.01177764e-04
3.44000000e-01	1.61373276e-02	2.02101812e-04
3.44500000e-01	1.60851174e-02	2.00848877e-04
3.45000000e-01	1.59474133e-02	1.99556849e-04
3.45500000e-01	1.61754149e-02	2.01264836e-04
3.46000000e-01	1.59890609e-02	1.99626671e-04
3.46500000e-01	1.60682359e-02	2.00621895e-04
3.47000000e-01	1.60670087e-02	1.99547066e-04
3.47500000e-01	1.59897768e-02	1.98539232e-04
3.48000000e-01	1.60251584e-02	1.99397976e-04
3.48500000e-01	1.59642374e-02	1.98669678e-04
3.49000000e-01	1.59111369e-02	1.97686934e-04
3.49500000e-01	1.58967872e-02	1.97492826e-04
3.50000000e-01	1.59039716e-02	1.60916968e-04
3.51000000e-01	1.57936005e-02	1.38407903e-04
3.52000000e-01	1.59433803e-02	1.39334689e-04
3.53000000e-01	1.57944397e-02	1.38034498e-04
3.54000000e-01	1.58018899e-02	1.37906136e-04
3.55000000e-01	1.59436788e-02	1.38905143e-04
3.56000000e-01	1.58424066e-02	1.38301769e-04
3.57000000e-01	1.57601008e-02	1.40208568e-04
3.58000000e-01	1.56971489e-02	1.41006908e-04
3.59000000e-01	1.57836242e-02	1.43345117e-04
3.60000000e-01	1.56849580e-02	1.42516491e-04
3.61000000e-01	1.57581948e-02	1.43903532e-04
3.62000000e-01	1.56889139e-02	1.44185224e-04
3.63000000e-01	1.56935514e-02	1.44882365e-04
3.64000000e-01	1.55839564e-02	1.44471473e-04
3.65000000e-01	1.56111879e-02	1.45123250e-04
3.66000000e-01	1.55616805e-02	1.42294728e-04
3.67000000e-01	1.55912425e-02	1.40912844e-04
3.68000000e-01	1.56333191e-02	1.40268392e-04
3.69000000e-01	1.55900784e-02	1.39376672e-04
3.70000000e-01	1.56647146e-02	1.39246713e-04
3.71000000e-01	1.56034590e-02	1.40568986e-04
3.72000000e-01	1.56277820e-02	1.41641528e-04
3.73000000e-01	1.56880065e-02	1.42128053e-04
3.74000000e-01	1.55834800e-02	1.42142503e-04
3.75000000e-01	1.55234171e-02	1.41313221e-04
3.76000000e-01	1.54896394e-02	1.41292245e-04
3.77000000e-01	1.55887762e-02	1.41935637e-04
3.78000000e-01	1.55404409e-02	1.41547794e-04
3.79000000e-01	1.53716527e-02	1.39984383e-04
3.80000000e-01	1.54417805e-02	1.40673048e-04
3.81000000e-01	1.55045005e-02	1.41096681e-04
3.82000000e-01	1.54253457e-02	1.40152461e-04
3.83000000e-01	1.54551900e-02	1.40677267e-04
3.84000000e-01	1.54564600e-02	1.40348430e-04
3.85000000e-01	1.53809095e-02	1.40197217e-04
3.86000000e-01	1.54080147e-02	1.40183453e-04
3.87000000e-01	1.53003117e-02	1.39166536e-04
3.88000000e-01	1.53826383e-02	1.39567979e-04
3.89000000e-01	1.52469075e-02	1.38690278e-04
3.90000000e-01	1.54289250e-02	1.39911391e-04
3.91000000e-01	1.53486922e-02	1.38777476e-04
3.92000000e-01	1.52864360e-02	1.38360438e-04
3.93000000e-01	1.52881305e-02	1.38371597e-04
3.94000000e-01	1.52840661e-02	1.38599181e-04
3.95000000e-01	1.51595198e-02	1.37527259e-04
3.96000000e-01	1.52626259e-02	1.38257522e-04
3.97000000e-01	1.52711804e-02	1.38051173e-04
3.98000000e-01	1.52031208e-02	1.38094246e-04
3.99000000e-01	1.52316427e-02	1.37950399e-04
4.00000000e-01	1.52094437e-02	1.37832568e-04
4.01000000e-01	1.51119411e-02	1.36774665e-04
4.02000000e-01	1.52229037e-02	1.37828929e-04
4.03000000e-01	1.51238102e-02	1.37209922e-04
4.04000000e-01	1.50524377e-02	1.36280742e-04
4.05000000e-01	1.52374643e-02	1.37918068e-04
4.06000000e-01	1.50374762e-02	1.36450381e-04
4.07000000e-01	1.50098055e-02	1.35575760e-04
4.08000000e-01	1.50679272e-02	1.36450881e-04
4.09000000e-01	1.50110800e-02	1.35889656e-04
4.10000000e-01	1.50733280e-02	1.35986220e-04
4.11000000e-01	1.51263540e-02	1.36768898e-04
4.12000000e-01	1.49756853e-02	1.35417787e-04
4.13000000e-01	1.50874083e-02	1.36446007e-04
4.14000000e-01	1.51019023e-02	1.36409851e-04
4.15000000e-01	1.49767512e-02	1.35240630e-04
4.16000000e-01	1.50683496e-02	1.35824286e-04
4.17000000e-01	1.49579228e-02	1.34976692e-04
4.18000000e-01	1.51073524e-02	1.37687962e-04
4.19000000e-01	1.51357057e-02	1.39632601e-04
4.20000000e-01	1.51627938e-02	1.40312326e-04
4.21000000e-01	1.51126743e-02	1.40665008e-04
4.22000000e-01	1.51814898e-02	1.41643845e-04
4.23000000e-01	1.50070126e-02	1.41046179e-04
4.24000000e-01	1.49855053e-02	1.41006235e-04
4.25000000e-01	1.49678714e-02	1.40932742e-04
4.26000000e-01	1.51325981e-02	1.42516324e-04
4.27000000e-01	1.50797014e-02	1.41726176e-04
4.28000000e-01	1.50239299e-02	1.42021247e-04
4.29000000e-01	1.52039640e-02	1.43710731e-04
4.30000000e-01	1.50283411e-02	1.42171570e-04
4.31000000e-01	1.51451535e-02	1.42751415e-04
4.32000000e-01	1.50052125e-02	1.41748508e-04
4.33000000e-01	1.50679844e-02	1.42019588e-04
4.34000000e-01	1.49263135e-02	1.41055738e-04
4.35000000e-01	1.49078827e-02	1.41224199e-04
4.36000000e-01	1.49265978e-02	1.41426950e-04
4.37000000e-01	1.48208278e-02	1.40823318e-04
4.38000000e-01	1.47925003e-02	1.40969826e-04
4.39000000e-01	1.48565142e-02	1.41488658e-04
4.40000000e-01	1.47959082e-02	1.41318151e-04
4.41000000e-01	1.48088174e-02	1.41610125e-04
4.42000000e-01	1.48168314e-02	1.41732578e-04
4.43000000e-01	1.47505809e-02	1.41336236e-04
4.44000000e-01	1.48994176e-02	1.42981948e-04
4.45000000e-01	1.48494548e-02	1.42655527e-04
4.46000000e-01	1.47961675e-02	1.42471390e-04
4.47000000e-01	1.47641770e-02	1.42088673e-04
4.48000000e-01	1.47554455e-02	1.42306597e-04
4.49000000e-01	1.47569272e-02	1.42865283e-04
4.50000000e-01	1.47980596e-02	1.42848407e-04
4.51000000e-01	1.47609144e-02	1.42759124e-04
4.52000000e-01	1.48437004e-02	1.43094145e-04
4.53000000e-01	1.46827435e-02	1.42269589e-04
4.54000000e-01	1.46055439e-02	1.41426638e-04
4.55000000e-01	1.46366470e-02	1.41824798e-04
4.56000000e-01	1.47927286e-02	1.43648367e-04
4.57000000e-01	1.47834861e-02	1.43455761e-04
4.58000000e-01	1.45927916e-02	1.42258171e-04
4.59000000e-01	1.45595404e-02	1.41827495e-04
4.60000000e-01	1.46493614e-02	1.43036466e-04
4.61000000e-01	1.46342197e-02	1.42562157e-04
4.62000000e-01	1.46074827e-02	1.42057852e-04
4.63000000e-01	1.45906174e-02	1.42742546e-04
4.64000000e-01	1.45786418e-02	1.42539616e-04
4.65000000e-01	1.45759799e-02	1.42657822e-04
4.66000000e-01	1.45645405e-02	1.42316268e-04
4.67000000e-01	1.46124962e-02	1.43271702e-04
4.68000000e-01	1.45398326e-02	1.42430555e-04
4.69000000e-01	1.46129191e-02	1.43013521e-04
4.70000000e-01	1.45864572e-02	1.43165792e-04
4.71000000e-01	1.45684759e-02	1.43082504e-04
4.72000000e-01	1.45087071e-02	1.42584138e-04
4.73000000e-01	1.45280050e-02	1.42101000e-04
4.74000000e-01	1.45193714e-02	1.42083117e-04
4.75000000e-01	1.45438580e-02	1.42258891e-04
4.76000000e-01	1.45153046e-02	1.42285684e-04
4.77000000e-01	1.44784929e-02	1.41821019e-04
4.78000000e-01	1.45310981e-02	1.42598303e-04
4.79000000e-01	1.45369484e-02	1.42513321e-04
4.80000000e-01	1.44148755e-02	1.41707842e-04
4.81000000e-01	1.44078329e-02	1.41786884e-04
4.82000000e-01	1.43882459e-02	1.41685217e-04
4.83000000e-01	1.45647842e-02	1.43092189e-04
4.84000000e-01	1.43396619e-02	1.41152613e-04
4.85000000e-01	1.44893420e-02	1.42994459e-04
4.86000000e-01	1.44521768e-02	1.42190436e-04
4.87000000e-01	1.44267135e-02	1.42241333e-04
4.88000000e-01	1.44006434e-02	1.42116142e-04
4.89000000e-01	1.44419927e-02	1.42461509e-04
4.90000000e-01	1.43534630e-02	1.41665492e-04
4.91000000e-01	1.43849128e-02	1.41939905e-04
4.92000000e-01	1.44302902e-02	1.42677468e-04
4.93000000e-01	1.43179178e-02	1.41426626e-04
4.94000000e-01	1.44134706e-02	1.42681671e-04
4.95000000e-01	1.44364305e-02	1.43880687e-04
4.96000000e-01	1.43306160e-02	1.46474176e-04
4.97000000e-01	1.43918569e-02	1.50378205e-04
4.98000000e-01	1.42757401e-02	1.51046941e-04
4.99000000e-01	1.43426299e-02	1.53610750e-04
5.00000000e-01	1.43333792e-02	1.55125813e-04
5.01000000e-01	1.41495876e-02	1.54984552e-04
5.02000000e-01	1.44367888e-02	1.59105033e-04
5.03000000e-01	1.44020279e-02	1.60604455e-04
5.04000000e-01	1.43761616e-02	1.61268424e-04
5.05000000e-01	1.43535635e-02	1.59230346e-04
5.06000000e-01	1.43785616e-02	1.55710272e-04
5.07000000e-01	1.44119397e-02	1.54502021e-04
5.08000000e-01	1.42482226e-02	1.51696237e-04
5.09000000e-01	1.43302400e-02	1.51664385e-04
5.10000000e-01	1.42258735e-02	1.50769681e-04
5.11000000e-01	1.43640193e-02	1.51294226e-04
5.12000000e-01	1.42841183e-02	1.50089090e-04
5.13000000e-01	1.43304986e-02	1.50294573e-04
5.14000000e-01	1.41636529e-02	1.48332116e-04
5.15000000e-01	1.42837048e-02	1.49091228e-04
5.16000000e-01	1.40989015e-02	1.47187037e-04
5.17000000e-01	1.42120579e-02	1.48169008e-04
5.18000000e-01	1.41895222e-02	1.47792230e-04
5.19000000e-01	1.42418250e-02	1.47484285e-04
5.20000000e-01	1.41892927e-02	1.47210535e-04
5.21000000e-01	1.40453392e-02	1.45503298e-04
5.22000000e-01	1.42209774e-02	1.46700781e-04
5.23000000e-01	1.41364899e-02	1.46212666e-04
5.24000000e-01	1.40286935e-02	1.45798238e-04
5.25000000e-01	1.42688288e-02	1.47345642e-04
5.26000000e-01	1.40647964e-02	1.45599006e-04
5.27000000e-01	1.41353057e-02	1.45909479e-04
5.28000000e-01	1.39827325e-02	1.44717673e-04
5.29000000e-01	1.40568856e-02	1.45265982e-04
5.30000000e-01	1.40330724e-02	1.44975531e-04
5.31000000e-01	1.40277286e-02	1.45268957e-04
5.32000000e-01	1.39356762e-02	1.44259037e-04
5.33000000e-01	1.40159967e-02	1.44606163e-04
5.34000000e-01	1.40094611e-02	1.44456032e-04
5.35000000e-01	1.39026347e-02	1.43707102e-04
5.36000000e-01	1.39086476e-02	1.43740495e-04
5.37000000e-01	1.40592425e-02	1.45428519e-04
5.38000000e-01	1.40602216e-02	1.44596110e-04
5.39000000e-01	1.39129911e-02	1.43826018e-04
5.40000000e-01	1.38846349e-02	1.43505457e-04
5.41000000e-01	1.38894829e-02	1.43312850e-04
5.42000000e-01	1.40237928e-02	1.45164852e-04
5.43000000e-01	1.38224910e-02	1.42893358e-04
5.44000000e-01	1.39084385e-02	1.43634703e-04
5.45000000e-01	1.37811474e-02	1.41917870e-04
5.46000000e-01	1.37492106e-02	1.42042689e-04
5.47000000e-01	1.39832270e-02	1.44228488e-04
5.48000000e-01	1.39466577e-02	1.43826864e-04
5.49000000e-01	1.37553829e-02	1.42258612e-04
5.50000000e-01	1.39543651e-02	1.43408018e-04
5.51000000e-01	1.37310606e-02	1.41244651e-04
5.52000000e-01	1.38894752e-02	1.43062635e-04
5.53000000e-01	1.39389997e-02	1.43233902e-04
5.54000000e-01	1.37208355e-02	1.41416915e-04
5.55000000e-01	1.37883279e-02	1.41678631e-04
5.56000000e-01	1.38723015e-02	1.42241703e-04
5.57000000e-01	1.36472950e-02	1.40006615e-04
5.58000000e-01	1.38259120e-02	1.41972509e-04
5.59000000e-01	1.36417024e-02	1.40318009e-04
5.60000000e-01	1.38628566e-02	1.42403263e-04
5.61000000e-01	1.38304096e-02	1.41420190e-04
5.62000000e-01	1.37487082e-02	1.41422182e-04
5.63000000e-01	1.36093263e-02	1.39586457e-04
5.64000000e-01	1.38010298e-02	1.41825291e-04
5.65000000e-01	1.36110074e-02	1.40093171e-04
5.66000000e-01	1.35774995e-02	1.39911375e-04
5.67000000e-01	1.36129934e-02	1.40373374e-04
5.68000000e-01	1.35250410e-02	1.39310733e-04
5.69000000e-01	1.35994537e-02	1.39449152e-04
5.70000000e-01	1.36558422e-02	1.40585508e-04
5.71000000e-01	1.35799398e-02	1.39444557e-04
5.72000000e-01	1.36454566e-02	1.39968664e-04
5.73000000e-01	1.35497768e-02	1.39630576e-04
5.74000000e-01	1.36733846e-02	1.40720498e-04
5.75000000e-01	1.36548044e-02	1.40475189e-04
5.76000000e-01	1.34539966e-02	1.38378773e-04
5.77000000e-01	1.34530759e-02	1.38474979e-04
5.78000000e-01	1.36770557e-02	1.40592716e-04
5.79000000e-01	1.34435614e-02	1.39003169e-04
5.80000000e-01	1.33703529e-02	1.37854547e-04
5.81000000e-01	1.35356120e-02	1.39440603e-04
5.82000000e-01	1.34980439e-02	1.38995593e-04
5.83000000e-01	1.36415372e-02	1.40679732e-04
5.84000000e-01	1.35285875e-02	1.39209944e-04
5.85000000e-01	1.36031051e-02	1.40182925e-04
5.86000000e-01	1.35059947e-02	1.38952043e-04
5.87000000e-01	1.35083567e-02	1.39625144e-04
5.88000000e-01	1.31670853e-02	1.36602890e-04
5.89000000e-01	1.35284618e-02	1.39733856e-04
5.90000000e-01	1.33596696e-02	1.37787407e-04
5.91000000e-01	1.33790810e-02	1.38249128e-04
5.92000000e-01	1.34229810e-02	1.38716769e-04
5.93000000e-01	1.33978168e-02	1.38762493e-04
5.94000000e-01	1.34709809e-02	1.39180057e-04
5.95000000e-01	1.32372522e-02	1.37112671e-04
5.96000000e-01	1.33847244e-02	1.38547265e-04
5.97000000e-01	1.34520353e-02	1.39180997e-04
5.98000000e-01	1.33481520e-02	1.37720896e-04
5.99000000e-01	1.32962718e-02	1.37854789e-04
6.00000000e-01	1.33155941e-02	1.38534433e-04
6.01000000e-01	1.33052510e-02	1.37617408e-04
6.02000000e-01	1.33595068e-02	1.38579407e-04
6.03000000e-01	1.32799887e-02	1.37572036e-04
6.04000000e-01	1.32613852e-02	1.37106713e-04
6.05000000e-01	1.33306669e-02	1.37953148e-04
6.06000000e-01	1.32987160e-02	1.38206146e-04
6.07000000e-01	1.31933812e-02	1.37010368e-04
6.08000000e-01	1.33501768e-02	1.38436857e-04
6.09000000e-01	1.30920463e-02	1.35770480e-04
6.10000000e-01	1.34655583e-02	1.39306339e-04
6.11000000e-01	1.33544416e-02	1.38015590e-04
6.12000000e-01	1.31967707e-02	1.36791250e-04
6.13000000e-01	1.32987117e-02	1.38183869e-04
6.14000000e-01	1.32981324e-02	1.37990226e-04
6.15000000e-01	1.31784560e-02	1.36512469e-04
6.16000000e-01	1.32110358e-02	1.37172364e-04
6.17000000e-01	1.32042920e-02	1.37080605e-04
6.18000000e-01	1.30441656e-02	1.35807218e-04
6.19000000e-01	1.31224958e-02	1.35781069e-04
6.20000000e-01	1.32142575e-02	1.36943705e-04
6.21000000e-01	1.32129476e-02	1.37068644e-04
6.22000000e-01	1.32396003e-02	1.36474717e-04
6.23000000e-01	1.30388157e-02	1.34955838e-04
6.24000000e-01	1.31860663e-02	1.36158651e-04
6.25000000e-01	1.30589774e-02	1.35330845e-04
6.26000000e-01	1.31152900e-02	1.35171076e-04
6.27000000e-01	1.30298391e-02	1.34573944e-04
6.28000000e-01	1.29667027e-02	1.33877495e-04
6.29000000e-01	1.31023922e-02	1.35079393e-04
6.30000000e-01	1.28466201e-02	1.32938494e-04
6.31000000e-01	1.30478405e-02	1.33965888e-04
6.32000000e-01	1.30794691e-02	1.34658869e-04
6.33000000e-01	1.31177332e-02	1.35165669e-04
6.34000000e-01	1.32234487e-02	1.39451507e-04
6.35000000e-01	1.31381930e-02	1.43096770e-04
6.36000000e-01	1.30708161e-02	1.45067292e-04
6.37000000e-01	1.30507464e-02	1.46906632e-04
6.38000000e-01	1.31256336e-02	1.49226315e-04
6.39000000e-01	1.30455941e-02	1.50610553e-04
6.40000000e-01	1.30942878e-02	1.52827243e-04
6.41000000e-01	1.32121221e-02	1.55379496e-04
6.42000000e-01	1.31924216e-02	1.57689566e-04
6.43000000e-01	1.30071837e-02	1.55278469e-04
6.44000000e-01	1.31338517e-02	1.50969016e-04
6.45000000e-01	1.30684457e-02	1.47823207e-04
6.46000000e-01	1.31173023e-02	1.46986259e-04
6.47000000e-01	1.31851647e-02	1.46976339e-04
6.48000000e-01	1.32355398e-02	1.46111352e-04
6.49000000e-01	1.31115468e-02	1.44531748e-04
6.50000000e-01	1.31117798e-02	1.44114175e-04
6.51000000e-01	1.31312164e-02	1.43863751e-04
6.52000000e-01	1.31830985e-02	1.43130182e-04
6.53000000e-01	1.30176467e-02	1.40620755e-04
6.54000000e-01	1.30015624e-02	1.40752250e-04
6.55000000e-01	1.30612789e-02	1.40559080e-04
6.56000000e-01	1.30819984e-02	1.41221132e-04
6.57000000e-01	1.31407365e-02	1.41227399e-04
6.58000000e-01	1.30821505e-02	1.40607288e-04
6.59000000e-01	1.31407024e-02	1.41439465e-04
6.60000000e-01	1.30538620e-02	1.40240715e-04
6.61000000e-01	1.30098700e-02	1.39846574e-04
6.62000000e-01	1.29323667e-02	1.38848829e-04
6.63000000e-01	1.29407970e-02	1.39179758e-04
6.64000000e-01	1.29146389e-02	1.38243111e-04
6.65000000e-01	1.28513194e-02	1.37989311e-04
6.66000000e-01	1.30474382e-02	1.39746465e-04
6.67000000e-01	1.29075194e-02	1.37943621e-04
6.68000000e-01	1.30521331e-02	1.39291630e-04
6.69000000e-01	1.28392874e-02	1.37475763e-04
6.70000000e-01	1.30569562e-02	1.39180681e-04
6.71000000e-01	1.29352229e-02	1.38363215e-04
6.72000000e-01	1.28571925e-02	1.37371213e-04
6.73000000e-01	1.30640517e-02	1.39333269e-04
6.74000000e-01	1.30224466e-02	1.39061847e-04
6.75000000e-01	1.27206758e-02	1.36237712e-04
6.76000000e-01	1.29432726e-02	1.37865161e-04
6.77000000e-01	1.29087118e-02	1.37375575e-04
6.78000000e-01	1.29389661e-02	1.38566470e-04
6.79000000e-01	1.28570913e-02	1.37327463e-04
6.80000000e-01	1.29687460e-02	1.38007509e-04
6.81000000e-01	1.27702307e-02	1.35906804e-04
6.82000000e-01	1.27503722e-02	1.35943372e-04
6.83000000e-01	1.27460348e-02	1.36028724e-04
6.84000000e-01	1.27013707e-02	1.35949271e-04
6.85000000e-01	1.28370218e-02	1.36488128e-04
6.86000000e-01	1.28432507e-02	1.36647166e-04
6.87000000e-01	1.28965963e-02	1.37214596e-04
6.88000000e-01	1.27503747e-02	1.36081203e-04
6.89000000e-01	1.27441112e-02	1.35891248e-04
6.90000000e-01	1.27995107e-02	1.36833842e-04
6.91000000e-01	1.27014235e-02	1.35339867e-04
6.92000000e-01	1.26780997e-02	1.35554210e-04
6.93000000e-01	1.27427747e-02	1.35762406e-04
6.94000000e-01	1.27725809e-02	1.35934941e-04
6.95000000e-01	1.29277584e-02	1.37128402e-04
6.96000000e-01	1.27749799e-02	1.36233442e-04
6.97000000e-01	1.27011490e-02	1.35102959e-04
6.98000000e-01	1.25669915e-02	1.33829329e-04
6.99000000e-01	1.27461446e-02	1.35790842e-04
7.00000000e-01	1.27210142e-02	1.35078008e-04
7.01000000e-01	1.27836890e-02	1.35547130e-04
7.02000000e-01	1.26173781e-02	1.34770709e-04
7.03000000e-01	1.26136671e-02	1.34267889e-04
7.04000000e-01	1.26779482e-02	1.34796657e-04
7.05000000e-01	1.25468273e-02	1.34097519e-04
7.06000000e-01	1.26631235e-02	1.35065475e-04
7.07000000e-01	1.25592422e-02	1.33582698e-04
7.08000000e-01	1.25534570e-02	1.33987862e-04
7.09000000e-01	1.26151500e-02	1.33790446e-04
7.10000000e-01	1.25836951e-02	1.33720671e-04
7.11000000e-01	1.24702075e-02	1.32996046e-04
7.12000000e-01	1.24318054e-02	1.32007426e-04
7.13000000e-01	1.24776017e-02	1.33274214e-04
7.14000000e-01	1.24081551e-02	1.31863232e-04
7.15000000e-01	1.23848422e-02	1.31997731e-04
7.16000000e-01	1.24352088e-02	1.32438242e-04
7.17000000e-01	1.25726119e-02	1.33999520e-04
7.18000000e-01	1.23298280e-02	1.31151889e-04
7.19000000e-01	1.25853444e-02	1.33825499e-04
7.20000000e-01	1.24127439e-02	1.31969352e-04
7.21000000e-01	1.24330448e-02	1.32114153e-04
7.22000000e-01	1.23613027e-02	1.31577007e-04
7.23000000e-01	1.23401671e-02	1.31771590e-04
7.24000000e-01	1.24523525e-02	1.32385183e-04
7.25000000e-01	1.23099527e-02	1.31318061e-04
7.26000000e-01	1.23426332e-02	1.31638771e-04
7.27000000e-01	1.24099468e-02	1.31917803e-04
7.28000000e-01	1.23123203e-02	1.30886682e-04
7.29000000e-01	1.22418992e-02	1.31060554e-04
7.30000000e-01	1.21902381e-02	1.30357889e-04
7.31000000e-01	1.22473845e-02	1.30263210e-04
7.32000000e-01	1.22778307e-02	1.30859480e-04
7.33000000e-01	1.23197241e-02	1.31124631e-04
7.34000000e-01	1.23323920e-02	1.31232332e-04
7.35000000e-01	1.23703596e-02	1.31018828e-04
7.36000000e-01	1.23570654e-02	1.31080279e-04
7.37000000e-01	1.21243452e-02	1.28619882e-04
7.38000000e-01	1.21754439e-02	1.28876313e-04
7.39000000e-01	1.20975599e-02	1.27718146e-04
7.40000000e-01	1.23313304e-02	1.29815639e-04
7.41000000e-01	1.21671397e-02	1.28490823e-04
7.42000000e-01	1.20835441e-02	1.27991173e-04
7.43000000e-01	1.21393015e-02	1.28085287e-04
7.44000000e-01	1.20748171e-02	1.27595225e-04
7.45000000e-01	1.21548797e-02	1.28379572e-04
7.46000000e-01	1.21812931e-02	1.28343628e-04
7.47000000e-01	1.21068439e-02	1.27961892e-04
7.48000000e-01	1.20025817e-02	1.27073413e-04
7.49000000e-01	1.22315936e-02	1.28848650e-04
7.50000000e-01	1.21811316e-02	1.28369504e-04
7.51000000e-01	1.21035890e-02	1.27532188e-04
7.52000000e-01	1.21764178e-02	1.28372061e-04
7.53000000e-01	1.20931937e-02	1.27715897e-04
7.54000000e-01	1.20377163e-02	1.27315245e-04
7.55000000e-01	1.21268716e-02	1.28334705e-04
7.56000000e-01	1.19646072e-02	1.26740955e-04
7.57000000e-01	1.21048571e-02	1.27733996e-04
7.58000000e-01	1.20417634e-02	1.27373364e-04
7.59000000e-01	1.20542987e-02	1.27394463e-04
7.60000000e-01	1.20262896e-02	1.27077876e-04
7.61000000e-01	1.19513145e-02	1.25363517e-04
7.62000000e-01	1.20057362e-02	1.26037659e-04
7.63000000e-01	1.19473168e-02	1.25681335e-04
7.64000000e-01	1.19749367e-02	1.25716887e-04
7.65000000e-01	1.19352915e-02	1.25328779e-04
7.66000000e-01	1.20252918e-02	1.25981055e-04
7.67000000e-01	1.19871869e-02	1.25638905e-04
7.68000000e-01	1.19545422e-02	1.25452539e-04
7.69000000e-01	1.20506947e-02	1.25745163e-04
7.70000000e-01	1.18781199e-02	1.24598834e-04
7.71000000e-01	1.18652268e-02	1.24556139e-04
7.72000000e-01	1.18936309e-02	1.28714359e-04
7.73000000e-01	1.18965665e-02	1.32561224e-04
7.74000000e-01	1.17505809e-02	1.33366136e-04
7.75000000e-01	1.17646672e-02	1.36292306e-04
7.76000000e-01	1.18434562e-02	1.39394956e-04
7.77000000e-01	1.17455106e-02	1.39922077e-04
7.78000000e-01	1.17541125e-02	1.42371177e-04
7.79000000e-01	1.17885834e-02	1.44130517e-04
7.80000000e-01	1.18216356e-02	1.46205305e-04
7.81000000e-01	1.18555247e-02	1.48196950e-04
7.82000000e-01	1.17290455e-02	1.48358283e-04
7.83000000e-01	1.17533152e-02	1.49961068e-04
7.84000000e-01	1.18350898e-02	1.52864660e-04
7.85000000e-01	1.17130501e-02	1.53272103e-04
7.86000000e-01	1.17752304e-02	1.56095180e-04
7.87000000e-01	1.17818974e-02	1.57215660e-04
7.88000000e-01	1.16041175e-02	1.57012837e-04
7.89000000e-01	1.14027829e-02	1.55674795e-04
7.90000000e-01	1.16633949e-02	1.59921648e-04
7.91000000e-01	1.17849462e-02	1.64007664e-04
7.92000000e-01	1.16471598e-02	1.63395886e-04
7.93000000e-01	1.15838012e-02	1.63991985e-04
7.94000000e-01	1.15356397e-02	1.65384232e-04
7.95000000e-01	1.15644846e-02	1.67488219e-04
7.96000000e-01	1.15205556e-02	1.67534338e-04
7.97000000e-01	1.16103146e-02	1.71522779e-04
7.98000000e-01	1.16394112e-02	1.73307184e-04
7.99000000e-01	1.16186228e-02	1.74916932e-04
8.00000000e-01	1.15497768e-02	1.76544305e-04
8.01000000e-01	1.16845023e-02	1.78850122e-04
8.02000000e-01	1.15362661e-02	1.79410907e-04
8.03000000e-01	1.14524390e-02	1.79833948e-04
8.04000000e-01	1.13119019e-02	1.80471837e-04
8.05000000e-01	1.16103026e-02	1.86293001e-04
8.06000000e-01	1.14703619e-02	1.85939993e-04
8.07000000e-01	1.15078234e-02	1.88143193e-04
8.08000000e-01	1.16258959e-02	1.92702115e-04
8.09000000e-01	1.13416963e-02	1.90693414e-04
8.10000000e-01	1.12545554e-02	1.90794868e-04
8.11000000e-01	1.14363303e-02	1.95514141e-04
8.12000000e-01	1.13198350e-02	1.96740287e-04
8.13000000e-01	1.13232495e-02	1.99586965e-04
8.14000000e-01	1.15943177e-02	2.04362471e-04
8.15000000e-01	1.14123924e-02	2.05474719e-04
8.16000000e-01	1.15657033e-02	2.10000881e-04
8.17000000e-01	1.12939256e-02	2.07556343e-04
8.18000000e-01	1.13510416e-02	2.13010646e-04
8.19000000e-01	1.12533738e-02	2.13201851e-04
8.20000000e-01	1.12956413e-02	2.16238163e-04
8.21000000e-01	1.13574460e-02	2.20309549e-04
8.22000000e-01	1.12677840e-02	2.21589913e-04
8.23000000e-01	1.13957006e-02	2.25341622e-04
8.24000000e-01	1.11019803e-02	2.24653745e-04
8.25000000e-01	1.11396752e-02	2.27055325e-04
8.26000000e-01	1.11506459e-02	2.32834166e-04
8.27000000e-01	1.13109289e-02	2.37163795e-04
8.28000000e-01	1.11888418e-02	2.39214250e-04
8.29000000e-01	1.08538502e-02	2.36712983e-04
8.30000000e-01	1.12093818e-02	2.48396694e-04
8.31000000e-01	1.12399907e-02	2.50681796e-04
8.32000000e-01	1.09351631e-02	2.50206623e-04
8.33000000e-01	1.11093275e-02	2.59019749e-04
8.34000000e-01	1.10140796e-02	2.60430118e-04
8.35000000e-01	1.09223604e-02	2.66157828e-04
8.36000000e-01	1.09315672e-02	2.69103443e-04
8.37000000e-01	1.14232695e-02	2.83144570e-04
8.38000000e-01	1.07422939e-02	2.72796590e-04
8.39000000e-01	1.10396093e-02	2.89102130e-04
8.40000000e-01	1.12692517e-02	2.99470081e-04
8.41000000e-01	1.11061157e-02	3.02448825e-04
8.42000000e-01	1.10222042e-02	3.08817803e-04
8.43000000e-01	1.12604636e-02	3.17322391e-04
8.44000000e-01	1.10268238e-02	3.21729920e-04
8.45000000e-01	1.07857534e-02	3.23986344e-04
8.46000000e-01	1.08962552e-02	3.35694182e-04
8.47000000e-01	1.07732022e-02	3.41925983e-04
8.48000000e-01	1.07306893e-02	3.51623121e-04
8.49000000e-01	1.07869442e-02	3.62336402e-04
8.50000000e-01	1.05991593e-02	3.68311079e-04
8.51000000e-01	1.05700192e-02	3.82992313e-04
8.52000000e-01	1.05875070e-02	4.02465941e-04
8.53000000e-01	1.08194380e-02	4.23629598e-04
8.54000000e-01	1.11226312e-02	4.50650875e-04
8.55000000e-01	1.05513977e-02	4.54011277e-04
8.56000000e-01	1.05094548e-02	4.56929553e-04
8.57000000e-01	1.08262596e-02	4.79448279e-04
8.58000000e-01	1.10039505e-02	5.07703168e-04
8.59000000e-01	1.05815564e-02	5.05288380e-04
8.60000000e-01	1.10174727e-02	5.42920651e-04
8.61000000e-01	1.12246433e-02	5.59400036e-04
8.62000000e-01	1.08310038e-02	5.74331612e-04
8.63000000e-01	1.07958644e-02	5.94029127e-04
8.64000000e-01	1.05623230e-02	6.18688937e-04
8.65000000e-01	1.01184689e-02	6.09533749e-04
8.66000000e-01	1.10080087e-02	6.92644375e-04
8.67000000e-01	1.09497209e-02	7.17842184e-04
8.68000000e-01	1.10294787e-02	7.72300477e-04
8.69000000e-01	1.05187995e-02	8.06700331e-04
8.70000000e-01	1.10100264e-02	9.17706582e-04
8.71000000e-01	1.14386586e-02	1.04709126e-03
8.72000000e-01	1.02736634e-02	1.08628383e-03
8.73000000e-01	1.09360991e-02	1.32289374e-03
8.74000000e-01	1.08998285e-02	1.68219742e-03
8.75000000e-01	1.32225405e-02	4.53411537e-03
