% Filename : SNCHoHie_2_00048_00017.h5
% Date & Time : 30-Oct-2025 18:15:33
% X-ray Energy (keV) : 13.30001
% Exposure Time (s) : 0.500
% Beam Center : 1461.24000, 208.98300
% Sample to Detector Distance (SDD) (mm) : 1990.750
% Detector Pixel Size (mm) : 0.075
% Photodiode Value : 141327.000
% I0 of Sample : 0
% I0 of Standard : 1
% 
% q(A^-1)   I(q)    I(q)_SE
0.00000000e+00	5.11345054e-03	3.13133129e-03
2.50000000e-04	0.00000000e+00	0.00000000e+00
5.00000000e-04	0.00000000e+00	0.00000000e+00
7.50000000e-04	0.00000000e+00	0.00000000e+00
1.00000000e-03	0.00000000e+00	0.00000000e+00
1.25000000e-03	0.00000000e+00	0.00000000e+00
1.50000000e-03	0.00000000e+00	0.00000000e+00
1.75000000e-03	0.00000000e+00	0.00000000e+00
2.00000000e-03	0.00000000e+00	0.00000000e+00
2.25000000e-03	0.00000000e+00	0.00000000e+00
2.50000000e-03	0.00000000e+00	0.00000000e+00
2.75000000e-03	0.00000000e+00	0.00000000e+00
3.00000000e-03	0.00000000e+00	0.00000000e+00
3.25000000e-03	1.46926446e+03	1.45519975e+03
3.50000000e-03	6.27671000e+01	4.71363414e+01
3.75000000e-03	1.74946849e+02	1.29165872e+02
4.00000000e-03	1.19340201e+02	7.89650413e+01
4.25000000e-03	5.49226105e+01	3.90412675e+01
4.50000000e-03	5.92844135e+01	3.22895097e+01
4.75000000e-03	5.89699594e+01	3.17750410e+01
5.00000000e-03	4.45477034e+01	2.56535778e+01
5.25000000e-03	3.88980119e+01	2.30050907e+01
5.50000000e-03	2.89109533e+01	1.66917623e+01
5.75000000e-03	2.40983387e+01	1.41141988e+01
6.00000000e-03	2.18966736e+01	1.27744734e+01
6.25000000e-03	1.79389940e+01	9.77935492e+00
6.50000000e-03	1.49872809e+01	7.69475185e+00
6.75000000e-03	1.36533630e+01	6.96814768e+00
7.00000000e-03	1.22828015e+01	6.33668001e+00
7.25000000e-03	1.04754776e+01	5.32580581e+00
7.50000000e-03	9.63758830e+00	5.14214517e+00
7.75000000e-03	7.68349669e+00	4.09623425e+00
8.00000000e-03	6.30522043e+00	3.35763881e+00
8.25000000e-03	5.60696435e+00	3.15265508e+00
8.50000000e-03	4.71271311e+00	2.63131602e+00
8.75000000e-03	4.08560361e+00	2.19649780e+00
9.00000000e-03	3.63020929e+00	1.87111700e+00
9.25000000e-03	3.20250143e+00	1.56779774e+00
9.50000000e-03	3.05188874e+00	1.44602614e+00
9.75000000e-03	2.67597022e+00	1.22879766e+00
1.00000000e-02	2.34609972e+00	1.09617598e+00
1.02500000e-02	1.59895928e+00	8.73205074e-01
1.05000000e-02	2.00074889e+00	9.62128701e-01
1.07500000e-02	2.01059036e+00	9.91160947e-01
1.10000000e-02	1.73846647e+00	8.59731365e-01
1.12500000e-02	1.68096776e+00	8.58568737e-01
1.15000000e-02	1.48081496e+00	7.47441234e-01
1.17500000e-02	1.30437195e+00	6.38944490e-01
1.20000000e-02	1.27418471e+00	6.10583810e-01
1.22500000e-02	1.04709934e+00	4.61952110e-01
1.25000000e-02	9.31377825e-01	3.96604482e-01
1.27500000e-02	9.28342001e-01	3.96980363e-01
1.30000000e-02	8.39186188e-01	3.56725334e-01
1.32500000e-02	8.01313316e-01	3.43169942e-01
1.35000000e-02	7.22300822e-01	3.05292292e-01
1.37500000e-02	6.38098253e-01	2.58381674e-01
1.40000000e-02	6.19731251e-01	2.62859061e-01
1.42500000e-02	5.66392962e-01	2.43265297e-01
1.45000000e-02	5.30811996e-01	2.29761628e-01
1.47500000e-02	4.98024294e-01	2.07621083e-01
1.50000000e-02	4.80714506e-01	1.98841368e-01
1.52500000e-02	4.66493559e-01	1.85375689e-01
1.55000000e-02	3.45908933e-01	1.46810459e-01
1.57500000e-02	3.96811554e-01	1.56510672e-01
1.60000000e-02	3.56826306e-01	1.35516679e-01
1.62500000e-02	3.61337451e-01	1.39917920e-01
1.65000000e-02	3.37450177e-01	1.29871350e-01
1.67500000e-02	3.10533640e-01	1.17547920e-01
1.70000000e-02	2.91115350e-01	1.10892158e-01
1.72500000e-02	2.70804708e-01	1.03634103e-01
1.75000000e-02	2.45795782e-01	9.16545058e-02
1.77500000e-02	2.43515835e-01	9.01115429e-02
1.80000000e-02	2.28829624e-01	8.02797044e-02
1.82500000e-02	2.05237294e-01	6.69001455e-02
1.85000000e-02	2.10748466e-01	6.81130142e-02
1.87500000e-02	2.00155001e-01	6.34865361e-02
1.90000000e-02	1.94959068e-01	6.14575698e-02
1.92500000e-02	1.82446522e-01	5.78188089e-02
1.95000000e-02	1.79775552e-01	5.94280901e-02
1.97500000e-02	1.66055641e-01	5.39491081e-02
2.00000000e-02	1.64847338e-01	5.63100327e-02
2.02500000e-02	1.65397300e-01	5.77020448e-02
2.05000000e-02	1.48295010e-01	4.65356491e-02
2.07500000e-02	1.40322647e-01	4.32134449e-02
2.10000000e-02	1.38213048e-01	4.04978228e-02
2.12500000e-02	1.32979791e-01	3.70543348e-02
2.15000000e-02	1.24110747e-01	3.18128204e-02
2.17500000e-02	1.23727393e-01	3.21141779e-02
2.20000000e-02	1.17333737e-01	2.96513360e-02
2.22500000e-02	9.89481814e-02	2.42355319e-02
2.25000000e-02	1.10693156e-01	2.78434295e-02
2.27500000e-02	1.09471923e-01	2.86989251e-02
2.30000000e-02	1.09792814e-01	2.86007311e-02
2.32500000e-02	1.04022320e-01	2.73190077e-02
2.35000000e-02	1.05737529e-01	2.80031897e-02
2.37500000e-02	1.01939601e-01	2.58034038e-02
2.40000000e-02	9.59676296e-02	2.31561565e-02
2.42500000e-02	9.36582092e-02	2.15491145e-02
2.45000000e-02	9.50017976e-02	2.16609072e-02
2.47500000e-02	8.94517777e-02	1.97820682e-02
2.50000000e-02	8.84923253e-02	1.94814399e-02
2.52500000e-02	8.61396547e-02	1.91147858e-02
2.55000000e-02	8.32245151e-02	1.74780905e-02
2.57500000e-02	8.21930057e-02	1.82624675e-02
2.60000000e-02	8.01414468e-02	1.69497070e-02
2.62500000e-02	7.79952943e-02	1.69399218e-02
2.65000000e-02	7.51660560e-02	1.53616306e-02
2.67500000e-02	7.38027974e-02	1.44495053e-02
2.70000000e-02	7.13114153e-02	1.33887142e-02
2.72500000e-02	7.25046701e-02	1.41491463e-02
2.75000000e-02	6.94146480e-02	1.29984694e-02
2.77500000e-02	6.64715127e-02	1.10100927e-02
2.80000000e-02	6.34070282e-02	1.05869428e-02
2.82500000e-02	6.54270209e-02	1.12229475e-02
2.85000000e-02	6.67867729e-02	1.17509615e-02
2.87500000e-02	6.42119871e-02	1.11258829e-02
2.90000000e-02	6.24666544e-02	1.09197234e-02
2.92500000e-02	6.12774642e-02	9.85157080e-03
2.95000000e-02	5.59122224e-02	8.14518835e-03
2.97500000e-02	5.99638435e-02	9.44484760e-03
3.00000000e-02	6.09627890e-02	9.30027099e-03
3.02500000e-02	5.83533951e-02	8.73733186e-03
3.05000000e-02	5.61908018e-02	7.95547725e-03
3.07500000e-02	5.56197172e-02	7.99741084e-03
3.10000000e-02	5.66322559e-02	7.93943529e-03
3.12500000e-02	5.47275492e-02	7.70147330e-03
3.15000000e-02	5.42400618e-02	7.79925486e-03
3.17500000e-02	5.11770412e-02	7.27035090e-03
3.20000000e-02	5.03048122e-02	7.04568800e-03
3.22500000e-02	5.13991065e-02	6.90578762e-03
3.25000000e-02	5.05032004e-02	6.69615825e-03
3.27500000e-02	4.96867775e-02	5.97368618e-03
3.30000000e-02	4.72004916e-02	5.73285808e-03
3.32500000e-02	4.73787882e-02	5.73051461e-03
3.35000000e-02	4.70460271e-02	5.60526982e-03
3.37500000e-02	4.73701856e-02	5.63194837e-03
3.40000000e-02	4.63774770e-02	5.51095459e-03
3.42500000e-02	4.46484246e-02	5.07140702e-03
3.45000000e-02	4.46791372e-02	5.27993373e-03
3.47500000e-02	4.45195132e-02	5.03945871e-03
3.50000000e-02	4.48774243e-02	5.18758878e-03
3.52500000e-02	4.41373199e-02	4.97761024e-03
3.55000000e-02	4.19402551e-02	4.12469124e-03
3.57500000e-02	4.13091961e-02	4.28181135e-03
3.60000000e-02	4.05360592e-02	4.31293798e-03
3.62500000e-02	3.79364435e-02	3.30908522e-03
3.65000000e-02	4.14405666e-02	4.21411368e-03
3.67500000e-02	3.94579831e-02	3.81681928e-03
3.70000000e-02	4.12789722e-02	4.20314655e-03
3.72500000e-02	3.83003884e-02	3.55146271e-03
3.75000000e-02	3.82409922e-02	3.59662316e-03
3.77500000e-02	3.84420904e-02	3.61285093e-03
3.80000000e-02	3.77951772e-02	3.63584938e-03
3.82500000e-02	3.79935916e-02	3.30142383e-03
3.85000000e-02	3.69408036e-02	3.37505851e-03
3.87500000e-02	3.68659288e-02	3.14164250e-03
3.90000000e-02	3.68367668e-02	3.08768342e-03
3.92500000e-02	3.51921507e-02	2.92323172e-03
3.95000000e-02	3.68442037e-02	3.23021792e-03
3.97500000e-02	3.61546039e-02	3.07500928e-03
4.00000000e-02	3.50378465e-02	2.85348148e-03
4.02500000e-02	3.56791992e-02	2.98553438e-03
4.05000000e-02	3.50277443e-02	2.78390384e-03
4.07500000e-02	3.48233742e-02	2.63593636e-03
4.10000000e-02	3.47224545e-02	2.73271470e-03
4.12500000e-02	3.48531570e-02	2.71525607e-03
4.15000000e-02	3.25064859e-02	2.28866204e-03
4.17500000e-02	3.33191673e-02	2.46288696e-03
4.20000000e-02	3.31655548e-02	2.37392672e-03
4.22500000e-02	3.29177572e-02	2.23224915e-03
4.25000000e-02	3.27758180e-02	2.20759779e-03
4.27500000e-02	3.29177062e-02	2.22076486e-03
4.30000000e-02	3.23439713e-02	2.09599162e-03
4.32500000e-02	3.19248517e-02	2.09714204e-03
4.35000000e-02	3.10456996e-02	2.06802115e-03
4.37500000e-02	3.17624451e-02	2.18306531e-03
4.40000000e-02	3.12302712e-02	2.07543805e-03
4.42500000e-02	3.14771694e-02	2.04407279e-03
4.45000000e-02	3.12339140e-02	1.97862572e-03
4.47500000e-02	3.09852594e-02	1.97047323e-03
4.50000000e-02	3.10142224e-02	1.92137650e-03
4.52500000e-02	3.03755881e-02	1.90011654e-03
4.55000000e-02	3.00945053e-02	1.92584713e-03
4.57500000e-02	2.97822877e-02	1.73900963e-03
4.60000000e-02	3.01009904e-02	1.76753955e-03
4.62500000e-02	3.00383458e-02	1.75265815e-03
4.65000000e-02	2.93732788e-02	1.67529088e-03
4.67500000e-02	2.96366013e-02	1.64129303e-03
4.70000000e-02	2.94941895e-02	1.66423170e-03
4.72500000e-02	2.89830701e-02	1.62695497e-03
4.75000000e-02	2.96260176e-02	1.69272361e-03
4.77500000e-02	2.83249240e-02	1.49311107e-03
4.80000000e-02	2.82030108e-02	1.51436290e-03
4.82500000e-02	2.80549002e-02	1.50809723e-03
4.85000000e-02	2.88366862e-02	1.59869422e-03
4.87500000e-02	2.81943566e-02	1.45888824e-03
4.90000000e-02	2.83627059e-02	1.44780858e-03
4.92500000e-02	2.76393232e-02	1.41770569e-03
4.95000000e-02	2.76298431e-02	1.43953601e-03
4.97500000e-02	2.72069960e-02	1.35840488e-03
5.00000000e-02	2.84754713e-02	1.43301840e-03
5.02500000e-02	2.70258061e-02	1.37349060e-03
5.05000000e-02	2.72357467e-02	1.32506044e-03
5.07500000e-02	2.75658789e-02	1.34162360e-03
5.10000000e-02	2.71143468e-02	1.31380694e-03
5.12500000e-02	2.64875702e-02	1.30655456e-03
5.15000000e-02	2.73212397e-02	1.31734874e-03
5.17500000e-02	2.68146886e-02	1.28092482e-03
5.20000000e-02	2.56665652e-02	1.19958426e-03
5.22500000e-02	2.65438690e-02	1.27036361e-03
5.25000000e-02	2.64458362e-02	1.23116402e-03
5.27500000e-02	2.61779749e-02	1.22991188e-03
5.30000000e-02	2.60468415e-02	1.17940116e-03
5.32500000e-02	2.59330531e-02	1.17193668e-03
5.35000000e-02	2.62613521e-02	1.19087712e-03
5.37500000e-02	2.56095365e-02	1.14380934e-03
5.40000000e-02	2.57808428e-02	1.18119180e-03
5.42500000e-02	2.49346345e-02	1.12728321e-03
5.45000000e-02	2.55707748e-02	1.11600272e-03
5.47500000e-02	2.51863266e-02	1.11689951e-03
5.50000000e-02	2.56271578e-02	1.10803922e-03
5.52500000e-02	2.56732806e-02	1.16641426e-03
5.55000000e-02	2.42958901e-02	1.02857592e-03
5.57500000e-02	2.45871698e-02	1.05812775e-03
5.60000000e-02	2.50169558e-02	1.06686869e-03
5.62500000e-02	2.47980526e-02	1.08461612e-03
5.65000000e-02	2.51859894e-02	1.05835985e-03
5.67500000e-02	2.49583008e-02	1.03684293e-03
5.70000000e-02	2.49346548e-02	1.00799916e-03
5.72500000e-02	2.47601675e-02	1.04011777e-03
5.75000000e-02	2.47831212e-02	1.04245392e-03
5.77500000e-02	2.36114996e-02	9.73208389e-04
5.80000000e-02	2.44499930e-02	9.98078666e-04
5.82500000e-02	2.43242914e-02	1.00150566e-03
5.85000000e-02	2.48259641e-02	1.02236326e-03
5.87500000e-02	2.44824497e-02	9.94562510e-04
5.90000000e-02	2.44015396e-02	9.80049661e-04
5.92500000e-02	2.33158499e-02	9.22184385e-04
5.95000000e-02	2.35556242e-02	9.43763152e-04
5.97500000e-02	2.33671611e-02	9.45777028e-04
6.00000000e-02	2.34607557e-02	9.36420300e-04
6.02500000e-02	2.37952691e-02	9.45621127e-04
6.05000000e-02	2.40106063e-02	9.41684151e-04
6.07500000e-02	2.31913932e-02	9.08945551e-04
6.10000000e-02	2.39375854e-02	9.33988441e-04
6.12500000e-02	2.39814107e-02	9.38119022e-04
6.15000000e-02	2.38371039e-02	9.08475165e-04
6.17500000e-02	2.30970032e-02	9.00697614e-04
6.20000000e-02	2.39234742e-02	9.35000684e-04
6.22500000e-02	2.29458621e-02	8.67447284e-04
6.25000000e-02	2.37613398e-02	9.25171466e-04
6.27500000e-02	2.33100773e-02	8.90165515e-04
6.30000000e-02	2.34064294e-02	8.76176990e-04
6.32500000e-02	2.38606887e-02	9.06156255e-04
6.35000000e-02	2.31697729e-02	8.70017245e-04
6.37500000e-02	2.30858657e-02	8.65686974e-04
6.40000000e-02	2.27336324e-02	8.46208962e-04
6.42500000e-02	2.26893053e-02	8.46243062e-04
6.45000000e-02	2.23059888e-02	8.34807499e-04
6.47500000e-02	2.26943827e-02	8.39614428e-04
6.50000000e-02	2.29499528e-02	8.47314186e-04
6.52500000e-02	2.29881234e-02	8.47594141e-04
6.55000000e-02	2.33919942e-02	8.56655123e-04
6.57500000e-02	2.30903661e-02	8.50387658e-04
6.60000000e-02	2.27400615e-02	8.38870093e-04
6.62500000e-02	2.30005818e-02	8.57190422e-04
6.65000000e-02	2.25359507e-02	8.24216978e-04
6.67500000e-02	2.23836081e-02	8.08900237e-04
6.70000000e-02	2.21114956e-02	8.15799558e-04
6.72500000e-02	2.33307252e-02	8.43230343e-04
6.75000000e-02	2.23215707e-02	8.03262747e-04
6.77500000e-02	2.23494485e-02	8.01704960e-04
6.80000000e-02	2.22829149e-02	8.05721522e-04
6.82500000e-02	2.26349529e-02	8.09607859e-04
6.85000000e-02	2.24193604e-02	8.04915268e-04
6.87500000e-02	2.20000453e-02	7.91224772e-04
6.90000000e-02	2.20520330e-02	7.88984793e-04
6.92500000e-02	2.22324491e-02	7.89238372e-04
6.95000000e-02	2.21535068e-02	7.94242178e-04
6.97500000e-02	2.22320942e-02	7.86423089e-04
7.00000000e-02	2.21026758e-02	7.78177660e-04
7.02500000e-02	2.20921823e-02	7.74843586e-04
7.05000000e-02	2.17432618e-02	7.57839440e-04
7.07500000e-02	2.16340997e-02	7.73944648e-04
7.10000000e-02	2.19984870e-02	7.69214197e-04
7.12500000e-02	2.16047050e-02	7.58650769e-04
7.15000000e-02	2.18995442e-02	7.64090390e-04
7.17500000e-02	2.21710384e-02	7.72791013e-04
7.20000000e-02	2.21218607e-02	7.75808488e-04
7.22500000e-02	2.13341868e-02	7.43593194e-04
7.25000000e-02	2.20053300e-02	7.62719544e-04
7.27500000e-02	2.14731238e-02	7.49495838e-04
7.30000000e-02	2.21694676e-02	7.66193129e-04
7.32500000e-02	2.19791536e-02	7.55933847e-04
7.35000000e-02	2.20362218e-02	7.57845531e-04
7.37500000e-02	2.16034657e-02	7.46288504e-04
7.40000000e-02	2.21195569e-02	7.57093416e-04
7.42500000e-02	2.12320790e-02	7.31219620e-04
7.45000000e-02	2.18126654e-02	7.45335465e-04
7.47500000e-02	2.11588476e-02	7.27891269e-04
7.50000000e-02	2.15959425e-02	7.36997749e-04
7.52500000e-02	2.20941249e-02	7.52425887e-04
7.55000000e-02	2.16219930e-02	7.24659598e-04
7.57500000e-02	2.15624843e-02	7.30521414e-04
7.60000000e-02	2.22844583e-02	7.56093217e-04
7.62500000e-02	2.14543569e-02	7.25139592e-04
7.65000000e-02	2.14260754e-02	7.23710103e-04
7.67500000e-02	2.16854649e-02	7.29813380e-04
7.70000000e-02	2.14856353e-02	7.20429921e-04
7.72500000e-02	2.13528049e-02	7.33921065e-04
7.75000000e-02	2.15260164e-02	7.44701837e-04
7.77500000e-02	2.11686015e-02	7.38369281e-04
7.80000000e-02	2.12436039e-02	7.38935415e-04
7.82500000e-02	2.16660690e-02	7.61260688e-04
7.85000000e-02	2.15671581e-02	7.58356810e-04
7.87500000e-02	2.12842534e-02	7.55446331e-04
7.90000000e-02	2.10999817e-02	7.44796064e-04
7.92500000e-02	2.16776857e-02	7.65601966e-04
7.95000000e-02	2.19163096e-02	7.73514737e-04
7.97500000e-02	2.15713200e-02	7.73496233e-04
8.00000000e-02	2.12541260e-02	7.55571007e-04
8.02500000e-02	2.15387463e-02	7.68055147e-04
8.05000000e-02	2.13618357e-02	7.62764192e-04
8.07500000e-02	2.17346617e-02	7.88591926e-04
8.10000000e-02	2.12204735e-02	7.66397382e-04
8.12500000e-02	2.15760414e-02	7.79154623e-04
8.15000000e-02	2.14967391e-02	7.76415869e-04
8.17500000e-02	2.14613210e-02	7.78698734e-04
8.20000000e-02	2.15582937e-02	7.85958974e-04
8.22500000e-02	2.14010775e-02	7.75708382e-04
8.25000000e-02	2.14854113e-02	7.77371972e-04
8.27500000e-02	2.10113247e-02	7.62460640e-04
8.30000000e-02	2.07266103e-02	7.62058452e-04
8.32500000e-02	2.12229682e-02	7.75148602e-04
8.35000000e-02	2.10027604e-02	7.73612966e-04
8.37500000e-02	2.11881974e-02	7.75325010e-04
8.40000000e-02	2.07829221e-02	7.66969092e-04
8.42500000e-02	2.07748820e-02	7.61563843e-04
8.45000000e-02	2.06587714e-02	7.59837336e-04
8.47500000e-02	2.10161453e-02	7.75736108e-04
8.50000000e-02	2.12502616e-02	7.78470838e-04
8.52500000e-02	2.12926743e-02	7.92110788e-04
8.55000000e-02	2.19479332e-02	8.02874344e-04
8.57500000e-02	2.14450180e-02	7.99242571e-04
8.60000000e-02	2.14153351e-02	7.90884669e-04
8.62500000e-02	2.11406322e-02	7.78935725e-04
8.65000000e-02	2.05466534e-02	7.64433169e-04
8.67500000e-02	2.11560553e-02	7.74872538e-04
8.70000000e-02	2.12573287e-02	7.68329178e-04
8.72500000e-02	2.07566464e-02	7.36098940e-04
8.75000000e-02	2.05855393e-02	7.31401507e-04
8.77500000e-02	2.09867224e-02	7.31254881e-04
8.80000000e-02	2.13757109e-02	7.54225259e-04
8.82500000e-02	2.08642589e-02	7.27299556e-04
8.85000000e-02	2.10352281e-02	7.36442658e-04
8.87500000e-02	2.08775805e-02	7.17675939e-04
8.90000000e-02	2.11820202e-02	7.32970412e-04
8.92500000e-02	2.09453962e-02	7.12147477e-04
8.95000000e-02	2.05512257e-02	7.04468505e-04
8.97500000e-02	2.07959169e-02	7.06816838e-04
9.00000000e-02	2.12904069e-02	7.20143730e-04
9.02500000e-02	2.03749169e-02	6.88081864e-04
9.05000000e-02	2.07705312e-02	7.06789467e-04
9.07500000e-02	2.06027404e-02	6.90733190e-04
9.10000000e-02	2.08833582e-02	7.01418087e-04
9.12500000e-02	2.09105675e-02	6.97415197e-04
9.15000000e-02	2.07267399e-02	6.87264756e-04
9.17500000e-02	2.04555134e-02	6.88972430e-04
9.20000000e-02	2.10309570e-02	6.97277094e-04
9.22500000e-02	2.09129874e-02	6.95106736e-04
9.25000000e-02	2.06915109e-02	6.81500537e-04
9.27500000e-02	2.09298954e-02	6.91897188e-04
9.30000000e-02	2.01957573e-02	6.69617784e-04
9.32500000e-02	2.02492940e-02	6.70426994e-04
9.35000000e-02	2.03953319e-02	6.69115549e-04
9.37500000e-02	2.04359617e-02	6.66822578e-04
9.40000000e-02	2.10496331e-02	6.88811860e-04
9.42500000e-02	2.07395539e-02	6.79887513e-04
9.45000000e-02	2.07630663e-02	6.73040236e-04
9.47500000e-02	2.06920981e-02	6.69074063e-04
9.50000000e-02	2.04535849e-02	6.70320976e-04
9.52500000e-02	2.12621034e-02	6.92186799e-04
9.55000000e-02	2.07885437e-02	6.71399770e-04
9.57500000e-02	1.99889960e-02	6.43144100e-04
9.60000000e-02	2.07635607e-02	6.66098115e-04
9.62500000e-02	2.07407738e-02	6.64706757e-04
9.65000000e-02	2.05062274e-02	6.55941738e-04
9.67500000e-02	2.04490808e-02	6.53830676e-04
9.70000000e-02	2.05895368e-02	6.57396536e-04
9.72500000e-02	2.07093310e-02	6.61862646e-04
9.75000000e-02	2.02306416e-02	6.50127615e-04
9.77500000e-02	2.05635418e-02	6.49876626e-04
9.80000000e-02	2.01382911e-02	6.41184001e-04
9.82500000e-02	2.03093170e-02	6.43433163e-04
9.85000000e-02	2.02051375e-02	6.42181637e-04
9.87500000e-02	2.09077681e-02	6.61696211e-04
9.90000000e-02	2.03843524e-02	6.40154151e-04
9.92500000e-02	1.99313344e-02	6.32998841e-04
9.95000000e-02	2.07726318e-02	6.56966653e-04
9.97500000e-02	2.07587618e-02	6.56709821e-04
1.00000000e-01	2.01319477e-02	5.18953211e-04
1.00500000e-01	2.06685242e-02	4.58779521e-04
1.01000000e-01	2.05820083e-02	4.53945458e-04
1.01500000e-01	2.04792539e-02	4.52531326e-04
1.02000000e-01	2.05622302e-02	4.50475008e-04
1.02500000e-01	2.04092320e-02	4.45590780e-04
1.03000000e-01	2.01647588e-02	4.41722052e-04
1.03500000e-01	2.01116969e-02	4.38649945e-04
1.04000000e-01	1.99840298e-02	4.37413218e-04
1.04500000e-01	2.05627976e-02	4.46228437e-04
1.05000000e-01	2.03841323e-02	4.38583498e-04
1.05500000e-01	1.98868463e-02	4.31046322e-04
1.06000000e-01	2.01019380e-02	4.31284678e-04
1.06500000e-01	2.02244559e-02	4.34737789e-04
1.07000000e-01	2.00678594e-02	4.36138229e-04
1.07500000e-01	2.04355375e-02	4.52503700e-04
1.08000000e-01	2.00622902e-02	4.49470441e-04
1.08500000e-01	2.02679763e-02	4.57007985e-04
1.09000000e-01	2.00611417e-02	4.53930279e-04
1.09500000e-01	1.97918314e-02	4.49030064e-04
1.10000000e-01	2.01082336e-02	4.53589774e-04
1.10500000e-01	2.00342739e-02	4.40459329e-04
1.11000000e-01	2.05792690e-02	4.45047184e-04
1.11500000e-01	2.04013447e-02	4.38763431e-04
1.12000000e-01	2.03416518e-02	4.33687515e-04
1.12500000e-01	2.03829625e-02	4.29909209e-04
1.13000000e-01	2.02068597e-02	4.26788777e-04
1.13500000e-01	2.01198178e-02	4.24826103e-04
1.14000000e-01	1.97527514e-02	4.14597390e-04
1.14500000e-01	2.02702742e-02	4.24907411e-04
1.15000000e-01	1.99617707e-02	4.14604136e-04
1.15500000e-01	1.98457557e-02	4.16326839e-04
1.16000000e-01	2.02319553e-02	4.18776245e-04
1.16500000e-01	2.01623376e-02	4.18821519e-04
1.17000000e-01	2.00796853e-02	4.15714464e-04
1.17500000e-01	2.04072988e-02	4.19645591e-04
1.18000000e-01	2.00128427e-02	4.10199488e-04
1.18500000e-01	2.04263935e-02	4.16482735e-04
1.19000000e-01	2.02945897e-02	4.13895904e-04
1.19500000e-01	2.01245692e-02	4.08984553e-04
1.20000000e-01	1.99306459e-02	4.05918715e-04
1.20500000e-01	1.99768217e-02	4.05910293e-04
1.21000000e-01	2.01176642e-02	4.07030490e-04
1.21500000e-01	2.04067693e-02	4.11951004e-04
1.22000000e-01	2.02861793e-02	4.09603871e-04
1.22500000e-01	2.02285537e-02	4.04608727e-04
1.23000000e-01	2.01586664e-02	4.04088655e-04
1.23500000e-01	2.03427845e-02	4.06224960e-04
1.24000000e-01	2.02474887e-02	4.04542231e-04
1.24500000e-01	2.02170872e-02	4.02566811e-04
1.25000000e-01	2.04533459e-02	4.05211805e-04
1.25500000e-01	1.97765026e-02	3.94863804e-04
1.26000000e-01	1.98556045e-02	3.95353063e-04
1.26500000e-01	2.03762520e-02	4.03362342e-04
1.27000000e-01	2.00106173e-02	3.93847739e-04
1.27500000e-01	1.98927909e-02	3.91573672e-04
1.28000000e-01	2.03706198e-02	3.98430832e-04
1.28500000e-01	1.99825365e-02	3.91486201e-04
1.29000000e-01	1.99212878e-02	3.90574431e-04
1.29500000e-01	2.00129707e-02	3.92189591e-04
1.30000000e-01	2.03349537e-02	3.95637751e-04
1.30500000e-01	2.03463143e-02	3.94485825e-04
1.31000000e-01	2.01836937e-02	3.91845813e-04
1.31500000e-01	1.97872673e-02	3.85062158e-04
1.32000000e-01	2.00912721e-02	3.89351972e-04
1.32500000e-01	2.00918935e-02	3.87637173e-04
1.33000000e-01	2.02127976e-02	3.88498003e-04
1.33500000e-01	1.99526860e-02	3.82116269e-04
1.34000000e-01	2.03755274e-02	3.89193595e-04
1.34500000e-01	1.97734715e-02	3.77679685e-04
1.35000000e-01	2.02283926e-02	3.84117050e-04
1.35500000e-01	2.01355550e-02	3.82434533e-04
1.36000000e-01	1.99830513e-02	3.77490341e-04
1.36500000e-01	2.03283126e-02	3.84865900e-04
1.37000000e-01	2.02845440e-02	3.81636957e-04
1.37500000e-01	2.03647229e-02	3.82187775e-04
1.38000000e-01	2.02887844e-02	3.80380900e-04
1.38500000e-01	2.01922684e-02	3.79930779e-04
1.39000000e-01	2.02308867e-02	3.81214359e-04
1.39500000e-01	1.97558008e-02	3.70006141e-04
1.40000000e-01	2.00722613e-02	3.78085166e-04
1.40500000e-01	1.97999844e-02	3.71358052e-04
1.41000000e-01	2.00628530e-02	3.75630097e-04
1.41500000e-01	2.00576268e-02	3.75028676e-04
1.42000000e-01	1.96793889e-02	3.66430784e-04
1.42500000e-01	1.98211093e-02	3.69827346e-04
1.43000000e-01	2.00664428e-02	3.73949015e-04
1.43500000e-01	1.99243272e-02	3.72019658e-04
1.44000000e-01	2.00751450e-02	3.70953623e-04
1.44500000e-01	2.01242460e-02	3.70165788e-04
1.45000000e-01	1.98716743e-02	3.65703581e-04
1.45500000e-01	2.01809139e-02	3.70816101e-04
1.46000000e-01	1.97257757e-02	3.65080924e-04
1.46500000e-01	1.96382304e-02	3.62250777e-04
1.47000000e-01	1.97793587e-02	3.63664941e-04
1.47500000e-01	1.94212866e-02	3.56327101e-04
1.48000000e-01	1.99140683e-02	3.63847946e-04
1.48500000e-01	1.95771266e-02	3.58519899e-04
1.49000000e-01	1.94434842e-02	3.56442359e-04
1.49500000e-01	1.97882301e-02	3.60696886e-04
1.50000000e-01	1.97709447e-02	3.58417219e-04
1.50500000e-01	1.94652794e-02	3.55142939e-04
1.51000000e-01	1.97366131e-02	3.58640735e-04
1.51500000e-01	1.98428868e-02	3.57008696e-04
1.52000000e-01	1.96141861e-02	3.52819155e-04
1.52500000e-01	1.95362985e-02	3.50625790e-04
1.53000000e-01	1.94502276e-02	3.50429157e-04
1.53500000e-01	1.96089872e-02	3.52666391e-04
1.54000000e-01	1.96152682e-02	3.50643807e-04
1.54500000e-01	1.97843112e-02	3.59996548e-04
1.55000000e-01	1.96576127e-02	3.63253703e-04
1.55500000e-01	1.99912563e-02	3.70893274e-04
1.56000000e-01	1.97493840e-02	3.69007361e-04
1.56500000e-01	1.96391789e-02	3.66403875e-04
1.57000000e-01	1.92980893e-02	3.61521718e-04
1.57500000e-01	1.91398751e-02	3.52566656e-04
1.58000000e-01	1.97383676e-02	3.57153507e-04
1.58500000e-01	1.94262456e-02	3.49282428e-04
1.59000000e-01	1.94673437e-02	3.49554098e-04
1.59500000e-01	1.94331741e-02	3.48384078e-04
1.60000000e-01	1.94127670e-02	3.47948559e-04
1.60500000e-01	1.91775665e-02	3.40151866e-04
1.61000000e-01	1.93223529e-02	3.43602141e-04
1.61500000e-01	1.94164657e-02	3.44471671e-04
1.62000000e-01	1.92826962e-02	3.41908387e-04
1.62500000e-01	1.94032534e-02	3.42840484e-04
1.63000000e-01	1.92695084e-02	3.39316219e-04
1.63500000e-01	1.93559748e-02	3.41472190e-04
1.64000000e-01	1.96501645e-02	3.44719879e-04
1.64500000e-01	1.94072175e-02	3.40421455e-04
1.65000000e-01	1.93841764e-02	3.39354263e-04
1.65500000e-01	1.96127003e-02	3.42096143e-04
1.66000000e-01	1.90523100e-02	3.32551469e-04
1.66500000e-01	1.94930318e-02	3.38296737e-04
1.67000000e-01	1.92740168e-02	3.34743100e-04
1.67500000e-01	1.91713064e-02	3.32980886e-04
1.68000000e-01	1.93009962e-02	3.35288536e-04
1.68500000e-01	1.93313106e-02	3.34677054e-04
1.69000000e-01	1.91809385e-02	3.32865957e-04
1.69500000e-01	1.93499637e-02	3.32862293e-04
1.70000000e-01	1.90941594e-02	3.28690822e-04
1.70500000e-01	1.93906501e-02	3.32401404e-04
1.71000000e-01	1.92896444e-02	3.31196115e-04
1.71500000e-01	1.91493193e-02	3.28874133e-04
1.72000000e-01	1.89480197e-02	3.24474302e-04
1.72500000e-01	1.89365174e-02	3.25173351e-04
1.73000000e-01	1.93127876e-02	3.29067298e-04
1.73500000e-01	1.91700839e-02	3.25109803e-04
1.74000000e-01	1.92001201e-02	3.26303052e-04
1.74500000e-01	1.91971148e-02	3.24561234e-04
1.75000000e-01	1.89969778e-02	3.20641267e-04
1.75500000e-01	1.92113429e-02	3.23301204e-04
1.76000000e-01	1.91523246e-02	3.22670663e-04
1.76500000e-01	1.91303066e-02	3.23146201e-04
1.77000000e-01	1.88904625e-02	3.17360492e-04
1.77500000e-01	1.89848799e-02	3.19416700e-04
1.78000000e-01	1.91354632e-02	3.20638997e-04
1.78500000e-01	1.91993195e-02	3.23859777e-04
1.79000000e-01	1.91986463e-02	3.21835597e-04
1.79500000e-01	1.89262358e-02	3.18150057e-04
1.80000000e-01	1.88616950e-02	3.16484371e-04
1.80500000e-01	1.90851764e-02	3.19069201e-04
1.81000000e-01	1.90960878e-02	3.18786436e-04
1.81500000e-01	1.89572755e-02	3.16154286e-04
1.82000000e-01	1.89712366e-02	3.15266944e-04
1.82500000e-01	1.91174691e-02	3.16650744e-04
1.83000000e-01	1.92581783e-02	3.19665765e-04
1.83500000e-01	1.92632267e-02	3.18856889e-04
1.84000000e-01	1.88778238e-02	3.12638180e-04
1.84500000e-01	1.89771422e-02	3.14267694e-04
1.85000000e-01	1.90205367e-02	3.14997542e-04
1.85500000e-01	1.88869182e-02	3.12874085e-04
1.86000000e-01	1.89724291e-02	3.12766355e-04
1.86500000e-01	1.88851143e-02	3.09684700e-04
1.87000000e-01	1.91421310e-02	3.14598933e-04
1.87500000e-01	1.87729871e-02	3.08918408e-04
1.88000000e-01	1.86398826e-02	3.05255766e-04
1.88500000e-01	1.85306253e-02	3.03720898e-04
1.89000000e-01	1.88027043e-02	3.07318485e-04
1.89500000e-01	1.88922881e-02	3.09053311e-04
1.90000000e-01	1.86560198e-02	3.05157518e-04
1.90500000e-01	1.87763755e-02	3.06005179e-04
1.91000000e-01	1.89017742e-02	3.06299613e-04
1.91500000e-01	1.86429673e-02	3.02344987e-04
1.92000000e-01	1.85743879e-02	3.00474230e-04
1.92500000e-01	1.88000281e-02	3.05177603e-04
1.93000000e-01	1.83881780e-02	2.98044362e-04
1.93500000e-01	1.87634313e-02	3.04234934e-04
1.94000000e-01	1.86411525e-02	3.00406945e-04
1.94500000e-01	1.85888832e-02	2.99582197e-04
1.95000000e-01	1.89128370e-02	3.04902195e-04
1.95500000e-01	1.87432177e-02	3.01328677e-04
1.96000000e-01	1.86702673e-02	2.99395506e-04
1.96500000e-01	1.86312873e-02	2.98620246e-04
1.97000000e-01	1.86471165e-02	2.99983515e-04
1.97500000e-01	1.84338658e-02	2.96425223e-04
1.98000000e-01	1.86474398e-02	2.97347355e-04
1.98500000e-01	1.86230632e-02	2.96968157e-04
1.99000000e-01	1.86771281e-02	2.98451812e-04
1.99500000e-01	1.83845089e-02	2.92406992e-04
2.00000000e-01	1.85189375e-02	2.95470747e-04
2.00500000e-01	1.83194662e-02	2.91432550e-04
2.01000000e-01	1.87024686e-02	2.95535393e-04
2.01500000e-01	1.84875110e-02	2.93826810e-04
2.02000000e-01	1.85019442e-02	2.93760218e-04
2.02500000e-01	1.86058038e-02	2.94086434e-04
2.03000000e-01	1.83418543e-02	2.90126565e-04
2.03500000e-01	1.87953701e-02	2.97116783e-04
2.04000000e-01	1.86395631e-02	2.94431229e-04
2.04500000e-01	1.84581196e-02	2.91686789e-04
2.05000000e-01	1.85405078e-02	2.90822316e-04
2.05500000e-01	1.82157121e-02	2.87071108e-04
2.06000000e-01	1.83828061e-02	2.88221453e-04
2.06500000e-01	1.85185887e-02	2.90800005e-04
2.07000000e-01	1.87512246e-02	2.92892798e-04
2.07500000e-01	1.83529420e-02	2.87256550e-04
2.08000000e-01	1.84840166e-02	2.89716205e-04
2.08500000e-01	1.84146037e-02	2.86324766e-04
2.09000000e-01	1.87072370e-02	2.90895321e-04
2.09500000e-01	1.86272485e-02	2.90083799e-04
2.10000000e-01	1.83671153e-02	2.86733779e-04
2.10500000e-01	1.86265552e-02	2.89103124e-04
2.11000000e-01	1.84554450e-02	2.87052142e-04
2.11500000e-01	1.82796595e-02	2.84792989e-04
2.12000000e-01	1.83750299e-02	2.84649557e-04
2.12500000e-01	1.83152664e-02	2.84471012e-04
2.13000000e-01	1.83144229e-02	2.83518772e-04
2.13500000e-01	1.82216102e-02	2.82005407e-04
2.14000000e-01	1.82787728e-02	2.82391578e-04
2.14500000e-01	1.87418566e-02	2.87437680e-04
2.15000000e-01	1.85347020e-02	2.85307418e-04
2.15500000e-01	1.83573473e-02	2.80906533e-04
2.16000000e-01	1.80888312e-02	2.78905659e-04
2.16500000e-01	1.83559539e-02	2.81102021e-04
2.17000000e-01	1.83687887e-02	2.85180754e-04
2.17500000e-01	1.83495628e-02	2.89171160e-04
2.18000000e-01	1.82358928e-02	2.90426903e-04
2.18500000e-01	1.81750569e-02	2.88881215e-04
2.19000000e-01	1.83645298e-02	2.93784224e-04
2.19500000e-01	1.82533597e-02	2.92615421e-04
2.20000000e-01	1.81518303e-02	2.94707978e-04
2.20500000e-01	1.80228098e-02	2.92015385e-04
2.21000000e-01	1.84288245e-02	2.98453920e-04
2.21500000e-01	1.80608605e-02	2.94233034e-04
2.22000000e-01	1.80994898e-02	2.94409397e-04
2.22500000e-01	1.82587389e-02	2.98113274e-04
2.23000000e-01	1.81251649e-02	2.96263414e-04
2.23500000e-01	1.81407473e-02	2.99158564e-04
2.24000000e-01	1.81843363e-02	2.99004812e-04
2.24500000e-01	1.81945777e-02	3.01550248e-04
2.25000000e-01	1.81481550e-02	2.99568843e-04
2.25500000e-01	1.78979018e-02	2.97488050e-04
2.26000000e-01	1.81178198e-02	3.00649856e-04
2.26500000e-01	1.82231058e-02	2.97485837e-04
2.27000000e-01	1.80688715e-02	2.93133990e-04
2.27500000e-01	1.84070067e-02	2.95348814e-04
2.28000000e-01	1.82939235e-02	2.92125607e-04
2.28500000e-01	1.81253169e-02	2.86903900e-04
2.29000000e-01	1.81663377e-02	2.86945725e-04
2.29500000e-01	1.83009663e-02	2.88575658e-04
2.30000000e-01	1.79108889e-02	2.80863739e-04
2.30500000e-01	1.80522519e-02	2.81586578e-04
2.31000000e-01	1.82903738e-02	2.84951824e-04
2.31500000e-01	1.80367294e-02	2.80595979e-04
2.32000000e-01	1.81395362e-02	2.81675657e-04
2.32500000e-01	1.81193712e-02	2.81632533e-04
2.33000000e-01	1.80377279e-02	2.79712154e-04
2.33500000e-01	1.81897675e-02	2.81215292e-04
2.34000000e-01	1.78455387e-02	2.75997917e-04
2.34500000e-01	1.79400854e-02	2.74545298e-04
2.35000000e-01	1.78834298e-02	2.74954717e-04
2.35500000e-01	1.80227471e-02	2.76317173e-04
2.36000000e-01	1.79653993e-02	2.75044519e-04
2.36500000e-01	1.79906501e-02	2.74763476e-04
2.37000000e-01	1.78634518e-02	2.72763848e-04
2.37500000e-01	1.80226439e-02	2.74789423e-04
2.38000000e-01	1.79734384e-02	2.72400332e-04
2.38500000e-01	1.80268613e-02	2.73905579e-04
2.39000000e-01	1.79465324e-02	2.71715267e-04
2.39500000e-01	1.80270813e-02	2.73529842e-04
2.40000000e-01	1.79097641e-02	2.70606487e-04
2.40500000e-01	1.79205259e-02	2.70571066e-04
2.41000000e-01	1.77836197e-02	2.68128153e-04
2.41500000e-01	1.79180310e-02	2.68501797e-04
2.42000000e-01	1.79352717e-02	2.68856502e-04
2.42500000e-01	1.78725764e-02	2.66975595e-04
2.43000000e-01	1.79120297e-02	2.67421631e-04
2.43500000e-01	1.79558818e-02	2.67525774e-04
2.44000000e-01	1.77223289e-02	2.64416808e-04
2.44500000e-01	1.78443129e-02	2.64787160e-04
2.45000000e-01	1.78363082e-02	2.64089642e-04
2.45500000e-01	1.77343647e-02	2.63229935e-04
2.46000000e-01	1.77071629e-02	2.62383968e-04
2.46500000e-01	1.78374970e-02	2.63534288e-04
2.47000000e-01	1.79425557e-02	2.64573914e-04
2.47500000e-01	1.76990120e-02	2.60725202e-04
2.48000000e-01	1.76335352e-02	2.60467606e-04
2.48500000e-01	1.77479395e-02	2.61746713e-04
2.49000000e-01	1.75905637e-02	2.58295274e-04
2.49500000e-01	1.74943878e-02	2.57093866e-04
2.50000000e-01	1.77665813e-02	2.61268003e-04
2.50500000e-01	1.73970881e-02	2.55652410e-04
2.51000000e-01	1.77857162e-02	2.60866695e-04
2.51500000e-01	1.76735415e-02	2.59008927e-04
2.52000000e-01	1.77409409e-02	2.59105591e-04
2.52500000e-01	1.79467563e-02	2.61000016e-04
2.53000000e-01	1.76265999e-02	2.58183145e-04
2.53500000e-01	1.79916150e-02	2.62061491e-04
2.54000000e-01	1.75357998e-02	2.55768006e-04
2.54500000e-01	1.77812787e-02	2.58313047e-04
2.55000000e-01	1.75665304e-02	2.55152059e-04
2.55500000e-01	1.73817194e-02	2.52529008e-04
2.56000000e-01	1.76423168e-02	2.54458263e-04
2.56500000e-01	1.77386314e-02	2.57313202e-04
2.57000000e-01	1.78282848e-02	2.57256728e-04
2.57500000e-01	1.76187911e-02	2.54421594e-04
2.58000000e-01	1.74655504e-02	2.51986047e-04
2.58500000e-01	1.77476032e-02	2.55644293e-04
2.59000000e-01	1.76252562e-02	2.54602490e-04
2.59500000e-01	1.75657921e-02	2.52765822e-04
2.60000000e-01	1.76155070e-02	2.53242226e-04
2.60500000e-01	1.72059718e-02	2.48092684e-04
2.61000000e-01	1.74259786e-02	2.50547298e-04
2.61500000e-01	1.75074497e-02	2.51562003e-04
2.62000000e-01	1.75110457e-02	2.50948356e-04
2.62500000e-01	1.74233525e-02	2.49883820e-04
2.63000000e-01	1.75738113e-02	2.50964641e-04
2.63500000e-01	1.76362829e-02	2.50593065e-04
2.64000000e-01	1.77480621e-02	2.53341204e-04
2.64500000e-01	1.73422898e-02	2.47381880e-04
2.65000000e-01	1.78333619e-02	2.53981579e-04
2.65500000e-01	1.74201808e-02	2.48552576e-04
2.66000000e-01	1.74201038e-02	2.47474660e-04
2.66500000e-01	1.75983472e-02	2.49067104e-04
2.67000000e-01	1.76982251e-02	2.50664749e-04
2.67500000e-01	1.74624530e-02	2.47599578e-04
2.68000000e-01	1.76143320e-02	2.49684154e-04
2.68500000e-01	1.73819349e-02	2.46014544e-04
2.69000000e-01	1.74002844e-02	2.44644732e-04
2.69500000e-01	1.74132402e-02	2.43964170e-04
2.70000000e-01	1.73966010e-02	2.44640652e-04
2.70500000e-01	1.75284620e-02	2.44761013e-04
2.71000000e-01	1.72528482e-02	2.43160384e-04
2.71500000e-01	1.74889512e-02	2.45313793e-04
2.72000000e-01	1.71955564e-02	2.40613333e-04
2.72500000e-01	1.74518797e-02	2.44186575e-04
2.73000000e-01	1.72606516e-02	2.41057956e-04
2.73500000e-01	1.73669527e-02	2.42708193e-04
2.74000000e-01	1.74000571e-02	2.43598664e-04
2.74500000e-01	1.75453467e-02	2.44485870e-04
2.75000000e-01	1.74312252e-02	2.43168124e-04
2.75500000e-01	1.73081609e-02	2.41849544e-04
2.76000000e-01	1.72486409e-02	2.41284447e-04
2.76500000e-01	1.72767712e-02	2.40161052e-04
2.77000000e-01	1.73421330e-02	2.40898881e-04
2.77500000e-01	1.72497721e-02	2.40701255e-04
2.78000000e-01	1.74746450e-02	2.42134233e-04
2.78500000e-01	1.74613349e-02	2.42041157e-04
2.79000000e-01	1.73682997e-02	2.40337149e-04
2.79500000e-01	1.71915973e-02	2.37638609e-04
2.80000000e-01	1.73636455e-02	2.40123295e-04
2.80500000e-01	1.72810474e-02	2.39164335e-04
2.81000000e-01	1.71612006e-02	2.36091590e-04
2.81500000e-01	1.70953473e-02	2.35840858e-04
2.82000000e-01	1.71508687e-02	2.36196570e-04
2.82500000e-01	1.73608705e-02	2.39826316e-04
2.83000000e-01	1.72497868e-02	2.37574372e-04
2.83500000e-01	1.71838635e-02	2.36304776e-04
2.84000000e-01	1.73228554e-02	2.36956261e-04
2.84500000e-01	1.73004915e-02	2.37153905e-04
2.85000000e-01	1.71634469e-02	2.35041081e-04
2.85500000e-01	1.69743753e-02	2.32035416e-04
2.86000000e-01	1.70678244e-02	2.34014143e-04
2.86500000e-01	1.73692528e-02	2.36740024e-04
2.87000000e-01	1.71273293e-02	2.33759527e-04
2.87500000e-01	1.73017781e-02	2.35959333e-04
2.88000000e-01	1.71030972e-02	2.31784777e-04
2.88500000e-01	1.69117516e-02	2.30792812e-04
2.89000000e-01	1.68789094e-02	2.29924454e-04
2.89500000e-01	1.72018826e-02	2.33910048e-04
2.90000000e-01	1.71214379e-02	2.32345128e-04
2.90500000e-01	1.69563482e-02	2.29823514e-04
2.91000000e-01	1.72250916e-02	2.33511713e-04
2.91500000e-01	1.72832425e-02	2.33567903e-04
2.92000000e-01	1.71539248e-02	2.32303118e-04
2.92500000e-01	1.71076341e-02	2.31042061e-04
2.93000000e-01	1.73355632e-02	2.33294894e-04
2.93500000e-01	1.70816655e-02	2.30489229e-04
2.94000000e-01	1.69379270e-02	2.28734681e-04
2.94500000e-01	1.71069203e-02	2.30127753e-04
2.95000000e-01	1.72209620e-02	2.31723297e-04
2.95500000e-01	1.70774225e-02	2.29424712e-04
2.96000000e-01	1.69484214e-02	2.26447099e-04
2.96500000e-01	1.69940897e-02	2.27895914e-04
2.97000000e-01	1.71031309e-02	2.29496060e-04
2.97500000e-01	1.70838615e-02	2.28704531e-04
2.98000000e-01	1.68918722e-02	2.27127747e-04
2.98500000e-01	1.70992285e-02	2.28896402e-04
2.99000000e-01	1.69581391e-02	2.26615483e-04
2.99500000e-01	1.71016562e-02	2.28538025e-04
3.00000000e-01	1.71643740e-02	2.29250361e-04
3.00500000e-01	1.68475463e-02	2.24291241e-04
3.01000000e-01	1.68280548e-02	2.24966581e-04
3.01500000e-01	1.69138748e-02	2.25448958e-04
3.02000000e-01	1.70289393e-02	2.25869736e-04
3.02500000e-01	1.69952533e-02	2.25785824e-04
3.03000000e-01	1.68828550e-02	2.24088408e-04
3.03500000e-01	1.69683829e-02	2.24625156e-04
3.04000000e-01	1.68722707e-02	2.24127848e-04
3.04500000e-01	1.68543150e-02	2.23193081e-04
3.05000000e-01	1.68000000e-02	2.23304934e-04
3.05500000e-01	1.69312115e-02	2.24698966e-04
3.06000000e-01	1.70216408e-02	2.24553929e-04
3.06500000e-01	1.69037311e-02	2.22435743e-04
3.07000000e-01	1.68702646e-02	2.22321545e-04
3.07500000e-01	1.67631216e-02	2.20723580e-04
3.08000000e-01	1.69531395e-02	2.21899874e-04
3.08500000e-01	1.69264489e-02	2.21427956e-04
3.09000000e-01	1.69211736e-02	2.22483763e-04
3.09500000e-01	1.67546410e-02	2.19700200e-04
3.10000000e-01	1.68343791e-02	2.21214857e-04
3.10500000e-01	1.67200906e-02	2.20002778e-04
3.11000000e-01	1.69298116e-02	2.21054729e-04
3.11500000e-01	1.68413112e-02	2.20054843e-04
3.12000000e-01	1.67447278e-02	2.19193875e-04
3.12500000e-01	1.69471350e-02	2.21945994e-04
3.13000000e-01	1.67381780e-02	2.18469147e-04
3.13500000e-01	1.67821743e-02	2.19390507e-04
3.14000000e-01	1.66042754e-02	2.16047227e-04
3.14500000e-01	1.66914666e-02	2.17940484e-04
3.15000000e-01	1.69194890e-02	2.19975452e-04
3.15500000e-01	1.69040884e-02	2.19727560e-04
3.16000000e-01	1.67211206e-02	2.17810467e-04
3.16500000e-01	1.66658223e-02	2.16256740e-04
3.17000000e-01	1.67985348e-02	2.18062036e-04
3.17500000e-01	1.66611763e-02	2.17166325e-04
3.18000000e-01	1.67039011e-02	2.16094577e-04
3.18500000e-01	1.65853842e-02	2.14746569e-04
3.19000000e-01	1.66426786e-02	2.15776843e-04
3.19500000e-01	1.67378457e-02	2.16035391e-04
3.20000000e-01	1.66651632e-02	2.15173378e-04
3.20500000e-01	1.67109793e-02	2.15718946e-04
3.21000000e-01	1.64690995e-02	2.12765400e-04
3.21500000e-01	1.66354319e-02	2.14266758e-04
3.22000000e-01	1.66580510e-02	2.14543107e-04
3.22500000e-01	1.64600525e-02	2.11496683e-04
3.23000000e-01	1.64709052e-02	2.11227530e-04
3.23500000e-01	1.64582212e-02	2.12852802e-04
3.24000000e-01	1.65207178e-02	2.12366135e-04
3.24500000e-01	1.64896122e-02	2.12063125e-04
3.25000000e-01	1.63422452e-02	2.09830573e-04
3.25500000e-01	1.66027167e-02	2.12598805e-04
3.26000000e-01	1.63688608e-02	2.10305863e-04
3.26500000e-01	1.64088388e-02	2.09839433e-04
3.27000000e-01	1.66504347e-02	2.13772736e-04
3.27500000e-01	1.64939188e-02	2.10126459e-04
3.28000000e-01	1.65476664e-02	2.11807719e-04
3.28500000e-01	1.64848065e-02	2.11112147e-04
3.29000000e-01	1.64043829e-02	2.09248730e-04
3.29500000e-01	1.65277062e-02	2.11225369e-04
3.30000000e-01	1.66543259e-02	2.11515176e-04
3.30500000e-01	1.65492923e-02	2.10706572e-04
3.31000000e-01	1.62993619e-02	2.07827951e-04
3.31500000e-01	1.63655364e-02	2.08137993e-04
3.32000000e-01	1.63872712e-02	2.08381301e-04
3.32500000e-01	1.64319729e-02	2.08481866e-04
3.33000000e-01	1.62413859e-02	2.06256710e-04
3.33500000e-01	1.63633397e-02	2.06798267e-04
3.34000000e-01	1.62700072e-02	2.06481752e-04
3.34500000e-01	1.65009342e-02	2.09174071e-04
3.35000000e-01	1.62190482e-02	2.04783018e-04
3.35500000e-01	1.62163719e-02	2.05633913e-04
3.36000000e-01	1.63004747e-02	2.05189716e-04
3.36500000e-01	1.63886104e-02	2.06241403e-04
3.37000000e-01	1.63716170e-02	2.06662781e-04
3.37500000e-01	1.62544226e-02	2.05134857e-04
3.38000000e-01	1.63726385e-02	2.06843896e-04
3.38500000e-01	1.63201036e-02	2.05041944e-04
3.39000000e-01	1.62319981e-02	2.05042632e-04
3.39500000e-01	1.63790529e-02	2.05639115e-04
3.40000000e-01	1.61283091e-02	2.03194416e-04
3.40500000e-01	1.63737087e-02	2.05684508e-04
3.41000000e-01	1.62637846e-02	2.04658707e-04
3.41500000e-01	1.62769623e-02	2.04663899e-04
3.42000000e-01	1.60401748e-02	2.01265168e-04
3.42500000e-01	1.61086756e-02	2.02448756e-04
3.43000000e-01	1.63601895e-02	2.04157735e-04
3.43500000e-01	1.61889348e-02	2.02171430e-04
3.44000000e-01	1.61902695e-02	2.02751224e-04
3.44500000e-01	1.62837011e-02	2.03320213e-04
3.45000000e-01	1.62311089e-02	2.02295905e-04
3.45500000e-01	1.63551976e-02	2.04030810e-04
3.46000000e-01	1.61256831e-02	2.01187208e-04
3.46500000e-01	1.62158938e-02	2.01543408e-04
3.47000000e-01	1.61024962e-02	2.00920169e-04
3.47500000e-01	1.59378478e-02	1.98710166e-04
3.48000000e-01	1.60429156e-02	1.99437122e-04
3.48500000e-01	1.60199776e-02	1.99712092e-04
3.49000000e-01	1.63324099e-02	2.02318961e-04
3.49500000e-01	1.61353716e-02	2.00041492e-04
3.50000000e-01	1.60600781e-02	1.62107110e-04
3.51000000e-01	1.61195025e-02	1.41204821e-04
3.52000000e-01	1.60312211e-02	1.40052092e-04
3.53000000e-01	1.60645643e-02	1.39745754e-04
3.54000000e-01	1.59836374e-02	1.39023205e-04
3.55000000e-01	1.59073537e-02	1.38601427e-04
3.56000000e-01	1.60709382e-02	1.40264582e-04
3.57000000e-01	1.60618720e-02	1.42669625e-04
3.58000000e-01	1.58115042e-02	1.42338175e-04
3.59000000e-01	1.60075048e-02	1.44643866e-04
3.60000000e-01	1.58650030e-02	1.44431443e-04
3.61000000e-01	1.58602183e-02	1.44739882e-04
3.62000000e-01	1.57580547e-02	1.44948154e-04
3.63000000e-01	1.58141328e-02	1.45566805e-04
3.64000000e-01	1.59723985e-02	1.47711759e-04
3.65000000e-01	1.56451408e-02	1.45323707e-04
3.66000000e-01	1.58133323e-02	1.44987162e-04
3.67000000e-01	1.58048675e-02	1.42960285e-04
3.68000000e-01	1.57702741e-02	1.41573841e-04
3.69000000e-01	1.57706165e-02	1.40987709e-04
3.70000000e-01	1.56798646e-02	1.39544136e-04
3.71000000e-01	1.58646621e-02	1.42561938e-04
3.72000000e-01	1.57749518e-02	1.43365468e-04
3.73000000e-01	1.56966347e-02	1.42776413e-04
3.74000000e-01	1.57524078e-02	1.43119556e-04
3.75000000e-01	1.57816057e-02	1.43287262e-04
3.76000000e-01	1.57993150e-02	1.43205118e-04
3.77000000e-01	1.56892006e-02	1.43196173e-04
3.78000000e-01	1.56873529e-02	1.42590678e-04
3.79000000e-01	1.55516490e-02	1.41188932e-04
3.80000000e-01	1.56468927e-02	1.41607972e-04
3.81000000e-01	1.56572504e-02	1.41809107e-04
3.82000000e-01	1.55723320e-02	1.41334240e-04
3.83000000e-01	1.56908990e-02	1.42412692e-04
3.84000000e-01	1.55471382e-02	1.41202517e-04
3.85000000e-01	1.54965263e-02	1.40651112e-04
3.86000000e-01	1.55173634e-02	1.40485792e-04
3.87000000e-01	1.54817346e-02	1.40065472e-04
3.88000000e-01	1.54801819e-02	1.40465923e-04
3.89000000e-01	1.54456870e-02	1.40186178e-04
3.90000000e-01	1.55170462e-02	1.40581409e-04
3.91000000e-01	1.54593321e-02	1.39886212e-04
3.92000000e-01	1.55197443e-02	1.40531213e-04
3.93000000e-01	1.54892550e-02	1.39850857e-04
3.94000000e-01	1.54838228e-02	1.40043577e-04
3.95000000e-01	1.54309443e-02	1.39614532e-04
3.96000000e-01	1.54148127e-02	1.39438920e-04
3.97000000e-01	1.53736746e-02	1.39358089e-04
3.98000000e-01	1.53778951e-02	1.39376408e-04
3.99000000e-01	1.52816459e-02	1.38778709e-04
4.00000000e-01	1.53211957e-02	1.39010453e-04
4.01000000e-01	1.52402279e-02	1.37813641e-04
4.02000000e-01	1.52947636e-02	1.38471948e-04
4.03000000e-01	1.54234554e-02	1.39603925e-04
4.04000000e-01	1.53640533e-02	1.38779991e-04
4.05000000e-01	1.52792169e-02	1.38445593e-04
4.06000000e-01	1.53203199e-02	1.38428335e-04
4.07000000e-01	1.52595706e-02	1.38373024e-04
4.08000000e-01	1.51900789e-02	1.37743924e-04
4.09000000e-01	1.52771105e-02	1.37788811e-04
4.10000000e-01	1.52354671e-02	1.37255714e-04
4.11000000e-01	1.53093373e-02	1.38171881e-04
4.12000000e-01	1.52574680e-02	1.37603000e-04
4.13000000e-01	1.51408617e-02	1.36604190e-04
4.14000000e-01	1.51672332e-02	1.36768649e-04
4.15000000e-01	1.51184127e-02	1.36104289e-04
4.16000000e-01	1.51919648e-02	1.36867164e-04
4.17000000e-01	1.51339844e-02	1.36345991e-04
4.18000000e-01	1.52156672e-02	1.38674391e-04
4.19000000e-01	1.52403988e-02	1.40710894e-04
4.20000000e-01	1.52021878e-02	1.41063336e-04
4.21000000e-01	1.52714949e-02	1.41790616e-04
4.22000000e-01	1.52695354e-02	1.42304815e-04
4.23000000e-01	1.52525141e-02	1.42571726e-04
4.24000000e-01	1.51496219e-02	1.42398591e-04
4.25000000e-01	1.52476774e-02	1.43118658e-04
4.26000000e-01	1.51608949e-02	1.42825332e-04
4.27000000e-01	1.51543578e-02	1.42572302e-04
4.28000000e-01	1.51449452e-02	1.42786590e-04
4.29000000e-01	1.52571811e-02	1.44256587e-04
4.30000000e-01	1.51834699e-02	1.43189700e-04
4.31000000e-01	1.52178614e-02	1.43347337e-04
4.32000000e-01	1.50405057e-02	1.41873107e-04
4.33000000e-01	1.50288040e-02	1.42016406e-04
4.34000000e-01	1.51131815e-02	1.42745607e-04
4.35000000e-01	1.50924508e-02	1.42702076e-04
4.36000000e-01	1.49311139e-02	1.41545129e-04
4.37000000e-01	1.50150807e-02	1.42278261e-04
4.38000000e-01	1.51346908e-02	1.43465212e-04
4.39000000e-01	1.50755485e-02	1.43277815e-04
4.40000000e-01	1.50141088e-02	1.42841671e-04
4.41000000e-01	1.49188715e-02	1.42391365e-04
4.42000000e-01	1.50195763e-02	1.43551258e-04
4.43000000e-01	1.50182322e-02	1.43443379e-04
4.44000000e-01	1.50379471e-02	1.43656579e-04
4.45000000e-01	1.49351600e-02	1.43376450e-04
4.46000000e-01	1.50460604e-02	1.44180001e-04
4.47000000e-01	1.49579233e-02	1.43575056e-04
4.48000000e-01	1.50448263e-02	1.44652586e-04
4.49000000e-01	1.49956816e-02	1.44157105e-04
4.50000000e-01	1.49050913e-02	1.43958436e-04
4.51000000e-01	1.48942773e-02	1.43950687e-04
4.52000000e-01	1.48437336e-02	1.43495627e-04
4.53000000e-01	1.48856900e-02	1.43888409e-04
4.54000000e-01	1.48445561e-02	1.43433215e-04
4.55000000e-01	1.47821356e-02	1.43287939e-04
4.56000000e-01	1.49431622e-02	1.44200666e-04
4.57000000e-01	1.47289081e-02	1.43159758e-04
4.58000000e-01	1.49154491e-02	1.44767866e-04
4.59000000e-01	1.46956838e-02	1.42730653e-04
4.60000000e-01	1.48039072e-02	1.44065800e-04
4.61000000e-01	1.49135333e-02	1.45056366e-04
4.62000000e-01	1.49105066e-02	1.44816591e-04
4.63000000e-01	1.47891486e-02	1.44152418e-04
4.64000000e-01	1.49153554e-02	1.45267256e-04
4.65000000e-01	1.48561145e-02	1.44890126e-04
4.66000000e-01	1.47579559e-02	1.44540444e-04
4.67000000e-01	1.47257051e-02	1.43973027e-04
4.68000000e-01	1.47389343e-02	1.43748401e-04
4.69000000e-01	1.48731865e-02	1.45389516e-04
4.70000000e-01	1.46713937e-02	1.43738426e-04
4.71000000e-01	1.47297796e-02	1.44582544e-04
4.72000000e-01	1.46950321e-02	1.43741448e-04
4.73000000e-01	1.46743138e-02	1.43713226e-04
4.74000000e-01	1.46704323e-02	1.43429798e-04
4.75000000e-01	1.45384088e-02	1.42608199e-04
4.76000000e-01	1.45696820e-02	1.42521345e-04
4.77000000e-01	1.46626533e-02	1.43693818e-04
4.78000000e-01	1.45903826e-02	1.43074571e-04
4.79000000e-01	1.47215362e-02	1.44133722e-04
4.80000000e-01	1.44700256e-02	1.41988724e-04
4.81000000e-01	1.45704630e-02	1.43140127e-04
4.82000000e-01	1.45688739e-02	1.42943783e-04
4.83000000e-01	1.46073793e-02	1.43623139e-04
4.84000000e-01	1.45582742e-02	1.42944060e-04
4.85000000e-01	1.46222788e-02	1.43635899e-04
4.86000000e-01	1.45645182e-02	1.43558106e-04
4.87000000e-01	1.46112718e-02	1.43913626e-04
4.88000000e-01	1.45691435e-02	1.43898139e-04
4.89000000e-01	1.45981835e-02	1.43611294e-04
4.90000000e-01	1.45565975e-02	1.43602724e-04
4.91000000e-01	1.45459369e-02	1.43579524e-04
4.92000000e-01	1.45088604e-02	1.42776442e-04
4.93000000e-01	1.45205857e-02	1.42981299e-04
4.94000000e-01	1.46018396e-02	1.44455607e-04
4.95000000e-01	1.45145690e-02	1.44875131e-04
4.96000000e-01	1.45305502e-02	1.48786009e-04
4.97000000e-01	1.43820785e-02	1.49937431e-04
4.98000000e-01	1.46069567e-02	1.54056870e-04
4.99000000e-01	1.45734480e-02	1.56712406e-04
5.00000000e-01	1.44850557e-02	1.56891574e-04
5.01000000e-01	1.45658655e-02	1.59091080e-04
5.02000000e-01	1.44192988e-02	1.59081007e-04
5.03000000e-01	1.43525256e-02	1.59635469e-04
5.04000000e-01	1.46061327e-02	1.63680757e-04
5.05000000e-01	1.46537321e-02	1.61131994e-04
5.06000000e-01	1.44338961e-02	1.56364539e-04
5.07000000e-01	1.45736940e-02	1.55560633e-04
5.08000000e-01	1.43639638e-02	1.52769430e-04
5.09000000e-01	1.44526201e-02	1.53151380e-04
5.10000000e-01	1.46379216e-02	1.54211642e-04
5.11000000e-01	1.43626165e-02	1.51348641e-04
5.12000000e-01	1.42926104e-02	1.50207473e-04
5.13000000e-01	1.43668491e-02	1.50560715e-04
5.14000000e-01	1.43804789e-02	1.50398812e-04
5.15000000e-01	1.43941673e-02	1.49960505e-04
5.16000000e-01	1.43836595e-02	1.49720040e-04
5.17000000e-01	1.42977769e-02	1.48666551e-04
5.18000000e-01	1.43465029e-02	1.49202397e-04
5.19000000e-01	1.41378626e-02	1.45946652e-04
5.20000000e-01	1.43314816e-02	1.48067821e-04
5.21000000e-01	1.42790198e-02	1.47516847e-04
5.22000000e-01	1.43234609e-02	1.47579537e-04
5.23000000e-01	1.43624855e-02	1.48267568e-04
5.24000000e-01	1.42766891e-02	1.47753162e-04
5.25000000e-01	1.41831873e-02	1.46381500e-04
5.26000000e-01	1.42949510e-02	1.47169197e-04
5.27000000e-01	1.41679684e-02	1.45979391e-04
5.28000000e-01	1.42697122e-02	1.46895482e-04
5.29000000e-01	1.41170416e-02	1.45568553e-04
5.30000000e-01	1.42396995e-02	1.47016335e-04
5.31000000e-01	1.43053498e-02	1.47437664e-04
5.32000000e-01	1.42734996e-02	1.47209841e-04
5.33000000e-01	1.40814964e-02	1.45051796e-04
5.34000000e-01	1.41111905e-02	1.46148838e-04
5.35000000e-01	1.39836630e-02	1.44814541e-04
5.36000000e-01	1.42028805e-02	1.46513505e-04
5.37000000e-01	1.41462518e-02	1.45923106e-04
5.38000000e-01	1.41082273e-02	1.45560916e-04
5.39000000e-01	1.42706302e-02	1.47388725e-04
5.40000000e-01	1.40726809e-02	1.45256147e-04
5.41000000e-01	1.41193909e-02	1.45315555e-04
5.42000000e-01	1.40620608e-02	1.45010269e-04
5.43000000e-01	1.39659408e-02	1.44290930e-04
5.44000000e-01	1.39732045e-02	1.44159078e-04
5.45000000e-01	1.40902984e-02	1.45542022e-04
5.46000000e-01	1.39108718e-02	1.43512802e-04
5.47000000e-01	1.39614627e-02	1.44665645e-04
5.48000000e-01	1.40354218e-02	1.44936673e-04
5.49000000e-01	1.39763354e-02	1.43857618e-04
5.50000000e-01	1.40523331e-02	1.44392792e-04
5.51000000e-01	1.40011737e-02	1.44148509e-04
5.52000000e-01	1.39558354e-02	1.43615506e-04
5.53000000e-01	1.40895549e-02	1.44418949e-04
5.54000000e-01	1.39825477e-02	1.43553700e-04
5.55000000e-01	1.39926227e-02	1.43822987e-04
5.56000000e-01	1.39721325e-02	1.43538197e-04
5.57000000e-01	1.40900258e-02	1.44287101e-04
5.58000000e-01	1.38989776e-02	1.42203322e-04
5.59000000e-01	1.39025109e-02	1.42323334e-04
5.60000000e-01	1.37242764e-02	1.41106223e-04
5.61000000e-01	1.40032790e-02	1.43082235e-04
5.62000000e-01	1.38907205e-02	1.42428083e-04
5.63000000e-01	1.38583683e-02	1.42661886e-04
5.64000000e-01	1.39286539e-02	1.42891769e-04
5.65000000e-01	1.38967052e-02	1.42837200e-04
5.66000000e-01	1.38419019e-02	1.42179814e-04
5.67000000e-01	1.37521330e-02	1.41142449e-04
5.68000000e-01	1.37457592e-02	1.41265157e-04
5.69000000e-01	1.38196251e-02	1.41608349e-04
5.70000000e-01	1.37360117e-02	1.40784405e-04
5.71000000e-01	1.37925692e-02	1.41609483e-04
5.72000000e-01	1.35302152e-02	1.38991559e-04
5.73000000e-01	1.36274530e-02	1.40373300e-04
5.74000000e-01	1.36598397e-02	1.40307052e-04
5.75000000e-01	1.36620037e-02	1.40741337e-04
5.76000000e-01	1.36245675e-02	1.40281620e-04
5.77000000e-01	1.37472661e-02	1.41138724e-04
5.78000000e-01	1.36901102e-02	1.40740837e-04
5.79000000e-01	1.36246001e-02	1.40250452e-04
5.80000000e-01	1.36855157e-02	1.40693620e-04
5.81000000e-01	1.36945828e-02	1.40998249e-04
5.82000000e-01	1.37129191e-02	1.41184814e-04
5.83000000e-01	1.35955518e-02	1.40198541e-04
5.84000000e-01	1.36794139e-02	1.40911285e-04
5.85000000e-01	1.35442231e-02	1.39487147e-04
5.86000000e-01	1.37011229e-02	1.40831436e-04
5.87000000e-01	1.36423609e-02	1.40378616e-04
5.88000000e-01	1.36397331e-02	1.40395243e-04
5.89000000e-01	1.36807789e-02	1.40743522e-04
5.90000000e-01	1.35914594e-02	1.39994943e-04
5.91000000e-01	1.35921745e-02	1.40579841e-04
5.92000000e-01	1.35930518e-02	1.39757467e-04
5.93000000e-01	1.34700504e-02	1.38888940e-04
5.94000000e-01	1.34258645e-02	1.38766937e-04
5.95000000e-01	1.35555673e-02	1.39893365e-04
5.96000000e-01	1.34339507e-02	1.38918452e-04
5.97000000e-01	1.35394406e-02	1.40043293e-04
5.98000000e-01	1.34460284e-02	1.39255103e-04
5.99000000e-01	1.35610731e-02	1.39605851e-04
6.00000000e-01	1.34248576e-02	1.38862773e-04
6.01000000e-01	1.35141951e-02	1.39746282e-04
6.02000000e-01	1.36162582e-02	1.40213869e-04
6.03000000e-01	1.35325545e-02	1.39869547e-04
6.04000000e-01	1.33794506e-02	1.38627095e-04
6.05000000e-01	1.33999946e-02	1.38518549e-04
6.06000000e-01	1.33535733e-02	1.38048502e-04
6.07000000e-01	1.34486222e-02	1.38685505e-04
6.08000000e-01	1.34612276e-02	1.39335918e-04
6.09000000e-01	1.34422333e-02	1.39430874e-04
6.10000000e-01	1.34349120e-02	1.39243949e-04
6.11000000e-01	1.33593213e-02	1.38799830e-04
6.12000000e-01	1.33816740e-02	1.38977484e-04
6.13000000e-01	1.33080051e-02	1.37822284e-04
6.14000000e-01	1.34066243e-02	1.38832387e-04
6.15000000e-01	1.35083677e-02	1.40205482e-04
6.16000000e-01	1.34330050e-02	1.39053376e-04
6.17000000e-01	1.32566608e-02	1.37644538e-04
6.18000000e-01	1.33130136e-02	1.38210184e-04
6.19000000e-01	1.33303418e-02	1.37816822e-04
6.20000000e-01	1.34034909e-02	1.38511217e-04
6.21000000e-01	1.33226301e-02	1.37938426e-04
6.22000000e-01	1.33506807e-02	1.37874781e-04
6.23000000e-01	1.32690630e-02	1.36730214e-04
6.24000000e-01	1.32979510e-02	1.36338873e-04
6.25000000e-01	1.32239796e-02	1.36450972e-04
6.26000000e-01	1.33663080e-02	1.37489621e-04
6.27000000e-01	1.31811922e-02	1.36067828e-04
6.28000000e-01	1.31681476e-02	1.35205993e-04
6.29000000e-01	1.32188370e-02	1.36242313e-04
6.30000000e-01	1.31477962e-02	1.35516300e-04
6.31000000e-01	1.32975330e-02	1.37032522e-04
6.32000000e-01	1.32870565e-02	1.36891756e-04
6.33000000e-01	1.33236543e-02	1.36615753e-04
6.34000000e-01	1.33480380e-02	1.40391805e-04
6.35000000e-01	1.33924020e-02	1.45296586e-04
6.36000000e-01	1.31740529e-02	1.46047412e-04
6.37000000e-01	1.31039842e-02	1.47390671e-04
6.38000000e-01	1.31785651e-02	1.49868033e-04
6.39000000e-01	1.31324953e-02	1.52215383e-04
6.40000000e-01	1.32544841e-02	1.54668385e-04
6.41000000e-01	1.31476158e-02	1.54788339e-04
6.42000000e-01	1.31449429e-02	1.57174041e-04
6.43000000e-01	1.32466556e-02	1.58142886e-04
6.44000000e-01	1.32626082e-02	1.52380532e-04
6.45000000e-01	1.33936481e-02	1.51452453e-04
6.46000000e-01	1.32925782e-02	1.49429896e-04
6.47000000e-01	1.33341037e-02	1.47965865e-04
6.48000000e-01	1.32664535e-02	1.46409755e-04
6.49000000e-01	1.32524327e-02	1.46282871e-04
6.50000000e-01	1.33246096e-02	1.45732986e-04
6.51000000e-01	1.32510903e-02	1.44949692e-04
6.52000000e-01	1.32640292e-02	1.44460109e-04
6.53000000e-01	1.31572631e-02	1.42623052e-04
6.54000000e-01	1.31606028e-02	1.42504316e-04
6.55000000e-01	1.32466351e-02	1.42607844e-04
6.56000000e-01	1.32861275e-02	1.43139271e-04
6.57000000e-01	1.32094126e-02	1.41321607e-04
6.58000000e-01	1.31662489e-02	1.41389149e-04
6.59000000e-01	1.34101279e-02	1.43976746e-04
6.60000000e-01	1.30994278e-02	1.40833717e-04
6.61000000e-01	1.32096489e-02	1.41479483e-04
6.62000000e-01	1.32128572e-02	1.41652628e-04
6.63000000e-01	1.31731949e-02	1.41495662e-04
6.64000000e-01	1.32442417e-02	1.41415719e-04
6.65000000e-01	1.30655565e-02	1.40078601e-04
6.66000000e-01	1.30825857e-02	1.39889991e-04
6.67000000e-01	1.31538157e-02	1.40381801e-04
6.68000000e-01	1.31022267e-02	1.39954397e-04
6.69000000e-01	1.30880803e-02	1.39372047e-04
6.70000000e-01	1.32046805e-02	1.40318989e-04
6.71000000e-01	1.30727676e-02	1.39902109e-04
6.72000000e-01	1.30029669e-02	1.38956669e-04
6.73000000e-01	1.30996550e-02	1.39683536e-04
6.74000000e-01	1.30431900e-02	1.38850174e-04
6.75000000e-01	1.30461646e-02	1.39120917e-04
6.76000000e-01	1.30250598e-02	1.38640696e-04
6.77000000e-01	1.29402428e-02	1.37847531e-04
6.78000000e-01	1.30490904e-02	1.38606742e-04
6.79000000e-01	1.30306376e-02	1.38302367e-04
6.80000000e-01	1.29430831e-02	1.37716361e-04
6.81000000e-01	1.30931964e-02	1.39451742e-04
6.82000000e-01	1.30272466e-02	1.38918012e-04
6.83000000e-01	1.29756912e-02	1.37781974e-04
6.84000000e-01	1.29959164e-02	1.38417049e-04
6.85000000e-01	1.29877296e-02	1.37914028e-04
6.86000000e-01	1.29064019e-02	1.37072428e-04
6.87000000e-01	1.28871201e-02	1.37088587e-04
6.88000000e-01	1.28644776e-02	1.37160041e-04
6.89000000e-01	1.29915493e-02	1.38384145e-04
6.90000000e-01	1.28936098e-02	1.37508450e-04
6.91000000e-01	1.27720168e-02	1.35967343e-04
6.92000000e-01	1.29772085e-02	1.37517228e-04
6.93000000e-01	1.29047436e-02	1.37155768e-04
6.94000000e-01	1.27969707e-02	1.36247372e-04
6.95000000e-01	1.27780672e-02	1.35802664e-04
6.96000000e-01	1.27540935e-02	1.35767036e-04
6.97000000e-01	1.30190516e-02	1.37847400e-04
6.98000000e-01	1.29956813e-02	1.37965586e-04
6.99000000e-01	1.29788124e-02	1.37358640e-04
7.00000000e-01	1.27503054e-02	1.36032393e-04
7.01000000e-01	1.28531761e-02	1.36396080e-04
7.02000000e-01	1.27830660e-02	1.36102841e-04
7.03000000e-01	1.28051865e-02	1.35632115e-04
7.04000000e-01	1.28444569e-02	1.36737744e-04
7.05000000e-01	1.27228449e-02	1.35250090e-04
7.06000000e-01	1.27732500e-02	1.35795251e-04
7.07000000e-01	1.28765485e-02	1.36493729e-04
7.08000000e-01	1.27145328e-02	1.34242420e-04
7.09000000e-01	1.27973119e-02	1.35949902e-04
7.10000000e-01	1.26359802e-02	1.34082642e-04
7.11000000e-01	1.26278730e-02	1.34410282e-04
7.12000000e-01	1.27856716e-02	1.35507112e-04
7.13000000e-01	1.26703512e-02	1.34632862e-04
7.14000000e-01	1.26824291e-02	1.35030876e-04
7.15000000e-01	1.27945891e-02	1.35853319e-04
7.16000000e-01	1.24933498e-02	1.32689536e-04
7.17000000e-01	1.26504012e-02	1.34110413e-04
7.18000000e-01	1.26580068e-02	1.34439506e-04
7.19000000e-01	1.24375454e-02	1.32108587e-04
7.20000000e-01	1.26518581e-02	1.34313017e-04
7.21000000e-01	1.26438111e-02	1.34278434e-04
7.22000000e-01	1.25817675e-02	1.33514435e-04
7.23000000e-01	1.26419623e-02	1.34024628e-04
7.24000000e-01	1.26145359e-02	1.34235315e-04
7.25000000e-01	1.26925709e-02	1.34826289e-04
7.26000000e-01	1.25141438e-02	1.33156582e-04
7.27000000e-01	1.24341348e-02	1.32327218e-04
7.28000000e-01	1.26143230e-02	1.34168038e-04
7.29000000e-01	1.24055481e-02	1.32217522e-04
7.30000000e-01	1.25417315e-02	1.33318646e-04
7.31000000e-01	1.24010611e-02	1.31719701e-04
7.32000000e-01	1.23882258e-02	1.32251010e-04
7.33000000e-01	1.25931327e-02	1.34228237e-04
7.34000000e-01	1.25838003e-02	1.33431672e-04
7.35000000e-01	1.24012348e-02	1.31509831e-04
7.36000000e-01	1.23760663e-02	1.31600662e-04
7.37000000e-01	1.24055766e-02	1.31113360e-04
7.38000000e-01	1.25175101e-02	1.32005291e-04
7.39000000e-01	1.23786209e-02	1.30199837e-04
7.40000000e-01	1.24138390e-02	1.30695533e-04
7.41000000e-01	1.24827611e-02	1.31528755e-04
7.42000000e-01	1.22970142e-02	1.29742240e-04
7.43000000e-01	1.22954489e-02	1.29787196e-04
7.44000000e-01	1.22698602e-02	1.29466121e-04
7.45000000e-01	1.24237783e-02	1.31558994e-04
7.46000000e-01	1.23651958e-02	1.30824654e-04
7.47000000e-01	1.22864888e-02	1.29608968e-04
7.48000000e-01	1.23785723e-02	1.30462645e-04
7.49000000e-01	1.22887586e-02	1.29626715e-04
7.50000000e-01	1.24766139e-02	1.31391146e-04
7.51000000e-01	1.21744132e-02	1.28947359e-04
7.52000000e-01	1.22464440e-02	1.29302671e-04
7.53000000e-01	1.23194296e-02	1.29878532e-04
7.54000000e-01	1.22558647e-02	1.29064099e-04
7.55000000e-01	1.22687690e-02	1.29662852e-04
7.56000000e-01	1.22774683e-02	1.29724157e-04
7.57000000e-01	1.22839972e-02	1.28921195e-04
7.58000000e-01	1.21250226e-02	1.27740253e-04
7.59000000e-01	1.22561861e-02	1.28730443e-04
7.60000000e-01	1.21281911e-02	1.27458677e-04
7.61000000e-01	1.23642146e-02	1.29648110e-04
7.62000000e-01	1.22352240e-02	1.28222129e-04
7.63000000e-01	1.23119312e-02	1.28362092e-04
7.64000000e-01	1.21153624e-02	1.26871195e-04
7.65000000e-01	1.21219703e-02	1.27042800e-04
7.66000000e-01	1.22212839e-02	1.27931112e-04
7.67000000e-01	1.21473791e-02	1.26625971e-04
7.68000000e-01	1.20966652e-02	1.26309659e-04
7.69000000e-01	1.20415064e-02	1.26362500e-04
7.70000000e-01	1.21751695e-02	1.27310335e-04
7.71000000e-01	1.21571056e-02	1.26935229e-04
7.72000000e-01	1.20047137e-02	1.29224996e-04
7.73000000e-01	1.20849216e-02	1.34713466e-04
7.74000000e-01	1.19702297e-02	1.36425549e-04
7.75000000e-01	1.20622636e-02	1.39025398e-04
7.76000000e-01	1.20760381e-02	1.41079115e-04
7.77000000e-01	1.21232240e-02	1.44271110e-04
7.78000000e-01	1.18624411e-02	1.43054204e-04
7.79000000e-01	1.20269887e-02	1.47114287e-04
7.80000000e-01	1.18814300e-02	1.47031297e-04
7.81000000e-01	1.19667232e-02	1.49460913e-04
7.82000000e-01	1.18092574e-02	1.49521473e-04
7.83000000e-01	1.20330392e-02	1.53478356e-04
7.84000000e-01	1.20108298e-02	1.55261702e-04
7.85000000e-01	1.19444017e-02	1.55602723e-04
7.86000000e-01	1.20207876e-02	1.58054263e-04
7.87000000e-01	1.19189590e-02	1.58361607e-04
7.88000000e-01	1.18253153e-02	1.58679235e-04
7.89000000e-01	1.18790161e-02	1.60785343e-04
7.90000000e-01	1.18409342e-02	1.62579908e-04
7.91000000e-01	1.18857030e-02	1.64572165e-04
7.92000000e-01	1.18550678e-02	1.65651756e-04
7.93000000e-01	1.17804402e-02	1.66602830e-04
7.94000000e-01	1.18520173e-02	1.69557192e-04
7.95000000e-01	1.17976007e-02	1.70672365e-04
7.96000000e-01	1.19191834e-02	1.73610325e-04
7.97000000e-01	1.17978225e-02	1.73717859e-04
7.98000000e-01	1.16642376e-02	1.74601385e-04
7.99000000e-01	1.18021799e-02	1.77675035e-04
8.00000000e-01	1.17626608e-02	1.78834869e-04
8.01000000e-01	1.17821663e-02	1.80399500e-04
8.02000000e-01	1.18024933e-02	1.83488939e-04
8.03000000e-01	1.17367662e-02	1.84127793e-04
8.04000000e-01	1.15676805e-02	1.83838053e-04
8.05000000e-01	1.16644268e-02	1.87150089e-04
8.06000000e-01	1.15663610e-02	1.87606936e-04
8.07000000e-01	1.16457164e-02	1.90501364e-04
8.08000000e-01	1.17264566e-02	1.93340754e-04
8.09000000e-01	1.14644508e-02	1.92477346e-04
8.10000000e-01	1.14694385e-02	1.95120859e-04
8.11000000e-01	1.14343476e-02	1.95328746e-04
8.12000000e-01	1.15849127e-02	2.00357880e-04
8.13000000e-01	1.15546828e-02	2.01999798e-04
8.14000000e-01	1.16417694e-02	2.05905859e-04
8.15000000e-01	1.15585935e-02	2.07065589e-04
8.16000000e-01	1.16289028e-02	2.11253672e-04
8.17000000e-01	1.14586946e-02	2.09751857e-04
8.18000000e-01	1.15532453e-02	2.14335652e-04
8.19000000e-01	1.14598041e-02	2.17796959e-04
8.20000000e-01	1.14647140e-02	2.18966202e-04
8.21000000e-01	1.15657145e-02	2.23270413e-04
8.22000000e-01	1.15593928e-02	2.26616763e-04
8.23000000e-01	1.14930048e-02	2.28154482e-04
8.24000000e-01	1.13610685e-02	2.28559094e-04
8.25000000e-01	1.13859347e-02	2.31354888e-04
8.26000000e-01	1.14543078e-02	2.37884690e-04
8.27000000e-01	1.13589704e-02	2.39307300e-04
8.28000000e-01	1.12485409e-02	2.39658533e-04
8.29000000e-01	1.13780230e-02	2.45390128e-04
8.30000000e-01	1.09762332e-02	2.43102624e-04
8.31000000e-01	1.13118411e-02	2.52324638e-04
8.32000000e-01	1.13019734e-02	2.55886988e-04
8.33000000e-01	1.12041651e-02	2.60469364e-04
8.34000000e-01	1.12588358e-02	2.64837128e-04
8.35000000e-01	1.12645046e-02	2.70694695e-04
8.36000000e-01	1.11910355e-02	2.73604201e-04
8.37000000e-01	1.11866928e-02	2.81958119e-04
8.38000000e-01	1.14191131e-02	2.89747083e-04
8.39000000e-01	1.10879522e-02	2.86950265e-04
8.40000000e-01	1.12901069e-02	2.98716692e-04
8.41000000e-01	1.10977022e-02	3.02382064e-04
8.42000000e-01	1.12900150e-02	3.13935589e-04
8.43000000e-01	1.12691217e-02	3.18859058e-04
8.44000000e-01	1.11553794e-02	3.22491726e-04
8.45000000e-01	1.08969798e-02	3.27641218e-04
8.46000000e-01	1.12512683e-02	3.46652191e-04
8.47000000e-01	1.10385823e-02	3.46361717e-04
8.48000000e-01	1.12551462e-02	3.62609209e-04
8.49000000e-01	1.08670791e-02	3.67343750e-04
8.50000000e-01	1.08805581e-02	3.82235947e-04
8.51000000e-01	1.14585248e-02	4.10623647e-04
8.52000000e-01	1.07441336e-02	3.98991751e-04
8.53000000e-01	1.07497773e-02	4.20863028e-04
8.54000000e-01	1.08301573e-02	4.47523388e-04
8.55000000e-01	1.14809708e-02	4.86886192e-04
8.56000000e-01	1.08944922e-02	4.69795479e-04
8.57000000e-01	1.13939476e-02	5.01316157e-04
8.58000000e-01	1.05347013e-02	4.87418846e-04
8.59000000e-01	1.09326167e-02	5.20097176e-04
8.60000000e-01	1.05283700e-02	5.21140434e-04
8.61000000e-01	1.04067989e-02	5.36996893e-04
8.62000000e-01	1.08881569e-02	5.77112469e-04
8.63000000e-01	1.08584558e-02	5.99963026e-04
8.64000000e-01	1.06661721e-02	6.18286692e-04
8.65000000e-01	1.12579892e-02	6.66464643e-04
8.66000000e-01	1.09694181e-02	6.88346598e-04
8.67000000e-01	1.06116502e-02	7.21687502e-04
8.68000000e-01	1.08947661e-02	7.84603149e-04
8.69000000e-01	1.05898155e-02	8.17649470e-04
8.70000000e-01	1.11929607e-02	9.26987350e-04
8.71000000e-01	1.12168276e-02	1.03256749e-03
8.72000000e-01	1.09553828e-02	1.10944252e-03
8.73000000e-01	1.01179951e-02	1.22016302e-03
8.74000000e-01	1.06996333e-02	1.77396310e-03
8.75000000e-01	1.06527518e-02	3.43540465e-03
