% Filename : SNCHoHie_2_00048_00007.h5
% Date & Time : 30-Oct-2025 18:15:04
% X-ray Energy (keV) : 13.30001
% Exposure Time (s) : 0.500
% Beam Center : 1461.24000, 208.98300
% Sample to Detector Distance (SDD) (mm) : 1990.750
% Detector Pixel Size (mm) : 0.075
% Photodiode Value : 141814.000
% I0 of Sample : 0
% I0 of Standard : 1
% 
% q(A^-1)   I(q)    I(q)_SE
0.00000000e+00	5.09588929e-03	2.54794464e-03
2.50000000e-04	0.00000000e+00	0.00000000e+00
5.00000000e-04	0.00000000e+00	0.00000000e+00
7.50000000e-04	0.00000000e+00	0.00000000e+00
1.00000000e-03	0.00000000e+00	0.00000000e+00
1.25000000e-03	0.00000000e+00	0.00000000e+00
1.50000000e-03	0.00000000e+00	0.00000000e+00
1.75000000e-03	0.00000000e+00	0.00000000e+00
2.00000000e-03	0.00000000e+00	0.00000000e+00
2.25000000e-03	0.00000000e+00	0.00000000e+00
2.50000000e-03	0.00000000e+00	0.00000000e+00
2.75000000e-03	0.00000000e+00	0.00000000e+00
3.00000000e-03	0.00000000e+00	0.00000000e+00
3.25000000e-03	7.80363959e+02	7.70180932e+02
3.50000000e-03	4.41383497e+01	2.10661858e+01
3.75000000e-03	9.11164100e+01	6.15812814e+01
4.00000000e-03	6.94298012e+01	4.37306083e+01
4.25000000e-03	3.70840037e+01	2.13177759e+01
4.50000000e-03	3.68765610e+01	1.74102947e+01
4.75000000e-03	3.24543476e+01	1.41164297e+01
5.00000000e-03	2.52927947e+01	1.09110870e+01
5.25000000e-03	2.16960084e+01	1.00067465e+01
5.50000000e-03	1.75005407e+01	8.18128922e+00
5.75000000e-03	1.35602497e+01	6.29588030e+00
6.00000000e-03	1.02326277e+01	4.43906440e+00
6.25000000e-03	8.28014481e+00	3.29806117e+00
6.50000000e-03	7.15017263e+00	2.81196530e+00
6.75000000e-03	6.45859565e+00	2.49541603e+00
7.00000000e-03	5.71137593e+00	2.15175900e+00
7.25000000e-03	4.96214551e+00	1.83325031e+00
7.50000000e-03	4.42660051e+00	1.67399809e+00
7.75000000e-03	3.63585062e+00	1.38614528e+00
8.00000000e-03	3.47166473e+00	1.35535033e+00
8.25000000e-03	3.20292837e+00	1.32125862e+00
8.50000000e-03	2.89706271e+00	1.24068320e+00
8.75000000e-03	2.67942697e+00	1.17187051e+00
9.00000000e-03	2.35362693e+00	9.99213108e-01
9.25000000e-03	1.92153118e+00	7.69327714e-01
9.50000000e-03	1.68494878e+00	6.42472063e-01
9.75000000e-03	1.59662237e+00	6.07644157e-01
1.00000000e-02	1.46006223e+00	5.52774409e-01
1.02500000e-02	9.97071429e-01	3.49978709e-01
1.05000000e-02	1.21880823e+00	4.57008457e-01
1.07500000e-02	1.08826610e+00	4.02339287e-01
1.10000000e-02	9.12110952e-01	3.27397030e-01
1.12500000e-02	9.01301293e-01	3.41640552e-01
1.15000000e-02	8.35186466e-01	3.14538299e-01
1.17500000e-02	7.90704160e-01	3.03666843e-01
1.20000000e-02	7.78568118e-01	3.06993054e-01
1.22500000e-02	7.13527306e-01	2.73122029e-01
1.25000000e-02	6.39445753e-01	2.30908525e-01
1.27500000e-02	5.74248874e-01	1.97197955e-01
1.30000000e-02	5.24666186e-01	1.75801810e-01
1.32500000e-02	4.86958159e-01	1.60956594e-01
1.35000000e-02	4.65242916e-01	1.51760767e-01
1.37500000e-02	4.09305107e-01	1.27248199e-01
1.40000000e-02	3.59756101e-01	1.11362607e-01
1.42500000e-02	3.20753391e-01	9.49631905e-02
1.45000000e-02	3.03042368e-01	8.89070478e-02
1.47500000e-02	2.88491932e-01	8.57358891e-02
1.50000000e-02	2.82531072e-01	8.43496720e-02
1.52500000e-02	2.74824152e-01	8.58025791e-02
1.55000000e-02	2.16777226e-01	6.46838139e-02
1.57500000e-02	2.27917663e-01	6.27001003e-02
1.60000000e-02	2.08583184e-01	5.59332597e-02
1.62500000e-02	2.06843786e-01	5.60583204e-02
1.65000000e-02	2.01761841e-01	5.53576662e-02
1.67500000e-02	1.87867353e-01	4.92137934e-02
1.70000000e-02	1.76439010e-01	4.79446415e-02
1.72500000e-02	1.70212595e-01	4.57445478e-02
1.75000000e-02	1.56652133e-01	4.14697651e-02
1.77500000e-02	1.51434057e-01	3.91999174e-02
1.80000000e-02	1.48733091e-01	3.85852966e-02
1.82500000e-02	1.36901986e-01	3.47778154e-02
1.85000000e-02	1.41103281e-01	3.77006626e-02
1.87500000e-02	1.30403189e-01	3.30543911e-02
1.90000000e-02	1.24644766e-01	2.96939091e-02
1.92500000e-02	1.15515605e-01	2.63158692e-02
1.95000000e-02	1.12695231e-01	2.51232025e-02
1.97500000e-02	1.13061761e-01	2.57338853e-02
2.00000000e-02	1.08370487e-01	2.42553568e-02
2.02500000e-02	1.03357301e-01	2.34333909e-02
2.05000000e-02	9.78600558e-02	2.21121165e-02
2.07500000e-02	9.12256793e-02	1.98696418e-02
2.10000000e-02	8.91284932e-02	1.84865635e-02
2.12500000e-02	8.77575478e-02	1.84580081e-02
2.15000000e-02	8.28780272e-02	1.62007962e-02
2.17500000e-02	8.30798326e-02	1.66410171e-02
2.20000000e-02	8.04763986e-02	1.52795417e-02
2.22500000e-02	7.36535400e-02	1.27496510e-02
2.25000000e-02	7.67908634e-02	1.34215750e-02
2.27500000e-02	7.34087616e-02	1.24558762e-02
2.30000000e-02	7.25944717e-02	1.23766444e-02
2.32500000e-02	7.00886542e-02	1.21884899e-02
2.35000000e-02	6.93759675e-02	1.18484996e-02
2.37500000e-02	6.69259230e-02	1.15829663e-02
2.40000000e-02	6.53799930e-02	1.10997520e-02
2.42500000e-02	6.48747866e-02	1.04414412e-02
2.45000000e-02	6.33757976e-02	9.78980078e-03
2.47500000e-02	6.07114148e-02	9.55459755e-03
2.50000000e-02	6.05025503e-02	9.41665856e-03
2.52500000e-02	5.83791853e-02	9.08523122e-03
2.55000000e-02	5.80482111e-02	8.28613314e-03
2.57500000e-02	5.63598730e-02	7.53124694e-03
2.60000000e-02	5.49462348e-02	7.34113558e-03
2.62500000e-02	5.39407833e-02	7.26270091e-03
2.65000000e-02	5.46801271e-02	7.83131243e-03
2.67500000e-02	5.23320690e-02	7.15558824e-03
2.70000000e-02	5.20627739e-02	6.95047567e-03
2.72500000e-02	5.08355581e-02	6.52685038e-03
2.75000000e-02	5.02011830e-02	6.66849707e-03
2.77500000e-02	4.95138499e-02	6.04270938e-03
2.80000000e-02	4.61876821e-02	5.16940293e-03
2.82500000e-02	4.66731403e-02	5.41767146e-03
2.85000000e-02	4.77979938e-02	5.50919054e-03
2.87500000e-02	4.67034964e-02	5.52042797e-03
2.90000000e-02	4.52812714e-02	5.16326855e-03
2.92500000e-02	4.34292661e-02	4.46793398e-03
2.95000000e-02	4.12980676e-02	3.85389699e-03
2.97500000e-02	4.33265762e-02	4.48376694e-03
3.00000000e-02	4.28676865e-02	4.25342775e-03
3.02500000e-02	4.36777912e-02	4.37830621e-03
3.05000000e-02	4.34299898e-02	4.21790225e-03
3.07500000e-02	4.17591048e-02	4.11651864e-03
3.10000000e-02	4.13506307e-02	3.86006283e-03
3.12500000e-02	4.05912888e-02	3.93490122e-03
3.15000000e-02	4.11308402e-02	3.81430185e-03
3.17500000e-02	4.00082068e-02	3.66107280e-03
3.20000000e-02	3.93240207e-02	3.73146770e-03
3.22500000e-02	3.94240335e-02	3.46403804e-03
3.25000000e-02	3.80572831e-02	3.38161248e-03
3.27500000e-02	3.79117619e-02	3.23383227e-03
3.30000000e-02	3.75093317e-02	3.03629590e-03
3.32500000e-02	3.66325753e-02	2.90139403e-03
3.35000000e-02	3.74880905e-02	2.95449244e-03
3.37500000e-02	3.58908202e-02	2.88998948e-03
3.40000000e-02	3.56767623e-02	2.84635755e-03
3.42500000e-02	3.48035152e-02	2.66390031e-03
3.45000000e-02	3.40647434e-02	2.52278924e-03
3.47500000e-02	3.46338276e-02	2.67437032e-03
3.50000000e-02	3.28855335e-02	2.41239366e-03
3.52500000e-02	3.37947562e-02	2.57468795e-03
3.55000000e-02	3.36714619e-02	2.51011035e-03
3.57500000e-02	3.31473984e-02	2.49025479e-03
3.60000000e-02	3.31777720e-02	2.39038994e-03
3.62500000e-02	3.11984520e-02	2.06478790e-03
3.65000000e-02	3.24840009e-02	2.28136717e-03
3.67500000e-02	3.27143471e-02	2.25544107e-03
3.70000000e-02	3.14851363e-02	2.20148776e-03
3.72500000e-02	3.17359078e-02	2.17127883e-03
3.75000000e-02	3.17974251e-02	2.11818883e-03
3.77500000e-02	3.08615648e-02	2.01482187e-03
3.80000000e-02	3.07431847e-02	1.99877105e-03
3.82500000e-02	3.03752633e-02	1.87281523e-03
3.85000000e-02	3.16692893e-02	1.97206614e-03
3.87500000e-02	3.07319832e-02	1.86751605e-03
3.90000000e-02	3.03825550e-02	1.86565174e-03
3.92500000e-02	2.89397908e-02	1.80088105e-03
3.95000000e-02	2.94987410e-02	1.70667095e-03
3.97500000e-02	2.98880095e-02	1.68695760e-03
4.00000000e-02	2.97562726e-02	1.74149523e-03
4.02500000e-02	2.98025934e-02	1.72760176e-03
4.05000000e-02	2.91741206e-02	1.72229351e-03
4.07500000e-02	2.81916756e-02	1.56090654e-03
4.10000000e-02	2.80626424e-02	1.54792974e-03
4.12500000e-02	2.77716733e-02	1.53334233e-03
4.15000000e-02	2.76195482e-02	1.46394591e-03
4.17500000e-02	2.77514397e-02	1.52743796e-03
4.20000000e-02	2.86565332e-02	1.48200190e-03
4.22500000e-02	2.81225210e-02	1.47516611e-03
4.25000000e-02	2.77464506e-02	1.43894138e-03
4.27500000e-02	2.75157044e-02	1.38406719e-03
4.30000000e-02	2.78900784e-02	1.41845349e-03
4.32500000e-02	2.74020476e-02	1.39503829e-03
4.35000000e-02	2.66375126e-02	1.33171307e-03
4.37500000e-02	2.63943465e-02	1.35260565e-03
4.40000000e-02	2.72434627e-02	1.36008701e-03
4.42500000e-02	2.73156866e-02	1.34160165e-03
4.45000000e-02	2.71364187e-02	1.35992291e-03
4.47500000e-02	2.67677635e-02	1.31086971e-03
4.50000000e-02	2.58401822e-02	1.27402029e-03
4.52500000e-02	2.66635651e-02	1.27570688e-03
4.55000000e-02	2.55639583e-02	1.22405339e-03
4.57500000e-02	2.62805403e-02	1.24863161e-03
4.60000000e-02	2.65376880e-02	1.27564131e-03
4.62500000e-02	2.59687098e-02	1.24311490e-03
4.65000000e-02	2.64099147e-02	1.22122352e-03
4.67500000e-02	2.58118364e-02	1.19760194e-03
4.70000000e-02	2.59817092e-02	1.18818673e-03
4.72500000e-02	2.52417905e-02	1.13018826e-03
4.75000000e-02	2.58661626e-02	1.20504426e-03
4.77500000e-02	2.60282686e-02	1.15392664e-03
4.80000000e-02	2.48424752e-02	1.09974227e-03
4.82500000e-02	2.52262139e-02	1.11179651e-03
4.85000000e-02	2.51462953e-02	1.12695980e-03
4.87500000e-02	2.54181136e-02	1.11099092e-03
4.90000000e-02	2.49529659e-02	1.07213154e-03
4.92500000e-02	2.46607207e-02	1.08509665e-03
4.95000000e-02	2.45499467e-02	1.10370361e-03
4.97500000e-02	2.44816264e-02	1.08386204e-03
5.00000000e-02	2.41161669e-02	1.03444220e-03
5.02500000e-02	2.44932070e-02	1.08446081e-03
5.05000000e-02	2.42375351e-02	1.01952510e-03
5.07500000e-02	2.41054309e-02	1.05441282e-03
5.10000000e-02	2.43586042e-02	1.01567896e-03
5.12500000e-02	2.41649198e-02	1.03387864e-03
5.15000000e-02	2.39461798e-02	9.93473195e-04
5.17500000e-02	2.42478210e-02	1.01654903e-03
5.20000000e-02	2.38266483e-02	9.76623672e-04
5.22500000e-02	2.37885037e-02	9.86734208e-04
5.25000000e-02	2.43984520e-02	9.99104621e-04
5.27500000e-02	2.34688424e-02	9.73014432e-04
5.30000000e-02	2.35415949e-02	9.95174302e-04
5.32500000e-02	2.37374167e-02	9.58154007e-04
5.35000000e-02	2.31826376e-02	9.49973106e-04
5.37500000e-02	2.40794881e-02	9.71221610e-04
5.40000000e-02	2.35993111e-02	9.69413690e-04
5.42500000e-02	2.34551555e-02	9.54153543e-04
5.45000000e-02	2.33216502e-02	9.51254427e-04
5.47500000e-02	2.30992534e-02	9.35434459e-04
5.50000000e-02	2.36249159e-02	9.47756151e-04
5.52500000e-02	2.29434978e-02	9.05677621e-04
5.55000000e-02	2.29334633e-02	9.17588255e-04
5.57500000e-02	2.38756855e-02	9.51428105e-04
5.60000000e-02	2.29506242e-02	9.00169988e-04
5.62500000e-02	2.31553837e-02	9.18898174e-04
5.65000000e-02	2.34394022e-02	9.23976953e-04
5.67500000e-02	2.27758943e-02	8.94101610e-04
5.70000000e-02	2.23069272e-02	8.68106609e-04
5.72500000e-02	2.33880432e-02	9.16481592e-04
5.75000000e-02	2.25827020e-02	8.77409699e-04
5.77500000e-02	2.26985326e-02	8.67832840e-04
5.80000000e-02	2.22497453e-02	8.73720329e-04
5.82500000e-02	2.24499908e-02	8.70062183e-04
5.85000000e-02	2.26014970e-02	8.71474238e-04
5.87500000e-02	2.26745467e-02	8.66687807e-04
5.90000000e-02	2.24580177e-02	8.61414178e-04
5.92500000e-02	2.24515458e-02	8.58648663e-04
5.95000000e-02	2.23062816e-02	8.44691889e-04
5.97500000e-02	2.28300893e-02	8.72773873e-04
6.00000000e-02	2.20225583e-02	8.32306347e-04
6.02500000e-02	2.23121225e-02	8.38204909e-04
6.05000000e-02	2.23564711e-02	8.50440036e-04
6.07500000e-02	2.20272650e-02	8.29171314e-04
6.10000000e-02	2.20161293e-02	8.35212604e-04
6.12500000e-02	2.25067199e-02	8.39762573e-04
6.15000000e-02	2.21824469e-02	8.33422501e-04
6.17500000e-02	2.22049150e-02	8.30035558e-04
6.20000000e-02	2.14463502e-02	8.11796332e-04
6.22500000e-02	2.20191356e-02	8.11184181e-04
6.25000000e-02	2.21384566e-02	8.20136577e-04
6.27500000e-02	2.11650194e-02	7.82406298e-04
6.30000000e-02	2.17603287e-02	7.96704246e-04
6.32500000e-02	2.16325373e-02	7.98198833e-04
6.35000000e-02	2.17510275e-02	8.01810731e-04
6.37500000e-02	2.12970699e-02	7.83659661e-04
6.40000000e-02	2.22644033e-02	8.06656790e-04
6.42500000e-02	2.19208454e-02	7.95384466e-04
6.45000000e-02	2.22554304e-02	8.15324432e-04
6.47500000e-02	2.20294165e-02	7.99044574e-04
6.50000000e-02	2.19055633e-02	7.99036219e-04
6.52500000e-02	2.12529089e-02	7.66128012e-04
6.55000000e-02	2.10826606e-02	7.71133828e-04
6.57500000e-02	2.14612102e-02	7.68536677e-04
6.60000000e-02	2.14428137e-02	7.71749478e-04
6.62500000e-02	2.16433060e-02	7.82738673e-04
6.65000000e-02	2.14404796e-02	7.60656167e-04
6.67500000e-02	2.16142363e-02	7.65961703e-04
6.70000000e-02	2.19998160e-02	7.87497677e-04
6.72500000e-02	2.11849002e-02	7.54382305e-04
6.75000000e-02	2.11051772e-02	7.52556413e-04
6.77500000e-02	2.13756107e-02	7.53381741e-04
6.80000000e-02	2.10434652e-02	7.52189001e-04
6.82500000e-02	2.12638153e-02	7.54583855e-04
6.85000000e-02	2.11593022e-02	7.51701969e-04
6.87500000e-02	2.12860621e-02	7.48721526e-04
6.90000000e-02	2.14449772e-02	7.58192833e-04
6.92500000e-02	2.16203837e-02	7.61610018e-04
6.95000000e-02	2.07732153e-02	7.40053672e-04
6.97500000e-02	2.15746454e-02	7.54877744e-04
7.00000000e-02	2.18564382e-02	7.62399248e-04
7.02500000e-02	2.10864587e-02	7.38078297e-04
7.05000000e-02	2.14372565e-02	7.41580992e-04
7.07500000e-02	2.15451203e-02	7.56240748e-04
7.10000000e-02	2.08897482e-02	7.21073512e-04
7.12500000e-02	2.10158199e-02	7.31231462e-04
7.15000000e-02	2.14146270e-02	7.41502654e-04
7.17500000e-02	2.15879623e-02	7.48235077e-04
7.20000000e-02	2.15321925e-02	7.51725827e-04
7.22500000e-02	2.14037101e-02	7.33913202e-04
7.25000000e-02	2.11678521e-02	7.28891190e-04
7.27500000e-02	2.17268525e-02	7.51716441e-04
7.30000000e-02	2.11193947e-02	7.23920094e-04
7.32500000e-02	2.11392145e-02	7.31594125e-04
7.35000000e-02	2.10335651e-02	7.21645701e-04
7.37500000e-02	2.09209224e-02	7.14336070e-04
7.40000000e-02	2.07151074e-02	7.08956732e-04
7.42500000e-02	2.08139011e-02	7.10588957e-04
7.45000000e-02	2.14691629e-02	7.28078744e-04
7.47500000e-02	2.09251529e-02	7.10963256e-04
7.50000000e-02	2.11586403e-02	7.17601688e-04
7.52500000e-02	2.07909297e-02	7.05726339e-04
7.55000000e-02	2.07780168e-02	7.03296364e-04
7.57500000e-02	2.07531265e-02	7.06359516e-04
7.60000000e-02	2.11493249e-02	7.10782821e-04
7.62500000e-02	2.06558349e-02	6.98386736e-04
7.65000000e-02	2.09845852e-02	7.14254373e-04
7.67500000e-02	2.11411910e-02	7.10617826e-04
7.70000000e-02	2.04314643e-02	6.84094187e-04
7.72500000e-02	2.08646097e-02	7.14189957e-04
7.75000000e-02	2.07876491e-02	7.17609830e-04
7.77500000e-02	2.08510525e-02	7.21615549e-04
7.80000000e-02	2.05718469e-02	7.19353455e-04
7.82500000e-02	2.04988513e-02	7.17770614e-04
7.85000000e-02	2.03092586e-02	7.15285555e-04
7.87500000e-02	2.07039060e-02	7.30899051e-04
7.90000000e-02	2.09074228e-02	7.41799660e-04
7.92500000e-02	2.10059411e-02	7.45350977e-04
7.95000000e-02	2.05785593e-02	7.38001894e-04
7.97500000e-02	2.05105676e-02	7.33112380e-04
8.00000000e-02	1.99528042e-02	7.14925494e-04
8.02500000e-02	2.09986004e-02	7.47217808e-04
8.05000000e-02	2.05902440e-02	7.35641896e-04
8.07500000e-02	2.04711727e-02	7.33933285e-04
8.10000000e-02	2.12513419e-02	7.70220095e-04
8.12500000e-02	2.08873084e-02	7.55258773e-04
8.15000000e-02	2.06421158e-02	7.44569469e-04
8.17500000e-02	2.12507570e-02	7.72553238e-04
8.20000000e-02	2.11795941e-02	7.65839715e-04
8.22500000e-02	2.11746040e-02	7.72774503e-04
8.25000000e-02	2.09988490e-02	7.64733070e-04
8.27500000e-02	2.05447858e-02	7.47866268e-04
8.30000000e-02	2.04794838e-02	7.51104302e-04
8.32500000e-02	2.09361254e-02	7.65641154e-04
8.35000000e-02	2.05124573e-02	7.57740006e-04
8.37500000e-02	2.03776864e-02	7.36034560e-04
8.40000000e-02	2.00001270e-02	7.30004316e-04
8.42500000e-02	2.02606255e-02	7.46272393e-04
8.45000000e-02	2.01484033e-02	7.46049195e-04
8.47500000e-02	2.06718333e-02	7.63005044e-04
8.50000000e-02	2.02049148e-02	7.40762547e-04
8.52500000e-02	2.05730502e-02	7.68660192e-04
8.55000000e-02	2.03585156e-02	7.51226717e-04
8.57500000e-02	1.97404728e-02	7.31702321e-04
8.60000000e-02	2.05300261e-02	7.61692183e-04
8.62500000e-02	2.03666721e-02	7.49860351e-04
8.65000000e-02	2.09605104e-02	7.69796451e-04
8.67500000e-02	2.02165937e-02	7.44753027e-04
8.70000000e-02	1.98827049e-02	7.27471404e-04
8.72500000e-02	2.01111966e-02	7.16784593e-04
8.75000000e-02	2.05048883e-02	7.19164458e-04
8.77500000e-02	2.01576942e-02	7.04331789e-04
8.80000000e-02	2.09818587e-02	7.31761075e-04
8.82500000e-02	2.00576647e-02	7.00282723e-04
8.85000000e-02	2.02231784e-02	7.06212467e-04
8.87500000e-02	2.06230483e-02	7.06321225e-04
8.90000000e-02	1.99206296e-02	6.93074106e-04
8.92500000e-02	2.10858366e-02	7.19070330e-04
8.95000000e-02	2.04523887e-02	7.01322016e-04
8.97500000e-02	2.05162853e-02	7.02548295e-04
9.00000000e-02	2.05909702e-02	6.99934232e-04
9.02500000e-02	2.09800953e-02	7.08965596e-04
9.05000000e-02	2.05064821e-02	6.93547784e-04
9.07500000e-02	2.00731994e-02	6.76279889e-04
9.10000000e-02	2.01652075e-02	6.77726033e-04
9.12500000e-02	2.01773530e-02	6.73034830e-04
9.15000000e-02	2.02801696e-02	6.77752316e-04
9.17500000e-02	2.00665374e-02	6.74300861e-04
9.20000000e-02	2.01127674e-02	6.70325085e-04
9.22500000e-02	2.00847492e-02	6.69405139e-04
9.25000000e-02	1.97776450e-02	6.58010784e-04
9.27500000e-02	2.03418196e-02	6.72235780e-04
9.30000000e-02	2.08581140e-02	6.85685020e-04
9.32500000e-02	2.01491614e-02	6.64469145e-04
9.35000000e-02	2.02264179e-02	6.65971929e-04
9.37500000e-02	2.05026384e-02	6.67279359e-04
9.40000000e-02	2.04903037e-02	6.70552501e-04
9.42500000e-02	2.02308401e-02	6.61997015e-04
9.45000000e-02	2.00562679e-02	6.55243100e-04
9.47500000e-02	1.97680188e-02	6.52123791e-04
9.50000000e-02	2.02697309e-02	6.58877988e-04
9.52500000e-02	2.02733023e-02	6.57429682e-04
9.55000000e-02	1.97991736e-02	6.39068011e-04
9.57500000e-02	2.02594750e-02	6.57152967e-04
9.60000000e-02	1.98619094e-02	6.41681799e-04
9.62500000e-02	1.96300663e-02	6.32829723e-04
9.65000000e-02	2.01221087e-02	6.48192807e-04
9.67500000e-02	2.05592734e-02	6.54263407e-04
9.70000000e-02	2.00468980e-02	6.45257705e-04
9.72500000e-02	1.94825720e-02	6.24167539e-04
9.75000000e-02	1.96903998e-02	6.33337560e-04
9.77500000e-02	1.99028250e-02	6.38233446e-04
9.80000000e-02	2.01096375e-02	6.38314272e-04
9.82500000e-02	2.01382335e-02	6.44558999e-04
9.85000000e-02	1.99872224e-02	6.32364473e-04
9.87500000e-02	1.94183386e-02	6.15082064e-04
9.90000000e-02	2.04062350e-02	6.45652115e-04
9.92500000e-02	2.01236093e-02	6.38972126e-04
9.95000000e-02	1.98829383e-02	6.29819244e-04
9.97500000e-02	1.98036992e-02	6.25833883e-04
1.00000000e-01	2.02177077e-02	5.16310767e-04
1.00500000e-01	2.00651417e-02	4.49230717e-04
1.01000000e-01	2.00911811e-02	4.45484250e-04
1.01500000e-01	1.99434939e-02	4.42852137e-04
1.02000000e-01	2.00737761e-02	4.42501978e-04
1.02500000e-01	1.96199012e-02	4.29735685e-04
1.03000000e-01	1.96098081e-02	4.30996563e-04
1.03500000e-01	1.98965712e-02	4.35680123e-04
1.04000000e-01	2.01473940e-02	4.37389781e-04
1.04500000e-01	2.02704635e-02	4.40428052e-04
1.05000000e-01	2.01637526e-02	4.36331516e-04
1.05500000e-01	1.99354276e-02	4.28406812e-04
1.06000000e-01	2.01177369e-02	4.32281027e-04
1.06500000e-01	2.01219925e-02	4.33493203e-04
1.07000000e-01	1.97836791e-02	4.31379594e-04
1.07500000e-01	2.00008924e-02	4.41539085e-04
1.08000000e-01	2.04643653e-02	4.58603973e-04
1.08500000e-01	1.98499876e-02	4.47638369e-04
1.09000000e-01	1.97743901e-02	4.48686195e-04
1.09500000e-01	1.99832808e-02	4.54779431e-04
1.10000000e-01	1.99025177e-02	4.48137380e-04
1.10500000e-01	1.98399178e-02	4.37281757e-04
1.11000000e-01	2.01983147e-02	4.37586810e-04
1.11500000e-01	1.98104438e-02	4.27433536e-04
1.12000000e-01	2.00708174e-02	4.28560893e-04
1.12500000e-01	2.01808084e-02	4.26634963e-04
1.13000000e-01	1.98505538e-02	4.19515425e-04
1.13500000e-01	1.99605176e-02	4.22283248e-04
1.14000000e-01	2.01208441e-02	4.21941522e-04
1.14500000e-01	1.99910962e-02	4.19526285e-04
1.15000000e-01	2.01139691e-02	4.21250135e-04
1.15500000e-01	1.98104171e-02	4.12109392e-04
1.16000000e-01	2.00270325e-02	4.14039349e-04
1.16500000e-01	2.02928683e-02	4.20226842e-04
1.17000000e-01	2.01263991e-02	4.17577320e-04
1.17500000e-01	2.03169656e-02	4.16306684e-04
1.18000000e-01	2.00015586e-02	4.12903630e-04
1.18500000e-01	1.99732669e-02	4.07501897e-04
1.19000000e-01	1.98950886e-02	4.09402513e-04
1.19500000e-01	1.99645167e-02	4.05215299e-04
1.20000000e-01	2.01234607e-02	4.09285496e-04
1.20500000e-01	1.95181838e-02	3.97159567e-04
1.21000000e-01	1.98412696e-02	4.02583117e-04
1.21500000e-01	2.02438290e-02	4.09704723e-04
1.22000000e-01	1.97175213e-02	3.98724921e-04
1.22500000e-01	1.99096730e-02	4.01213975e-04
1.23000000e-01	1.96352330e-02	3.94078757e-04
1.23500000e-01	1.95988084e-02	3.92583712e-04
1.24000000e-01	1.98298689e-02	3.97683538e-04
1.24500000e-01	2.00419685e-02	3.98049000e-04
1.25000000e-01	1.97501311e-02	3.93757824e-04
1.25500000e-01	2.00884151e-02	3.98744048e-04
1.26000000e-01	2.02632055e-02	4.02495697e-04
1.26500000e-01	1.94378773e-02	3.85189903e-04
1.27000000e-01	1.99062833e-02	3.93864418e-04
1.27500000e-01	1.96531241e-02	3.86063224e-04
1.28000000e-01	1.98154458e-02	3.90631327e-04
1.28500000e-01	1.99322800e-02	3.89408692e-04
1.29000000e-01	1.99093287e-02	3.89887491e-04
1.29500000e-01	1.97725731e-02	3.87304283e-04
1.30000000e-01	1.98638775e-02	3.86898111e-04
1.30500000e-01	1.96232871e-02	3.82638113e-04
1.31000000e-01	1.97743992e-02	3.85833760e-04
1.31500000e-01	1.97881083e-02	3.84159223e-04
1.32000000e-01	2.00877440e-02	3.87198201e-04
1.32500000e-01	1.99682209e-02	3.85697856e-04
1.33000000e-01	1.98501927e-02	3.83329552e-04
1.33500000e-01	1.97723764e-02	3.78357980e-04
1.34000000e-01	2.00314918e-02	3.84688099e-04
1.34500000e-01	1.97055681e-02	3.75498067e-04
1.35000000e-01	1.99102997e-02	3.79141207e-04
1.35500000e-01	2.00048242e-02	3.80078403e-04
1.36000000e-01	1.98817694e-02	3.76646586e-04
1.36500000e-01	1.98431647e-02	3.78527063e-04
1.37000000e-01	2.00625326e-02	3.77932903e-04
1.37500000e-01	1.98679170e-02	3.73929707e-04
1.38000000e-01	2.00048094e-02	3.74697082e-04
1.38500000e-01	1.99821774e-02	3.75267819e-04
1.39000000e-01	1.97061454e-02	3.72354783e-04
1.39500000e-01	1.98404685e-02	3.73643125e-04
1.40000000e-01	1.95538188e-02	3.69750548e-04
1.40500000e-01	1.97710466e-02	3.71211415e-04
1.41000000e-01	1.99258348e-02	3.72692127e-04
1.41500000e-01	1.97629647e-02	3.70787438e-04
1.42000000e-01	1.96131850e-02	3.65879870e-04
1.42500000e-01	1.96548574e-02	3.66791508e-04
1.43000000e-01	1.93607656e-02	3.62687972e-04
1.43500000e-01	1.96261992e-02	3.66099057e-04
1.44000000e-01	1.95584680e-02	3.62230438e-04
1.44500000e-01	1.99929598e-02	3.68919378e-04
1.45000000e-01	1.96662774e-02	3.64814397e-04
1.45500000e-01	1.97285587e-02	3.64626545e-04
1.46000000e-01	1.93167408e-02	3.54644922e-04
1.46500000e-01	1.96675368e-02	3.62902294e-04
1.47000000e-01	1.98599021e-02	3.64446654e-04
1.47500000e-01	1.94211120e-02	3.56605530e-04
1.48000000e-01	1.98257632e-02	3.62197042e-04
1.48500000e-01	1.95588473e-02	3.57379332e-04
1.49000000e-01	1.93451469e-02	3.52318470e-04
1.49500000e-01	1.97071365e-02	3.57898793e-04
1.50000000e-01	1.97370140e-02	3.57825999e-04
1.50500000e-01	1.93524355e-02	3.52267484e-04
1.51000000e-01	1.97872444e-02	3.59376735e-04
1.51500000e-01	1.96801039e-02	3.54587836e-04
1.52000000e-01	1.97461692e-02	3.53411604e-04
1.52500000e-01	1.96319701e-02	3.54273230e-04
1.53000000e-01	1.94130293e-02	3.50354680e-04
1.53500000e-01	1.95378149e-02	3.50336188e-04
1.54000000e-01	1.97122404e-02	3.52042252e-04
1.54500000e-01	1.91534991e-02	3.50484675e-04
1.55000000e-01	1.94274890e-02	3.59440414e-04
1.55500000e-01	1.93661922e-02	3.59260742e-04
1.56000000e-01	1.93538844e-02	3.61357172e-04
1.56500000e-01	1.95219323e-02	3.65585650e-04
1.57000000e-01	1.95658010e-02	3.66293135e-04
1.57500000e-01	1.93049753e-02	3.54941149e-04
1.58000000e-01	1.93964436e-02	3.52014153e-04
1.58500000e-01	1.92410248e-02	3.46439219e-04
1.59000000e-01	1.91027662e-02	3.41430474e-04
1.59500000e-01	1.90581295e-02	3.41952954e-04
1.60000000e-01	1.91328942e-02	3.43341536e-04
1.60500000e-01	1.93492616e-02	3.44155191e-04
1.61000000e-01	1.91328208e-02	3.41433431e-04
1.61500000e-01	1.91264215e-02	3.40238355e-04
1.62000000e-01	1.92746424e-02	3.42493882e-04
1.62500000e-01	1.94792584e-02	3.44293848e-04
1.63000000e-01	1.90760557e-02	3.33876204e-04
1.63500000e-01	1.92053092e-02	3.38442900e-04
1.64000000e-01	1.91379279e-02	3.34515596e-04
1.64500000e-01	1.93125397e-02	3.39285251e-04
1.65000000e-01	1.92557249e-02	3.38452181e-04
1.65500000e-01	1.90699285e-02	3.32931022e-04
1.66000000e-01	1.92901223e-02	3.36962765e-04
1.66500000e-01	1.92057753e-02	3.33208264e-04
1.67000000e-01	1.91790225e-02	3.34955459e-04
1.67500000e-01	1.92081237e-02	3.34846466e-04
1.68000000e-01	1.91703970e-02	3.33095295e-04
1.68500000e-01	1.90056924e-02	3.29467908e-04
1.69000000e-01	1.91422822e-02	3.32214131e-04
1.69500000e-01	1.86651373e-02	3.22819146e-04
1.70000000e-01	1.91142868e-02	3.29113003e-04
1.70500000e-01	1.88607047e-02	3.24807365e-04
1.71000000e-01	1.94088371e-02	3.34424874e-04
1.71500000e-01	1.90380755e-02	3.27215213e-04
1.72000000e-01	1.89685717e-02	3.24265448e-04
1.72500000e-01	1.90531450e-02	3.26958299e-04
1.73000000e-01	1.91244705e-02	3.27205354e-04
1.73500000e-01	1.90358324e-02	3.25562924e-04
1.74000000e-01	1.89928140e-02	3.21661921e-04
1.74500000e-01	1.91063414e-02	3.22324564e-04
1.75000000e-01	1.90736697e-02	3.20768733e-04
1.75500000e-01	1.91296602e-02	3.20804544e-04
1.76000000e-01	1.91852333e-02	3.23177433e-04
1.76500000e-01	1.88942418e-02	3.18652012e-04
1.77000000e-01	1.89780841e-02	3.18579380e-04
1.77500000e-01	1.90624161e-02	3.20906920e-04
1.78000000e-01	1.87900636e-02	3.15495449e-04
1.78500000e-01	1.90033872e-02	3.20099279e-04
1.79000000e-01	1.87185458e-02	3.13623822e-04
1.79500000e-01	1.88102319e-02	3.13876818e-04
1.80000000e-01	1.87824913e-02	3.16070887e-04
1.80500000e-01	1.89433771e-02	3.17979268e-04
1.81000000e-01	1.89555220e-02	3.16595017e-04
1.81500000e-01	1.87095093e-02	3.13078208e-04
1.82000000e-01	1.85584326e-02	3.09083926e-04
1.82500000e-01	1.87528598e-02	3.11952959e-04
1.83000000e-01	1.88975546e-02	3.15389192e-04
1.83500000e-01	1.86221498e-02	3.09104545e-04
1.84000000e-01	1.89016957e-02	3.12812643e-04
1.84500000e-01	1.87238377e-02	3.09678615e-04
1.85000000e-01	1.90393727e-02	3.14974533e-04
1.85500000e-01	1.85401412e-02	3.06054975e-04
1.86000000e-01	1.85069752e-02	3.06503542e-04
1.86500000e-01	1.88757754e-02	3.11612756e-04
1.87000000e-01	1.86823215e-02	3.07534911e-04
1.87500000e-01	1.87615115e-02	3.08171176e-04
1.88000000e-01	1.84518419e-02	3.04261055e-04
1.88500000e-01	1.88666353e-02	3.10122714e-04
1.89000000e-01	1.85183537e-02	3.03070881e-04
1.89500000e-01	1.87558868e-02	3.06335207e-04
1.90000000e-01	1.86568506e-02	3.03445950e-04
1.90500000e-01	1.85737856e-02	3.03136069e-04
1.91000000e-01	1.84746576e-02	3.00879678e-04
1.91500000e-01	1.85413910e-02	3.03311995e-04
1.92000000e-01	1.87058092e-02	3.03755780e-04
1.92500000e-01	1.86134391e-02	3.02567829e-04
1.93000000e-01	1.85215185e-02	3.00503810e-04
1.93500000e-01	1.85159450e-02	3.00048545e-04
1.94000000e-01	1.87475325e-02	3.04501581e-04
1.94500000e-01	1.86672890e-02	3.01285529e-04
1.95000000e-01	1.84403553e-02	2.98131911e-04
1.95500000e-01	1.87225226e-02	3.00806946e-04
1.96000000e-01	1.86051380e-02	3.00497002e-04
1.96500000e-01	1.84117910e-02	2.96647232e-04
1.97000000e-01	1.84132893e-02	2.95748368e-04
1.97500000e-01	1.86023112e-02	2.96751462e-04
1.98000000e-01	1.82413708e-02	2.92154323e-04
1.98500000e-01	1.85921404e-02	2.95536749e-04
1.99000000e-01	1.85438559e-02	2.96143249e-04
1.99500000e-01	1.84577896e-02	2.93827182e-04
2.00000000e-01	1.86107386e-02	2.96109416e-04
2.00500000e-01	1.85452045e-02	2.95480690e-04
2.01000000e-01	1.83611533e-02	2.92689311e-04
2.01500000e-01	1.84299635e-02	2.93269306e-04
2.02000000e-01	1.86032471e-02	2.93597192e-04
2.02500000e-01	1.81680376e-02	2.88441178e-04
2.03000000e-01	1.83259853e-02	2.90473554e-04
2.03500000e-01	1.84498724e-02	2.92044196e-04
2.04000000e-01	1.81978949e-02	2.87606571e-04
2.04500000e-01	1.83790944e-02	2.91098906e-04
2.05000000e-01	1.82765609e-02	2.87148206e-04
2.05500000e-01	1.83405846e-02	2.89569883e-04
2.06000000e-01	1.83543547e-02	2.86740269e-04
2.06500000e-01	1.83651349e-02	2.89348390e-04
2.07000000e-01	1.83516974e-02	2.86474121e-04
2.07500000e-01	1.86385152e-02	2.90724037e-04
2.08000000e-01	1.81134999e-02	2.85343605e-04
2.08500000e-01	1.82914353e-02	2.85710747e-04
2.09000000e-01	1.83753006e-02	2.85800100e-04
2.09500000e-01	1.82937804e-02	2.84117018e-04
2.10000000e-01	1.82499411e-02	2.84667312e-04
2.10500000e-01	1.79979594e-02	2.80362434e-04
2.11000000e-01	1.83112277e-02	2.81965962e-04
2.11500000e-01	1.84627281e-02	2.87159641e-04
2.12000000e-01	1.82622393e-02	2.83534128e-04
2.12500000e-01	1.80769843e-02	2.80096280e-04
2.13000000e-01	1.82001487e-02	2.81029095e-04
2.13500000e-01	1.79912244e-02	2.77429420e-04
2.14000000e-01	1.81796019e-02	2.80983484e-04
2.14500000e-01	1.82308782e-02	2.80696149e-04
2.15000000e-01	1.79252570e-02	2.76970352e-04
2.15500000e-01	1.83926091e-02	2.81689665e-04
2.16000000e-01	1.82976672e-02	2.81633268e-04
2.16500000e-01	1.81601064e-02	2.78620397e-04
2.17000000e-01	1.83805264e-02	2.85547399e-04
2.17500000e-01	1.80864985e-02	2.87915289e-04
2.18000000e-01	1.81820781e-02	2.88217309e-04
2.18500000e-01	1.82448444e-02	2.90973464e-04
2.19000000e-01	1.80457462e-02	2.89655326e-04
2.19500000e-01	1.81795891e-02	2.91507765e-04
2.20000000e-01	1.79395409e-02	2.90656132e-04
2.20500000e-01	1.80813654e-02	2.91813466e-04
2.21000000e-01	1.79766815e-02	2.92300580e-04
2.21500000e-01	1.80216504e-02	2.93691604e-04
2.22000000e-01	1.80238319e-02	2.92604899e-04
2.22500000e-01	1.79680374e-02	2.94694019e-04
2.23000000e-01	1.82215160e-02	2.97058152e-04
2.23500000e-01	1.77725723e-02	2.91187987e-04
2.24000000e-01	1.81662931e-02	2.99769358e-04
2.24500000e-01	1.83472576e-02	3.02685256e-04
2.25000000e-01	1.79855569e-02	2.96605050e-04
2.25500000e-01	1.78823790e-02	2.95817007e-04
2.26000000e-01	1.82550925e-02	3.03141901e-04
2.26500000e-01	1.79303433e-02	2.91889678e-04
2.27000000e-01	1.82218589e-02	2.94458304e-04
2.27500000e-01	1.80280440e-02	2.89523330e-04
2.28000000e-01	1.78957979e-02	2.85865159e-04
2.28500000e-01	1.82130149e-02	2.88432935e-04
2.29000000e-01	1.80149784e-02	2.84641794e-04
2.29500000e-01	1.79402313e-02	2.83952262e-04
2.30000000e-01	1.82707851e-02	2.86906190e-04
2.30500000e-01	1.81728863e-02	2.83134865e-04
2.31000000e-01	1.78419365e-02	2.78328059e-04
2.31500000e-01	1.79634026e-02	2.79609835e-04
2.32000000e-01	1.79204447e-02	2.80106992e-04
2.32500000e-01	1.80825796e-02	2.81424588e-04
2.33000000e-01	1.79879257e-02	2.78828236e-04
2.33500000e-01	1.80509619e-02	2.78200893e-04
2.34000000e-01	1.79463012e-02	2.76618349e-04
2.34500000e-01	1.79291615e-02	2.75965136e-04
2.35000000e-01	1.76763878e-02	2.71900322e-04
2.35500000e-01	1.77823455e-02	2.72047818e-04
2.36000000e-01	1.75425034e-02	2.69331494e-04
2.36500000e-01	1.80856922e-02	2.76400491e-04
2.37000000e-01	1.78021074e-02	2.71025829e-04
2.37500000e-01	1.78765745e-02	2.73143306e-04
2.38000000e-01	1.81001185e-02	2.73435366e-04
2.38500000e-01	1.78758151e-02	2.71519148e-04
2.39000000e-01	1.76742713e-02	2.67121460e-04
2.39500000e-01	1.79464395e-02	2.71415560e-04
2.40000000e-01	1.78740694e-02	2.69525904e-04
2.40500000e-01	1.77340357e-02	2.67179914e-04
2.41000000e-01	1.78456837e-02	2.68968092e-04
2.41500000e-01	1.78766904e-02	2.68070373e-04
2.42000000e-01	1.77218298e-02	2.66449672e-04
2.42500000e-01	1.76924541e-02	2.64990712e-04
2.43000000e-01	1.75059002e-02	2.61019145e-04
2.43500000e-01	1.76952795e-02	2.64975814e-04
2.44000000e-01	1.76208719e-02	2.63413907e-04
2.44500000e-01	1.76888663e-02	2.64529010e-04
2.45000000e-01	1.75082725e-02	2.60980031e-04
2.45500000e-01	1.78100484e-02	2.64395224e-04
2.46000000e-01	1.77613657e-02	2.63816441e-04
2.46500000e-01	1.76534943e-02	2.61767446e-04
2.47000000e-01	1.77783329e-02	2.63410117e-04
2.47500000e-01	1.74565774e-02	2.57947910e-04
2.48000000e-01	1.75661987e-02	2.59163030e-04
2.48500000e-01	1.75891797e-02	2.59204524e-04
2.49000000e-01	1.76202579e-02	2.59729648e-04
2.49500000e-01	1.76904745e-02	2.61007626e-04
2.50000000e-01	1.76971993e-02	2.59373357e-04
2.50500000e-01	1.75478315e-02	2.58536277e-04
2.51000000e-01	1.76021360e-02	2.56632923e-04
2.51500000e-01	1.75133795e-02	2.56720284e-04
2.52000000e-01	1.75082855e-02	2.56790798e-04
2.52500000e-01	1.77085621e-02	2.59141656e-04
2.53000000e-01	1.76184233e-02	2.58056331e-04
2.53500000e-01	1.75310402e-02	2.56139392e-04
2.54000000e-01	1.76469178e-02	2.56784319e-04
2.54500000e-01	1.77920019e-02	2.59101253e-04
2.55000000e-01	1.71648765e-02	2.50052236e-04
2.55500000e-01	1.77196138e-02	2.57715834e-04
2.56000000e-01	1.72875621e-02	2.51080538e-04
2.56500000e-01	1.73968453e-02	2.53369646e-04
2.57000000e-01	1.76679855e-02	2.54537729e-04
2.57500000e-01	1.72947824e-02	2.50121846e-04
2.58000000e-01	1.78797665e-02	2.57403582e-04
2.58500000e-01	1.75630069e-02	2.53495484e-04
2.59000000e-01	1.73579047e-02	2.50429345e-04
2.59500000e-01	1.75818009e-02	2.52037448e-04
2.60000000e-01	1.74385268e-02	2.50613431e-04
2.60500000e-01	1.74570874e-02	2.50840924e-04
2.61000000e-01	1.73254396e-02	2.48983311e-04
2.61500000e-01	1.75193182e-02	2.51391362e-04
2.62000000e-01	1.71650138e-02	2.45137582e-04
2.62500000e-01	1.73316610e-02	2.48658613e-04
2.63000000e-01	1.74547580e-02	2.49614189e-04
2.63500000e-01	1.75465568e-02	2.51073328e-04
2.64000000e-01	1.76459869e-02	2.50695925e-04
2.64500000e-01	1.74990346e-02	2.49035333e-04
2.65000000e-01	1.75267173e-02	2.50808678e-04
2.65500000e-01	1.75414244e-02	2.49230916e-04
2.66000000e-01	1.72844279e-02	2.46055087e-04
2.66500000e-01	1.72613879e-02	2.44972467e-04
2.67000000e-01	1.73294655e-02	2.45783585e-04
2.67500000e-01	1.74311049e-02	2.47186577e-04
2.68000000e-01	1.72375223e-02	2.43877195e-04
2.68500000e-01	1.73693041e-02	2.44852677e-04
2.69000000e-01	1.73958380e-02	2.44958762e-04
2.69500000e-01	1.74439885e-02	2.45778376e-04
2.70000000e-01	1.73100428e-02	2.43295563e-04
2.70500000e-01	1.73270686e-02	2.43029245e-04
2.71000000e-01	1.71768324e-02	2.40757201e-04
2.71500000e-01	1.72076850e-02	2.41742940e-04
2.72000000e-01	1.70910305e-02	2.39650461e-04
2.72500000e-01	1.71911849e-02	2.41822287e-04
2.73000000e-01	1.73755963e-02	2.43036828e-04
2.73500000e-01	1.73887986e-02	2.43125916e-04
2.74000000e-01	1.71479359e-02	2.39044986e-04
2.74500000e-01	1.70710551e-02	2.38086894e-04
2.75000000e-01	1.71803550e-02	2.39839582e-04
2.75500000e-01	1.75551630e-02	2.44409200e-04
2.76000000e-01	1.71519365e-02	2.37766466e-04
2.76500000e-01	1.74229999e-02	2.42946995e-04
2.77000000e-01	1.72512444e-02	2.39430848e-04
2.77500000e-01	1.71808186e-02	2.39185502e-04
2.78000000e-01	1.72517574e-02	2.39509191e-04
2.78500000e-01	1.72621243e-02	2.39140258e-04
2.79000000e-01	1.72463948e-02	2.39068715e-04
2.79500000e-01	1.70505303e-02	2.36463683e-04
2.80000000e-01	1.72995787e-02	2.39168272e-04
2.80500000e-01	1.71863766e-02	2.37112658e-04
2.81000000e-01	1.72129090e-02	2.37778860e-04
2.81500000e-01	1.72702006e-02	2.38242934e-04
2.82000000e-01	1.69687439e-02	2.33920343e-04
2.82500000e-01	1.71262916e-02	2.35467335e-04
2.83000000e-01	1.72707636e-02	2.37276781e-04
2.83500000e-01	1.70956967e-02	2.35132029e-04
2.84000000e-01	1.71592702e-02	2.34587909e-04
2.84500000e-01	1.70951242e-02	2.34791641e-04
2.85000000e-01	1.71538634e-02	2.34757410e-04
2.85500000e-01	1.72384263e-02	2.35544392e-04
2.86000000e-01	1.72027618e-02	2.35460821e-04
2.86500000e-01	1.70597331e-02	2.33253588e-04
2.87000000e-01	1.72965254e-02	2.35952468e-04
2.87500000e-01	1.71183223e-02	2.33299889e-04
2.88000000e-01	1.69900823e-02	2.31161001e-04
2.88500000e-01	1.71738774e-02	2.33465691e-04
2.89000000e-01	1.70293260e-02	2.31547013e-04
2.89500000e-01	1.70686447e-02	2.31903788e-04
2.90000000e-01	1.71102981e-02	2.31725242e-04
2.90500000e-01	1.71176297e-02	2.33188592e-04
2.91000000e-01	1.70040835e-02	2.30413814e-04
2.91500000e-01	1.67914355e-02	2.27007426e-04
2.92000000e-01	1.70420085e-02	2.30173414e-04
2.92500000e-01	1.70685863e-02	2.30033542e-04
2.93000000e-01	1.69806425e-02	2.28612615e-04
2.93500000e-01	1.69120698e-02	2.28460309e-04
2.94000000e-01	1.69601771e-02	2.28353186e-04
2.94500000e-01	1.71437729e-02	2.30703687e-04
2.95000000e-01	1.70379416e-02	2.29038350e-04
2.95500000e-01	1.67686761e-02	2.26121244e-04
2.96000000e-01	1.70021626e-02	2.27683826e-04
2.96500000e-01	1.70349243e-02	2.28221814e-04
2.97000000e-01	1.68301509e-02	2.26253313e-04
2.97500000e-01	1.71458812e-02	2.28932081e-04
2.98000000e-01	1.67923589e-02	2.24741684e-04
2.98500000e-01	1.68711671e-02	2.25438025e-04
2.99000000e-01	1.68277290e-02	2.25846686e-04
2.99500000e-01	1.68443859e-02	2.24865730e-04
3.00000000e-01	1.70498660e-02	2.26779280e-04
3.00500000e-01	1.69290209e-02	2.26628095e-04
3.01000000e-01	1.70055071e-02	2.26552998e-04
3.01500000e-01	1.69844039e-02	2.26254386e-04
3.02000000e-01	1.69350850e-02	2.24987134e-04
3.02500000e-01	1.70212007e-02	2.25781647e-04
3.03000000e-01	1.68173910e-02	2.23139351e-04
3.03500000e-01	1.67331277e-02	2.21777145e-04
3.04000000e-01	1.69006828e-02	2.24414417e-04
3.04500000e-01	1.67755543e-02	2.22641739e-04
3.05000000e-01	1.66235103e-02	2.20760066e-04
3.05500000e-01	1.67243886e-02	2.22269100e-04
3.06000000e-01	1.68588768e-02	2.21713356e-04
3.06500000e-01	1.69278106e-02	2.23506242e-04
3.07000000e-01	1.68337193e-02	2.21576215e-04
3.07500000e-01	1.68038124e-02	2.21395924e-04
3.08000000e-01	1.67519761e-02	2.20800648e-04
3.08500000e-01	1.65923700e-02	2.18177938e-04
3.09000000e-01	1.69203273e-02	2.21409584e-04
3.09500000e-01	1.67448535e-02	2.19997813e-04
3.10000000e-01	1.66378316e-02	2.18502693e-04
3.10500000e-01	1.66699587e-02	2.19080151e-04
3.11000000e-01	1.66880345e-02	2.18852849e-04
3.11500000e-01	1.66397191e-02	2.18187879e-04
3.12000000e-01	1.67023620e-02	2.19020378e-04
3.12500000e-01	1.65448165e-02	2.17262772e-04
3.13000000e-01	1.64965585e-02	2.15503529e-04
3.13500000e-01	1.65430461e-02	2.15970956e-04
3.14000000e-01	1.67899624e-02	2.18907794e-04
3.14500000e-01	1.67508206e-02	2.17265399e-04
3.15000000e-01	1.67425384e-02	2.18575241e-04
3.15500000e-01	1.66001970e-02	2.16689432e-04
3.16000000e-01	1.65810578e-02	2.15660247e-04
3.16500000e-01	1.64401263e-02	2.14103008e-04
3.17000000e-01	1.65019418e-02	2.14389546e-04
3.17500000e-01	1.66247142e-02	2.16638124e-04
3.18000000e-01	1.66091471e-02	2.14521003e-04
3.18500000e-01	1.65058413e-02	2.14431993e-04
3.19000000e-01	1.65591792e-02	2.14140017e-04
3.19500000e-01	1.64959789e-02	2.12228116e-04
3.20000000e-01	1.65223851e-02	2.14248180e-04
3.20500000e-01	1.65940717e-02	2.13886467e-04
3.21000000e-01	1.65337241e-02	2.13644641e-04
3.21500000e-01	1.63778280e-02	2.11686521e-04
3.22000000e-01	1.62494553e-02	2.09627264e-04
3.22500000e-01	1.66222660e-02	2.14076607e-04
3.23000000e-01	1.64809570e-02	2.11730890e-04
3.23500000e-01	1.65028337e-02	2.12319148e-04
3.24000000e-01	1.63460057e-02	2.09991383e-04
3.24500000e-01	1.63929548e-02	2.11349215e-04
3.25000000e-01	1.65695698e-02	2.12370718e-04
3.25500000e-01	1.64769404e-02	2.11802040e-04
3.26000000e-01	1.63711621e-02	2.10037415e-04
3.26500000e-01	1.61713880e-02	2.07863492e-04
3.27000000e-01	1.63797890e-02	2.09696646e-04
3.27500000e-01	1.62464083e-02	2.08613225e-04
3.28000000e-01	1.62150006e-02	2.07379938e-04
3.28500000e-01	1.65230351e-02	2.11240319e-04
3.29000000e-01	1.63138053e-02	2.09093592e-04
3.29500000e-01	1.63609548e-02	2.08916879e-04
3.30000000e-01	1.64166697e-02	2.08988538e-04
3.30500000e-01	1.63520254e-02	2.08630739e-04
3.31000000e-01	1.63033137e-02	2.06661364e-04
3.31500000e-01	1.63649233e-02	2.07812759e-04
3.32000000e-01	1.65334926e-02	2.10553121e-04
3.32500000e-01	1.60664786e-02	2.04581667e-04
3.33000000e-01	1.61775993e-02	2.05623257e-04
3.33500000e-01	1.62991635e-02	2.06673731e-04
3.34000000e-01	1.63995235e-02	2.07161632e-04
3.34500000e-01	1.61790097e-02	2.05931854e-04
3.35000000e-01	1.63262346e-02	2.05999230e-04
3.35500000e-01	1.63648931e-02	2.07337860e-04
3.36000000e-01	1.62067190e-02	2.04227076e-04
3.36500000e-01	1.63488111e-02	2.06606152e-04
3.37000000e-01	1.60720645e-02	2.03437372e-04
3.37500000e-01	1.60795363e-02	2.02879270e-04
3.38000000e-01	1.62197523e-02	2.04669835e-04
3.38500000e-01	1.62362936e-02	2.03982688e-04
3.39000000e-01	1.62915274e-02	2.05366254e-04
3.39500000e-01	1.61656996e-02	2.03688872e-04
3.40000000e-01	1.62274875e-02	2.03879857e-04
3.40500000e-01	1.61753847e-02	2.03540564e-04
3.41000000e-01	1.61576057e-02	2.02720128e-04
3.41500000e-01	1.60788816e-02	2.01922086e-04
3.42000000e-01	1.61720208e-02	2.02729216e-04
3.42500000e-01	1.61642680e-02	2.02909081e-04
3.43000000e-01	1.59590570e-02	1.99778654e-04
3.43500000e-01	1.62112335e-02	2.02044030e-04
3.44000000e-01	1.61531880e-02	2.02050560e-04
3.44500000e-01	1.61856188e-02	2.02466162e-04
3.45000000e-01	1.60986729e-02	2.00892453e-04
3.45500000e-01	1.59578430e-02	1.98802659e-04
3.46000000e-01	1.61789176e-02	2.01573020e-04
3.46500000e-01	1.60651164e-02	2.00016758e-04
3.47000000e-01	1.58923383e-02	1.97674532e-04
3.47500000e-01	1.60505607e-02	1.99484677e-04
3.48000000e-01	1.60236906e-02	1.99447719e-04
3.48500000e-01	1.59095666e-02	1.98421555e-04
3.49000000e-01	1.58606923e-02	1.96378861e-04
3.49500000e-01	1.61333518e-02	2.00400763e-04
3.50000000e-01	1.59804048e-02	1.61230766e-04
3.51000000e-01	1.59480641e-02	1.39487931e-04
3.52000000e-01	1.59683127e-02	1.40015222e-04
3.53000000e-01	1.59621748e-02	1.38919795e-04
3.54000000e-01	1.58658666e-02	1.38059094e-04
3.55000000e-01	1.57901897e-02	1.37714469e-04
3.56000000e-01	1.58505835e-02	1.38573293e-04
3.57000000e-01	1.58417969e-02	1.40781631e-04
3.58000000e-01	1.57997473e-02	1.41794229e-04
3.59000000e-01	1.58193752e-02	1.42895529e-04
3.60000000e-01	1.57894589e-02	1.43733794e-04
3.61000000e-01	1.56511375e-02	1.43511647e-04
3.62000000e-01	1.56515154e-02	1.44216048e-04
3.63000000e-01	1.57060127e-02	1.44670914e-04
3.64000000e-01	1.58165999e-02	1.46417593e-04
3.65000000e-01	1.56295739e-02	1.45212316e-04
3.66000000e-01	1.57810473e-02	1.44370440e-04
3.67000000e-01	1.56491685e-02	1.41489909e-04
3.68000000e-01	1.56204433e-02	1.40577820e-04
3.69000000e-01	1.55138838e-02	1.38866146e-04
3.70000000e-01	1.56895405e-02	1.39265561e-04
3.71000000e-01	1.56899993e-02	1.40929643e-04
3.72000000e-01	1.56462795e-02	1.41799667e-04
3.73000000e-01	1.57315656e-02	1.42738547e-04
3.74000000e-01	1.55912665e-02	1.41456227e-04
3.75000000e-01	1.56569031e-02	1.42467138e-04
3.76000000e-01	1.56122405e-02	1.42366395e-04
3.77000000e-01	1.55226768e-02	1.41684173e-04
3.78000000e-01	1.54924212e-02	1.40949165e-04
3.79000000e-01	1.55310856e-02	1.41344063e-04
3.80000000e-01	1.55588883e-02	1.41118242e-04
3.81000000e-01	1.53472022e-02	1.39348338e-04
3.82000000e-01	1.54964215e-02	1.40626081e-04
3.83000000e-01	1.53909024e-02	1.39609095e-04
3.84000000e-01	1.54999793e-02	1.40882392e-04
3.85000000e-01	1.54323930e-02	1.40090004e-04
3.86000000e-01	1.53619893e-02	1.39722863e-04
3.87000000e-01	1.53949839e-02	1.39532486e-04
3.88000000e-01	1.53369815e-02	1.38787071e-04
3.89000000e-01	1.54863442e-02	1.40421599e-04
3.90000000e-01	1.53266691e-02	1.39108432e-04
3.91000000e-01	1.53480278e-02	1.39330842e-04
3.92000000e-01	1.52572274e-02	1.38175694e-04
3.93000000e-01	1.54252556e-02	1.39547315e-04
3.94000000e-01	1.52925131e-02	1.38829584e-04
3.95000000e-01	1.52779659e-02	1.38025217e-04
3.96000000e-01	1.53834911e-02	1.39357433e-04
3.97000000e-01	1.53711592e-02	1.39044189e-04
3.98000000e-01	1.51550695e-02	1.37537210e-04
3.99000000e-01	1.53431520e-02	1.38587120e-04
4.00000000e-01	1.52614738e-02	1.38352717e-04
4.01000000e-01	1.52023831e-02	1.37762355e-04
4.02000000e-01	1.52521077e-02	1.38291680e-04
4.03000000e-01	1.52115597e-02	1.37627917e-04
4.04000000e-01	1.50751654e-02	1.36415262e-04
4.05000000e-01	1.52122757e-02	1.37605870e-04
4.06000000e-01	1.52049186e-02	1.37253463e-04
4.07000000e-01	1.52455886e-02	1.37965978e-04
4.08000000e-01	1.49945537e-02	1.35808730e-04
4.09000000e-01	1.50846796e-02	1.36420888e-04
4.10000000e-01	1.51411755e-02	1.36689975e-04
4.11000000e-01	1.52261295e-02	1.37190743e-04
4.12000000e-01	1.50365969e-02	1.35891837e-04
4.13000000e-01	1.51539759e-02	1.36604098e-04
4.14000000e-01	1.49954310e-02	1.35329978e-04
4.15000000e-01	1.51100534e-02	1.36210632e-04
4.16000000e-01	1.50328173e-02	1.35440696e-04
4.17000000e-01	1.51289597e-02	1.36043196e-04
4.18000000e-01	1.49732057e-02	1.36519120e-04
4.19000000e-01	1.51976545e-02	1.40284532e-04
4.20000000e-01	1.52981333e-02	1.41815155e-04
4.21000000e-01	1.52262010e-02	1.41008243e-04
4.22000000e-01	1.50001874e-02	1.39730858e-04
4.23000000e-01	1.50718826e-02	1.41169914e-04
4.24000000e-01	1.50299712e-02	1.41447305e-04
4.25000000e-01	1.51707635e-02	1.42413231e-04
4.26000000e-01	1.52319380e-02	1.43427218e-04
4.27000000e-01	1.50253114e-02	1.41029666e-04
4.28000000e-01	1.50479040e-02	1.41739571e-04
4.29000000e-01	1.50465759e-02	1.42226682e-04
4.30000000e-01	1.51249662e-02	1.42319926e-04
4.31000000e-01	1.50812064e-02	1.42006187e-04
4.32000000e-01	1.48593645e-02	1.40449934e-04
4.33000000e-01	1.50359428e-02	1.41747926e-04
4.34000000e-01	1.49480312e-02	1.41454116e-04
4.35000000e-01	1.48806922e-02	1.41208477e-04
4.36000000e-01	1.49760208e-02	1.41789078e-04
4.37000000e-01	1.49035904e-02	1.41256291e-04
4.38000000e-01	1.47474777e-02	1.40678250e-04
4.39000000e-01	1.49553232e-02	1.42080990e-04
4.40000000e-01	1.49216588e-02	1.42424553e-04
4.41000000e-01	1.49267130e-02	1.42545553e-04
4.42000000e-01	1.49892526e-02	1.42987592e-04
4.43000000e-01	1.48543481e-02	1.42054694e-04
4.44000000e-01	1.49013225e-02	1.42534686e-04
4.45000000e-01	1.48983645e-02	1.42443396e-04
4.46000000e-01	1.48004553e-02	1.42031928e-04
4.47000000e-01	1.49159008e-02	1.43294898e-04
4.48000000e-01	1.46933271e-02	1.41430834e-04
4.49000000e-01	1.49469662e-02	1.43906009e-04
4.50000000e-01	1.47828144e-02	1.42439524e-04
4.51000000e-01	1.47971084e-02	1.42892624e-04
4.52000000e-01	1.47403103e-02	1.42561011e-04
4.53000000e-01	1.48758914e-02	1.43683881e-04
4.54000000e-01	1.47403236e-02	1.42747297e-04
4.55000000e-01	1.46274217e-02	1.41825261e-04
4.56000000e-01	1.47354116e-02	1.42746433e-04
4.57000000e-01	1.47142487e-02	1.42944300e-04
4.58000000e-01	1.47136990e-02	1.42953222e-04
4.59000000e-01	1.47995048e-02	1.43859093e-04
4.60000000e-01	1.46808668e-02	1.42804682e-04
4.61000000e-01	1.48211998e-02	1.44233645e-04
4.62000000e-01	1.47147431e-02	1.43336483e-04
4.63000000e-01	1.48560446e-02	1.44672306e-04
4.64000000e-01	1.47053587e-02	1.43373217e-04
4.65000000e-01	1.47594402e-02	1.43945121e-04
4.66000000e-01	1.45578997e-02	1.42494739e-04
4.67000000e-01	1.48084586e-02	1.45082663e-04
4.68000000e-01	1.47172848e-02	1.44093624e-04
4.69000000e-01	1.46787605e-02	1.43463175e-04
4.70000000e-01	1.47232835e-02	1.44109277e-04
4.71000000e-01	1.45502647e-02	1.43162600e-04
4.72000000e-01	1.46352651e-02	1.43237987e-04
4.73000000e-01	1.46557356e-02	1.43265638e-04
4.74000000e-01	1.45658074e-02	1.42345259e-04
4.75000000e-01	1.45520473e-02	1.42755031e-04
4.76000000e-01	1.47041507e-02	1.43554837e-04
4.77000000e-01	1.46555853e-02	1.43365136e-04
4.78000000e-01	1.45051768e-02	1.41985464e-04
4.79000000e-01	1.45961696e-02	1.43284633e-04
4.80000000e-01	1.44658638e-02	1.41769255e-04
4.81000000e-01	1.45100150e-02	1.42201874e-04
4.82000000e-01	1.45328441e-02	1.43203160e-04
4.83000000e-01	1.44507553e-02	1.42254178e-04
4.84000000e-01	1.45551149e-02	1.43401261e-04
4.85000000e-01	1.43261010e-02	1.40843420e-04
4.86000000e-01	1.43201185e-02	1.41489612e-04
4.87000000e-01	1.44903464e-02	1.43172091e-04
4.88000000e-01	1.43694991e-02	1.41892452e-04
4.89000000e-01	1.45382711e-02	1.43141512e-04
4.90000000e-01	1.44801677e-02	1.42864147e-04
4.91000000e-01	1.44119102e-02	1.42385373e-04
4.92000000e-01	1.44495995e-02	1.43085551e-04
4.93000000e-01	1.43486847e-02	1.41617372e-04
4.94000000e-01	1.45029366e-02	1.43168233e-04
4.95000000e-01	1.44280979e-02	1.43512802e-04
4.96000000e-01	1.44829995e-02	1.48203683e-04
4.97000000e-01	1.42175148e-02	1.48898793e-04
4.98000000e-01	1.43724322e-02	1.52022881e-04
4.99000000e-01	1.43931978e-02	1.54255131e-04
5.00000000e-01	1.44483980e-02	1.56678542e-04
5.01000000e-01	1.43502650e-02	1.56721441e-04
5.02000000e-01	1.42563485e-02	1.57732742e-04
5.03000000e-01	1.43674621e-02	1.59956455e-04
5.04000000e-01	1.43604307e-02	1.61081822e-04
5.05000000e-01	1.44075949e-02	1.59687717e-04
5.06000000e-01	1.44218333e-02	1.55759213e-04
5.07000000e-01	1.44062697e-02	1.54094660e-04
5.08000000e-01	1.44191744e-02	1.53672462e-04
5.09000000e-01	1.41036390e-02	1.50035526e-04
5.10000000e-01	1.43078580e-02	1.51055858e-04
5.11000000e-01	1.43145302e-02	1.50746018e-04
5.12000000e-01	1.43140925e-02	1.50622017e-04
5.13000000e-01	1.41893260e-02	1.49318126e-04
5.14000000e-01	1.42618721e-02	1.49140413e-04
5.15000000e-01	1.43617275e-02	1.49792244e-04
5.16000000e-01	1.43786361e-02	1.49688213e-04
5.17000000e-01	1.42321682e-02	1.48060226e-04
5.18000000e-01	1.42434940e-02	1.47764401e-04
5.19000000e-01	1.41450311e-02	1.46525025e-04
5.20000000e-01	1.41832150e-02	1.46883317e-04
5.21000000e-01	1.42018643e-02	1.46542692e-04
5.22000000e-01	1.40537866e-02	1.45264320e-04
5.23000000e-01	1.41620011e-02	1.46243609e-04
5.24000000e-01	1.41829761e-02	1.46535153e-04
5.25000000e-01	1.41297563e-02	1.45243037e-04
5.26000000e-01	1.41132161e-02	1.45238758e-04
5.27000000e-01	1.41792143e-02	1.46043835e-04
5.28000000e-01	1.42136087e-02	1.46588620e-04
5.29000000e-01	1.40705360e-02	1.45611821e-04
5.30000000e-01	1.40980779e-02	1.45133763e-04
5.31000000e-01	1.42004910e-02	1.46663677e-04
5.32000000e-01	1.39987624e-02	1.44873524e-04
5.33000000e-01	1.41303528e-02	1.45690980e-04
5.34000000e-01	1.39810588e-02	1.44109866e-04
5.35000000e-01	1.40246052e-02	1.44695759e-04
5.36000000e-01	1.39439628e-02	1.43554485e-04
5.37000000e-01	1.39793313e-02	1.44167847e-04
5.38000000e-01	1.41042020e-02	1.45276626e-04
5.39000000e-01	1.41301720e-02	1.45486933e-04
5.40000000e-01	1.40585946e-02	1.45081722e-04
5.41000000e-01	1.39366981e-02	1.43796297e-04
5.42000000e-01	1.39598195e-02	1.44713353e-04
5.43000000e-01	1.39809369e-02	1.44831772e-04
5.44000000e-01	1.40648544e-02	1.44429303e-04
5.45000000e-01	1.40088340e-02	1.44752217e-04
5.46000000e-01	1.38804118e-02	1.43088138e-04
5.47000000e-01	1.39265307e-02	1.44185587e-04
5.48000000e-01	1.39455442e-02	1.44260065e-04
5.49000000e-01	1.38949995e-02	1.43137519e-04
5.50000000e-01	1.38910994e-02	1.43195846e-04
5.51000000e-01	1.39843320e-02	1.43908018e-04
5.52000000e-01	1.38857095e-02	1.42777965e-04
5.53000000e-01	1.37314704e-02	1.41499281e-04
5.54000000e-01	1.39252183e-02	1.42486967e-04
5.55000000e-01	1.37475351e-02	1.41270713e-04
5.56000000e-01	1.38117441e-02	1.41535359e-04
5.57000000e-01	1.37824862e-02	1.41337041e-04
5.58000000e-01	1.37756384e-02	1.41212833e-04
5.59000000e-01	1.37888476e-02	1.41539544e-04
5.60000000e-01	1.38361695e-02	1.41460369e-04
5.61000000e-01	1.37088340e-02	1.41274750e-04
5.62000000e-01	1.38150317e-02	1.41805840e-04
5.63000000e-01	1.37409080e-02	1.41126378e-04
5.64000000e-01	1.36880345e-02	1.40195121e-04
5.65000000e-01	1.38214183e-02	1.41808316e-04
5.66000000e-01	1.37465993e-02	1.41227229e-04
5.67000000e-01	1.37515881e-02	1.41592770e-04
5.68000000e-01	1.36740964e-02	1.40282971e-04
5.69000000e-01	1.35641614e-02	1.39245255e-04
5.70000000e-01	1.37335888e-02	1.40864710e-04
5.71000000e-01	1.37211181e-02	1.40920900e-04
5.72000000e-01	1.37171855e-02	1.40399253e-04
5.73000000e-01	1.36379303e-02	1.39968805e-04
5.74000000e-01	1.35562929e-02	1.39372464e-04
5.75000000e-01	1.35375387e-02	1.39087587e-04
5.76000000e-01	1.35462619e-02	1.39624863e-04
5.77000000e-01	1.34542680e-02	1.38163051e-04
5.78000000e-01	1.35444619e-02	1.39596539e-04
5.79000000e-01	1.34556864e-02	1.38881780e-04
5.80000000e-01	1.34978651e-02	1.39347607e-04
5.81000000e-01	1.36720964e-02	1.40638722e-04
5.82000000e-01	1.36225944e-02	1.40722088e-04
5.83000000e-01	1.35157258e-02	1.39274172e-04
5.84000000e-01	1.35054037e-02	1.39575966e-04
5.85000000e-01	1.33795180e-02	1.37963793e-04
5.86000000e-01	1.36509481e-02	1.41012579e-04
5.87000000e-01	1.35105793e-02	1.38886027e-04
5.88000000e-01	1.34070892e-02	1.38661665e-04
5.89000000e-01	1.35233079e-02	1.39382054e-04
5.90000000e-01	1.34695032e-02	1.39167506e-04
5.91000000e-01	1.35568339e-02	1.39667133e-04
5.92000000e-01	1.34928781e-02	1.39089663e-04
5.93000000e-01	1.34065948e-02	1.38513501e-04
5.94000000e-01	1.34192389e-02	1.38568009e-04
5.95000000e-01	1.34249779e-02	1.38561587e-04
5.96000000e-01	1.33713695e-02	1.38453615e-04
5.97000000e-01	1.35472396e-02	1.39882864e-04
5.98000000e-01	1.35383468e-02	1.39633414e-04
5.99000000e-01	1.33509523e-02	1.37889615e-04
6.00000000e-01	1.32923143e-02	1.37286535e-04
6.01000000e-01	1.34274322e-02	1.38796617e-04
6.02000000e-01	1.32386491e-02	1.37002222e-04
6.03000000e-01	1.33987270e-02	1.38758626e-04
6.04000000e-01	1.34074920e-02	1.38426401e-04
6.05000000e-01	1.33422275e-02	1.37793715e-04
6.06000000e-01	1.34762327e-02	1.39002664e-04
6.07000000e-01	1.33902851e-02	1.38349883e-04
6.08000000e-01	1.33797280e-02	1.38419775e-04
6.09000000e-01	1.33721529e-02	1.38191496e-04
6.10000000e-01	1.34742371e-02	1.39246701e-04
6.11000000e-01	1.31902470e-02	1.36974469e-04
6.12000000e-01	1.33243460e-02	1.37811464e-04
6.13000000e-01	1.33400811e-02	1.38570320e-04
6.14000000e-01	1.32228540e-02	1.37072643e-04
6.15000000e-01	1.32853954e-02	1.38039822e-04
6.16000000e-01	1.33263475e-02	1.37724909e-04
6.17000000e-01	1.31887408e-02	1.36899791e-04
6.18000000e-01	1.33352403e-02	1.38256990e-04
6.19000000e-01	1.32587648e-02	1.36908940e-04
6.20000000e-01	1.32922078e-02	1.37245185e-04
6.21000000e-01	1.32145368e-02	1.36592775e-04
6.22000000e-01	1.32507343e-02	1.37142554e-04
6.23000000e-01	1.32246587e-02	1.35936457e-04
6.24000000e-01	1.31331794e-02	1.35770478e-04
6.25000000e-01	1.31437971e-02	1.35433571e-04
6.26000000e-01	1.31062960e-02	1.34755209e-04
6.27000000e-01	1.30933587e-02	1.34883014e-04
6.28000000e-01	1.31491885e-02	1.35188100e-04
6.29000000e-01	1.31753733e-02	1.35523253e-04
6.30000000e-01	1.31525274e-02	1.35609436e-04
6.31000000e-01	1.31652734e-02	1.35497381e-04
6.32000000e-01	1.30909050e-02	1.35246075e-04
6.33000000e-01	1.32113687e-02	1.35760320e-04
6.34000000e-01	1.32488606e-02	1.39542458e-04
6.35000000e-01	1.31438808e-02	1.43039036e-04
6.36000000e-01	1.31010960e-02	1.44712788e-04
6.37000000e-01	1.30493015e-02	1.47134031e-04
6.38000000e-01	1.31314188e-02	1.49993927e-04
6.39000000e-01	1.30543989e-02	1.51104733e-04
6.40000000e-01	1.31811152e-02	1.54092265e-04
6.41000000e-01	1.31572554e-02	1.54821318e-04
6.42000000e-01	1.32354129e-02	1.57578535e-04
6.43000000e-01	1.31803818e-02	1.56523739e-04
6.44000000e-01	1.32557710e-02	1.52199104e-04
6.45000000e-01	1.31805658e-02	1.49056921e-04
6.46000000e-01	1.31381363e-02	1.47494322e-04
6.47000000e-01	1.31608805e-02	1.46812664e-04
6.48000000e-01	1.32271638e-02	1.46739874e-04
6.49000000e-01	1.31213893e-02	1.44405827e-04
6.50000000e-01	1.31137915e-02	1.43629911e-04
6.51000000e-01	1.31350159e-02	1.43065945e-04
6.52000000e-01	1.31796319e-02	1.43204941e-04
6.53000000e-01	1.31707337e-02	1.42440507e-04
6.54000000e-01	1.30987880e-02	1.41539005e-04
6.55000000e-01	1.30735007e-02	1.41450319e-04
6.56000000e-01	1.32286467e-02	1.42144200e-04
6.57000000e-01	1.31526602e-02	1.41689681e-04
6.58000000e-01	1.30394509e-02	1.40085404e-04
6.59000000e-01	1.30317701e-02	1.39998950e-04
6.60000000e-01	1.29793732e-02	1.39248580e-04
6.61000000e-01	1.29711611e-02	1.39138516e-04
6.62000000e-01	1.30248994e-02	1.39525900e-04
6.63000000e-01	1.31489159e-02	1.40777800e-04
6.64000000e-01	1.30711163e-02	1.39858041e-04
6.65000000e-01	1.28396510e-02	1.37564804e-04
6.66000000e-01	1.29247631e-02	1.38133354e-04
6.67000000e-01	1.30490935e-02	1.39474501e-04
6.68000000e-01	1.30351860e-02	1.39486765e-04
6.69000000e-01	1.29891043e-02	1.38685633e-04
6.70000000e-01	1.29133656e-02	1.38362115e-04
6.71000000e-01	1.29867821e-02	1.38599342e-04
6.72000000e-01	1.29927289e-02	1.39158738e-04
6.73000000e-01	1.28351139e-02	1.36826118e-04
6.74000000e-01	1.29338258e-02	1.38794962e-04
6.75000000e-01	1.28603893e-02	1.37304731e-04
6.76000000e-01	1.27739808e-02	1.36506668e-04
6.77000000e-01	1.29102525e-02	1.37714187e-04
6.78000000e-01	1.29287855e-02	1.37409984e-04
6.79000000e-01	1.29421586e-02	1.37896530e-04
6.80000000e-01	1.28351847e-02	1.36328777e-04
6.81000000e-01	1.27619610e-02	1.36187665e-04
6.82000000e-01	1.30068264e-02	1.37985558e-04
6.83000000e-01	1.28385826e-02	1.36977587e-04
6.84000000e-01	1.28258153e-02	1.36838642e-04
6.85000000e-01	1.27930156e-02	1.36140242e-04
6.86000000e-01	1.28809837e-02	1.37204923e-04
6.87000000e-01	1.28901553e-02	1.37253162e-04
6.88000000e-01	1.28815970e-02	1.37145762e-04
6.89000000e-01	1.28969053e-02	1.36911510e-04
6.90000000e-01	1.27638744e-02	1.35961576e-04
6.91000000e-01	1.27544203e-02	1.36011474e-04
6.92000000e-01	1.27344688e-02	1.35563516e-04
6.93000000e-01	1.28054385e-02	1.36035187e-04
6.94000000e-01	1.27936329e-02	1.35762775e-04
6.95000000e-01	1.27919469e-02	1.35767733e-04
6.96000000e-01	1.27082425e-02	1.35016397e-04
6.97000000e-01	1.27174084e-02	1.35237240e-04
6.98000000e-01	1.26355732e-02	1.34874896e-04
6.99000000e-01	1.27389271e-02	1.35756067e-04
7.00000000e-01	1.26717296e-02	1.34714184e-04
7.01000000e-01	1.27533679e-02	1.35609289e-04
7.02000000e-01	1.27645364e-02	1.35392089e-04
7.03000000e-01	1.27812554e-02	1.35985284e-04
7.04000000e-01	1.26337653e-02	1.33758671e-04
7.05000000e-01	1.25494522e-02	1.33313876e-04
7.06000000e-01	1.25948675e-02	1.34158339e-04
7.07000000e-01	1.27706129e-02	1.35591411e-04
7.08000000e-01	1.26365303e-02	1.34216578e-04
7.09000000e-01	1.25925240e-02	1.33672764e-04
7.10000000e-01	1.25186681e-02	1.32929532e-04
7.11000000e-01	1.25861456e-02	1.33566773e-04
7.12000000e-01	1.24801143e-02	1.32245946e-04
7.13000000e-01	1.25859579e-02	1.34395763e-04
7.14000000e-01	1.25318358e-02	1.33298467e-04
7.15000000e-01	1.25912508e-02	1.33912911e-04
7.16000000e-01	1.23630826e-02	1.31674337e-04
7.17000000e-01	1.24569352e-02	1.32724566e-04
7.18000000e-01	1.24634991e-02	1.32271714e-04
7.19000000e-01	1.24916920e-02	1.32890494e-04
7.20000000e-01	1.24219277e-02	1.32425379e-04
7.21000000e-01	1.24532703e-02	1.32448675e-04
7.22000000e-01	1.22617401e-02	1.31314319e-04
7.23000000e-01	1.24245107e-02	1.32005749e-04
7.24000000e-01	1.23540203e-02	1.31102466e-04
7.25000000e-01	1.24257267e-02	1.32249510e-04
7.26000000e-01	1.24903345e-02	1.32645999e-04
7.27000000e-01	1.24106370e-02	1.32297958e-04
7.28000000e-01	1.23905606e-02	1.31690250e-04
7.29000000e-01	1.23184380e-02	1.31080272e-04
7.30000000e-01	1.23977649e-02	1.31962927e-04
7.31000000e-01	1.24037651e-02	1.31964931e-04
7.32000000e-01	1.23179063e-02	1.31243689e-04
7.33000000e-01	1.23794337e-02	1.31604211e-04
7.34000000e-01	1.23653041e-02	1.31794688e-04
7.35000000e-01	1.23010714e-02	1.30970391e-04
7.36000000e-01	1.21912339e-02	1.29234818e-04
7.37000000e-01	1.22106100e-02	1.29432511e-04
7.38000000e-01	1.22421957e-02	1.29663019e-04
7.39000000e-01	1.21754719e-02	1.29273828e-04
7.40000000e-01	1.22912128e-02	1.29753249e-04
7.41000000e-01	1.22497072e-02	1.29356301e-04
7.42000000e-01	1.22096928e-02	1.28911253e-04
7.43000000e-01	1.21079751e-02	1.27237682e-04
7.44000000e-01	1.22392978e-02	1.28971574e-04
7.45000000e-01	1.22586737e-02	1.29411667e-04
7.46000000e-01	1.24391118e-02	1.30807194e-04
7.47000000e-01	1.21992438e-02	1.28563761e-04
7.48000000e-01	1.22207768e-02	1.28680411e-04
7.49000000e-01	1.21563601e-02	1.28605680e-04
7.50000000e-01	1.22070908e-02	1.28595786e-04
7.51000000e-01	1.21465593e-02	1.27647549e-04
7.52000000e-01	1.21636842e-02	1.28076439e-04
7.53000000e-01	1.21446598e-02	1.28722133e-04
7.54000000e-01	1.22157720e-02	1.28811767e-04
7.55000000e-01	1.21771068e-02	1.28346617e-04
7.56000000e-01	1.21630857e-02	1.28145018e-04
7.57000000e-01	1.22322280e-02	1.29233283e-04
7.58000000e-01	1.20231981e-02	1.27206060e-04
7.59000000e-01	1.21457147e-02	1.28239058e-04
7.60000000e-01	1.19818417e-02	1.25846626e-04
7.61000000e-01	1.21672222e-02	1.27556072e-04
7.62000000e-01	1.20402008e-02	1.26540523e-04
7.63000000e-01	1.20743997e-02	1.26663772e-04
7.64000000e-01	1.20404242e-02	1.25975513e-04
7.65000000e-01	1.20016049e-02	1.25049803e-04
7.66000000e-01	1.19701695e-02	1.25567131e-04
7.67000000e-01	1.19854745e-02	1.25691550e-04
7.68000000e-01	1.18232121e-02	1.23448742e-04
7.69000000e-01	1.20710283e-02	1.26255046e-04
7.70000000e-01	1.18577091e-02	1.23854970e-04
7.71000000e-01	1.20304126e-02	1.25767383e-04
7.72000000e-01	1.19730657e-02	1.29543267e-04
7.73000000e-01	1.18984855e-02	1.32126149e-04
7.74000000e-01	1.18857915e-02	1.35711484e-04
7.75000000e-01	1.20103474e-02	1.38447776e-04
7.76000000e-01	1.19937409e-02	1.40666006e-04
7.77000000e-01	1.18627666e-02	1.41291459e-04
7.78000000e-01	1.20088353e-02	1.44724283e-04
7.79000000e-01	1.19463674e-02	1.45165201e-04
7.80000000e-01	1.18487870e-02	1.46307093e-04
7.81000000e-01	1.18415373e-02	1.48161667e-04
7.82000000e-01	1.18812543e-02	1.49881517e-04
7.83000000e-01	1.17996913e-02	1.50972635e-04
7.84000000e-01	1.17952593e-02	1.52150435e-04
7.85000000e-01	1.18651560e-02	1.54872381e-04
7.86000000e-01	1.17597906e-02	1.55488113e-04
7.87000000e-01	1.17783690e-02	1.56496332e-04
7.88000000e-01	1.16571638e-02	1.56705699e-04
7.89000000e-01	1.16874185e-02	1.58238051e-04
7.90000000e-01	1.18505683e-02	1.62980570e-04
7.91000000e-01	1.17424047e-02	1.62600723e-04
7.92000000e-01	1.18749527e-02	1.65641764e-04
7.93000000e-01	1.18408409e-02	1.67087657e-04
7.94000000e-01	1.15724764e-02	1.66412030e-04
7.95000000e-01	1.17689438e-02	1.69944324e-04
7.96000000e-01	1.17007502e-02	1.71195863e-04
7.97000000e-01	1.18360180e-02	1.73917440e-04
7.98000000e-01	1.16493869e-02	1.73369561e-04
7.99000000e-01	1.15198595e-02	1.73700209e-04
8.00000000e-01	1.14872489e-02	1.75828618e-04
8.01000000e-01	1.14938251e-02	1.75700220e-04
8.02000000e-01	1.14563134e-02	1.78499956e-04
8.03000000e-01	1.16493862e-02	1.82448851e-04
8.04000000e-01	1.16053742e-02	1.83381729e-04
8.05000000e-01	1.14318004e-02	1.83244951e-04
8.06000000e-01	1.16885307e-02	1.88943130e-04
8.07000000e-01	1.15810848e-02	1.90413943e-04
8.08000000e-01	1.14880520e-02	1.90470822e-04
8.09000000e-01	1.15042041e-02	1.92142348e-04
8.10000000e-01	1.17283593e-02	1.99396510e-04
8.11000000e-01	1.15803424e-02	1.97967301e-04
8.12000000e-01	1.14741744e-02	1.98929847e-04
8.13000000e-01	1.14434352e-02	2.00533613e-04
8.14000000e-01	1.15541425e-02	2.04932335e-04
8.15000000e-01	1.13733067e-02	2.03989795e-04
8.16000000e-01	1.15389815e-02	2.08337520e-04
8.17000000e-01	1.14050292e-02	2.10158463e-04
8.18000000e-01	1.11407067e-02	2.08748204e-04
8.19000000e-01	1.14267145e-02	2.14130750e-04
8.20000000e-01	1.13226885e-02	2.14952849e-04
8.21000000e-01	1.11635841e-02	2.17198919e-04
8.22000000e-01	1.14168623e-02	2.22884642e-04
8.23000000e-01	1.13147942e-02	2.25423911e-04
8.24000000e-01	1.10944158e-02	2.24305738e-04
8.25000000e-01	1.13951856e-02	2.32133303e-04
8.26000000e-01	1.11422549e-02	2.30448997e-04
8.27000000e-01	1.14007524e-02	2.39817805e-04
8.28000000e-01	1.10832575e-02	2.37881193e-04
8.29000000e-01	1.14200746e-02	2.47383474e-04
8.30000000e-01	1.11989754e-02	2.47760884e-04
8.31000000e-01	1.12782747e-02	2.51156318e-04
8.32000000e-01	1.09631759e-02	2.49948217e-04
8.33000000e-01	1.09057555e-02	2.54244345e-04
8.34000000e-01	1.14807810e-02	2.68924950e-04
8.35000000e-01	1.09791874e-02	2.62921607e-04
8.36000000e-01	1.12423901e-02	2.73040038e-04
8.37000000e-01	1.09237805e-02	2.75293820e-04
8.38000000e-01	1.09367329e-02	2.78642535e-04
8.39000000e-01	1.08962726e-02	2.83109304e-04
8.40000000e-01	1.08905325e-02	2.88951877e-04
8.41000000e-01	1.12582860e-02	3.04213730e-04
8.42000000e-01	1.11325883e-02	3.10735111e-04
8.43000000e-01	1.10302344e-02	3.16397718e-04
8.44000000e-01	1.10549708e-02	3.21044099e-04
8.45000000e-01	1.12551915e-02	3.33238348e-04
8.46000000e-01	1.11239600e-02	3.39461837e-04
8.47000000e-01	1.10529137e-02	3.49276188e-04
8.48000000e-01	1.11054004e-02	3.62084052e-04
8.49000000e-01	1.08297659e-02	3.66167220e-04
8.50000000e-01	1.08937838e-02	3.82738637e-04
8.51000000e-01	1.08143431e-02	3.88871966e-04
8.52000000e-01	1.07464212e-02	4.04797190e-04
8.53000000e-01	1.09692035e-02	4.26765541e-04
8.54000000e-01	1.13072011e-02	4.59561791e-04
8.55000000e-01	1.10980591e-02	4.65229340e-04
8.56000000e-01	1.09950067e-02	4.79336585e-04
8.57000000e-01	1.04242096e-02	4.62914248e-04
8.58000000e-01	1.04837878e-02	4.78766670e-04
8.59000000e-01	1.10360460e-02	5.23492139e-04
8.60000000e-01	1.05089483e-02	5.15840778e-04
8.61000000e-01	1.04961164e-02	5.34406002e-04
8.62000000e-01	1.10053490e-02	5.75454068e-04
8.63000000e-01	1.06646491e-02	5.77617194e-04
8.64000000e-01	1.07434728e-02	6.14264725e-04
8.65000000e-01	1.08706611e-02	6.58548565e-04
8.66000000e-01	1.08351228e-02	6.90825073e-04
8.67000000e-01	1.05752270e-02	7.13150960e-04
8.68000000e-01	1.10159809e-02	7.81709503e-04
8.69000000e-01	9.64019640e-03	7.38755055e-04
8.70000000e-01	1.08164924e-02	9.09173039e-04
8.71000000e-01	9.26029943e-03	8.70121823e-04
8.72000000e-01	1.08028534e-02	1.10231234e-03
8.73000000e-01	9.38598713e-03	1.17873149e-03
8.74000000e-01	1.12290540e-02	1.76786495e-03
8.75000000e-01	1.23147737e-02	4.09514943e-03
