% Filename : SSW19_00030_00003.h5
% Date & Time : 30-Oct-2025 17:19:01
% X-ray Energy (keV) : 13.30001
% Exposure Time (s) : 0.500
% Beam Center : 1461.24000, 208.98300
% Sample to Detector Distance (SDD) (mm) : 1990.750
% Detector Pixel Size (mm) : 0.075
% Photodiode Value : 140734.000
% I0 of Sample : 0
% I0 of Standard : 1
% 
% q(A^-1)   I(q)    I(q)_SE
0.00000000e+00	1.02699833e-02	5.44647709e-03
2.50000000e-04	0.00000000e+00	0.00000000e+00
5.00000000e-04	0.00000000e+00	0.00000000e+00
7.50000000e-04	0.00000000e+00	0.00000000e+00
1.00000000e-03	0.00000000e+00	0.00000000e+00
1.25000000e-03	0.00000000e+00	0.00000000e+00
1.50000000e-03	0.00000000e+00	0.00000000e+00
1.75000000e-03	0.00000000e+00	0.00000000e+00
2.00000000e-03	0.00000000e+00	0.00000000e+00
2.25000000e-03	0.00000000e+00	0.00000000e+00
2.50000000e-03	0.00000000e+00	0.00000000e+00
2.75000000e-03	0.00000000e+00	0.00000000e+00
3.00000000e-03	0.00000000e+00	0.00000000e+00
3.25000000e-03	9.52855196e-01	5.51508011e-01
3.50000000e-03	1.15257405e+00	2.50501755e-01
3.75000000e-03	9.44511540e-01	1.60205269e-01
4.00000000e-03	8.30146709e-01	1.27838085e-01
4.25000000e-03	6.89496550e-01	8.69265614e-02
4.50000000e-03	7.60165276e-01	9.97583000e-02
4.75000000e-03	7.13139791e-01	8.59339212e-02
5.00000000e-03	5.75263262e-01	6.41106261e-02
5.25000000e-03	4.94188113e-01	5.39944346e-02
5.50000000e-03	4.19899018e-01	4.50030251e-02
5.75000000e-03	3.63921936e-01	3.83827830e-02
6.00000000e-03	3.25181995e-01	3.28555371e-02
6.25000000e-03	2.78803900e-01	2.82162736e-02
6.50000000e-03	2.46601553e-01	2.43632148e-02
6.75000000e-03	2.12884827e-01	2.08839025e-02
7.00000000e-03	2.02688137e-01	1.92093844e-02
7.25000000e-03	1.72437544e-01	1.57108986e-02
7.50000000e-03	1.62579575e-01	1.50242549e-02
7.75000000e-03	1.40116173e-01	1.23173795e-02
8.00000000e-03	1.28954176e-01	1.13194098e-02
8.25000000e-03	1.18838292e-01	1.02856930e-02
8.50000000e-03	1.10915774e-01	9.15589268e-03
8.75000000e-03	9.75321213e-02	8.06442005e-03
9.00000000e-03	8.72840730e-02	6.93971641e-03
9.25000000e-03	8.19118958e-02	6.39693788e-03
9.50000000e-03	7.55761169e-02	5.70874164e-03
9.75000000e-03	6.92001433e-02	5.17586333e-03
1.00000000e-02	6.64266631e-02	4.81949397e-03
1.02500000e-02	6.20331233e-02	4.56239856e-03
1.05000000e-02	5.74792907e-02	4.01298288e-03
1.07500000e-02	5.38993831e-02	3.77448887e-03
1.10000000e-02	5.05927009e-02	3.42398328e-03
1.12500000e-02	4.82440334e-02	3.31057937e-03
1.15000000e-02	4.64534768e-02	3.12894158e-03
1.17500000e-02	4.40588301e-02	2.88627271e-03
1.20000000e-02	4.29504403e-02	2.82581229e-03
1.22500000e-02	4.12395713e-02	2.63213653e-03
1.25000000e-02	3.82571220e-02	2.43290066e-03
1.27500000e-02	3.86691157e-02	2.46613272e-03
1.30000000e-02	3.77914426e-02	2.39071978e-03
1.32500000e-02	3.45126891e-02	2.14003779e-03
1.35000000e-02	3.47047745e-02	2.11703276e-03
1.37500000e-02	3.44966073e-02	2.11317108e-03
1.40000000e-02	3.20714491e-02	1.96873593e-03
1.42500000e-02	3.03401510e-02	1.81937019e-03
1.45000000e-02	3.05922517e-02	1.81538479e-03
1.47500000e-02	2.95177315e-02	1.74846534e-03
1.50000000e-02	2.89105338e-02	1.70916790e-03
1.52500000e-02	2.90221263e-02	1.69152499e-03
1.55000000e-02	2.88695613e-02	1.63811724e-03
1.57500000e-02	2.63590512e-02	1.50988894e-03
1.60000000e-02	2.66734861e-02	1.51015461e-03
1.62500000e-02	2.69464041e-02	1.52953379e-03
1.65000000e-02	2.63124200e-02	1.47647241e-03
1.67500000e-02	2.55409908e-02	1.40223537e-03
1.70000000e-02	2.53990023e-02	1.40185527e-03
1.72500000e-02	2.57215493e-02	1.40449047e-03
1.75000000e-02	2.45945079e-02	1.35259869e-03
1.77500000e-02	2.39894935e-02	1.28698864e-03
1.80000000e-02	2.35320105e-02	1.28043561e-03
1.82500000e-02	2.39367171e-02	1.25706623e-03
1.85000000e-02	2.46945335e-02	1.32673163e-03
1.87500000e-02	2.42392220e-02	1.26529980e-03
1.90000000e-02	2.43260779e-02	1.26801733e-03
1.92500000e-02	2.38957279e-02	1.23528143e-03
1.95000000e-02	2.43866103e-02	1.24931896e-03
1.97500000e-02	2.28765025e-02	1.19539714e-03
2.00000000e-02	2.31259163e-02	1.18673243e-03
2.02500000e-02	2.35264563e-02	1.19696556e-03
2.05000000e-02	2.27689939e-02	1.13506396e-03
2.07500000e-02	2.34549383e-02	1.16094810e-03
2.10000000e-02	2.24764869e-02	1.13046479e-03
2.12500000e-02	2.27322337e-02	1.15105307e-03
2.15000000e-02	2.32223298e-02	1.15066198e-03
2.17500000e-02	2.36833464e-02	1.19047453e-03
2.20000000e-02	2.35212668e-02	1.18278709e-03
2.22500000e-02	2.19965380e-02	1.11550567e-03
2.25000000e-02	2.17153388e-02	1.10762605e-03
2.27500000e-02	2.23018527e-02	1.12517860e-03
2.30000000e-02	2.26024184e-02	1.14721636e-03
2.32500000e-02	2.20733727e-02	1.11366217e-03
2.35000000e-02	2.25391091e-02	1.14232081e-03
2.37500000e-02	2.22051855e-02	1.12124702e-03
2.40000000e-02	2.28966331e-02	1.15573101e-03
2.42500000e-02	2.28550294e-02	1.13718814e-03
2.45000000e-02	2.20904831e-02	1.11585079e-03
2.47500000e-02	2.19320684e-02	1.09356535e-03
2.50000000e-02	2.23289171e-02	1.11996550e-03
2.52500000e-02	2.18676446e-02	1.10390808e-03
2.55000000e-02	2.21055734e-02	1.08988563e-03
2.57500000e-02	2.17982820e-02	1.08360057e-03
2.60000000e-02	2.12571395e-02	1.05946311e-03
2.62500000e-02	2.15988524e-02	1.08165748e-03
2.65000000e-02	2.14160898e-02	1.05629281e-03
2.67500000e-02	2.16942304e-02	1.05953410e-03
2.70000000e-02	2.14885447e-02	1.05346844e-03
2.72500000e-02	2.20299442e-02	1.06328975e-03
2.75000000e-02	2.15635713e-02	1.07039104e-03
2.77500000e-02	2.11546605e-02	1.05398690e-03
2.80000000e-02	2.25572279e-02	1.08728309e-03
2.82500000e-02	2.22855184e-02	1.07367360e-03
2.85000000e-02	2.17422534e-02	1.06076583e-03
2.87500000e-02	2.24754471e-02	1.09200729e-03
2.90000000e-02	2.26013436e-02	1.10892199e-03
2.92500000e-02	2.25241685e-02	1.05718612e-03
2.95000000e-02	2.22378919e-02	1.07202335e-03
2.97500000e-02	2.19460697e-02	1.05171061e-03
3.00000000e-02	2.24248549e-02	1.09239470e-03
3.02500000e-02	2.26981615e-02	1.09857431e-03
3.05000000e-02	2.29736969e-02	1.07083470e-03
3.07500000e-02	2.30773786e-02	1.09832818e-03
3.10000000e-02	2.19179339e-02	1.03635669e-03
3.12500000e-02	2.26925790e-02	1.09012936e-03
3.15000000e-02	2.19771218e-02	1.03749981e-03
3.17500000e-02	2.24276575e-02	1.04325696e-03
3.20000000e-02	2.24066355e-02	1.05806147e-03
3.22500000e-02	2.19650800e-02	1.03327826e-03
3.25000000e-02	2.26782552e-02	1.06869899e-03
3.27500000e-02	2.14497671e-02	9.96771468e-04
3.30000000e-02	2.16595491e-02	1.01280082e-03
3.32500000e-02	2.26245231e-02	1.05119406e-03
3.35000000e-02	2.17302184e-02	1.02152852e-03
3.37500000e-02	2.21551951e-02	1.02263547e-03
3.40000000e-02	2.15320182e-02	9.95972817e-04
3.42500000e-02	2.13965561e-02	9.79594125e-04
3.45000000e-02	2.21478643e-02	1.02811385e-03
3.47500000e-02	2.11211956e-02	9.77714098e-04
3.50000000e-02	2.18308253e-02	9.97889089e-04
3.52500000e-02	2.16490431e-02	9.96765652e-04
3.55000000e-02	2.14963455e-02	9.70010593e-04
3.57500000e-02	2.19318260e-02	9.98914315e-04
3.60000000e-02	2.16974464e-02	9.88894964e-04
3.62500000e-02	2.17115158e-02	9.90469539e-04
3.65000000e-02	2.17057608e-02	9.90452991e-04
3.67500000e-02	2.15138277e-02	9.64919965e-04
3.70000000e-02	2.12631535e-02	9.61622435e-04
3.72500000e-02	2.16077373e-02	9.68629520e-04
3.75000000e-02	2.11831345e-02	9.57659323e-04
3.77500000e-02	2.09317696e-02	9.42730323e-04
3.80000000e-02	2.13438432e-02	9.56598022e-04
3.82500000e-02	2.18371305e-02	9.53928625e-04
3.85000000e-02	2.08738234e-02	9.26373028e-04
3.87500000e-02	2.03880678e-02	8.95661913e-04
3.90000000e-02	2.12755971e-02	9.48140626e-04
3.92500000e-02	2.11049087e-02	9.23483642e-04
3.95000000e-02	2.14463416e-02	9.51258132e-04
3.97500000e-02	2.03629160e-02	9.02103399e-04
4.00000000e-02	2.13009773e-02	9.44158654e-04
4.02500000e-02	2.08177686e-02	9.08124521e-04
4.05000000e-02	2.07205559e-02	8.93907940e-04
4.07500000e-02	2.15967403e-02	9.24965852e-04
4.10000000e-02	2.11335149e-02	9.21834943e-04
4.12500000e-02	2.17837048e-02	9.49015532e-04
4.15000000e-02	2.14180583e-02	9.18198172e-04
4.17500000e-02	2.09582697e-02	9.05578889e-04
4.20000000e-02	2.06556566e-02	8.88085608e-04
4.22500000e-02	1.99743845e-02	8.54551506e-04
4.25000000e-02	2.17940532e-02	9.20605374e-04
4.27500000e-02	2.16191703e-02	9.18854292e-04
4.30000000e-02	2.09864533e-02	8.94438458e-04
4.32500000e-02	2.10362374e-02	8.95066341e-04
4.35000000e-02	2.11781724e-02	9.04328061e-04
4.37500000e-02	2.08404267e-02	8.78962389e-04
4.40000000e-02	2.07601588e-02	8.81036435e-04
4.42500000e-02	2.08907080e-02	8.91804321e-04
4.45000000e-02	2.11396387e-02	8.81882138e-04
4.47500000e-02	2.10743467e-02	8.81005494e-04
4.50000000e-02	2.13029151e-02	8.95185452e-04
4.52500000e-02	2.08349713e-02	8.68495079e-04
4.55000000e-02	2.10332501e-02	8.79213784e-04
4.57500000e-02	2.13438776e-02	8.91109036e-04
4.60000000e-02	2.05981530e-02	8.54466257e-04
4.62500000e-02	2.02422463e-02	8.41174236e-04
4.65000000e-02	2.02736396e-02	8.43980871e-04
4.67500000e-02	2.08337136e-02	8.59484247e-04
4.70000000e-02	2.04136450e-02	8.35787722e-04
4.72500000e-02	2.01969717e-02	8.30510637e-04
4.75000000e-02	2.14500469e-02	8.84919362e-04
4.77500000e-02	2.12614442e-02	8.73214665e-04
4.80000000e-02	2.10224712e-02	8.53068030e-04
4.82500000e-02	2.01998420e-02	8.21158068e-04
4.85000000e-02	2.08088120e-02	8.46438414e-04
4.87500000e-02	2.09332028e-02	8.52754904e-04
4.90000000e-02	2.07661008e-02	8.39627407e-04
4.92500000e-02	2.07072161e-02	8.35665213e-04
4.95000000e-02	2.05508470e-02	8.33159384e-04
4.97500000e-02	2.08004226e-02	8.41306390e-04
5.00000000e-02	2.07848116e-02	8.38202810e-04
5.02500000e-02	2.06284636e-02	8.24043569e-04
5.05000000e-02	1.98533493e-02	7.95698263e-04
5.07500000e-02	2.02527812e-02	8.15140170e-04
5.10000000e-02	2.03412122e-02	8.09610316e-04
5.12500000e-02	2.09352547e-02	8.36948916e-04
5.15000000e-02	2.01522049e-02	7.99145758e-04
5.17500000e-02	1.96057971e-02	7.88856424e-04
5.20000000e-02	1.90279332e-02	7.58501088e-04
5.22500000e-02	2.05357153e-02	8.22364841e-04
5.25000000e-02	1.97842325e-02	7.79871857e-04
5.27500000e-02	2.04780318e-02	8.00901654e-04
5.30000000e-02	2.05099311e-02	8.14203980e-04
5.32500000e-02	2.09242164e-02	8.19888823e-04
5.35000000e-02	2.07952203e-02	8.16848414e-04
5.37500000e-02	2.05397640e-02	8.01692995e-04
5.40000000e-02	2.07421449e-02	8.11309330e-04
5.42500000e-02	2.05112432e-02	7.94216706e-04
5.45000000e-02	2.07630397e-02	8.10615652e-04
5.47500000e-02	2.05926176e-02	7.94566172e-04
5.50000000e-02	2.03051230e-02	7.87523396e-04
5.52500000e-02	2.00090434e-02	7.83430085e-04
5.55000000e-02	2.07872257e-02	8.00450043e-04
5.57500000e-02	2.05144620e-02	7.93542939e-04
5.60000000e-02	2.01451280e-02	7.79533203e-04
5.62500000e-02	2.02717317e-02	7.84566924e-04
5.65000000e-02	2.01151249e-02	7.73073551e-04
5.67500000e-02	2.05952444e-02	7.93123590e-04
5.70000000e-02	2.03997160e-02	7.75550823e-04
5.72500000e-02	2.00329795e-02	7.63142698e-04
5.75000000e-02	2.00798594e-02	7.66495995e-04
5.77500000e-02	2.07057730e-02	7.79992612e-04
5.80000000e-02	2.04907872e-02	7.79538701e-04
5.82500000e-02	2.07031895e-02	7.79006444e-04
5.85000000e-02	2.07630211e-02	7.84854316e-04
5.87500000e-02	2.11114943e-02	7.89055582e-04
5.90000000e-02	2.05626997e-02	7.68690924e-04
5.92500000e-02	2.03772611e-02	7.58279099e-04
5.95000000e-02	2.01001991e-02	7.45908518e-04
5.97500000e-02	2.04762978e-02	7.66252965e-04
6.00000000e-02	2.01450928e-02	7.57286443e-04
6.02500000e-02	2.02227323e-02	7.51343634e-04
6.05000000e-02	2.05441907e-02	7.64182049e-04
6.07500000e-02	2.02504330e-02	7.49907601e-04
6.10000000e-02	2.03261825e-02	7.57196753e-04
6.12500000e-02	1.99944387e-02	7.42429836e-04
6.15000000e-02	2.06307085e-02	7.57662106e-04
6.17500000e-02	2.04151559e-02	7.56153935e-04
6.20000000e-02	2.03005152e-02	7.52419697e-04
6.22500000e-02	1.99458986e-02	7.37883534e-04
6.25000000e-02	2.08475534e-02	7.68501871e-04
6.27500000e-02	2.03859735e-02	7.46042331e-04
6.30000000e-02	2.02690852e-02	7.43655346e-04
6.32500000e-02	2.05964602e-02	7.52414713e-04
6.35000000e-02	1.98991173e-02	7.34121124e-04
6.37500000e-02	2.00759558e-02	7.38567127e-04
6.40000000e-02	2.01448620e-02	7.39330375e-04
6.42500000e-02	1.96300759e-02	7.05278284e-04
6.45000000e-02	1.96655850e-02	7.06698310e-04
6.47500000e-02	2.02284430e-02	7.38666002e-04
6.50000000e-02	2.02539182e-02	7.27642141e-04
6.52500000e-02	2.04489308e-02	7.37662586e-04
6.55000000e-02	1.96690540e-02	7.09760508e-04
6.57500000e-02	2.00485835e-02	7.20144774e-04
6.60000000e-02	1.98007311e-02	7.11694624e-04
6.62500000e-02	1.98149209e-02	7.17724270e-04
6.65000000e-02	2.01605974e-02	7.20687677e-04
6.67500000e-02	2.02571275e-02	7.23663464e-04
6.70000000e-02	1.98581234e-02	7.09820577e-04
6.72500000e-02	2.07132898e-02	7.42450579e-04
6.75000000e-02	1.98013084e-02	7.00209690e-04
6.77500000e-02	2.01435135e-02	7.13893593e-04
6.80000000e-02	2.02867492e-02	7.20591864e-04
6.82500000e-02	2.00582439e-02	7.13469233e-04
6.85000000e-02	1.98961761e-02	7.05160644e-04
6.87500000e-02	1.98685094e-02	7.03301444e-04
6.90000000e-02	2.03106936e-02	7.15609974e-04
6.92500000e-02	2.05679705e-02	7.20677931e-04
6.95000000e-02	2.04279281e-02	7.24313297e-04
6.97500000e-02	2.00529991e-02	7.06804644e-04
7.00000000e-02	1.97731988e-02	6.96757320e-04
7.02500000e-02	2.00819157e-02	7.01812457e-04
7.05000000e-02	2.02710826e-02	7.01459286e-04
7.07500000e-02	2.00874774e-02	7.07513579e-04
7.10000000e-02	1.95295330e-02	6.83503903e-04
7.12500000e-02	1.99313850e-02	6.96233702e-04
7.15000000e-02	2.02587828e-02	6.98062766e-04
7.17500000e-02	1.95416409e-02	6.84675116e-04
7.20000000e-02	1.96752405e-02	6.87832592e-04
7.22500000e-02	1.99948498e-02	6.89151540e-04
7.25000000e-02	1.99283039e-02	6.88227744e-04
7.27500000e-02	2.00093408e-02	6.93390875e-04
7.30000000e-02	2.01952394e-02	6.94014446e-04
7.32500000e-02	1.94178928e-02	6.66064160e-04
7.35000000e-02	1.96302477e-02	6.76605702e-04
7.37500000e-02	2.00238876e-02	6.82816713e-04
7.40000000e-02	2.00755628e-02	6.86874959e-04
7.42500000e-02	2.01790656e-02	6.88002848e-04
7.45000000e-02	2.03132973e-02	6.92201771e-04
7.47500000e-02	1.93842244e-02	6.62077486e-04
7.50000000e-02	1.98619388e-02	6.73471707e-04
7.52500000e-02	1.98063796e-02	6.71813895e-04
7.55000000e-02	2.00746350e-02	6.88216340e-04
7.57500000e-02	2.01576266e-02	6.86144336e-04
7.60000000e-02	1.97667052e-02	6.73113126e-04
7.62500000e-02	2.02814723e-02	6.83854096e-04
7.65000000e-02	2.04865376e-02	6.93891061e-04
7.67500000e-02	1.94143434e-02	6.53701664e-04
7.70000000e-02	1.91266887e-02	6.44111788e-04
7.72500000e-02	2.01886217e-02	6.96930931e-04
7.75000000e-02	1.98519909e-02	6.84326389e-04
7.77500000e-02	1.99999401e-02	6.96357306e-04
7.80000000e-02	2.03647565e-02	7.05454682e-04
7.82500000e-02	1.96487843e-02	6.87782973e-04
7.85000000e-02	2.00942049e-02	7.14156655e-04
7.87500000e-02	2.01580990e-02	7.10190132e-04
7.90000000e-02	1.99433738e-02	7.05906109e-04
7.92500000e-02	1.98217513e-02	7.03333505e-04
7.95000000e-02	2.05278431e-02	7.27702859e-04
7.97500000e-02	2.00703885e-02	7.21288785e-04
8.00000000e-02	1.97683522e-02	7.05959613e-04
8.02500000e-02	1.94200929e-02	6.93078137e-04
8.05000000e-02	1.99162705e-02	7.12476352e-04
8.07500000e-02	1.97192805e-02	7.13478977e-04
8.10000000e-02	2.00240823e-02	7.19960171e-04
8.12500000e-02	2.02655309e-02	7.37093617e-04
8.15000000e-02	2.00189418e-02	7.22746988e-04
8.17500000e-02	2.02256525e-02	7.38264104e-04
8.20000000e-02	1.96165487e-02	7.19639795e-04
8.22500000e-02	1.98912369e-02	7.23126510e-04
8.25000000e-02	2.01147940e-02	7.36177548e-04
8.27500000e-02	1.97963513e-02	7.18101067e-04
8.30000000e-02	1.97608897e-02	7.24939956e-04
8.32500000e-02	1.91563601e-02	7.09651239e-04
8.35000000e-02	1.99091846e-02	7.34302961e-04
8.37500000e-02	1.93764695e-02	7.05681016e-04
8.40000000e-02	1.99649554e-02	7.31308583e-04
8.42500000e-02	1.98010651e-02	7.32300176e-04
8.45000000e-02	1.95704963e-02	7.29051083e-04
8.47500000e-02	1.95361071e-02	7.22967899e-04
8.50000000e-02	1.98456910e-02	7.39921158e-04
8.52500000e-02	1.92292478e-02	7.13989595e-04
8.55000000e-02	1.93051134e-02	7.17444275e-04
8.57500000e-02	1.98864476e-02	7.37832875e-04
8.60000000e-02	2.00188073e-02	7.45674538e-04
8.62500000e-02	1.97669151e-02	7.28514259e-04
8.65000000e-02	1.94485462e-02	7.26171785e-04
8.67500000e-02	2.02957836e-02	7.42860336e-04
8.70000000e-02	1.98653605e-02	7.23412541e-04
8.72500000e-02	1.96459938e-02	7.00749328e-04
8.75000000e-02	1.98092615e-02	7.00554009e-04
8.77500000e-02	1.96437260e-02	6.91759712e-04
8.80000000e-02	1.97568636e-02	6.96358105e-04
8.82500000e-02	2.00889749e-02	7.03215215e-04
8.85000000e-02	1.96721183e-02	6.92687363e-04
8.87500000e-02	2.02474878e-02	6.89556635e-04
8.90000000e-02	1.99484329e-02	6.90562837e-04
8.92500000e-02	1.96830852e-02	6.74127042e-04
8.95000000e-02	1.99353374e-02	6.81285254e-04
8.97500000e-02	1.99510335e-02	6.78988981e-04
9.00000000e-02	1.95327937e-02	6.66123498e-04
9.02500000e-02	1.97110190e-02	6.77109732e-04
9.05000000e-02	2.00627532e-02	6.80581627e-04
9.07500000e-02	2.01448498e-02	6.79190706e-04
9.10000000e-02	1.95283282e-02	6.61542805e-04
9.12500000e-02	2.03952405e-02	6.81718992e-04
9.15000000e-02	1.97287885e-02	6.61826240e-04
9.17500000e-02	1.94696101e-02	6.52811694e-04
9.20000000e-02	2.00484203e-02	6.68994616e-04
9.22500000e-02	1.95608539e-02	6.51271767e-04
9.25000000e-02	2.01714416e-02	6.69642258e-04
9.27500000e-02	1.96030686e-02	6.47848944e-04
9.30000000e-02	2.00350791e-02	6.68416977e-04
9.32500000e-02	1.99910821e-02	6.69843462e-04
9.35000000e-02	2.00740708e-02	6.58136744e-04
9.37500000e-02	1.94748509e-02	6.43451859e-04
9.40000000e-02	1.95009440e-02	6.41559097e-04
9.42500000e-02	1.96884372e-02	6.45571149e-04
9.45000000e-02	2.00351455e-02	6.60588838e-04
9.47500000e-02	1.96246444e-02	6.35841166e-04
9.50000000e-02	1.98443679e-02	6.47023737e-04
9.52500000e-02	1.95145336e-02	6.38649334e-04
9.55000000e-02	1.91984793e-02	6.23027959e-04
9.57500000e-02	1.97146207e-02	6.41332454e-04
9.60000000e-02	1.96210726e-02	6.35383663e-04
9.62500000e-02	1.93550475e-02	6.33823692e-04
9.65000000e-02	1.98481201e-02	6.35459642e-04
9.67500000e-02	1.95725269e-02	6.25984016e-04
9.70000000e-02	1.99732996e-02	6.39643123e-04
9.72500000e-02	1.92946622e-02	6.23522811e-04
9.75000000e-02	1.98415051e-02	6.35525976e-04
9.77500000e-02	2.00231995e-02	6.39508258e-04
9.80000000e-02	1.93293281e-02	6.22190138e-04
9.82500000e-02	1.94145653e-02	6.21773554e-04
9.85000000e-02	1.97644099e-02	6.29947226e-04
9.87500000e-02	1.92768115e-02	6.13888903e-04
9.90000000e-02	1.97013524e-02	6.18609887e-04
9.92500000e-02	1.93564938e-02	6.12032405e-04
9.95000000e-02	1.93710062e-02	6.11322164e-04
9.97500000e-02	1.95283660e-02	6.24499364e-04
1.00000000e-01	1.95712782e-02	5.08758644e-04
1.00500000e-01	1.99179695e-02	4.44014916e-04
1.01000000e-01	1.95417041e-02	4.32989323e-04
1.01500000e-01	1.99984232e-02	4.43202655e-04
1.02000000e-01	1.92809474e-02	4.28010741e-04
1.02500000e-01	1.96109024e-02	4.30847376e-04
1.03000000e-01	1.99240805e-02	4.37824837e-04
1.03500000e-01	1.95446338e-02	4.30052032e-04
1.04000000e-01	1.95341716e-02	4.26306721e-04
1.04500000e-01	1.97443952e-02	4.30947590e-04
1.05000000e-01	1.96655899e-02	4.25559236e-04
1.05500000e-01	1.94060876e-02	4.19879895e-04
1.06000000e-01	1.98354226e-02	4.28996173e-04
1.06500000e-01	1.99141990e-02	4.28691451e-04
1.07000000e-01	1.97623467e-02	4.30921419e-04
1.07500000e-01	2.00267212e-02	4.42976926e-04
1.08000000e-01	1.98684823e-02	4.47084219e-04
1.08500000e-01	1.95254434e-02	4.37462240e-04
1.09000000e-01	1.98686919e-02	4.49936176e-04
1.09500000e-01	1.95764759e-02	4.48222243e-04
1.10000000e-01	1.97210977e-02	4.44080401e-04
1.10500000e-01	1.95425366e-02	4.31808871e-04
1.11000000e-01	1.95810743e-02	4.26533077e-04
1.11500000e-01	1.97986906e-02	4.26251369e-04
1.12000000e-01	1.97942545e-02	4.23434896e-04
1.12500000e-01	1.95420458e-02	4.16116542e-04
1.13000000e-01	1.94731408e-02	4.12859094e-04
1.13500000e-01	1.93918486e-02	4.11384544e-04
1.14000000e-01	1.94231736e-02	4.07611629e-04
1.14500000e-01	1.98242242e-02	4.14870502e-04
1.15000000e-01	1.95627650e-02	4.09792960e-04
1.15500000e-01	1.96335352e-02	4.10050306e-04
1.16000000e-01	1.95086636e-02	4.06281526e-04
1.16500000e-01	1.97552199e-02	4.10455663e-04
1.17000000e-01	1.96689281e-02	4.08131753e-04
1.17500000e-01	2.00102921e-02	4.12871502e-04
1.18000000e-01	1.95489873e-02	4.04250618e-04
1.18500000e-01	1.97037093e-02	4.03379721e-04
1.19000000e-01	1.99906962e-02	4.07894806e-04
1.19500000e-01	1.96678509e-02	4.02628383e-04
1.20000000e-01	1.96172472e-02	4.00107901e-04
1.20500000e-01	1.96448480e-02	3.98999473e-04
1.21000000e-01	1.93388695e-02	3.93092211e-04
1.21500000e-01	1.95011969e-02	3.97717342e-04
1.22000000e-01	1.99176525e-02	4.01448506e-04
1.22500000e-01	1.95241327e-02	3.94990474e-04
1.23000000e-01	1.94301113e-02	3.89380616e-04
1.23500000e-01	1.93927037e-02	3.89340918e-04
1.24000000e-01	1.96264574e-02	3.94297714e-04
1.24500000e-01	1.96282870e-02	3.91472425e-04
1.25000000e-01	1.97474053e-02	3.92583971e-04
1.25500000e-01	1.96621366e-02	3.91215218e-04
1.26000000e-01	1.96364657e-02	3.91047539e-04
1.26500000e-01	1.96591825e-02	3.90394983e-04
1.27000000e-01	1.96970300e-02	3.90691388e-04
1.27500000e-01	1.96359416e-02	3.87523933e-04
1.28000000e-01	1.92674680e-02	3.81768816e-04
1.28500000e-01	1.95701563e-02	3.85141699e-04
1.29000000e-01	1.94778851e-02	3.83070595e-04
1.29500000e-01	1.99166547e-02	3.90165389e-04
1.30000000e-01	1.93312521e-02	3.80037334e-04
1.30500000e-01	1.93037565e-02	3.78166779e-04
1.31000000e-01	1.95337532e-02	3.80145142e-04
1.31500000e-01	1.94788368e-02	3.80850146e-04
1.32000000e-01	1.94487741e-02	3.75792479e-04
1.32500000e-01	1.96211396e-02	3.80009881e-04
1.33000000e-01	1.97397431e-02	3.81132846e-04
1.33500000e-01	1.95159434e-02	3.72473112e-04
1.34000000e-01	1.96005612e-02	3.74721628e-04
1.34500000e-01	1.95604193e-02	3.74054268e-04
1.35000000e-01	1.95924340e-02	3.72188021e-04
1.35500000e-01	1.96604448e-02	3.75346190e-04
1.36000000e-01	1.97109780e-02	3.73764615e-04
1.36500000e-01	1.96865992e-02	3.75110888e-04
1.37000000e-01	1.97431356e-02	3.73685426e-04
1.37500000e-01	1.94378334e-02	3.68890506e-04
1.38000000e-01	1.97093859e-02	3.70301858e-04
1.38500000e-01	1.96164257e-02	3.70864241e-04
1.39000000e-01	1.94383797e-02	3.65922462e-04
1.39500000e-01	1.96444743e-02	3.69311343e-04
1.40000000e-01	1.96288539e-02	3.70757813e-04
1.40500000e-01	1.97020936e-02	3.70517808e-04
1.41000000e-01	1.95310049e-02	3.67232479e-04
1.41500000e-01	1.95199853e-02	3.67434121e-04
1.42000000e-01	1.95847841e-02	3.66985481e-04
1.42500000e-01	1.94656785e-02	3.63348657e-04
1.43000000e-01	1.94079540e-02	3.62894448e-04
1.43500000e-01	1.91995171e-02	3.58741945e-04
1.44000000e-01	1.93261638e-02	3.60451247e-04
1.44500000e-01	1.94816960e-02	3.60532143e-04
1.45000000e-01	1.95859376e-02	3.62998127e-04
1.45500000e-01	1.94586272e-02	3.59470573e-04
1.46000000e-01	1.94081113e-02	3.58861342e-04
1.46500000e-01	1.95260026e-02	3.58916703e-04
1.47000000e-01	1.96793993e-02	3.61588027e-04
1.47500000e-01	1.92242745e-02	3.54051702e-04
1.48000000e-01	1.94975275e-02	3.59452454e-04
1.48500000e-01	1.92090207e-02	3.52518095e-04
1.49000000e-01	1.89899605e-02	3.48883185e-04
1.49500000e-01	1.93221590e-02	3.52477104e-04
1.50000000e-01	1.95172701e-02	3.54973306e-04
1.50500000e-01	1.94108917e-02	3.53951512e-04
1.51000000e-01	1.91117388e-02	3.47697260e-04
1.51500000e-01	1.94170015e-02	3.51644535e-04
1.52000000e-01	1.93650752e-02	3.48672493e-04
1.52500000e-01	1.93517777e-02	3.50456070e-04
1.53000000e-01	1.91094877e-02	3.43507116e-04
1.53500000e-01	1.91134694e-02	3.43363337e-04
1.54000000e-01	1.89803480e-02	3.40547811e-04
1.54500000e-01	1.96706229e-02	3.58554271e-04
1.55000000e-01	1.92638647e-02	3.58038164e-04
1.55500000e-01	1.95189516e-02	3.63114432e-04
1.56000000e-01	1.93219200e-02	3.60844146e-04
1.56500000e-01	1.92479469e-02	3.61161422e-04
1.57000000e-01	1.93289232e-02	3.62112258e-04
1.57500000e-01	1.90203804e-02	3.51715005e-04
1.58000000e-01	1.89260334e-02	3.43089662e-04
1.58500000e-01	1.91758044e-02	3.47443265e-04
1.59000000e-01	1.89378126e-02	3.40325365e-04
1.59500000e-01	1.90944311e-02	3.42765000e-04
1.60000000e-01	1.90277903e-02	3.42424718e-04
1.60500000e-01	1.87960015e-02	3.34748690e-04
1.61000000e-01	1.90567316e-02	3.39807751e-04
1.61500000e-01	1.91569065e-02	3.39685602e-04
1.62000000e-01	1.90459524e-02	3.39589629e-04
1.62500000e-01	1.90513170e-02	3.37334216e-04
1.63000000e-01	1.91324203e-02	3.37311979e-04
1.63500000e-01	1.90395247e-02	3.38586972e-04
1.64000000e-01	1.90937693e-02	3.35616009e-04
1.64500000e-01	1.87496657e-02	3.32339054e-04
1.65000000e-01	1.89535298e-02	3.31923196e-04
1.65500000e-01	1.87809748e-02	3.28606790e-04
1.66000000e-01	1.88927626e-02	3.31942958e-04
1.66500000e-01	1.90925445e-02	3.32668323e-04
1.67000000e-01	1.88073383e-02	3.28839362e-04
1.67500000e-01	1.89153016e-02	3.29520103e-04
1.68000000e-01	1.91146743e-02	3.32011664e-04
1.68500000e-01	1.88092107e-02	3.27328708e-04
1.69000000e-01	1.89386642e-02	3.28968494e-04
1.69500000e-01	1.89289792e-02	3.27233328e-04
1.70000000e-01	1.88824233e-02	3.25870856e-04
1.70500000e-01	1.86352143e-02	3.22839409e-04
1.71000000e-01	1.88667605e-02	3.24344144e-04
1.71500000e-01	1.87516964e-02	3.23787672e-04
1.72000000e-01	1.90884872e-02	3.26845386e-04
1.72500000e-01	1.88647374e-02	3.25016276e-04
1.73000000e-01	1.86994858e-02	3.20794801e-04
1.73500000e-01	1.87245719e-02	3.19443378e-04
1.74000000e-01	1.88502060e-02	3.20500259e-04
1.74500000e-01	1.90469591e-02	3.21335761e-04
1.75000000e-01	1.89578423e-02	3.18979296e-04
1.75500000e-01	1.85471501e-02	3.13196357e-04
1.76000000e-01	1.88307606e-02	3.16825974e-04
1.76500000e-01	1.87772038e-02	3.17055386e-04
1.77000000e-01	1.86761938e-02	3.13824849e-04
1.77500000e-01	1.87491308e-02	3.16225566e-04
1.78000000e-01	1.86009809e-02	3.12984026e-04
1.78500000e-01	1.89174544e-02	3.17168827e-04
1.79000000e-01	1.85151446e-02	3.11376304e-04
1.79500000e-01	1.87903240e-02	3.15718530e-04
1.80000000e-01	1.84120445e-02	3.09327521e-04
1.80500000e-01	1.88080980e-02	3.15248767e-04
1.81000000e-01	1.87109447e-02	3.14319928e-04
1.81500000e-01	1.89092996e-02	3.15806020e-04
1.82000000e-01	1.88378856e-02	3.14320852e-04
1.82500000e-01	1.86700090e-02	3.11256660e-04
1.83000000e-01	1.87051587e-02	3.10886742e-04
1.83500000e-01	1.87071240e-02	3.11171530e-04
1.84000000e-01	1.89573678e-02	3.13273596e-04
1.84500000e-01	1.86005886e-02	3.08491228e-04
1.85000000e-01	1.85799225e-02	3.08292009e-04
1.85500000e-01	1.85473993e-02	3.06028139e-04
1.86000000e-01	1.84839832e-02	3.06095838e-04
1.86500000e-01	1.83676383e-02	3.03564472e-04
1.87000000e-01	1.87634421e-02	3.08172949e-04
1.87500000e-01	1.86214041e-02	3.05324477e-04
1.88000000e-01	1.85133254e-02	3.05419470e-04
1.88500000e-01	1.84790738e-02	3.03129236e-04
1.89000000e-01	1.88225912e-02	3.08223847e-04
1.89500000e-01	1.85437001e-02	3.03862900e-04
1.90000000e-01	1.86038392e-02	3.03986592e-04
1.90500000e-01	1.84327097e-02	3.01799530e-04
1.91000000e-01	1.84265970e-02	3.01509582e-04
1.91500000e-01	1.83031294e-02	2.99503627e-04
1.92000000e-01	1.85444134e-02	3.00610989e-04
1.92500000e-01	1.86041366e-02	3.02888633e-04
1.93000000e-01	1.84093859e-02	2.99974280e-04
1.93500000e-01	1.84186591e-02	2.98431305e-04
1.94000000e-01	1.83287143e-02	2.95705241e-04
1.94500000e-01	1.84537588e-02	2.98344162e-04
1.95000000e-01	1.86117899e-02	3.00952651e-04
1.95500000e-01	1.81181015e-02	2.93157995e-04
1.96000000e-01	1.82950117e-02	2.94801373e-04
1.96500000e-01	1.79385391e-02	2.91316603e-04
1.97000000e-01	1.82643440e-02	2.94025456e-04
1.97500000e-01	1.82424765e-02	2.92138840e-04
1.98000000e-01	1.85019863e-02	2.96547341e-04
1.98500000e-01	1.82355585e-02	2.91718513e-04
1.99000000e-01	1.82883697e-02	2.93323791e-04
1.99500000e-01	1.81860484e-02	2.90070608e-04
2.00000000e-01	1.84564406e-02	2.93482378e-04
2.00500000e-01	1.82341742e-02	2.92054919e-04
2.01000000e-01	1.82387968e-02	2.91162051e-04
2.01500000e-01	1.82172463e-02	2.89880782e-04
2.02000000e-01	1.83720242e-02	2.91972619e-04
2.02500000e-01	1.82394098e-02	2.88496594e-04
2.03000000e-01	1.84072700e-02	2.91506844e-04
2.03500000e-01	1.83201871e-02	2.90593614e-04
2.04000000e-01	1.81497259e-02	2.87308767e-04
2.04500000e-01	1.81173107e-02	2.87543082e-04
2.05000000e-01	1.81565044e-02	2.86590700e-04
2.05500000e-01	1.80507583e-02	2.84601610e-04
2.06000000e-01	1.80069835e-02	2.83072450e-04
2.06500000e-01	1.79442767e-02	2.82776396e-04
2.07000000e-01	1.80096782e-02	2.82868251e-04
2.07500000e-01	1.78628331e-02	2.80060297e-04
2.08000000e-01	1.83446442e-02	2.87959979e-04
2.08500000e-01	1.82496719e-02	2.85148453e-04
2.09000000e-01	1.81463725e-02	2.83452204e-04
2.09500000e-01	1.78470443e-02	2.79699632e-04
2.10000000e-01	1.81929702e-02	2.83138300e-04
2.10500000e-01	1.82278756e-02	2.84198455e-04
2.11000000e-01	1.81505342e-02	2.81298934e-04
2.11500000e-01	1.80575032e-02	2.80926353e-04
2.12000000e-01	1.82143835e-02	2.82955534e-04
2.12500000e-01	1.79529723e-02	2.78601907e-04
2.13000000e-01	1.79773897e-02	2.77580394e-04
2.13500000e-01	1.80672869e-02	2.79738312e-04
2.14000000e-01	1.80755224e-02	2.79905053e-04
2.14500000e-01	1.82841272e-02	2.81269619e-04
2.15000000e-01	1.79667572e-02	2.78211008e-04
2.15500000e-01	1.80023672e-02	2.75895702e-04
2.16000000e-01	1.78948046e-02	2.76293913e-04
2.16500000e-01	1.81628497e-02	2.79545344e-04
2.17000000e-01	1.81913828e-02	2.82648418e-04
2.17500000e-01	1.81033606e-02	2.85589877e-04
2.18000000e-01	1.81273165e-02	2.87607123e-04
2.18500000e-01	1.81875355e-02	2.89537659e-04
2.19000000e-01	1.79932425e-02	2.89222937e-04
2.19500000e-01	1.77483103e-02	2.85698302e-04
2.20000000e-01	1.80761818e-02	2.91778782e-04
2.20500000e-01	1.79115509e-02	2.90472785e-04
2.21000000e-01	1.79947060e-02	2.91798273e-04
2.21500000e-01	1.78015575e-02	2.90646569e-04
2.22000000e-01	1.79004904e-02	2.90422016e-04
2.22500000e-01	1.78782839e-02	2.92618798e-04
2.23000000e-01	1.81200443e-02	2.96940819e-04
2.23500000e-01	1.80758264e-02	2.97890982e-04
2.24000000e-01	1.76483889e-02	2.92256210e-04
2.24500000e-01	1.81510303e-02	2.99234981e-04
2.25000000e-01	1.77613224e-02	2.94709555e-04
2.25500000e-01	1.79011864e-02	2.96124929e-04
2.26000000e-01	1.78160211e-02	2.95828838e-04
2.26500000e-01	1.76544200e-02	2.88270107e-04
2.27000000e-01	1.81986631e-02	2.94097756e-04
2.27500000e-01	1.79454934e-02	2.87637226e-04
2.28000000e-01	1.79627401e-02	2.87763876e-04
2.28500000e-01	1.76370808e-02	2.80469853e-04
2.29000000e-01	1.77591264e-02	2.81552238e-04
2.29500000e-01	1.80563951e-02	2.84657406e-04
2.30000000e-01	1.78872444e-02	2.80788988e-04
2.30500000e-01	1.76504197e-02	2.77386940e-04
2.31000000e-01	1.80086736e-02	2.81906697e-04
2.31500000e-01	1.75763180e-02	2.75499788e-04
2.32000000e-01	1.75211404e-02	2.73568968e-04
2.32500000e-01	1.78084755e-02	2.77052521e-04
2.33000000e-01	1.76855228e-02	2.74442538e-04
2.33500000e-01	1.77607576e-02	2.74695565e-04
2.34000000e-01	1.74747203e-02	2.70023058e-04
2.34500000e-01	1.78011728e-02	2.74569169e-04
2.35000000e-01	1.78222541e-02	2.73950691e-04
2.35500000e-01	1.76715887e-02	2.71189473e-04
2.36000000e-01	1.78936664e-02	2.73640063e-04
2.36500000e-01	1.77761283e-02	2.70932345e-04
2.37000000e-01	1.78063496e-02	2.72086088e-04
2.37500000e-01	1.75248805e-02	2.67679124e-04
2.38000000e-01	1.76884590e-02	2.68848369e-04
2.38500000e-01	1.77671118e-02	2.69630888e-04
2.39000000e-01	1.78206969e-02	2.70780200e-04
2.39500000e-01	1.79160406e-02	2.71771489e-04
2.40000000e-01	1.75879489e-02	2.66536845e-04
2.40500000e-01	1.76763526e-02	2.66172641e-04
2.41000000e-01	1.76853768e-02	2.66939618e-04
2.41500000e-01	1.77679480e-02	2.66067192e-04
2.42000000e-01	1.76199008e-02	2.64624788e-04
2.42500000e-01	1.76980103e-02	2.66089125e-04
2.43000000e-01	1.76665489e-02	2.64162906e-04
2.43500000e-01	1.76192272e-02	2.63047913e-04
2.44000000e-01	1.74244741e-02	2.59671631e-04
2.44500000e-01	1.78220003e-02	2.65566347e-04
2.45000000e-01	1.75268008e-02	2.60194944e-04
2.45500000e-01	1.76299093e-02	2.61599483e-04
2.46000000e-01	1.75560426e-02	2.61836427e-04
2.46500000e-01	1.75493196e-02	2.59329174e-04
2.47000000e-01	1.79113178e-02	2.65995901e-04
2.47500000e-01	1.76203395e-02	2.60552751e-04
2.48000000e-01	1.75028059e-02	2.58991057e-04
2.48500000e-01	1.74803040e-02	2.57192526e-04
2.49000000e-01	1.76027410e-02	2.59875870e-04
2.49500000e-01	1.75375346e-02	2.58888302e-04
2.50000000e-01	1.74138355e-02	2.56865720e-04
2.50500000e-01	1.72608366e-02	2.54373529e-04
2.51000000e-01	1.75717842e-02	2.56093686e-04
2.51500000e-01	1.74009853e-02	2.55460088e-04
2.52000000e-01	1.74418740e-02	2.55444415e-04
2.52500000e-01	1.73516335e-02	2.54472510e-04
2.53000000e-01	1.73031090e-02	2.53376925e-04
2.53500000e-01	1.74500907e-02	2.54334977e-04
2.54000000e-01	1.74487134e-02	2.54690158e-04
2.54500000e-01	1.73789504e-02	2.53140429e-04
2.55000000e-01	1.73569577e-02	2.53303795e-04
2.55500000e-01	1.74499924e-02	2.53674106e-04
2.56000000e-01	1.74949504e-02	2.54327043e-04
2.56500000e-01	1.73452304e-02	2.51836988e-04
2.57000000e-01	1.72037352e-02	2.49125817e-04
2.57500000e-01	1.72992339e-02	2.50053822e-04
2.58000000e-01	1.75571441e-02	2.54898267e-04
2.58500000e-01	1.72889750e-02	2.50255390e-04
2.59000000e-01	1.76726562e-02	2.54309406e-04
2.59500000e-01	1.73224255e-02	2.49551687e-04
2.60000000e-01	1.72744459e-02	2.48632145e-04
2.60500000e-01	1.71928540e-02	2.47411648e-04
2.61000000e-01	1.72252106e-02	2.48142145e-04
2.61500000e-01	1.71709480e-02	2.47756895e-04
2.62000000e-01	1.73887681e-02	2.49970900e-04
2.62500000e-01	1.71677153e-02	2.45754679e-04
2.63000000e-01	1.73281100e-02	2.47841892e-04
2.63500000e-01	1.72189878e-02	2.46448211e-04
2.64000000e-01	1.72601786e-02	2.46730396e-04
2.64500000e-01	1.72140490e-02	2.45611643e-04
2.65000000e-01	1.74931898e-02	2.48701912e-04
2.65500000e-01	1.72842724e-02	2.46307635e-04
2.66000000e-01	1.71562427e-02	2.45262949e-04
2.66500000e-01	1.71214857e-02	2.43721503e-04
2.67000000e-01	1.72673108e-02	2.45316319e-04
2.67500000e-01	1.73138899e-02	2.44916819e-04
2.68000000e-01	1.71250932e-02	2.43064884e-04
2.68500000e-01	1.70338191e-02	2.40975618e-04
2.69000000e-01	1.73482047e-02	2.45609705e-04
2.69500000e-01	1.72190758e-02	2.42583822e-04
2.70000000e-01	1.70622619e-02	2.41062042e-04
2.70500000e-01	1.72754539e-02	2.42022453e-04
2.71000000e-01	1.72164828e-02	2.42288484e-04
2.71500000e-01	1.70368939e-02	2.40301586e-04
2.72000000e-01	1.73550768e-02	2.42831171e-04
2.72500000e-01	1.71108437e-02	2.40860302e-04
2.73000000e-01	1.73402515e-02	2.42385155e-04
2.73500000e-01	1.69459468e-02	2.38679214e-04
2.74000000e-01	1.70180301e-02	2.38402944e-04
2.74500000e-01	1.72747504e-02	2.41065503e-04
2.75000000e-01	1.70159073e-02	2.38134110e-04
2.75500000e-01	1.72604578e-02	2.41097613e-04
2.76000000e-01	1.69203251e-02	2.35944211e-04
2.76500000e-01	1.71189976e-02	2.37876815e-04
2.77000000e-01	1.69648844e-02	2.35798426e-04
2.77500000e-01	1.69345844e-02	2.35697550e-04
2.78000000e-01	1.73324366e-02	2.40684196e-04
2.78500000e-01	1.69443850e-02	2.35719534e-04
2.79000000e-01	1.70209817e-02	2.35982069e-04
2.79500000e-01	1.70033966e-02	2.36597854e-04
2.80000000e-01	1.68791189e-02	2.34468282e-04
2.80500000e-01	1.72070226e-02	2.37827100e-04
2.81000000e-01	1.70157325e-02	2.35821217e-04
2.81500000e-01	1.69135266e-02	2.34413469e-04
2.82000000e-01	1.70124853e-02	2.35122553e-04
2.82500000e-01	1.69991905e-02	2.35289827e-04
2.83000000e-01	1.70645523e-02	2.34474308e-04
2.83500000e-01	1.71101049e-02	2.36006777e-04
2.84000000e-01	1.68757693e-02	2.31814177e-04
2.84500000e-01	1.68714249e-02	2.31841954e-04
2.85000000e-01	1.70404794e-02	2.33218959e-04
2.85500000e-01	1.69456209e-02	2.31690519e-04
2.86000000e-01	1.67869243e-02	2.30919719e-04
2.86500000e-01	1.68728287e-02	2.30595184e-04
2.87000000e-01	1.69130199e-02	2.32128711e-04
2.87500000e-01	1.70206565e-02	2.31802066e-04
2.88000000e-01	1.70600090e-02	2.31321593e-04
2.88500000e-01	1.67782740e-02	2.28937643e-04
2.89000000e-01	1.70327276e-02	2.31710403e-04
2.89500000e-01	1.69581817e-02	2.30685453e-04
2.90000000e-01	1.67886126e-02	2.28067481e-04
2.90500000e-01	1.69848450e-02	2.30714173e-04
2.91000000e-01	1.70830693e-02	2.31081858e-04
2.91500000e-01	1.68903382e-02	2.28696102e-04
2.92000000e-01	1.68622665e-02	2.28242791e-04
2.92500000e-01	1.68145861e-02	2.27845391e-04
2.93000000e-01	1.68664503e-02	2.27758818e-04
2.93500000e-01	1.68232325e-02	2.27368143e-04
2.94000000e-01	1.68634373e-02	2.27542997e-04
2.94500000e-01	1.67950908e-02	2.27246471e-04
2.95000000e-01	1.66371015e-02	2.24662413e-04
2.95500000e-01	1.68023239e-02	2.26305941e-04
2.96000000e-01	1.67914291e-02	2.26206530e-04
2.96500000e-01	1.68056746e-02	2.26158891e-04
2.97000000e-01	1.65927142e-02	2.24073730e-04
2.97500000e-01	1.67903111e-02	2.24900155e-04
2.98000000e-01	1.68766123e-02	2.26298954e-04
2.98500000e-01	1.68557673e-02	2.25347787e-04
2.99000000e-01	1.68806742e-02	2.25802065e-04
2.99500000e-01	1.67715003e-02	2.25537896e-04
3.00000000e-01	1.68191907e-02	2.24240253e-04
3.00500000e-01	1.67407883e-02	2.24089778e-04
3.01000000e-01	1.66818419e-02	2.22085084e-04
3.01500000e-01	1.66618324e-02	2.22442279e-04
3.02000000e-01	1.66523701e-02	2.21570908e-04
3.02500000e-01	1.66331704e-02	2.22367079e-04
3.03000000e-01	1.68099549e-02	2.23518134e-04
3.03500000e-01	1.67465010e-02	2.22197183e-04
3.04000000e-01	1.65685803e-02	2.20898517e-04
3.04500000e-01	1.66063066e-02	2.20594530e-04
3.05000000e-01	1.65898810e-02	2.20283910e-04
3.05500000e-01	1.70379651e-02	2.25600547e-04
3.06000000e-01	1.66136254e-02	2.18944233e-04
3.06500000e-01	1.67361793e-02	2.21222289e-04
3.07000000e-01	1.65682126e-02	2.18466401e-04
3.07500000e-01	1.65663603e-02	2.18602511e-04
3.08000000e-01	1.65460034e-02	2.18572274e-04
3.08500000e-01	1.65300770e-02	2.18347155e-04
3.09000000e-01	1.66402243e-02	2.19125444e-04
3.09500000e-01	1.65659469e-02	2.17363060e-04
3.10000000e-01	1.66176826e-02	2.19006867e-04
3.10500000e-01	1.64688537e-02	2.16668882e-04
3.11000000e-01	1.65618247e-02	2.17898719e-04
3.11500000e-01	1.65547721e-02	2.16985533e-04
3.12000000e-01	1.65838289e-02	2.16889790e-04
3.12500000e-01	1.65597311e-02	2.15820741e-04
3.13000000e-01	1.64607122e-02	2.15308166e-04
3.13500000e-01	1.64263670e-02	2.14009720e-04
3.14000000e-01	1.63986875e-02	2.14388547e-04
3.14500000e-01	1.65430807e-02	2.15892855e-04
3.15000000e-01	1.64538357e-02	2.15824142e-04
3.15500000e-01	1.66849887e-02	2.17640072e-04
3.16000000e-01	1.64781452e-02	2.14790812e-04
3.16500000e-01	1.62071887e-02	2.10902107e-04
3.17000000e-01	1.64772199e-02	2.14349581e-04
3.17500000e-01	1.62699962e-02	2.12159120e-04
3.18000000e-01	1.63981452e-02	2.13366057e-04
3.18500000e-01	1.64127011e-02	2.13806993e-04
3.19000000e-01	1.64246415e-02	2.12532969e-04
3.19500000e-01	1.62554956e-02	2.11256915e-04
3.20000000e-01	1.65234360e-02	2.14069089e-04
3.20500000e-01	1.64170138e-02	2.12425597e-04
3.21000000e-01	1.65436628e-02	2.13919646e-04
3.21500000e-01	1.60692430e-02	2.08513696e-04
3.22000000e-01	1.62263492e-02	2.09984929e-04
3.22500000e-01	1.62000635e-02	2.09007065e-04
3.23000000e-01	1.62455950e-02	2.09034573e-04
3.23500000e-01	1.63769525e-02	2.11515435e-04
3.24000000e-01	1.63131459e-02	2.09742915e-04
3.24500000e-01	1.63554825e-02	2.10857588e-04
3.25000000e-01	1.63425569e-02	2.09919806e-04
3.25500000e-01	1.62861793e-02	2.09511066e-04
3.26000000e-01	1.60384096e-02	2.06113845e-04
3.26500000e-01	1.63396898e-02	2.09355808e-04
3.27000000e-01	1.63359354e-02	2.09273072e-04
3.27500000e-01	1.60810068e-02	2.06913711e-04
3.28000000e-01	1.62598384e-02	2.08721061e-04
3.28500000e-01	1.61537715e-02	2.07252589e-04
3.29000000e-01	1.62018424e-02	2.07291068e-04
3.29500000e-01	1.62446810e-02	2.08029934e-04
3.30000000e-01	1.61858273e-02	2.07119204e-04
3.30500000e-01	1.62007471e-02	2.07258471e-04
3.31000000e-01	1.63008090e-02	2.07453962e-04
3.31500000e-01	1.61363762e-02	2.06177925e-04
3.32000000e-01	1.61536771e-02	2.06029215e-04
3.32500000e-01	1.61755041e-02	2.05707730e-04
3.33000000e-01	1.61651071e-02	2.05646422e-04
3.33500000e-01	1.62571685e-02	2.06744737e-04
3.34000000e-01	1.60280352e-02	2.03984315e-04
3.34500000e-01	1.60426782e-02	2.03712878e-04
3.35000000e-01	1.62812416e-02	2.05912176e-04
3.35500000e-01	1.61054168e-02	2.04064253e-04
3.36000000e-01	1.61456634e-02	2.04039226e-04
3.36500000e-01	1.60394276e-02	2.02933022e-04
3.37000000e-01	1.60254131e-02	2.02441920e-04
3.37500000e-01	1.60358157e-02	2.02351551e-04
3.38000000e-01	1.61481908e-02	2.04458638e-04
3.38500000e-01	1.61887619e-02	2.04046037e-04
3.39000000e-01	1.60515746e-02	2.03089309e-04
3.39500000e-01	1.63231170e-02	2.04863554e-04
3.40000000e-01	1.59291798e-02	2.00796610e-04
3.40500000e-01	1.61721049e-02	2.04214026e-04
3.41000000e-01	1.60962526e-02	2.02498904e-04
3.41500000e-01	1.60365340e-02	2.00790313e-04
3.42000000e-01	1.59849950e-02	2.00374794e-04
3.42500000e-01	1.59185915e-02	2.00180257e-04
3.43000000e-01	1.58127100e-02	1.98861676e-04
3.43500000e-01	1.61271303e-02	2.01914230e-04
3.44000000e-01	1.59021649e-02	1.99980801e-04
3.44500000e-01	1.58382940e-02	1.98183201e-04
3.45000000e-01	1.58238038e-02	1.98577202e-04
3.45500000e-01	1.60493209e-02	1.99659031e-04
3.46000000e-01	1.59077580e-02	1.98801149e-04
3.46500000e-01	1.58729654e-02	1.97575793e-04
3.47000000e-01	1.58440081e-02	1.97036863e-04
3.47500000e-01	1.60257984e-02	2.00492468e-04
3.48000000e-01	1.61194024e-02	2.00700366e-04
3.48500000e-01	1.59716781e-02	1.98162810e-04
3.49000000e-01	1.58107512e-02	1.96044162e-04
3.49500000e-01	1.60224482e-02	1.99319266e-04
3.50000000e-01	1.60434177e-02	1.62604349e-04
3.51000000e-01	1.58532543e-02	1.38754453e-04
3.52000000e-01	1.57490325e-02	1.37859073e-04
3.53000000e-01	1.57959420e-02	1.37991435e-04
3.54000000e-01	1.57478239e-02	1.37253518e-04
3.55000000e-01	1.57214425e-02	1.37006228e-04
3.56000000e-01	1.58684952e-02	1.39021121e-04
3.57000000e-01	1.58171983e-02	1.40963238e-04
3.58000000e-01	1.55509186e-02	1.39856253e-04
3.59000000e-01	1.57152602e-02	1.42267279e-04
3.60000000e-01	1.57230896e-02	1.43376484e-04
3.61000000e-01	1.54941184e-02	1.41872533e-04
3.62000000e-01	1.55435646e-02	1.43210380e-04
3.63000000e-01	1.55385264e-02	1.43705480e-04
3.64000000e-01	1.56151480e-02	1.44958642e-04
3.65000000e-01	1.56164127e-02	1.45034756e-04
3.66000000e-01	1.55686810e-02	1.42658559e-04
3.67000000e-01	1.55039068e-02	1.40220206e-04
3.68000000e-01	1.55650521e-02	1.40141898e-04
3.69000000e-01	1.54864757e-02	1.38731686e-04
3.70000000e-01	1.54581945e-02	1.37693165e-04
3.71000000e-01	1.54678461e-02	1.39802581e-04
3.72000000e-01	1.55169481e-02	1.41157330e-04
3.73000000e-01	1.54387503e-02	1.40648250e-04
3.74000000e-01	1.55434351e-02	1.41238768e-04
3.75000000e-01	1.54644440e-02	1.40810070e-04
3.76000000e-01	1.56061018e-02	1.42012158e-04
3.77000000e-01	1.54527236e-02	1.41118509e-04
3.78000000e-01	1.53434526e-02	1.39866837e-04
3.79000000e-01	1.55040257e-02	1.40709519e-04
3.80000000e-01	1.54186468e-02	1.40219155e-04
3.81000000e-01	1.53513874e-02	1.39609000e-04
3.82000000e-01	1.54605541e-02	1.40378340e-04
3.83000000e-01	1.53842284e-02	1.39929390e-04
3.84000000e-01	1.53821950e-02	1.39727396e-04
3.85000000e-01	1.52373963e-02	1.38992428e-04
3.86000000e-01	1.53393710e-02	1.39672101e-04
3.87000000e-01	1.53464266e-02	1.39480797e-04
3.88000000e-01	1.52212795e-02	1.38642327e-04
3.89000000e-01	1.54623104e-02	1.40053971e-04
3.90000000e-01	1.52206998e-02	1.37932922e-04
3.91000000e-01	1.53587804e-02	1.39824329e-04
3.92000000e-01	1.52673404e-02	1.38588749e-04
3.93000000e-01	1.53003139e-02	1.38382168e-04
3.94000000e-01	1.51526487e-02	1.37468576e-04
3.95000000e-01	1.51122263e-02	1.36893726e-04
3.96000000e-01	1.51938349e-02	1.37561295e-04
3.97000000e-01	1.52379653e-02	1.38110970e-04
3.98000000e-01	1.52349247e-02	1.38127369e-04
3.99000000e-01	1.50680705e-02	1.36947087e-04
4.00000000e-01	1.50497772e-02	1.36639091e-04
4.01000000e-01	1.51984906e-02	1.38183844e-04
4.02000000e-01	1.51090962e-02	1.37321211e-04
4.03000000e-01	1.50607607e-02	1.36696570e-04
4.04000000e-01	1.51471124e-02	1.37498876e-04
4.05000000e-01	1.51683060e-02	1.37173914e-04
4.06000000e-01	1.50539333e-02	1.36306830e-04
4.07000000e-01	1.50290073e-02	1.36087646e-04
4.08000000e-01	1.50573453e-02	1.36099665e-04
4.09000000e-01	1.49084803e-02	1.34924927e-04
4.10000000e-01	1.50702915e-02	1.36078751e-04
4.11000000e-01	1.50886079e-02	1.36290683e-04
4.12000000e-01	1.50492014e-02	1.36042911e-04
4.13000000e-01	1.49681032e-02	1.35053936e-04
4.14000000e-01	1.49984889e-02	1.35841085e-04
4.15000000e-01	1.48254448e-02	1.33724494e-04
4.16000000e-01	1.50047523e-02	1.35266230e-04
4.17000000e-01	1.49295794e-02	1.35001810e-04
4.18000000e-01	1.48936154e-02	1.35779293e-04
4.19000000e-01	1.51167582e-02	1.39825364e-04
4.20000000e-01	1.49152978e-02	1.38565503e-04
4.21000000e-01	1.50385314e-02	1.40140788e-04
4.22000000e-01	1.50276061e-02	1.40376430e-04
4.23000000e-01	1.50689382e-02	1.41362423e-04
4.24000000e-01	1.50704846e-02	1.41561022e-04
4.25000000e-01	1.50966214e-02	1.41805133e-04
4.26000000e-01	1.50131171e-02	1.41221624e-04
4.27000000e-01	1.49860886e-02	1.40884067e-04
4.28000000e-01	1.49149780e-02	1.41259868e-04
4.29000000e-01	1.49421561e-02	1.41244153e-04
4.30000000e-01	1.49390493e-02	1.41471877e-04
4.31000000e-01	1.49556514e-02	1.40577565e-04
4.32000000e-01	1.48405439e-02	1.40350866e-04
4.33000000e-01	1.49270476e-02	1.41020337e-04
4.34000000e-01	1.49052782e-02	1.41432775e-04
4.35000000e-01	1.50230469e-02	1.42219675e-04
4.36000000e-01	1.48382756e-02	1.41026595e-04
4.37000000e-01	1.48552287e-02	1.41342921e-04
4.38000000e-01	1.47569452e-02	1.40654053e-04
4.39000000e-01	1.48703615e-02	1.41536555e-04
4.40000000e-01	1.48411283e-02	1.41427846e-04
4.41000000e-01	1.48100328e-02	1.41678301e-04
4.42000000e-01	1.46534441e-02	1.40203689e-04
4.43000000e-01	1.47807556e-02	1.41510418e-04
4.44000000e-01	1.47466347e-02	1.41345715e-04
4.45000000e-01	1.47918953e-02	1.41965797e-04
4.46000000e-01	1.48267553e-02	1.42173803e-04
4.47000000e-01	1.48082128e-02	1.42416285e-04
4.48000000e-01	1.47166648e-02	1.41333303e-04
4.49000000e-01	1.45808302e-02	1.41079414e-04
4.50000000e-01	1.46585229e-02	1.41840019e-04
4.51000000e-01	1.47838348e-02	1.42949515e-04
4.52000000e-01	1.45190608e-02	1.40611622e-04
4.53000000e-01	1.47617605e-02	1.42635919e-04
4.54000000e-01	1.46211356e-02	1.41870008e-04
4.55000000e-01	1.47340113e-02	1.42860171e-04
4.56000000e-01	1.46869614e-02	1.42739361e-04
4.57000000e-01	1.47984220e-02	1.43701199e-04
4.58000000e-01	1.47275050e-02	1.42906492e-04
4.59000000e-01	1.45334715e-02	1.41706834e-04
4.60000000e-01	1.45745396e-02	1.42304080e-04
4.61000000e-01	1.44870073e-02	1.41555804e-04
4.62000000e-01	1.45406075e-02	1.41835044e-04
4.63000000e-01	1.45365523e-02	1.42200938e-04
4.64000000e-01	1.45635069e-02	1.42076163e-04
4.65000000e-01	1.46484163e-02	1.43469072e-04
4.66000000e-01	1.45485526e-02	1.41976205e-04
4.67000000e-01	1.45140199e-02	1.42160136e-04
4.68000000e-01	1.44561902e-02	1.41905117e-04
4.69000000e-01	1.45833964e-02	1.42749401e-04
4.70000000e-01	1.44779197e-02	1.42333509e-04
4.71000000e-01	1.45442743e-02	1.42628738e-04
4.72000000e-01	1.44072253e-02	1.41331216e-04
4.73000000e-01	1.45351454e-02	1.42787598e-04
4.74000000e-01	1.42705065e-02	1.40059304e-04
4.75000000e-01	1.44575247e-02	1.41999982e-04
4.76000000e-01	1.43178541e-02	1.40242654e-04
4.77000000e-01	1.45182481e-02	1.42257882e-04
4.78000000e-01	1.44843948e-02	1.42463767e-04
4.79000000e-01	1.43604687e-02	1.41250452e-04
4.80000000e-01	1.42871523e-02	1.40384843e-04
4.81000000e-01	1.42718580e-02	1.40745433e-04
4.82000000e-01	1.45119718e-02	1.42647634e-04
4.83000000e-01	1.44087051e-02	1.41781327e-04
4.84000000e-01	1.43803740e-02	1.41615821e-04
4.85000000e-01	1.42844950e-02	1.41334441e-04
4.86000000e-01	1.43566052e-02	1.41690881e-04
4.87000000e-01	1.44524181e-02	1.42669058e-04
4.88000000e-01	1.44116736e-02	1.42176332e-04
4.89000000e-01	1.43855293e-02	1.42389404e-04
4.90000000e-01	1.43186335e-02	1.41695257e-04
4.91000000e-01	1.42175891e-02	1.41210467e-04
4.92000000e-01	1.42324420e-02	1.40768043e-04
4.93000000e-01	1.42915388e-02	1.41724110e-04
4.94000000e-01	1.42567329e-02	1.41328961e-04
4.95000000e-01	1.42849449e-02	1.42147767e-04
4.96000000e-01	1.43483348e-02	1.47054712e-04
4.97000000e-01	1.41468117e-02	1.48057154e-04
4.98000000e-01	1.43346919e-02	1.51829374e-04
4.99000000e-01	1.41272533e-02	1.51962531e-04
5.00000000e-01	1.42995243e-02	1.55265986e-04
5.01000000e-01	1.42072093e-02	1.55701377e-04
5.02000000e-01	1.43387769e-02	1.58255818e-04
5.03000000e-01	1.42426005e-02	1.58705909e-04
5.04000000e-01	1.42159436e-02	1.59854219e-04
5.05000000e-01	1.44043548e-02	1.58948676e-04
5.06000000e-01	1.42881746e-02	1.54936011e-04
5.07000000e-01	1.41568272e-02	1.52013740e-04
5.08000000e-01	1.42855913e-02	1.52359903e-04
5.09000000e-01	1.42164987e-02	1.50418741e-04
5.10000000e-01	1.42289977e-02	1.50582510e-04
5.11000000e-01	1.41597263e-02	1.49701129e-04
5.12000000e-01	1.42672590e-02	1.50104984e-04
5.13000000e-01	1.40918754e-02	1.48513598e-04
5.14000000e-01	1.41386680e-02	1.48191667e-04
5.15000000e-01	1.42175886e-02	1.49111107e-04
5.16000000e-01	1.41259936e-02	1.47792253e-04
5.17000000e-01	1.41117365e-02	1.47575552e-04
5.18000000e-01	1.41082986e-02	1.47060153e-04
5.19000000e-01	1.39471883e-02	1.44998346e-04
5.20000000e-01	1.41543204e-02	1.46623980e-04
5.21000000e-01	1.39780044e-02	1.45277127e-04
5.22000000e-01	1.40051576e-02	1.45221609e-04
5.23000000e-01	1.40189296e-02	1.44815558e-04
5.24000000e-01	1.42432022e-02	1.47714492e-04
5.25000000e-01	1.42318390e-02	1.46956495e-04
5.26000000e-01	1.39510201e-02	1.44093651e-04
5.27000000e-01	1.39802665e-02	1.44400235e-04
5.28000000e-01	1.39891821e-02	1.44974914e-04
5.29000000e-01	1.39016286e-02	1.44084411e-04
5.30000000e-01	1.38551970e-02	1.43516019e-04
5.31000000e-01	1.40147311e-02	1.45001038e-04
5.32000000e-01	1.39888820e-02	1.44621153e-04
5.33000000e-01	1.39012816e-02	1.43558257e-04
5.34000000e-01	1.38867739e-02	1.43889835e-04
5.35000000e-01	1.38517901e-02	1.43668411e-04
5.36000000e-01	1.39756249e-02	1.44146465e-04
5.37000000e-01	1.37598649e-02	1.42702001e-04
5.38000000e-01	1.38321405e-02	1.42752967e-04
5.39000000e-01	1.38886606e-02	1.43927683e-04
5.40000000e-01	1.38282008e-02	1.43181433e-04
5.41000000e-01	1.39341892e-02	1.44103033e-04
5.42000000e-01	1.38010781e-02	1.42853228e-04
5.43000000e-01	1.38368503e-02	1.43216162e-04
5.44000000e-01	1.36955786e-02	1.41829009e-04
5.45000000e-01	1.39191458e-02	1.44101331e-04
5.46000000e-01	1.37859340e-02	1.42740662e-04
5.47000000e-01	1.38172714e-02	1.42737174e-04
5.48000000e-01	1.37875102e-02	1.42858135e-04
5.49000000e-01	1.38008438e-02	1.42431062e-04
5.50000000e-01	1.37767318e-02	1.42318444e-04
5.51000000e-01	1.37359062e-02	1.41666492e-04
5.52000000e-01	1.38258620e-02	1.42063640e-04
5.53000000e-01	1.37321672e-02	1.41522033e-04
5.54000000e-01	1.37673455e-02	1.41701692e-04
5.55000000e-01	1.37049056e-02	1.40833130e-04
5.56000000e-01	1.37458784e-02	1.40978670e-04
5.57000000e-01	1.36400120e-02	1.40376211e-04
5.58000000e-01	1.35672288e-02	1.39305358e-04
5.59000000e-01	1.35746393e-02	1.39420398e-04
5.60000000e-01	1.36304825e-02	1.40539636e-04
5.61000000e-01	1.36844483e-02	1.40600377e-04
5.62000000e-01	1.37342069e-02	1.41306317e-04
5.63000000e-01	1.36836416e-02	1.40776707e-04
5.64000000e-01	1.37063004e-02	1.41094574e-04
5.65000000e-01	1.36700765e-02	1.40668747e-04
5.66000000e-01	1.36630770e-02	1.40709905e-04
5.67000000e-01	1.35987983e-02	1.39879349e-04
5.68000000e-01	1.35767900e-02	1.40255885e-04
5.69000000e-01	1.35665818e-02	1.39238412e-04
5.70000000e-01	1.35002395e-02	1.38542524e-04
5.71000000e-01	1.35860719e-02	1.39822171e-04
5.72000000e-01	1.35750921e-02	1.39071963e-04
5.73000000e-01	1.35235031e-02	1.39811229e-04
5.74000000e-01	1.35723701e-02	1.39851582e-04
5.75000000e-01	1.34984894e-02	1.39533047e-04
5.76000000e-01	1.34577025e-02	1.38842484e-04
5.77000000e-01	1.34705175e-02	1.39112977e-04
5.78000000e-01	1.34248715e-02	1.37941909e-04
5.79000000e-01	1.34911445e-02	1.38919210e-04
5.80000000e-01	1.34518663e-02	1.38996469e-04
5.81000000e-01	1.34924314e-02	1.39347012e-04
5.82000000e-01	1.34712345e-02	1.38892258e-04
5.83000000e-01	1.34332272e-02	1.38628961e-04
5.84000000e-01	1.34189946e-02	1.38449433e-04
5.85000000e-01	1.34330564e-02	1.38432759e-04
5.86000000e-01	1.34573687e-02	1.39398179e-04
5.87000000e-01	1.32907639e-02	1.37254085e-04
5.88000000e-01	1.33848937e-02	1.38204936e-04
5.89000000e-01	1.34488684e-02	1.38680065e-04
5.90000000e-01	1.32147872e-02	1.36955338e-04
5.91000000e-01	1.33027823e-02	1.37929479e-04
5.92000000e-01	1.34311697e-02	1.38303478e-04
5.93000000e-01	1.32700014e-02	1.37554457e-04
5.94000000e-01	1.31716589e-02	1.36849199e-04
5.95000000e-01	1.32771042e-02	1.36930622e-04
5.96000000e-01	1.32738931e-02	1.37007958e-04
5.97000000e-01	1.32391021e-02	1.37155609e-04
5.98000000e-01	1.33796841e-02	1.38454644e-04
5.99000000e-01	1.33319722e-02	1.37980023e-04
6.00000000e-01	1.33229815e-02	1.37666371e-04
6.01000000e-01	1.32616173e-02	1.37345574e-04
6.02000000e-01	1.33205408e-02	1.37456121e-04
6.03000000e-01	1.30866820e-02	1.36258248e-04
6.04000000e-01	1.31115675e-02	1.35806091e-04
6.05000000e-01	1.30724382e-02	1.35854355e-04
6.06000000e-01	1.32345031e-02	1.36930114e-04
6.07000000e-01	1.31844871e-02	1.36672419e-04
6.08000000e-01	1.32470225e-02	1.36962220e-04
6.09000000e-01	1.31523617e-02	1.36277396e-04
6.10000000e-01	1.30261735e-02	1.35156878e-04
6.11000000e-01	1.31107929e-02	1.35775837e-04
6.12000000e-01	1.32562460e-02	1.37845512e-04
6.13000000e-01	1.31736900e-02	1.37089870e-04
6.14000000e-01	1.31040885e-02	1.36033392e-04
6.15000000e-01	1.30892012e-02	1.35688501e-04
6.16000000e-01	1.31192961e-02	1.36492832e-04
6.17000000e-01	1.31474095e-02	1.36600443e-04
6.18000000e-01	1.30608240e-02	1.35323919e-04
6.19000000e-01	1.31292827e-02	1.36096194e-04
6.20000000e-01	1.30524364e-02	1.35522849e-04
6.21000000e-01	1.30540529e-02	1.34876324e-04
6.22000000e-01	1.31182788e-02	1.35312709e-04
6.23000000e-01	1.29467716e-02	1.34163020e-04
6.24000000e-01	1.30406893e-02	1.34689404e-04
6.25000000e-01	1.30745402e-02	1.35244146e-04
6.26000000e-01	1.29922868e-02	1.34254838e-04
6.27000000e-01	1.29001994e-02	1.33849907e-04
6.28000000e-01	1.29415108e-02	1.33677862e-04
6.29000000e-01	1.29254933e-02	1.33346557e-04
6.30000000e-01	1.30508448e-02	1.34070369e-04
6.31000000e-01	1.29020807e-02	1.33296284e-04
6.32000000e-01	1.30260390e-02	1.34427237e-04
6.33000000e-01	1.30605609e-02	1.34563148e-04
6.34000000e-01	1.31671340e-02	1.39383858e-04
6.35000000e-01	1.29347093e-02	1.41660038e-04
6.36000000e-01	1.30390119e-02	1.44756902e-04
6.37000000e-01	1.30086564e-02	1.46476615e-04
6.38000000e-01	1.30540327e-02	1.48650237e-04
6.39000000e-01	1.29614243e-02	1.49182571e-04
6.40000000e-01	1.30382119e-02	1.52064187e-04
6.41000000e-01	1.29745046e-02	1.53031996e-04
6.42000000e-01	1.30867128e-02	1.56544887e-04
6.43000000e-01	1.28684122e-02	1.53686709e-04
6.44000000e-01	1.31576020e-02	1.51415741e-04
6.45000000e-01	1.31795591e-02	1.49060232e-04
6.46000000e-01	1.31455891e-02	1.47411082e-04
6.47000000e-01	1.31887635e-02	1.46912402e-04
6.48000000e-01	1.30340707e-02	1.44720978e-04
6.49000000e-01	1.28719443e-02	1.43021234e-04
6.50000000e-01	1.30966310e-02	1.43278449e-04
6.51000000e-01	1.28859694e-02	1.41234478e-04
6.52000000e-01	1.30372000e-02	1.41662987e-04
6.53000000e-01	1.30276215e-02	1.40925506e-04
6.54000000e-01	1.29987471e-02	1.40798483e-04
6.55000000e-01	1.30328108e-02	1.40921440e-04
6.56000000e-01	1.30076407e-02	1.40243145e-04
6.57000000e-01	1.29717754e-02	1.39794135e-04
6.58000000e-01	1.30068747e-02	1.39808602e-04
6.59000000e-01	1.29908069e-02	1.39609268e-04
6.60000000e-01	1.29365567e-02	1.39445752e-04
6.61000000e-01	1.27935339e-02	1.37484293e-04
6.62000000e-01	1.28772239e-02	1.38276077e-04
6.63000000e-01	1.30082171e-02	1.39942370e-04
6.64000000e-01	1.27763016e-02	1.37132732e-04
6.65000000e-01	1.29023759e-02	1.38808024e-04
6.66000000e-01	1.28925537e-02	1.37839102e-04
6.67000000e-01	1.28152019e-02	1.37212602e-04
6.68000000e-01	1.28229660e-02	1.37664747e-04
6.69000000e-01	1.27847024e-02	1.37216300e-04
6.70000000e-01	1.26994113e-02	1.35969984e-04
6.71000000e-01	1.27639687e-02	1.36728055e-04
6.72000000e-01	1.28083343e-02	1.36728724e-04
6.73000000e-01	1.28502816e-02	1.37543338e-04
6.74000000e-01	1.27782260e-02	1.36925247e-04
6.75000000e-01	1.28595178e-02	1.36879871e-04
6.76000000e-01	1.26799065e-02	1.35219856e-04
6.77000000e-01	1.28046851e-02	1.36826270e-04
6.78000000e-01	1.27378549e-02	1.35846552e-04
6.79000000e-01	1.26947794e-02	1.35682745e-04
6.80000000e-01	1.27792361e-02	1.36794054e-04
6.81000000e-01	1.26739488e-02	1.35439711e-04
6.82000000e-01	1.27328553e-02	1.36122101e-04
6.83000000e-01	1.28376275e-02	1.36994248e-04
6.84000000e-01	1.27990478e-02	1.36712202e-04
6.85000000e-01	1.26810758e-02	1.35394912e-04
6.86000000e-01	1.26029956e-02	1.35121460e-04
6.87000000e-01	1.26890732e-02	1.35094785e-04
6.88000000e-01	1.27565926e-02	1.36554443e-04
6.89000000e-01	1.27000096e-02	1.35401168e-04
6.90000000e-01	1.25649745e-02	1.34598552e-04
6.91000000e-01	1.26997181e-02	1.35459716e-04
6.92000000e-01	1.27714167e-02	1.35793674e-04
6.93000000e-01	1.27023326e-02	1.35795217e-04
6.94000000e-01	1.26797785e-02	1.35410795e-04
6.95000000e-01	1.26655513e-02	1.34879121e-04
6.96000000e-01	1.26131728e-02	1.34585753e-04
6.97000000e-01	1.26983298e-02	1.35314414e-04
6.98000000e-01	1.27317140e-02	1.35874827e-04
6.99000000e-01	1.25862324e-02	1.34344707e-04
7.00000000e-01	1.25359320e-02	1.33508145e-04
7.01000000e-01	1.24581423e-02	1.32794951e-04
7.02000000e-01	1.25264687e-02	1.33954673e-04
7.03000000e-01	1.26006808e-02	1.34361561e-04
7.04000000e-01	1.26478180e-02	1.35022858e-04
7.05000000e-01	1.25385617e-02	1.33869197e-04
7.06000000e-01	1.25551485e-02	1.33797647e-04
7.07000000e-01	1.24596362e-02	1.32543949e-04
7.08000000e-01	1.25127190e-02	1.32610170e-04
7.09000000e-01	1.24041932e-02	1.32449406e-04
7.10000000e-01	1.23785256e-02	1.32111448e-04
7.11000000e-01	1.24027078e-02	1.32520466e-04
7.12000000e-01	1.24956781e-02	1.32990729e-04
7.13000000e-01	1.23756428e-02	1.31965106e-04
7.14000000e-01	1.24423295e-02	1.32356820e-04
7.15000000e-01	1.23641658e-02	1.31749060e-04
7.16000000e-01	1.24188776e-02	1.32171761e-04
7.17000000e-01	1.25092799e-02	1.33404591e-04
7.18000000e-01	1.23538845e-02	1.31822010e-04
7.19000000e-01	1.23087475e-02	1.30979793e-04
7.20000000e-01	1.22915150e-02	1.31051550e-04
7.21000000e-01	1.23396420e-02	1.31850564e-04
7.22000000e-01	1.23866921e-02	1.31782985e-04
7.23000000e-01	1.22802629e-02	1.31155776e-04
7.24000000e-01	1.23073051e-02	1.31324741e-04
7.25000000e-01	1.23721966e-02	1.32082495e-04
7.26000000e-01	1.21279916e-02	1.29863330e-04
7.27000000e-01	1.22436705e-02	1.31211612e-04
7.28000000e-01	1.22750230e-02	1.30768777e-04
7.29000000e-01	1.22060065e-02	1.30569528e-04
7.30000000e-01	1.21640258e-02	1.29894137e-04
7.31000000e-01	1.22259564e-02	1.30361283e-04
7.32000000e-01	1.22136223e-02	1.30463762e-04
7.33000000e-01	1.21839194e-02	1.30116095e-04
7.34000000e-01	1.20368653e-02	1.28643000e-04
7.35000000e-01	1.20845429e-02	1.28741329e-04
7.36000000e-01	1.22314138e-02	1.29987326e-04
7.37000000e-01	1.20792932e-02	1.28238082e-04
7.38000000e-01	1.20457352e-02	1.27988435e-04
7.39000000e-01	1.22313650e-02	1.29416853e-04
7.40000000e-01	1.20747789e-02	1.27912000e-04
7.41000000e-01	1.21496542e-02	1.28442148e-04
7.42000000e-01	1.20520707e-02	1.27318784e-04
7.43000000e-01	1.20899131e-02	1.28486216e-04
7.44000000e-01	1.20139634e-02	1.27351235e-04
7.45000000e-01	1.20899158e-02	1.28251813e-04
7.46000000e-01	1.21233121e-02	1.28286124e-04
7.47000000e-01	1.21646978e-02	1.28451109e-04
7.48000000e-01	1.21316607e-02	1.27952456e-04
7.49000000e-01	1.20811471e-02	1.27783537e-04
7.50000000e-01	1.20807951e-02	1.27178491e-04
7.51000000e-01	1.20139863e-02	1.26723223e-04
7.52000000e-01	1.19904244e-02	1.26921075e-04
7.53000000e-01	1.22362520e-02	1.29305589e-04
7.54000000e-01	1.19442691e-02	1.26636511e-04
7.55000000e-01	1.19477523e-02	1.26660964e-04
7.56000000e-01	1.18857136e-02	1.26213501e-04
7.57000000e-01	1.20673687e-02	1.27855483e-04
7.58000000e-01	1.18793006e-02	1.25912000e-04
7.59000000e-01	1.18943914e-02	1.25871028e-04
7.60000000e-01	1.18795675e-02	1.25500836e-04
7.61000000e-01	1.18667249e-02	1.25171033e-04
7.62000000e-01	1.18806634e-02	1.25007828e-04
7.63000000e-01	1.18310674e-02	1.24320075e-04
7.64000000e-01	1.18419802e-02	1.24255475e-04
7.65000000e-01	1.18722639e-02	1.24884793e-04
7.66000000e-01	1.18497044e-02	1.24623437e-04
7.67000000e-01	1.17559377e-02	1.24089699e-04
7.68000000e-01	1.18580791e-02	1.25142883e-04
7.69000000e-01	1.18697116e-02	1.24477108e-04
7.70000000e-01	1.17186812e-02	1.23214336e-04
7.71000000e-01	1.18308396e-02	1.24013399e-04
7.72000000e-01	1.18118901e-02	1.27691297e-04
7.73000000e-01	1.19004704e-02	1.32846113e-04
7.74000000e-01	1.18617998e-02	1.35275880e-04
7.75000000e-01	1.17352331e-02	1.36143234e-04
7.76000000e-01	1.18538206e-02	1.39075580e-04
7.77000000e-01	1.17026664e-02	1.40127187e-04
7.78000000e-01	1.16421370e-02	1.41379402e-04
7.79000000e-01	1.18259928e-02	1.44541876e-04
7.80000000e-01	1.17062076e-02	1.45305247e-04
7.81000000e-01	1.17949160e-02	1.47898755e-04
7.82000000e-01	1.16299010e-02	1.47595086e-04
7.83000000e-01	1.16592129e-02	1.49396804e-04
7.84000000e-01	1.16429654e-02	1.51310987e-04
7.85000000e-01	1.17226258e-02	1.53466131e-04
7.86000000e-01	1.17637261e-02	1.56188720e-04
7.87000000e-01	1.16316875e-02	1.55209586e-04
7.88000000e-01	1.14675151e-02	1.55073342e-04
7.89000000e-01	1.16628036e-02	1.58594490e-04
7.90000000e-01	1.16279531e-02	1.59920384e-04
7.91000000e-01	1.14538676e-02	1.59794858e-04
7.92000000e-01	1.15148098e-02	1.61953936e-04
7.93000000e-01	1.15559568e-02	1.64125504e-04
7.94000000e-01	1.15091276e-02	1.64886111e-04
7.95000000e-01	1.17248824e-02	1.68684341e-04
7.96000000e-01	1.16086330e-02	1.69878603e-04
7.97000000e-01	1.14968334e-02	1.70006799e-04
7.98000000e-01	1.14911523e-02	1.71736050e-04
7.99000000e-01	1.15273201e-02	1.73744522e-04
8.00000000e-01	1.15374420e-02	1.75843161e-04
8.01000000e-01	1.14411064e-02	1.75920863e-04
8.02000000e-01	1.15922718e-02	1.80000562e-04
8.03000000e-01	1.15086288e-02	1.79795801e-04
8.04000000e-01	1.14101858e-02	1.82152988e-04
8.05000000e-01	1.12797086e-02	1.80980194e-04
8.06000000e-01	1.13404034e-02	1.85067316e-04
8.07000000e-01	1.13395619e-02	1.85839934e-04
8.08000000e-01	1.13119557e-02	1.88985230e-04
8.09000000e-01	1.11748777e-02	1.88540292e-04
8.10000000e-01	1.13674695e-02	1.92577028e-04
8.11000000e-01	1.15774367e-02	1.97536037e-04
8.12000000e-01	1.10596165e-02	1.92696955e-04
8.13000000e-01	1.13476809e-02	2.00595869e-04
8.14000000e-01	1.12586986e-02	1.99184435e-04
8.15000000e-01	1.13551366e-02	2.03828696e-04
8.16000000e-01	1.13686489e-02	2.06266723e-04
8.17000000e-01	1.12124820e-02	2.05641014e-04
8.18000000e-01	1.13124305e-02	2.11372008e-04
8.19000000e-01	1.13489556e-02	2.13705321e-04
8.20000000e-01	1.12608868e-02	2.15964839e-04
8.21000000e-01	1.12094193e-02	2.18212291e-04
8.22000000e-01	1.11704381e-02	2.19110999e-04
8.23000000e-01	1.12967629e-02	2.23602138e-04
8.24000000e-01	1.14565543e-02	2.31090341e-04
8.25000000e-01	1.11681484e-02	2.27752667e-04
8.26000000e-01	1.11758492e-02	2.32518335e-04
8.27000000e-01	1.09136724e-02	2.29756821e-04
8.28000000e-01	1.09195178e-02	2.34789255e-04
8.29000000e-01	1.11006582e-02	2.40508606e-04
8.30000000e-01	1.08749553e-02	2.40850432e-04
8.31000000e-01	1.09109431e-02	2.45710262e-04
8.32000000e-01	1.11627303e-02	2.56808606e-04
8.33000000e-01	1.10046346e-02	2.55378680e-04
8.34000000e-01	1.08182772e-02	2.56011534e-04
8.35000000e-01	1.09106623e-02	2.63958644e-04
8.36000000e-01	1.10845856e-02	2.70018893e-04
8.37000000e-01	1.12953278e-02	2.81266265e-04
8.38000000e-01	1.06789022e-02	2.72315087e-04
8.39000000e-01	1.08441613e-02	2.86976319e-04
8.40000000e-01	1.10557259e-02	2.94314326e-04
8.41000000e-01	1.07310360e-02	2.94167917e-04
8.42000000e-01	1.11065983e-02	3.05273442e-04
8.43000000e-01	1.03903643e-02	2.96863945e-04
8.44000000e-01	1.09013877e-02	3.17829684e-04
8.45000000e-01	1.10150934e-02	3.28796981e-04
8.46000000e-01	1.08916059e-02	3.33046164e-04
8.47000000e-01	1.08043805e-02	3.42038558e-04
8.48000000e-01	1.11756965e-02	3.60060898e-04
8.49000000e-01	1.09208000e-02	3.69870919e-04
8.50000000e-01	1.08924276e-02	3.78639880e-04
8.51000000e-01	1.08927547e-02	3.90003158e-04
8.52000000e-01	1.04093551e-02	3.95378599e-04
8.53000000e-01	1.03807003e-02	4.07531285e-04
8.54000000e-01	1.07109129e-02	4.44677716e-04
8.55000000e-01	1.05098364e-02	4.50488878e-04
8.56000000e-01	1.06491831e-02	4.61922964e-04
8.57000000e-01	1.03922397e-02	4.71063943e-04
8.58000000e-01	1.04825791e-02	4.83524797e-04
8.59000000e-01	1.01736242e-02	4.95479790e-04
8.60000000e-01	1.04295261e-02	5.21639001e-04
8.61000000e-01	1.07927020e-02	5.42853624e-04
8.62000000e-01	1.07295564e-02	5.68061073e-04
8.63000000e-01	1.09252487e-02	6.01757461e-04
8.64000000e-01	9.99932964e-03	5.82108277e-04
8.65000000e-01	1.05149322e-02	6.39561445e-04
8.66000000e-01	9.84731008e-03	6.36766136e-04
8.67000000e-01	1.08128457e-02	7.26416363e-04
8.68000000e-01	9.94605320e-03	7.11320308e-04
8.69000000e-01	1.03276863e-02	7.93903803e-04
8.70000000e-01	1.03399318e-02	8.68047762e-04
8.71000000e-01	9.54276796e-03	8.90732102e-04
8.72000000e-01	1.11559416e-02	1.13531454e-03
8.73000000e-01	1.03227772e-02	1.34029772e-03
8.74000000e-01	1.01742012e-02	1.59959356e-03
8.75000000e-01	1.02697640e-02	3.31455658e-03
