% Filename : SSW19_00033_00028.h5
% Date & Time : 30-Oct-2025 17:24:33
% X-ray Energy (keV) : 13.30001
% Exposure Time (s) : 0.500
% Beam Center : 1461.24000, 208.98300
% Sample to Detector Distance (SDD) (mm) : 1990.750
% Detector Pixel Size (mm) : 0.075
% Photodiode Value : 140579.000
% I0 of Sample : 0
% I0 of Standard : 1
% 
% q(A^-1)   I(q)    I(q)_SE
0.00000000e+00	1.28516240e-02	7.71096556e-03
2.50000000e-04	0.00000000e+00	0.00000000e+00
5.00000000e-04	0.00000000e+00	0.00000000e+00
7.50000000e-04	0.00000000e+00	0.00000000e+00
1.00000000e-03	0.00000000e+00	0.00000000e+00
1.25000000e-03	0.00000000e+00	0.00000000e+00
1.50000000e-03	0.00000000e+00	0.00000000e+00
1.75000000e-03	0.00000000e+00	0.00000000e+00
2.00000000e-03	0.00000000e+00	0.00000000e+00
2.25000000e-03	0.00000000e+00	0.00000000e+00
2.50000000e-03	0.00000000e+00	0.00000000e+00
2.75000000e-03	0.00000000e+00	0.00000000e+00
3.00000000e-03	0.00000000e+00	0.00000000e+00
3.25000000e-03	4.37349855e+03	3.73388027e+03
3.50000000e-03	3.39326523e+02	1.33169702e+02
3.75000000e-03	1.87841699e+02	7.22850277e+01
4.00000000e-03	3.60377017e+02	1.96370719e+02
4.25000000e-03	2.18257751e+02	1.12236412e+02
4.50000000e-03	3.53296293e+02	1.23248976e+02
4.75000000e-03	3.34078752e+02	1.01757403e+02
5.00000000e-03	2.85224457e+02	8.50419271e+01
5.25000000e-03	2.92282726e+02	9.16583606e+01
5.50000000e-03	2.61277624e+02	8.21905442e+01
5.75000000e-03	1.86373802e+02	5.59178592e+01
6.00000000e-03	2.34144617e+02	7.69996983e+01
6.25000000e-03	2.37952592e+02	8.40771303e+01
6.50000000e-03	1.86262093e+02	6.27393340e+01
6.75000000e-03	1.57767312e+02	4.91386370e+01
7.00000000e-03	1.41399489e+02	4.24817211e+01
7.25000000e-03	1.19915007e+02	3.55835063e+01
7.50000000e-03	1.00397234e+02	2.99277657e+01
7.75000000e-03	8.62051666e+01	2.63660282e+01
8.00000000e-03	7.62282314e+01	2.16335840e+01
8.25000000e-03	6.55639422e+01	1.79735725e+01
8.50000000e-03	6.22147642e+01	1.73574407e+01
8.75000000e-03	5.74878357e+01	1.58785345e+01
9.00000000e-03	5.26196363e+01	1.44349202e+01
9.25000000e-03	4.57143710e+01	1.21158363e+01
9.50000000e-03	3.99049438e+01	1.06667773e+01
9.75000000e-03	3.58541014e+01	9.40653899e+00
1.00000000e-02	3.19178347e+01	8.33092288e+00
1.02500000e-02	2.78176277e+01	6.91963799e+00
1.05000000e-02	2.56816637e+01	6.32561534e+00
1.07500000e-02	2.39167353e+01	6.00467156e+00
1.10000000e-02	2.03200854e+01	4.90307454e+00
1.12500000e-02	1.87718905e+01	4.56805683e+00
1.15000000e-02	1.76697062e+01	4.28229618e+00
1.17500000e-02	1.46991963e+01	3.67818267e+00
1.20000000e-02	1.31003835e+01	2.95637267e+00
1.22500000e-02	1.30612503e+01	2.99719742e+00
1.25000000e-02	1.26832717e+01	2.78845921e+00
1.27500000e-02	1.20735211e+01	2.71260410e+00
1.30000000e-02	1.10310515e+01	2.48811821e+00
1.32500000e-02	1.06740842e+01	2.57271947e+00
1.35000000e-02	9.08216008e+00	2.03179296e+00
1.37500000e-02	9.18136413e+00	2.05177923e+00
1.40000000e-02	8.60097586e+00	1.91836193e+00
1.42500000e-02	7.31864532e+00	1.49638350e+00
1.45000000e-02	6.65499132e+00	1.32978757e+00
1.47500000e-02	6.59607683e+00	1.40023528e+00
1.50000000e-02	5.98424987e+00	1.23577475e+00
1.52500000e-02	5.70268474e+00	1.17070396e+00
1.55000000e-02	4.97110907e+00	9.78416696e-01
1.57500000e-02	4.98086037e+00	9.71246637e-01
1.60000000e-02	4.85773518e+00	9.84371670e-01
1.62500000e-02	4.67564535e+00	9.32575793e-01
1.65000000e-02	4.21805754e+00	8.12651426e-01
1.67500000e-02	4.01523681e+00	7.63381824e-01
1.70000000e-02	3.82931487e+00	7.52052492e-01
1.72500000e-02	3.51168476e+00	6.46871078e-01
1.75000000e-02	3.39077281e+00	6.51607811e-01
1.77500000e-02	2.98302487e+00	5.35774403e-01
1.80000000e-02	2.92560528e+00	5.29699088e-01
1.82500000e-02	2.69358370e+00	4.82478390e-01
1.85000000e-02	2.62321748e+00	4.69556342e-01
1.87500000e-02	2.43692885e+00	4.24335035e-01
1.90000000e-02	2.27623299e+00	3.72542740e-01
1.92500000e-02	2.04620405e+00	3.23510553e-01
1.95000000e-02	1.95936114e+00	3.24036453e-01
1.97500000e-02	2.04824411e+00	3.59886795e-01
2.00000000e-02	1.81369995e+00	3.01006638e-01
2.02500000e-02	1.59982106e+00	2.69761168e-01
2.05000000e-02	1.73765023e+00	2.82254820e-01
2.07500000e-02	1.66798737e+00	2.65608075e-01
2.10000000e-02	1.55216120e+00	2.41086445e-01
2.12500000e-02	1.61542282e+00	2.66331217e-01
2.15000000e-02	1.52571897e+00	2.48497373e-01
2.17500000e-02	1.42143750e+00	2.16412820e-01
2.20000000e-02	1.45316996e+00	2.28974850e-01
2.22500000e-02	1.37272324e+00	2.28352364e-01
2.25000000e-02	1.34633509e+00	2.05266984e-01
2.27500000e-02	1.27253502e+00	1.90817081e-01
2.30000000e-02	1.24979042e+00	1.81298172e-01
2.32500000e-02	1.19112250e+00	1.78264149e-01
2.35000000e-02	1.16712483e+00	1.75594074e-01
2.37500000e-02	1.12536000e+00	1.66524897e-01
2.40000000e-02	1.09550155e+00	1.64324205e-01
2.42500000e-02	1.01215700e+00	1.44315009e-01
2.45000000e-02	1.00826128e+00	1.48162429e-01
2.47500000e-02	9.56132954e-01	1.38395687e-01
2.50000000e-02	9.24520141e-01	1.29169608e-01
2.52500000e-02	8.98364303e-01	1.23845087e-01
2.55000000e-02	8.44056707e-01	1.12563010e-01
2.57500000e-02	8.50263616e-01	1.18212098e-01
2.60000000e-02	8.01482243e-01	1.07985931e-01
2.62500000e-02	7.85217859e-01	1.04688848e-01
2.65000000e-02	7.75856728e-01	1.05346205e-01
2.67500000e-02	7.48598125e-01	1.00234180e-01
2.70000000e-02	7.01872887e-01	9.33090171e-02
2.72500000e-02	6.79221955e-01	8.67596053e-02
2.75000000e-02	6.53709160e-01	8.80513974e-02
2.77500000e-02	6.47974332e-01	8.49833951e-02
2.80000000e-02	5.78921168e-01	7.28443448e-02
2.82500000e-02	5.88090895e-01	7.27299664e-02
2.85000000e-02	6.07025167e-01	7.87877274e-02
2.87500000e-02	5.93430163e-01	7.43592064e-02
2.90000000e-02	5.79751934e-01	7.27455931e-02
2.92500000e-02	5.47210431e-01	6.89374752e-02
2.95000000e-02	5.31643923e-01	6.55279175e-02
2.97500000e-02	5.33446284e-01	6.70019244e-02
3.00000000e-02	5.11035271e-01	6.25960191e-02
3.02500000e-02	4.97573751e-01	5.90293255e-02
3.05000000e-02	4.72820761e-01	5.71452102e-02
3.07500000e-02	4.66237674e-01	5.50618751e-02
3.10000000e-02	4.57804535e-01	5.44539407e-02
3.12500000e-02	4.37480072e-01	5.09988482e-02
3.15000000e-02	4.12137385e-01	4.76987586e-02
3.17500000e-02	4.03059521e-01	4.57048154e-02
3.20000000e-02	3.98181219e-01	4.50443455e-02
3.22500000e-02	3.92529292e-01	4.33437181e-02
3.25000000e-02	3.90169794e-01	4.57794708e-02
3.27500000e-02	3.65340312e-01	4.04433051e-02
3.30000000e-02	3.68906971e-01	4.23348651e-02
3.32500000e-02	3.57083709e-01	4.01567984e-02
3.35000000e-02	3.51488553e-01	3.97161639e-02
3.37500000e-02	3.43005395e-01	3.79539267e-02
3.40000000e-02	3.29542502e-01	3.59159404e-02
3.42500000e-02	3.14031474e-01	3.37563986e-02
3.45000000e-02	3.13273483e-01	3.36730693e-02
3.47500000e-02	3.03373654e-01	3.21264413e-02
3.50000000e-02	2.96558326e-01	3.15812158e-02
3.52500000e-02	2.89787551e-01	3.00084434e-02
3.55000000e-02	2.80314747e-01	2.95057417e-02
3.57500000e-02	2.80704470e-01	2.95862517e-02
3.60000000e-02	2.70016056e-01	2.82468651e-02
3.62500000e-02	2.50362737e-01	2.51320448e-02
3.65000000e-02	2.35013699e-01	2.23582303e-02
3.67500000e-02	2.49726916e-01	2.47278661e-02
3.70000000e-02	2.48622528e-01	2.45861645e-02
3.72500000e-02	2.37506373e-01	2.37081848e-02
3.75000000e-02	2.37124875e-01	2.32545755e-02
3.77500000e-02	2.28964912e-01	2.24184535e-02
3.80000000e-02	2.23939108e-01	2.15341079e-02
3.82500000e-02	2.15634956e-01	2.06616716e-02
3.85000000e-02	2.17884905e-01	2.03508396e-02
3.87500000e-02	2.09952818e-01	1.99861543e-02
3.90000000e-02	2.08170997e-01	2.00028970e-02
3.92500000e-02	1.97924174e-01	1.80528855e-02
3.95000000e-02	1.97613443e-01	1.85324122e-02
3.97500000e-02	1.92535445e-01	1.78180760e-02
4.00000000e-02	1.89390809e-01	1.72504961e-02
4.02500000e-02	1.84108587e-01	1.67156335e-02
4.05000000e-02	1.81479939e-01	1.62820077e-02
4.07500000e-02	1.77568239e-01	1.57825548e-02
4.10000000e-02	1.77184490e-01	1.56595167e-02
4.12500000e-02	1.70432350e-01	1.50061303e-02
4.15000000e-02	1.68446751e-01	1.49874269e-02
4.17500000e-02	1.65352528e-01	1.45585922e-02
4.20000000e-02	1.58584071e-01	1.34866604e-02
4.22500000e-02	1.57594796e-01	1.32413305e-02
4.25000000e-02	1.56437294e-01	1.34084697e-02
4.27500000e-02	1.53617587e-01	1.32707239e-02
4.30000000e-02	1.51323376e-01	1.26663538e-02
4.32500000e-02	1.44557180e-01	1.19596083e-02
4.35000000e-02	1.42666738e-01	1.21637399e-02
4.37500000e-02	1.40352517e-01	1.13306076e-02
4.40000000e-02	1.39967323e-01	1.17038723e-02
4.42500000e-02	1.25532929e-01	1.00737554e-02
4.45000000e-02	1.32508012e-01	1.06702556e-02
4.47500000e-02	1.33859053e-01	1.08524259e-02
4.50000000e-02	1.31506866e-01	1.07556589e-02
4.52500000e-02	1.28991207e-01	1.01665996e-02
4.55000000e-02	1.27066657e-01	1.00711206e-02
4.57500000e-02	1.25441555e-01	1.00503738e-02
4.60000000e-02	1.20213911e-01	9.19262515e-03
4.62500000e-02	1.19558840e-01	9.08954962e-03
4.65000000e-02	1.16385692e-01	8.83487906e-03
4.67500000e-02	1.14199004e-01	8.65463345e-03
4.70000000e-02	1.14911704e-01	8.56414858e-03
4.72500000e-02	1.11489205e-01	8.42849011e-03
4.75000000e-02	1.11678371e-01	8.35507193e-03
4.77500000e-02	1.09024063e-01	7.94055104e-03
4.80000000e-02	1.07998649e-01	7.77845464e-03
4.82500000e-02	1.02718996e-01	7.64420171e-03
4.85000000e-02	1.03750178e-01	7.54644777e-03
4.87500000e-02	1.02292025e-01	7.24746128e-03
4.90000000e-02	1.00590444e-01	7.00262072e-03
4.92500000e-02	9.74718465e-02	6.88498263e-03
4.95000000e-02	9.75142217e-02	6.98139438e-03
4.97500000e-02	9.70454517e-02	6.78636852e-03
5.00000000e-02	9.43545454e-02	6.42011885e-03
5.02500000e-02	9.31932267e-02	6.37305749e-03
5.05000000e-02	9.14980728e-02	6.23468145e-03
5.07500000e-02	9.26705207e-02	6.23043945e-03
5.10000000e-02	8.80796536e-02	5.98703544e-03
5.12500000e-02	8.61040003e-02	5.68868762e-03
5.15000000e-02	8.73052635e-02	5.77798658e-03
5.17500000e-02	8.52011122e-02	5.57562322e-03
5.20000000e-02	8.52327253e-02	5.66829494e-03
5.22500000e-02	8.21824818e-02	5.41871872e-03
5.25000000e-02	7.74683509e-02	4.85256668e-03
5.27500000e-02	7.84320041e-02	4.88933722e-03
5.30000000e-02	8.19040608e-02	5.34414826e-03
5.32500000e-02	7.87893041e-02	4.99018017e-03
5.35000000e-02	7.87814298e-02	5.08452573e-03
5.37500000e-02	7.94317842e-02	5.14729186e-03
5.40000000e-02	7.74725359e-02	4.83325102e-03
5.42500000e-02	7.53655627e-02	4.59444441e-03
5.45000000e-02	7.41667407e-02	4.52780970e-03
5.47500000e-02	7.45814406e-02	4.63069085e-03
5.50000000e-02	7.27625612e-02	4.47158381e-03
5.52500000e-02	7.15610476e-02	4.33786364e-03
5.55000000e-02	7.10934021e-02	4.17246772e-03
5.57500000e-02	7.22261849e-02	4.39578912e-03
5.60000000e-02	6.96813503e-02	4.17895498e-03
5.62500000e-02	7.03153833e-02	4.22537930e-03
5.65000000e-02	6.78568965e-02	3.96596223e-03
5.67500000e-02	6.71031410e-02	3.91291272e-03
5.70000000e-02	6.69433476e-02	3.82160306e-03
5.72500000e-02	6.72537844e-02	3.87211146e-03
5.75000000e-02	6.49138060e-02	3.72172468e-03
5.77500000e-02	6.47033840e-02	3.65006256e-03
5.80000000e-02	6.45974234e-02	3.63632030e-03
5.82500000e-02	6.26368448e-02	3.54220629e-03
5.85000000e-02	6.24498190e-02	3.45268522e-03
5.87500000e-02	6.12220754e-02	3.32341898e-03
5.90000000e-02	6.27426176e-02	3.39640502e-03
5.92500000e-02	6.13235073e-02	3.35450938e-03
5.95000000e-02	5.99068242e-02	3.22785583e-03
5.97500000e-02	5.92151796e-02	3.21619220e-03
6.00000000e-02	5.81500908e-02	3.08389229e-03
6.02500000e-02	5.69185404e-02	3.02173657e-03
6.05000000e-02	5.46576194e-02	2.87660451e-03
6.07500000e-02	5.76701971e-02	3.10093820e-03
6.10000000e-02	5.57509355e-02	2.90421242e-03
6.12500000e-02	5.65022258e-02	2.94333272e-03
6.15000000e-02	5.61409438e-02	2.88052913e-03
6.17500000e-02	5.49504797e-02	2.79614840e-03
6.20000000e-02	5.60437526e-02	2.89253940e-03
6.22500000e-02	5.37798216e-02	2.69587816e-03
6.25000000e-02	5.36305989e-02	2.74560192e-03
6.27500000e-02	5.36638896e-02	2.65983547e-03
6.30000000e-02	5.30360154e-02	2.61995342e-03
6.32500000e-02	5.25418126e-02	2.56687033e-03
6.35000000e-02	5.08265736e-02	2.46794784e-03
6.37500000e-02	5.22195797e-02	2.53516223e-03
6.40000000e-02	5.15374841e-02	2.47333501e-03
6.42500000e-02	4.99097114e-02	2.37108934e-03
6.45000000e-02	4.89843609e-02	2.33429981e-03
6.47500000e-02	5.05316931e-02	2.40229047e-03
6.50000000e-02	4.96560148e-02	2.35052297e-03
6.52500000e-02	4.91617358e-02	2.26385151e-03
6.55000000e-02	4.87193592e-02	2.35956336e-03
6.57500000e-02	4.86080501e-02	2.26740784e-03
6.60000000e-02	4.76030898e-02	2.19583255e-03
6.62500000e-02	4.88665671e-02	2.26123207e-03
6.65000000e-02	4.58482286e-02	2.12778744e-03
6.67500000e-02	4.63465022e-02	2.11216517e-03
6.70000000e-02	4.60243819e-02	2.06538641e-03
6.72500000e-02	4.59778841e-02	2.07439025e-03
6.75000000e-02	4.52034187e-02	2.02839878e-03
6.77500000e-02	4.60880553e-02	2.02394053e-03
6.80000000e-02	4.50365719e-02	2.02669110e-03
6.82500000e-02	4.58130439e-02	2.05473613e-03
6.85000000e-02	4.53363078e-02	2.01535683e-03
6.87500000e-02	4.40844314e-02	1.91396057e-03
6.90000000e-02	4.29987479e-02	1.83421389e-03
6.92500000e-02	4.44982094e-02	1.93585662e-03
6.95000000e-02	4.45027430e-02	1.92543186e-03
6.97500000e-02	4.33544853e-02	1.89702527e-03
7.00000000e-02	4.34046616e-02	1.87238995e-03
7.02500000e-02	4.25140960e-02	1.79625033e-03
7.05000000e-02	4.28330483e-02	1.80750321e-03
7.07500000e-02	4.20069922e-02	1.79192498e-03
7.10000000e-02	4.12836297e-02	1.71320575e-03
7.12500000e-02	4.24979406e-02	1.79214563e-03
7.15000000e-02	4.17637274e-02	1.73427641e-03
7.17500000e-02	4.30679588e-02	1.76463833e-03
7.20000000e-02	4.10938008e-02	1.70339190e-03
7.22500000e-02	4.13013518e-02	1.71605690e-03
7.25000000e-02	4.08839840e-02	1.66357785e-03
7.27500000e-02	4.05272051e-02	1.65405872e-03
7.30000000e-02	4.03634719e-02	1.62182904e-03
7.32500000e-02	4.03034022e-02	1.61752925e-03
7.35000000e-02	3.99113787e-02	1.58989885e-03
7.37500000e-02	3.97921088e-02	1.60027302e-03
7.40000000e-02	4.01765870e-02	1.58063581e-03
7.42500000e-02	3.89811956e-02	1.57351508e-03
7.45000000e-02	3.95315068e-02	1.54308800e-03
7.47500000e-02	3.96652080e-02	1.56712304e-03
7.50000000e-02	3.96888464e-02	1.53113150e-03
7.52500000e-02	3.86733716e-02	1.49794680e-03
7.55000000e-02	3.80984025e-02	1.48581078e-03
7.57500000e-02	3.78349191e-02	1.46932263e-03
7.60000000e-02	3.87346423e-02	1.49335370e-03
7.62500000e-02	3.82484687e-02	1.47388736e-03
7.65000000e-02	3.75725720e-02	1.43095571e-03
7.67500000e-02	3.67479206e-02	1.37518259e-03
7.70000000e-02	3.71259140e-02	1.38447901e-03
7.72500000e-02	3.74263381e-02	1.43524670e-03
7.75000000e-02	3.79810847e-02	1.45576206e-03
7.77500000e-02	3.85474187e-02	1.48919466e-03
7.80000000e-02	3.78758801e-02	1.46254438e-03
7.82500000e-02	3.75760434e-02	1.46923737e-03
7.85000000e-02	3.84212942e-02	1.50035571e-03
7.87500000e-02	3.73003146e-02	1.45015064e-03
7.90000000e-02	3.77903179e-02	1.47028097e-03
7.92500000e-02	3.73276514e-02	1.47177982e-03
7.95000000e-02	3.76470060e-02	1.48715683e-03
7.97500000e-02	3.72247925e-02	1.47321389e-03
8.00000000e-02	3.78240175e-02	1.47825636e-03
8.02500000e-02	3.69915717e-02	1.45094631e-03
8.05000000e-02	3.66733862e-02	1.42967973e-03
8.07500000e-02	3.73727592e-02	1.49727165e-03
8.10000000e-02	3.69161221e-02	1.43877976e-03
8.12500000e-02	3.69448464e-02	1.44576949e-03
8.15000000e-02	3.76460183e-02	1.50183175e-03
8.17500000e-02	3.75327914e-02	1.46779936e-03
8.20000000e-02	3.66480396e-02	1.44530294e-03
8.22500000e-02	3.66706697e-02	1.43788715e-03
8.25000000e-02	3.64782432e-02	1.42130545e-03
8.27500000e-02	3.65278311e-02	1.43088003e-03
8.30000000e-02	3.58325728e-02	1.41623061e-03
8.32500000e-02	3.57163061e-02	1.41886801e-03
8.35000000e-02	3.64271924e-02	1.46297014e-03
8.37500000e-02	3.62333887e-02	1.40732700e-03
8.40000000e-02	3.63693761e-02	1.42199995e-03
8.42500000e-02	3.47527323e-02	1.37805155e-03
8.45000000e-02	3.58020537e-02	1.40884252e-03
8.47500000e-02	3.56452123e-02	1.39906764e-03
8.50000000e-02	3.53562585e-02	1.36382012e-03
8.52500000e-02	3.49746896e-02	1.36535266e-03
8.55000000e-02	3.47253324e-02	1.36995073e-03
8.57500000e-02	3.51681474e-02	1.39209958e-03
8.60000000e-02	3.52513644e-02	1.39109817e-03
8.62500000e-02	3.50964393e-02	1.37389753e-03
8.65000000e-02	3.55082977e-02	1.38734231e-03
8.67500000e-02	3.47054397e-02	1.33355864e-03
8.70000000e-02	3.42192767e-02	1.31209019e-03
8.72500000e-02	3.43632936e-02	1.30257598e-03
8.75000000e-02	3.40263146e-02	1.25281184e-03
8.77500000e-02	3.36780870e-02	1.22305034e-03
8.80000000e-02	3.32860159e-02	1.22290584e-03
8.82500000e-02	3.36772960e-02	1.21872449e-03
8.85000000e-02	3.33238288e-02	1.20735854e-03
8.87500000e-02	3.32612203e-02	1.17996936e-03
8.90000000e-02	3.28570602e-02	1.18496854e-03
8.92500000e-02	3.32063043e-02	1.17115677e-03
8.95000000e-02	3.29770917e-02	1.17026067e-03
8.97500000e-02	3.23424014e-02	1.14316405e-03
9.00000000e-02	3.31224528e-02	1.14422726e-03
9.02500000e-02	3.15890828e-02	1.10544047e-03
9.05000000e-02	3.23653933e-02	1.12487465e-03
9.07500000e-02	3.22828783e-02	1.12262740e-03
9.10000000e-02	3.19128713e-02	1.09536311e-03
9.12500000e-02	3.17063108e-02	1.08653713e-03
9.15000000e-02	3.20940664e-02	1.12529712e-03
9.17500000e-02	3.17409289e-02	1.09596700e-03
9.20000000e-02	3.13434406e-02	1.06934221e-03
9.22500000e-02	3.19423279e-02	1.09111036e-03
9.25000000e-02	3.10614432e-02	1.05154614e-03
9.27500000e-02	3.14868695e-02	1.07092726e-03
9.30000000e-02	3.12215212e-02	1.05088994e-03
9.32500000e-02	3.08155372e-02	1.04669688e-03
9.35000000e-02	3.13585778e-02	1.04921816e-03
9.37500000e-02	3.10845340e-02	1.04132052e-03
9.40000000e-02	3.12837399e-02	1.04699760e-03
9.42500000e-02	3.21746697e-02	1.07177754e-03
9.45000000e-02	3.00238822e-02	9.89479868e-04
9.47500000e-02	3.06446034e-02	1.01922380e-03
9.50000000e-02	3.09200320e-02	1.01874657e-03
9.52500000e-02	3.03677510e-02	1.00630391e-03
9.55000000e-02	3.00459575e-02	9.92180353e-04
9.57500000e-02	3.02275012e-02	9.98164812e-04
9.60000000e-02	3.05529946e-02	9.94142112e-04
9.62500000e-02	3.09153239e-02	1.00412031e-03
9.65000000e-02	3.03296549e-02	9.85317131e-04
9.67500000e-02	3.01998261e-02	9.80570144e-04
9.70000000e-02	3.03490068e-02	9.90230303e-04
9.72500000e-02	2.94496966e-02	9.53224051e-04
9.75000000e-02	2.92953911e-02	9.53410366e-04
9.77500000e-02	2.96548611e-02	9.58221632e-04
9.80000000e-02	3.00555977e-02	9.63535914e-04
9.82500000e-02	2.97080442e-02	9.50657859e-04
9.85000000e-02	2.87681494e-02	9.21417473e-04
9.87500000e-02	2.94864107e-02	9.39483024e-04
9.90000000e-02	2.95604320e-02	9.48210544e-04
9.92500000e-02	2.88300441e-02	9.16605818e-04
9.95000000e-02	2.95033250e-02	9.43103753e-04
9.97500000e-02	2.87731318e-02	9.14583687e-04
1.00000000e-01	2.86980539e-02	7.37730142e-04
1.00500000e-01	2.91202461e-02	6.51839587e-04
1.01000000e-01	2.91506163e-02	6.47856803e-04
1.01500000e-01	2.84286397e-02	6.32494643e-04
1.02000000e-01	2.87037032e-02	6.32129101e-04
1.02500000e-01	2.81371941e-02	6.17213702e-04
1.03000000e-01	2.79263963e-02	6.14200701e-04
1.03500000e-01	2.83724007e-02	6.22114061e-04
1.04000000e-01	2.82357198e-02	6.13972233e-04
1.04500000e-01	2.79565757e-02	6.09378526e-04
1.05000000e-01	2.78041529e-02	6.02861870e-04
1.05500000e-01	2.78864218e-02	6.00407701e-04
1.06000000e-01	2.75925957e-02	5.92226141e-04
1.06500000e-01	2.77526242e-02	5.94091301e-04
1.07000000e-01	2.70379379e-02	5.85119157e-04
1.07500000e-01	2.64800695e-02	5.84174044e-04
1.08000000e-01	2.63073542e-02	5.84977162e-04
1.08500000e-01	2.57795755e-02	5.74677599e-04
1.09000000e-01	2.56684032e-02	5.77361551e-04
1.09500000e-01	2.55152789e-02	5.74466076e-04
1.10000000e-01	2.61818711e-02	5.86175219e-04
1.10500000e-01	2.61776792e-02	5.77158255e-04
1.11000000e-01	2.66397117e-02	5.75357352e-04
1.11500000e-01	2.70701579e-02	5.83330422e-04
1.12000000e-01	2.69085146e-02	5.71013533e-04
1.12500000e-01	2.64330995e-02	5.56161170e-04
1.13000000e-01	2.64949822e-02	5.59490643e-04
1.13500000e-01	2.66021908e-02	5.57140226e-04
1.14000000e-01	2.67455823e-02	5.57534709e-04
1.14500000e-01	2.63557382e-02	5.49394029e-04
1.15000000e-01	2.63084576e-02	5.43770513e-04
1.15500000e-01	2.62144608e-02	5.44330470e-04
1.16000000e-01	2.63342560e-02	5.43158443e-04
1.16500000e-01	2.60948941e-02	5.38094950e-04
1.17000000e-01	2.58852218e-02	5.32574774e-04
1.17500000e-01	2.60151608e-02	5.32948412e-04
1.18000000e-01	2.58713593e-02	5.28466665e-04
1.18500000e-01	2.58532023e-02	5.22573085e-04
1.19000000e-01	2.56603283e-02	5.23608370e-04
1.19500000e-01	2.57878878e-02	5.22881768e-04
1.20000000e-01	2.58149787e-02	5.22373584e-04
1.20500000e-01	2.59304961e-02	5.21404225e-04
1.21000000e-01	2.55270650e-02	5.13768824e-04
1.21500000e-01	2.58483889e-02	5.19750270e-04
1.22000000e-01	2.54523299e-02	5.08473461e-04
1.22500000e-01	2.56117784e-02	5.12281580e-04
1.23000000e-01	2.56347713e-02	5.10454748e-04
1.23500000e-01	2.54122597e-02	5.01365281e-04
1.24000000e-01	2.58076580e-02	5.11229138e-04
1.24500000e-01	2.60678239e-02	5.10762283e-04
1.25000000e-01	2.62994568e-02	5.18440521e-04
1.25500000e-01	2.58714243e-02	5.09321836e-04
1.26000000e-01	2.57350655e-02	5.05292429e-04
1.26500000e-01	2.57644034e-02	5.03816079e-04
1.27000000e-01	2.55736054e-02	5.00186121e-04
1.27500000e-01	2.58618103e-02	5.04331556e-04
1.28000000e-01	2.53909250e-02	4.94119639e-04
1.28500000e-01	2.53241300e-02	4.92480600e-04
1.29000000e-01	2.52126474e-02	4.89506914e-04
1.29500000e-01	2.49853370e-02	4.82075004e-04
1.30000000e-01	2.54714602e-02	4.90935833e-04
1.30500000e-01	2.56194564e-02	4.91778749e-04
1.31000000e-01	2.54885078e-02	4.87767875e-04
1.31500000e-01	2.56101910e-02	4.90556339e-04
1.32000000e-01	2.56646051e-02	4.87482718e-04
1.32500000e-01	2.55041524e-02	4.86084912e-04
1.33000000e-01	2.54762336e-02	4.84546044e-04
1.33500000e-01	2.55934892e-02	4.83068596e-04
1.34000000e-01	2.49810269e-02	4.71694908e-04
1.34500000e-01	2.53573923e-02	4.75525175e-04
1.35000000e-01	2.51652331e-02	4.73258451e-04
1.35500000e-01	2.52632737e-02	4.73228260e-04
1.36000000e-01	2.49351790e-02	4.65980780e-04
1.36500000e-01	2.50106643e-02	4.68553655e-04
1.37000000e-01	2.51227322e-02	4.68932855e-04
1.37500000e-01	2.48734098e-02	4.63911010e-04
1.38000000e-01	2.47801669e-02	4.61106506e-04
1.38500000e-01	2.45876788e-02	4.55747834e-04
1.39000000e-01	2.44250075e-02	4.55187308e-04
1.39500000e-01	2.45442050e-02	4.53765747e-04
1.40000000e-01	2.38705277e-02	4.44799434e-04
1.40500000e-01	2.39775874e-02	4.43089050e-04
1.41000000e-01	2.39351017e-02	4.43007127e-04
1.41500000e-01	2.35442905e-02	4.36850328e-04
1.42000000e-01	2.32510736e-02	4.29479573e-04
1.42500000e-01	2.32592955e-02	4.30394844e-04
1.43000000e-01	2.30805250e-02	4.26640022e-04
1.43500000e-01	2.32344783e-02	4.25840621e-04
1.44000000e-01	2.32073273e-02	4.25372961e-04
1.44500000e-01	2.32025479e-02	4.24778517e-04
1.45000000e-01	2.29569645e-02	4.19908373e-04
1.45500000e-01	2.32190821e-02	4.22808906e-04
1.46000000e-01	2.30079887e-02	4.18649367e-04
1.46500000e-01	2.32019347e-02	4.22454501e-04
1.47000000e-01	2.27167779e-02	4.14864647e-04
1.47500000e-01	2.24691547e-02	4.07582481e-04
1.48000000e-01	2.28813715e-02	4.14800778e-04
1.48500000e-01	2.26000561e-02	4.07692457e-04
1.49000000e-01	2.30232484e-02	4.13955637e-04
1.49500000e-01	2.29340784e-02	4.12203138e-04
1.50000000e-01	2.25591520e-02	4.06461210e-04
1.50500000e-01	2.26566461e-02	4.09175084e-04
1.51000000e-01	2.24918174e-02	4.01823872e-04
1.51500000e-01	2.21914117e-02	3.96691517e-04
1.52000000e-01	2.24027852e-02	3.97923324e-04
1.52500000e-01	2.23285341e-02	3.97063573e-04
1.53000000e-01	2.25366226e-02	4.00933526e-04
1.53500000e-01	2.22720732e-02	3.96773849e-04
1.54000000e-01	2.24311689e-02	3.97008261e-04
1.54500000e-01	2.21701779e-02	4.00614447e-04
1.55000000e-01	2.22447878e-02	4.07640471e-04
1.55500000e-01	2.21741654e-02	4.08450854e-04
1.56000000e-01	2.19498668e-02	4.06939228e-04
1.56500000e-01	2.21148153e-02	4.07498617e-04
1.57000000e-01	2.20273167e-02	4.08096109e-04
1.57500000e-01	2.20820111e-02	4.01146321e-04
1.58000000e-01	2.21304939e-02	3.96051424e-04
1.58500000e-01	2.19466084e-02	3.91478873e-04
1.59000000e-01	2.22598754e-02	3.95122403e-04
1.59500000e-01	2.19620086e-02	3.90402510e-04
1.60000000e-01	2.22685869e-02	3.95564723e-04
1.60500000e-01	2.17970807e-02	3.83675785e-04
1.61000000e-01	2.22565220e-02	3.93294891e-04
1.61500000e-01	2.22387515e-02	3.89757476e-04
1.62000000e-01	2.17884843e-02	3.81247466e-04
1.62500000e-01	2.19476226e-02	3.85478852e-04
1.63000000e-01	2.20091346e-02	3.82638978e-04
1.63500000e-01	2.16885206e-02	3.79920972e-04
1.64000000e-01	2.18019054e-02	3.78385607e-04
1.64500000e-01	2.19448340e-02	3.81046874e-04
1.65000000e-01	2.18816127e-02	3.77960624e-04
1.65500000e-01	2.16877887e-02	3.75393663e-04
1.66000000e-01	2.15119428e-02	3.72042582e-04
1.66500000e-01	2.16549892e-02	3.73465535e-04
1.67000000e-01	2.19156368e-02	3.77391792e-04
1.67500000e-01	2.16346147e-02	3.72384090e-04
1.68000000e-01	2.15172052e-02	3.69805511e-04
1.68500000e-01	2.16325293e-02	3.70147688e-04
1.69000000e-01	2.15817754e-02	3.68677603e-04
1.69500000e-01	2.14805999e-02	3.66983205e-04
1.70000000e-01	2.12599314e-02	3.63131368e-04
1.70500000e-01	2.15960653e-02	3.66960577e-04
1.71000000e-01	2.14770435e-02	3.65680202e-04
1.71500000e-01	2.16454053e-02	3.67718696e-04
1.72000000e-01	2.14719641e-02	3.63345031e-04
1.72500000e-01	2.13308531e-02	3.61269525e-04
1.73000000e-01	2.13822963e-02	3.60367436e-04
1.73500000e-01	2.15889229e-02	3.64640686e-04
1.74000000e-01	2.10366457e-02	3.54209330e-04
1.74500000e-01	2.11371218e-02	3.55675421e-04
1.75000000e-01	2.14547769e-02	3.58760984e-04
1.75500000e-01	2.12741248e-02	3.54982071e-04
1.76000000e-01	2.15347403e-02	3.57691450e-04
1.76500000e-01	2.13860817e-02	3.55985955e-04
1.77000000e-01	2.12894758e-02	3.53963639e-04
1.77500000e-01	2.13322871e-02	3.54836047e-04
1.78000000e-01	2.12089278e-02	3.53545942e-04
1.78500000e-01	2.12674915e-02	3.54026351e-04
1.79000000e-01	2.12602596e-02	3.52868965e-04
1.79500000e-01	2.12664555e-02	3.53583885e-04
1.80000000e-01	2.11290514e-02	3.52332792e-04
1.80500000e-01	2.11634856e-02	3.51595450e-04
1.81000000e-01	2.11967832e-02	3.50154135e-04
1.81500000e-01	2.10222191e-02	3.48217194e-04
1.82000000e-01	2.09297224e-02	3.45539278e-04
1.82500000e-01	2.07775627e-02	3.41461714e-04
1.83000000e-01	2.10891994e-02	3.47807294e-04
1.83500000e-01	2.08846035e-02	3.43697212e-04
1.84000000e-01	2.09217089e-02	3.43033159e-04
1.84500000e-01	2.08669286e-02	3.41947991e-04
1.85000000e-01	2.07554002e-02	3.42159979e-04
1.85500000e-01	2.08451711e-02	3.40487701e-04
1.86000000e-01	2.06260265e-02	3.37599084e-04
1.86500000e-01	2.08594967e-02	3.40492518e-04
1.87000000e-01	2.08523935e-02	3.39306663e-04
1.87500000e-01	2.09352920e-02	3.40311597e-04
1.88000000e-01	2.06393830e-02	3.36417071e-04
1.88500000e-01	2.07928651e-02	3.37224729e-04
1.89000000e-01	2.06562858e-02	3.35272803e-04
1.89500000e-01	2.11700879e-02	3.42020679e-04
1.90000000e-01	2.07562583e-02	3.35026931e-04
1.90500000e-01	2.07159912e-02	3.35021096e-04
1.91000000e-01	2.07820463e-02	3.35154143e-04
1.91500000e-01	2.06312196e-02	3.31887837e-04
1.92000000e-01	2.05924292e-02	3.31666614e-04
1.92500000e-01	2.07090078e-02	3.32568766e-04
1.93000000e-01	2.06945340e-02	3.32875070e-04
1.93500000e-01	2.06445060e-02	3.30265570e-04
1.94000000e-01	2.03557075e-02	3.27566001e-04
1.94500000e-01	2.06305872e-02	3.30483888e-04
1.95000000e-01	2.06310654e-02	3.29264147e-04
1.95500000e-01	2.02588315e-02	3.24311525e-04
1.96000000e-01	2.04716575e-02	3.26681138e-04
1.96500000e-01	2.05801877e-02	3.28622475e-04
1.97000000e-01	2.05284955e-02	3.28094839e-04
1.97500000e-01	2.04886193e-02	3.25770820e-04
1.98000000e-01	2.05307028e-02	3.24976662e-04
1.98500000e-01	2.04295833e-02	3.22684439e-04
1.99000000e-01	2.04169364e-02	3.23641853e-04
1.99500000e-01	2.07413926e-02	3.27099503e-04
2.00000000e-01	2.04373179e-02	3.22475197e-04
2.00500000e-01	2.03518148e-02	3.21177210e-04
2.01000000e-01	2.03583319e-02	3.20416985e-04
2.01500000e-01	2.03306158e-02	3.18987028e-04
2.02000000e-01	2.05480540e-02	3.22963201e-04
2.02500000e-01	2.04217545e-02	3.20044443e-04
2.03000000e-01	2.04853058e-02	3.20845648e-04
2.03500000e-01	2.04359214e-02	3.19474338e-04
2.04000000e-01	2.02596955e-02	3.16814117e-04
2.04500000e-01	2.04602787e-02	3.19897156e-04
2.05000000e-01	2.05472893e-02	3.19394568e-04
2.05500000e-01	2.02846749e-02	3.17295371e-04
2.06000000e-01	2.01703913e-02	3.14255003e-04
2.06500000e-01	2.02390550e-02	3.15504798e-04
2.07000000e-01	2.03127723e-02	3.16490868e-04
2.07500000e-01	2.05856789e-02	3.19129336e-04
2.08000000e-01	2.00106597e-02	3.10701865e-04
2.08500000e-01	2.03464741e-02	3.14633123e-04
2.09000000e-01	2.02081212e-02	3.12608290e-04
2.09500000e-01	2.03068351e-02	3.13546208e-04
2.10000000e-01	2.00580768e-02	3.09429344e-04
2.10500000e-01	2.00362021e-02	3.10258390e-04
2.11000000e-01	2.00111182e-02	3.07383810e-04
2.11500000e-01	2.01186577e-02	3.09924283e-04
2.12000000e-01	2.01732971e-02	3.09901339e-04
2.12500000e-01	2.02860656e-02	3.11804023e-04
2.13000000e-01	2.01468491e-02	3.08699468e-04
2.13500000e-01	2.00020140e-02	3.06155902e-04
2.14000000e-01	2.00453816e-02	3.07250842e-04
2.14500000e-01	2.00570141e-02	3.05897884e-04
2.15000000e-01	1.99824560e-02	3.05945493e-04
2.15500000e-01	1.99221208e-02	3.01151612e-04
2.16000000e-01	1.99134059e-02	3.03559124e-04
2.16500000e-01	1.97236240e-02	2.99143176e-04
2.17000000e-01	1.98690238e-02	3.05818405e-04
2.17500000e-01	2.00715045e-02	3.13773240e-04
2.18000000e-01	1.96253509e-02	3.08734349e-04
2.18500000e-01	2.00465975e-02	3.16615381e-04
2.19000000e-01	1.99877831e-02	3.17281067e-04
2.19500000e-01	1.97220926e-02	3.14412361e-04
2.20000000e-01	1.99484294e-02	3.20125301e-04
2.20500000e-01	1.96993047e-02	3.17074196e-04
2.21000000e-01	1.97999578e-02	3.17223480e-04
2.21500000e-01	1.96527807e-02	3.18157742e-04
2.22000000e-01	1.98470994e-02	3.20727629e-04
2.22500000e-01	1.95333350e-02	3.16875774e-04
2.23000000e-01	1.98522060e-02	3.21865387e-04
2.23500000e-01	1.98886273e-02	3.24785331e-04
2.24000000e-01	1.97059532e-02	3.21278839e-04
2.24500000e-01	1.94712005e-02	3.18792907e-04
2.25000000e-01	1.98836655e-02	3.24978981e-04
2.25500000e-01	1.99007618e-02	3.26229056e-04
2.26000000e-01	2.00417360e-02	3.30474648e-04
2.26500000e-01	2.01220251e-02	3.25370529e-04
2.27000000e-01	1.97361813e-02	3.16379746e-04
2.27500000e-01	1.98865811e-02	3.16100408e-04
2.28000000e-01	1.98006321e-02	3.13850778e-04
2.28500000e-01	1.99084982e-02	3.12773776e-04
2.29000000e-01	1.96448546e-02	3.08931085e-04
2.29500000e-01	1.95778494e-02	3.06765563e-04
2.30000000e-01	1.95684781e-02	3.04594114e-04
2.30500000e-01	1.97813145e-02	3.07101731e-04
2.31000000e-01	1.93814157e-02	3.01444097e-04
2.31500000e-01	1.96364998e-02	3.03480876e-04
2.32000000e-01	1.95605454e-02	3.01679761e-04
2.32500000e-01	1.96838006e-02	3.03297508e-04
2.33000000e-01	1.97193542e-02	3.03196138e-04
2.33500000e-01	1.94886887e-02	2.98677784e-04
2.34000000e-01	1.96237563e-02	2.99296954e-04
2.34500000e-01	1.95554696e-02	2.98131072e-04
2.35000000e-01	1.96168901e-02	3.00110397e-04
2.35500000e-01	1.95832797e-02	2.96889276e-04
2.36000000e-01	1.95129539e-02	2.97182013e-04
2.36500000e-01	1.94890265e-02	2.96150530e-04
2.37000000e-01	1.95386657e-02	2.95306034e-04
2.37500000e-01	1.95310967e-02	2.94701945e-04
2.38000000e-01	1.94990318e-02	2.93590859e-04
2.38500000e-01	1.94135019e-02	2.93496701e-04
2.39000000e-01	1.93232148e-02	2.91086021e-04
2.39500000e-01	1.94433449e-02	2.91004855e-04
2.40000000e-01	1.93167223e-02	2.88458459e-04
2.40500000e-01	1.92969161e-02	2.87906301e-04
2.41000000e-01	1.91847513e-02	2.87842194e-04
2.41500000e-01	1.91894643e-02	2.85928248e-04
2.42000000e-01	1.92774363e-02	2.86681179e-04
2.42500000e-01	1.95645857e-02	2.91198476e-04
2.43000000e-01	1.92916941e-02	2.86094745e-04
2.43500000e-01	1.92730792e-02	2.85668999e-04
2.44000000e-01	1.92351956e-02	2.84146424e-04
2.44500000e-01	1.93633150e-02	2.86053396e-04
2.45000000e-01	1.92881041e-02	2.83980598e-04
2.45500000e-01	1.93382846e-02	2.84772062e-04
2.46000000e-01	1.91624581e-02	2.82776657e-04
2.46500000e-01	1.89900881e-02	2.78934679e-04
2.47000000e-01	1.91403874e-02	2.80958989e-04
2.47500000e-01	1.91202597e-02	2.80280953e-04
2.48000000e-01	1.93565883e-02	2.83326356e-04
2.48500000e-01	1.92212107e-02	2.81021683e-04
2.49000000e-01	1.91341971e-02	2.79057950e-04
2.49500000e-01	1.94371758e-02	2.83729872e-04
2.50000000e-01	1.90761162e-02	2.78632638e-04
2.50500000e-01	1.93284819e-02	2.81885690e-04
2.51000000e-01	1.91808785e-02	2.79188202e-04
2.51500000e-01	1.90484368e-02	2.77498950e-04
2.52000000e-01	1.92221010e-02	2.79059610e-04
2.52500000e-01	1.91744878e-02	2.78069965e-04
2.53000000e-01	1.91052920e-02	2.77446889e-04
2.53500000e-01	1.91068196e-02	2.76546731e-04
2.54000000e-01	1.89584061e-02	2.75400562e-04
2.54500000e-01	1.92209932e-02	2.77438924e-04
2.55000000e-01	1.90894526e-02	2.76904228e-04
2.55500000e-01	1.92069576e-02	2.76172861e-04
2.56000000e-01	1.93531287e-02	2.77955446e-04
2.56500000e-01	1.91961698e-02	2.75965947e-04
2.57000000e-01	1.92412896e-02	2.75759927e-04
2.57500000e-01	1.90383610e-02	2.73193543e-04
2.58000000e-01	1.89583437e-02	2.71911825e-04
2.58500000e-01	1.91244436e-02	2.74468972e-04
2.59000000e-01	1.92039771e-02	2.74676237e-04
2.59500000e-01	1.89917860e-02	2.71799661e-04
2.60000000e-01	1.89370189e-02	2.70770325e-04
2.60500000e-01	1.91281872e-02	2.72858293e-04
2.61000000e-01	1.91608516e-02	2.72628028e-04
2.61500000e-01	1.91014811e-02	2.71730644e-04
2.62000000e-01	1.87490472e-02	2.66733445e-04
2.62500000e-01	1.90000360e-02	2.70719265e-04
2.63000000e-01	1.90277598e-02	2.70555035e-04
2.63500000e-01	1.90141658e-02	2.69691459e-04
2.64000000e-01	1.89618921e-02	2.69123059e-04
2.64500000e-01	1.89786275e-02	2.67721093e-04
2.65000000e-01	1.89787929e-02	2.68244966e-04
2.65500000e-01	1.88167685e-02	2.64579517e-04
2.66000000e-01	1.89422158e-02	2.66108231e-04
2.66500000e-01	1.90388236e-02	2.67840292e-04
2.67000000e-01	1.89347230e-02	2.66249021e-04
2.67500000e-01	1.90933544e-02	2.67304154e-04
2.68000000e-01	1.89977150e-02	2.66092929e-04
2.68500000e-01	1.88496187e-02	2.63824364e-04
2.69000000e-01	1.88970091e-02	2.64043868e-04
2.69500000e-01	1.87467496e-02	2.62225797e-04
2.70000000e-01	1.89499454e-02	2.64440030e-04
2.70500000e-01	1.87112006e-02	2.60560091e-04
2.71000000e-01	1.88093857e-02	2.62054321e-04
2.71500000e-01	1.87069977e-02	2.61264349e-04
2.72000000e-01	1.89316529e-02	2.62608018e-04
2.72500000e-01	1.88090034e-02	2.61187536e-04
2.73000000e-01	1.90679518e-02	2.64830444e-04
2.73500000e-01	1.88438390e-02	2.60870345e-04
2.74000000e-01	1.87239590e-02	2.59586810e-04
2.74500000e-01	1.86779679e-02	2.59023808e-04
2.75000000e-01	1.90419597e-02	2.63356939e-04
2.75500000e-01	1.85980463e-02	2.57748731e-04
2.76000000e-01	1.87843819e-02	2.59700720e-04
2.76500000e-01	1.88550658e-02	2.60728195e-04
2.77000000e-01	1.88357832e-02	2.59456960e-04
2.77500000e-01	1.88736446e-02	2.59441681e-04
2.78000000e-01	1.86600215e-02	2.57109227e-04
2.78500000e-01	1.87125573e-02	2.57684190e-04
2.79000000e-01	1.87692206e-02	2.57796904e-04
2.79500000e-01	1.86458574e-02	2.55071026e-04
2.80000000e-01	1.86928192e-02	2.57090890e-04
2.80500000e-01	1.86744874e-02	2.55608253e-04
2.81000000e-01	1.85234211e-02	2.53747296e-04
2.81500000e-01	1.86533250e-02	2.55626016e-04
2.82000000e-01	1.87072110e-02	2.56004921e-04
2.82500000e-01	1.85611763e-02	2.54457227e-04
2.83000000e-01	1.84405910e-02	2.51774336e-04
2.83500000e-01	1.84422274e-02	2.51164016e-04
2.84000000e-01	1.85194848e-02	2.53381469e-04
2.84500000e-01	1.86700844e-02	2.54670038e-04
2.85000000e-01	1.85339595e-02	2.52523649e-04
2.85500000e-01	1.84446798e-02	2.50368985e-04
2.86000000e-01	1.84040009e-02	2.50611940e-04
2.86500000e-01	1.84445176e-02	2.49079281e-04
2.87000000e-01	1.84886456e-02	2.50824469e-04
2.87500000e-01	1.83326778e-02	2.47066969e-04
2.88000000e-01	1.84031051e-02	2.47664687e-04
2.88500000e-01	1.83756362e-02	2.49339355e-04
2.89000000e-01	1.83746809e-02	2.47862522e-04
2.89500000e-01	1.82883278e-02	2.47082914e-04
2.90000000e-01	1.84660943e-02	2.49096612e-04
2.90500000e-01	1.83035463e-02	2.46064372e-04
2.91000000e-01	1.83035717e-02	2.45676499e-04
2.91500000e-01	1.82063002e-02	2.44316544e-04
2.92000000e-01	1.83881289e-02	2.45574607e-04
2.92500000e-01	1.83697973e-02	2.46033493e-04
2.93000000e-01	1.82642864e-02	2.45041762e-04
2.93500000e-01	1.82859907e-02	2.45060037e-04
2.94000000e-01	1.82815766e-02	2.43904865e-04
2.94500000e-01	1.82580567e-02	2.43928277e-04
2.95000000e-01	1.80778592e-02	2.41571654e-04
2.95500000e-01	1.82514818e-02	2.43915026e-04
2.96000000e-01	1.82632601e-02	2.43769286e-04
2.96500000e-01	1.81544370e-02	2.41807529e-04
2.97000000e-01	1.82046037e-02	2.42766157e-04
2.97500000e-01	1.81348288e-02	2.40657127e-04
2.98000000e-01	1.80724636e-02	2.40929097e-04
2.98500000e-01	1.83288335e-02	2.43662660e-04
2.99000000e-01	1.81231689e-02	2.40387079e-04
2.99500000e-01	1.82434606e-02	2.42283526e-04
3.00000000e-01	1.82618705e-02	2.42344166e-04
3.00500000e-01	1.81724099e-02	2.40809648e-04
3.01000000e-01	1.81068817e-02	2.39418148e-04
3.01500000e-01	1.79624480e-02	2.37060053e-04
3.02000000e-01	1.82347267e-02	2.39969831e-04
3.02500000e-01	1.82228988e-02	2.40469096e-04
3.03000000e-01	1.81276367e-02	2.39461772e-04
3.03500000e-01	1.79513648e-02	2.36707546e-04
3.04000000e-01	1.80135565e-02	2.37608681e-04
3.04500000e-01	1.79626042e-02	2.36697730e-04
3.05000000e-01	1.79679584e-02	2.36611491e-04
3.05500000e-01	1.80991499e-02	2.37676363e-04
3.06000000e-01	1.82204666e-02	2.37690092e-04
3.06500000e-01	1.80503457e-02	2.36375802e-04
3.07000000e-01	1.80671871e-02	2.35995137e-04
3.07500000e-01	1.78981264e-02	2.33902778e-04
3.08000000e-01	1.80487081e-02	2.36063077e-04
3.08500000e-01	1.79938473e-02	2.34649703e-04
3.09000000e-01	1.79045555e-02	2.33906159e-04
3.09500000e-01	1.78312562e-02	2.33021868e-04
3.10000000e-01	1.78935991e-02	2.34225707e-04
3.10500000e-01	1.77999068e-02	2.31992657e-04
3.11000000e-01	1.77169212e-02	2.31155413e-04
3.11500000e-01	1.80737976e-02	2.34607730e-04
3.12000000e-01	1.79810868e-02	2.33744115e-04
3.12500000e-01	1.77747419e-02	2.30854740e-04
3.13000000e-01	1.79655821e-02	2.33141883e-04
3.13500000e-01	1.80268601e-02	2.33033040e-04
3.14000000e-01	1.78930635e-02	2.32276877e-04
3.14500000e-01	1.78546903e-02	2.31510022e-04
3.15000000e-01	1.79594281e-02	2.32694500e-04
3.15500000e-01	1.77583776e-02	2.30061172e-04
3.16000000e-01	1.78347931e-02	2.31046968e-04
3.16500000e-01	1.76558541e-02	2.27829206e-04
3.17000000e-01	1.77774771e-02	2.29039246e-04
3.17500000e-01	1.77390374e-02	2.29183593e-04
3.18000000e-01	1.78613109e-02	2.29007586e-04
3.18500000e-01	1.78370305e-02	2.29983703e-04
3.19000000e-01	1.75999156e-02	2.26799520e-04
3.19500000e-01	1.77893500e-02	2.28074297e-04
3.20000000e-01	1.77050795e-02	2.27482545e-04
3.20500000e-01	1.78580800e-02	2.28563371e-04
3.21000000e-01	1.75107553e-02	2.24339997e-04
3.21500000e-01	1.76906964e-02	2.26448414e-04
3.22000000e-01	1.75965333e-02	2.25648761e-04
3.22500000e-01	1.75470214e-02	2.24774173e-04
3.23000000e-01	1.75786935e-02	2.25140294e-04
3.23500000e-01	1.76737848e-02	2.26587374e-04
3.24000000e-01	1.73284394e-02	2.21888786e-04
3.24500000e-01	1.75708901e-02	2.24402361e-04
3.25000000e-01	1.78251993e-02	2.27067849e-04
3.25500000e-01	1.76341779e-02	2.25024232e-04
3.26000000e-01	1.76783956e-02	2.25239256e-04
3.26500000e-01	1.72831843e-02	2.20549570e-04
3.27000000e-01	1.76611983e-02	2.24804746e-04
3.27500000e-01	1.75949140e-02	2.23879580e-04
3.28000000e-01	1.75014922e-02	2.22818895e-04
3.28500000e-01	1.77293868e-02	2.24797537e-04
3.29000000e-01	1.75813989e-02	2.23265118e-04
3.29500000e-01	1.77220966e-02	2.24898506e-04
3.30000000e-01	1.73710445e-02	2.19450220e-04
3.30500000e-01	1.73720218e-02	2.20723151e-04
3.31000000e-01	1.75564790e-02	2.20399189e-04
3.31500000e-01	1.75149375e-02	2.20948705e-04
3.32000000e-01	1.74852227e-02	2.21212729e-04
3.32500000e-01	1.72976141e-02	2.18390479e-04
3.33000000e-01	1.76036857e-02	2.22258152e-04
3.33500000e-01	1.71851153e-02	2.16629170e-04
3.34000000e-01	1.75152175e-02	2.21138242e-04
3.34500000e-01	1.73865487e-02	2.18801465e-04
3.35000000e-01	1.75958670e-02	2.20358841e-04
3.35500000e-01	1.74757675e-02	2.19616022e-04
3.36000000e-01	1.73067589e-02	2.17330480e-04
3.36500000e-01	1.73310662e-02	2.18141111e-04
3.37000000e-01	1.74185706e-02	2.17970703e-04
3.37500000e-01	1.71902818e-02	2.15331005e-04
3.38000000e-01	1.74403864e-02	2.18731266e-04
3.38500000e-01	1.73196886e-02	2.16307809e-04
3.39000000e-01	1.74604007e-02	2.18584723e-04
3.39500000e-01	1.73369681e-02	2.16063141e-04
3.40000000e-01	1.71868144e-02	2.15530862e-04
3.40500000e-01	1.72115630e-02	2.15067792e-04
3.41000000e-01	1.71674753e-02	2.13543530e-04
3.41500000e-01	1.71925669e-02	2.14405504e-04
3.42000000e-01	1.72653826e-02	2.14744023e-04
3.42500000e-01	1.70979391e-02	2.13021649e-04
3.43000000e-01	1.71016614e-02	2.12810415e-04
3.43500000e-01	1.72503899e-02	2.14597688e-04
3.44000000e-01	1.72459392e-02	2.14643370e-04
3.44500000e-01	1.71443214e-02	2.13070394e-04
3.45000000e-01	1.72555202e-02	2.13250087e-04
3.45500000e-01	1.71365606e-02	2.12290788e-04
3.46000000e-01	1.71580591e-02	2.12744642e-04
3.46500000e-01	1.72662096e-02	2.13496642e-04
3.47000000e-01	1.71664875e-02	2.11867685e-04
3.47500000e-01	1.72901164e-02	2.13138769e-04
3.48000000e-01	1.71319204e-02	2.11363187e-04
3.48500000e-01	1.72621294e-02	2.13132510e-04
3.49000000e-01	1.70364240e-02	2.09928489e-04
3.49500000e-01	1.70468762e-02	2.10675433e-04
3.50000000e-01	1.70506437e-02	1.71350345e-04
3.51000000e-01	1.70647163e-02	1.48502794e-04
3.52000000e-01	1.71674771e-02	1.48961305e-04
3.53000000e-01	1.71732477e-02	1.48504176e-04
3.54000000e-01	1.70370757e-02	1.47339899e-04
3.55000000e-01	1.70525454e-02	1.47584494e-04
3.56000000e-01	1.70851556e-02	1.48160173e-04
3.57000000e-01	1.70134769e-02	1.50308233e-04
3.58000000e-01	1.68397529e-02	1.50006812e-04
3.59000000e-01	1.69002259e-02	1.51939876e-04
3.60000000e-01	1.69594980e-02	1.53243790e-04
3.61000000e-01	1.68839742e-02	1.53354427e-04
3.62000000e-01	1.68644690e-02	1.53857693e-04
3.63000000e-01	1.68260136e-02	1.54037587e-04
3.64000000e-01	1.68511021e-02	1.54816640e-04
3.65000000e-01	1.67897779e-02	1.54821075e-04
3.66000000e-01	1.67583095e-02	1.52731239e-04
3.67000000e-01	1.68945969e-02	1.51344928e-04
3.68000000e-01	1.68008413e-02	1.49677792e-04
3.69000000e-01	1.65363268e-02	1.47081449e-04
3.70000000e-01	1.67828283e-02	1.48387244e-04
3.71000000e-01	1.68067302e-02	1.50593558e-04
3.72000000e-01	1.66525712e-02	1.50087097e-04
3.73000000e-01	1.67084918e-02	1.51010915e-04
3.74000000e-01	1.66410759e-02	1.50176830e-04
3.75000000e-01	1.66289982e-02	1.50408399e-04
3.76000000e-01	1.67242717e-02	1.50770028e-04
3.77000000e-01	1.66846018e-02	1.51074931e-04
3.78000000e-01	1.64272940e-02	1.48858857e-04
3.79000000e-01	1.64415334e-02	1.48688877e-04
3.80000000e-01	1.65753037e-02	1.49091791e-04
3.81000000e-01	1.65965718e-02	1.49721384e-04
3.82000000e-01	1.65538228e-02	1.49159926e-04
3.83000000e-01	1.65735121e-02	1.49211891e-04
3.84000000e-01	1.64879369e-02	1.48698803e-04
3.85000000e-01	1.63078610e-02	1.47468381e-04
3.86000000e-01	1.64354221e-02	1.48187006e-04
3.87000000e-01	1.62918743e-02	1.46629156e-04
3.88000000e-01	1.64624086e-02	1.48447167e-04
3.89000000e-01	1.64280204e-02	1.48077874e-04
3.90000000e-01	1.63619532e-02	1.47242213e-04
3.91000000e-01	1.62588156e-02	1.46577686e-04
3.92000000e-01	1.63566326e-02	1.47252002e-04
3.93000000e-01	1.63232945e-02	1.46731707e-04
3.94000000e-01	1.63826801e-02	1.47126995e-04
3.95000000e-01	1.62402780e-02	1.45746151e-04
3.96000000e-01	1.62907840e-02	1.46510665e-04
3.97000000e-01	1.61568649e-02	1.45395326e-04
3.98000000e-01	1.62084436e-02	1.45667428e-04
3.99000000e-01	1.62812885e-02	1.46319998e-04
4.00000000e-01	1.61826411e-02	1.45843739e-04
4.01000000e-01	1.61788972e-02	1.45712193e-04
4.02000000e-01	1.62156538e-02	1.45835182e-04
4.03000000e-01	1.62344395e-02	1.45847730e-04
4.04000000e-01	1.62507796e-02	1.46127596e-04
4.05000000e-01	1.61891668e-02	1.45507115e-04
4.06000000e-01	1.60597913e-02	1.44236845e-04
4.07000000e-01	1.61308262e-02	1.44805848e-04
4.08000000e-01	1.60999138e-02	1.44728906e-04
4.09000000e-01	1.61320483e-02	1.45227551e-04
4.10000000e-01	1.61463334e-02	1.44775806e-04
4.11000000e-01	1.60286553e-02	1.43909025e-04
4.12000000e-01	1.59884990e-02	1.43969921e-04
4.13000000e-01	1.59698071e-02	1.43400247e-04
4.14000000e-01	1.59870250e-02	1.43281950e-04
4.15000000e-01	1.59003834e-02	1.42621575e-04
4.16000000e-01	1.60147019e-02	1.43432611e-04
4.17000000e-01	1.60740436e-02	1.43778222e-04
4.18000000e-01	1.58993184e-02	1.44116519e-04
4.19000000e-01	1.60730966e-02	1.47247956e-04
4.20000000e-01	1.61010033e-02	1.48323414e-04
4.21000000e-01	1.59932702e-02	1.47940486e-04
4.22000000e-01	1.59167978e-02	1.47997799e-04
4.23000000e-01	1.60128308e-02	1.49068662e-04
4.24000000e-01	1.60030638e-02	1.49295696e-04
4.25000000e-01	1.61042834e-02	1.50044600e-04
4.26000000e-01	1.59395043e-02	1.48897874e-04
4.27000000e-01	1.59883883e-02	1.49565887e-04
4.28000000e-01	1.60126157e-02	1.49730594e-04
4.29000000e-01	1.60481174e-02	1.50695091e-04
4.30000000e-01	1.59023375e-02	1.49436308e-04
4.31000000e-01	1.60383689e-02	1.50145923e-04
4.32000000e-01	1.56988904e-02	1.48042083e-04
4.33000000e-01	1.60424439e-02	1.50502135e-04
4.34000000e-01	1.58183843e-02	1.48534769e-04
4.35000000e-01	1.57484722e-02	1.48572066e-04
4.36000000e-01	1.59406559e-02	1.50388469e-04
4.37000000e-01	1.58948552e-02	1.49677609e-04
4.38000000e-01	1.57836578e-02	1.48891850e-04
4.39000000e-01	1.57040827e-02	1.49003251e-04
4.40000000e-01	1.57880407e-02	1.49450609e-04
4.41000000e-01	1.59355566e-02	1.51403759e-04
4.42000000e-01	1.58665887e-02	1.50662698e-04
4.43000000e-01	1.58628210e-02	1.51010945e-04
4.44000000e-01	1.58287916e-02	1.50992156e-04
4.45000000e-01	1.58169991e-02	1.51074886e-04
4.46000000e-01	1.58543657e-02	1.51175579e-04
4.47000000e-01	1.57895453e-02	1.50868745e-04
4.48000000e-01	1.57721278e-02	1.50495934e-04
4.49000000e-01	1.56635015e-02	1.49722781e-04
4.50000000e-01	1.56449582e-02	1.50027993e-04
4.51000000e-01	1.56702572e-02	1.50545341e-04
4.52000000e-01	1.57950017e-02	1.51831390e-04
4.53000000e-01	1.57349344e-02	1.50788618e-04
4.54000000e-01	1.56788382e-02	1.51151029e-04
4.55000000e-01	1.57124453e-02	1.51317998e-04
4.56000000e-01	1.55060274e-02	1.49330435e-04
4.57000000e-01	1.56652333e-02	1.50832030e-04
4.58000000e-01	1.56431103e-02	1.50855089e-04
4.59000000e-01	1.55894846e-02	1.50707928e-04
4.60000000e-01	1.56039245e-02	1.51409791e-04
4.61000000e-01	1.55847050e-02	1.50771129e-04
4.62000000e-01	1.56682429e-02	1.51480615e-04
4.63000000e-01	1.55008730e-02	1.50708819e-04
4.64000000e-01	1.55423896e-02	1.50876977e-04
4.65000000e-01	1.55670259e-02	1.50984326e-04
4.66000000e-01	1.54636892e-02	1.50630132e-04
4.67000000e-01	1.55908293e-02	1.51503877e-04
4.68000000e-01	1.55280133e-02	1.50701311e-04
4.69000000e-01	1.55694479e-02	1.51574406e-04
4.70000000e-01	1.54926486e-02	1.51243251e-04
4.71000000e-01	1.54472747e-02	1.50460298e-04
4.72000000e-01	1.55571813e-02	1.50874113e-04
4.73000000e-01	1.55241087e-02	1.51036488e-04
4.74000000e-01	1.55289905e-02	1.51012101e-04
4.75000000e-01	1.54764068e-02	1.50995695e-04
4.76000000e-01	1.53769372e-02	1.49750822e-04
4.77000000e-01	1.55060683e-02	1.51047909e-04
4.78000000e-01	1.52732215e-02	1.49038250e-04
4.79000000e-01	1.53938707e-02	1.50348995e-04
4.80000000e-01	1.53480729e-02	1.49518192e-04
4.81000000e-01	1.53590018e-02	1.50046182e-04
4.82000000e-01	1.53069360e-02	1.49207859e-04
4.83000000e-01	1.52003197e-02	1.48632925e-04
4.84000000e-01	1.53055579e-02	1.49246548e-04
4.85000000e-01	1.52643635e-02	1.49614745e-04
4.86000000e-01	1.52844926e-02	1.49432208e-04
4.87000000e-01	1.53790434e-02	1.50589346e-04
4.88000000e-01	1.54235475e-02	1.50742532e-04
4.89000000e-01	1.51845945e-02	1.49040541e-04
4.90000000e-01	1.52545058e-02	1.49937083e-04
4.91000000e-01	1.53171922e-02	1.49790406e-04
4.92000000e-01	1.51846598e-02	1.49514786e-04
4.93000000e-01	1.53317327e-02	1.50518143e-04
4.94000000e-01	1.52951124e-02	1.50368325e-04
4.95000000e-01	1.52027445e-02	1.50485450e-04
4.96000000e-01	1.51316189e-02	1.54513268e-04
4.97000000e-01	1.52960417e-02	1.58574125e-04
4.98000000e-01	1.52396884e-02	1.60166822e-04
4.99000000e-01	1.52629392e-02	1.62740720e-04
5.00000000e-01	1.53233231e-02	1.64582279e-04
5.01000000e-01	1.52770165e-02	1.65892065e-04
5.02000000e-01	1.51514790e-02	1.67024891e-04
5.03000000e-01	1.54300650e-02	1.70310903e-04
5.04000000e-01	1.52557637e-02	1.70632950e-04
5.05000000e-01	1.52011996e-02	1.66938637e-04
5.06000000e-01	1.54583082e-02	1.66241674e-04
5.07000000e-01	1.52889221e-02	1.62901507e-04
5.08000000e-01	1.52598113e-02	1.61431864e-04
5.09000000e-01	1.51469554e-02	1.59368173e-04
5.10000000e-01	1.50797247e-02	1.58281469e-04
5.11000000e-01	1.52209865e-02	1.59339482e-04
5.12000000e-01	1.51798416e-02	1.58282647e-04
5.13000000e-01	1.51476937e-02	1.57928338e-04
5.14000000e-01	1.50858812e-02	1.56914618e-04
5.15000000e-01	1.52248585e-02	1.58049781e-04
5.16000000e-01	1.50758751e-02	1.55792392e-04
5.17000000e-01	1.50517833e-02	1.55932592e-04
5.18000000e-01	1.52178372e-02	1.56996495e-04
5.19000000e-01	1.51521425e-02	1.55775643e-04
5.20000000e-01	1.51439514e-02	1.55361707e-04
5.21000000e-01	1.50649752e-02	1.54718699e-04
5.22000000e-01	1.51406852e-02	1.55017617e-04
5.23000000e-01	1.50313552e-02	1.54220811e-04
5.24000000e-01	1.49637947e-02	1.53455742e-04
5.25000000e-01	1.48941362e-02	1.52949742e-04
5.26000000e-01	1.49995679e-02	1.53853751e-04
5.27000000e-01	1.50762167e-02	1.54251229e-04
5.28000000e-01	1.50981387e-02	1.54427872e-04
5.29000000e-01	1.50042171e-02	1.53794057e-04
5.30000000e-01	1.50538095e-02	1.54095372e-04
5.31000000e-01	1.49775708e-02	1.53565678e-04
5.32000000e-01	1.49605107e-02	1.53523867e-04
5.33000000e-01	1.48619589e-02	1.52453618e-04
5.34000000e-01	1.49731618e-02	1.53871644e-04
5.35000000e-01	1.49042848e-02	1.52660879e-04
5.36000000e-01	1.48818739e-02	1.52402394e-04
5.37000000e-01	1.49310462e-02	1.53227982e-04
5.38000000e-01	1.48372567e-02	1.52274951e-04
5.39000000e-01	1.50158138e-02	1.54055401e-04
5.40000000e-01	1.48848129e-02	1.52430255e-04
5.41000000e-01	1.47753696e-02	1.51648308e-04
5.42000000e-01	1.48463900e-02	1.52634611e-04
5.43000000e-01	1.47944216e-02	1.51674486e-04
5.44000000e-01	1.48581949e-02	1.52431365e-04
5.45000000e-01	1.49314864e-02	1.52864609e-04
5.46000000e-01	1.47524570e-02	1.50704493e-04
5.47000000e-01	1.47719610e-02	1.51626078e-04
5.48000000e-01	1.48248270e-02	1.52543684e-04
5.49000000e-01	1.47257362e-02	1.50710010e-04
5.50000000e-01	1.48421847e-02	1.51654310e-04
5.51000000e-01	1.48052789e-02	1.51478713e-04
5.52000000e-01	1.47942854e-02	1.50851400e-04
5.53000000e-01	1.47822994e-02	1.50571945e-04
5.54000000e-01	1.47216659e-02	1.49675166e-04
5.55000000e-01	1.46082071e-02	1.48784403e-04
5.56000000e-01	1.46114953e-02	1.49054667e-04
5.57000000e-01	1.45516637e-02	1.48402511e-04
5.58000000e-01	1.46120481e-02	1.48919500e-04
5.59000000e-01	1.45386109e-02	1.47613469e-04
5.60000000e-01	1.46166590e-02	1.49217794e-04
5.61000000e-01	1.47647402e-02	1.50311354e-04
5.62000000e-01	1.46390993e-02	1.49230077e-04
5.63000000e-01	1.45883795e-02	1.49026705e-04
5.64000000e-01	1.45705614e-02	1.48276866e-04
5.65000000e-01	1.45248046e-02	1.48028171e-04
5.66000000e-01	1.45365029e-02	1.48312022e-04
5.67000000e-01	1.45999417e-02	1.49060792e-04
5.68000000e-01	1.44736757e-02	1.48094960e-04
5.69000000e-01	1.46694579e-02	1.49299418e-04
5.70000000e-01	1.45073480e-02	1.47860218e-04
5.71000000e-01	1.44870720e-02	1.47862052e-04
5.72000000e-01	1.43909498e-02	1.46525791e-04
5.73000000e-01	1.44043176e-02	1.47340377e-04
5.74000000e-01	1.44486745e-02	1.47555006e-04
5.75000000e-01	1.44002401e-02	1.47657391e-04
5.76000000e-01	1.43859369e-02	1.47067518e-04
5.77000000e-01	1.43912461e-02	1.47425294e-04
5.78000000e-01	1.44511979e-02	1.47727522e-04
5.79000000e-01	1.44366835e-02	1.47426634e-04
5.80000000e-01	1.43616473e-02	1.46990311e-04
5.81000000e-01	1.45022906e-02	1.48442694e-04
5.82000000e-01	1.43540430e-02	1.46946740e-04
5.83000000e-01	1.45370821e-02	1.48400058e-04
5.84000000e-01	1.43446010e-02	1.46790499e-04
5.85000000e-01	1.44458144e-02	1.47816959e-04
5.86000000e-01	1.44079965e-02	1.47939898e-04
5.87000000e-01	1.43296391e-02	1.46584619e-04
5.88000000e-01	1.42458677e-02	1.46221325e-04
5.89000000e-01	1.44845537e-02	1.48228784e-04
5.90000000e-01	1.43346920e-02	1.46880802e-04
5.91000000e-01	1.43940794e-02	1.47702174e-04
5.92000000e-01	1.42826090e-02	1.46048246e-04
5.93000000e-01	1.42707976e-02	1.46094204e-04
5.94000000e-01	1.43648135e-02	1.46870059e-04
5.95000000e-01	1.43563763e-02	1.46873941e-04
5.96000000e-01	1.43410523e-02	1.47223627e-04
5.97000000e-01	1.42462690e-02	1.45906694e-04
5.98000000e-01	1.44027984e-02	1.47223248e-04
5.99000000e-01	1.42655558e-02	1.46579914e-04
6.00000000e-01	1.43260711e-02	1.46910690e-04
6.01000000e-01	1.43101663e-02	1.47266752e-04
6.02000000e-01	1.42445723e-02	1.46152503e-04
6.03000000e-01	1.42826736e-02	1.46688384e-04
6.04000000e-01	1.42384859e-02	1.46336996e-04
6.05000000e-01	1.41682704e-02	1.45907134e-04
6.06000000e-01	1.42374499e-02	1.46295227e-04
6.07000000e-01	1.43238618e-02	1.47421498e-04
6.08000000e-01	1.40602843e-02	1.44404055e-04
6.09000000e-01	1.42130772e-02	1.45810898e-04
6.10000000e-01	1.40924801e-02	1.44923013e-04
6.11000000e-01	1.41820143e-02	1.46006967e-04
6.12000000e-01	1.41188107e-02	1.45296458e-04
6.13000000e-01	1.42355226e-02	1.46062935e-04
6.14000000e-01	1.40962610e-02	1.45043387e-04
6.15000000e-01	1.42025313e-02	1.46349096e-04
6.16000000e-01	1.41915995e-02	1.45967365e-04
6.17000000e-01	1.40474296e-02	1.44380996e-04
6.18000000e-01	1.42126651e-02	1.46203830e-04
6.19000000e-01	1.42574106e-02	1.45817565e-04
6.20000000e-01	1.39667517e-02	1.43581731e-04
6.21000000e-01	1.39941312e-02	1.43654599e-04
6.22000000e-01	1.41681124e-02	1.45093737e-04
6.23000000e-01	1.41735665e-02	1.44667689e-04
6.24000000e-01	1.41329117e-02	1.44228661e-04
6.25000000e-01	1.39927323e-02	1.43383273e-04
6.26000000e-01	1.40974693e-02	1.43608147e-04
6.27000000e-01	1.39758882e-02	1.42948107e-04
6.28000000e-01	1.40800656e-02	1.43996493e-04
6.29000000e-01	1.40854166e-02	1.43532817e-04
6.30000000e-01	1.41519868e-02	1.44825167e-04
6.31000000e-01	1.40550282e-02	1.43169071e-04
6.32000000e-01	1.39495250e-02	1.42493017e-04
6.33000000e-01	1.42022934e-02	1.45050079e-04
6.34000000e-01	1.41333481e-02	1.47930621e-04
6.35000000e-01	1.39957396e-02	1.50930679e-04
6.36000000e-01	1.39711172e-02	1.53289409e-04
6.37000000e-01	1.40342509e-02	1.56612921e-04
6.38000000e-01	1.39859439e-02	1.57711156e-04
6.39000000e-01	1.40282226e-02	1.60398466e-04
6.40000000e-01	1.40755437e-02	1.63453914e-04
6.41000000e-01	1.41500249e-02	1.65351949e-04
6.42000000e-01	1.39827639e-02	1.65400020e-04
6.43000000e-01	1.40121921e-02	1.65855814e-04
6.44000000e-01	1.40208967e-02	1.59925535e-04
6.45000000e-01	1.41216108e-02	1.59172047e-04
6.46000000e-01	1.40873693e-02	1.56916099e-04
6.47000000e-01	1.41946626e-02	1.57060001e-04
6.48000000e-01	1.41229020e-02	1.55231500e-04
6.49000000e-01	1.41764487e-02	1.54866200e-04
6.50000000e-01	1.40787762e-02	1.52374067e-04
6.51000000e-01	1.38950671e-02	1.50832014e-04
6.52000000e-01	1.40365169e-02	1.51097286e-04
6.53000000e-01	1.40794041e-02	1.51470220e-04
6.54000000e-01	1.40948146e-02	1.50844975e-04
6.55000000e-01	1.39733484e-02	1.49652094e-04
6.56000000e-01	1.40209464e-02	1.49939095e-04
6.57000000e-01	1.39205559e-02	1.48358328e-04
6.58000000e-01	1.40088465e-02	1.49479027e-04
6.59000000e-01	1.39540171e-02	1.48704660e-04
6.60000000e-01	1.38160151e-02	1.47352464e-04
6.61000000e-01	1.39841619e-02	1.48219931e-04
6.62000000e-01	1.41347478e-02	1.50583477e-04
6.63000000e-01	1.39908907e-02	1.48599107e-04
6.64000000e-01	1.39943136e-02	1.48892680e-04
6.65000000e-01	1.40600114e-02	1.49004843e-04
6.66000000e-01	1.39225176e-02	1.47993642e-04
6.67000000e-01	1.39803995e-02	1.48524870e-04
6.68000000e-01	1.39284713e-02	1.48012565e-04
6.69000000e-01	1.41766264e-02	1.50051818e-04
6.70000000e-01	1.39038319e-02	1.47453574e-04
6.71000000e-01	1.39370561e-02	1.47523999e-04
6.72000000e-01	1.39149398e-02	1.47167092e-04
6.73000000e-01	1.39297418e-02	1.47148724e-04
6.74000000e-01	1.38049268e-02	1.46267051e-04
6.75000000e-01	1.39083803e-02	1.47292325e-04
6.76000000e-01	1.38677870e-02	1.46657355e-04
6.77000000e-01	1.38722883e-02	1.46038090e-04
6.78000000e-01	1.38771534e-02	1.46815096e-04
6.79000000e-01	1.37845558e-02	1.45863080e-04
6.80000000e-01	1.38590219e-02	1.46503873e-04
6.81000000e-01	1.38463945e-02	1.46136321e-04
6.82000000e-01	1.38553551e-02	1.46078040e-04
6.83000000e-01	1.36480709e-02	1.44464673e-04
6.84000000e-01	1.37178625e-02	1.44662868e-04
6.85000000e-01	1.38476049e-02	1.46084770e-04
6.86000000e-01	1.37229517e-02	1.45061248e-04
6.87000000e-01	1.37973603e-02	1.45574962e-04
6.88000000e-01	1.39173273e-02	1.46683818e-04
6.89000000e-01	1.39211299e-02	1.46484497e-04
6.90000000e-01	1.37580036e-02	1.45356435e-04
6.91000000e-01	1.37928942e-02	1.45607724e-04
6.92000000e-01	1.36613190e-02	1.44341600e-04
6.93000000e-01	1.37975922e-02	1.45321221e-04
6.94000000e-01	1.37621236e-02	1.45201075e-04
6.95000000e-01	1.37341440e-02	1.44821262e-04
6.96000000e-01	1.35927621e-02	1.43131221e-04
6.97000000e-01	1.35864819e-02	1.43472120e-04
6.98000000e-01	1.38232578e-02	1.45277650e-04
6.99000000e-01	1.37294251e-02	1.44820037e-04
7.00000000e-01	1.37046794e-02	1.44741010e-04
7.01000000e-01	1.36256190e-02	1.43649764e-04
7.02000000e-01	1.35659730e-02	1.42536314e-04
7.03000000e-01	1.38311330e-02	1.45539482e-04
7.04000000e-01	1.37030768e-02	1.44331773e-04
7.05000000e-01	1.37877332e-02	1.44895703e-04
7.06000000e-01	1.35861241e-02	1.43640831e-04
7.07000000e-01	1.36406396e-02	1.42943947e-04
7.08000000e-01	1.36951676e-02	1.43879949e-04
7.09000000e-01	1.36040048e-02	1.43062066e-04
7.10000000e-01	1.35873079e-02	1.43272726e-04
7.11000000e-01	1.35492726e-02	1.43056185e-04
7.12000000e-01	1.34433727e-02	1.41712677e-04
7.13000000e-01	1.36491666e-02	1.43255631e-04
7.14000000e-01	1.35280556e-02	1.42114675e-04
7.15000000e-01	1.36526416e-02	1.43694500e-04
7.16000000e-01	1.36593961e-02	1.43307829e-04
7.17000000e-01	1.35189626e-02	1.42902269e-04
7.18000000e-01	1.35061254e-02	1.42448515e-04
7.19000000e-01	1.34659914e-02	1.41973931e-04
7.20000000e-01	1.34881123e-02	1.41764006e-04
7.21000000e-01	1.34416005e-02	1.41600688e-04
7.22000000e-01	1.33060662e-02	1.40351241e-04
7.23000000e-01	1.33410208e-02	1.41177412e-04
7.24000000e-01	1.32656577e-02	1.39918419e-04
7.25000000e-01	1.34757030e-02	1.41786072e-04
7.26000000e-01	1.34360098e-02	1.41795480e-04
7.27000000e-01	1.33438117e-02	1.40620837e-04
7.28000000e-01	1.34861560e-02	1.42442157e-04
7.29000000e-01	1.35223523e-02	1.42666634e-04
7.30000000e-01	1.35150147e-02	1.42277594e-04
7.31000000e-01	1.32692344e-02	1.40193814e-04
7.32000000e-01	1.33854299e-02	1.40742128e-04
7.33000000e-01	1.33697419e-02	1.41157804e-04
7.34000000e-01	1.33453257e-02	1.40805050e-04
7.35000000e-01	1.32787344e-02	1.39870166e-04
7.36000000e-01	1.32499772e-02	1.38814211e-04
7.37000000e-01	1.32811757e-02	1.39135777e-04
7.38000000e-01	1.34121070e-02	1.40253766e-04
7.39000000e-01	1.32369661e-02	1.38327906e-04
7.40000000e-01	1.33098944e-02	1.39066951e-04
7.41000000e-01	1.33017283e-02	1.38820910e-04
7.42000000e-01	1.33012007e-02	1.38993790e-04
7.43000000e-01	1.33044300e-02	1.38748731e-04
7.44000000e-01	1.32488911e-02	1.38399102e-04
7.45000000e-01	1.31770608e-02	1.37369093e-04
7.46000000e-01	1.32801450e-02	1.38617932e-04
7.47000000e-01	1.32946431e-02	1.38633496e-04
7.48000000e-01	1.31977655e-02	1.38030620e-04
7.49000000e-01	1.30933163e-02	1.37020869e-04
7.50000000e-01	1.31947873e-02	1.37531023e-04
7.51000000e-01	1.32543307e-02	1.38357936e-04
7.52000000e-01	1.32165698e-02	1.37986612e-04
7.53000000e-01	1.30482804e-02	1.36511349e-04
7.54000000e-01	1.31094966e-02	1.36512162e-04
7.55000000e-01	1.31653195e-02	1.37232914e-04
7.56000000e-01	1.30097666e-02	1.36319179e-04
7.57000000e-01	1.31038467e-02	1.36722812e-04
7.58000000e-01	1.30821624e-02	1.36723500e-04
7.59000000e-01	1.31467843e-02	1.37164086e-04
7.60000000e-01	1.30224803e-02	1.36051785e-04
7.61000000e-01	1.31767504e-02	1.37331670e-04
7.62000000e-01	1.30784446e-02	1.35946742e-04
7.63000000e-01	1.30815390e-02	1.35689080e-04
7.64000000e-01	1.29662846e-02	1.34351352e-04
7.65000000e-01	1.31396052e-02	1.36273226e-04
7.66000000e-01	1.30016839e-02	1.34731252e-04
7.67000000e-01	1.30220130e-02	1.34937108e-04
7.68000000e-01	1.29696128e-02	1.34344073e-04
7.69000000e-01	1.30373832e-02	1.35103992e-04
7.70000000e-01	1.30583740e-02	1.35333579e-04
7.71000000e-01	1.31181882e-02	1.36026245e-04
7.72000000e-01	1.31411740e-02	1.40386164e-04
7.73000000e-01	1.31364737e-02	1.44529360e-04
7.74000000e-01	1.30979418e-02	1.47079428e-04
7.75000000e-01	1.28132099e-02	1.46616199e-04
7.76000000e-01	1.29138532e-02	1.50582144e-04
7.77000000e-01	1.29710836e-02	1.53534915e-04
7.78000000e-01	1.29323743e-02	1.54418575e-04
7.79000000e-01	1.27605340e-02	1.54614160e-04
7.80000000e-01	1.27507642e-02	1.56161661e-04
7.81000000e-01	1.27708490e-02	1.58202447e-04
7.82000000e-01	1.27866984e-02	1.60476728e-04
7.83000000e-01	1.30210164e-02	1.64538329e-04
7.84000000e-01	1.28249822e-02	1.64157639e-04
7.85000000e-01	1.29580127e-02	1.67010653e-04
7.86000000e-01	1.28179334e-02	1.67666992e-04
7.87000000e-01	1.26301076e-02	1.67211517e-04
7.88000000e-01	1.27147927e-02	1.68616090e-04
7.89000000e-01	1.27604217e-02	1.71198236e-04
7.90000000e-01	1.28517336e-02	1.73885105e-04
7.91000000e-01	1.29896609e-02	1.77361738e-04
7.92000000e-01	1.27148938e-02	1.75892104e-04
7.93000000e-01	1.26484721e-02	1.76715581e-04
7.94000000e-01	1.26430196e-02	1.78599509e-04
7.95000000e-01	1.26861919e-02	1.81675700e-04
7.96000000e-01	1.27316070e-02	1.83954778e-04
7.97000000e-01	1.26468364e-02	1.84400989e-04
7.98000000e-01	1.26964726e-02	1.87352324e-04
7.99000000e-01	1.24816432e-02	1.86266846e-04
8.00000000e-01	1.26653622e-02	1.90029237e-04
8.01000000e-01	1.26406563e-02	1.92047209e-04
8.02000000e-01	1.27087024e-02	1.94675785e-04
8.03000000e-01	1.25810198e-02	1.95049504e-04
8.04000000e-01	1.26355115e-02	1.97681700e-04
8.05000000e-01	1.26868264e-02	2.01198225e-04
8.06000000e-01	1.26209094e-02	2.01844268e-04
8.07000000e-01	1.27535090e-02	2.05523296e-04
8.08000000e-01	1.26912409e-02	2.07158169e-04
8.09000000e-01	1.25192485e-02	2.07139046e-04
8.10000000e-01	1.26205575e-02	2.11167159e-04
8.11000000e-01	1.26248701e-02	2.13638864e-04
8.12000000e-01	1.25182798e-02	2.15011417e-04
8.13000000e-01	1.24354989e-02	2.16122824e-04
8.14000000e-01	1.24358898e-02	2.17253895e-04
8.15000000e-01	1.25357487e-02	2.22481462e-04
8.16000000e-01	1.25738288e-02	2.25148634e-04
8.17000000e-01	1.24739251e-02	2.26383405e-04
8.18000000e-01	1.24323619e-02	2.29519784e-04
8.19000000e-01	1.22869721e-02	2.30216160e-04
8.20000000e-01	1.25483300e-02	2.35517472e-04
8.21000000e-01	1.23704111e-02	2.35700623e-04
8.22000000e-01	1.23975302e-02	2.40198095e-04
8.23000000e-01	1.25059242e-02	2.46820011e-04
8.24000000e-01	1.23892060e-02	2.47207463e-04
8.25000000e-01	1.24279879e-02	2.51148989e-04
8.26000000e-01	1.24506607e-02	2.54841602e-04
8.27000000e-01	1.22014921e-02	2.54440186e-04
8.28000000e-01	1.23823085e-02	2.60385750e-04
8.29000000e-01	1.23771658e-02	2.65179175e-04
8.30000000e-01	1.24410031e-02	2.71157624e-04
8.31000000e-01	1.23535732e-02	2.74937986e-04
8.32000000e-01	1.23048260e-02	2.76495959e-04
8.33000000e-01	1.20029186e-02	2.74805620e-04
8.34000000e-01	1.20152458e-02	2.79981377e-04
8.35000000e-01	1.20239379e-02	2.87119752e-04
8.36000000e-01	1.22385043e-02	2.93259040e-04
8.37000000e-01	1.20817143e-02	2.98299427e-04
8.38000000e-01	1.21276535e-02	3.06297944e-04
8.39000000e-01	1.22935909e-02	3.15850843e-04
8.40000000e-01	1.21326164e-02	3.17300937e-04
8.41000000e-01	1.20756452e-02	3.26174288e-04
8.42000000e-01	1.21689717e-02	3.33651678e-04
8.43000000e-01	1.23558924e-02	3.46054472e-04
8.44000000e-01	1.21485566e-02	3.47567330e-04
8.45000000e-01	1.21774163e-02	3.55748161e-04
8.46000000e-01	1.18710654e-02	3.55281839e-04
8.47000000e-01	1.21722752e-02	3.76046895e-04
8.48000000e-01	1.18380122e-02	3.81082893e-04
8.49000000e-01	1.20205674e-02	3.99394642e-04
8.50000000e-01	1.17932886e-02	4.06658074e-04
8.51000000e-01	1.18406257e-02	4.23628013e-04
8.52000000e-01	1.21848198e-02	4.56192240e-04
8.53000000e-01	1.20568328e-02	4.61929756e-04
8.54000000e-01	1.16953773e-02	4.69520065e-04
8.55000000e-01	1.12963523e-02	4.83726449e-04
8.56000000e-01	1.14030145e-02	4.88920204e-04
8.57000000e-01	1.15596549e-02	5.13485901e-04
8.58000000e-01	1.12299211e-02	5.17426918e-04
8.59000000e-01	1.15438707e-02	5.47933995e-04
8.60000000e-01	1.17651249e-02	5.61907614e-04
8.61000000e-01	1.10388994e-02	5.61241205e-04
8.62000000e-01	1.16868689e-02	6.14382292e-04
8.63000000e-01	1.21057722e-02	6.56046671e-04
8.64000000e-01	1.15504257e-02	6.55301059e-04
8.65000000e-01	1.17324177e-02	6.94184799e-04
8.66000000e-01	1.16682769e-02	7.20825533e-04
8.67000000e-01	1.12790676e-02	7.51611624e-04
8.68000000e-01	1.17350654e-02	8.17512690e-04
8.69000000e-01	1.11989572e-02	8.60613639e-04
8.70000000e-01	1.15691348e-02	9.14245977e-04
8.71000000e-01	1.16392946e-02	1.04944501e-03
8.72000000e-01	1.29459136e-02	1.30077684e-03
8.73000000e-01	1.16326880e-02	1.40153420e-03
8.74000000e-01	1.34219254e-02	2.05268140e-03
8.75000000e-01	1.32797069e-02	4.34755165e-03
