% Filename : SSW19_00033_00021.h5
% Date & Time : 30-Oct-2025 17:24:13
% X-ray Energy (keV) : 13.30001
% Exposure Time (s) : 0.500
% Beam Center : 1461.24000, 208.98300
% Sample to Detector Distance (SDD) (mm) : 1990.750
% Detector Pixel Size (mm) : 0.075
% Photodiode Value : 140621.000
% I0 of Sample : 0
% I0 of Standard : 1
% 
% q(A^-1)   I(q)    I(q)_SE
0.00000000e+00	1.15630512e-02	6.67593701e-03
2.50000000e-04	0.00000000e+00	0.00000000e+00
5.00000000e-04	0.00000000e+00	0.00000000e+00
7.50000000e-04	0.00000000e+00	0.00000000e+00
1.00000000e-03	0.00000000e+00	0.00000000e+00
1.25000000e-03	0.00000000e+00	0.00000000e+00
1.50000000e-03	0.00000000e+00	0.00000000e+00
1.75000000e-03	0.00000000e+00	0.00000000e+00
2.00000000e-03	0.00000000e+00	0.00000000e+00
2.25000000e-03	0.00000000e+00	0.00000000e+00
2.50000000e-03	0.00000000e+00	0.00000000e+00
2.75000000e-03	0.00000000e+00	0.00000000e+00
3.00000000e-03	0.00000000e+00	0.00000000e+00
3.25000000e-03	3.80976222e+03	3.15419698e+03
3.50000000e-03	4.73246250e+02	2.00757554e+02
3.75000000e-03	4.45317748e+02	2.43395974e+02
4.00000000e-03	4.71041025e+02	2.08683149e+02
4.25000000e-03	2.01041801e+02	8.55997119e+01
4.50000000e-03	2.75871918e+02	8.70997831e+01
4.75000000e-03	3.23443990e+02	9.35689039e+01
5.00000000e-03	2.43141642e+02	6.75476335e+01
5.25000000e-03	2.13744114e+02	5.89335694e+01
5.50000000e-03	1.78932415e+02	4.88905533e+01
5.75000000e-03	1.48774379e+02	3.81665746e+01
6.00000000e-03	1.18536441e+02	2.99535035e+01
6.25000000e-03	1.04058375e+02	2.50970174e+01
6.50000000e-03	9.42454326e+01	2.31758746e+01
6.75000000e-03	7.92835148e+01	1.89779821e+01
7.00000000e-03	6.91342928e+01	1.61620496e+01
7.25000000e-03	5.95708922e+01	1.36393932e+01
7.50000000e-03	5.25983598e+01	1.21655034e+01
7.75000000e-03	4.46880022e+01	1.00448555e+01
8.00000000e-03	4.23943935e+01	9.28430306e+00
8.25000000e-03	3.53962924e+01	7.56737618e+00
8.50000000e-03	3.12359128e+01	6.54931547e+00
8.75000000e-03	2.96167821e+01	6.17299772e+00
9.00000000e-03	2.64797751e+01	5.36560346e+00
9.25000000e-03	2.27225012e+01	4.58204682e+00
9.50000000e-03	2.06882065e+01	4.18553852e+00
9.75000000e-03	1.84667126e+01	3.60632314e+00
1.00000000e-02	1.62273988e+01	3.18981485e+00
1.02500000e-02	1.48666451e+01	2.86101352e+00
1.05000000e-02	1.32779943e+01	2.47528535e+00
1.07500000e-02	1.24281754e+01	2.32003443e+00
1.10000000e-02	1.08485258e+01	1.95646033e+00
1.12500000e-02	9.62471943e+00	1.77089208e+00
1.15000000e-02	9.24199940e+00	1.64330262e+00
1.17500000e-02	7.65610876e+00	1.35218834e+00
1.20000000e-02	7.57001082e+00	1.31255200e+00
1.22500000e-02	7.45518742e+00	1.30931463e+00
1.25000000e-02	6.82124499e+00	1.15483905e+00
1.27500000e-02	6.11922544e+00	1.00165850e+00
1.30000000e-02	5.60995967e+00	9.11214518e-01
1.32500000e-02	5.13157257e+00	8.19175556e-01
1.35000000e-02	4.88906257e+00	7.76571481e-01
1.37500000e-02	4.51224744e+00	6.92186938e-01
1.40000000e-02	4.20556574e+00	6.52337334e-01
1.42500000e-02	3.93325125e+00	6.08389648e-01
1.45000000e-02	3.67942049e+00	5.57347998e-01
1.47500000e-02	3.45211258e+00	5.24248073e-01
1.50000000e-02	3.22105329e+00	4.82962885e-01
1.52500000e-02	3.03100486e+00	4.49207620e-01
1.55000000e-02	2.66084786e+00	3.81280772e-01
1.57500000e-02	2.51911846e+00	3.58183785e-01
1.60000000e-02	2.41165490e+00	3.38287524e-01
1.62500000e-02	2.33344884e+00	3.26860606e-01
1.65000000e-02	2.19414974e+00	3.06416022e-01
1.67500000e-02	2.04067584e+00	2.79408812e-01
1.70000000e-02	1.93306769e+00	2.63789280e-01
1.72500000e-02	1.81588123e+00	2.39142698e-01
1.75000000e-02	1.69629816e+00	2.29571183e-01
1.77500000e-02	1.61091303e+00	2.16115007e-01
1.80000000e-02	1.56992422e+00	2.10882693e-01
1.82500000e-02	1.39973980e+00	1.78558302e-01
1.85000000e-02	1.34212802e+00	1.73965545e-01
1.87500000e-02	1.28026412e+00	1.63319008e-01
1.90000000e-02	1.24396129e+00	1.57073678e-01
1.92500000e-02	1.15228690e+00	1.42612420e-01
1.95000000e-02	1.05178610e+00	1.31700855e-01
1.97500000e-02	1.04585386e+00	1.27245762e-01
2.00000000e-02	9.40304567e-01	1.10860498e-01
2.02500000e-02	8.81786599e-01	1.04508701e-01
2.05000000e-02	8.97198307e-01	1.04982488e-01
2.07500000e-02	8.70364115e-01	1.01979506e-01
2.10000000e-02	8.36528998e-01	9.73204294e-02
2.12500000e-02	8.44655474e-01	9.88730824e-02
2.15000000e-02	7.81952844e-01	8.95467446e-02
2.17500000e-02	7.58455159e-01	8.54431729e-02
2.20000000e-02	7.35812578e-01	8.27175034e-02
2.22500000e-02	7.06375472e-01	8.08667574e-02
2.25000000e-02	6.96193872e-01	7.70105882e-02
2.27500000e-02	6.57572500e-01	7.27521477e-02
2.30000000e-02	6.59601345e-01	7.24259672e-02
2.32500000e-02	6.15652539e-01	6.62241785e-02
2.35000000e-02	6.07452697e-01	6.56106197e-02
2.37500000e-02	5.78602503e-01	6.14391838e-02
2.40000000e-02	5.62886672e-01	6.08378377e-02
2.42500000e-02	5.43287229e-01	5.71051191e-02
2.45000000e-02	5.20963121e-01	5.41115671e-02
2.47500000e-02	4.97669231e-01	5.12952766e-02
2.50000000e-02	4.89305049e-01	5.06222912e-02
2.52500000e-02	4.73339438e-01	4.83940154e-02
2.55000000e-02	4.54091212e-01	4.47970456e-02
2.57500000e-02	4.40136769e-01	4.35559368e-02
2.60000000e-02	4.26070966e-01	4.23419564e-02
2.62500000e-02	4.07517690e-01	4.04964918e-02
2.65000000e-02	4.01566191e-01	3.93939824e-02
2.67500000e-02	3.95564903e-01	3.84766816e-02
2.70000000e-02	3.70668967e-01	3.58807648e-02
2.72500000e-02	3.67299265e-01	3.56486381e-02
2.75000000e-02	3.41893763e-01	3.30102012e-02
2.77500000e-02	3.42786874e-01	3.28132899e-02
2.80000000e-02	3.23961094e-01	3.08021836e-02
2.82500000e-02	3.20560450e-01	2.95524852e-02
2.85000000e-02	3.17738048e-01	2.99524373e-02
2.87500000e-02	3.10867830e-01	2.85352533e-02
2.90000000e-02	3.06691026e-01	2.82351657e-02
2.92500000e-02	2.90211165e-01	2.62273721e-02
2.95000000e-02	2.85841469e-01	2.57114588e-02
2.97500000e-02	2.74518318e-01	2.45061850e-02
3.00000000e-02	2.71602270e-01	2.40728347e-02
3.02500000e-02	2.63414189e-01	2.32860206e-02
3.05000000e-02	2.49972252e-01	2.16129913e-02
3.07500000e-02	2.53095513e-01	2.23345500e-02
3.10000000e-02	2.46044021e-01	2.13646808e-02
3.12500000e-02	2.36735656e-01	2.04607263e-02
3.15000000e-02	2.27112098e-01	1.93749535e-02
3.17500000e-02	2.16716606e-01	1.80517506e-02
3.20000000e-02	2.15149707e-01	1.79631587e-02
3.22500000e-02	2.12794639e-01	1.76646853e-02
3.25000000e-02	2.08091829e-01	1.73105670e-02
3.27500000e-02	2.01462298e-01	1.61829704e-02
3.30000000e-02	1.97278648e-01	1.59906306e-02
3.32500000e-02	1.93363297e-01	1.55541017e-02
3.35000000e-02	1.84922269e-01	1.49150093e-02
3.37500000e-02	1.83394795e-01	1.44710142e-02
3.40000000e-02	1.80393873e-01	1.45126089e-02
3.42500000e-02	1.75101931e-01	1.36900206e-02
3.45000000e-02	1.68249250e-01	1.32916526e-02
3.47500000e-02	1.67957651e-01	1.30912390e-02
3.50000000e-02	1.59747021e-01	1.23234680e-02
3.52500000e-02	1.60283773e-01	1.24301721e-02
3.55000000e-02	1.52711972e-01	1.16622666e-02
3.57500000e-02	1.52976391e-01	1.15768894e-02
3.60000000e-02	1.46884405e-01	1.11328411e-02
3.62500000e-02	1.42098643e-01	1.06675948e-02
3.65000000e-02	1.37688482e-01	1.00113751e-02
3.67500000e-02	1.39750677e-01	1.01087504e-02
3.70000000e-02	1.36480549e-01	9.96200727e-03
3.72500000e-02	1.32215047e-01	9.49575005e-03
3.75000000e-02	1.31143625e-01	9.54293358e-03
3.77500000e-02	1.26695257e-01	9.04470740e-03
3.80000000e-02	1.26541372e-01	8.94871599e-03
3.82500000e-02	1.21431589e-01	8.42271375e-03
3.85000000e-02	1.19460273e-01	8.38858792e-03
3.87500000e-02	1.17534366e-01	8.14394759e-03
3.90000000e-02	1.15169742e-01	8.12763968e-03
3.92500000e-02	1.13486344e-01	7.81925446e-03
3.95000000e-02	1.12721075e-01	7.76833563e-03
3.97500000e-02	1.06656005e-01	7.36937680e-03
4.00000000e-02	1.08162098e-01	7.29551548e-03
4.02500000e-02	1.05058070e-01	7.01741765e-03
4.05000000e-02	1.01952205e-01	6.74222487e-03
4.07500000e-02	1.01087461e-01	6.66000813e-03
4.10000000e-02	1.00010759e-01	6.59446711e-03
4.12500000e-02	9.85966006e-02	6.46289978e-03
4.15000000e-02	9.45039250e-02	6.08893956e-03
4.17500000e-02	9.43353388e-02	6.07773897e-03
4.20000000e-02	9.05013399e-02	5.75572683e-03
4.22500000e-02	9.08043895e-02	5.72945010e-03
4.25000000e-02	8.94987903e-02	5.61534285e-03
4.27500000e-02	8.93820662e-02	5.58433944e-03
4.30000000e-02	8.83342474e-02	5.50631083e-03
4.32500000e-02	8.33617153e-02	5.12917923e-03
4.35000000e-02	8.29553750e-02	5.11079954e-03
4.37500000e-02	8.11628529e-02	4.89287757e-03
4.40000000e-02	8.22128769e-02	5.04117519e-03
4.42500000e-02	7.66151549e-02	4.64814745e-03
4.45000000e-02	7.83881007e-02	4.71298777e-03
4.47500000e-02	7.73559584e-02	4.64911536e-03
4.50000000e-02	7.73788016e-02	4.59926161e-03
4.52500000e-02	7.70239635e-02	4.58557109e-03
4.55000000e-02	7.48302095e-02	4.36212439e-03
4.57500000e-02	7.38197737e-02	4.30012679e-03
4.60000000e-02	7.27097537e-02	4.20274097e-03
4.62500000e-02	7.10894681e-02	4.05374579e-03
4.65000000e-02	6.96401014e-02	3.93706531e-03
4.67500000e-02	6.94766217e-02	3.88556309e-03
4.70000000e-02	6.81908124e-02	3.79354443e-03
4.72500000e-02	6.82920864e-02	3.79186120e-03
4.75000000e-02	6.63152536e-02	3.76287322e-03
4.77500000e-02	6.59467395e-02	3.66040858e-03
4.80000000e-02	6.61686342e-02	3.63134411e-03
4.82500000e-02	6.38574411e-02	3.49884330e-03
4.85000000e-02	6.30008134e-02	3.48826476e-03
4.87500000e-02	6.29434809e-02	3.39609800e-03
4.90000000e-02	6.12283341e-02	3.30865859e-03
4.92500000e-02	6.14510809e-02	3.24713473e-03
4.95000000e-02	5.86786296e-02	3.13790402e-03
4.97500000e-02	6.09223955e-02	3.26193112e-03
5.00000000e-02	5.86498036e-02	3.09922276e-03
5.02500000e-02	5.73793723e-02	2.98481265e-03
5.05000000e-02	5.71539573e-02	2.92611835e-03
5.07500000e-02	5.67468920e-02	2.91258594e-03
5.10000000e-02	5.70255738e-02	2.92605273e-03
5.12500000e-02	5.35828921e-02	2.77946802e-03
5.15000000e-02	5.31461174e-02	2.68037957e-03
5.17500000e-02	5.33496847e-02	2.69064312e-03
5.20000000e-02	5.22006887e-02	2.60734863e-03
5.22500000e-02	5.19853948e-02	2.61448492e-03
5.25000000e-02	5.11342571e-02	2.51114360e-03
5.27500000e-02	5.03052125e-02	2.45310679e-03
5.30000000e-02	5.10805634e-02	2.54127157e-03
5.32500000e-02	5.16000357e-02	2.50878516e-03
5.35000000e-02	5.02624245e-02	2.41142344e-03
5.37500000e-02	4.99118928e-02	2.41847954e-03
5.40000000e-02	4.84127566e-02	2.33251615e-03
5.42500000e-02	4.85443140e-02	2.31124946e-03
5.45000000e-02	4.76174113e-02	2.30292236e-03
5.47500000e-02	4.73312185e-02	2.23098686e-03
5.50000000e-02	4.71786611e-02	2.24983047e-03
5.52500000e-02	4.65816077e-02	2.14019322e-03
5.55000000e-02	4.63689877e-02	2.15420692e-03
5.57500000e-02	4.64761866e-02	2.16314315e-03
5.60000000e-02	4.52920542e-02	2.10347609e-03
5.62500000e-02	4.49059862e-02	2.09044520e-03
5.65000000e-02	4.53262415e-02	2.06306537e-03
5.67500000e-02	4.46174278e-02	2.04605286e-03
5.70000000e-02	4.26500909e-02	1.94678864e-03
5.72500000e-02	4.34308984e-02	1.96001702e-03
5.75000000e-02	4.28702848e-02	1.93583507e-03
5.77500000e-02	4.22095724e-02	1.86330742e-03
5.80000000e-02	4.29515605e-02	1.91620921e-03
5.82500000e-02	4.23569669e-02	1.83407224e-03
5.85000000e-02	4.16169421e-02	1.86646233e-03
5.87500000e-02	4.18592330e-02	1.79916282e-03
5.90000000e-02	4.23327738e-02	1.83795144e-03
5.92500000e-02	4.11205754e-02	1.77973324e-03
5.95000000e-02	4.03842065e-02	1.72327680e-03
5.97500000e-02	4.05589277e-02	1.77338351e-03
6.00000000e-02	4.01542238e-02	1.70014896e-03
6.02500000e-02	3.95059582e-02	1.68234248e-03
6.05000000e-02	3.82238803e-02	1.63549330e-03
6.07500000e-02	3.88761389e-02	1.63060375e-03
6.10000000e-02	3.88523227e-02	1.61657130e-03
6.12500000e-02	3.83580576e-02	1.60265657e-03
6.15000000e-02	3.84625688e-02	1.61572915e-03
6.17500000e-02	3.75735255e-02	1.54544325e-03
6.20000000e-02	3.75025259e-02	1.54055843e-03
6.22500000e-02	3.81482498e-02	1.57553818e-03
6.25000000e-02	3.70437900e-02	1.52386616e-03
6.27500000e-02	3.76675337e-02	1.52014248e-03
6.30000000e-02	3.62419107e-02	1.47356754e-03
6.32500000e-02	3.62902856e-02	1.48876902e-03
6.35000000e-02	3.66253622e-02	1.48412562e-03
6.37500000e-02	3.69241137e-02	1.47782363e-03
6.40000000e-02	3.60254832e-02	1.43611146e-03
6.42500000e-02	3.63490119e-02	1.43778410e-03
6.45000000e-02	3.48928369e-02	1.38433929e-03
6.47500000e-02	3.54361502e-02	1.40557153e-03
6.50000000e-02	3.56610136e-02	1.40453813e-03
6.52500000e-02	3.33596350e-02	1.30885340e-03
6.55000000e-02	3.45616806e-02	1.35602983e-03
6.57500000e-02	3.46199057e-02	1.35657428e-03
6.60000000e-02	3.43330048e-02	1.33209800e-03
6.62500000e-02	3.43232142e-02	1.32560324e-03
6.65000000e-02	3.38255082e-02	1.30933586e-03
6.67500000e-02	3.34763531e-02	1.27503754e-03
6.70000000e-02	3.30170341e-02	1.27965260e-03
6.72500000e-02	3.36899825e-02	1.29868824e-03
6.75000000e-02	3.25917913e-02	1.23989552e-03
6.77500000e-02	3.28405593e-02	1.24031768e-03
6.80000000e-02	3.35337967e-02	1.25470505e-03
6.82500000e-02	3.24080583e-02	1.21358207e-03
6.85000000e-02	3.22950733e-02	1.22466244e-03
6.87500000e-02	3.24120940e-02	1.21327472e-03
6.90000000e-02	3.20707401e-02	1.21505622e-03
6.92500000e-02	3.19448810e-02	1.18792587e-03
6.95000000e-02	3.24768999e-02	1.20412456e-03
6.97500000e-02	3.23261218e-02	1.20408683e-03
7.00000000e-02	3.16075713e-02	1.17689896e-03
7.02500000e-02	3.14047339e-02	1.15648944e-03
7.05000000e-02	3.18357176e-02	1.17585881e-03
7.07500000e-02	3.17649031e-02	1.16812867e-03
7.10000000e-02	3.11424811e-02	1.13955630e-03
7.12500000e-02	3.10999002e-02	1.13332368e-03
7.15000000e-02	3.14215419e-02	1.13583906e-03
7.17500000e-02	3.11036529e-02	1.13666813e-03
7.20000000e-02	3.10641225e-02	1.13102372e-03
7.22500000e-02	3.05131687e-02	1.11278744e-03
7.25000000e-02	3.11024456e-02	1.13211133e-03
7.27500000e-02	3.04832455e-02	1.08616997e-03
7.30000000e-02	3.00764190e-02	1.08981469e-03
7.32500000e-02	3.07908571e-02	1.08654741e-03
7.35000000e-02	2.99720478e-02	1.06741277e-03
7.37500000e-02	3.03245759e-02	1.07127578e-03
7.40000000e-02	2.94653127e-02	1.05258436e-03
7.42500000e-02	2.97706300e-02	1.05274359e-03
7.45000000e-02	2.96000773e-02	1.03407930e-03
7.47500000e-02	3.00532200e-02	1.04790882e-03
7.50000000e-02	2.98307562e-02	1.04332185e-03
7.52500000e-02	2.97844360e-02	1.04542197e-03
7.55000000e-02	2.87398098e-02	9.98717579e-04
7.57500000e-02	2.90724159e-02	1.01614044e-03
7.60000000e-02	2.93218563e-02	1.02030606e-03
7.62500000e-02	2.91018992e-02	9.97616278e-04
7.65000000e-02	2.91100461e-02	1.00489743e-03
7.67500000e-02	2.92519748e-02	1.00935656e-03
7.70000000e-02	2.95437805e-02	1.01311095e-03
7.72500000e-02	2.92730497e-02	1.02322908e-03
7.75000000e-02	2.95841387e-02	1.04412736e-03
7.77500000e-02	2.87360979e-02	1.02457620e-03
7.80000000e-02	2.88355121e-02	1.02822468e-03
7.82500000e-02	2.88420332e-02	1.02850091e-03
7.85000000e-02	2.91346778e-02	1.04012978e-03
7.87500000e-02	2.83840742e-02	1.01222267e-03
7.90000000e-02	2.83317497e-02	1.03967813e-03
7.92500000e-02	2.81038013e-02	1.01801317e-03
7.95000000e-02	2.90849576e-02	1.05511867e-03
7.97500000e-02	2.89078795e-02	1.05336167e-03
8.00000000e-02	2.92438163e-02	1.05622721e-03
8.02500000e-02	2.88435683e-02	1.05505579e-03
8.05000000e-02	2.90657585e-02	1.05178376e-03
8.07500000e-02	2.93792038e-02	1.07737538e-03
8.10000000e-02	2.85720243e-02	1.03675241e-03
8.12500000e-02	2.84869951e-02	1.03486680e-03
8.15000000e-02	2.88166498e-02	1.05128422e-03
8.17500000e-02	2.80827905e-02	1.02801684e-03
8.20000000e-02	2.89081293e-02	1.05639771e-03
8.22500000e-02	2.90256005e-02	1.06805028e-03
8.25000000e-02	2.88728743e-02	1.06337883e-03
8.27500000e-02	2.93365683e-02	1.08172176e-03
8.30000000e-02	2.88908596e-02	1.06006900e-03
8.32500000e-02	2.71069395e-02	9.97500285e-04
8.35000000e-02	2.82282558e-02	1.04909178e-03
8.37500000e-02	2.86443125e-02	1.05401004e-03
8.40000000e-02	2.81266005e-02	1.04632635e-03
8.42500000e-02	2.86578107e-02	1.05283595e-03
8.45000000e-02	2.74918350e-02	1.02401503e-03
8.47500000e-02	2.81420855e-02	1.04026261e-03
8.50000000e-02	2.78799761e-02	1.03120449e-03
8.52500000e-02	2.74829565e-02	1.02871957e-03
8.55000000e-02	2.83674565e-02	1.04899731e-03
8.57500000e-02	2.83855202e-02	1.05700546e-03
8.60000000e-02	2.74193728e-02	1.02385537e-03
8.62500000e-02	2.73055269e-02	1.01197326e-03
8.65000000e-02	2.72421599e-02	1.01976759e-03
8.67500000e-02	2.78809400e-02	1.03232181e-03
8.70000000e-02	2.78901861e-02	1.01896002e-03
8.72500000e-02	2.74404052e-02	9.70976020e-04
8.75000000e-02	2.73424784e-02	9.63737022e-04
8.77500000e-02	2.70058036e-02	9.51952903e-04
8.80000000e-02	2.72900604e-02	9.63921473e-04
8.82500000e-02	2.77132560e-02	9.65486143e-04
8.85000000e-02	2.78850931e-02	9.67120677e-04
8.87500000e-02	2.71002943e-02	9.28354420e-04
8.90000000e-02	2.74409069e-02	9.43287280e-04
8.92500000e-02	2.66142214e-02	9.14660198e-04
8.95000000e-02	2.65020523e-02	9.13458839e-04
8.97500000e-02	2.64018833e-02	8.97263881e-04
9.00000000e-02	2.66394275e-02	8.88928839e-04
9.02500000e-02	2.68598384e-02	9.06071568e-04
9.05000000e-02	2.60067481e-02	8.77598365e-04
9.07500000e-02	2.68447355e-02	8.95702244e-04
9.10000000e-02	2.62443107e-02	8.74082345e-04
9.12500000e-02	2.60767696e-02	8.69371091e-04
9.15000000e-02	2.66086208e-02	8.82428265e-04
9.17500000e-02	2.58369780e-02	8.63731131e-04
9.20000000e-02	2.59204079e-02	8.61221281e-04
9.22500000e-02	2.55861458e-02	8.52499088e-04
9.25000000e-02	2.55516471e-02	8.44569178e-04
9.27500000e-02	2.62275444e-02	8.74195505e-04
9.30000000e-02	2.52034311e-02	8.23426275e-04
9.32500000e-02	2.59753502e-02	8.56061682e-04
9.35000000e-02	2.55614653e-02	8.39813467e-04
9.37500000e-02	2.56236032e-02	8.35890168e-04
9.40000000e-02	2.53933324e-02	8.39529280e-04
9.42500000e-02	2.62537825e-02	8.54766383e-04
9.45000000e-02	2.51099869e-02	8.20570099e-04
9.47500000e-02	2.58933330e-02	8.44776939e-04
9.50000000e-02	2.54152612e-02	8.15588460e-04
9.52500000e-02	2.52833675e-02	8.14243968e-04
9.55000000e-02	2.56900789e-02	8.30626844e-04
9.57500000e-02	2.54051350e-02	8.20166758e-04
9.60000000e-02	2.54315917e-02	8.13025162e-04
9.62500000e-02	2.56520551e-02	8.18039538e-04
9.65000000e-02	2.46677446e-02	7.93327796e-04
9.67500000e-02	2.54395069e-02	8.08653858e-04
9.70000000e-02	2.47280261e-02	7.90469141e-04
9.72500000e-02	2.49356070e-02	8.00338185e-04
9.75000000e-02	2.45803023e-02	7.84498533e-04
9.77500000e-02	2.45127070e-02	7.72300031e-04
9.80000000e-02	2.52798445e-02	8.02951537e-04
9.82500000e-02	2.49775546e-02	7.90979126e-04
9.85000000e-02	2.48447919e-02	7.76093099e-04
9.87500000e-02	2.45464963e-02	7.74671039e-04
9.90000000e-02	2.52528216e-02	7.93202394e-04
9.92500000e-02	2.51727410e-02	7.85637685e-04
9.95000000e-02	2.45427038e-02	7.69379966e-04
9.97500000e-02	2.42682052e-02	7.57864532e-04
1.00000000e-01	2.45062615e-02	6.23656463e-04
1.00500000e-01	2.48121812e-02	5.46074480e-04
1.01000000e-01	2.42888481e-02	5.35362098e-04
1.01500000e-01	2.46101088e-02	5.39740075e-04
1.02000000e-01	2.41239496e-02	5.27472809e-04
1.02500000e-01	2.42365500e-02	5.25630730e-04
1.03000000e-01	2.39049680e-02	5.20179150e-04
1.03500000e-01	2.39812628e-02	5.17746149e-04
1.04000000e-01	2.42290549e-02	5.23311427e-04
1.04500000e-01	2.38874054e-02	5.14449925e-04
1.05000000e-01	2.38322347e-02	5.11885912e-04
1.05500000e-01	2.39436167e-02	5.15666253e-04
1.06000000e-01	2.37662129e-02	5.07462807e-04
1.06500000e-01	2.40397883e-02	5.08736634e-04
1.07000000e-01	2.35887634e-02	5.10438418e-04
1.07500000e-01	2.30717421e-02	5.06252831e-04
1.08000000e-01	2.33274515e-02	5.17921010e-04
1.08500000e-01	2.29144266e-02	5.11100483e-04
1.09000000e-01	2.27942576e-02	5.11663774e-04
1.09500000e-01	2.26402528e-02	5.11256942e-04
1.10000000e-01	2.28561848e-02	5.09621457e-04
1.10500000e-01	2.31893713e-02	5.05325617e-04
1.11000000e-01	2.32518898e-02	4.99619262e-04
1.11500000e-01	2.30723306e-02	4.92385074e-04
1.12000000e-01	2.33270167e-02	4.92262543e-04
1.12500000e-01	2.34804657e-02	4.91591380e-04
1.13000000e-01	2.28944750e-02	4.82107571e-04
1.13500000e-01	2.31943774e-02	4.85248071e-04
1.14000000e-01	2.31076088e-02	4.82239498e-04
1.14500000e-01	2.28500814e-02	4.73673509e-04
1.15000000e-01	2.30465048e-02	4.76932224e-04
1.15500000e-01	2.29671591e-02	4.76076567e-04
1.16000000e-01	2.32832769e-02	4.77791532e-04
1.16500000e-01	2.26535900e-02	4.65829703e-04
1.17000000e-01	2.27433719e-02	4.66172021e-04
1.17500000e-01	2.25062654e-02	4.59986308e-04
1.18000000e-01	2.26656065e-02	4.63210260e-04
1.18500000e-01	2.26817562e-02	4.62071031e-04
1.19000000e-01	2.28255128e-02	4.63815287e-04
1.19500000e-01	2.28119625e-02	4.62982205e-04
1.20000000e-01	2.28460777e-02	4.60532409e-04
1.20500000e-01	2.28106986e-02	4.58155434e-04
1.21000000e-01	2.27324187e-02	4.57647424e-04
1.21500000e-01	2.23444234e-02	4.48558524e-04
1.22000000e-01	2.22950795e-02	4.47521148e-04
1.22500000e-01	2.25922600e-02	4.50704855e-04
1.23000000e-01	2.23915562e-02	4.45943952e-04
1.23500000e-01	2.25776431e-02	4.48693602e-04
1.24000000e-01	2.27919420e-02	4.52984880e-04
1.24500000e-01	2.27669374e-02	4.47854569e-04
1.25000000e-01	2.26191186e-02	4.45099613e-04
1.25500000e-01	2.31950196e-02	4.56869676e-04
1.26000000e-01	2.29036802e-02	4.51178282e-04
1.26500000e-01	2.22426463e-02	4.36009983e-04
1.27000000e-01	2.27003177e-02	4.45711553e-04
1.27500000e-01	2.27233236e-02	4.45010529e-04
1.28000000e-01	2.24954812e-02	4.38339436e-04
1.28500000e-01	2.25615781e-02	4.37719548e-04
1.29000000e-01	2.25524327e-02	4.37918703e-04
1.29500000e-01	2.29156640e-02	4.44354772e-04
1.30000000e-01	2.22113936e-02	4.31440326e-04
1.30500000e-01	2.25201749e-02	4.34380338e-04
1.31000000e-01	2.25310317e-02	4.33476604e-04
1.31500000e-01	2.22333099e-02	4.27828896e-04
1.32000000e-01	2.27924976e-02	4.37110033e-04
1.32500000e-01	2.27142547e-02	4.33969878e-04
1.33000000e-01	2.18357687e-02	4.16605326e-04
1.33500000e-01	2.24628345e-02	4.27293126e-04
1.34000000e-01	2.21890876e-02	4.20976218e-04
1.34500000e-01	2.19940753e-02	4.16358813e-04
1.35000000e-01	2.23677295e-02	4.21759177e-04
1.35500000e-01	2.23843809e-02	4.19858476e-04
1.36000000e-01	2.21769178e-02	4.17558588e-04
1.36500000e-01	2.22430365e-02	4.18014839e-04
1.37000000e-01	2.25018454e-02	4.20179085e-04
1.37500000e-01	2.18724837e-02	4.10551559e-04
1.38000000e-01	2.22660567e-02	4.15844634e-04
1.38500000e-01	2.22822723e-02	4.15096433e-04
1.39000000e-01	2.20353575e-02	4.11804395e-04
1.39500000e-01	2.17824898e-02	4.07116277e-04
1.40000000e-01	2.20600080e-02	4.10651374e-04
1.40500000e-01	2.20826137e-02	4.10596977e-04
1.41000000e-01	2.14478135e-02	3.98247309e-04
1.41500000e-01	2.16650719e-02	4.01479376e-04
1.42000000e-01	2.15673758e-02	3.99234861e-04
1.42500000e-01	2.15941558e-02	4.00445227e-04
1.43000000e-01	2.14612572e-02	3.98872770e-04
1.43500000e-01	2.11619499e-02	3.90958357e-04
1.44000000e-01	2.14369293e-02	3.94260585e-04
1.44500000e-01	2.12217550e-02	3.90279686e-04
1.45000000e-01	2.14368083e-02	3.94670771e-04
1.45500000e-01	2.09147364e-02	3.83895322e-04
1.46000000e-01	2.10918102e-02	3.87867650e-04
1.46500000e-01	2.12423263e-02	3.86672280e-04
1.47000000e-01	2.13408648e-02	3.89372920e-04
1.47500000e-01	2.10563601e-02	3.82555910e-04
1.48000000e-01	2.11028020e-02	3.83702589e-04
1.48500000e-01	2.08108175e-02	3.77269054e-04
1.49000000e-01	2.10850770e-02	3.81304544e-04
1.49500000e-01	2.07554820e-02	3.75625887e-04
1.50000000e-01	2.11098712e-02	3.78992082e-04
1.50500000e-01	2.07174358e-02	3.76067725e-04
1.51000000e-01	2.10810106e-02	3.79271434e-04
1.51500000e-01	2.10133098e-02	3.78591531e-04
1.52000000e-01	2.09395952e-02	3.74231730e-04
1.52500000e-01	2.10321861e-02	3.77031522e-04
1.53000000e-01	2.07884377e-02	3.73016641e-04
1.53500000e-01	2.08027946e-02	3.70078058e-04
1.54000000e-01	2.06310254e-02	3.65652841e-04
1.54500000e-01	2.07377758e-02	3.76934084e-04
1.55000000e-01	2.07238943e-02	3.81028543e-04
1.55500000e-01	2.06140593e-02	3.81387682e-04
1.56000000e-01	2.08553172e-02	3.88553487e-04
1.56500000e-01	2.03405021e-02	3.78863308e-04
1.57000000e-01	2.08067972e-02	3.86039393e-04
1.57500000e-01	2.05920816e-02	3.76993587e-04
1.58000000e-01	2.07716872e-02	3.73408141e-04
1.58500000e-01	2.06422787e-02	3.69932715e-04
1.59000000e-01	2.08199765e-02	3.70638648e-04
1.59500000e-01	2.06157813e-02	3.66437269e-04
1.60000000e-01	2.07478585e-02	3.67699532e-04
1.60500000e-01	2.07150384e-02	3.65262231e-04
1.61000000e-01	2.06235662e-02	3.65222154e-04
1.61500000e-01	2.04988436e-02	3.61724808e-04
1.62000000e-01	2.05239562e-02	3.61622671e-04
1.62500000e-01	2.05113516e-02	3.61340442e-04
1.63000000e-01	2.03993003e-02	3.57772517e-04
1.63500000e-01	2.06681166e-02	3.63946234e-04
1.64000000e-01	2.03248020e-02	3.55154138e-04
1.64500000e-01	2.01241216e-02	3.53518635e-04
1.65000000e-01	2.05020720e-02	3.56778704e-04
1.65500000e-01	2.04242642e-02	3.55473234e-04
1.66000000e-01	2.03626825e-02	3.53754595e-04
1.66500000e-01	2.05255224e-02	3.54021338e-04
1.67000000e-01	2.02132554e-02	3.49781508e-04
1.67500000e-01	2.06073545e-02	3.56000876e-04
1.68000000e-01	2.03216082e-02	3.51526067e-04
1.68500000e-01	2.02974189e-02	3.49281008e-04
1.69000000e-01	2.02628162e-02	3.49953781e-04
1.69500000e-01	2.03511883e-02	3.49145290e-04
1.70000000e-01	2.04899580e-02	3.50103692e-04
1.70500000e-01	2.05559190e-02	3.50550849e-04
1.71000000e-01	2.03262344e-02	3.47269291e-04
1.71500000e-01	2.02793029e-02	3.46038165e-04
1.72000000e-01	2.02251790e-02	3.44674240e-04
1.72500000e-01	2.00946050e-02	3.42361445e-04
1.73000000e-01	2.03754196e-02	3.46085561e-04
1.73500000e-01	1.99137924e-02	3.36526580e-04
1.74000000e-01	2.01220476e-02	3.40122737e-04
1.74500000e-01	2.02594234e-02	3.40917643e-04
1.75000000e-01	2.02465059e-02	3.40548572e-04
1.75500000e-01	2.01248284e-02	3.36357482e-04
1.76000000e-01	2.03318515e-02	3.40818897e-04
1.76500000e-01	2.02753293e-02	3.40085395e-04
1.77000000e-01	2.01291592e-02	3.37083564e-04
1.77500000e-01	2.01451413e-02	3.36068483e-04
1.78000000e-01	2.03138817e-02	3.39877305e-04
1.78500000e-01	1.99377807e-02	3.32626987e-04
1.79000000e-01	1.98076477e-02	3.30528898e-04
1.79500000e-01	1.99326748e-02	3.31863592e-04
1.80000000e-01	1.97423231e-02	3.29945588e-04
1.80500000e-01	2.01852415e-02	3.35660306e-04
1.81000000e-01	1.99493195e-02	3.31305355e-04
1.81500000e-01	2.00231656e-02	3.31134473e-04
1.82000000e-01	2.00917531e-02	3.33016979e-04
1.82500000e-01	1.99819877e-02	3.30212911e-04
1.83000000e-01	2.00533397e-02	3.32123666e-04
1.83500000e-01	1.99572459e-02	3.28243073e-04
1.84000000e-01	2.01016635e-02	3.31019020e-04
1.84500000e-01	1.99447491e-02	3.28858582e-04
1.85000000e-01	1.99658016e-02	3.29757733e-04
1.85500000e-01	2.00303376e-02	3.29677601e-04
1.86000000e-01	1.95598903e-02	3.22279550e-04
1.86500000e-01	1.99725828e-02	3.26890088e-04
1.87000000e-01	1.97323222e-02	3.23721847e-04
1.87500000e-01	1.99670791e-02	3.25587216e-04
1.88000000e-01	1.97800934e-02	3.22309038e-04
1.88500000e-01	1.97817237e-02	3.23303919e-04
1.89000000e-01	1.96946028e-02	3.19665604e-04
1.89500000e-01	1.99354344e-02	3.23991294e-04
1.90000000e-01	1.96532836e-02	3.19289157e-04
1.90500000e-01	1.97369383e-02	3.20231219e-04
1.91000000e-01	1.98248511e-02	3.21491286e-04
1.91500000e-01	1.97349944e-02	3.20832194e-04
1.92000000e-01	1.97217468e-02	3.18826388e-04
1.92500000e-01	1.96129801e-02	3.17661779e-04
1.93000000e-01	1.95338434e-02	3.14923076e-04
1.93500000e-01	1.94404864e-02	3.11419277e-04
1.94000000e-01	1.98558454e-02	3.19807891e-04
1.94500000e-01	1.94603349e-02	3.12783110e-04
1.95000000e-01	1.97450946e-02	3.18185285e-04
1.95500000e-01	1.93258687e-02	3.11220797e-04
1.96000000e-01	1.96695127e-02	3.15310542e-04
1.96500000e-01	1.94403215e-02	3.11769199e-04
1.97000000e-01	1.98262245e-02	3.17171519e-04
1.97500000e-01	1.96147097e-02	3.12463529e-04
1.98000000e-01	1.94532479e-02	3.09329376e-04
1.98500000e-01	1.95109709e-02	3.10799664e-04
1.99000000e-01	1.96317906e-02	3.12734894e-04
1.99500000e-01	1.95241640e-02	3.08990537e-04
2.00000000e-01	1.95301025e-02	3.08930168e-04
2.00500000e-01	1.96972898e-02	3.11696108e-04
2.01000000e-01	1.93392790e-02	3.04627692e-04
2.01500000e-01	1.93570884e-02	3.07382485e-04
2.02000000e-01	1.91881179e-02	3.03751405e-04
2.02500000e-01	1.95559549e-02	3.07871568e-04
2.03000000e-01	1.93625185e-02	3.04688924e-04
2.03500000e-01	1.95886947e-02	3.07186824e-04
2.04000000e-01	1.94810932e-02	3.05517086e-04
2.04500000e-01	1.94566442e-02	3.06094576e-04
2.05000000e-01	1.92609898e-02	3.01446559e-04
2.05500000e-01	1.95558485e-02	3.06293767e-04
2.06000000e-01	1.93483890e-02	3.02291874e-04
2.06500000e-01	1.94105935e-02	3.02496537e-04
2.07000000e-01	1.92889008e-02	3.00105719e-04
2.07500000e-01	1.97016066e-02	3.04711890e-04
2.08000000e-01	1.93397695e-02	3.01257243e-04
2.08500000e-01	1.92294557e-02	2.98492717e-04
2.09000000e-01	1.91405433e-02	2.97337292e-04
2.09500000e-01	1.92117077e-02	2.97287277e-04
2.10000000e-01	1.92021057e-02	2.98677272e-04
2.10500000e-01	1.90263143e-02	2.95592152e-04
2.11000000e-01	1.91604946e-02	2.95801986e-04
2.11500000e-01	1.93059309e-02	2.98504760e-04
2.12000000e-01	1.92255650e-02	2.96874381e-04
2.12500000e-01	1.93171289e-02	2.98225398e-04
2.13000000e-01	1.94022027e-02	2.97509931e-04
2.13500000e-01	1.91893539e-02	2.94927253e-04
2.14000000e-01	1.91470808e-02	2.93243946e-04
2.14500000e-01	1.91483450e-02	2.92790170e-04
2.15000000e-01	1.89387849e-02	2.91849387e-04
2.15500000e-01	1.86885506e-02	2.87023999e-04
2.16000000e-01	1.91667027e-02	2.93270102e-04
2.16500000e-01	1.91159418e-02	2.91854987e-04
2.17000000e-01	1.91429484e-02	2.95871097e-04
2.17500000e-01	1.91079471e-02	3.00449534e-04
2.18000000e-01	1.91516298e-02	3.01846943e-04
2.18500000e-01	1.89619937e-02	3.01473664e-04
2.19000000e-01	1.88693525e-02	3.01670768e-04
2.19500000e-01	1.90666864e-02	3.05542762e-04
2.20000000e-01	1.89836688e-02	3.06433447e-04
2.20500000e-01	1.89388721e-02	3.05462596e-04
2.21000000e-01	1.89341982e-02	3.05425931e-04
2.21500000e-01	1.88605327e-02	3.06235908e-04
2.22000000e-01	1.89497751e-02	3.07380173e-04
2.22500000e-01	1.89083669e-02	3.07668553e-04
2.23000000e-01	1.93897603e-02	3.16029527e-04
2.23500000e-01	1.89359935e-02	3.09183854e-04
2.24000000e-01	1.91083299e-02	3.12094504e-04
2.24500000e-01	1.88906938e-02	3.10999608e-04
2.25000000e-01	1.89482274e-02	3.11533618e-04
2.25500000e-01	1.89305143e-02	3.11149043e-04
2.26000000e-01	1.87427349e-02	3.11067096e-04
2.26500000e-01	1.91023892e-02	3.08864623e-04
2.27000000e-01	1.86821220e-02	3.01620650e-04
2.27500000e-01	1.90227023e-02	3.03410885e-04
2.28000000e-01	1.88889655e-02	3.00766344e-04
2.28500000e-01	1.88241571e-02	2.98534949e-04
2.29000000e-01	1.87702851e-02	2.95690803e-04
2.29500000e-01	1.90455415e-02	2.99172719e-04
2.30000000e-01	1.90180380e-02	2.97436076e-04
2.30500000e-01	1.87841288e-02	2.92244540e-04
2.31000000e-01	1.90897289e-02	2.96469957e-04
2.31500000e-01	1.86698680e-02	2.89065095e-04
2.32000000e-01	1.87812036e-02	2.90896407e-04
2.32500000e-01	1.90034995e-02	2.94413810e-04
2.33000000e-01	1.89156963e-02	2.90716415e-04
2.33500000e-01	1.88012345e-02	2.88928985e-04
2.34000000e-01	1.90389205e-02	2.91648046e-04
2.34500000e-01	1.88767853e-02	2.89208930e-04
2.35000000e-01	1.88255862e-02	2.88740064e-04
2.35500000e-01	1.88841060e-02	2.88224040e-04
2.36000000e-01	1.88007279e-02	2.87047725e-04
2.36500000e-01	1.88561090e-02	2.87711236e-04
2.37000000e-01	1.86456808e-02	2.82409647e-04
2.37500000e-01	1.85458058e-02	2.82150632e-04
2.38000000e-01	1.86861548e-02	2.82642344e-04
2.38500000e-01	1.87566329e-02	2.83874937e-04
2.39000000e-01	1.84524697e-02	2.78021687e-04
2.39500000e-01	1.86862374e-02	2.81482880e-04
2.40000000e-01	1.86360207e-02	2.80272247e-04
2.40500000e-01	1.87415345e-02	2.81418133e-04
2.41000000e-01	1.85706308e-02	2.77825927e-04
2.41500000e-01	1.83709827e-02	2.74963087e-04
2.42000000e-01	1.85130627e-02	2.76139683e-04
2.42500000e-01	1.86359270e-02	2.77572547e-04
2.43000000e-01	1.87979697e-02	2.80131929e-04
2.43500000e-01	1.84131188e-02	2.73753312e-04
2.44000000e-01	1.87939022e-02	2.78705897e-04
2.44500000e-01	1.85071875e-02	2.74308215e-04
2.45000000e-01	1.85011523e-02	2.74073376e-04
2.45500000e-01	1.85467687e-02	2.74326784e-04
2.46000000e-01	1.84616845e-02	2.73051835e-04
2.46500000e-01	1.84075937e-02	2.71981088e-04
2.47000000e-01	1.86052122e-02	2.74550794e-04
2.47500000e-01	1.83050807e-02	2.68762476e-04
2.48000000e-01	1.85565285e-02	2.73211887e-04
2.48500000e-01	1.84943689e-02	2.71484385e-04
2.49000000e-01	1.85646058e-02	2.72533284e-04
2.49500000e-01	1.83402363e-02	2.69717988e-04
2.50000000e-01	1.85808493e-02	2.71090707e-04
2.50500000e-01	1.85143762e-02	2.72117984e-04
2.51000000e-01	1.82498414e-02	2.66162934e-04
2.51500000e-01	1.83616266e-02	2.68851407e-04
2.52000000e-01	1.84496223e-02	2.68340178e-04
2.52500000e-01	1.83428235e-02	2.66811528e-04
2.53000000e-01	1.87408921e-02	2.72314299e-04
2.53500000e-01	1.84274953e-02	2.67061793e-04
2.54000000e-01	1.83542361e-02	2.67811988e-04
2.54500000e-01	1.84938068e-02	2.69306633e-04
2.55000000e-01	1.83340707e-02	2.65331526e-04
2.55500000e-01	1.82816696e-02	2.64450398e-04
2.56000000e-01	1.83168264e-02	2.63573601e-04
2.56500000e-01	1.82221040e-02	2.64272863e-04
2.57000000e-01	1.82036196e-02	2.61567252e-04
2.57500000e-01	1.84725778e-02	2.65881657e-04
2.58000000e-01	1.83164220e-02	2.63071857e-04
2.58500000e-01	1.83110474e-02	2.62948386e-04
2.59000000e-01	1.81374212e-02	2.60725176e-04
2.59500000e-01	1.80016010e-02	2.58694838e-04
2.60000000e-01	1.83618089e-02	2.63295691e-04
2.60500000e-01	1.82825922e-02	2.62489330e-04
2.61000000e-01	1.85539912e-02	2.64419128e-04
2.61500000e-01	1.83721826e-02	2.63345541e-04
2.62000000e-01	1.83718294e-02	2.61928363e-04
2.62500000e-01	1.80835180e-02	2.58154929e-04
2.63000000e-01	1.84204619e-02	2.61895099e-04
2.63500000e-01	1.80705805e-02	2.56849890e-04
2.64000000e-01	1.79607990e-02	2.56387257e-04
2.64500000e-01	1.82289214e-02	2.57429192e-04
2.65000000e-01	1.82187686e-02	2.59023773e-04
2.65500000e-01	1.82451619e-02	2.58869947e-04
2.66000000e-01	1.79633905e-02	2.55264957e-04
2.66500000e-01	1.79726421e-02	2.54299300e-04
2.67000000e-01	1.81643442e-02	2.56241390e-04
2.67500000e-01	1.82584322e-02	2.56465553e-04
2.68000000e-01	1.81964808e-02	2.55646283e-04
2.68500000e-01	1.81935524e-02	2.55962621e-04
2.69000000e-01	1.80686543e-02	2.53409436e-04
2.69500000e-01	1.82466584e-02	2.55880722e-04
2.70000000e-01	1.78973187e-02	2.50686548e-04
2.70500000e-01	1.81991391e-02	2.54560439e-04
2.71000000e-01	1.81004425e-02	2.53432278e-04
2.71500000e-01	1.81544676e-02	2.53455911e-04
2.72000000e-01	1.81203765e-02	2.52108275e-04
2.72500000e-01	1.79221927e-02	2.50177562e-04
2.73000000e-01	1.80730116e-02	2.52470749e-04
2.73500000e-01	1.80704690e-02	2.50939300e-04
2.74000000e-01	1.79317141e-02	2.49957108e-04
2.74500000e-01	1.79342847e-02	2.48840431e-04
2.75000000e-01	1.82467910e-02	2.52352626e-04
2.75500000e-01	1.80754001e-02	2.52508324e-04
2.76000000e-01	1.80925261e-02	2.51178207e-04
2.76500000e-01	1.79173278e-02	2.49834134e-04
2.77000000e-01	1.79483524e-02	2.47921443e-04
2.77500000e-01	1.78986779e-02	2.48108095e-04
2.78000000e-01	1.79944060e-02	2.48956120e-04
2.78500000e-01	1.79898092e-02	2.48992441e-04
2.79000000e-01	1.78202764e-02	2.46237998e-04
2.79500000e-01	1.80798347e-02	2.48255517e-04
2.80000000e-01	1.81768510e-02	2.49555480e-04
2.80500000e-01	1.80053698e-02	2.46981122e-04
2.81000000e-01	1.80284227e-02	2.48149354e-04
2.81500000e-01	1.79300192e-02	2.46829528e-04
2.82000000e-01	1.77873284e-02	2.43333317e-04
2.82500000e-01	1.81530709e-02	2.48800693e-04
2.83000000e-01	1.77298322e-02	2.43142755e-04
2.83500000e-01	1.78229222e-02	2.43596829e-04
2.84000000e-01	1.80330997e-02	2.45846020e-04
2.84500000e-01	1.76670951e-02	2.41294127e-04
2.85000000e-01	1.78074028e-02	2.42752086e-04
2.85500000e-01	1.76617517e-02	2.41299081e-04
2.86000000e-01	1.77712574e-02	2.42357146e-04
2.86500000e-01	1.76917460e-02	2.40713959e-04
2.87000000e-01	1.75727934e-02	2.38824974e-04
2.87500000e-01	1.75375979e-02	2.39133164e-04
2.88000000e-01	1.76895652e-02	2.38887244e-04
2.88500000e-01	1.75418548e-02	2.38893366e-04
2.89000000e-01	1.76862132e-02	2.39351726e-04
2.89500000e-01	1.78664630e-02	2.41382581e-04
2.90000000e-01	1.77353543e-02	2.40185720e-04
2.90500000e-01	1.76002860e-02	2.37824409e-04
2.91000000e-01	1.75986545e-02	2.37677741e-04
2.91500000e-01	1.76348298e-02	2.36540552e-04
2.92000000e-01	1.78972325e-02	2.40708141e-04
2.92500000e-01	1.77093807e-02	2.37288477e-04
2.93000000e-01	1.76460194e-02	2.37377904e-04
2.93500000e-01	1.75235904e-02	2.35711247e-04
2.94000000e-01	1.75102628e-02	2.35371916e-04
2.94500000e-01	1.75954591e-02	2.36338302e-04
2.95000000e-01	1.76871335e-02	2.37009900e-04
2.95500000e-01	1.77098797e-02	2.36529502e-04
2.96000000e-01	1.76358423e-02	2.35854017e-04
2.96500000e-01	1.75110300e-02	2.34620188e-04
2.97000000e-01	1.75748264e-02	2.34776100e-04
2.97500000e-01	1.74227918e-02	2.31736927e-04
2.98000000e-01	1.75536144e-02	2.34783369e-04
2.98500000e-01	1.74541374e-02	2.32789727e-04
2.99000000e-01	1.73670082e-02	2.31871476e-04
2.99500000e-01	1.74829900e-02	2.33828431e-04
3.00000000e-01	1.75272669e-02	2.33404025e-04
3.00500000e-01	1.76436931e-02	2.35019654e-04
3.01000000e-01	1.73801379e-02	2.30960535e-04
3.01500000e-01	1.76128154e-02	2.33410267e-04
3.02000000e-01	1.75075460e-02	2.31984418e-04
3.02500000e-01	1.74213680e-02	2.30703399e-04
3.03000000e-01	1.73321210e-02	2.30179166e-04
3.03500000e-01	1.75502004e-02	2.31267935e-04
3.04000000e-01	1.75172060e-02	2.31995829e-04
3.04500000e-01	1.74341601e-02	2.29498787e-04
3.05000000e-01	1.73560788e-02	2.29043706e-04
3.05500000e-01	1.72990583e-02	2.29162434e-04
3.06000000e-01	1.74874225e-02	2.28932109e-04
3.06500000e-01	1.74577124e-02	2.29187203e-04
3.07000000e-01	1.72192000e-02	2.26013644e-04
3.07500000e-01	1.75793337e-02	2.30404277e-04
3.08000000e-01	1.74330043e-02	2.28949752e-04
3.08500000e-01	1.74439567e-02	2.28667893e-04
3.09000000e-01	1.73022545e-02	2.27620868e-04
3.09500000e-01	1.73236502e-02	2.26492452e-04
3.10000000e-01	1.72255040e-02	2.25982265e-04
3.10500000e-01	1.73871473e-02	2.28186351e-04
3.11000000e-01	1.73865361e-02	2.27287222e-04
3.11500000e-01	1.72517332e-02	2.25253357e-04
3.12000000e-01	1.73159715e-02	2.25263673e-04
3.12500000e-01	1.73029521e-02	2.25830324e-04
3.13000000e-01	1.73654411e-02	2.26251004e-04
3.13500000e-01	1.71181887e-02	2.22933009e-04
3.14000000e-01	1.72965863e-02	2.25306257e-04
3.14500000e-01	1.71913628e-02	2.22181239e-04
3.15000000e-01	1.74621274e-02	2.26573946e-04
3.15500000e-01	1.71122655e-02	2.22188271e-04
3.16000000e-01	1.72152220e-02	2.22891831e-04
3.16500000e-01	1.71631190e-02	2.22394506e-04
3.17000000e-01	1.73066269e-02	2.23756810e-04
3.17500000e-01	1.72739468e-02	2.23943822e-04
3.18000000e-01	1.71421011e-02	2.20962364e-04
3.18500000e-01	1.71463695e-02	2.21378294e-04
3.19000000e-01	1.71831294e-02	2.21708850e-04
3.19500000e-01	1.69112924e-02	2.18549951e-04
3.20000000e-01	1.70867924e-02	2.21426902e-04
3.20500000e-01	1.70246532e-02	2.19223015e-04
3.21000000e-01	1.71751112e-02	2.21019629e-04
3.21500000e-01	1.71155809e-02	2.20042633e-04
3.22000000e-01	1.71172805e-02	2.20499029e-04
3.22500000e-01	1.69563068e-02	2.18274867e-04
3.23000000e-01	1.70667197e-02	2.18925441e-04
3.23500000e-01	1.69462428e-02	2.17302923e-04
3.24000000e-01	1.70394949e-02	2.18357216e-04
3.24500000e-01	1.70837592e-02	2.18307334e-04
3.25000000e-01	1.71541622e-02	2.18889873e-04
3.25500000e-01	1.70194376e-02	2.18157651e-04
3.26000000e-01	1.69833991e-02	2.17189207e-04
3.26500000e-01	1.69272798e-02	2.16187777e-04
3.27000000e-01	1.69429756e-02	2.16857465e-04
3.27500000e-01	1.70948690e-02	2.17245715e-04
3.28000000e-01	1.69354792e-02	2.15691545e-04
3.28500000e-01	1.70055135e-02	2.16492810e-04
3.29000000e-01	1.69181098e-02	2.14945146e-04
3.29500000e-01	1.70090133e-02	2.16490039e-04
3.30000000e-01	1.70443934e-02	2.16209519e-04
3.30500000e-01	1.69118734e-02	2.14815344e-04
3.31000000e-01	1.68590546e-02	2.12987063e-04
3.31500000e-01	1.69472490e-02	2.14487012e-04
3.32000000e-01	1.69816425e-02	2.15883210e-04
3.32500000e-01	1.70372610e-02	2.15686279e-04
3.33000000e-01	1.69836763e-02	2.15483490e-04
3.33500000e-01	1.67904429e-02	2.12842641e-04
3.34000000e-01	1.69942945e-02	2.15283231e-04
3.34500000e-01	1.71088913e-02	2.15927225e-04
3.35000000e-01	1.68400331e-02	2.12311768e-04
3.35500000e-01	1.68632035e-02	2.12656681e-04
3.36000000e-01	1.69298226e-02	2.12928646e-04
3.36500000e-01	1.68740765e-02	2.13244381e-04
3.37000000e-01	1.70559829e-02	2.14627608e-04
3.37500000e-01	1.66539895e-02	2.09936066e-04
3.38000000e-01	1.68386365e-02	2.12042920e-04
3.38500000e-01	1.68926708e-02	2.11708729e-04
3.39000000e-01	1.66940563e-02	2.09854003e-04
3.39500000e-01	1.68133726e-02	2.10393147e-04
3.40000000e-01	1.66489023e-02	2.08909904e-04
3.40500000e-01	1.68020219e-02	2.10203234e-04
3.41000000e-01	1.67399955e-02	2.09480682e-04
3.41500000e-01	1.68386767e-02	2.10810934e-04
3.42000000e-01	1.67765924e-02	2.09025172e-04
3.42500000e-01	1.67107209e-02	2.09283843e-04
3.43000000e-01	1.67721485e-02	2.09406348e-04
3.43500000e-01	1.65658381e-02	2.05662186e-04
3.44000000e-01	1.65703351e-02	2.07005790e-04
3.44500000e-01	1.65097838e-02	2.05240296e-04
3.45000000e-01	1.68378449e-02	2.09230532e-04
3.45500000e-01	1.65416686e-02	2.05791761e-04
3.46000000e-01	1.65436210e-02	2.06067893e-04
3.46500000e-01	1.66749437e-02	2.06681960e-04
3.47000000e-01	1.65924810e-02	2.05951506e-04
3.47500000e-01	1.68401930e-02	2.09723592e-04
3.48000000e-01	1.66986634e-02	2.06732463e-04
3.48500000e-01	1.65104954e-02	2.05013803e-04
3.49000000e-01	1.66310710e-02	2.05368567e-04
3.49500000e-01	1.66370707e-02	2.05932774e-04
3.50000000e-01	1.66204126e-02	1.67138829e-04
3.51000000e-01	1.64351574e-02	1.43780452e-04
3.52000000e-01	1.64890107e-02	1.43712831e-04
3.53000000e-01	1.65343934e-02	1.43392928e-04
3.54000000e-01	1.64286685e-02	1.42307548e-04
3.55000000e-01	1.64028241e-02	1.42311166e-04
3.56000000e-01	1.64621753e-02	1.43310474e-04
3.57000000e-01	1.63953274e-02	1.45097672e-04
3.58000000e-01	1.62800880e-02	1.45678063e-04
3.59000000e-01	1.63098108e-02	1.47144484e-04
3.60000000e-01	1.62135057e-02	1.46715928e-04
3.61000000e-01	1.62890879e-02	1.48597203e-04
3.62000000e-01	1.62233792e-02	1.48689581e-04
3.63000000e-01	1.61600032e-02	1.48676273e-04
3.64000000e-01	1.63373761e-02	1.50943584e-04
3.65000000e-01	1.62144282e-02	1.49976077e-04
3.66000000e-01	1.62161654e-02	1.48306044e-04
3.67000000e-01	1.62361143e-02	1.46184317e-04
3.68000000e-01	1.62514288e-02	1.45247192e-04
3.69000000e-01	1.62608270e-02	1.44624200e-04
3.70000000e-01	1.61931099e-02	1.43359961e-04
3.71000000e-01	1.62669989e-02	1.45947724e-04
3.72000000e-01	1.61122411e-02	1.45472577e-04
3.73000000e-01	1.61729102e-02	1.46393878e-04
3.74000000e-01	1.62210154e-02	1.47177728e-04
3.75000000e-01	1.61550549e-02	1.46158820e-04
3.76000000e-01	1.61168338e-02	1.46188327e-04
3.77000000e-01	1.60296609e-02	1.45924015e-04
3.78000000e-01	1.61258633e-02	1.46209536e-04
3.79000000e-01	1.60539945e-02	1.45681989e-04
3.80000000e-01	1.61841933e-02	1.46008083e-04
3.81000000e-01	1.59362146e-02	1.44039444e-04
3.82000000e-01	1.59974163e-02	1.44976119e-04
3.83000000e-01	1.59959133e-02	1.44498666e-04
3.84000000e-01	1.58636858e-02	1.43532637e-04
3.85000000e-01	1.58791960e-02	1.43720835e-04
3.86000000e-01	1.57898776e-02	1.43274716e-04
3.87000000e-01	1.60364435e-02	1.45038500e-04
3.88000000e-01	1.58575555e-02	1.43384860e-04
3.89000000e-01	1.58761770e-02	1.43817018e-04
3.90000000e-01	1.59398076e-02	1.43703116e-04
3.91000000e-01	1.58938915e-02	1.43231911e-04
3.92000000e-01	1.58760734e-02	1.43430388e-04
3.93000000e-01	1.57871773e-02	1.42325552e-04
3.94000000e-01	1.57304788e-02	1.42099688e-04
3.95000000e-01	1.57483668e-02	1.42413105e-04
3.96000000e-01	1.59275176e-02	1.43643134e-04
3.97000000e-01	1.58226020e-02	1.42524455e-04
3.98000000e-01	1.58045681e-02	1.42823392e-04
3.99000000e-01	1.57617904e-02	1.42102737e-04
4.00000000e-01	1.59138593e-02	1.43658721e-04
4.01000000e-01	1.56457393e-02	1.41102043e-04
4.02000000e-01	1.56703761e-02	1.41312432e-04
4.03000000e-01	1.56937802e-02	1.41917365e-04
4.04000000e-01	1.58041271e-02	1.42619977e-04
4.05000000e-01	1.56794642e-02	1.41089259e-04
4.06000000e-01	1.57129235e-02	1.41825507e-04
4.07000000e-01	1.56433710e-02	1.41088883e-04
4.08000000e-01	1.56174136e-02	1.40670313e-04
4.09000000e-01	1.55944232e-02	1.40468004e-04
4.10000000e-01	1.56963020e-02	1.40705184e-04
4.11000000e-01	1.56447887e-02	1.40981955e-04
4.12000000e-01	1.56735706e-02	1.41033485e-04
4.13000000e-01	1.56324200e-02	1.40399339e-04
4.14000000e-01	1.55036330e-02	1.39949805e-04
4.15000000e-01	1.55273119e-02	1.39670580e-04
4.16000000e-01	1.54803225e-02	1.38932066e-04
4.17000000e-01	1.55868791e-02	1.39724383e-04
4.18000000e-01	1.56574652e-02	1.42403489e-04
4.19000000e-01	1.56603553e-02	1.44034184e-04
4.20000000e-01	1.55027876e-02	1.43182671e-04
4.21000000e-01	1.55405271e-02	1.44342552e-04
4.22000000e-01	1.55283233e-02	1.44256111e-04
4.23000000e-01	1.55139585e-02	1.45351978e-04
4.24000000e-01	1.55951000e-02	1.46246425e-04
4.25000000e-01	1.55015615e-02	1.45613227e-04
4.26000000e-01	1.55080724e-02	1.45611288e-04
4.27000000e-01	1.54259310e-02	1.44385744e-04
4.28000000e-01	1.54409906e-02	1.45310615e-04
4.29000000e-01	1.54409384e-02	1.45431359e-04
4.30000000e-01	1.55713831e-02	1.46491186e-04
4.31000000e-01	1.54546903e-02	1.45066343e-04
4.32000000e-01	1.54891819e-02	1.45887748e-04
4.33000000e-01	1.55332053e-02	1.46590060e-04
4.34000000e-01	1.55340641e-02	1.46309796e-04
4.35000000e-01	1.54680511e-02	1.46175617e-04
4.36000000e-01	1.54478413e-02	1.46153161e-04
4.37000000e-01	1.54383883e-02	1.46120413e-04
4.38000000e-01	1.53733813e-02	1.46131474e-04
4.39000000e-01	1.54167274e-02	1.46331368e-04
4.40000000e-01	1.54444829e-02	1.46537561e-04
4.41000000e-01	1.53470951e-02	1.46531638e-04
4.42000000e-01	1.53307823e-02	1.46307507e-04
4.43000000e-01	1.54434720e-02	1.47423933e-04
4.44000000e-01	1.53806231e-02	1.47149777e-04
4.45000000e-01	1.53630127e-02	1.46962213e-04
4.46000000e-01	1.52569752e-02	1.45822412e-04
4.47000000e-01	1.52316182e-02	1.46258492e-04
4.48000000e-01	1.52717256e-02	1.46423690e-04
4.49000000e-01	1.54287318e-02	1.48064131e-04
4.50000000e-01	1.53204725e-02	1.47267373e-04
4.51000000e-01	1.53368287e-02	1.47792006e-04
4.52000000e-01	1.52267991e-02	1.46669211e-04
4.53000000e-01	1.52139681e-02	1.46562799e-04
4.54000000e-01	1.51282575e-02	1.46353624e-04
4.55000000e-01	1.51715532e-02	1.46478049e-04
4.56000000e-01	1.51096520e-02	1.45971089e-04
4.57000000e-01	1.51292436e-02	1.46269067e-04
4.58000000e-01	1.53099430e-02	1.48243795e-04
4.59000000e-01	1.51354886e-02	1.46684206e-04
4.60000000e-01	1.51127456e-02	1.46864606e-04
4.61000000e-01	1.52289988e-02	1.47913762e-04
4.62000000e-01	1.52108357e-02	1.47805630e-04
4.63000000e-01	1.53097964e-02	1.48681380e-04
4.64000000e-01	1.51963183e-02	1.47906985e-04
4.65000000e-01	1.52616466e-02	1.48584696e-04
4.66000000e-01	1.52178242e-02	1.48257610e-04
4.67000000e-01	1.51770432e-02	1.47582377e-04
4.68000000e-01	1.50725860e-02	1.46678552e-04
4.69000000e-01	1.51173625e-02	1.47861634e-04
4.70000000e-01	1.52697984e-02	1.48921449e-04
4.71000000e-01	1.50164669e-02	1.46869767e-04
4.72000000e-01	1.51198982e-02	1.47435094e-04
4.73000000e-01	1.49541975e-02	1.46390326e-04
4.74000000e-01	1.50971506e-02	1.47206344e-04
4.75000000e-01	1.50244850e-02	1.46601149e-04
4.76000000e-01	1.50207235e-02	1.46324301e-04
4.77000000e-01	1.49465914e-02	1.46136643e-04
4.78000000e-01	1.49746350e-02	1.46147704e-04
4.79000000e-01	1.48997719e-02	1.45943124e-04
4.80000000e-01	1.50162924e-02	1.47007677e-04
4.81000000e-01	1.50209218e-02	1.46735599e-04
4.82000000e-01	1.50355473e-02	1.46925653e-04
4.83000000e-01	1.49382485e-02	1.46832065e-04
4.84000000e-01	1.48112134e-02	1.45780214e-04
4.85000000e-01	1.49619267e-02	1.46608406e-04
4.86000000e-01	1.47478396e-02	1.44800019e-04
4.87000000e-01	1.49354405e-02	1.46882146e-04
4.88000000e-01	1.48897543e-02	1.46731870e-04
4.89000000e-01	1.48636554e-02	1.46185877e-04
4.90000000e-01	1.49920537e-02	1.46944258e-04
4.91000000e-01	1.49018356e-02	1.46793694e-04
4.92000000e-01	1.47281066e-02	1.45424897e-04
4.93000000e-01	1.48971357e-02	1.47019563e-04
4.94000000e-01	1.49356911e-02	1.47350840e-04
4.95000000e-01	1.47034747e-02	1.46701156e-04
4.96000000e-01	1.47886942e-02	1.51355496e-04
4.97000000e-01	1.47949680e-02	1.54444646e-04
4.98000000e-01	1.47860571e-02	1.56090312e-04
4.99000000e-01	1.47129127e-02	1.57311923e-04
5.00000000e-01	1.49721335e-02	1.61505450e-04
5.01000000e-01	1.48659640e-02	1.62085154e-04
5.02000000e-01	1.50151687e-02	1.64838336e-04
5.03000000e-01	1.47563455e-02	1.64051415e-04
5.04000000e-01	1.48988919e-02	1.66945062e-04
5.05000000e-01	1.48480853e-02	1.63892580e-04
5.06000000e-01	1.47407771e-02	1.59101271e-04
5.07000000e-01	1.48650985e-02	1.58823152e-04
5.08000000e-01	1.49878633e-02	1.58580590e-04
5.09000000e-01	1.47037011e-02	1.55784016e-04
5.10000000e-01	1.48617076e-02	1.56552668e-04
5.11000000e-01	1.48035464e-02	1.55289165e-04
5.12000000e-01	1.46775704e-02	1.53671794e-04
5.13000000e-01	1.47404796e-02	1.54344708e-04
5.14000000e-01	1.46883875e-02	1.53017759e-04
5.15000000e-01	1.46891710e-02	1.52818744e-04
5.16000000e-01	1.46218512e-02	1.51917638e-04
5.17000000e-01	1.46615236e-02	1.52370557e-04
5.18000000e-01	1.45884027e-02	1.51434346e-04
5.19000000e-01	1.46876623e-02	1.51745359e-04
5.20000000e-01	1.47638393e-02	1.52352355e-04
5.21000000e-01	1.45835710e-02	1.50423398e-04
5.22000000e-01	1.47293067e-02	1.51281143e-04
5.23000000e-01	1.46204778e-02	1.50481037e-04
5.24000000e-01	1.46215427e-02	1.50349619e-04
5.25000000e-01	1.45907019e-02	1.50055986e-04
5.26000000e-01	1.47124628e-02	1.50635193e-04
5.27000000e-01	1.45339923e-02	1.49632040e-04
5.28000000e-01	1.47184866e-02	1.51050556e-04
5.29000000e-01	1.44518888e-02	1.49184053e-04
5.30000000e-01	1.45268570e-02	1.49784006e-04
5.31000000e-01	1.44493200e-02	1.48624913e-04
5.32000000e-01	1.45505116e-02	1.49608494e-04
5.33000000e-01	1.43716899e-02	1.48309083e-04
5.34000000e-01	1.44565884e-02	1.48590823e-04
5.35000000e-01	1.45437419e-02	1.49667075e-04
5.36000000e-01	1.43837244e-02	1.47939555e-04
5.37000000e-01	1.45729266e-02	1.49960568e-04
5.38000000e-01	1.45521304e-02	1.49211401e-04
5.39000000e-01	1.44969191e-02	1.49167938e-04
5.40000000e-01	1.44977625e-02	1.48873011e-04
5.41000000e-01	1.44732756e-02	1.48871452e-04
5.42000000e-01	1.44189996e-02	1.48384669e-04
5.43000000e-01	1.43066827e-02	1.47135627e-04
5.44000000e-01	1.44348726e-02	1.48465374e-04
5.45000000e-01	1.42253678e-02	1.46196172e-04
5.46000000e-01	1.42390037e-02	1.46558407e-04
5.47000000e-01	1.43874265e-02	1.48185307e-04
5.48000000e-01	1.42688521e-02	1.46757361e-04
5.49000000e-01	1.43775930e-02	1.47966084e-04
5.50000000e-01	1.43226683e-02	1.47324279e-04
5.51000000e-01	1.43896879e-02	1.47327811e-04
5.52000000e-01	1.43051707e-02	1.46470821e-04
5.53000000e-01	1.42466145e-02	1.45844521e-04
5.54000000e-01	1.41830697e-02	1.45750436e-04
5.55000000e-01	1.43171259e-02	1.46402465e-04
5.56000000e-01	1.42604031e-02	1.46069352e-04
5.57000000e-01	1.44514621e-02	1.47860545e-04
5.58000000e-01	1.41670064e-02	1.45148106e-04
5.59000000e-01	1.41510254e-02	1.44836120e-04
5.60000000e-01	1.41201976e-02	1.44699497e-04
5.61000000e-01	1.41431185e-02	1.44948474e-04
5.62000000e-01	1.41745022e-02	1.45187710e-04
5.63000000e-01	1.41385479e-02	1.44668732e-04
5.64000000e-01	1.41104667e-02	1.44302303e-04
5.65000000e-01	1.41442201e-02	1.45264281e-04
5.66000000e-01	1.42345075e-02	1.45588899e-04
5.67000000e-01	1.42130862e-02	1.45763138e-04
5.68000000e-01	1.41467584e-02	1.44657615e-04
5.69000000e-01	1.41363472e-02	1.44452466e-04
5.70000000e-01	1.41027899e-02	1.44156523e-04
5.71000000e-01	1.40690530e-02	1.43846195e-04
5.72000000e-01	1.41445757e-02	1.44838760e-04
5.73000000e-01	1.40133634e-02	1.43480654e-04
5.74000000e-01	1.40449204e-02	1.43854292e-04
5.75000000e-01	1.40941193e-02	1.44689260e-04
5.76000000e-01	1.40728184e-02	1.44135520e-04
5.77000000e-01	1.41108345e-02	1.44627213e-04
5.78000000e-01	1.40316983e-02	1.43729430e-04
5.79000000e-01	1.40052259e-02	1.43267064e-04
5.80000000e-01	1.39986201e-02	1.43648738e-04
5.81000000e-01	1.39892237e-02	1.43780333e-04
5.82000000e-01	1.39805236e-02	1.43000629e-04
5.83000000e-01	1.40078447e-02	1.43350339e-04
5.84000000e-01	1.40019598e-02	1.43763860e-04
5.85000000e-01	1.38462951e-02	1.42671993e-04
5.86000000e-01	1.38553869e-02	1.42224719e-04
5.87000000e-01	1.38711581e-02	1.42391473e-04
5.88000000e-01	1.39684165e-02	1.44146164e-04
5.89000000e-01	1.38719130e-02	1.42980015e-04
5.90000000e-01	1.40456026e-02	1.44182432e-04
5.91000000e-01	1.39407268e-02	1.43459810e-04
5.92000000e-01	1.38644843e-02	1.42602088e-04
5.93000000e-01	1.38908725e-02	1.42603762e-04
5.94000000e-01	1.37747341e-02	1.41698769e-04
5.95000000e-01	1.39575040e-02	1.43594744e-04
5.96000000e-01	1.39394249e-02	1.43811790e-04
5.97000000e-01	1.39851822e-02	1.43663634e-04
5.98000000e-01	1.39151802e-02	1.43360770e-04
5.99000000e-01	1.38280344e-02	1.42636748e-04
6.00000000e-01	1.38409532e-02	1.42576527e-04
6.01000000e-01	1.38617844e-02	1.43425283e-04
6.02000000e-01	1.39271718e-02	1.43114395e-04
6.03000000e-01	1.37502205e-02	1.41663884e-04
6.04000000e-01	1.37510051e-02	1.41723770e-04
6.05000000e-01	1.39467905e-02	1.43718114e-04
6.06000000e-01	1.37901531e-02	1.41855122e-04
6.07000000e-01	1.37565422e-02	1.41968958e-04
6.08000000e-01	1.39331589e-02	1.43439712e-04
6.09000000e-01	1.37782136e-02	1.42120208e-04
6.10000000e-01	1.36419200e-02	1.41113635e-04
6.11000000e-01	1.37243370e-02	1.41527353e-04
6.12000000e-01	1.37858803e-02	1.42235093e-04
6.13000000e-01	1.37634308e-02	1.42444640e-04
6.14000000e-01	1.36579432e-02	1.41125729e-04
6.15000000e-01	1.36672088e-02	1.41008310e-04
6.16000000e-01	1.37010114e-02	1.41566572e-04
6.17000000e-01	1.36695523e-02	1.41239369e-04
6.18000000e-01	1.38606762e-02	1.43224316e-04
6.19000000e-01	1.36893976e-02	1.41959463e-04
6.20000000e-01	1.35921585e-02	1.40644935e-04
6.21000000e-01	1.36846259e-02	1.41306741e-04
6.22000000e-01	1.35892384e-02	1.39932875e-04
6.23000000e-01	1.36375479e-02	1.39909736e-04
6.24000000e-01	1.35585359e-02	1.39587195e-04
6.25000000e-01	1.36172557e-02	1.39792885e-04
6.26000000e-01	1.36563447e-02	1.40241985e-04
6.27000000e-01	1.36996952e-02	1.40650998e-04
6.28000000e-01	1.36069644e-02	1.39867561e-04
6.29000000e-01	1.35114650e-02	1.39002292e-04
6.30000000e-01	1.36369136e-02	1.40000662e-04
6.31000000e-01	1.33810580e-02	1.37704493e-04
6.32000000e-01	1.38638004e-02	1.41882211e-04
6.33000000e-01	1.36242168e-02	1.40038031e-04
6.34000000e-01	1.36684083e-02	1.43602453e-04
6.35000000e-01	1.36886615e-02	1.48214112e-04
6.36000000e-01	1.35390985e-02	1.49497982e-04
6.37000000e-01	1.36380479e-02	1.52973262e-04
6.38000000e-01	1.36018080e-02	1.54303346e-04
6.39000000e-01	1.35150650e-02	1.55509831e-04
6.40000000e-01	1.35231499e-02	1.57586431e-04
6.41000000e-01	1.36633396e-02	1.60120082e-04
6.42000000e-01	1.35499608e-02	1.61016289e-04
6.43000000e-01	1.34640779e-02	1.60455159e-04
6.44000000e-01	1.36512400e-02	1.56188935e-04
6.45000000e-01	1.36431210e-02	1.54272011e-04
6.46000000e-01	1.36005952e-02	1.51798321e-04
6.47000000e-01	1.36791130e-02	1.51186102e-04
6.48000000e-01	1.36689809e-02	1.50990410e-04
6.49000000e-01	1.36036812e-02	1.49255270e-04
6.50000000e-01	1.36312628e-02	1.48866867e-04
6.51000000e-01	1.35715390e-02	1.47265158e-04
6.52000000e-01	1.36940978e-02	1.48531685e-04
6.53000000e-01	1.37306472e-02	1.48277505e-04
6.54000000e-01	1.35808440e-02	1.45819857e-04
6.55000000e-01	1.36676724e-02	1.46854053e-04
6.56000000e-01	1.35859511e-02	1.45956276e-04
6.57000000e-01	1.35135343e-02	1.45071244e-04
6.58000000e-01	1.36836098e-02	1.46403480e-04
6.59000000e-01	1.34931304e-02	1.44514023e-04
6.60000000e-01	1.35115906e-02	1.44898817e-04
6.61000000e-01	1.34884390e-02	1.43815325e-04
6.62000000e-01	1.36052624e-02	1.44999722e-04
6.63000000e-01	1.35365072e-02	1.44578203e-04
6.64000000e-01	1.34865803e-02	1.43869490e-04
6.65000000e-01	1.32917990e-02	1.41833052e-04
6.66000000e-01	1.34230293e-02	1.43621682e-04
6.67000000e-01	1.33361861e-02	1.42711761e-04
6.68000000e-01	1.35543374e-02	1.44282472e-04
6.69000000e-01	1.34505686e-02	1.43569388e-04
6.70000000e-01	1.34345293e-02	1.42891421e-04
6.71000000e-01	1.35553213e-02	1.43927491e-04
6.72000000e-01	1.34989261e-02	1.43502266e-04
6.73000000e-01	1.34022695e-02	1.42684579e-04
6.74000000e-01	1.34284385e-02	1.43122872e-04
6.75000000e-01	1.35031512e-02	1.43440514e-04
6.76000000e-01	1.34482759e-02	1.42927821e-04
6.77000000e-01	1.34693562e-02	1.42457344e-04
6.78000000e-01	1.35177249e-02	1.43348168e-04
6.79000000e-01	1.34101680e-02	1.41869143e-04
6.80000000e-01	1.33155459e-02	1.41435821e-04
6.81000000e-01	1.33504303e-02	1.41256221e-04
6.82000000e-01	1.32368818e-02	1.40559520e-04
6.83000000e-01	1.34295298e-02	1.42262439e-04
6.84000000e-01	1.34440944e-02	1.42111630e-04
6.85000000e-01	1.34971424e-02	1.42598052e-04
6.86000000e-01	1.33147738e-02	1.41426729e-04
6.87000000e-01	1.33167532e-02	1.41087234e-04
6.88000000e-01	1.32638757e-02	1.40882657e-04
6.89000000e-01	1.33524655e-02	1.41523608e-04
6.90000000e-01	1.33432749e-02	1.41282010e-04
6.91000000e-01	1.32756264e-02	1.40889087e-04
6.92000000e-01	1.32509060e-02	1.40389307e-04
6.93000000e-01	1.32728696e-02	1.40257666e-04
6.94000000e-01	1.31929652e-02	1.39938592e-04
6.95000000e-01	1.31177795e-02	1.39421013e-04
6.96000000e-01	1.32123072e-02	1.40196893e-04
6.97000000e-01	1.32993809e-02	1.40941278e-04
6.98000000e-01	1.33985020e-02	1.41993629e-04
6.99000000e-01	1.31645527e-02	1.39194741e-04
7.00000000e-01	1.32052359e-02	1.39826458e-04
7.01000000e-01	1.32252528e-02	1.40447664e-04
7.02000000e-01	1.31360863e-02	1.39277846e-04
7.03000000e-01	1.33463829e-02	1.41670304e-04
7.04000000e-01	1.30790050e-02	1.38535581e-04
7.05000000e-01	1.32587596e-02	1.40014868e-04
7.06000000e-01	1.31280801e-02	1.39318437e-04
7.07000000e-01	1.32495159e-02	1.39929485e-04
7.08000000e-01	1.32161701e-02	1.39508927e-04
7.09000000e-01	1.32317839e-02	1.39458943e-04
7.10000000e-01	1.31413358e-02	1.38835883e-04
7.11000000e-01	1.31337257e-02	1.38949222e-04
7.12000000e-01	1.30396385e-02	1.37699018e-04
7.13000000e-01	1.31235615e-02	1.38691419e-04
7.14000000e-01	1.30052705e-02	1.37764271e-04
7.15000000e-01	1.31094328e-02	1.39221610e-04
7.16000000e-01	1.29793052e-02	1.37640187e-04
7.17000000e-01	1.29550814e-02	1.37721824e-04
7.18000000e-01	1.30163156e-02	1.37999912e-04
7.19000000e-01	1.29900448e-02	1.36987830e-04
7.20000000e-01	1.29141362e-02	1.37008869e-04
7.21000000e-01	1.31132390e-02	1.38634729e-04
7.22000000e-01	1.29846296e-02	1.37169355e-04
7.23000000e-01	1.28842436e-02	1.36323487e-04
7.24000000e-01	1.30311304e-02	1.38167087e-04
7.25000000e-01	1.29365811e-02	1.37405356e-04
7.26000000e-01	1.29623284e-02	1.37232746e-04
7.27000000e-01	1.29352909e-02	1.37179367e-04
7.28000000e-01	1.30037240e-02	1.37440019e-04
7.29000000e-01	1.28878601e-02	1.36579140e-04
7.30000000e-01	1.29305484e-02	1.36964832e-04
7.31000000e-01	1.27867360e-02	1.35355628e-04
7.32000000e-01	1.30180925e-02	1.37726943e-04
7.33000000e-01	1.27641021e-02	1.35346449e-04
7.34000000e-01	1.28122634e-02	1.35720574e-04
7.35000000e-01	1.28834416e-02	1.36186989e-04
7.36000000e-01	1.27672824e-02	1.34664162e-04
7.37000000e-01	1.28389982e-02	1.35010496e-04
7.38000000e-01	1.28008712e-02	1.34495932e-04
7.39000000e-01	1.28964815e-02	1.35306766e-04
7.40000000e-01	1.28267011e-02	1.34894528e-04
7.41000000e-01	1.28482105e-02	1.34868075e-04
7.42000000e-01	1.26476999e-02	1.32748375e-04
7.43000000e-01	1.28795256e-02	1.34948351e-04
7.44000000e-01	1.27189848e-02	1.33671136e-04
7.45000000e-01	1.26603101e-02	1.32689114e-04
7.46000000e-01	1.28569513e-02	1.35006784e-04
7.47000000e-01	1.26911551e-02	1.32990800e-04
7.48000000e-01	1.27259497e-02	1.33794164e-04
7.49000000e-01	1.28406710e-02	1.35022951e-04
7.50000000e-01	1.27779166e-02	1.34197771e-04
7.51000000e-01	1.26697757e-02	1.32971272e-04
7.52000000e-01	1.27280796e-02	1.33158927e-04
7.53000000e-01	1.26106285e-02	1.32262969e-04
7.54000000e-01	1.28079992e-02	1.33959817e-04
7.55000000e-01	1.27372158e-02	1.33912549e-04
7.56000000e-01	1.26038855e-02	1.32117478e-04
7.57000000e-01	1.27395138e-02	1.34020318e-04
7.58000000e-01	1.27647228e-02	1.33850498e-04
7.59000000e-01	1.25843455e-02	1.32328242e-04
7.60000000e-01	1.25502426e-02	1.31652622e-04
7.61000000e-01	1.25769488e-02	1.31711700e-04
7.62000000e-01	1.25475951e-02	1.31153524e-04
7.63000000e-01	1.25849502e-02	1.31481258e-04
7.64000000e-01	1.25226323e-02	1.30912047e-04
7.65000000e-01	1.24439554e-02	1.29504082e-04
7.66000000e-01	1.25077562e-02	1.30409282e-04
7.67000000e-01	1.25297414e-02	1.30896576e-04
7.68000000e-01	1.25149088e-02	1.30375477e-04
7.69000000e-01	1.24123395e-02	1.29502767e-04
7.70000000e-01	1.25024433e-02	1.30445376e-04
7.71000000e-01	1.23559153e-02	1.29039160e-04
7.72000000e-01	1.24925447e-02	1.34266750e-04
7.73000000e-01	1.25599553e-02	1.39181756e-04
7.74000000e-01	1.23720309e-02	1.40037282e-04
7.75000000e-01	1.24908832e-02	1.43398502e-04
7.76000000e-01	1.23703036e-02	1.44146190e-04
7.77000000e-01	1.23731024e-02	1.46638330e-04
7.78000000e-01	1.25017915e-02	1.49967720e-04
7.79000000e-01	1.25107384e-02	1.52141786e-04
7.80000000e-01	1.24402956e-02	1.52780111e-04
7.81000000e-01	1.24440946e-02	1.54944450e-04
7.82000000e-01	1.24750468e-02	1.57220831e-04
7.83000000e-01	1.23305317e-02	1.57395967e-04
7.84000000e-01	1.23435399e-02	1.57946879e-04
7.85000000e-01	1.22919961e-02	1.59828036e-04
7.86000000e-01	1.23408985e-02	1.61868752e-04
7.87000000e-01	1.23604480e-02	1.63530113e-04
7.88000000e-01	1.23511062e-02	1.65238276e-04
7.89000000e-01	1.24312791e-02	1.67628790e-04
7.90000000e-01	1.23609512e-02	1.68526533e-04
7.91000000e-01	1.24662706e-02	1.71114811e-04
7.92000000e-01	1.23514758e-02	1.72027460e-04
7.93000000e-01	1.23180648e-02	1.72340672e-04
7.94000000e-01	1.21743532e-02	1.72979325e-04
7.95000000e-01	1.24216588e-02	1.78313586e-04
7.96000000e-01	1.21359432e-02	1.76294925e-04
7.97000000e-01	1.20586105e-02	1.77040838e-04
7.98000000e-01	1.20746902e-02	1.78626550e-04
7.99000000e-01	1.22267866e-02	1.83169594e-04
8.00000000e-01	1.22627077e-02	1.84765786e-04
8.01000000e-01	1.21766026e-02	1.86469745e-04
8.02000000e-01	1.21304943e-02	1.87354952e-04
8.03000000e-01	1.19785585e-02	1.87994410e-04
8.04000000e-01	1.22368866e-02	1.92716646e-04
8.05000000e-01	1.20921677e-02	1.93458552e-04
8.06000000e-01	1.21123422e-02	1.95111745e-04
8.07000000e-01	1.19755975e-02	1.95218086e-04
8.08000000e-01	1.21046480e-02	1.99784169e-04
8.09000000e-01	1.21065379e-02	2.01144609e-04
8.10000000e-01	1.20325120e-02	2.02917842e-04
8.11000000e-01	1.19186513e-02	2.03237868e-04
8.12000000e-01	1.19485133e-02	2.06597415e-04
8.13000000e-01	1.20238798e-02	2.09895542e-04
8.14000000e-01	1.19985884e-02	2.10508504e-04
8.15000000e-01	1.19217481e-02	2.12850022e-04
8.16000000e-01	1.19370028e-02	2.16179505e-04
8.17000000e-01	1.19071944e-02	2.17651403e-04
8.18000000e-01	1.21907032e-02	2.24363610e-04
8.19000000e-01	1.19395044e-02	2.24162242e-04
8.20000000e-01	1.18807283e-02	2.24678077e-04
8.21000000e-01	1.21035616e-02	2.32140906e-04
8.22000000e-01	1.21072824e-02	2.34707354e-04
8.23000000e-01	1.19592819e-02	2.35550171e-04
8.24000000e-01	1.20360877e-02	2.40862163e-04
8.25000000e-01	1.18819662e-02	2.39597164e-04
8.26000000e-01	1.17425448e-02	2.42304479e-04
8.27000000e-01	1.17967380e-02	2.45724286e-04
8.28000000e-01	1.16898303e-02	2.47467952e-04
8.29000000e-01	1.18225003e-02	2.55111657e-04
8.30000000e-01	1.16081354e-02	2.55455561e-04
8.31000000e-01	1.14413797e-02	2.56535379e-04
8.32000000e-01	1.18097666e-02	2.67638865e-04
8.33000000e-01	1.13819885e-02	2.62314201e-04
8.34000000e-01	1.15605334e-02	2.69962635e-04
8.35000000e-01	1.17349219e-02	2.78105333e-04
8.36000000e-01	1.17083920e-02	2.82526169e-04
8.37000000e-01	1.13285771e-02	2.81946436e-04
8.38000000e-01	1.14194441e-02	2.88159754e-04
8.39000000e-01	1.13938557e-02	2.96077515e-04
8.40000000e-01	1.17923475e-02	3.10529755e-04
8.41000000e-01	1.14344713e-02	3.09683705e-04
8.42000000e-01	1.16621879e-02	3.23887387e-04
8.43000000e-01	1.14735577e-02	3.26731405e-04
8.44000000e-01	1.20136926e-02	3.46386337e-04
8.45000000e-01	1.17842251e-02	3.47983504e-04
8.46000000e-01	1.11752743e-02	3.43605103e-04
8.47000000e-01	1.17331698e-02	3.68244707e-04
8.48000000e-01	1.14722283e-02	3.75567329e-04
8.49000000e-01	1.14216771e-02	3.85425708e-04
8.50000000e-01	1.15261677e-02	3.96907244e-04
8.51000000e-01	1.12546344e-02	4.03693142e-04
8.52000000e-01	1.14797500e-02	4.27444162e-04
8.53000000e-01	1.15792954e-02	4.51951275e-04
8.54000000e-01	1.10082930e-02	4.49809469e-04
8.55000000e-01	1.11733129e-02	4.72587899e-04
8.56000000e-01	1.12008977e-02	4.80262394e-04
8.57000000e-01	1.13391017e-02	5.08774789e-04
8.58000000e-01	1.12042669e-02	5.16791021e-04
8.59000000e-01	1.14061515e-02	5.43827487e-04
8.60000000e-01	1.16604304e-02	5.61486188e-04
8.61000000e-01	1.10986663e-02	5.61435385e-04
8.62000000e-01	1.10792294e-02	5.84411997e-04
8.63000000e-01	1.16917252e-02	6.40903656e-04
8.64000000e-01	1.03635453e-02	5.97896492e-04
8.65000000e-01	1.12893999e-02	6.70281806e-04
8.66000000e-01	1.07739294e-02	6.73925930e-04
8.67000000e-01	1.13539897e-02	7.51549190e-04
8.68000000e-01	1.09494469e-02	7.63293675e-04
8.69000000e-01	1.10318781e-02	8.35156226e-04
8.70000000e-01	1.08108670e-02	9.12349417e-04
8.71000000e-01	1.08197835e-02	9.74657704e-04
8.72000000e-01	1.08172211e-02	1.10086873e-03
8.73000000e-01	1.18455652e-02	1.44429613e-03
8.74000000e-01	1.10388743e-02	1.78541564e-03
8.75000000e-01	1.24192312e-02	3.99443980e-03
