% Filename : SSW19_00030_00006.h5
% Date & Time : 30-Oct-2025 17:19:10
% X-ray Energy (keV) : 13.30001
% Exposure Time (s) : 0.500
% Beam Center : 1461.24000, 208.98300
% Sample to Detector Distance (SDD) (mm) : 1990.750
% Detector Pixel Size (mm) : 0.075
% Photodiode Value : 140909.000
% I0 of Sample : 0
% I0 of Standard : 1
% 
% q(A^-1)   I(q)    I(q)_SE
0.00000000e+00	1.15394001e-02	6.14900453e-03
2.50000000e-04	0.00000000e+00	0.00000000e+00
5.00000000e-04	0.00000000e+00	0.00000000e+00
7.50000000e-04	0.00000000e+00	0.00000000e+00
1.00000000e-03	0.00000000e+00	0.00000000e+00
1.25000000e-03	0.00000000e+00	0.00000000e+00
1.50000000e-03	0.00000000e+00	0.00000000e+00
1.75000000e-03	0.00000000e+00	0.00000000e+00
2.00000000e-03	0.00000000e+00	0.00000000e+00
2.25000000e-03	0.00000000e+00	0.00000000e+00
2.50000000e-03	0.00000000e+00	0.00000000e+00
2.75000000e-03	0.00000000e+00	0.00000000e+00
3.00000000e-03	0.00000000e+00	0.00000000e+00
3.25000000e-03	9.73338595e-01	5.64050919e-01
3.50000000e-03	1.15205172e+00	2.50225950e-01
3.75000000e-03	9.76255365e-01	1.65411162e-01
4.00000000e-03	8.31893513e-01	1.27970856e-01
4.25000000e-03	7.06140337e-01	8.88205309e-02
4.50000000e-03	7.92233436e-01	1.05459236e-01
4.75000000e-03	7.30354221e-01	8.77477155e-02
5.00000000e-03	5.86639802e-01	6.68070389e-02
5.25000000e-03	5.09020883e-01	5.73343545e-02
5.50000000e-03	4.36460966e-01	4.71845241e-02
5.75000000e-03	3.68147416e-01	3.89719661e-02
6.00000000e-03	3.27240842e-01	3.34902149e-02
6.25000000e-03	2.83420910e-01	2.87495943e-02
6.50000000e-03	2.48218379e-01	2.47143550e-02
6.75000000e-03	2.20409604e-01	2.19074403e-02
7.00000000e-03	2.02890960e-01	1.94969033e-02
7.25000000e-03	1.79569117e-01	1.66563167e-02
7.50000000e-03	1.64383849e-01	1.52645027e-02
7.75000000e-03	1.43265711e-01	1.25454727e-02
8.00000000e-03	1.30719324e-01	1.17016267e-02
8.25000000e-03	1.18343107e-01	1.01797631e-02
8.50000000e-03	1.08498214e-01	9.08916049e-03
8.75000000e-03	1.00411015e-01	8.28469349e-03
9.00000000e-03	9.05006973e-02	7.35711113e-03
9.25000000e-03	8.40720890e-02	6.54152036e-03
9.50000000e-03	7.45648175e-02	5.76532753e-03
9.75000000e-03	7.14551294e-02	5.31628240e-03
1.00000000e-02	6.33265191e-02	4.65908476e-03
1.02500000e-02	6.11560753e-02	4.48077876e-03
1.05000000e-02	5.80457708e-02	4.05050297e-03
1.07500000e-02	5.44676948e-02	3.83468493e-03
1.10000000e-02	5.02357478e-02	3.49749044e-03
1.12500000e-02	4.81841173e-02	3.29751215e-03
1.15000000e-02	4.58337639e-02	3.04204698e-03
1.17500000e-02	4.46314241e-02	2.92965943e-03
1.20000000e-02	4.34690598e-02	2.83211598e-03
1.22500000e-02	4.12238158e-02	2.63758294e-03
1.25000000e-02	3.93621031e-02	2.54581899e-03
1.27500000e-02	3.87072988e-02	2.43228224e-03
1.30000000e-02	3.62461756e-02	2.26012105e-03
1.32500000e-02	3.54826992e-02	2.19919031e-03
1.35000000e-02	3.35810162e-02	2.08585054e-03
1.37500000e-02	3.44055325e-02	2.13132569e-03
1.40000000e-02	3.37191378e-02	2.05517151e-03
1.42500000e-02	3.26287817e-02	1.97096046e-03
1.45000000e-02	3.16770260e-02	1.86233625e-03
1.47500000e-02	3.06828674e-02	1.81702994e-03
1.50000000e-02	2.90793098e-02	1.71254580e-03
1.52500000e-02	2.86575071e-02	1.65777957e-03
1.55000000e-02	2.82781444e-02	1.62258568e-03
1.57500000e-02	2.74727389e-02	1.56433486e-03
1.60000000e-02	2.65870252e-02	1.50580176e-03
1.62500000e-02	2.63391600e-02	1.50138615e-03
1.65000000e-02	2.56400461e-02	1.44256419e-03
1.67500000e-02	2.52929824e-02	1.39452876e-03
1.70000000e-02	2.53168247e-02	1.38966078e-03
1.72500000e-02	2.60655502e-02	1.42749297e-03
1.75000000e-02	2.50128476e-02	1.37329111e-03
1.77500000e-02	2.55267098e-02	1.36847563e-03
1.80000000e-02	2.47346886e-02	1.31117214e-03
1.82500000e-02	2.45562024e-02	1.28990601e-03
1.85000000e-02	2.35941355e-02	1.27898227e-03
1.87500000e-02	2.30737784e-02	1.21410096e-03
1.90000000e-02	2.43640494e-02	1.26797113e-03
1.92500000e-02	2.39431448e-02	1.24524565e-03
1.95000000e-02	2.42689859e-02	1.25348544e-03
1.97500000e-02	2.33227137e-02	1.21038108e-03
2.00000000e-02	2.31939715e-02	1.17963601e-03
2.02500000e-02	2.42221981e-02	1.23476518e-03
2.05000000e-02	2.34360259e-02	1.16261261e-03
2.07500000e-02	2.24646451e-02	1.12898760e-03
2.10000000e-02	2.26145509e-02	1.14637016e-03
2.12500000e-02	2.25369838e-02	1.13819275e-03
2.15000000e-02	2.29778790e-02	1.16865232e-03
2.17500000e-02	2.38835831e-02	1.20066924e-03
2.20000000e-02	2.30701050e-02	1.16175162e-03
2.22500000e-02	2.22608925e-02	1.13371941e-03
2.25000000e-02	2.27075002e-02	1.15859768e-03
2.27500000e-02	2.35293270e-02	1.18136312e-03
2.30000000e-02	2.28275178e-02	1.16943847e-03
2.32500000e-02	2.28620934e-02	1.14616190e-03
2.35000000e-02	2.28183275e-02	1.15658148e-03
2.37500000e-02	2.25109491e-02	1.12767594e-03
2.40000000e-02	2.23534788e-02	1.12814123e-03
2.42500000e-02	2.23607951e-02	1.12024222e-03
2.45000000e-02	2.19588789e-02	1.10987929e-03
2.47500000e-02	2.23630902e-02	1.11005438e-03
2.50000000e-02	2.23727623e-02	1.12393632e-03
2.52500000e-02	2.18924627e-02	1.10327194e-03
2.55000000e-02	2.24359823e-02	1.10215449e-03
2.57500000e-02	2.12379964e-02	1.05540788e-03
2.60000000e-02	2.19946493e-02	1.07608682e-03
2.62500000e-02	2.20618375e-02	1.09267740e-03
2.65000000e-02	2.21335610e-02	1.09161625e-03
2.67500000e-02	2.18045464e-02	1.06573079e-03
2.70000000e-02	2.16407888e-02	1.07391199e-03
2.72500000e-02	2.24281289e-02	1.07361981e-03
2.75000000e-02	2.25709583e-02	1.10527200e-03
2.77500000e-02	2.20865009e-02	1.08363741e-03
2.80000000e-02	2.22630455e-02	1.08326668e-03
2.82500000e-02	2.20387868e-02	1.05953298e-03
2.85000000e-02	2.31424996e-02	1.12215718e-03
2.87500000e-02	2.23121332e-02	1.09535790e-03
2.90000000e-02	2.16061243e-02	1.04863293e-03
2.92500000e-02	2.28969367e-02	1.07964550e-03
2.95000000e-02	2.16864466e-02	1.06282646e-03
2.97500000e-02	2.21236628e-02	1.05797088e-03
3.00000000e-02	2.26894676e-02	1.09969186e-03
3.02500000e-02	2.26041801e-02	1.09054754e-03
3.05000000e-02	2.24514310e-02	1.06122200e-03
3.07500000e-02	2.25882960e-02	1.06909121e-03
3.10000000e-02	2.27164317e-02	1.08470587e-03
3.12500000e-02	2.31223574e-02	1.11701070e-03
3.15000000e-02	2.28515012e-02	1.08619971e-03
3.17500000e-02	2.23470777e-02	1.04366453e-03
3.20000000e-02	2.24873112e-02	1.06130222e-03
3.22500000e-02	2.23792594e-02	1.04632811e-03
3.25000000e-02	2.27405097e-02	1.07340579e-03
3.27500000e-02	2.22712186e-02	1.03323309e-03
3.30000000e-02	2.17286392e-02	1.01541251e-03
3.32500000e-02	2.25443393e-02	1.03797769e-03
3.35000000e-02	2.24519255e-02	1.05599674e-03
3.37500000e-02	2.18846136e-02	1.01008827e-03
3.40000000e-02	2.18879022e-02	1.01884646e-03
3.42500000e-02	2.19227284e-02	1.01733002e-03
3.45000000e-02	2.13590786e-02	9.85329837e-04
3.47500000e-02	2.12317227e-02	9.78069711e-04
3.50000000e-02	2.14380499e-02	9.81773302e-04
3.52500000e-02	2.14770985e-02	9.85567985e-04
3.55000000e-02	2.13623828e-02	9.67082659e-04
3.57500000e-02	2.13038829e-02	9.78438876e-04
3.60000000e-02	2.10328852e-02	9.54321864e-04
3.62500000e-02	2.12468200e-02	9.77928545e-04
3.65000000e-02	2.17701701e-02	9.83312029e-04
3.67500000e-02	2.07399453e-02	9.37446378e-04
3.70000000e-02	2.09994182e-02	9.46980199e-04
3.72500000e-02	2.12551523e-02	9.51110330e-04
3.75000000e-02	2.13781493e-02	9.57628418e-04
3.77500000e-02	2.11400347e-02	9.35754768e-04
3.80000000e-02	2.08839257e-02	9.32341898e-04
3.82500000e-02	2.18969027e-02	9.66238395e-04
3.85000000e-02	2.11301726e-02	9.36229347e-04
3.87500000e-02	2.01740577e-02	8.92820429e-04
3.90000000e-02	2.16651969e-02	9.68681403e-04
3.92500000e-02	2.12337451e-02	9.17371222e-04
3.95000000e-02	2.07221748e-02	9.18418824e-04
3.97500000e-02	2.08932138e-02	9.21179497e-04
4.00000000e-02	2.11813496e-02	9.31213148e-04
4.02500000e-02	2.12182960e-02	9.31674942e-04
4.05000000e-02	2.17467136e-02	9.37803322e-04
4.07500000e-02	2.13134930e-02	9.17639312e-04
4.10000000e-02	2.10381398e-02	9.21170550e-04
4.12500000e-02	2.08295424e-02	9.08579162e-04
4.15000000e-02	2.03824275e-02	8.77872857e-04
4.17500000e-02	2.16379906e-02	9.18370186e-04
4.20000000e-02	2.04672713e-02	8.81413432e-04
4.22500000e-02	2.08654412e-02	8.86288851e-04
4.25000000e-02	2.14702313e-02	9.14179107e-04
4.27500000e-02	2.14016923e-02	9.07522864e-04
4.30000000e-02	2.02941669e-02	8.65814318e-04
4.32500000e-02	1.97908721e-02	8.48554885e-04
4.35000000e-02	2.11518704e-02	8.97950366e-04
4.37500000e-02	2.11070037e-02	8.84769965e-04
4.40000000e-02	2.12496509e-02	9.01495760e-04
4.42500000e-02	2.09798789e-02	8.83695221e-04
4.45000000e-02	2.04688632e-02	8.58258405e-04
4.47500000e-02	2.08359945e-02	8.71629231e-04
4.50000000e-02	2.02863586e-02	8.59320747e-04
4.52500000e-02	2.03315328e-02	8.48328546e-04
4.55000000e-02	2.10629982e-02	8.75340345e-04
4.57500000e-02	2.06663520e-02	8.54646338e-04
4.60000000e-02	2.04263209e-02	8.46643566e-04
4.62500000e-02	2.04744280e-02	8.47095522e-04
4.65000000e-02	2.07971998e-02	8.57760950e-04
4.67500000e-02	2.01438313e-02	8.38176446e-04
4.70000000e-02	2.06732538e-02	8.44454214e-04
4.72500000e-02	2.07441406e-02	8.55860392e-04
4.75000000e-02	2.08876502e-02	8.64608069e-04
4.77500000e-02	2.05549842e-02	8.37921704e-04
4.80000000e-02	2.09429538e-02	8.47340004e-04
4.82500000e-02	2.15530305e-02	8.67757586e-04
4.85000000e-02	2.05723537e-02	8.47377795e-04
4.87500000e-02	1.99816951e-02	8.24587109e-04
4.90000000e-02	2.09494786e-02	8.34805839e-04
4.92500000e-02	2.08972036e-02	8.39094670e-04
4.95000000e-02	2.05645947e-02	8.21764148e-04
4.97500000e-02	2.10850526e-02	8.60351538e-04
5.00000000e-02	2.12224853e-02	8.54518223e-04
5.02500000e-02	2.05261113e-02	8.20482509e-04
5.05000000e-02	2.04056674e-02	8.15889715e-04
5.07500000e-02	1.99050189e-02	7.87722801e-04
5.10000000e-02	2.02326088e-02	8.09036740e-04
5.12500000e-02	2.08770766e-02	8.36330528e-04
5.15000000e-02	2.09605876e-02	8.20351678e-04
5.17500000e-02	2.02821503e-02	8.13569282e-04
5.20000000e-02	2.07422324e-02	8.24037920e-04
5.22500000e-02	2.07580111e-02	8.22645030e-04
5.25000000e-02	2.03622041e-02	8.00186798e-04
5.27500000e-02	2.05945884e-02	8.06336994e-04
5.30000000e-02	1.99894233e-02	7.86461434e-04
5.32500000e-02	2.05211838e-02	8.00730155e-04
5.35000000e-02	2.07198839e-02	8.06817346e-04
5.37500000e-02	2.04471751e-02	7.91142511e-04
5.40000000e-02	2.00386602e-02	7.86844243e-04
5.42500000e-02	2.05704216e-02	7.98284280e-04
5.45000000e-02	2.09499120e-02	8.10816387e-04
5.47500000e-02	2.02965819e-02	7.95874755e-04
5.50000000e-02	2.02255518e-02	7.78270960e-04
5.52500000e-02	2.06234490e-02	7.96360642e-04
5.55000000e-02	2.05656588e-02	7.90003229e-04
5.57500000e-02	2.01764509e-02	7.84310459e-04
5.60000000e-02	2.09633610e-02	8.03122066e-04
5.62500000e-02	2.09677309e-02	8.09217731e-04
5.65000000e-02	2.08170702e-02	7.96217667e-04
5.67500000e-02	2.03568770e-02	7.83535375e-04
5.70000000e-02	2.03801956e-02	7.69749364e-04
5.72500000e-02	2.09183547e-02	7.92030869e-04
5.75000000e-02	2.01952885e-02	7.71330904e-04
5.77500000e-02	2.02927693e-02	7.60439431e-04
5.80000000e-02	2.08820540e-02	7.92599222e-04
5.82500000e-02	2.05287188e-02	7.75890216e-04
5.85000000e-02	2.02664560e-02	7.64033472e-04
5.87500000e-02	2.06543851e-02	7.79710373e-04
5.90000000e-02	2.02128912e-02	7.68978839e-04
5.92500000e-02	2.02673890e-02	7.56392517e-04
5.95000000e-02	2.04056232e-02	7.57400925e-04
5.97500000e-02	1.97640635e-02	7.44928312e-04
6.00000000e-02	1.97896857e-02	7.46140235e-04
6.02500000e-02	2.00470966e-02	7.47817565e-04
6.05000000e-02	1.98693157e-02	7.45779869e-04
6.07500000e-02	2.01417536e-02	7.48996962e-04
6.10000000e-02	2.01793761e-02	7.47648415e-04
6.12500000e-02	2.01454538e-02	7.49930599e-04
6.15000000e-02	2.00683243e-02	7.41422543e-04
6.17500000e-02	2.03080024e-02	7.48431192e-04
6.20000000e-02	2.06025004e-02	7.58457271e-04
6.22500000e-02	2.05407750e-02	7.51575341e-04
6.25000000e-02	2.02467478e-02	7.47785294e-04
6.27500000e-02	1.97996824e-02	7.22378257e-04
6.30000000e-02	2.01045577e-02	7.29462752e-04
6.32500000e-02	2.04100870e-02	7.39068449e-04
6.35000000e-02	2.02220454e-02	7.41954649e-04
6.37500000e-02	2.08281945e-02	7.61054281e-04
6.40000000e-02	2.08220696e-02	7.58080394e-04
6.42500000e-02	2.04208588e-02	7.40164424e-04
6.45000000e-02	1.99976067e-02	7.22670404e-04
6.47500000e-02	1.99026445e-02	7.23601028e-04
6.50000000e-02	2.01184539e-02	7.29334603e-04
6.52500000e-02	2.02937131e-02	7.31512195e-04
6.55000000e-02	2.06468501e-02	7.45389377e-04
6.57500000e-02	2.03708857e-02	7.33575611e-04
6.60000000e-02	2.00803087e-02	7.22401060e-04
6.62500000e-02	1.97124995e-02	7.12521563e-04
6.65000000e-02	1.99061668e-02	7.07723790e-04
6.67500000e-02	2.00183052e-02	7.14735154e-04
6.70000000e-02	1.98591587e-02	7.04997184e-04
6.72500000e-02	1.95178237e-02	6.96475313e-04
6.75000000e-02	1.96710663e-02	6.93178379e-04
6.77500000e-02	2.04696047e-02	7.19085398e-04
6.80000000e-02	1.97447555e-02	7.01086692e-04
6.82500000e-02	2.02042142e-02	7.19216563e-04
6.85000000e-02	2.01957329e-02	7.15172139e-04
6.87500000e-02	1.99185472e-02	7.03469136e-04
6.90000000e-02	1.94090892e-02	6.91375715e-04
6.92500000e-02	1.98054119e-02	6.99492548e-04
6.95000000e-02	1.93894173e-02	6.88717975e-04
6.97500000e-02	2.05187607e-02	7.12593793e-04
7.00000000e-02	2.03168073e-02	7.06837602e-04
7.02500000e-02	2.00862199e-02	6.99006273e-04
7.05000000e-02	2.02216549e-02	6.98890169e-04
7.07500000e-02	1.95452006e-02	6.89860621e-04
7.10000000e-02	1.99453929e-02	6.99527478e-04
7.12500000e-02	2.03084433e-02	7.00958177e-04
7.15000000e-02	1.97397688e-02	6.83761495e-04
7.17500000e-02	2.00516325e-02	6.97659480e-04
7.20000000e-02	2.03997297e-02	7.10023514e-04
7.22500000e-02	2.01185112e-02	6.90309557e-04
7.25000000e-02	1.97320951e-02	6.79139511e-04
7.27500000e-02	2.00752423e-02	6.87587102e-04
7.30000000e-02	1.94421484e-02	6.71703714e-04
7.32500000e-02	1.96095763e-02	6.71821011e-04
7.35000000e-02	1.93974966e-02	6.70066288e-04
7.37500000e-02	1.93306713e-02	6.63410553e-04
7.40000000e-02	1.93797738e-02	6.76247743e-04
7.42500000e-02	1.97313903e-02	6.83867517e-04
7.45000000e-02	1.98453021e-02	6.75626110e-04
7.47500000e-02	1.99806384e-02	6.79107727e-04
7.50000000e-02	1.93283862e-02	6.64858530e-04
7.52500000e-02	2.01380014e-02	6.85916392e-04
7.55000000e-02	2.03201502e-02	6.87224057e-04
7.57500000e-02	1.96867332e-02	6.64489821e-04
7.60000000e-02	1.99717694e-02	6.82148769e-04
7.62500000e-02	2.00222928e-02	6.77512121e-04
7.65000000e-02	1.99125398e-02	6.71684159e-04
7.67500000e-02	2.01267429e-02	6.84993537e-04
7.70000000e-02	1.98823700e-02	6.65779939e-04
7.72500000e-02	2.02433023e-02	6.89537026e-04
7.75000000e-02	1.97222527e-02	6.75991552e-04
7.77500000e-02	1.98881272e-02	6.87354626e-04
7.80000000e-02	2.00235592e-02	7.04461223e-04
7.82500000e-02	2.00879883e-02	7.03616878e-04
7.85000000e-02	1.98940371e-02	7.07678933e-04
7.87500000e-02	1.98852416e-02	6.96869266e-04
7.90000000e-02	2.00999124e-02	7.12401999e-04
7.92500000e-02	2.02214663e-02	7.20323827e-04
7.95000000e-02	1.98060619e-02	7.12459297e-04
7.97500000e-02	2.06165727e-02	7.32943086e-04
8.00000000e-02	1.97233678e-02	7.04082877e-04
8.02500000e-02	1.95506469e-02	7.03454461e-04
8.05000000e-02	2.02813644e-02	7.22197781e-04
8.07500000e-02	1.97367724e-02	7.19821663e-04
8.10000000e-02	1.94615160e-02	7.11158401e-04
8.12500000e-02	1.96689562e-02	7.07646728e-04
8.15000000e-02	2.00148959e-02	7.24209166e-04
8.17500000e-02	1.97661134e-02	7.18726972e-04
8.20000000e-02	1.97137780e-02	7.15218301e-04
8.22500000e-02	1.96170072e-02	7.18099328e-04
8.25000000e-02	1.91098218e-02	6.96714087e-04
8.27500000e-02	2.01157600e-02	7.30960008e-04
8.30000000e-02	1.95700006e-02	7.15900852e-04
8.32500000e-02	2.02630812e-02	7.44933634e-04
8.35000000e-02	2.00702950e-02	7.44268049e-04
8.37500000e-02	2.01744448e-02	7.34412562e-04
8.40000000e-02	1.98109585e-02	7.28095367e-04
8.42500000e-02	1.95590301e-02	7.23387357e-04
8.45000000e-02	1.95953296e-02	7.27674697e-04
8.47500000e-02	1.95940111e-02	7.22506219e-04
8.50000000e-02	1.94966409e-02	7.16956673e-04
8.52500000e-02	2.01151810e-02	7.48081335e-04
8.55000000e-02	1.99341822e-02	7.35319711e-04
8.57500000e-02	1.96359230e-02	7.31814566e-04
8.60000000e-02	1.95247331e-02	7.31225753e-04
8.62500000e-02	1.97259507e-02	7.32796479e-04
8.65000000e-02	1.99447864e-02	7.38735964e-04
8.67500000e-02	1.89430470e-02	6.92762163e-04
8.70000000e-02	2.01376894e-02	7.29911990e-04
8.72500000e-02	1.94732946e-02	7.01726135e-04
8.75000000e-02	1.97345467e-02	6.98030976e-04
8.77500000e-02	2.00546553e-02	7.06763695e-04
8.80000000e-02	1.95785171e-02	6.84846129e-04
8.82500000e-02	2.02403696e-02	7.16044577e-04
8.85000000e-02	2.03873527e-02	7.11541101e-04
8.87500000e-02	1.93258777e-02	6.64115235e-04
8.90000000e-02	1.90877005e-02	6.66732935e-04
8.92500000e-02	1.99721143e-02	6.89021076e-04
8.95000000e-02	2.01523501e-02	6.92178347e-04
8.97500000e-02	1.97492991e-02	6.76288498e-04
9.00000000e-02	2.00192537e-02	6.73157079e-04
9.02500000e-02	2.00008581e-02	6.78602721e-04
9.05000000e-02	1.96960989e-02	6.65916473e-04
9.07500000e-02	2.00558279e-02	6.72623158e-04
9.10000000e-02	1.96757583e-02	6.58090026e-04
9.12500000e-02	2.00370840e-02	6.72592225e-04
9.15000000e-02	1.92590176e-02	6.44062393e-04
9.17500000e-02	1.94996460e-02	6.56773464e-04
9.20000000e-02	1.94618642e-02	6.55342415e-04
9.22500000e-02	2.03022662e-02	6.72511211e-04
9.25000000e-02	1.97816104e-02	6.57347984e-04
9.27500000e-02	1.98869103e-02	6.64338166e-04
9.30000000e-02	1.93132367e-02	6.38923931e-04
9.32500000e-02	1.96627359e-02	6.54848593e-04
9.35000000e-02	1.97765686e-02	6.48878540e-04
9.37500000e-02	2.01780735e-02	6.62287040e-04
9.40000000e-02	2.04310414e-02	6.73547465e-04
9.42500000e-02	1.93305525e-02	6.37386670e-04
9.45000000e-02	1.94005318e-02	6.34039398e-04
9.47500000e-02	1.98992519e-02	6.54516849e-04
9.50000000e-02	2.00145316e-02	6.51003877e-04
9.52500000e-02	1.98073852e-02	6.41642032e-04
9.55000000e-02	1.94685966e-02	6.31230218e-04
9.57500000e-02	2.01578457e-02	6.57321056e-04
9.60000000e-02	1.92582543e-02	6.23310579e-04
9.62500000e-02	1.91434517e-02	6.21082358e-04
9.65000000e-02	1.95576062e-02	6.32136707e-04
9.67500000e-02	1.93914039e-02	6.24634305e-04
9.70000000e-02	1.93744067e-02	6.24277341e-04
9.72500000e-02	1.96282490e-02	6.32129783e-04
9.75000000e-02	1.92936320e-02	6.24424281e-04
9.77500000e-02	1.96589667e-02	6.28123266e-04
9.80000000e-02	2.00757418e-02	6.42672509e-04
9.82500000e-02	1.89335359e-02	6.10350504e-04
9.85000000e-02	1.96469419e-02	6.23234948e-04
9.87500000e-02	1.97808440e-02	6.28834320e-04
9.90000000e-02	1.96447195e-02	6.24063519e-04
9.92500000e-02	1.96917333e-02	6.26400868e-04
9.95000000e-02	1.97627544e-02	6.27094866e-04
9.97500000e-02	1.99947071e-02	6.34584042e-04
1.00000000e-01	1.95733938e-02	5.06130707e-04
1.00500000e-01	1.96721309e-02	4.40478546e-04
1.01000000e-01	1.94861129e-02	4.34626101e-04
1.01500000e-01	2.00461037e-02	4.43098919e-04
1.02000000e-01	1.96426455e-02	4.33338286e-04
1.02500000e-01	1.97843134e-02	4.36821376e-04
1.03000000e-01	1.95740953e-02	4.30774414e-04
1.03500000e-01	2.00358126e-02	4.39582387e-04
1.04000000e-01	1.98686751e-02	4.33414113e-04
1.04500000e-01	1.95250961e-02	4.25730018e-04
1.05000000e-01	1.96187449e-02	4.24183845e-04
1.05500000e-01	1.96284387e-02	4.23782291e-04
1.06000000e-01	1.96660218e-02	4.25445964e-04
1.06500000e-01	2.00555816e-02	4.31558926e-04
1.07000000e-01	1.98385249e-02	4.33059019e-04
1.07500000e-01	1.96448484e-02	4.36393612e-04
1.08000000e-01	1.98518066e-02	4.44364884e-04
1.08500000e-01	1.97687231e-02	4.45640988e-04
1.09000000e-01	1.97579521e-02	4.49059586e-04
1.09500000e-01	1.95873886e-02	4.48791095e-04
1.10000000e-01	1.97228995e-02	4.43413555e-04
1.10500000e-01	1.97573834e-02	4.36494489e-04
1.11000000e-01	1.95567559e-02	4.25662629e-04
1.11500000e-01	1.97034667e-02	4.23296475e-04
1.12000000e-01	1.94999771e-02	4.17623087e-04
1.12500000e-01	1.98269254e-02	4.21105637e-04
1.13000000e-01	1.99870133e-02	4.23764968e-04
1.13500000e-01	1.93588643e-02	4.11239799e-04
1.14000000e-01	1.95100536e-02	4.10972318e-04
1.14500000e-01	1.98048766e-02	4.13769582e-04
1.15000000e-01	1.95922754e-02	4.07628235e-04
1.15500000e-01	1.93501765e-02	4.06159756e-04
1.16000000e-01	1.97587908e-02	4.08056165e-04
1.16500000e-01	1.95674371e-02	4.06716980e-04
1.17000000e-01	1.98139822e-02	4.10137145e-04
1.17500000e-01	1.95166336e-02	4.03124634e-04
1.18000000e-01	1.96029236e-02	4.06830190e-04
1.18500000e-01	1.95971230e-02	4.04301773e-04
1.19000000e-01	1.96305896e-02	4.02872361e-04
1.19500000e-01	1.95585538e-02	3.99804251e-04
1.20000000e-01	1.94638967e-02	3.96436770e-04
1.20500000e-01	1.98793954e-02	4.06094147e-04
1.21000000e-01	1.98224892e-02	4.03637093e-04
1.21500000e-01	1.90851103e-02	3.87712447e-04
1.22000000e-01	1.98864149e-02	4.00798373e-04
1.22500000e-01	1.95743800e-02	3.96032636e-04
1.23000000e-01	1.95319723e-02	3.95120211e-04
1.23500000e-01	1.98289370e-02	3.99575590e-04
1.24000000e-01	1.94204922e-02	3.90670833e-04
1.24500000e-01	1.93546540e-02	3.86098180e-04
1.25000000e-01	2.00485504e-02	3.99319311e-04
1.25500000e-01	1.97640861e-02	3.91029362e-04
1.26000000e-01	1.97821932e-02	3.92974743e-04
1.26500000e-01	1.96457313e-02	3.88779141e-04
1.27000000e-01	1.96382815e-02	3.88615696e-04
1.27500000e-01	1.95059077e-02	3.86705733e-04
1.28000000e-01	1.96776154e-02	3.87397684e-04
1.28500000e-01	1.96305656e-02	3.87113309e-04
1.29000000e-01	1.94552306e-02	3.80973679e-04
1.29500000e-01	1.96702187e-02	3.85813172e-04
1.30000000e-01	1.97247801e-02	3.86362627e-04
1.30500000e-01	1.96311779e-02	3.83412009e-04
1.31000000e-01	1.97280573e-02	3.83006585e-04
1.31500000e-01	1.98369349e-02	3.86122308e-04
1.32000000e-01	1.96657058e-02	3.81456060e-04
1.32500000e-01	1.95134885e-02	3.78528435e-04
1.33000000e-01	1.96277426e-02	3.79534412e-04
1.33500000e-01	1.96275926e-02	3.77465581e-04
1.34000000e-01	1.97962913e-02	3.79385940e-04
1.34500000e-01	1.96057741e-02	3.73381151e-04
1.35000000e-01	1.94089993e-02	3.70649306e-04
1.35500000e-01	1.99617813e-02	3.78613406e-04
1.36000000e-01	1.94421319e-02	3.68740211e-04
1.36500000e-01	1.97140401e-02	3.74933282e-04
1.37000000e-01	1.98776263e-02	3.76233555e-04
1.37500000e-01	1.96498385e-02	3.72816916e-04
1.38000000e-01	1.95543659e-02	3.69182667e-04
1.38500000e-01	1.93101737e-02	3.64756490e-04
1.39000000e-01	1.95277221e-02	3.69394729e-04
1.39500000e-01	1.97820169e-02	3.71949691e-04
1.40000000e-01	1.96369921e-02	3.71006439e-04
1.40500000e-01	1.95962022e-02	3.69828585e-04
1.41000000e-01	1.95375296e-02	3.65857237e-04
1.41500000e-01	1.90679279e-02	3.60298446e-04
1.42000000e-01	1.94067039e-02	3.62182435e-04
1.42500000e-01	1.94261937e-02	3.62755920e-04
1.43000000e-01	1.96917949e-02	3.65999158e-04
1.43500000e-01	1.96586772e-02	3.65902726e-04
1.44000000e-01	1.95686828e-02	3.63722402e-04
1.44500000e-01	1.95187178e-02	3.61932401e-04
1.45000000e-01	1.94112759e-02	3.60283630e-04
1.45500000e-01	1.91928371e-02	3.56190168e-04
1.46000000e-01	1.93407337e-02	3.58405450e-04
1.46500000e-01	1.96112902e-02	3.62208760e-04
1.47000000e-01	1.92995781e-02	3.55704030e-04
1.47500000e-01	1.94722040e-02	3.56683661e-04
1.48000000e-01	1.93877802e-02	3.56399577e-04
1.48500000e-01	1.92943446e-02	3.53261586e-04
1.49000000e-01	1.92761287e-02	3.52061914e-04
1.49500000e-01	1.93338649e-02	3.52161015e-04
1.50000000e-01	1.92629590e-02	3.50667265e-04
1.50500000e-01	1.92770004e-02	3.52895229e-04
1.51000000e-01	1.93656283e-02	3.52349323e-04
1.51500000e-01	1.92115231e-02	3.47168530e-04
1.52000000e-01	1.95532933e-02	3.51876567e-04
1.52500000e-01	1.94408473e-02	3.52467601e-04
1.53000000e-01	1.95403011e-02	3.52338415e-04
1.53500000e-01	1.95089754e-02	3.49467258e-04
1.54000000e-01	1.92926791e-02	3.47085208e-04
1.54500000e-01	1.90185360e-02	3.47569391e-04
1.55000000e-01	1.93081326e-02	3.56436827e-04
1.55500000e-01	1.92905772e-02	3.58277818e-04
1.56000000e-01	1.91246470e-02	3.58434687e-04
1.56500000e-01	1.90277219e-02	3.57693261e-04
1.57000000e-01	1.93595381e-02	3.64474530e-04
1.57500000e-01	1.91804448e-02	3.52646504e-04
1.58000000e-01	1.90215198e-02	3.44045445e-04
1.58500000e-01	1.90780934e-02	3.44735182e-04
1.59000000e-01	1.90538680e-02	3.41493311e-04
1.59500000e-01	1.91715938e-02	3.43914588e-04
1.60000000e-01	1.89581785e-02	3.40785708e-04
1.60500000e-01	1.90897506e-02	3.39409063e-04
1.61000000e-01	1.88445806e-02	3.36171383e-04
1.61500000e-01	1.91118832e-02	3.37158461e-04
1.62000000e-01	1.88566495e-02	3.34542126e-04
1.62500000e-01	1.89252970e-02	3.36049288e-04
1.63000000e-01	1.89891835e-02	3.35500938e-04
1.63500000e-01	1.88638516e-02	3.34728025e-04
1.64000000e-01	1.91776795e-02	3.36126050e-04
1.64500000e-01	1.92427748e-02	3.38156959e-04
1.65000000e-01	1.93879450e-02	3.38480379e-04
1.65500000e-01	1.89191657e-02	3.31224613e-04
1.66000000e-01	1.91793495e-02	3.34511687e-04
1.66500000e-01	1.90784739e-02	3.32303272e-04
1.67000000e-01	1.87912284e-02	3.30066337e-04
1.67500000e-01	1.88978169e-02	3.28239294e-04
1.68000000e-01	1.89291071e-02	3.29401526e-04
1.68500000e-01	1.88561377e-02	3.27258444e-04
1.69000000e-01	1.88782303e-02	3.25640484e-04
1.69500000e-01	1.89763262e-02	3.28312750e-04
1.70000000e-01	1.87904460e-02	3.24731899e-04
1.70500000e-01	1.89759512e-02	3.27793703e-04
1.71000000e-01	1.91039004e-02	3.28791544e-04
1.71500000e-01	1.90124565e-02	3.28105525e-04
1.72000000e-01	1.90077218e-02	3.25601395e-04
1.72500000e-01	1.90020075e-02	3.26943575e-04
1.73000000e-01	1.89612017e-02	3.25431988e-04
1.73500000e-01	1.89297040e-02	3.20782052e-04
1.74000000e-01	1.89644853e-02	3.23876222e-04
1.74500000e-01	1.89812444e-02	3.20527742e-04
1.75000000e-01	1.87971255e-02	3.18556919e-04
1.75500000e-01	1.89385732e-02	3.19146234e-04
1.76000000e-01	1.89619858e-02	3.20314924e-04
1.76500000e-01	1.86670232e-02	3.16920695e-04
1.77000000e-01	1.87549403e-02	3.15388855e-04
1.77500000e-01	1.89042829e-02	3.18673240e-04
1.78000000e-01	1.87465461e-02	3.15374916e-04
1.78500000e-01	1.89275074e-02	3.16695953e-04
1.79000000e-01	1.86871916e-02	3.14676379e-04
1.79500000e-01	1.86665457e-02	3.13516134e-04
1.80000000e-01	1.87589949e-02	3.15577397e-04
1.80500000e-01	1.86779574e-02	3.13995494e-04
1.81000000e-01	1.86488616e-02	3.11627697e-04
1.81500000e-01	1.86997756e-02	3.13558424e-04
1.82000000e-01	1.85970521e-02	3.10694803e-04
1.82500000e-01	1.87146565e-02	3.10222508e-04
1.83000000e-01	1.87181533e-02	3.11656912e-04
1.83500000e-01	1.86336709e-02	3.10823411e-04
1.84000000e-01	1.85571504e-02	3.08701283e-04
1.84500000e-01	1.84610522e-02	3.06653826e-04
1.85000000e-01	1.86621726e-02	3.09796849e-04
1.85500000e-01	1.86257735e-02	3.07106783e-04
1.86000000e-01	1.84965739e-02	3.05341571e-04
1.86500000e-01	1.85253316e-02	3.06399262e-04
1.87000000e-01	1.86522427e-02	3.07857405e-04
1.87500000e-01	1.84180126e-02	3.03368591e-04
1.88000000e-01	1.84444564e-02	3.03151757e-04
1.88500000e-01	1.87012717e-02	3.07006476e-04
1.89000000e-01	1.84171554e-02	3.01560637e-04
1.89500000e-01	1.87165051e-02	3.05826653e-04
1.90000000e-01	1.82646995e-02	2.98864065e-04
1.90500000e-01	1.86456924e-02	3.05469836e-04
1.91000000e-01	1.86278797e-02	3.02592769e-04
1.91500000e-01	1.83874911e-02	2.99985402e-04
1.92000000e-01	1.84662902e-02	3.00066657e-04
1.92500000e-01	1.85185844e-02	3.00154296e-04
1.93000000e-01	1.83074227e-02	2.98173785e-04
1.93500000e-01	1.84371835e-02	2.97816189e-04
1.94000000e-01	1.82057441e-02	2.94999945e-04
1.94500000e-01	1.84771854e-02	2.98192474e-04
1.95000000e-01	1.84753178e-02	2.98835543e-04
1.95500000e-01	1.80209857e-02	2.91088746e-04
1.96000000e-01	1.82008147e-02	2.94406918e-04
1.96500000e-01	1.85863047e-02	2.99037512e-04
1.97000000e-01	1.82599698e-02	2.94782034e-04
1.97500000e-01	1.84114797e-02	2.94189071e-04
1.98000000e-01	1.83099308e-02	2.93420019e-04
1.98500000e-01	1.83206976e-02	2.94365557e-04
1.99000000e-01	1.82717069e-02	2.91459728e-04
1.99500000e-01	1.84200052e-02	2.94478975e-04
2.00000000e-01	1.83272509e-02	2.91891216e-04
2.00500000e-01	1.81604405e-02	2.90421752e-04
2.01000000e-01	1.83934263e-02	2.91274189e-04
2.01500000e-01	1.81169055e-02	2.89040330e-04
2.02000000e-01	1.81574802e-02	2.87817085e-04
2.02500000e-01	1.81409120e-02	2.86816980e-04
2.03000000e-01	1.80366578e-02	2.86290427e-04
2.03500000e-01	1.79358594e-02	2.84989828e-04
2.04000000e-01	1.82273624e-02	2.87039333e-04
2.04500000e-01	1.85138582e-02	2.92798365e-04
2.05000000e-01	1.81670619e-02	2.86605524e-04
2.05500000e-01	1.81202122e-02	2.84718244e-04
2.06000000e-01	1.82056471e-02	2.85262309e-04
2.06500000e-01	1.79326887e-02	2.83075719e-04
2.07000000e-01	1.82772420e-02	2.86844401e-04
2.07500000e-01	1.82676288e-02	2.84831767e-04
2.08000000e-01	1.79857256e-02	2.82268948e-04
2.08500000e-01	1.79771247e-02	2.81747765e-04
2.09000000e-01	1.82162063e-02	2.83975253e-04
2.09500000e-01	1.81954349e-02	2.83429940e-04
2.10000000e-01	1.78866723e-02	2.79529919e-04
2.10500000e-01	1.84468661e-02	2.86412681e-04
2.11000000e-01	1.82424635e-02	2.83039529e-04
2.11500000e-01	1.80074802e-02	2.80650081e-04
2.12000000e-01	1.81058987e-02	2.79921473e-04
2.12500000e-01	1.80656560e-02	2.79586363e-04
2.13000000e-01	1.79569432e-02	2.77850368e-04
2.13500000e-01	1.80232684e-02	2.80131964e-04
2.14000000e-01	1.80108039e-02	2.78895422e-04
2.14500000e-01	1.78826606e-02	2.75841621e-04
2.15000000e-01	1.80460269e-02	2.80426293e-04
2.15500000e-01	1.79874062e-02	2.76305940e-04
2.16000000e-01	1.79829558e-02	2.76826980e-04
2.16500000e-01	1.80029150e-02	2.77722234e-04
2.17000000e-01	1.80029435e-02	2.80631896e-04
2.17500000e-01	1.80347181e-02	2.84257922e-04
2.18000000e-01	1.80949536e-02	2.85926165e-04
2.18500000e-01	1.79998848e-02	2.87106330e-04
2.19000000e-01	1.78729979e-02	2.86418517e-04
2.19500000e-01	1.81594087e-02	2.91577001e-04
2.20000000e-01	1.80167723e-02	2.92315621e-04
2.20500000e-01	1.77876043e-02	2.88885379e-04
2.21000000e-01	1.79196946e-02	2.90510589e-04
2.21500000e-01	1.79526833e-02	2.93453497e-04
2.22000000e-01	1.80465575e-02	2.94474918e-04
2.22500000e-01	1.79455501e-02	2.91904506e-04
2.23000000e-01	1.79083309e-02	2.94251624e-04
2.23500000e-01	1.78538109e-02	2.93236914e-04
2.24000000e-01	1.77318084e-02	2.93253393e-04
2.24500000e-01	1.79891283e-02	2.97329038e-04
2.25000000e-01	1.78197848e-02	2.94611666e-04
2.25500000e-01	1.77800328e-02	2.95279869e-04
2.26000000e-01	1.78991655e-02	2.97770448e-04
2.26500000e-01	1.79165685e-02	2.93582889e-04
2.27000000e-01	1.80307520e-02	2.91527663e-04
2.27500000e-01	1.80820958e-02	2.89427149e-04
2.28000000e-01	1.78982494e-02	2.86443242e-04
2.28500000e-01	1.80371151e-02	2.86056173e-04
2.29000000e-01	1.77528149e-02	2.81113023e-04
2.29500000e-01	1.80232278e-02	2.83643983e-04
2.30000000e-01	1.76670470e-02	2.78887674e-04
2.30500000e-01	1.78161487e-02	2.78567472e-04
2.31000000e-01	1.79690163e-02	2.81195819e-04
2.31500000e-01	1.82067418e-02	2.83755183e-04
2.32000000e-01	1.78587217e-02	2.77127441e-04
2.32500000e-01	1.78015255e-02	2.77415475e-04
2.33000000e-01	1.77556735e-02	2.75583617e-04
2.33500000e-01	1.77237088e-02	2.74565539e-04
2.34000000e-01	1.76487221e-02	2.72309202e-04
2.34500000e-01	1.77503146e-02	2.72843002e-04
2.35000000e-01	1.78390801e-02	2.73871372e-04
2.35500000e-01	1.77122914e-02	2.72959850e-04
2.36000000e-01	1.77996590e-02	2.73297105e-04
2.36500000e-01	1.77200998e-02	2.71423882e-04
2.37000000e-01	1.78252647e-02	2.72882289e-04
2.37500000e-01	1.77864230e-02	2.72363768e-04
2.38000000e-01	1.77269868e-02	2.68355027e-04
2.38500000e-01	1.79534704e-02	2.72503169e-04
2.39000000e-01	1.77464673e-02	2.69346800e-04
2.39500000e-01	1.77914271e-02	2.70323746e-04
2.40000000e-01	1.77568855e-02	2.68233791e-04
2.40500000e-01	1.76428059e-02	2.66745642e-04
2.41000000e-01	1.74690543e-02	2.62606856e-04
2.41500000e-01	1.77070052e-02	2.66628293e-04
2.42000000e-01	1.77278764e-02	2.67049918e-04
2.42500000e-01	1.75925492e-02	2.64119178e-04
2.43000000e-01	1.78416726e-02	2.67586446e-04
2.43500000e-01	1.74548318e-02	2.61532849e-04
2.44000000e-01	1.77149184e-02	2.64031707e-04
2.44500000e-01	1.75216344e-02	2.62062319e-04
2.45000000e-01	1.76871976e-02	2.63227376e-04
2.45500000e-01	1.77809218e-02	2.64029218e-04
2.46000000e-01	1.76551711e-02	2.62783540e-04
2.46500000e-01	1.76725075e-02	2.61173226e-04
2.47000000e-01	1.74200749e-02	2.57608777e-04
2.47500000e-01	1.73969273e-02	2.56826783e-04
2.48000000e-01	1.75032522e-02	2.58683468e-04
2.48500000e-01	1.74382283e-02	2.57922303e-04
2.49000000e-01	1.73918925e-02	2.57295014e-04
2.49500000e-01	1.73588639e-02	2.56302476e-04
2.50000000e-01	1.73955784e-02	2.55343513e-04
2.50500000e-01	1.74622533e-02	2.56581545e-04
2.51000000e-01	1.75566716e-02	2.56906231e-04
2.51500000e-01	1.72817890e-02	2.54136730e-04
2.52000000e-01	1.73690331e-02	2.55354702e-04
2.52500000e-01	1.73451002e-02	2.53800218e-04
2.53000000e-01	1.76889252e-02	2.58167198e-04
2.53500000e-01	1.73287043e-02	2.53866838e-04
2.54000000e-01	1.72237836e-02	2.51975516e-04
2.54500000e-01	1.73814495e-02	2.53519264e-04
2.55000000e-01	1.74155010e-02	2.54192514e-04
2.55500000e-01	1.74200535e-02	2.54196654e-04
2.56000000e-01	1.73420055e-02	2.51857319e-04
2.56500000e-01	1.71486609e-02	2.49474255e-04
2.57000000e-01	1.74079476e-02	2.51900822e-04
2.57500000e-01	1.74197324e-02	2.51679366e-04
2.58000000e-01	1.71504407e-02	2.49289571e-04
2.58500000e-01	1.73057311e-02	2.49937971e-04
2.59000000e-01	1.72774960e-02	2.49055968e-04
2.59500000e-01	1.73712641e-02	2.50906099e-04
2.60000000e-01	1.72934180e-02	2.49109223e-04
2.60500000e-01	1.71489136e-02	2.46927860e-04
2.61000000e-01	1.74246679e-02	2.50475601e-04
2.61500000e-01	1.74692214e-02	2.50423576e-04
2.62000000e-01	1.70418730e-02	2.44790999e-04
2.62500000e-01	1.71327678e-02	2.45730721e-04
2.63000000e-01	1.72299442e-02	2.47052070e-04
2.63500000e-01	1.72055350e-02	2.45343317e-04
2.64000000e-01	1.72602348e-02	2.46769565e-04
2.64500000e-01	1.73209079e-02	2.46793878e-04
2.65000000e-01	1.72648562e-02	2.46957230e-04
2.65500000e-01	1.71389548e-02	2.44009124e-04
2.66000000e-01	1.72750252e-02	2.46068420e-04
2.66500000e-01	1.73910655e-02	2.46650499e-04
2.67000000e-01	1.70783624e-02	2.42435048e-04
2.67500000e-01	1.71608236e-02	2.42443867e-04
2.68000000e-01	1.70625709e-02	2.41626050e-04
2.68500000e-01	1.70639097e-02	2.41731094e-04
2.69000000e-01	1.74379852e-02	2.45333907e-04
2.69500000e-01	1.70532760e-02	2.40628862e-04
2.70000000e-01	1.73032415e-02	2.44205295e-04
2.70500000e-01	1.71042113e-02	2.40864790e-04
2.71000000e-01	1.73692311e-02	2.43897401e-04
2.71500000e-01	1.72690706e-02	2.42679491e-04
2.72000000e-01	1.70924837e-02	2.40713931e-04
2.72500000e-01	1.70153544e-02	2.39662213e-04
2.73000000e-01	1.71418540e-02	2.40634605e-04
2.73500000e-01	1.71192909e-02	2.39598731e-04
2.74000000e-01	1.71449444e-02	2.39770251e-04
2.74500000e-01	1.72895966e-02	2.41522696e-04
2.75000000e-01	1.69819081e-02	2.37511798e-04
2.75500000e-01	1.70677672e-02	2.38690524e-04
2.76000000e-01	1.68578279e-02	2.35592023e-04
2.76500000e-01	1.70939615e-02	2.38545224e-04
2.77000000e-01	1.69550776e-02	2.36192825e-04
2.77500000e-01	1.71384644e-02	2.37906917e-04
2.78000000e-01	1.72210887e-02	2.39764498e-04
2.78500000e-01	1.70200159e-02	2.36990108e-04
2.79000000e-01	1.70304274e-02	2.36498614e-04
2.79500000e-01	1.70737625e-02	2.36419876e-04
2.80000000e-01	1.70190006e-02	2.36549526e-04
2.80500000e-01	1.70952880e-02	2.36657058e-04
2.81000000e-01	1.69597095e-02	2.34530654e-04
2.81500000e-01	1.69302189e-02	2.34335776e-04
2.82000000e-01	1.68562641e-02	2.32670540e-04
2.82500000e-01	1.69743800e-02	2.34004413e-04
2.83000000e-01	1.70169386e-02	2.33464410e-04
2.83500000e-01	1.70074277e-02	2.34102041e-04
2.84000000e-01	1.70628767e-02	2.34454295e-04
2.84500000e-01	1.67876216e-02	2.29740882e-04
2.85000000e-01	1.70105504e-02	2.34199649e-04
2.85500000e-01	1.69354619e-02	2.32156111e-04
2.86000000e-01	1.69499263e-02	2.32139651e-04
2.86500000e-01	1.69163739e-02	2.31887198e-04
2.87000000e-01	1.69130756e-02	2.31607175e-04
2.87500000e-01	1.69432325e-02	2.30364251e-04
2.88000000e-01	1.68497732e-02	2.29410547e-04
2.88500000e-01	1.70479032e-02	2.32367757e-04
2.89000000e-01	1.68456672e-02	2.29557293e-04
2.89500000e-01	1.69737243e-02	2.30578878e-04
2.90000000e-01	1.67348323e-02	2.27959653e-04
2.90500000e-01	1.69244281e-02	2.29920191e-04
2.91000000e-01	1.69511135e-02	2.29391734e-04
2.91500000e-01	1.69605396e-02	2.30142713e-04
2.92000000e-01	1.67751713e-02	2.27204515e-04
2.92500000e-01	1.68142387e-02	2.27064993e-04
2.93000000e-01	1.68249763e-02	2.26868352e-04
2.93500000e-01	1.69104543e-02	2.28157394e-04
2.94000000e-01	1.69776165e-02	2.29066453e-04
2.94500000e-01	1.66681149e-02	2.25648383e-04
2.95000000e-01	1.68412790e-02	2.25948919e-04
2.95500000e-01	1.67399731e-02	2.25390807e-04
2.96000000e-01	1.66803053e-02	2.23253646e-04
2.96500000e-01	1.69097661e-02	2.26473829e-04
2.97000000e-01	1.69347435e-02	2.27731195e-04
2.97500000e-01	1.67368374e-02	2.23471590e-04
2.98000000e-01	1.68069190e-02	2.25285456e-04
2.98500000e-01	1.67812701e-02	2.24828060e-04
2.99000000e-01	1.66936784e-02	2.22829590e-04
2.99500000e-01	1.67610785e-02	2.24387427e-04
3.00000000e-01	1.68134907e-02	2.24618393e-04
3.00500000e-01	1.67863103e-02	2.24787898e-04
3.01000000e-01	1.68882683e-02	2.24482058e-04
3.01500000e-01	1.68063812e-02	2.24528302e-04
3.02000000e-01	1.67535577e-02	2.23378734e-04
3.02500000e-01	1.67055768e-02	2.22537439e-04
3.03000000e-01	1.68938902e-02	2.24614278e-04
3.03500000e-01	1.65917720e-02	2.19804467e-04
3.04000000e-01	1.69038448e-02	2.24766669e-04
3.04500000e-01	1.65395834e-02	2.19256214e-04
3.05000000e-01	1.65984884e-02	2.19887594e-04
3.05500000e-01	1.65624615e-02	2.19511097e-04
3.06000000e-01	1.68150664e-02	2.21098463e-04
3.06500000e-01	1.66449331e-02	2.20494181e-04
3.07000000e-01	1.65980877e-02	2.18158773e-04
3.07500000e-01	1.65478039e-02	2.19052156e-04
3.08000000e-01	1.65704957e-02	2.18678313e-04
3.08500000e-01	1.67939644e-02	2.21087388e-04
3.09000000e-01	1.65873929e-02	2.18863565e-04
3.09500000e-01	1.65807474e-02	2.18123857e-04
3.10000000e-01	1.66752093e-02	2.19141572e-04
3.10500000e-01	1.64564007e-02	2.15702652e-04
3.11000000e-01	1.66549390e-02	2.18959341e-04
3.11500000e-01	1.65886330e-02	2.17622653e-04
3.12000000e-01	1.64353956e-02	2.15758949e-04
3.12500000e-01	1.67146481e-02	2.19210964e-04
3.13000000e-01	1.66321861e-02	2.17946893e-04
3.13500000e-01	1.66209403e-02	2.17393068e-04
3.14000000e-01	1.66620913e-02	2.17086879e-04
3.14500000e-01	1.64510311e-02	2.14563365e-04
3.15000000e-01	1.66325336e-02	2.17126309e-04
3.15500000e-01	1.66596849e-02	2.17205125e-04
3.16000000e-01	1.66128916e-02	2.16425934e-04
3.16500000e-01	1.65352810e-02	2.13937258e-04
3.17000000e-01	1.63792170e-02	2.13267716e-04
3.17500000e-01	1.65735324e-02	2.15199342e-04
3.18000000e-01	1.64731574e-02	2.13924238e-04
3.18500000e-01	1.64748045e-02	2.14043633e-04
3.19000000e-01	1.65898613e-02	2.15143331e-04
3.19500000e-01	1.64182925e-02	2.12879428e-04
3.20000000e-01	1.63637349e-02	2.12934160e-04
3.20500000e-01	1.63541137e-02	2.11829091e-04
3.21000000e-01	1.64798826e-02	2.13253097e-04
3.21500000e-01	1.64425339e-02	2.12151747e-04
3.22000000e-01	1.63441908e-02	2.11232158e-04
3.22500000e-01	1.64288862e-02	2.11562463e-04
3.23000000e-01	1.63486492e-02	2.11148665e-04
3.23500000e-01	1.63118044e-02	2.10231943e-04
3.24000000e-01	1.65455979e-02	2.12467368e-04
3.24500000e-01	1.63358095e-02	2.10472374e-04
3.25000000e-01	1.64686964e-02	2.10866027e-04
3.25500000e-01	1.62869047e-02	2.09909613e-04
3.26000000e-01	1.62084570e-02	2.08443867e-04
3.26500000e-01	1.61926319e-02	2.08641647e-04
3.27000000e-01	1.60963868e-02	2.07176045e-04
3.27500000e-01	1.60893776e-02	2.06525219e-04
3.28000000e-01	1.63122025e-02	2.08893912e-04
3.28500000e-01	1.60928933e-02	2.06154362e-04
3.29000000e-01	1.63816119e-02	2.09367460e-04
3.29500000e-01	1.62496654e-02	2.07750633e-04
3.30000000e-01	1.64016489e-02	2.08409757e-04
3.30500000e-01	1.61518590e-02	2.06925479e-04
3.31000000e-01	1.61425353e-02	2.05544138e-04
3.31500000e-01	1.61859557e-02	2.06148788e-04
3.32000000e-01	1.59622265e-02	2.04043637e-04
3.32500000e-01	1.60915938e-02	2.04419053e-04
3.33000000e-01	1.60829995e-02	2.04576324e-04
3.33500000e-01	1.63476055e-02	2.07411729e-04
3.34000000e-01	1.62015051e-02	2.05927076e-04
3.34500000e-01	1.59869120e-02	2.02813176e-04
3.35000000e-01	1.59540358e-02	2.02602044e-04
3.35500000e-01	1.60737239e-02	2.03943617e-04
3.36000000e-01	1.60544760e-02	2.03050037e-04
3.36500000e-01	1.60686512e-02	2.03134774e-04
3.37000000e-01	1.62681162e-02	2.04778557e-04
3.37500000e-01	1.61791400e-02	2.03867151e-04
3.38000000e-01	1.60602219e-02	2.02513928e-04
3.38500000e-01	1.61006181e-02	2.02621270e-04
3.39000000e-01	1.60676641e-02	2.02138344e-04
3.39500000e-01	1.59084642e-02	1.99947162e-04
3.40000000e-01	1.59634774e-02	2.01572881e-04
3.40500000e-01	1.60502177e-02	2.02173864e-04
3.41000000e-01	1.61015871e-02	2.02258191e-04
3.41500000e-01	1.58844342e-02	2.00372206e-04
3.42000000e-01	1.61087939e-02	2.01596270e-04
3.42500000e-01	1.60490598e-02	2.01770473e-04
3.43000000e-01	1.58561385e-02	1.98573840e-04
3.43500000e-01	1.60909437e-02	2.01086392e-04
3.44000000e-01	1.60585528e-02	2.00868185e-04
3.44500000e-01	1.59381541e-02	1.99831799e-04
3.45000000e-01	1.58352668e-02	1.98186105e-04
3.45500000e-01	1.58931077e-02	1.98743047e-04
3.46000000e-01	1.60994518e-02	2.01357430e-04
3.46500000e-01	1.58907002e-02	1.98204966e-04
3.47000000e-01	1.59701119e-02	1.98646463e-04
3.47500000e-01	1.58290666e-02	1.97769969e-04
3.48000000e-01	1.59218489e-02	1.98087355e-04
3.48500000e-01	1.60129334e-02	1.98777787e-04
3.49000000e-01	1.59224967e-02	1.97791108e-04
3.49500000e-01	1.55744534e-02	1.93543593e-04
3.50000000e-01	1.59557192e-02	1.61390456e-04
3.51000000e-01	1.57763251e-02	1.38473589e-04
3.52000000e-01	1.58015010e-02	1.38320252e-04
3.53000000e-01	1.58926625e-02	1.38646327e-04
3.54000000e-01	1.57985203e-02	1.37905026e-04
3.55000000e-01	1.56633427e-02	1.36897854e-04
3.56000000e-01	1.57121201e-02	1.37619567e-04
3.57000000e-01	1.58781200e-02	1.41547826e-04
3.58000000e-01	1.57299661e-02	1.41485743e-04
3.59000000e-01	1.57638448e-02	1.42811971e-04
3.60000000e-01	1.55719418e-02	1.41840673e-04
3.61000000e-01	1.55131412e-02	1.42459243e-04
3.62000000e-01	1.55709105e-02	1.43111750e-04
3.63000000e-01	1.56333840e-02	1.44224386e-04
3.64000000e-01	1.55973890e-02	1.44704522e-04
3.65000000e-01	1.56610263e-02	1.45242029e-04
3.66000000e-01	1.54661610e-02	1.42399182e-04
3.67000000e-01	1.55879775e-02	1.41050337e-04
3.68000000e-01	1.55429532e-02	1.39671735e-04
3.69000000e-01	1.55809127e-02	1.39601408e-04
3.70000000e-01	1.54769918e-02	1.38085039e-04
3.71000000e-01	1.54306941e-02	1.39092675e-04
3.72000000e-01	1.55481863e-02	1.41337267e-04
3.73000000e-01	1.55757205e-02	1.41550252e-04
3.74000000e-01	1.54151362e-02	1.40478261e-04
3.75000000e-01	1.55622432e-02	1.41620108e-04
3.76000000e-01	1.55507797e-02	1.41710288e-04
3.77000000e-01	1.54894267e-02	1.41164181e-04
3.78000000e-01	1.55102140e-02	1.41592134e-04
3.79000000e-01	1.56519265e-02	1.42526404e-04
3.80000000e-01	1.53631253e-02	1.39656237e-04
3.81000000e-01	1.53946865e-02	1.40151176e-04
3.82000000e-01	1.53993328e-02	1.39922467e-04
3.83000000e-01	1.53770214e-02	1.39495054e-04
3.84000000e-01	1.53859823e-02	1.40026909e-04
3.85000000e-01	1.54432796e-02	1.40517308e-04
3.86000000e-01	1.53153096e-02	1.39546475e-04
3.87000000e-01	1.54184378e-02	1.39738228e-04
3.88000000e-01	1.53454918e-02	1.39583357e-04
3.89000000e-01	1.52748023e-02	1.38967063e-04
3.90000000e-01	1.52615957e-02	1.38314667e-04
3.91000000e-01	1.52779987e-02	1.38529911e-04
3.92000000e-01	1.52178541e-02	1.38212503e-04
3.93000000e-01	1.51821794e-02	1.37785877e-04
3.94000000e-01	1.52915161e-02	1.38672226e-04
3.95000000e-01	1.51270010e-02	1.37165365e-04
3.96000000e-01	1.52144302e-02	1.38505205e-04
3.97000000e-01	1.51879972e-02	1.37420050e-04
3.98000000e-01	1.50489389e-02	1.36729956e-04
3.99000000e-01	1.50415847e-02	1.36296714e-04
4.00000000e-01	1.51107000e-02	1.37156524e-04
4.01000000e-01	1.50477265e-02	1.36621874e-04
4.02000000e-01	1.49907207e-02	1.35955736e-04
4.03000000e-01	1.51214092e-02	1.37258174e-04
4.04000000e-01	1.51180760e-02	1.36973590e-04
4.05000000e-01	1.50013552e-02	1.36265722e-04
4.06000000e-01	1.50299716e-02	1.36190056e-04
4.07000000e-01	1.50029163e-02	1.36111380e-04
4.08000000e-01	1.50809710e-02	1.36267624e-04
4.09000000e-01	1.49491476e-02	1.35151625e-04
4.10000000e-01	1.49168370e-02	1.34765850e-04
4.11000000e-01	1.51102589e-02	1.36454483e-04
4.12000000e-01	1.50369852e-02	1.36093059e-04
4.13000000e-01	1.50331903e-02	1.35696945e-04
4.14000000e-01	1.49823196e-02	1.35343305e-04
4.15000000e-01	1.49149439e-02	1.34627957e-04
4.16000000e-01	1.50312083e-02	1.35246156e-04
4.17000000e-01	1.50267034e-02	1.35426589e-04
4.18000000e-01	1.49708332e-02	1.36588615e-04
4.19000000e-01	1.49724744e-02	1.38302113e-04
4.20000000e-01	1.49435529e-02	1.38704179e-04
4.21000000e-01	1.51163287e-02	1.40786898e-04
4.22000000e-01	1.50379189e-02	1.40469405e-04
4.23000000e-01	1.49052214e-02	1.40191039e-04
4.24000000e-01	1.50057277e-02	1.41297804e-04
4.25000000e-01	1.50187714e-02	1.41452972e-04
4.26000000e-01	1.50125048e-02	1.41461533e-04
4.27000000e-01	1.49417543e-02	1.40838712e-04
4.28000000e-01	1.48964550e-02	1.40427042e-04
4.29000000e-01	1.50295263e-02	1.42188867e-04
4.30000000e-01	1.48409652e-02	1.40432737e-04
4.31000000e-01	1.49893198e-02	1.41391075e-04
4.32000000e-01	1.48818720e-02	1.39835810e-04
4.33000000e-01	1.46784256e-02	1.39619712e-04
4.34000000e-01	1.48441517e-02	1.40981526e-04
4.35000000e-01	1.48169995e-02	1.40894946e-04
4.36000000e-01	1.48222247e-02	1.40628905e-04
4.37000000e-01	1.47778311e-02	1.40863976e-04
4.38000000e-01	1.46531590e-02	1.40143752e-04
4.39000000e-01	1.48518926e-02	1.41720987e-04
4.40000000e-01	1.48665945e-02	1.41740141e-04
4.41000000e-01	1.47421519e-02	1.40902629e-04
4.42000000e-01	1.47749867e-02	1.41391340e-04
4.43000000e-01	1.47440783e-02	1.41370605e-04
4.44000000e-01	1.46898841e-02	1.41128121e-04
4.45000000e-01	1.46835774e-02	1.41179556e-04
4.46000000e-01	1.47090166e-02	1.41408244e-04
4.47000000e-01	1.48239576e-02	1.42257345e-04
4.48000000e-01	1.47273431e-02	1.41772461e-04
4.49000000e-01	1.45984246e-02	1.41170893e-04
4.50000000e-01	1.47714881e-02	1.42387037e-04
4.51000000e-01	1.45440682e-02	1.40754950e-04
4.52000000e-01	1.46365120e-02	1.41877942e-04
4.53000000e-01	1.47275691e-02	1.42936994e-04
4.54000000e-01	1.46879565e-02	1.42321149e-04
4.55000000e-01	1.45750438e-02	1.41619426e-04
4.56000000e-01	1.46022069e-02	1.41782913e-04
4.57000000e-01	1.44830326e-02	1.40858225e-04
4.58000000e-01	1.47021188e-02	1.42771340e-04
4.59000000e-01	1.45839993e-02	1.42102841e-04
4.60000000e-01	1.46219824e-02	1.42501816e-04
4.61000000e-01	1.47330164e-02	1.43753806e-04
4.62000000e-01	1.46074179e-02	1.42555485e-04
4.63000000e-01	1.45134888e-02	1.42106329e-04
4.64000000e-01	1.45468524e-02	1.42219580e-04
4.65000000e-01	1.47163815e-02	1.44102538e-04
4.66000000e-01	1.46409954e-02	1.43091376e-04
4.67000000e-01	1.44758492e-02	1.42248547e-04
4.68000000e-01	1.45584415e-02	1.42989016e-04
4.69000000e-01	1.44545568e-02	1.41893929e-04
4.70000000e-01	1.45715361e-02	1.42904858e-04
4.71000000e-01	1.45265730e-02	1.42545079e-04
4.72000000e-01	1.45366118e-02	1.42501949e-04
4.73000000e-01	1.45393983e-02	1.42424071e-04
4.74000000e-01	1.44801346e-02	1.41761853e-04
4.75000000e-01	1.45520648e-02	1.42212479e-04
4.76000000e-01	1.45069494e-02	1.42407529e-04
4.77000000e-01	1.43835706e-02	1.41354096e-04
4.78000000e-01	1.44011606e-02	1.41575947e-04
4.79000000e-01	1.46733421e-02	1.43642190e-04
4.80000000e-01	1.42564175e-02	1.40107351e-04
4.81000000e-01	1.43206223e-02	1.40705244e-04
4.82000000e-01	1.43382326e-02	1.41028876e-04
4.83000000e-01	1.43980506e-02	1.41901052e-04
4.84000000e-01	1.43621526e-02	1.41432975e-04
4.85000000e-01	1.42979698e-02	1.41023521e-04
4.86000000e-01	1.42832450e-02	1.40934266e-04
4.87000000e-01	1.43676257e-02	1.41721999e-04
4.88000000e-01	1.42530200e-02	1.40834703e-04
4.89000000e-01	1.43815169e-02	1.42119961e-04
4.90000000e-01	1.43908927e-02	1.42423967e-04
4.91000000e-01	1.42878298e-02	1.41361545e-04
4.92000000e-01	1.42169586e-02	1.40509699e-04
4.93000000e-01	1.42145740e-02	1.40961651e-04
4.94000000e-01	1.42229131e-02	1.41133466e-04
4.95000000e-01	1.42850755e-02	1.42400235e-04
4.96000000e-01	1.43041133e-02	1.46726639e-04
4.97000000e-01	1.43647444e-02	1.49913454e-04
4.98000000e-01	1.43709197e-02	1.52168018e-04
4.99000000e-01	1.41887594e-02	1.52241279e-04
5.00000000e-01	1.44718369e-02	1.56610679e-04
5.01000000e-01	1.41346121e-02	1.55563808e-04
5.02000000e-01	1.42145692e-02	1.57630555e-04
5.03000000e-01	1.43667367e-02	1.59984052e-04
5.04000000e-01	1.42827638e-02	1.60679821e-04
5.05000000e-01	1.42700549e-02	1.57954074e-04
5.06000000e-01	1.43270474e-02	1.54924609e-04
5.07000000e-01	1.42612429e-02	1.52919729e-04
5.08000000e-01	1.42262731e-02	1.51967087e-04
5.09000000e-01	1.42744758e-02	1.51171511e-04
5.10000000e-01	1.43358274e-02	1.51656416e-04
5.11000000e-01	1.42056280e-02	1.49963082e-04
5.12000000e-01	1.41314494e-02	1.48212133e-04
5.13000000e-01	1.42042080e-02	1.49429739e-04
5.14000000e-01	1.41288965e-02	1.48374273e-04
5.15000000e-01	1.43933081e-02	1.50089352e-04
5.16000000e-01	1.41904559e-02	1.48071337e-04
5.17000000e-01	1.40626025e-02	1.46944822e-04
5.18000000e-01	1.40960254e-02	1.46482671e-04
5.19000000e-01	1.41441558e-02	1.46531351e-04
5.20000000e-01	1.39433497e-02	1.44642055e-04
5.21000000e-01	1.40284043e-02	1.45200648e-04
5.22000000e-01	1.39738445e-02	1.44497783e-04
5.23000000e-01	1.40186001e-02	1.45016489e-04
5.24000000e-01	1.40643316e-02	1.45312968e-04
5.25000000e-01	1.41717668e-02	1.46059277e-04
5.26000000e-01	1.41281976e-02	1.46022818e-04
5.27000000e-01	1.40426232e-02	1.45068622e-04
5.28000000e-01	1.38685864e-02	1.43589190e-04
5.29000000e-01	1.41958714e-02	1.46342226e-04
5.30000000e-01	1.39463956e-02	1.44147896e-04
5.31000000e-01	1.39472028e-02	1.44442382e-04
5.32000000e-01	1.38559368e-02	1.43749192e-04
5.33000000e-01	1.40880139e-02	1.45219220e-04
5.34000000e-01	1.39965976e-02	1.44442231e-04
5.35000000e-01	1.39506635e-02	1.43867386e-04
5.36000000e-01	1.39404440e-02	1.44228148e-04
5.37000000e-01	1.39472345e-02	1.43979868e-04
5.38000000e-01	1.39605615e-02	1.44024194e-04
5.39000000e-01	1.39356785e-02	1.43463936e-04
5.40000000e-01	1.36878476e-02	1.41899595e-04
5.41000000e-01	1.38459830e-02	1.43206630e-04
5.42000000e-01	1.39020435e-02	1.43424677e-04
5.43000000e-01	1.39115367e-02	1.44245718e-04
5.44000000e-01	1.37458648e-02	1.42043923e-04
5.45000000e-01	1.38380574e-02	1.42994635e-04
5.46000000e-01	1.38689872e-02	1.43206893e-04
5.47000000e-01	1.38993134e-02	1.43508824e-04
5.48000000e-01	1.37695958e-02	1.42746556e-04
5.49000000e-01	1.37615980e-02	1.42045894e-04
5.50000000e-01	1.37710725e-02	1.42500405e-04
5.51000000e-01	1.38009918e-02	1.42132717e-04
5.52000000e-01	1.37232394e-02	1.41611888e-04
5.53000000e-01	1.37296001e-02	1.41227436e-04
5.54000000e-01	1.37912572e-02	1.41480996e-04
5.55000000e-01	1.36305008e-02	1.40080137e-04
5.56000000e-01	1.37962936e-02	1.41713365e-04
5.57000000e-01	1.38303971e-02	1.41962615e-04
5.58000000e-01	1.36533982e-02	1.40733065e-04
5.59000000e-01	1.37700838e-02	1.41518005e-04
5.60000000e-01	1.36049448e-02	1.40370546e-04
5.61000000e-01	1.36694025e-02	1.40708489e-04
5.62000000e-01	1.36471221e-02	1.40543443e-04
5.63000000e-01	1.37033691e-02	1.40806870e-04
5.64000000e-01	1.37376861e-02	1.41311368e-04
5.65000000e-01	1.36222313e-02	1.39677248e-04
5.66000000e-01	1.35472245e-02	1.39598856e-04
5.67000000e-01	1.35102666e-02	1.39533849e-04
5.68000000e-01	1.36302548e-02	1.39973795e-04
5.69000000e-01	1.35872269e-02	1.39557127e-04
5.70000000e-01	1.36737770e-02	1.40306078e-04
5.71000000e-01	1.36563824e-02	1.40283542e-04
5.72000000e-01	1.34796613e-02	1.38658684e-04
5.73000000e-01	1.34208327e-02	1.38354890e-04
5.74000000e-01	1.34731350e-02	1.38251384e-04
5.75000000e-01	1.34228942e-02	1.38491692e-04
5.76000000e-01	1.35083420e-02	1.39360555e-04
5.77000000e-01	1.33563269e-02	1.38090222e-04
5.78000000e-01	1.34643049e-02	1.38694377e-04
5.79000000e-01	1.35002236e-02	1.38878043e-04
5.80000000e-01	1.33116403e-02	1.37463133e-04
5.81000000e-01	1.35286021e-02	1.39245199e-04
5.82000000e-01	1.34247145e-02	1.38564633e-04
5.83000000e-01	1.33996739e-02	1.38341691e-04
5.84000000e-01	1.34623316e-02	1.38932734e-04
5.85000000e-01	1.34611283e-02	1.38980198e-04
5.86000000e-01	1.31843591e-02	1.36245360e-04
5.87000000e-01	1.32448511e-02	1.36563947e-04
5.88000000e-01	1.34495909e-02	1.39036486e-04
5.89000000e-01	1.33366864e-02	1.38306536e-04
5.90000000e-01	1.34370606e-02	1.38594009e-04
5.91000000e-01	1.31922285e-02	1.36332135e-04
5.92000000e-01	1.32773407e-02	1.37281110e-04
5.93000000e-01	1.32440789e-02	1.36697034e-04
5.94000000e-01	1.32575833e-02	1.36758464e-04
5.95000000e-01	1.33196235e-02	1.37785318e-04
5.96000000e-01	1.32416403e-02	1.37466507e-04
5.97000000e-01	1.33567105e-02	1.37836052e-04
5.98000000e-01	1.33036149e-02	1.37605619e-04
5.99000000e-01	1.33378618e-02	1.37907119e-04
6.00000000e-01	1.31844052e-02	1.36977131e-04
6.01000000e-01	1.32514555e-02	1.37572243e-04
6.02000000e-01	1.32807751e-02	1.37557640e-04
6.03000000e-01	1.32099926e-02	1.37108558e-04
6.04000000e-01	1.33159152e-02	1.37867835e-04
6.05000000e-01	1.32418636e-02	1.37128299e-04
6.06000000e-01	1.31589035e-02	1.36296288e-04
6.07000000e-01	1.31211588e-02	1.36045120e-04
6.08000000e-01	1.32297798e-02	1.37396993e-04
6.09000000e-01	1.32256070e-02	1.37529174e-04
6.10000000e-01	1.31315158e-02	1.36690757e-04
6.11000000e-01	1.31644016e-02	1.36690009e-04
6.12000000e-01	1.30704300e-02	1.35665795e-04
6.13000000e-01	1.31272859e-02	1.36461167e-04
6.14000000e-01	1.31478402e-02	1.36595976e-04
6.15000000e-01	1.31337632e-02	1.36214489e-04
6.16000000e-01	1.32046633e-02	1.37155792e-04
6.17000000e-01	1.31923776e-02	1.37421592e-04
6.18000000e-01	1.30137726e-02	1.35581699e-04
6.19000000e-01	1.31078635e-02	1.35745430e-04
6.20000000e-01	1.31081938e-02	1.36207094e-04
6.21000000e-01	1.31409777e-02	1.35771468e-04
6.22000000e-01	1.31313657e-02	1.36027926e-04
6.23000000e-01	1.30586849e-02	1.34632412e-04
6.24000000e-01	1.30754756e-02	1.34557580e-04
6.25000000e-01	1.31376204e-02	1.35472915e-04
6.26000000e-01	1.31194192e-02	1.35110072e-04
6.27000000e-01	1.29698642e-02	1.33622431e-04
6.28000000e-01	1.30222129e-02	1.34180497e-04
6.29000000e-01	1.29533559e-02	1.33611759e-04
6.30000000e-01	1.29373448e-02	1.33766911e-04
6.31000000e-01	1.30136690e-02	1.34308001e-04
6.32000000e-01	1.30484162e-02	1.34168199e-04
6.33000000e-01	1.31042936e-02	1.35056378e-04
6.34000000e-01	1.30827569e-02	1.38258167e-04
6.35000000e-01	1.31445959e-02	1.42666950e-04
6.36000000e-01	1.30390165e-02	1.44146680e-04
6.37000000e-01	1.30867032e-02	1.47392384e-04
6.38000000e-01	1.30863493e-02	1.49097010e-04
6.39000000e-01	1.30415400e-02	1.50314590e-04
6.40000000e-01	1.29754722e-02	1.51866293e-04
6.41000000e-01	1.30742926e-02	1.54255328e-04
6.42000000e-01	1.30966057e-02	1.56774873e-04
6.43000000e-01	1.29104783e-02	1.54784813e-04
6.44000000e-01	1.31149645e-02	1.50651126e-04
6.45000000e-01	1.30106220e-02	1.48375994e-04
6.46000000e-01	1.29803372e-02	1.45808163e-04
6.47000000e-01	1.31285666e-02	1.46548080e-04
6.48000000e-01	1.29029837e-02	1.43228269e-04
6.49000000e-01	1.29862048e-02	1.42935548e-04
6.50000000e-01	1.29754927e-02	1.42479070e-04
6.51000000e-01	1.31189815e-02	1.43417042e-04
6.52000000e-01	1.29276110e-02	1.40922391e-04
6.53000000e-01	1.30325581e-02	1.41368498e-04
6.54000000e-01	1.29624428e-02	1.40178708e-04
6.55000000e-01	1.28126203e-02	1.38530206e-04
6.56000000e-01	1.28815547e-02	1.39252592e-04
6.57000000e-01	1.31165671e-02	1.40752569e-04
6.58000000e-01	1.28408905e-02	1.38269679e-04
6.59000000e-01	1.29797474e-02	1.39645999e-04
6.60000000e-01	1.28858791e-02	1.38667459e-04
6.61000000e-01	1.29450869e-02	1.38745874e-04
6.62000000e-01	1.28232451e-02	1.37918446e-04
6.63000000e-01	1.30211702e-02	1.39946083e-04
6.64000000e-01	1.28057743e-02	1.37887111e-04
6.65000000e-01	1.29334768e-02	1.38871643e-04
6.66000000e-01	1.27863989e-02	1.37410373e-04
6.67000000e-01	1.28910732e-02	1.38748505e-04
6.68000000e-01	1.26910837e-02	1.36064594e-04
6.69000000e-01	1.27148614e-02	1.36530984e-04
6.70000000e-01	1.28405989e-02	1.37457890e-04
6.71000000e-01	1.29273228e-02	1.38730551e-04
6.72000000e-01	1.28191329e-02	1.37511874e-04
6.73000000e-01	1.28488859e-02	1.37325218e-04
6.74000000e-01	1.28011004e-02	1.36785030e-04
6.75000000e-01	1.29687815e-02	1.38271725e-04
6.76000000e-01	1.28672605e-02	1.37473529e-04
6.77000000e-01	1.25947789e-02	1.35071732e-04
6.78000000e-01	1.28748181e-02	1.37178772e-04
6.79000000e-01	1.28596214e-02	1.37369557e-04
6.80000000e-01	1.27604634e-02	1.36062343e-04
6.81000000e-01	1.27278524e-02	1.36446596e-04
6.82000000e-01	1.28477049e-02	1.37034002e-04
6.83000000e-01	1.27786318e-02	1.36327227e-04
6.84000000e-01	1.27421648e-02	1.35566646e-04
6.85000000e-01	1.26880898e-02	1.35719298e-04
6.86000000e-01	1.27809071e-02	1.36380974e-04
6.87000000e-01	1.26828323e-02	1.35453389e-04
6.88000000e-01	1.26869237e-02	1.35473023e-04
6.89000000e-01	1.27011586e-02	1.35610977e-04
6.90000000e-01	1.26783808e-02	1.35390759e-04
6.91000000e-01	1.27562194e-02	1.36006299e-04
6.92000000e-01	1.28893464e-02	1.37277074e-04
6.93000000e-01	1.27377671e-02	1.35884109e-04
6.94000000e-01	1.26210985e-02	1.34941120e-04
6.95000000e-01	1.25809661e-02	1.33991026e-04
6.96000000e-01	1.26862558e-02	1.35268376e-04
6.97000000e-01	1.25829163e-02	1.34022697e-04
6.98000000e-01	1.27295087e-02	1.35421968e-04
6.99000000e-01	1.26480740e-02	1.34967819e-04
7.00000000e-01	1.27436379e-02	1.35443493e-04
7.01000000e-01	1.25551397e-02	1.33925759e-04
7.02000000e-01	1.25916231e-02	1.34123781e-04
7.03000000e-01	1.24878703e-02	1.33658099e-04
7.04000000e-01	1.25336589e-02	1.33453070e-04
7.05000000e-01	1.26078162e-02	1.34466757e-04
7.06000000e-01	1.23498527e-02	1.32154022e-04
7.07000000e-01	1.24774800e-02	1.32534520e-04
7.08000000e-01	1.23733468e-02	1.31558827e-04
7.09000000e-01	1.25753727e-02	1.33390250e-04
7.10000000e-01	1.24679570e-02	1.32692247e-04
7.11000000e-01	1.24346725e-02	1.32480815e-04
7.12000000e-01	1.24238791e-02	1.32413920e-04
7.13000000e-01	1.24343305e-02	1.32297319e-04
7.14000000e-01	1.24906114e-02	1.33165389e-04
7.15000000e-01	1.24224368e-02	1.32370622e-04
7.16000000e-01	1.23619577e-02	1.31539399e-04
7.17000000e-01	1.23752579e-02	1.32086825e-04
7.18000000e-01	1.22711658e-02	1.30957758e-04
7.19000000e-01	1.24279585e-02	1.32425683e-04
7.20000000e-01	1.24199852e-02	1.32199101e-04
7.21000000e-01	1.23625671e-02	1.32054334e-04
7.22000000e-01	1.24140456e-02	1.32338362e-04
7.23000000e-01	1.24163179e-02	1.32272025e-04
7.24000000e-01	1.22681892e-02	1.30825259e-04
7.25000000e-01	1.22771416e-02	1.31407120e-04
7.26000000e-01	1.21338606e-02	1.29611744e-04
7.27000000e-01	1.22362764e-02	1.30730377e-04
7.28000000e-01	1.22162269e-02	1.30641273e-04
7.29000000e-01	1.22307103e-02	1.30620236e-04
7.30000000e-01	1.21419337e-02	1.29807771e-04
7.31000000e-01	1.22358228e-02	1.30535047e-04
7.32000000e-01	1.20586754e-02	1.29059701e-04
7.33000000e-01	1.22418400e-02	1.30688589e-04
7.34000000e-01	1.22314766e-02	1.30313840e-04
7.35000000e-01	1.21225827e-02	1.29477061e-04
7.36000000e-01	1.21474473e-02	1.29358779e-04
7.37000000e-01	1.21819356e-02	1.29556918e-04
7.38000000e-01	1.22819873e-02	1.30061184e-04
7.39000000e-01	1.21734370e-02	1.28883323e-04
7.40000000e-01	1.22437478e-02	1.29592452e-04
7.41000000e-01	1.22176317e-02	1.29231255e-04
7.42000000e-01	1.19700343e-02	1.26414561e-04
7.43000000e-01	1.21259025e-02	1.28155011e-04
7.44000000e-01	1.20645039e-02	1.27819825e-04
7.45000000e-01	1.20973796e-02	1.27974254e-04
7.46000000e-01	1.20047663e-02	1.26895249e-04
7.47000000e-01	1.20845845e-02	1.27768408e-04
7.48000000e-01	1.21543333e-02	1.28492912e-04
7.49000000e-01	1.20866273e-02	1.28092326e-04
7.50000000e-01	1.21774487e-02	1.28340853e-04
7.51000000e-01	1.20339776e-02	1.26777518e-04
7.52000000e-01	1.20767414e-02	1.27420842e-04
7.53000000e-01	1.19660729e-02	1.27275539e-04
7.54000000e-01	1.20241445e-02	1.26807333e-04
7.55000000e-01	1.19542200e-02	1.26411012e-04
7.56000000e-01	1.18858105e-02	1.25778199e-04
7.57000000e-01	1.19748215e-02	1.26886622e-04
7.58000000e-01	1.19993314e-02	1.26590970e-04
7.59000000e-01	1.19984537e-02	1.26590970e-04
7.60000000e-01	1.19294746e-02	1.25872603e-04
7.61000000e-01	1.19068788e-02	1.26096741e-04
7.62000000e-01	1.19754455e-02	1.25944101e-04
7.63000000e-01	1.18540133e-02	1.25340242e-04
7.64000000e-01	1.18316127e-02	1.24655297e-04
7.65000000e-01	1.17979888e-02	1.23896391e-04
7.66000000e-01	1.19030516e-02	1.25083351e-04
7.67000000e-01	1.18095000e-02	1.24275181e-04
7.68000000e-01	1.19313677e-02	1.24883641e-04
7.69000000e-01	1.18738859e-02	1.24348759e-04
7.70000000e-01	1.17415636e-02	1.23504057e-04
7.71000000e-01	1.19753069e-02	1.25085084e-04
7.72000000e-01	1.17791977e-02	1.27287977e-04
7.73000000e-01	1.16635429e-02	1.30205967e-04
7.74000000e-01	1.18865019e-02	1.34546643e-04
7.75000000e-01	1.18791027e-02	1.37468030e-04
7.76000000e-01	1.17257395e-02	1.37818104e-04
7.77000000e-01	1.17875438e-02	1.40593323e-04
7.78000000e-01	1.17401587e-02	1.41951011e-04
7.79000000e-01	1.15872205e-02	1.42145137e-04
7.80000000e-01	1.16002401e-02	1.43987493e-04
7.81000000e-01	1.17074099e-02	1.46725093e-04
7.82000000e-01	1.15651187e-02	1.46387042e-04
7.83000000e-01	1.19006569e-02	1.52056202e-04
7.84000000e-01	1.17590429e-02	1.52146951e-04
7.85000000e-01	1.17404327e-02	1.54261471e-04
7.86000000e-01	1.16616649e-02	1.54446251e-04
7.87000000e-01	1.17181730e-02	1.56165414e-04
7.88000000e-01	1.16931352e-02	1.57949108e-04
7.89000000e-01	1.15407591e-02	1.56998963e-04
7.90000000e-01	1.14245308e-02	1.58533737e-04
7.91000000e-01	1.14265769e-02	1.58724516e-04
7.92000000e-01	1.14815832e-02	1.61799834e-04
7.93000000e-01	1.15773488e-02	1.63987175e-04
7.94000000e-01	1.15649718e-02	1.66409649e-04
7.95000000e-01	1.17207579e-02	1.69189347e-04
7.96000000e-01	1.15584900e-02	1.68932108e-04
7.97000000e-01	1.15345909e-02	1.71187827e-04
7.98000000e-01	1.16457308e-02	1.73683560e-04
7.99000000e-01	1.13747603e-02	1.72374266e-04
8.00000000e-01	1.14876775e-02	1.74828271e-04
8.01000000e-01	1.16156830e-02	1.79640276e-04
8.02000000e-01	1.14904787e-02	1.78358444e-04
8.03000000e-01	1.13653621e-02	1.79694600e-04
8.04000000e-01	1.14255710e-02	1.80850161e-04
8.05000000e-01	1.13434037e-02	1.83068594e-04
8.06000000e-01	1.14892467e-02	1.86142061e-04
8.07000000e-01	1.12701655e-02	1.85927440e-04
8.08000000e-01	1.13731785e-02	1.88454274e-04
8.09000000e-01	1.15442493e-02	1.93709317e-04
8.10000000e-01	1.14401495e-02	1.95112669e-04
8.11000000e-01	1.12703604e-02	1.93859453e-04
8.12000000e-01	1.12142762e-02	1.95287583e-04
8.13000000e-01	1.14263522e-02	2.00990774e-04
8.14000000e-01	1.10952747e-02	1.96976778e-04
8.15000000e-01	1.12757882e-02	2.03385762e-04
8.16000000e-01	1.12328520e-02	2.04710790e-04
8.17000000e-01	1.10148767e-02	2.03945509e-04
8.18000000e-01	1.12934621e-02	2.10844154e-04
8.19000000e-01	1.11809754e-02	2.11018477e-04
8.20000000e-01	1.13230967e-02	2.15924651e-04
8.21000000e-01	1.11079554e-02	2.15946346e-04
8.22000000e-01	1.12968245e-02	2.22781660e-04
8.23000000e-01	1.13329990e-02	2.25600246e-04
8.24000000e-01	1.10374289e-02	2.24302374e-04
8.25000000e-01	1.09758437e-02	2.24704440e-04
8.26000000e-01	1.10811520e-02	2.32754658e-04
8.27000000e-01	1.10721194e-02	2.32435718e-04
8.28000000e-01	1.11560579e-02	2.36228914e-04
8.29000000e-01	1.10335511e-02	2.41615654e-04
8.30000000e-01	1.11475495e-02	2.44838388e-04
8.31000000e-01	1.12426928e-02	2.51507159e-04
8.32000000e-01	1.10024796e-02	2.51626595e-04
8.33000000e-01	1.09473611e-02	2.55152800e-04
8.34000000e-01	1.09496863e-02	2.59633964e-04
8.35000000e-01	1.09215246e-02	2.64461632e-04
8.36000000e-01	1.09132045e-02	2.67504939e-04
8.37000000e-01	1.09369136e-02	2.74707804e-04
8.38000000e-01	1.11708126e-02	2.84210365e-04
8.39000000e-01	1.07355606e-02	2.81241116e-04
8.40000000e-01	1.08591984e-02	2.91216675e-04
8.41000000e-01	1.08813166e-02	2.98165923e-04
8.42000000e-01	1.10819456e-02	3.09688685e-04
8.43000000e-01	1.08258177e-02	3.08422729e-04
8.44000000e-01	1.08342757e-02	3.10892986e-04
8.45000000e-01	1.06565408e-02	3.21032692e-04
8.46000000e-01	1.07690083e-02	3.36242905e-04
8.47000000e-01	1.06297376e-02	3.39883051e-04
8.48000000e-01	1.08562171e-02	3.56276586e-04
8.49000000e-01	1.06577262e-02	3.60232016e-04
8.50000000e-01	1.05606744e-02	3.67179647e-04
8.51000000e-01	1.07876845e-02	3.88926549e-04
8.52000000e-01	1.08351578e-02	4.01508997e-04
8.53000000e-01	1.08622814e-02	4.28192127e-04
8.54000000e-01	1.04212085e-02	4.29678490e-04
8.55000000e-01	1.04842070e-02	4.44273706e-04
8.56000000e-01	1.09532457e-02	4.78914958e-04
8.57000000e-01	1.05121350e-02	4.75899040e-04
8.58000000e-01	1.04176654e-02	4.84686341e-04
8.59000000e-01	1.05157127e-02	5.05731989e-04
8.60000000e-01	1.04586384e-02	5.11736370e-04
8.61000000e-01	1.05365549e-02	5.42849067e-04
8.62000000e-01	1.01716737e-02	5.50607885e-04
8.63000000e-01	1.01555464e-02	5.65849355e-04
8.64000000e-01	1.05487632e-02	5.92474164e-04
8.65000000e-01	1.03514795e-02	6.22327237e-04
8.66000000e-01	1.05018680e-02	6.71687690e-04
8.67000000e-01	1.05337272e-02	7.07618591e-04
8.68000000e-01	1.05900222e-02	7.54052337e-04
8.69000000e-01	1.13565660e-02	8.69463099e-04
8.70000000e-01	1.05700684e-02	8.88493893e-04
8.71000000e-01	1.06166930e-02	9.95771215e-04
8.72000000e-01	1.07951231e-02	1.12138513e-03
8.73000000e-01	9.71619545e-03	1.18753785e-03
8.74000000e-01	1.15860877e-02	1.83658926e-03
8.75000000e-01	1.28212355e-02	4.14354969e-03
