% Filename : SSW19_00033_00016.h5
% Date & Time : 30-Oct-2025 17:23:59
% X-ray Energy (keV) : 13.30001
% Exposure Time (s) : 0.500
% Beam Center : 1461.24000, 208.98300
% Sample to Detector Distance (SDD) (mm) : 1990.750
% Detector Pixel Size (mm) : 0.075
% Photodiode Value : 140015.000
% I0 of Sample : 0
% I0 of Standard : 1
% 
% q(A^-1)   I(q)    I(q)_SE
0.00000000e+00	9.03238718e-03	4.99746623e-03
2.50000000e-04	0.00000000e+00	0.00000000e+00
5.00000000e-04	0.00000000e+00	0.00000000e+00
7.50000000e-04	0.00000000e+00	0.00000000e+00
1.00000000e-03	0.00000000e+00	0.00000000e+00
1.25000000e-03	0.00000000e+00	0.00000000e+00
1.50000000e-03	0.00000000e+00	0.00000000e+00
1.75000000e-03	0.00000000e+00	0.00000000e+00
2.00000000e-03	0.00000000e+00	0.00000000e+00
2.25000000e-03	0.00000000e+00	0.00000000e+00
2.50000000e-03	0.00000000e+00	0.00000000e+00
2.75000000e-03	0.00000000e+00	0.00000000e+00
3.00000000e-03	0.00000000e+00	0.00000000e+00
3.25000000e-03	6.05381272e+03	3.51416536e+03
3.50000000e-03	6.41738803e+02	3.45644943e+02
3.75000000e-03	4.01728397e+02	2.05179195e+02
4.00000000e-03	3.96472499e+02	1.85220847e+02
4.25000000e-03	3.46030963e+02	1.65086130e+02
4.50000000e-03	3.41487599e+02	1.20752432e+02
4.75000000e-03	3.68978707e+02	1.08172136e+02
5.00000000e-03	2.77653876e+02	7.80467636e+01
5.25000000e-03	2.44313187e+02	6.79950339e+01
5.50000000e-03	2.11483863e+02	5.95306814e+01
5.75000000e-03	1.73639935e+02	4.65350925e+01
6.00000000e-03	1.52009320e+02	4.23684939e+01
6.25000000e-03	1.34853042e+02	3.62653624e+01
6.50000000e-03	1.07532474e+02	2.72116787e+01
6.75000000e-03	9.11123634e+01	2.24968419e+01
7.00000000e-03	8.22333786e+01	1.97497266e+01
7.25000000e-03	7.31366073e+01	1.77301828e+01
7.50000000e-03	6.03796661e+01	1.46109049e+01
7.75000000e-03	5.90657434e+01	1.43510931e+01
8.00000000e-03	5.21847910e+01	1.21653531e+01
8.25000000e-03	4.31860180e+01	9.57258210e+00
8.50000000e-03	3.79848245e+01	8.20586889e+00
8.75000000e-03	3.48636086e+01	7.54954720e+00
9.00000000e-03	2.98475219e+01	6.29227663e+00
9.25000000e-03	2.66589897e+01	5.55733227e+00
9.50000000e-03	2.44888218e+01	4.99317191e+00
9.75000000e-03	2.24058593e+01	4.60089946e+00
1.00000000e-02	1.89513192e+01	3.89911553e+00
1.02500000e-02	1.93986165e+01	4.11822564e+00
1.05000000e-02	1.74829853e+01	3.73613173e+00
1.07500000e-02	1.52829168e+01	3.04796235e+00
1.10000000e-02	1.33018860e+01	2.61098927e+00
1.12500000e-02	1.23938484e+01	2.58546000e+00
1.15000000e-02	1.19986797e+01	2.36355213e+00
1.17500000e-02	1.02515038e+01	2.03683523e+00
1.20000000e-02	9.55586773e+00	1.84128045e+00
1.22500000e-02	8.83566683e+00	1.63187936e+00
1.25000000e-02	8.67882088e+00	1.65574799e+00
1.27500000e-02	7.46462612e+00	1.33010631e+00
1.30000000e-02	7.03594271e+00	1.25518178e+00
1.32500000e-02	6.27211174e+00	1.08980398e+00
1.35000000e-02	6.00068567e+00	1.03915492e+00
1.37500000e-02	5.73752717e+00	9.87483980e-01
1.40000000e-02	5.43270182e+00	9.40715572e-01
1.42500000e-02	4.82932140e+00	8.15938125e-01
1.45000000e-02	4.46025241e+00	7.47868975e-01
1.47500000e-02	4.14354980e+00	6.62930924e-01
1.50000000e-02	3.83082882e+00	6.10424268e-01
1.52500000e-02	3.73531741e+00	6.12770977e-01
1.55000000e-02	3.46614681e+00	5.68129900e-01
1.57500000e-02	3.17258737e+00	5.12449308e-01
1.60000000e-02	3.10330390e+00	4.97901226e-01
1.62500000e-02	2.96156242e+00	4.58719504e-01
1.65000000e-02	2.77918571e+00	4.41167029e-01
1.67500000e-02	2.46350191e+00	3.61575109e-01
1.70000000e-02	2.34208322e+00	3.53117219e-01
1.72500000e-02	2.27494324e+00	3.31373398e-01
1.75000000e-02	2.02187324e+00	2.92734482e-01
1.77500000e-02	2.02706652e+00	3.00329690e-01
1.80000000e-02	1.95642871e+00	2.94088229e-01
1.82500000e-02	1.74612897e+00	2.48664389e-01
1.85000000e-02	1.69691143e+00	2.46232710e-01
1.87500000e-02	1.66178631e+00	2.37088235e-01
1.90000000e-02	1.57464188e+00	2.20425166e-01
1.92500000e-02	1.44845470e+00	2.00534240e-01
1.95000000e-02	1.27760409e+00	1.76806888e-01
1.97500000e-02	1.37290704e+00	1.96725118e-01
2.00000000e-02	1.24497508e+00	1.75952104e-01
2.02500000e-02	1.16888746e+00	1.61632562e-01
2.05000000e-02	1.10644759e+00	1.44202765e-01
2.07500000e-02	1.07644107e+00	1.40497804e-01
2.10000000e-02	1.08382690e+00	1.46980239e-01
2.12500000e-02	1.05746071e+00	1.38443662e-01
2.15000000e-02	9.94946475e-01	1.29401771e-01
2.17500000e-02	9.83304698e-01	1.27108594e-01
2.20000000e-02	9.34471489e-01	1.17097538e-01
2.22500000e-02	8.70007006e-01	1.07220034e-01
2.25000000e-02	9.11588857e-01	1.18725337e-01
2.27500000e-02	8.46365759e-01	1.08130044e-01
2.30000000e-02	8.37738846e-01	1.05442603e-01
2.32500000e-02	7.69060029e-01	9.28103552e-02
2.35000000e-02	7.69945114e-01	9.29119196e-02
2.37500000e-02	7.39616155e-01	8.86457081e-02
2.40000000e-02	6.93344085e-01	8.32201714e-02
2.42500000e-02	6.89661481e-01	8.28452734e-02
2.45000000e-02	6.50172341e-01	7.67545567e-02
2.47500000e-02	6.33905356e-01	7.40177832e-02
2.50000000e-02	6.12387638e-01	6.98904442e-02
2.52500000e-02	5.99651646e-01	7.04894817e-02
2.55000000e-02	5.71633843e-01	6.46574353e-02
2.57500000e-02	5.72308308e-01	6.61928120e-02
2.60000000e-02	5.46987226e-01	6.21378738e-02
2.62500000e-02	5.18425927e-01	5.98029843e-02
2.65000000e-02	5.12771635e-01	5.78573280e-02
2.67500000e-02	4.94790555e-01	5.45991594e-02
2.70000000e-02	4.70933873e-01	5.26046826e-02
2.72500000e-02	4.68313795e-01	5.22724834e-02
2.75000000e-02	4.47885083e-01	4.94719810e-02
2.77500000e-02	4.46579372e-01	4.97944594e-02
2.80000000e-02	4.21632868e-01	4.53759227e-02
2.82500000e-02	4.02873351e-01	4.28528311e-02
2.85000000e-02	3.91943533e-01	4.03395757e-02
2.87500000e-02	3.99199313e-01	4.16132571e-02
2.90000000e-02	3.89806918e-01	4.09924766e-02
2.92500000e-02	3.59744206e-01	3.64903483e-02
2.95000000e-02	3.67227918e-01	3.80956050e-02
2.97500000e-02	3.45040711e-01	3.48750151e-02
3.00000000e-02	3.42629042e-01	3.40113791e-02
3.02500000e-02	3.42211348e-01	3.48026235e-02
3.05000000e-02	3.19172782e-01	3.15022803e-02
3.07500000e-02	3.13807052e-01	3.11150505e-02
3.10000000e-02	3.02332876e-01	2.92411508e-02
3.12500000e-02	2.91824920e-01	2.87677973e-02
3.15000000e-02	2.79791113e-01	2.74098023e-02
3.17500000e-02	2.78667904e-01	2.64900307e-02
3.20000000e-02	2.80251811e-01	2.66366799e-02
3.22500000e-02	2.65396904e-01	2.50366130e-02
3.25000000e-02	2.62316629e-01	2.45036214e-02
3.27500000e-02	2.50788490e-01	2.28780015e-02
3.30000000e-02	2.48682139e-01	2.36950864e-02
3.32500000e-02	2.42879103e-01	2.26454852e-02
3.35000000e-02	2.34788208e-01	2.15755388e-02
3.37500000e-02	2.32124918e-01	2.10116043e-02
3.40000000e-02	2.21116720e-01	1.96745013e-02
3.42500000e-02	2.21337376e-01	1.98938250e-02
3.45000000e-02	2.14171016e-01	1.91948503e-02
3.47500000e-02	2.13148159e-01	1.91398496e-02
3.50000000e-02	2.04298606e-01	1.83058855e-02
3.52500000e-02	2.00745277e-01	1.74258672e-02
3.55000000e-02	1.95174729e-01	1.67871882e-02
3.57500000e-02	1.92635621e-01	1.63871308e-02
3.60000000e-02	1.86021270e-01	1.60641519e-02
3.62500000e-02	1.84758533e-01	1.61249029e-02
3.65000000e-02	1.73927570e-01	1.47096437e-02
3.67500000e-02	1.76440110e-01	1.48178951e-02
3.70000000e-02	1.69208009e-01	1.36889086e-02
3.72500000e-02	1.69438613e-01	1.40545114e-02
3.75000000e-02	1.65360868e-01	1.35070074e-02
3.77500000e-02	1.59021993e-01	1.29831554e-02
3.80000000e-02	1.58057625e-01	1.28900167e-02
3.82500000e-02	1.53851566e-01	1.23585983e-02
3.85000000e-02	1.52921965e-01	1.22544927e-02
3.87500000e-02	1.47967251e-01	1.17882408e-02
3.90000000e-02	1.44428258e-01	1.14716858e-02
3.92500000e-02	1.39832924e-01	1.08785745e-02
3.95000000e-02	1.37557582e-01	1.06633774e-02
3.97500000e-02	1.36539138e-01	1.07146334e-02
4.00000000e-02	1.35424442e-01	1.06415010e-02
4.02500000e-02	1.28426926e-01	9.69569133e-03
4.05000000e-02	1.29763847e-01	9.81059556e-03
4.07500000e-02	1.25517236e-01	9.39481139e-03
4.10000000e-02	1.25156424e-01	9.55211842e-03
4.12500000e-02	1.22555527e-01	9.12623246e-03
4.15000000e-02	1.18562203e-01	8.68205600e-03
4.17500000e-02	1.17426492e-01	8.51473964e-03
4.20000000e-02	1.14178331e-01	8.40219670e-03
4.22500000e-02	1.13890827e-01	8.13683178e-03
4.25000000e-02	1.11306813e-01	8.10886684e-03
4.27500000e-02	1.11499109e-01	7.99892591e-03
4.30000000e-02	1.09272934e-01	7.72327837e-03
4.32500000e-02	1.03252653e-01	7.39920637e-03
4.35000000e-02	1.02931341e-01	7.28626097e-03
4.37500000e-02	1.01557064e-01	7.04512110e-03
4.40000000e-02	1.01441549e-01	6.97785605e-03
4.42500000e-02	9.70034501e-02	6.71475406e-03
4.45000000e-02	9.89348976e-02	6.83486232e-03
4.47500000e-02	9.54994948e-02	6.51003083e-03
4.50000000e-02	9.47890732e-02	6.41378878e-03
4.52500000e-02	9.19735920e-02	6.09009002e-03
4.55000000e-02	9.13192756e-02	6.02013275e-03
4.57500000e-02	8.97101253e-02	5.79111614e-03
4.60000000e-02	9.09458933e-02	6.07560346e-03
4.62500000e-02	8.71029855e-02	5.69638445e-03
4.65000000e-02	8.53835926e-02	5.37515689e-03
4.67500000e-02	8.40219083e-02	5.36732545e-03
4.70000000e-02	8.41769477e-02	5.41237929e-03
4.72500000e-02	8.24505421e-02	5.21053295e-03
4.75000000e-02	8.09665208e-02	5.15746914e-03
4.77500000e-02	7.88599559e-02	4.99250807e-03
4.80000000e-02	7.84949941e-02	4.83965910e-03
4.82500000e-02	7.54180520e-02	4.61444300e-03
4.85000000e-02	7.74748095e-02	4.81216937e-03
4.87500000e-02	7.57130097e-02	4.73355358e-03
4.90000000e-02	7.54852416e-02	4.53541006e-03
4.92500000e-02	7.29000555e-02	4.38190783e-03
4.95000000e-02	7.22643928e-02	4.39662125e-03
4.97500000e-02	7.13970483e-02	4.24574486e-03
5.00000000e-02	7.11363681e-02	4.17017164e-03
5.02500000e-02	6.80013485e-02	4.00945359e-03
5.05000000e-02	6.85177113e-02	3.99550066e-03
5.07500000e-02	6.83494401e-02	3.90920510e-03
5.10000000e-02	6.82597553e-02	3.94543702e-03
5.12500000e-02	6.63471967e-02	3.86054095e-03
5.15000000e-02	6.39958717e-02	3.63303760e-03
5.17500000e-02	6.54980692e-02	3.79651173e-03
5.20000000e-02	6.45372116e-02	3.63471297e-03
5.22500000e-02	6.35221122e-02	3.58629180e-03
5.25000000e-02	6.16954519e-02	3.52700301e-03
5.27500000e-02	6.15445444e-02	3.38765298e-03
5.30000000e-02	6.13790925e-02	3.35556700e-03
5.32500000e-02	6.04512635e-02	3.30186188e-03
5.35000000e-02	5.94237327e-02	3.26301451e-03
5.37500000e-02	5.90205896e-02	3.20348337e-03
5.40000000e-02	5.80542677e-02	3.07175151e-03
5.42500000e-02	5.71641303e-02	3.00860036e-03
5.45000000e-02	5.74725889e-02	3.02188354e-03
5.47500000e-02	5.72924909e-02	3.03387387e-03
5.50000000e-02	5.56912655e-02	2.91082948e-03
5.52500000e-02	5.43228856e-02	2.83903712e-03
5.55000000e-02	5.45989325e-02	2.82310929e-03
5.57500000e-02	5.32461613e-02	2.74008644e-03
5.60000000e-02	5.37192598e-02	2.71944726e-03
5.62500000e-02	5.27720212e-02	2.66263966e-03
5.65000000e-02	5.34870712e-02	2.74418610e-03
5.67500000e-02	5.34597496e-02	2.73393980e-03
5.70000000e-02	5.12787356e-02	2.52128215e-03
5.72500000e-02	5.24095897e-02	2.59955161e-03
5.75000000e-02	5.17906033e-02	2.53903489e-03
5.77500000e-02	5.01358974e-02	2.48781128e-03
5.80000000e-02	4.94863428e-02	2.40219186e-03
5.82500000e-02	4.88107822e-02	2.41671817e-03
5.85000000e-02	4.91233953e-02	2.36561002e-03
5.87500000e-02	4.80029754e-02	2.36037831e-03
5.90000000e-02	4.87336582e-02	2.30203605e-03
5.92500000e-02	4.77665187e-02	2.26647511e-03
5.95000000e-02	4.79302821e-02	2.28949387e-03
5.97500000e-02	4.71151195e-02	2.22894245e-03
6.00000000e-02	4.66680126e-02	2.21003504e-03
6.02500000e-02	4.53434761e-02	2.12959890e-03
6.05000000e-02	4.59632903e-02	2.12702943e-03
6.07500000e-02	4.57526163e-02	2.11776146e-03
6.10000000e-02	4.53987740e-02	2.09553285e-03
6.12500000e-02	4.46405885e-02	2.03693827e-03
6.15000000e-02	4.51443822e-02	2.07224006e-03
6.17500000e-02	4.36962200e-02	1.99707881e-03
6.20000000e-02	4.39432295e-02	1.99957533e-03
6.22500000e-02	4.37890409e-02	1.96013020e-03
6.25000000e-02	4.25423865e-02	1.89554937e-03
6.27500000e-02	4.31481333e-02	1.90456398e-03
6.30000000e-02	4.23213911e-02	1.86322205e-03
6.32500000e-02	4.21704029e-02	1.87356406e-03
6.35000000e-02	4.27099931e-02	1.85793884e-03
6.37500000e-02	4.15070262e-02	1.84358131e-03
6.40000000e-02	4.10587742e-02	1.78180704e-03
6.42500000e-02	4.12760326e-02	1.76717138e-03
6.45000000e-02	4.04668713e-02	1.74612624e-03
6.47500000e-02	4.03354991e-02	1.72778392e-03
6.50000000e-02	3.99493229e-02	1.70454221e-03
6.52500000e-02	4.00783530e-02	1.68727646e-03
6.55000000e-02	3.92788142e-02	1.64978625e-03
6.57500000e-02	3.94790706e-02	1.64717806e-03
6.60000000e-02	3.95142756e-02	1.64061005e-03
6.62500000e-02	3.86900312e-02	1.60235687e-03
6.65000000e-02	3.84967084e-02	1.58884245e-03
6.67500000e-02	3.74456780e-02	1.54802102e-03
6.70000000e-02	3.82029761e-02	1.55499452e-03
6.72500000e-02	3.76912881e-02	1.55227376e-03
6.75000000e-02	3.80339027e-02	1.53664453e-03
6.77500000e-02	3.76671078e-02	1.51697967e-03
6.80000000e-02	3.71666544e-02	1.48662916e-03
6.82500000e-02	3.78137169e-02	1.52193297e-03
6.85000000e-02	3.76562434e-02	1.51956706e-03
6.87500000e-02	3.61013581e-02	1.44693913e-03
6.90000000e-02	3.63752607e-02	1.45048119e-03
6.92500000e-02	3.58664137e-02	1.42968858e-03
6.95000000e-02	3.71429231e-02	1.46045101e-03
6.97500000e-02	3.64762786e-02	1.42770694e-03
7.00000000e-02	3.65257451e-02	1.42631757e-03
7.02500000e-02	3.49203634e-02	1.34054768e-03
7.05000000e-02	3.50634652e-02	1.35385273e-03
7.07500000e-02	3.55269798e-02	1.37585717e-03
7.10000000e-02	3.65485551e-02	1.38962053e-03
7.12500000e-02	3.49177491e-02	1.34949607e-03
7.15000000e-02	3.49352556e-02	1.32665357e-03
7.17500000e-02	3.47840034e-02	1.31790421e-03
7.20000000e-02	3.44273511e-02	1.30071228e-03
7.22500000e-02	3.45500054e-02	1.30391876e-03
7.25000000e-02	3.49038320e-02	1.31566939e-03
7.27500000e-02	3.37252476e-02	1.27681030e-03
7.30000000e-02	3.38746731e-02	1.25668114e-03
7.32500000e-02	3.40259783e-02	1.25086140e-03
7.35000000e-02	3.39574275e-02	1.25870841e-03
7.37500000e-02	3.34520186e-02	1.22746896e-03
7.40000000e-02	3.40166599e-02	1.25494009e-03
7.42500000e-02	3.33397875e-02	1.21883578e-03
7.45000000e-02	3.32272789e-02	1.20919513e-03
7.47500000e-02	3.28535154e-02	1.19013560e-03
7.50000000e-02	3.31723467e-02	1.20314449e-03
7.52500000e-02	3.30559935e-02	1.19324129e-03
7.55000000e-02	3.28729872e-02	1.18577442e-03
7.57500000e-02	3.29266640e-02	1.18471854e-03
7.60000000e-02	3.29195776e-02	1.17870452e-03
7.62500000e-02	3.27647490e-02	1.18101428e-03
7.65000000e-02	3.23689629e-02	1.14406773e-03
7.67500000e-02	3.23754611e-02	1.15330693e-03
7.70000000e-02	3.19069979e-02	1.12988357e-03
7.72500000e-02	3.22419899e-02	1.15416096e-03
7.75000000e-02	3.21156911e-02	1.16683878e-03
7.77500000e-02	3.20018129e-02	1.16980422e-03
7.80000000e-02	3.21884536e-02	1.18157729e-03
7.82500000e-02	3.22328336e-02	1.18584568e-03
7.85000000e-02	3.21828234e-02	1.20122529e-03
7.87500000e-02	3.23826683e-02	1.18655703e-03
7.90000000e-02	3.21138056e-02	1.19946101e-03
7.92500000e-02	3.18603777e-02	1.16805405e-03
7.95000000e-02	3.16557332e-02	1.18504300e-03
7.97500000e-02	3.22847742e-02	1.21358457e-03
8.00000000e-02	3.16426974e-02	1.18408818e-03
8.02500000e-02	3.14330300e-02	1.16360730e-03
8.05000000e-02	3.21029714e-02	1.19431597e-03
8.07500000e-02	3.10115169e-02	1.16417789e-03
8.10000000e-02	3.12647447e-02	1.17458591e-03
8.12500000e-02	3.17546254e-02	1.19919351e-03
8.15000000e-02	3.06801579e-02	1.14724573e-03
8.17500000e-02	3.10780855e-02	1.17139495e-03
8.20000000e-02	3.07357641e-02	1.16639885e-03
8.22500000e-02	3.06579430e-02	1.15504510e-03
8.25000000e-02	3.01502488e-02	1.14224293e-03
8.27500000e-02	3.13116686e-02	1.15429724e-03
8.30000000e-02	3.11382269e-02	1.17788821e-03
8.32500000e-02	3.06320343e-02	1.15157744e-03
8.35000000e-02	3.10292548e-02	1.18274544e-03
8.37500000e-02	3.00759370e-02	1.11902366e-03
8.40000000e-02	3.13960690e-02	1.16759257e-03
8.42500000e-02	3.06747395e-02	1.16239882e-03
8.45000000e-02	3.01878323e-02	1.13988022e-03
8.47500000e-02	3.07280885e-02	1.14776536e-03
8.50000000e-02	2.96602234e-02	1.12011688e-03
8.52500000e-02	3.01212590e-02	1.13527679e-03
8.55000000e-02	3.02537588e-02	1.14269407e-03
8.57500000e-02	2.99052472e-02	1.13122189e-03
8.60000000e-02	2.99268628e-02	1.12599049e-03
8.62500000e-02	3.02872281e-02	1.13757102e-03
8.65000000e-02	3.04637778e-02	1.13638754e-03
8.67500000e-02	3.04064241e-02	1.14538236e-03
8.70000000e-02	2.88648887e-02	1.06855544e-03
8.72500000e-02	2.92677876e-02	1.05008758e-03
8.75000000e-02	2.97756984e-02	1.06710991e-03
8.77500000e-02	2.90792254e-02	1.02762841e-03
8.80000000e-02	2.95403100e-02	1.04961308e-03
8.82500000e-02	2.85135034e-02	1.00916087e-03
8.85000000e-02	2.88290472e-02	1.01296006e-03
8.87500000e-02	2.90836919e-02	1.00071007e-03
8.90000000e-02	2.92470996e-02	1.02110763e-03
8.92500000e-02	2.86987446e-02	9.94387846e-04
8.95000000e-02	2.87779660e-02	9.89863365e-04
8.97500000e-02	2.84657327e-02	9.75983084e-04
9.00000000e-02	2.90282757e-02	9.90601985e-04
9.02500000e-02	2.81902240e-02	9.55907521e-04
9.05000000e-02	2.82014166e-02	9.54279632e-04
9.07500000e-02	2.79685066e-02	9.45772031e-04
9.10000000e-02	2.77355846e-02	9.39553306e-04
9.12500000e-02	2.79277627e-02	9.32522109e-04
9.15000000e-02	2.79730685e-02	9.34717992e-04
9.17500000e-02	2.77948191e-02	9.32545223e-04
9.20000000e-02	2.81948739e-02	9.35329625e-04
9.22500000e-02	2.72202576e-02	9.05035402e-04
9.25000000e-02	2.76658561e-02	9.19249804e-04
9.27500000e-02	2.79671610e-02	9.31225640e-04
9.30000000e-02	2.77961229e-02	9.18913382e-04
9.32500000e-02	2.74999582e-02	9.11513339e-04
9.35000000e-02	2.78186959e-02	9.11537926e-04
9.37500000e-02	2.76967556e-02	9.02050708e-04
9.40000000e-02	2.73149187e-02	8.98115601e-04
9.42500000e-02	2.73999093e-02	8.85548245e-04
9.45000000e-02	2.68793123e-02	8.73105196e-04
9.47500000e-02	2.68994726e-02	8.80115293e-04
9.50000000e-02	2.67356762e-02	8.61529954e-04
9.52500000e-02	2.65373443e-02	8.62575938e-04
9.55000000e-02	2.66422928e-02	8.68738991e-04
9.57500000e-02	2.72536968e-02	8.83989276e-04
9.60000000e-02	2.64625753e-02	8.56051655e-04
9.62500000e-02	2.64803519e-02	8.49781963e-04
9.65000000e-02	2.66307161e-02	8.55184864e-04
9.67500000e-02	2.61642642e-02	8.37868475e-04
9.70000000e-02	2.60612170e-02	8.39303064e-04
9.72500000e-02	2.66276223e-02	8.45730292e-04
9.75000000e-02	2.61668943e-02	8.38760037e-04
9.77500000e-02	2.61150381e-02	8.24608737e-04
9.80000000e-02	2.64271453e-02	8.40625327e-04
9.82500000e-02	2.60012252e-02	8.23010739e-04
9.85000000e-02	2.57004453e-02	8.11212404e-04
9.87500000e-02	2.58127693e-02	8.10177158e-04
9.90000000e-02	2.55037385e-02	7.99374428e-04
9.92500000e-02	2.56270142e-02	8.04952796e-04
9.95000000e-02	2.58117643e-02	8.05626314e-04
9.97500000e-02	2.57380137e-02	8.07729833e-04
1.00000000e-01	2.62795622e-02	6.69414574e-04
1.00500000e-01	2.58918170e-02	5.73723928e-04
1.01000000e-01	2.57671436e-02	5.64461365e-04
1.01500000e-01	2.57166502e-02	5.64110441e-04
1.02000000e-01	2.56520668e-02	5.62023254e-04
1.02500000e-01	2.54853831e-02	5.53963135e-04
1.03000000e-01	2.57224893e-02	5.59497294e-04
1.03500000e-01	2.54933486e-02	5.51130322e-04
1.04000000e-01	2.49968092e-02	5.40376622e-04
1.04500000e-01	2.48395854e-02	5.37072475e-04
1.05000000e-01	2.47947176e-02	5.29293308e-04
1.05500000e-01	2.47424713e-02	5.30892166e-04
1.06000000e-01	2.48515574e-02	5.28287279e-04
1.06500000e-01	2.47233766e-02	5.26280380e-04
1.07000000e-01	2.40791071e-02	5.20560234e-04
1.07500000e-01	2.38190934e-02	5.25035046e-04
1.08000000e-01	2.39295906e-02	5.28242524e-04
1.08500000e-01	2.37825588e-02	5.28475458e-04
1.09000000e-01	2.36703777e-02	5.29654249e-04
1.09500000e-01	2.35348311e-02	5.30874718e-04
1.10000000e-01	2.37001276e-02	5.27283062e-04
1.10500000e-01	2.42131887e-02	5.31603859e-04
1.11000000e-01	2.42328607e-02	5.20541802e-04
1.11500000e-01	2.42403524e-02	5.17994344e-04
1.12000000e-01	2.40460001e-02	5.08633352e-04
1.12500000e-01	2.39908938e-02	5.04548398e-04
1.13000000e-01	2.39790802e-02	5.01708107e-04
1.13500000e-01	2.38769998e-02	4.96685991e-04
1.14000000e-01	2.44807772e-02	5.06954914e-04
1.14500000e-01	2.34690187e-02	4.88982127e-04
1.15000000e-01	2.36423314e-02	4.88070407e-04
1.15500000e-01	2.39534021e-02	4.94559960e-04
1.16000000e-01	2.35455467e-02	4.85236882e-04
1.16500000e-01	2.39449053e-02	4.90733920e-04
1.17000000e-01	2.37221942e-02	4.87912949e-04
1.17500000e-01	2.34618042e-02	4.78976613e-04
1.18000000e-01	2.34567300e-02	4.77333863e-04
1.18500000e-01	2.35085050e-02	4.76631257e-04
1.19000000e-01	2.35232241e-02	4.76374800e-04
1.19500000e-01	2.31652586e-02	4.69309022e-04
1.20000000e-01	2.32162299e-02	4.67442787e-04
1.20500000e-01	2.29525829e-02	4.64619297e-04
1.21000000e-01	2.31036062e-02	4.63185687e-04
1.21500000e-01	2.34839850e-02	4.71109608e-04
1.22000000e-01	2.33107909e-02	4.65055825e-04
1.22500000e-01	2.29361411e-02	4.55991026e-04
1.23000000e-01	2.34768305e-02	4.65624193e-04
1.23500000e-01	2.34194775e-02	4.60831865e-04
1.24000000e-01	2.33709112e-02	4.63514177e-04
1.24500000e-01	2.35589009e-02	4.64913822e-04
1.25000000e-01	2.34956214e-02	4.64003440e-04
1.25500000e-01	2.31968489e-02	4.57042529e-04
1.26000000e-01	2.35940884e-02	4.61992101e-04
1.26500000e-01	2.34013226e-02	4.57444675e-04
1.27000000e-01	2.36235563e-02	4.60405686e-04
1.27500000e-01	2.36159597e-02	4.61066320e-04
1.28000000e-01	2.30718170e-02	4.49789641e-04
1.28500000e-01	2.32389611e-02	4.50268683e-04
1.29000000e-01	2.29482927e-02	4.46097537e-04
1.29500000e-01	2.33441343e-02	4.52160086e-04
1.30000000e-01	2.29761695e-02	4.43712530e-04
1.30500000e-01	2.34895477e-02	4.52125557e-04
1.31000000e-01	2.30153746e-02	4.43415549e-04
1.31500000e-01	2.29157230e-02	4.40737937e-04
1.32000000e-01	2.32829628e-02	4.44451583e-04
1.32500000e-01	2.32765384e-02	4.44721271e-04
1.33000000e-01	2.33061408e-02	4.43595911e-04
1.33500000e-01	2.30364900e-02	4.34092125e-04
1.34000000e-01	2.27974769e-02	4.31871527e-04
1.34500000e-01	2.31829992e-02	4.35836410e-04
1.35000000e-01	2.29609050e-02	4.31383634e-04
1.35500000e-01	2.29730132e-02	4.31299093e-04
1.36000000e-01	2.31861380e-02	4.33110562e-04
1.36500000e-01	2.31516445e-02	4.34697487e-04
1.37000000e-01	2.26306684e-02	4.23600676e-04
1.37500000e-01	2.28347271e-02	4.26764512e-04
1.38000000e-01	2.27265652e-02	4.24825969e-04
1.38500000e-01	2.25497814e-02	4.20122243e-04
1.39000000e-01	2.26018389e-02	4.20734290e-04
1.39500000e-01	2.24322957e-02	4.19564446e-04
1.40000000e-01	2.27445156e-02	4.22859321e-04
1.40500000e-01	2.23533778e-02	4.15479563e-04
1.41000000e-01	2.19363091e-02	4.05374764e-04
1.41500000e-01	2.21512736e-02	4.10839661e-04
1.42000000e-01	2.21444563e-02	4.07913377e-04
1.42500000e-01	2.21694408e-02	4.10650025e-04
1.43000000e-01	2.17858791e-02	4.03188535e-04
1.43500000e-01	2.19168918e-02	4.04324000e-04
1.44000000e-01	2.19514010e-02	4.04816006e-04
1.44500000e-01	2.17777180e-02	4.00663856e-04
1.45000000e-01	2.18679448e-02	4.00382142e-04
1.45500000e-01	2.20762854e-02	4.02572911e-04
1.46000000e-01	2.18921495e-02	4.00543265e-04
1.46500000e-01	2.19017815e-02	4.01664981e-04
1.47000000e-01	2.17570115e-02	3.95391764e-04
1.47500000e-01	2.16285481e-02	3.92951947e-04
1.48000000e-01	2.17697872e-02	3.94360269e-04
1.48500000e-01	2.14837769e-02	3.89217574e-04
1.49000000e-01	2.18570790e-02	3.94916692e-04
1.49500000e-01	2.19924453e-02	3.95650986e-04
1.50000000e-01	2.14393936e-02	3.87252746e-04
1.50500000e-01	2.14487138e-02	3.87179706e-04
1.51000000e-01	2.13897067e-02	3.84071211e-04
1.51500000e-01	2.16098036e-02	3.87847024e-04
1.52000000e-01	2.14926417e-02	3.84741168e-04
1.52500000e-01	2.14215185e-02	3.83929353e-04
1.53000000e-01	2.10335017e-02	3.77721772e-04
1.53500000e-01	2.15774817e-02	3.83268347e-04
1.54000000e-01	2.15615698e-02	3.83020993e-04
1.54500000e-01	2.14431368e-02	3.87879700e-04
1.55000000e-01	2.09549641e-02	3.85348960e-04
1.55500000e-01	2.09420293e-02	3.86408887e-04
1.56000000e-01	2.13787246e-02	3.96035473e-04
1.56500000e-01	2.09946351e-02	3.88843327e-04
1.57000000e-01	2.14860114e-02	3.98604440e-04
1.57500000e-01	2.11202494e-02	3.86528519e-04
1.58000000e-01	2.09089629e-02	3.77096467e-04
1.58500000e-01	2.11269432e-02	3.77657103e-04
1.59000000e-01	2.13649911e-02	3.81411653e-04
1.59500000e-01	2.13848092e-02	3.79943427e-04
1.60000000e-01	2.07373955e-02	3.69286484e-04
1.60500000e-01	2.10060426e-02	3.72854787e-04
1.61000000e-01	2.11647667e-02	3.74812258e-04
1.61500000e-01	2.10048457e-02	3.70024491e-04
1.62000000e-01	2.08923024e-02	3.67006948e-04
1.62500000e-01	2.10536365e-02	3.70455705e-04
1.63000000e-01	2.08458264e-02	3.64262396e-04
1.63500000e-01	2.10510257e-02	3.68516732e-04
1.64000000e-01	2.10921701e-02	3.67720076e-04
1.64500000e-01	2.08555906e-02	3.64447830e-04
1.65000000e-01	2.06780669e-02	3.60564768e-04
1.65500000e-01	2.11420731e-02	3.66469479e-04
1.66000000e-01	2.08803148e-02	3.62075512e-04
1.66500000e-01	2.09599940e-02	3.61951131e-04
1.67000000e-01	2.10727013e-02	3.63471832e-04
1.67500000e-01	2.10544038e-02	3.62793015e-04
1.68000000e-01	2.08872889e-02	3.60568830e-04
1.68500000e-01	2.08744283e-02	3.58200852e-04
1.69000000e-01	2.06033698e-02	3.56049496e-04
1.69500000e-01	2.07126181e-02	3.55047683e-04
1.70000000e-01	2.09401078e-02	3.57714035e-04
1.70500000e-01	2.06199996e-02	3.53006316e-04
1.71000000e-01	2.08335495e-02	3.56509847e-04
1.71500000e-01	2.07734234e-02	3.54354644e-04
1.72000000e-01	2.06010058e-02	3.50310931e-04
1.72500000e-01	2.06022948e-02	3.51895173e-04
1.73000000e-01	2.06314653e-02	3.50499319e-04
1.73500000e-01	2.03522559e-02	3.45437706e-04
1.74000000e-01	2.07160696e-02	3.49266952e-04
1.74500000e-01	2.06205233e-02	3.46521210e-04
1.75000000e-01	2.06307669e-02	3.44868737e-04
1.75500000e-01	2.05699362e-02	3.43465182e-04
1.76000000e-01	2.03971341e-02	3.41822586e-04
1.76500000e-01	2.06264624e-02	3.45914133e-04
1.77000000e-01	2.05871903e-02	3.42890245e-04
1.77500000e-01	2.05869677e-02	3.44154673e-04
1.78000000e-01	2.03219892e-02	3.37721480e-04
1.78500000e-01	2.06700479e-02	3.44613983e-04
1.79000000e-01	2.05529011e-02	3.42160372e-04
1.79500000e-01	2.02525597e-02	3.37975361e-04
1.80000000e-01	2.05316485e-02	3.40596587e-04
1.80500000e-01	2.04864137e-02	3.39795464e-04
1.81000000e-01	2.02166061e-02	3.37049353e-04
1.81500000e-01	2.05319215e-02	3.38875818e-04
1.82000000e-01	2.04286414e-02	3.37650804e-04
1.82500000e-01	2.03327342e-02	3.35812693e-04
1.83000000e-01	2.01821115e-02	3.32740559e-04
1.83500000e-01	2.04072929e-02	3.35735748e-04
1.84000000e-01	2.03825870e-02	3.35976791e-04
1.84500000e-01	2.01449658e-02	3.31423768e-04
1.85000000e-01	2.03909723e-02	3.35729332e-04
1.85500000e-01	2.01224596e-02	3.31259307e-04
1.86000000e-01	2.04695300e-02	3.36409700e-04
1.86500000e-01	2.03163734e-02	3.32491219e-04
1.87000000e-01	2.00582875e-02	3.27510515e-04
1.87500000e-01	1.98753029e-02	3.25289846e-04
1.88000000e-01	2.00858137e-02	3.27846171e-04
1.88500000e-01	2.00745374e-02	3.28047892e-04
1.89000000e-01	2.01110875e-02	3.25991568e-04
1.89500000e-01	2.01974961e-02	3.28795608e-04
1.90000000e-01	2.00659389e-02	3.26360136e-04
1.90500000e-01	1.99845016e-02	3.25378646e-04
1.91000000e-01	2.01489042e-02	3.27231571e-04
1.91500000e-01	2.00613230e-02	3.25951741e-04
1.92000000e-01	2.02893624e-02	3.27149172e-04
1.92500000e-01	2.00288536e-02	3.23645734e-04
1.93000000e-01	2.00499304e-02	3.23749493e-04
1.93500000e-01	2.03808147e-02	3.26772564e-04
1.94000000e-01	2.01788276e-02	3.24003237e-04
1.94500000e-01	1.98617190e-02	3.19615335e-04
1.95000000e-01	2.00659774e-02	3.22602469e-04
1.95500000e-01	2.02180287e-02	3.22796450e-04
1.96000000e-01	2.00136008e-02	3.20687956e-04
1.96500000e-01	1.98446358e-02	3.18266967e-04
1.97000000e-01	2.00000685e-02	3.19178515e-04
1.97500000e-01	2.01690556e-02	3.21546582e-04
1.98000000e-01	1.96535981e-02	3.13310257e-04
1.98500000e-01	1.99309784e-02	3.16355600e-04
1.99000000e-01	2.01084768e-02	3.18794391e-04
1.99500000e-01	1.98890359e-02	3.15138102e-04
2.00000000e-01	1.98991492e-02	3.15882470e-04
2.00500000e-01	1.98389977e-02	3.13836348e-04
2.01000000e-01	2.00734878e-02	3.16220840e-04
2.01500000e-01	1.97537189e-02	3.12577475e-04
2.02000000e-01	1.97000580e-02	3.11044132e-04
2.02500000e-01	1.98448024e-02	3.10969211e-04
2.03000000e-01	1.99036721e-02	3.14177981e-04
2.03500000e-01	2.00363694e-02	3.14227895e-04
2.04000000e-01	1.98846631e-02	3.12231670e-04
2.04500000e-01	1.99695081e-02	3.13141032e-04
2.05000000e-01	1.98343312e-02	3.09374792e-04
2.05500000e-01	1.95185226e-02	3.05717133e-04
2.06000000e-01	1.98009101e-02	3.08529297e-04
2.06500000e-01	2.01062572e-02	3.13002669e-04
2.07000000e-01	1.97672637e-02	3.07155992e-04
2.07500000e-01	1.95977288e-02	3.05053004e-04
2.08000000e-01	1.97978275e-02	3.09311522e-04
2.08500000e-01	1.97433737e-02	3.04664107e-04
2.09000000e-01	1.98944418e-02	3.09111275e-04
2.09500000e-01	1.98503964e-02	3.05885298e-04
2.10000000e-01	1.95361212e-02	3.02856681e-04
2.10500000e-01	1.96103834e-02	3.03798527e-04
2.11000000e-01	1.98451375e-02	3.07012677e-04
2.11500000e-01	1.94076847e-02	3.01086499e-04
2.12000000e-01	1.96496749e-02	3.02978763e-04
2.12500000e-01	1.93769869e-02	2.98201170e-04
2.13000000e-01	1.94804998e-02	2.98767609e-04
2.13500000e-01	1.94206567e-02	2.97883170e-04
2.14000000e-01	1.96515702e-02	3.01509177e-04
2.14500000e-01	1.94943935e-02	2.97330787e-04
2.15000000e-01	1.93681518e-02	2.97931935e-04
2.15500000e-01	1.95231544e-02	2.98039760e-04
2.16000000e-01	1.92664605e-02	2.95015305e-04
2.16500000e-01	1.93378662e-02	2.95680656e-04
2.17000000e-01	1.94579340e-02	3.00859747e-04
2.17500000e-01	1.95000156e-02	3.07393560e-04
2.18000000e-01	1.94694631e-02	3.06616729e-04
2.18500000e-01	1.93370331e-02	3.06480060e-04
2.19000000e-01	1.93065180e-02	3.09348418e-04
2.19500000e-01	1.94758827e-02	3.10417316e-04
2.20000000e-01	1.93954269e-02	3.12392008e-04
2.20500000e-01	1.93599462e-02	3.11572732e-04
2.21000000e-01	1.95586044e-02	3.14596791e-04
2.21500000e-01	1.94872382e-02	3.15130319e-04
2.22000000e-01	1.92506078e-02	3.11859967e-04
2.22500000e-01	1.92412607e-02	3.12181341e-04
2.23000000e-01	1.94013438e-02	3.15785254e-04
2.23500000e-01	1.92828906e-02	3.14593369e-04
2.24000000e-01	1.91781834e-02	3.12844778e-04
2.24500000e-01	1.93219985e-02	3.16594548e-04
2.25000000e-01	1.92355260e-02	3.15468156e-04
2.25500000e-01	1.92245392e-02	3.15375190e-04
2.26000000e-01	1.95053802e-02	3.21376114e-04
2.26500000e-01	1.94182074e-02	3.14528430e-04
2.27000000e-01	1.91871723e-02	3.09131685e-04
2.27500000e-01	1.93810487e-02	3.08921503e-04
2.28000000e-01	1.92011696e-02	3.05093416e-04
2.28500000e-01	1.92053704e-02	3.02683445e-04
2.29000000e-01	1.90723638e-02	2.99301174e-04
2.29500000e-01	1.91495938e-02	3.00239244e-04
2.30000000e-01	1.92654128e-02	3.01401862e-04
2.30500000e-01	1.92925155e-02	3.00108929e-04
2.31000000e-01	1.92052214e-02	2.98649527e-04
2.31500000e-01	1.93032939e-02	2.98960790e-04
2.32000000e-01	1.94164248e-02	3.00140146e-04
2.32500000e-01	1.92822728e-02	2.96293801e-04
2.33000000e-01	1.89181050e-02	2.91563688e-04
2.33500000e-01	1.93965178e-02	2.97411237e-04
2.34000000e-01	1.92845123e-02	2.95960474e-04
2.34500000e-01	1.91479593e-02	2.91832596e-04
2.35000000e-01	1.91348503e-02	2.92437766e-04
2.35500000e-01	1.91726031e-02	2.91989391e-04
2.36000000e-01	1.92423838e-02	2.93282923e-04
2.36500000e-01	1.90014405e-02	2.89688971e-04
2.37000000e-01	1.90310237e-02	2.87236642e-04
2.37500000e-01	1.89992007e-02	2.88193496e-04
2.38000000e-01	1.89087859e-02	2.85787689e-04
2.38500000e-01	1.91506216e-02	2.89269517e-04
2.39000000e-01	1.88170851e-02	2.82811854e-04
2.39500000e-01	1.91520702e-02	2.88397727e-04
2.40000000e-01	1.88699177e-02	2.83899659e-04
2.40500000e-01	1.90075465e-02	2.84590409e-04
2.41000000e-01	1.88833927e-02	2.84308786e-04
2.41500000e-01	1.89679972e-02	2.82882384e-04
2.42000000e-01	1.88972383e-02	2.81099673e-04
2.42500000e-01	1.88209403e-02	2.80128482e-04
2.43000000e-01	1.89524878e-02	2.81434103e-04
2.43500000e-01	1.88166160e-02	2.79875307e-04
2.44000000e-01	1.91315798e-02	2.82951351e-04
2.44500000e-01	1.89617992e-02	2.81007139e-04
2.45000000e-01	1.86255387e-02	2.75839027e-04
2.45500000e-01	1.90176965e-02	2.80152814e-04
2.46000000e-01	1.87580483e-02	2.77244260e-04
2.46500000e-01	1.88585114e-02	2.78045523e-04
2.47000000e-01	1.87740736e-02	2.76881848e-04
2.47500000e-01	1.87959278e-02	2.75403422e-04
2.48000000e-01	1.87673628e-02	2.75327910e-04
2.48500000e-01	1.87605940e-02	2.74714112e-04
2.49000000e-01	1.90125503e-02	2.77666699e-04
2.49500000e-01	1.88804890e-02	2.75537722e-04
2.50000000e-01	1.86544869e-02	2.72348458e-04
2.50500000e-01	1.87053675e-02	2.73569672e-04
2.51000000e-01	1.85516609e-02	2.69708187e-04
2.51500000e-01	1.87670466e-02	2.73272405e-04
2.52000000e-01	1.86443070e-02	2.72233667e-04
2.52500000e-01	1.88554403e-02	2.73473410e-04
2.53000000e-01	1.86393565e-02	2.72005860e-04
2.53500000e-01	1.85825147e-02	2.69479247e-04
2.54000000e-01	1.87715309e-02	2.72435894e-04
2.54500000e-01	1.86816578e-02	2.69941051e-04
2.55000000e-01	1.88555375e-02	2.71603659e-04
2.55500000e-01	1.87767999e-02	2.72111770e-04
2.56000000e-01	1.89730193e-02	2.73412106e-04
2.56500000e-01	1.87938485e-02	2.70581574e-04
2.57000000e-01	1.86533688e-02	2.67594661e-04
2.57500000e-01	1.85278925e-02	2.66890941e-04
2.58000000e-01	1.84902742e-02	2.65847570e-04
2.58500000e-01	1.83960298e-02	2.64138471e-04
2.59000000e-01	1.88140907e-02	2.70055063e-04
2.59500000e-01	1.84790931e-02	2.64582097e-04
2.60000000e-01	1.85584511e-02	2.65589478e-04
2.60500000e-01	1.86726612e-02	2.67875190e-04
2.61000000e-01	1.85599380e-02	2.65132739e-04
2.61500000e-01	1.86850291e-02	2.66938309e-04
2.62000000e-01	1.85414342e-02	2.64873378e-04
2.62500000e-01	1.86207915e-02	2.65547609e-04
2.63000000e-01	1.86399932e-02	2.65354929e-04
2.63500000e-01	1.84002493e-02	2.60252490e-04
2.64000000e-01	1.85960815e-02	2.64778174e-04
2.64500000e-01	1.86280710e-02	2.64078417e-04
2.65000000e-01	1.82689416e-02	2.59169603e-04
2.65500000e-01	1.84670315e-02	2.61303410e-04
2.66000000e-01	1.85797265e-02	2.62771872e-04
2.66500000e-01	1.84938211e-02	2.61524172e-04
2.67000000e-01	1.85816836e-02	2.61872609e-04
2.67500000e-01	1.84549739e-02	2.58750071e-04
2.68000000e-01	1.85345215e-02	2.60504979e-04
2.68500000e-01	1.83348074e-02	2.57938295e-04
2.69000000e-01	1.87801771e-02	2.62553805e-04
2.69500000e-01	1.83497255e-02	2.57351097e-04
2.70000000e-01	1.82789774e-02	2.56970344e-04
2.70500000e-01	1.83327929e-02	2.56710735e-04
2.71000000e-01	1.83571130e-02	2.55717018e-04
2.71500000e-01	1.82469490e-02	2.55409675e-04
2.72000000e-01	1.83776671e-02	2.55890714e-04
2.72500000e-01	1.82023353e-02	2.54156194e-04
2.73000000e-01	1.84005749e-02	2.56103048e-04
2.73500000e-01	1.83542460e-02	2.55275096e-04
2.74000000e-01	1.84471423e-02	2.56043777e-04
2.74500000e-01	1.84609479e-02	2.55872729e-04
2.75000000e-01	1.83646105e-02	2.54592479e-04
2.75500000e-01	1.84624853e-02	2.56064751e-04
2.76000000e-01	1.84615484e-02	2.55403345e-04
2.76500000e-01	1.83451680e-02	2.54512702e-04
2.77000000e-01	1.83607883e-02	2.53328844e-04
2.77500000e-01	1.82062786e-02	2.52549134e-04
2.78000000e-01	1.83043024e-02	2.52117426e-04
2.78500000e-01	1.83912245e-02	2.53908700e-04
2.79000000e-01	1.83538483e-02	2.52249767e-04
2.79500000e-01	1.81753020e-02	2.49901223e-04
2.80000000e-01	1.84256380e-02	2.53335704e-04
2.80500000e-01	1.83523980e-02	2.51894570e-04
2.81000000e-01	1.79988707e-02	2.48377633e-04
2.81500000e-01	1.81422683e-02	2.48389570e-04
2.82000000e-01	1.82469193e-02	2.49127291e-04
2.82500000e-01	1.82033456e-02	2.49977348e-04
2.83000000e-01	1.82223929e-02	2.48987832e-04
2.83500000e-01	1.79546934e-02	2.46769533e-04
2.84000000e-01	1.82578736e-02	2.48760282e-04
2.84500000e-01	1.81289536e-02	2.47497860e-04
2.85000000e-01	1.81814836e-02	2.48046546e-04
2.85500000e-01	1.80800153e-02	2.46033322e-04
2.86000000e-01	1.79531672e-02	2.44798512e-04
2.86500000e-01	1.81504951e-02	2.46680602e-04
2.87000000e-01	1.80003801e-02	2.44921252e-04
2.87500000e-01	1.79402973e-02	2.43068969e-04
2.88000000e-01	1.80525966e-02	2.43895134e-04
2.88500000e-01	1.78911926e-02	2.43021459e-04
2.89000000e-01	1.81494580e-02	2.45042385e-04
2.89500000e-01	1.80196307e-02	2.42598320e-04
2.90000000e-01	1.80606665e-02	2.43815934e-04
2.90500000e-01	1.79772219e-02	2.44413637e-04
2.91000000e-01	1.80034129e-02	2.42273863e-04
2.91500000e-01	1.80172614e-02	2.42496187e-04
2.92000000e-01	1.80727673e-02	2.43072273e-04
2.92500000e-01	1.78580050e-02	2.39803607e-04
2.93000000e-01	1.80208653e-02	2.41426645e-04
2.93500000e-01	1.77381079e-02	2.37832270e-04
2.94000000e-01	1.78105670e-02	2.39622678e-04
2.94500000e-01	1.77449466e-02	2.38542418e-04
2.95000000e-01	1.78095044e-02	2.38061793e-04
2.95500000e-01	1.79082348e-02	2.39271068e-04
2.96000000e-01	1.78734413e-02	2.38885650e-04
2.96500000e-01	1.78411514e-02	2.38936972e-04
2.97000000e-01	1.76417336e-02	2.37004853e-04
2.97500000e-01	1.79494321e-02	2.38705165e-04
2.98000000e-01	1.79385721e-02	2.39011828e-04
2.98500000e-01	1.80281280e-02	2.39465930e-04
2.99000000e-01	1.78891425e-02	2.37452880e-04
2.99500000e-01	1.76696786e-02	2.35480050e-04
3.00000000e-01	1.79018845e-02	2.37834461e-04
3.00500000e-01	1.79223533e-02	2.38437541e-04
3.01000000e-01	1.77744271e-02	2.34886173e-04
3.01500000e-01	1.78442550e-02	2.36319547e-04
3.02000000e-01	1.77597118e-02	2.34720195e-04
3.02500000e-01	1.77522626e-02	2.35471180e-04
3.03000000e-01	1.77539136e-02	2.34619260e-04
3.03500000e-01	1.77972078e-02	2.34678927e-04
3.04000000e-01	1.77094087e-02	2.34087413e-04
3.04500000e-01	1.76085453e-02	2.31739799e-04
3.05000000e-01	1.76602227e-02	2.33280293e-04
3.05500000e-01	1.77859982e-02	2.33946184e-04
3.06000000e-01	1.75712368e-02	2.29769289e-04
3.06500000e-01	1.77862305e-02	2.34097351e-04
3.07000000e-01	1.75719698e-02	2.30150946e-04
3.07500000e-01	1.77048396e-02	2.32193379e-04
3.08000000e-01	1.75449899e-02	2.30034211e-04
3.08500000e-01	1.77154420e-02	2.31846407e-04
3.09000000e-01	1.77541276e-02	2.32677090e-04
3.09500000e-01	1.77015696e-02	2.30977373e-04
3.10000000e-01	1.78144001e-02	2.32021662e-04
3.10500000e-01	1.77656160e-02	2.31460008e-04
3.11000000e-01	1.75902462e-02	2.30379094e-04
3.11500000e-01	1.75521555e-02	2.28867123e-04
3.12000000e-01	1.77608801e-02	2.31570229e-04
3.12500000e-01	1.76790681e-02	2.30097136e-04
3.13000000e-01	1.76091861e-02	2.29139585e-04
3.13500000e-01	1.75240979e-02	2.27790272e-04
3.14000000e-01	1.75589633e-02	2.27555446e-04
3.14500000e-01	1.74176109e-02	2.26263737e-04
3.15000000e-01	1.75813576e-02	2.28756747e-04
3.15500000e-01	1.75749807e-02	2.27089815e-04
3.16000000e-01	1.75434790e-02	2.27455359e-04
3.16500000e-01	1.73259988e-02	2.24143358e-04
3.17000000e-01	1.75290772e-02	2.26942618e-04
3.17500000e-01	1.72298160e-02	2.23134354e-04
3.18000000e-01	1.75597585e-02	2.26753857e-04
3.18500000e-01	1.76912135e-02	2.28416251e-04
3.19000000e-01	1.73980909e-02	2.24018993e-04
3.19500000e-01	1.75024601e-02	2.24975652e-04
3.20000000e-01	1.73952797e-02	2.24709168e-04
3.20500000e-01	1.74198585e-02	2.23817433e-04
3.21000000e-01	1.73656897e-02	2.23204881e-04
3.21500000e-01	1.72847185e-02	2.22007861e-04
3.22000000e-01	1.75117461e-02	2.24787484e-04
3.22500000e-01	1.75268937e-02	2.24840853e-04
3.23000000e-01	1.75723947e-02	2.24910023e-04
3.23500000e-01	1.74473487e-02	2.23188676e-04
3.24000000e-01	1.72563812e-02	2.20574034e-04
3.24500000e-01	1.72761170e-02	2.21808337e-04
3.25000000e-01	1.73381386e-02	2.20814483e-04
3.25500000e-01	1.73812651e-02	2.21393861e-04
3.26000000e-01	1.71951904e-02	2.19490562e-04
3.26500000e-01	1.72296709e-02	2.19199914e-04
3.27000000e-01	1.71975406e-02	2.19413713e-04
3.27500000e-01	1.71339969e-02	2.17607968e-04
3.28000000e-01	1.73122899e-02	2.20617733e-04
3.28500000e-01	1.72383672e-02	2.18415752e-04
3.29000000e-01	1.72826777e-02	2.18850301e-04
3.29500000e-01	1.71522597e-02	2.17912992e-04
3.30000000e-01	1.70390199e-02	2.16408185e-04
3.30500000e-01	1.73658439e-02	2.20636844e-04
3.31000000e-01	1.69395316e-02	2.14656214e-04
3.31500000e-01	1.74528700e-02	2.21146142e-04
3.32000000e-01	1.70632942e-02	2.16120624e-04
3.32500000e-01	1.72157614e-02	2.17592342e-04
3.33000000e-01	1.71739235e-02	2.16868551e-04
3.33500000e-01	1.72039587e-02	2.17045072e-04
3.34000000e-01	1.72214213e-02	2.17211264e-04
3.34500000e-01	1.70374119e-02	2.14422450e-04
3.35000000e-01	1.70266102e-02	2.15365008e-04
3.35500000e-01	1.71925635e-02	2.17193193e-04
3.36000000e-01	1.71197382e-02	2.15287144e-04
3.36500000e-01	1.70540602e-02	2.14102174e-04
3.37000000e-01	1.70578937e-02	2.13808423e-04
3.37500000e-01	1.70786310e-02	2.14168098e-04
3.38000000e-01	1.69866370e-02	2.14081117e-04
3.38500000e-01	1.68728577e-02	2.12014187e-04
3.39000000e-01	1.69930569e-02	2.14018407e-04
3.39500000e-01	1.70342931e-02	2.13425980e-04
3.40000000e-01	1.70524081e-02	2.13875993e-04
3.40500000e-01	1.70113464e-02	2.12139312e-04
3.41000000e-01	1.68561410e-02	2.10887362e-04
3.41500000e-01	1.71806615e-02	2.14677622e-04
3.42000000e-01	1.69701807e-02	2.11416526e-04
3.42500000e-01	1.70732992e-02	2.12728465e-04
3.43000000e-01	1.68199575e-02	2.09749912e-04
3.43500000e-01	1.69645548e-02	2.11470999e-04
3.44000000e-01	1.70957961e-02	2.13045695e-04
3.44500000e-01	1.69475333e-02	2.10607057e-04
3.45000000e-01	1.70865604e-02	2.11897572e-04
3.45500000e-01	1.67959314e-02	2.08428790e-04
3.46000000e-01	1.67769275e-02	2.08695904e-04
3.46500000e-01	1.69361511e-02	2.10146600e-04
3.47000000e-01	1.70811708e-02	2.10261505e-04
3.47500000e-01	1.68336555e-02	2.08244947e-04
3.48000000e-01	1.68144130e-02	2.07527273e-04
3.48500000e-01	1.68463821e-02	2.08708598e-04
3.49000000e-01	1.69894304e-02	2.09639388e-04
3.49500000e-01	1.66948156e-02	2.06967436e-04
3.50000000e-01	1.67688330e-02	1.69030443e-04
3.51000000e-01	1.67795494e-02	1.46312268e-04
3.52000000e-01	1.69343062e-02	1.47384155e-04
3.53000000e-01	1.68518585e-02	1.46047024e-04
3.54000000e-01	1.66464357e-02	1.44328957e-04
3.55000000e-01	1.69437648e-02	1.46458984e-04
3.56000000e-01	1.66744997e-02	1.45087112e-04
3.57000000e-01	1.67653085e-02	1.48388377e-04
3.58000000e-01	1.68102523e-02	1.49780676e-04
3.59000000e-01	1.66859849e-02	1.50407197e-04
3.60000000e-01	1.66851994e-02	1.50974125e-04
3.61000000e-01	1.66153527e-02	1.50876095e-04
3.62000000e-01	1.65228281e-02	1.51208295e-04
3.63000000e-01	1.65703538e-02	1.52221728e-04
3.64000000e-01	1.65211798e-02	1.52353603e-04
3.65000000e-01	1.64464707e-02	1.51756168e-04
3.66000000e-01	1.64864278e-02	1.50520282e-04
3.67000000e-01	1.65627355e-02	1.49182303e-04
3.68000000e-01	1.64100014e-02	1.46966754e-04
3.69000000e-01	1.63959176e-02	1.46237265e-04
3.70000000e-01	1.64264689e-02	1.45368244e-04
3.71000000e-01	1.65120532e-02	1.47638460e-04
3.72000000e-01	1.63537296e-02	1.47999537e-04
3.73000000e-01	1.64821055e-02	1.49228703e-04
3.74000000e-01	1.62966105e-02	1.48087463e-04
3.75000000e-01	1.63255885e-02	1.47865250e-04
3.76000000e-01	1.63207981e-02	1.47970810e-04
3.77000000e-01	1.62989382e-02	1.47888901e-04
3.78000000e-01	1.62861431e-02	1.47829931e-04
3.79000000e-01	1.64032148e-02	1.48278630e-04
3.80000000e-01	1.63561676e-02	1.47398972e-04
3.81000000e-01	1.63291028e-02	1.47566179e-04
3.82000000e-01	1.63008183e-02	1.47107467e-04
3.83000000e-01	1.63698841e-02	1.47553961e-04
3.84000000e-01	1.63984558e-02	1.48279032e-04
3.85000000e-01	1.62446297e-02	1.47082022e-04
3.86000000e-01	1.62825336e-02	1.46860878e-04
3.87000000e-01	1.63137210e-02	1.47298266e-04
3.88000000e-01	1.61689632e-02	1.46108004e-04
3.89000000e-01	1.63012465e-02	1.46815560e-04
3.90000000e-01	1.61711568e-02	1.46110416e-04
3.91000000e-01	1.61511800e-02	1.45561170e-04
3.92000000e-01	1.61394535e-02	1.45595819e-04
3.93000000e-01	1.62326752e-02	1.46430432e-04
3.94000000e-01	1.61253383e-02	1.45150841e-04
3.95000000e-01	1.60822090e-02	1.44706132e-04
3.96000000e-01	1.61487529e-02	1.45387507e-04
3.97000000e-01	1.59713787e-02	1.44089132e-04
3.98000000e-01	1.59484283e-02	1.43921524e-04
3.99000000e-01	1.60903181e-02	1.44987849e-04
4.00000000e-01	1.60193540e-02	1.44558237e-04
4.01000000e-01	1.60304491e-02	1.44402108e-04
4.02000000e-01	1.60707969e-02	1.44766363e-04
4.03000000e-01	1.60674229e-02	1.44706712e-04
4.04000000e-01	1.59688805e-02	1.43824918e-04
4.05000000e-01	1.59328720e-02	1.43872790e-04
4.06000000e-01	1.59748410e-02	1.44384331e-04
4.07000000e-01	1.58057194e-02	1.42768684e-04
4.08000000e-01	1.58563279e-02	1.43004983e-04
4.09000000e-01	1.58437009e-02	1.42599099e-04
4.10000000e-01	1.58610503e-02	1.42345384e-04
4.11000000e-01	1.59663135e-02	1.43589359e-04
4.12000000e-01	1.58512373e-02	1.42692676e-04
4.13000000e-01	1.58489949e-02	1.42599853e-04
4.14000000e-01	1.57668465e-02	1.41948899e-04
4.15000000e-01	1.57099020e-02	1.41088351e-04
4.16000000e-01	1.58300912e-02	1.42066007e-04
4.17000000e-01	1.57661137e-02	1.41423402e-04
4.18000000e-01	1.59213583e-02	1.44395141e-04
4.19000000e-01	1.59396279e-02	1.46400117e-04
4.20000000e-01	1.59102075e-02	1.46762965e-04
4.21000000e-01	1.58503491e-02	1.47045657e-04
4.22000000e-01	1.58443898e-02	1.47704558e-04
4.23000000e-01	1.58399047e-02	1.48043152e-04
4.24000000e-01	1.58200704e-02	1.48515521e-04
4.25000000e-01	1.58855379e-02	1.48596191e-04
4.26000000e-01	1.57966782e-02	1.47857349e-04
4.27000000e-01	1.58403189e-02	1.48450764e-04
4.28000000e-01	1.59027793e-02	1.49191925e-04
4.29000000e-01	1.58004195e-02	1.48653769e-04
4.30000000e-01	1.57896977e-02	1.48495939e-04
4.31000000e-01	1.57681807e-02	1.47559841e-04
4.32000000e-01	1.57390231e-02	1.47983752e-04
4.33000000e-01	1.56514373e-02	1.47501449e-04
4.34000000e-01	1.57258726e-02	1.47997306e-04
4.35000000e-01	1.56697030e-02	1.47648346e-04
4.36000000e-01	1.56025482e-02	1.47392208e-04
4.37000000e-01	1.56502600e-02	1.48179004e-04
4.38000000e-01	1.57952894e-02	1.49712709e-04
4.39000000e-01	1.56562689e-02	1.48213094e-04
4.40000000e-01	1.56217740e-02	1.48317513e-04
4.41000000e-01	1.55224633e-02	1.48025299e-04
4.42000000e-01	1.56068705e-02	1.48748051e-04
4.43000000e-01	1.54536095e-02	1.47121950e-04
4.44000000e-01	1.56489624e-02	1.49423089e-04
4.45000000e-01	1.54689971e-02	1.48148812e-04
4.46000000e-01	1.56228907e-02	1.49207751e-04
4.47000000e-01	1.55541372e-02	1.48502190e-04
4.48000000e-01	1.56060506e-02	1.49381747e-04
4.49000000e-01	1.54747261e-02	1.48581846e-04
4.50000000e-01	1.55459679e-02	1.49399500e-04
4.51000000e-01	1.55102055e-02	1.49141134e-04
4.52000000e-01	1.54201939e-02	1.48767158e-04
4.53000000e-01	1.56039686e-02	1.50111166e-04
4.54000000e-01	1.55063660e-02	1.49618048e-04
4.55000000e-01	1.54246673e-02	1.48891364e-04
4.56000000e-01	1.55385797e-02	1.50125487e-04
4.57000000e-01	1.54996955e-02	1.49769020e-04
4.58000000e-01	1.55768710e-02	1.50411211e-04
4.59000000e-01	1.55278390e-02	1.50476055e-04
4.60000000e-01	1.54025712e-02	1.48887801e-04
4.61000000e-01	1.54733517e-02	1.50177722e-04
4.62000000e-01	1.54334956e-02	1.49961494e-04
4.63000000e-01	1.53991061e-02	1.49631995e-04
4.64000000e-01	1.52920179e-02	1.48906880e-04
4.65000000e-01	1.54389764e-02	1.50410907e-04
4.66000000e-01	1.54371500e-02	1.50343653e-04
4.67000000e-01	1.52977590e-02	1.49122075e-04
4.68000000e-01	1.53221778e-02	1.49493690e-04
4.69000000e-01	1.53352461e-02	1.49468226e-04
4.70000000e-01	1.53104460e-02	1.50499337e-04
4.71000000e-01	1.51681550e-02	1.48284360e-04
4.72000000e-01	1.52585437e-02	1.49148699e-04
4.73000000e-01	1.53614369e-02	1.49771257e-04
4.74000000e-01	1.50706821e-02	1.46633114e-04
4.75000000e-01	1.52356411e-02	1.48611838e-04
4.76000000e-01	1.53293558e-02	1.49273951e-04
4.77000000e-01	1.53420792e-02	1.49636853e-04
4.78000000e-01	1.53213226e-02	1.49310644e-04
4.79000000e-01	1.52789547e-02	1.48860764e-04
4.80000000e-01	1.52061946e-02	1.48567127e-04
4.81000000e-01	1.50975700e-02	1.47655771e-04
4.82000000e-01	1.54144085e-02	1.50664232e-04
4.83000000e-01	1.52659198e-02	1.49235182e-04
4.84000000e-01	1.52818218e-02	1.49634291e-04
4.85000000e-01	1.52520634e-02	1.49642507e-04
4.86000000e-01	1.53117245e-02	1.49627172e-04
4.87000000e-01	1.51678904e-02	1.48525117e-04
4.88000000e-01	1.53063213e-02	1.49974962e-04
4.89000000e-01	1.51925528e-02	1.49464867e-04
4.90000000e-01	1.51996535e-02	1.48931582e-04
4.91000000e-01	1.52573993e-02	1.49999560e-04
4.92000000e-01	1.53329441e-02	1.50421421e-04
4.93000000e-01	1.51374547e-02	1.48845312e-04
4.94000000e-01	1.52000888e-02	1.49873746e-04
4.95000000e-01	1.51766747e-02	1.50100984e-04
4.96000000e-01	1.51715534e-02	1.55040863e-04
4.97000000e-01	1.51227050e-02	1.57326026e-04
4.98000000e-01	1.50738776e-02	1.58720683e-04
4.99000000e-01	1.50070527e-02	1.60119683e-04
5.00000000e-01	1.50930383e-02	1.62817505e-04
5.01000000e-01	1.50220277e-02	1.63851179e-04
5.02000000e-01	1.50884282e-02	1.65945489e-04
5.03000000e-01	1.50205041e-02	1.66965120e-04
5.04000000e-01	1.51823294e-02	1.69599910e-04
5.05000000e-01	1.49626249e-02	1.64908601e-04
5.06000000e-01	1.50731323e-02	1.62558299e-04
5.07000000e-01	1.51356488e-02	1.61501087e-04
5.08000000e-01	1.50792014e-02	1.59740038e-04
5.09000000e-01	1.50561596e-02	1.59000583e-04
5.10000000e-01	1.49920446e-02	1.58004774e-04
5.11000000e-01	1.50137801e-02	1.57592025e-04
5.12000000e-01	1.50913944e-02	1.57811365e-04
5.13000000e-01	1.50913195e-02	1.57539508e-04
5.14000000e-01	1.49107428e-02	1.55860993e-04
5.15000000e-01	1.49797252e-02	1.55507608e-04
5.16000000e-01	1.49993239e-02	1.55760096e-04
5.17000000e-01	1.48497747e-02	1.54033177e-04
5.18000000e-01	1.49273605e-02	1.53971894e-04
5.19000000e-01	1.49608419e-02	1.54002569e-04
5.20000000e-01	1.48919453e-02	1.53215784e-04
5.21000000e-01	1.48063442e-02	1.52619501e-04
5.22000000e-01	1.48911090e-02	1.52831962e-04
5.23000000e-01	1.47473166e-02	1.51757511e-04
5.24000000e-01	1.50116539e-02	1.54209695e-04
5.25000000e-01	1.49006960e-02	1.53292222e-04
5.26000000e-01	1.48108209e-02	1.51912453e-04
5.27000000e-01	1.48926653e-02	1.53218804e-04
5.28000000e-01	1.48585017e-02	1.52820349e-04
5.29000000e-01	1.48007438e-02	1.52038511e-04
5.30000000e-01	1.47359967e-02	1.51940756e-04
5.31000000e-01	1.47512592e-02	1.51359053e-04
5.32000000e-01	1.48720889e-02	1.52841299e-04
5.33000000e-01	1.49042851e-02	1.52820442e-04
5.34000000e-01	1.47109790e-02	1.51564690e-04
5.35000000e-01	1.46772572e-02	1.50629098e-04
5.36000000e-01	1.47325615e-02	1.51351706e-04
5.37000000e-01	1.48169921e-02	1.51821009e-04
5.38000000e-01	1.47735855e-02	1.51566611e-04
5.39000000e-01	1.47692722e-02	1.51395373e-04
5.40000000e-01	1.48223973e-02	1.52491469e-04
5.41000000e-01	1.46802198e-02	1.50347755e-04
5.42000000e-01	1.48938272e-02	1.52567419e-04
5.43000000e-01	1.47312691e-02	1.51679356e-04
5.44000000e-01	1.47817970e-02	1.51221793e-04
5.45000000e-01	1.46721878e-02	1.50477412e-04
5.46000000e-01	1.47361706e-02	1.51156158e-04
5.47000000e-01	1.47783517e-02	1.52501105e-04
5.48000000e-01	1.45751201e-02	1.49956780e-04
5.49000000e-01	1.46336921e-02	1.49960826e-04
5.50000000e-01	1.46063628e-02	1.49846877e-04
5.51000000e-01	1.47328060e-02	1.50844212e-04
5.52000000e-01	1.47016065e-02	1.50155729e-04
5.53000000e-01	1.45522039e-02	1.48451838e-04
5.54000000e-01	1.45368833e-02	1.48677659e-04
5.55000000e-01	1.45315185e-02	1.48017391e-04
5.56000000e-01	1.45301964e-02	1.48395867e-04
5.57000000e-01	1.43273628e-02	1.46441574e-04
5.58000000e-01	1.44525605e-02	1.47549747e-04
5.59000000e-01	1.43819444e-02	1.47085997e-04
5.60000000e-01	1.44112948e-02	1.47367830e-04
5.61000000e-01	1.43797023e-02	1.47364936e-04
5.62000000e-01	1.45299523e-02	1.47865561e-04
5.63000000e-01	1.44061423e-02	1.47586827e-04
5.64000000e-01	1.43644455e-02	1.47026379e-04
5.65000000e-01	1.43501394e-02	1.46739446e-04
5.66000000e-01	1.44715466e-02	1.48167800e-04
5.67000000e-01	1.45905899e-02	1.48986003e-04
5.68000000e-01	1.44521597e-02	1.47655981e-04
5.69000000e-01	1.43012960e-02	1.45527397e-04
5.70000000e-01	1.45165246e-02	1.48101266e-04
5.71000000e-01	1.44757875e-02	1.47889848e-04
5.72000000e-01	1.44768513e-02	1.47761073e-04
5.73000000e-01	1.42472629e-02	1.46291420e-04
5.74000000e-01	1.43202402e-02	1.46112168e-04
5.75000000e-01	1.41993246e-02	1.45712656e-04
5.76000000e-01	1.43851649e-02	1.47195868e-04
5.77000000e-01	1.41210938e-02	1.44380506e-04
5.78000000e-01	1.42574844e-02	1.45791733e-04
5.79000000e-01	1.42115986e-02	1.45169201e-04
5.80000000e-01	1.43468874e-02	1.46846154e-04
5.81000000e-01	1.43433119e-02	1.47047531e-04
5.82000000e-01	1.41802920e-02	1.45165714e-04
5.83000000e-01	1.41269144e-02	1.44895984e-04
5.84000000e-01	1.42587192e-02	1.46116491e-04
5.85000000e-01	1.40919187e-02	1.44672899e-04
5.86000000e-01	1.42215495e-02	1.45643870e-04
5.87000000e-01	1.42808166e-02	1.46396434e-04
5.88000000e-01	1.40427104e-02	1.44292556e-04
5.89000000e-01	1.42012413e-02	1.46153049e-04
5.90000000e-01	1.41652611e-02	1.45280546e-04
5.91000000e-01	1.42362629e-02	1.46358727e-04
5.92000000e-01	1.41704811e-02	1.45355835e-04
5.93000000e-01	1.42241593e-02	1.45821564e-04
5.94000000e-01	1.41700835e-02	1.45513113e-04
5.95000000e-01	1.41156989e-02	1.44900907e-04
5.96000000e-01	1.41556529e-02	1.45559087e-04
5.97000000e-01	1.40326570e-02	1.44733302e-04
5.98000000e-01	1.41125107e-02	1.45206175e-04
5.99000000e-01	1.40305489e-02	1.44359278e-04
6.00000000e-01	1.41381584e-02	1.45582194e-04
6.01000000e-01	1.41154301e-02	1.45399631e-04
6.02000000e-01	1.39680414e-02	1.43567241e-04
6.03000000e-01	1.40184310e-02	1.44264684e-04
6.04000000e-01	1.39956898e-02	1.43789422e-04
6.05000000e-01	1.39365409e-02	1.43278664e-04
6.06000000e-01	1.40919660e-02	1.45018563e-04
6.07000000e-01	1.41417089e-02	1.45675379e-04
6.08000000e-01	1.40807961e-02	1.44869924e-04
6.09000000e-01	1.40534937e-02	1.45004033e-04
6.10000000e-01	1.39812897e-02	1.44195797e-04
6.11000000e-01	1.38612260e-02	1.43049614e-04
6.12000000e-01	1.38765353e-02	1.43117836e-04
6.13000000e-01	1.40465949e-02	1.45107822e-04
6.14000000e-01	1.39944675e-02	1.44340468e-04
6.15000000e-01	1.38444035e-02	1.43108229e-04
6.16000000e-01	1.41006777e-02	1.45229059e-04
6.17000000e-01	1.39336770e-02	1.43847052e-04
6.18000000e-01	1.40439776e-02	1.44849377e-04
6.19000000e-01	1.40357029e-02	1.44068573e-04
6.20000000e-01	1.40697120e-02	1.44945691e-04
6.21000000e-01	1.38914548e-02	1.42787072e-04
6.22000000e-01	1.39070533e-02	1.42712806e-04
6.23000000e-01	1.39592960e-02	1.43061026e-04
6.24000000e-01	1.38686716e-02	1.41958389e-04
6.25000000e-01	1.37947527e-02	1.41346196e-04
6.26000000e-01	1.39616191e-02	1.43076314e-04
6.27000000e-01	1.37542863e-02	1.41155324e-04
6.28000000e-01	1.38094028e-02	1.41291162e-04
6.29000000e-01	1.39192159e-02	1.42498024e-04
6.30000000e-01	1.39089925e-02	1.42631996e-04
6.31000000e-01	1.38250346e-02	1.41450459e-04
6.32000000e-01	1.38803027e-02	1.42411684e-04
6.33000000e-01	1.39174727e-02	1.42487406e-04
6.34000000e-01	1.38950011e-02	1.45836402e-04
6.35000000e-01	1.39251089e-02	1.50469537e-04
6.36000000e-01	1.39676250e-02	1.53654876e-04
6.37000000e-01	1.38390509e-02	1.54662592e-04
6.38000000e-01	1.38943322e-02	1.57337750e-04
6.39000000e-01	1.38797718e-02	1.58532608e-04
6.40000000e-01	1.40743159e-02	1.63112882e-04
6.41000000e-01	1.39850465e-02	1.63861811e-04
6.42000000e-01	1.39069967e-02	1.64411128e-04
6.43000000e-01	1.41075808e-02	1.67058628e-04
6.44000000e-01	1.39401584e-02	1.58906929e-04
6.45000000e-01	1.37815589e-02	1.55342489e-04
6.46000000e-01	1.39984374e-02	1.56332680e-04
6.47000000e-01	1.41425205e-02	1.56840762e-04
6.48000000e-01	1.38814103e-02	1.52719441e-04
6.49000000e-01	1.38299984e-02	1.51261545e-04
6.50000000e-01	1.39026772e-02	1.51022099e-04
6.51000000e-01	1.38561785e-02	1.50256871e-04
6.52000000e-01	1.38311849e-02	1.49156589e-04
6.53000000e-01	1.39613626e-02	1.50196087e-04
6.54000000e-01	1.38809303e-02	1.49222122e-04
6.55000000e-01	1.37912540e-02	1.47868140e-04
6.56000000e-01	1.37691110e-02	1.47487186e-04
6.57000000e-01	1.38796426e-02	1.48483961e-04
6.58000000e-01	1.38706176e-02	1.48285471e-04
6.59000000e-01	1.39553355e-02	1.48946098e-04
6.60000000e-01	1.37952051e-02	1.47049283e-04
6.61000000e-01	1.38978089e-02	1.47786504e-04
6.62000000e-01	1.39665682e-02	1.48888614e-04
6.63000000e-01	1.37776538e-02	1.46985514e-04
6.64000000e-01	1.38005657e-02	1.46886948e-04
6.65000000e-01	1.38684944e-02	1.47861623e-04
6.66000000e-01	1.37718458e-02	1.46615233e-04
6.67000000e-01	1.37891240e-02	1.45981639e-04
6.68000000e-01	1.38173261e-02	1.46725983e-04
6.69000000e-01	1.38426301e-02	1.47146704e-04
6.70000000e-01	1.38510285e-02	1.46876386e-04
6.71000000e-01	1.38330198e-02	1.46749788e-04
6.72000000e-01	1.38038538e-02	1.46243522e-04
6.73000000e-01	1.37957259e-02	1.45823767e-04
6.74000000e-01	1.36651636e-02	1.44736778e-04
6.75000000e-01	1.37324319e-02	1.45589127e-04
6.76000000e-01	1.37410335e-02	1.45759712e-04
6.77000000e-01	1.35807468e-02	1.44200089e-04
6.78000000e-01	1.38139712e-02	1.46238241e-04
6.79000000e-01	1.36884090e-02	1.44755774e-04
6.80000000e-01	1.36039513e-02	1.44108040e-04
6.81000000e-01	1.36848101e-02	1.45106886e-04
6.82000000e-01	1.36961815e-02	1.45111870e-04
6.83000000e-01	1.36580502e-02	1.44778260e-04
6.84000000e-01	1.37289529e-02	1.45422405e-04
6.85000000e-01	1.36322086e-02	1.43903036e-04
6.86000000e-01	1.36758367e-02	1.44413961e-04
6.87000000e-01	1.36800956e-02	1.44556912e-04
6.88000000e-01	1.35762912e-02	1.43784434e-04
6.89000000e-01	1.37188593e-02	1.44925200e-04
6.90000000e-01	1.36623621e-02	1.44577491e-04
6.91000000e-01	1.36535288e-02	1.44409230e-04
6.92000000e-01	1.36831028e-02	1.44808575e-04
6.93000000e-01	1.36083704e-02	1.44106006e-04
6.94000000e-01	1.37394564e-02	1.44800029e-04
6.95000000e-01	1.36110478e-02	1.43458057e-04
6.96000000e-01	1.37713081e-02	1.45286585e-04
6.97000000e-01	1.35670352e-02	1.43288111e-04
6.98000000e-01	1.35154194e-02	1.43015782e-04
6.99000000e-01	1.34658045e-02	1.41860626e-04
7.00000000e-01	1.36483643e-02	1.44378997e-04
7.01000000e-01	1.35698074e-02	1.43298810e-04
7.02000000e-01	1.35613556e-02	1.43270564e-04
7.03000000e-01	1.35644947e-02	1.43040966e-04
7.04000000e-01	1.34850844e-02	1.42796871e-04
7.05000000e-01	1.34537276e-02	1.42267234e-04
7.06000000e-01	1.33704303e-02	1.41050671e-04
7.07000000e-01	1.35527630e-02	1.42281493e-04
7.08000000e-01	1.33694261e-02	1.41270241e-04
7.09000000e-01	1.33421091e-02	1.40459430e-04
7.10000000e-01	1.33603556e-02	1.40798235e-04
7.11000000e-01	1.33754492e-02	1.40643456e-04
7.12000000e-01	1.33156115e-02	1.40440720e-04
7.13000000e-01	1.33666909e-02	1.41087027e-04
7.14000000e-01	1.33483308e-02	1.40752633e-04
7.15000000e-01	1.33739806e-02	1.41316295e-04
7.16000000e-01	1.33654405e-02	1.41598628e-04
7.17000000e-01	1.33928960e-02	1.41475723e-04
7.18000000e-01	1.33724082e-02	1.40909674e-04
7.19000000e-01	1.32478601e-02	1.39748839e-04
7.20000000e-01	1.32671887e-02	1.40187504e-04
7.21000000e-01	1.33173486e-02	1.40450092e-04
7.22000000e-01	1.33857153e-02	1.41637393e-04
7.23000000e-01	1.33306233e-02	1.41153554e-04
7.24000000e-01	1.33848406e-02	1.41140758e-04
7.25000000e-01	1.32836006e-02	1.40349056e-04
7.26000000e-01	1.32947610e-02	1.40513311e-04
7.27000000e-01	1.32813046e-02	1.40414706e-04
7.28000000e-01	1.33010692e-02	1.40475051e-04
7.29000000e-01	1.31309882e-02	1.38705979e-04
7.30000000e-01	1.34027211e-02	1.41762701e-04
7.31000000e-01	1.31987092e-02	1.39350188e-04
7.32000000e-01	1.31555270e-02	1.39539100e-04
7.33000000e-01	1.31092878e-02	1.38446480e-04
7.34000000e-01	1.30724365e-02	1.38423241e-04
7.35000000e-01	1.31051175e-02	1.38157907e-04
7.36000000e-01	1.32660820e-02	1.39615665e-04
7.37000000e-01	1.30709375e-02	1.37154383e-04
7.38000000e-01	1.30073159e-02	1.36379191e-04
7.39000000e-01	1.30350730e-02	1.36406327e-04
7.40000000e-01	1.31848476e-02	1.38135146e-04
7.41000000e-01	1.31319870e-02	1.37362934e-04
7.42000000e-01	1.31029787e-02	1.37019201e-04
7.43000000e-01	1.31054205e-02	1.37140869e-04
7.44000000e-01	1.30504744e-02	1.36754573e-04
7.45000000e-01	1.31739915e-02	1.37511887e-04
7.46000000e-01	1.30563110e-02	1.36631547e-04
7.47000000e-01	1.30372461e-02	1.36625875e-04
7.48000000e-01	1.31592128e-02	1.37205709e-04
7.49000000e-01	1.30761267e-02	1.36836222e-04
7.50000000e-01	1.29330614e-02	1.35568501e-04
7.51000000e-01	1.30936993e-02	1.36613039e-04
7.52000000e-01	1.31602729e-02	1.37749515e-04
7.53000000e-01	1.31287233e-02	1.37423518e-04
7.54000000e-01	1.29474413e-02	1.35645667e-04
7.55000000e-01	1.30079764e-02	1.36662135e-04
7.56000000e-01	1.29752828e-02	1.36058619e-04
7.57000000e-01	1.30017256e-02	1.36289888e-04
7.58000000e-01	1.30012310e-02	1.35727417e-04
7.59000000e-01	1.28961240e-02	1.35009033e-04
7.60000000e-01	1.28447708e-02	1.34530641e-04
7.61000000e-01	1.29620293e-02	1.34582696e-04
7.62000000e-01	1.29557835e-02	1.34628501e-04
7.63000000e-01	1.28012999e-02	1.33577695e-04
7.64000000e-01	1.27964811e-02	1.32930341e-04
7.65000000e-01	1.28060921e-02	1.33307036e-04
7.66000000e-01	1.27812472e-02	1.33063745e-04
7.67000000e-01	1.29527351e-02	1.34173966e-04
7.68000000e-01	1.28363914e-02	1.33426403e-04
7.69000000e-01	1.29447492e-02	1.34175800e-04
7.70000000e-01	1.28777823e-02	1.33292557e-04
7.71000000e-01	1.28883410e-02	1.33943588e-04
7.72000000e-01	1.28558111e-02	1.37310727e-04
7.73000000e-01	1.27916411e-02	1.41284885e-04
7.74000000e-01	1.27533560e-02	1.43893624e-04
7.75000000e-01	1.27498237e-02	1.46212184e-04
7.76000000e-01	1.28856661e-02	1.49747970e-04
7.77000000e-01	1.28170871e-02	1.51297558e-04
7.78000000e-01	1.28123044e-02	1.53611752e-04
7.79000000e-01	1.28038588e-02	1.54798713e-04
7.80000000e-01	1.27822906e-02	1.56305918e-04
7.81000000e-01	1.27641941e-02	1.58465724e-04
7.82000000e-01	1.28664194e-02	1.60652484e-04
7.83000000e-01	1.27946935e-02	1.62122529e-04
7.84000000e-01	1.26874241e-02	1.62719041e-04
7.85000000e-01	1.26973714e-02	1.64077381e-04
7.86000000e-01	1.27708674e-02	1.66616257e-04
7.87000000e-01	1.26190129e-02	1.66587937e-04
7.88000000e-01	1.26811936e-02	1.68539328e-04
7.89000000e-01	1.26690374e-02	1.70197592e-04
7.90000000e-01	1.26508232e-02	1.72072768e-04
7.91000000e-01	1.26648497e-02	1.73878881e-04
7.92000000e-01	1.26504222e-02	1.75433047e-04
7.93000000e-01	1.25490683e-02	1.76108491e-04
7.94000000e-01	1.25711589e-02	1.78025443e-04
7.95000000e-01	1.25984804e-02	1.80360411e-04
7.96000000e-01	1.25021292e-02	1.80102569e-04
7.97000000e-01	1.26688592e-02	1.85402612e-04
7.98000000e-01	1.24955184e-02	1.85143457e-04
7.99000000e-01	1.25701585e-02	1.87573738e-04
8.00000000e-01	1.24609269e-02	1.87741724e-04
8.01000000e-01	1.26474691e-02	1.92828311e-04
8.02000000e-01	1.24347971e-02	1.91701186e-04
8.03000000e-01	1.25160326e-02	1.93381481e-04
8.04000000e-01	1.25809582e-02	1.96741238e-04
8.05000000e-01	1.23827931e-02	1.97765414e-04
8.06000000e-01	1.24616007e-02	2.00447650e-04
8.07000000e-01	1.24919803e-02	2.02306856e-04
8.08000000e-01	1.23282096e-02	2.02998444e-04
8.09000000e-01	1.23502795e-02	2.04461922e-04
8.10000000e-01	1.25336897e-02	2.10397738e-04
8.11000000e-01	1.23528606e-02	2.10476130e-04
8.12000000e-01	1.25515453e-02	2.14926864e-04
8.13000000e-01	1.22549457e-02	2.12295150e-04
8.14000000e-01	1.23524298e-02	2.17767900e-04
8.15000000e-01	1.21956979e-02	2.17339547e-04
8.16000000e-01	1.23831107e-02	2.23151684e-04
8.17000000e-01	1.23755580e-02	2.24929108e-04
8.18000000e-01	1.22348004e-02	2.25861423e-04
8.19000000e-01	1.22476089e-02	2.27843340e-04
8.20000000e-01	1.23064501e-02	2.32667576e-04
8.21000000e-01	1.20771948e-02	2.31539166e-04
8.22000000e-01	1.21514597e-02	2.36812104e-04
8.23000000e-01	1.23483154e-02	2.41714582e-04
8.24000000e-01	1.23042484e-02	2.44700595e-04
8.25000000e-01	1.23177684e-02	2.48987573e-04
8.26000000e-01	1.22767593e-02	2.52066203e-04
8.27000000e-01	1.20350602e-02	2.50527395e-04
8.28000000e-01	1.20895492e-02	2.55347170e-04
8.29000000e-01	1.20681793e-02	2.60136446e-04
8.30000000e-01	1.21842219e-02	2.64844528e-04
8.31000000e-01	1.19578055e-02	2.67396240e-04
8.32000000e-01	1.23433433e-02	2.76924855e-04
8.33000000e-01	1.19940394e-02	2.75635560e-04
8.34000000e-01	1.19060555e-02	2.77860248e-04
8.35000000e-01	1.20518899e-02	2.86247383e-04
8.36000000e-01	1.22010906e-02	2.93702644e-04
8.37000000e-01	1.21149216e-02	2.98449439e-04
8.38000000e-01	1.23368152e-02	3.08570434e-04
8.39000000e-01	1.19098928e-02	3.05952169e-04
8.40000000e-01	1.20273566e-02	3.14341250e-04
8.41000000e-01	1.21608657e-02	3.26359395e-04
8.42000000e-01	1.19202548e-02	3.27574734e-04
8.43000000e-01	1.18944732e-02	3.35470165e-04
8.44000000e-01	1.17691460e-02	3.38513130e-04
8.45000000e-01	1.22517136e-02	3.59625747e-04
8.46000000e-01	1.17425740e-02	3.58615434e-04
8.47000000e-01	1.19144478e-02	3.67729823e-04
8.48000000e-01	1.20544792e-02	3.88220629e-04
8.49000000e-01	1.18418052e-02	3.93666973e-04
8.50000000e-01	1.17084174e-02	4.01791197e-04
8.51000000e-01	1.18883265e-02	4.30638757e-04
8.52000000e-01	1.17030706e-02	4.36542697e-04
8.53000000e-01	1.21216298e-02	4.65899165e-04
8.54000000e-01	1.14347250e-02	4.67156749e-04
8.55000000e-01	1.20946135e-02	5.05576218e-04
8.56000000e-01	1.14622522e-02	4.90438373e-04
8.57000000e-01	1.17328491e-02	5.23555436e-04
8.58000000e-01	1.18347993e-02	5.38922665e-04
8.59000000e-01	1.21219015e-02	5.65541854e-04
8.60000000e-01	1.21427569e-02	5.91289283e-04
8.61000000e-01	1.15357562e-02	5.76996674e-04
8.62000000e-01	1.15088476e-02	5.92705903e-04
8.63000000e-01	1.16577834e-02	6.32650707e-04
8.64000000e-01	1.17238810e-02	6.56623256e-04
8.65000000e-01	1.12878241e-02	6.79299594e-04
8.66000000e-01	1.15055868e-02	7.14352345e-04
8.67000000e-01	1.20008228e-02	7.90033348e-04
8.68000000e-01	1.11039612e-02	7.87919947e-04
8.69000000e-01	1.16346462e-02	8.67741774e-04
8.70000000e-01	1.15912810e-02	9.58404259e-04
8.71000000e-01	1.18683027e-02	1.07702393e-03
8.72000000e-01	1.05924385e-02	1.06753203e-03
8.73000000e-01	1.23314028e-02	1.51034318e-03
8.74000000e-01	1.04175908e-02	1.63596652e-03
8.75000000e-01	1.33332138e-02	4.27947738e-03
