% Filename : SSW20_00038_00004.h5
% Date & Time : 30-Oct-2025 17:43:24
% X-ray Energy (keV) : 13.30001
% Exposure Time (s) : 0.500
% Beam Center : 1461.24000, 208.98300
% Sample to Detector Distance (SDD) (mm) : 1990.750
% Detector Pixel Size (mm) : 0.075
% Photodiode Value : 140928.000
% I0 of Sample : 0
% I0 of Standard : 1
% 
% q(A^-1)   I(q)    I(q)_SE
0.00000000e+00	1.02558608e-02	5.43899376e-03
2.50000000e-04	0.00000000e+00	0.00000000e+00
5.00000000e-04	0.00000000e+00	0.00000000e+00
7.50000000e-04	0.00000000e+00	0.00000000e+00
1.00000000e-03	0.00000000e+00	0.00000000e+00
1.25000000e-03	0.00000000e+00	0.00000000e+00
1.50000000e-03	0.00000000e+00	0.00000000e+00
1.75000000e-03	0.00000000e+00	0.00000000e+00
2.00000000e-03	0.00000000e+00	0.00000000e+00
2.25000000e-03	0.00000000e+00	0.00000000e+00
2.50000000e-03	0.00000000e+00	0.00000000e+00
2.75000000e-03	0.00000000e+00	0.00000000e+00
3.00000000e-03	0.00000000e+00	0.00000000e+00
3.25000000e-03	1.31103198e+03	9.98616503e+02
3.50000000e-03	1.09852595e+03	4.91001924e+02
3.75000000e-03	5.86993659e+02	2.17033221e+02
4.00000000e-03	4.55075497e+02	1.51653890e+02
4.25000000e-03	2.87179556e+02	9.09677606e+01
4.50000000e-03	3.11598978e+02	7.27712902e+01
4.75000000e-03	2.79600614e+02	5.54015459e+01
5.00000000e-03	2.26549234e+02	4.49062664e+01
5.25000000e-03	1.78974252e+02	3.52012475e+01
5.50000000e-03	1.52354875e+02	2.89564352e+01
5.75000000e-03	1.34561188e+02	2.50193838e+01
6.00000000e-03	1.05657344e+02	1.98536745e+01
6.25000000e-03	9.07885897e+01	1.62767610e+01
6.50000000e-03	7.55048497e+01	1.33428441e+01
6.75000000e-03	6.31488704e+01	1.05812493e+01
7.00000000e-03	5.94433539e+01	9.90294483e+00
7.25000000e-03	5.08367609e+01	8.43676649e+00
7.50000000e-03	4.24675293e+01	7.20424947e+00
7.75000000e-03	3.68736394e+01	6.12671492e+00
8.00000000e-03	3.58804755e+01	5.66022771e+00
8.25000000e-03	2.90763711e+01	4.52807594e+00
8.50000000e-03	2.64155460e+01	4.02741808e+00
8.75000000e-03	2.39465418e+01	3.62586930e+00
9.00000000e-03	2.06634480e+01	3.09528664e+00
9.25000000e-03	1.78898473e+01	2.56430853e+00
9.50000000e-03	1.63358181e+01	2.27099164e+00
9.75000000e-03	1.44588277e+01	1.99740219e+00
1.00000000e-02	1.35069257e+01	2.01106849e+00
1.02500000e-02	1.24511158e+01	1.78051757e+00
1.05000000e-02	1.16285740e+01	1.55802786e+00
1.07500000e-02	1.03149504e+01	1.39962590e+00
1.10000000e-02	9.40767916e+00	1.25900236e+00
1.12500000e-02	8.95248755e+00	1.21532016e+00
1.15000000e-02	8.04377776e+00	1.05751535e+00
1.17500000e-02	7.17290228e+00	9.16580489e-01
1.20000000e-02	6.61679243e+00	8.36443464e-01
1.22500000e-02	6.10957405e+00	7.61871071e-01
1.25000000e-02	5.65277055e+00	6.97384877e-01
1.27500000e-02	5.06185284e+00	6.08032482e-01
1.30000000e-02	4.97062829e+00	5.91626638e-01
1.32500000e-02	4.30498061e+00	5.00408316e-01
1.35000000e-02	4.07791455e+00	4.76419817e-01
1.37500000e-02	3.88361981e+00	4.49596072e-01
1.40000000e-02	3.55762373e+00	4.09538813e-01
1.42500000e-02	3.26225702e+00	3.67425564e-01
1.45000000e-02	3.18264789e+00	3.62550511e-01
1.47500000e-02	3.01181170e+00	3.37245434e-01
1.50000000e-02	2.71538408e+00	2.96093414e-01
1.52500000e-02	2.58285599e+00	2.86051929e-01
1.55000000e-02	2.36128167e+00	2.53899889e-01
1.57500000e-02	2.17842291e+00	2.30878600e-01
1.60000000e-02	2.12163586e+00	2.22422136e-01
1.62500000e-02	2.10149417e+00	2.25426738e-01
1.65000000e-02	1.86644551e+00	1.94658534e-01
1.67500000e-02	1.76964673e+00	1.75726804e-01
1.70000000e-02	1.70142829e+00	1.72311137e-01
1.72500000e-02	1.63035577e+00	1.63476675e-01
1.75000000e-02	1.49450940e+00	1.50942377e-01
1.77500000e-02	1.40278705e+00	1.37263901e-01
1.80000000e-02	1.36181847e+00	1.30809059e-01
1.82500000e-02	1.25895066e+00	1.17956809e-01
1.85000000e-02	1.22391747e+00	1.18580371e-01
1.87500000e-02	1.14311031e+00	1.07844281e-01
1.90000000e-02	1.07485056e+00	1.01468076e-01
1.92500000e-02	1.02112444e+00	9.34987142e-02
1.95000000e-02	9.80354486e-01	9.00319066e-02
1.97500000e-02	9.41799369e-01	8.62803269e-02
2.00000000e-02	8.93777500e-01	8.35559073e-02
2.02500000e-02	8.62970019e-01	7.91823697e-02
2.05000000e-02	7.92791519e-01	6.87448944e-02
2.07500000e-02	7.68479674e-01	6.66741802e-02
2.10000000e-02	7.34811577e-01	6.38362209e-02
2.12500000e-02	7.29937007e-01	6.24832975e-02
2.15000000e-02	6.92128113e-01	5.89630124e-02
2.17500000e-02	6.93866491e-01	5.76860962e-02
2.20000000e-02	6.72697697e-01	5.67301137e-02
2.22500000e-02	6.28314131e-01	5.35066471e-02
2.25000000e-02	6.20513691e-01	5.17204468e-02
2.27500000e-02	5.87958418e-01	4.87507156e-02
2.30000000e-02	5.90524378e-01	4.77319206e-02
2.32500000e-02	5.55464673e-01	4.46279792e-02
2.35000000e-02	5.44547298e-01	4.36994358e-02
2.37500000e-02	5.30191055e-01	4.29715438e-02
2.40000000e-02	5.03767719e-01	4.10813683e-02
2.42500000e-02	4.96849914e-01	3.89262706e-02
2.45000000e-02	4.69010915e-01	3.73201913e-02
2.47500000e-02	4.62210043e-01	3.63721623e-02
2.50000000e-02	4.42927106e-01	3.44972644e-02
2.52500000e-02	4.34900725e-01	3.43999270e-02
2.55000000e-02	4.26335522e-01	3.24438536e-02
2.57500000e-02	4.01334963e-01	3.06258823e-02
2.60000000e-02	3.87061575e-01	2.90382937e-02
2.62500000e-02	3.86825939e-01	2.91917193e-02
2.65000000e-02	3.67758411e-01	2.77655191e-02
2.67500000e-02	3.52442973e-01	2.53811161e-02
2.70000000e-02	3.46464364e-01	2.55084759e-02
2.72500000e-02	3.31512488e-01	2.40127780e-02
2.75000000e-02	3.19022783e-01	2.32872564e-02
2.77500000e-02	3.11703988e-01	2.28778497e-02
2.80000000e-02	3.01499083e-01	2.14531663e-02
2.82500000e-02	2.94007676e-01	2.06919949e-02
2.85000000e-02	2.88313219e-01	2.01866450e-02
2.87500000e-02	2.78472419e-01	1.92192047e-02
2.90000000e-02	2.69015101e-01	1.88850602e-02
2.92500000e-02	2.65738039e-01	1.77196086e-02
2.95000000e-02	2.53422007e-01	1.72577270e-02
2.97500000e-02	2.46288077e-01	1.65671715e-02
3.00000000e-02	2.46013113e-01	1.68993988e-02
3.02500000e-02	2.39412247e-01	1.60972281e-02
3.05000000e-02	2.27329361e-01	1.47359124e-02
3.07500000e-02	2.23845338e-01	1.46762523e-02
3.10000000e-02	2.17740116e-01	1.42510016e-02
3.12500000e-02	2.11512077e-01	1.38535106e-02
3.15000000e-02	2.01738164e-01	1.32312153e-02
3.17500000e-02	2.00578180e-01	1.26506473e-02
3.20000000e-02	1.98724144e-01	1.28097417e-02
3.22500000e-02	1.89207164e-01	1.22158673e-02
3.25000000e-02	1.86573608e-01	1.19120810e-02
3.27500000e-02	1.80301001e-01	1.13875537e-02
3.30000000e-02	1.76972919e-01	1.08836631e-02
3.32500000e-02	1.68812374e-01	1.05668087e-02
3.35000000e-02	1.71632922e-01	1.07962353e-02
3.37500000e-02	1.66330151e-01	1.02718918e-02
3.40000000e-02	1.56881275e-01	9.61132386e-03
3.42500000e-02	1.60291525e-01	9.77381318e-03
3.45000000e-02	1.50911948e-01	9.24161468e-03
3.47500000e-02	1.51208624e-01	9.13935955e-03
3.50000000e-02	1.46049876e-01	8.70808742e-03
3.52500000e-02	1.44628799e-01	8.69108364e-03
3.55000000e-02	1.38560388e-01	8.17964197e-03
3.57500000e-02	1.38837246e-01	8.22100230e-03
3.60000000e-02	1.32438141e-01	7.85635158e-03
3.62500000e-02	1.30115019e-01	7.64035590e-03
3.65000000e-02	1.26783139e-01	7.50915858e-03
3.67500000e-02	1.26795434e-01	7.28955223e-03
3.70000000e-02	1.21413623e-01	6.95511577e-03
3.72500000e-02	1.18768526e-01	6.75102819e-03
3.75000000e-02	1.17342675e-01	6.75658317e-03
3.77500000e-02	1.17171240e-01	6.67001797e-03
3.80000000e-02	1.12992325e-01	6.36461741e-03
3.82500000e-02	1.09927851e-01	6.07030782e-03
3.85000000e-02	1.07128435e-01	6.02233544e-03
3.87500000e-02	1.06092118e-01	5.87825513e-03
3.90000000e-02	1.03743744e-01	5.70535217e-03
3.92500000e-02	1.03224411e-01	5.50836858e-03
3.95000000e-02	1.01355702e-01	5.50500894e-03
3.97500000e-02	9.81300974e-02	5.33859522e-03
4.00000000e-02	9.36729136e-02	5.02297130e-03
4.02500000e-02	9.54268259e-02	5.08131946e-03
4.05000000e-02	9.29502858e-02	4.90418733e-03
4.07500000e-02	9.26024094e-02	4.80647870e-03
4.10000000e-02	9.08304255e-02	4.80250581e-03
4.12500000e-02	8.62778429e-02	4.51298098e-03
4.15000000e-02	8.57336568e-02	4.41712913e-03
4.17500000e-02	8.53541930e-02	4.40087460e-03
4.20000000e-02	8.36108807e-02	4.30740461e-03
4.22500000e-02	8.11833171e-02	4.15618127e-03
4.25000000e-02	8.01575816e-02	4.04326709e-03
4.27500000e-02	7.97085405e-02	4.00853778e-03
4.30000000e-02	7.90941236e-02	3.93325965e-03
4.32500000e-02	7.46538476e-02	3.71112211e-03
4.35000000e-02	7.44345172e-02	3.73601647e-03
4.37500000e-02	7.20066167e-02	3.57379078e-03
4.40000000e-02	7.37251869e-02	3.66304573e-03
4.42500000e-02	7.21176034e-02	3.54017838e-03
4.45000000e-02	6.89898899e-02	3.37555598e-03
4.47500000e-02	6.83690549e-02	3.33413283e-03
4.50000000e-02	6.82578120e-02	3.37378175e-03
4.52500000e-02	6.74396257e-02	3.24278162e-03
4.55000000e-02	6.72235226e-02	3.22072651e-03
4.57500000e-02	6.52176484e-02	3.14803001e-03
4.60000000e-02	6.42719141e-02	3.05835504e-03
4.62500000e-02	6.30282591e-02	3.01492044e-03
4.65000000e-02	6.20334134e-02	2.89903771e-03
4.67500000e-02	6.31738656e-02	2.95848691e-03
4.70000000e-02	6.15229612e-02	2.83449907e-03
4.72500000e-02	6.10115654e-02	2.83921480e-03
4.75000000e-02	5.96258237e-02	2.77520073e-03
4.77500000e-02	5.85568081e-02	2.67342867e-03
4.80000000e-02	6.05241188e-02	2.75110129e-03
4.82500000e-02	5.62220580e-02	2.56307875e-03
4.85000000e-02	5.66954143e-02	2.60661299e-03
4.87500000e-02	5.50304641e-02	2.47698218e-03
4.90000000e-02	5.46965830e-02	2.42999322e-03
4.92500000e-02	5.39319600e-02	2.44488208e-03
4.95000000e-02	5.34005308e-02	2.37365362e-03
4.97500000e-02	5.31018068e-02	2.40601609e-03
5.00000000e-02	5.15967786e-02	2.27896995e-03
5.02500000e-02	5.19029613e-02	2.28061253e-03
5.05000000e-02	5.14591928e-02	2.24502534e-03
5.07500000e-02	5.16557533e-02	2.24984789e-03
5.10000000e-02	4.97670459e-02	2.16623017e-03
5.12500000e-02	5.00428899e-02	2.18925531e-03
5.15000000e-02	4.99227041e-02	2.16487463e-03
5.17500000e-02	4.84311176e-02	2.09253912e-03
5.20000000e-02	4.73381075e-02	2.03832101e-03
5.22500000e-02	4.73678803e-02	2.02050997e-03
5.25000000e-02	4.68180594e-02	2.00059739e-03
5.27500000e-02	4.57266610e-02	1.91077784e-03
5.30000000e-02	4.61073143e-02	1.96220088e-03
5.32500000e-02	4.56349371e-02	1.92704790e-03
5.35000000e-02	4.59637241e-02	1.93209200e-03
5.37500000e-02	4.51447878e-02	1.87342540e-03
5.40000000e-02	4.46810416e-02	1.83588136e-03
5.42500000e-02	4.31122574e-02	1.78302541e-03
5.45000000e-02	4.37410180e-02	1.80714780e-03
5.47500000e-02	4.35743779e-02	1.77979598e-03
5.50000000e-02	4.27764980e-02	1.76168060e-03
5.52500000e-02	4.21015267e-02	1.71977860e-03
5.55000000e-02	4.16121170e-02	1.68833456e-03
5.57500000e-02	4.07801418e-02	1.67090866e-03
5.60000000e-02	4.01994165e-02	1.63145486e-03
5.62500000e-02	4.02611973e-02	1.65027032e-03
5.65000000e-02	3.98993782e-02	1.60008807e-03
5.67500000e-02	3.97567504e-02	1.60782060e-03
5.70000000e-02	3.95921314e-02	1.57557809e-03
5.72500000e-02	3.92115225e-02	1.55363452e-03
5.75000000e-02	3.90927605e-02	1.56174358e-03
5.77500000e-02	3.89798706e-02	1.52757825e-03
5.80000000e-02	3.87087659e-02	1.51362206e-03
5.82500000e-02	3.79855951e-02	1.49474052e-03
5.85000000e-02	3.77950021e-02	1.48449827e-03
5.87500000e-02	3.71309312e-02	1.44002040e-03
5.90000000e-02	3.70074135e-02	1.43894535e-03
5.92500000e-02	3.56364836e-02	1.39008750e-03
5.95000000e-02	3.58617994e-02	1.38044243e-03
5.97500000e-02	3.62140974e-02	1.40906427e-03
6.00000000e-02	3.65561512e-02	1.40377509e-03
6.02500000e-02	3.61869312e-02	1.37357833e-03
6.05000000e-02	3.53215487e-02	1.34933430e-03
6.07500000e-02	3.56901395e-02	1.35227397e-03
6.10000000e-02	3.49445089e-02	1.32315776e-03
6.12500000e-02	3.50107813e-02	1.33557515e-03
6.15000000e-02	3.43645628e-02	1.29363067e-03
6.17500000e-02	3.45145873e-02	1.29903295e-03
6.20000000e-02	3.39366526e-02	1.27880537e-03
6.22500000e-02	3.38749372e-02	1.26637197e-03
6.25000000e-02	3.27548539e-02	1.22665088e-03
6.27500000e-02	3.28685968e-02	1.22191379e-03
6.30000000e-02	3.23258711e-02	1.20071728e-03
6.32500000e-02	3.37514173e-02	1.24381212e-03
6.35000000e-02	3.23637447e-02	1.18280172e-03
6.37500000e-02	3.30280124e-02	1.22975424e-03
6.40000000e-02	3.31331590e-02	1.21399674e-03
6.42500000e-02	3.17086705e-02	1.16807856e-03
6.45000000e-02	3.13786445e-02	1.15348921e-03
6.47500000e-02	3.17566039e-02	1.16304156e-03
6.50000000e-02	3.16389629e-02	1.14559533e-03
6.52500000e-02	3.24873702e-02	1.17614835e-03
6.55000000e-02	3.12412847e-02	1.12192923e-03
6.57500000e-02	3.11143925e-02	1.12675211e-03
6.60000000e-02	3.07994016e-02	1.11771692e-03
6.62500000e-02	3.04828264e-02	1.09714011e-03
6.65000000e-02	3.08822542e-02	1.10769860e-03
6.67500000e-02	3.09262735e-02	1.10170669e-03
6.70000000e-02	3.05349924e-02	1.09045186e-03
6.72500000e-02	3.12059213e-02	1.10755377e-03
6.75000000e-02	3.00257712e-02	1.07055291e-03
6.77500000e-02	3.00056684e-02	1.06201740e-03
6.80000000e-02	2.98740375e-02	1.06299741e-03
6.82500000e-02	3.04479674e-02	1.07332249e-03
6.85000000e-02	3.04566926e-02	1.08820815e-03
6.87500000e-02	2.97617381e-02	1.04187623e-03
6.90000000e-02	2.89364366e-02	1.00957672e-03
6.92500000e-02	2.98228099e-02	1.04468725e-03
6.95000000e-02	2.91775130e-02	1.02706582e-03
6.97500000e-02	2.92724586e-02	1.02006204e-03
7.00000000e-02	2.95602011e-02	1.03202153e-03
7.02500000e-02	2.91773805e-02	1.00918199e-03
7.05000000e-02	2.89922658e-02	9.98852462e-04
7.07500000e-02	2.93064587e-02	1.01819254e-03
7.10000000e-02	2.90629608e-02	9.94617517e-04
7.12500000e-02	2.93428333e-02	1.00462458e-03
7.15000000e-02	2.89800375e-02	9.94173340e-04
7.17500000e-02	2.86296395e-02	9.84214783e-04
7.20000000e-02	2.81219368e-02	9.72183693e-04
7.22500000e-02	2.80519602e-02	9.56589150e-04
7.25000000e-02	2.78107408e-02	9.56011268e-04
7.27500000e-02	2.76994305e-02	9.47817690e-04
7.30000000e-02	2.80269834e-02	9.53075536e-04
7.32500000e-02	2.81345407e-02	9.44325390e-04
7.35000000e-02	2.79606387e-02	9.50241908e-04
7.37500000e-02	2.74686576e-02	9.25185313e-04
7.40000000e-02	2.73606831e-02	9.31248803e-04
7.42500000e-02	2.70295810e-02	9.17224654e-04
7.45000000e-02	2.72474959e-02	9.28573118e-04
7.47500000e-02	2.71774127e-02	9.15172225e-04
7.50000000e-02	2.71708075e-02	9.13647867e-04
7.52500000e-02	2.69858169e-02	9.05793461e-04
7.55000000e-02	2.73205695e-02	9.10216251e-04
7.57500000e-02	2.71155889e-02	9.11928462e-04
7.60000000e-02	2.68152242e-02	8.97100383e-04
7.62500000e-02	2.72172886e-02	9.13246519e-04
7.65000000e-02	2.75383101e-02	9.23807718e-04
7.67500000e-02	2.67517307e-02	8.88842075e-04
7.70000000e-02	2.75513670e-02	9.11017473e-04
7.72500000e-02	2.73517454e-02	9.23505504e-04
7.75000000e-02	2.69789258e-02	9.18670579e-04
7.77500000e-02	2.68859345e-02	9.23401866e-04
7.80000000e-02	2.74509309e-02	9.40409933e-04
7.82500000e-02	2.69792705e-02	9.35171896e-04
7.85000000e-02	2.72742814e-02	9.54163927e-04
7.87500000e-02	2.70188736e-02	9.39586301e-04
7.90000000e-02	2.64974891e-02	9.33400039e-04
7.92500000e-02	2.66131757e-02	9.29708103e-04
7.95000000e-02	2.75631498e-02	9.59594278e-04
7.97500000e-02	2.62469608e-02	9.23739578e-04
8.00000000e-02	2.66671382e-02	9.34982429e-04
8.02500000e-02	2.71775092e-02	9.63900895e-04
8.05000000e-02	2.71612610e-02	9.59644579e-04
8.07500000e-02	2.68910716e-02	9.55436554e-04
8.10000000e-02	2.69282259e-02	9.61452304e-04
8.12500000e-02	2.71722072e-02	9.67517291e-04
8.15000000e-02	2.67089469e-02	9.41581677e-04
8.17500000e-02	2.69727903e-02	9.57939138e-04
8.20000000e-02	2.59749115e-02	9.25409953e-04
8.22500000e-02	2.59366099e-02	9.28127128e-04
8.25000000e-02	2.60514614e-02	9.37679682e-04
8.27500000e-02	2.57485114e-02	9.18897119e-04
8.30000000e-02	2.62203723e-02	9.47265853e-04
8.32500000e-02	2.57668149e-02	9.30671872e-04
8.35000000e-02	2.54178531e-02	9.33400845e-04
8.37500000e-02	2.59252268e-02	9.31311396e-04
8.40000000e-02	2.55031699e-02	9.19321291e-04
8.42500000e-02	2.51602401e-02	9.23865792e-04
8.45000000e-02	2.65803275e-02	9.60412699e-04
8.47500000e-02	2.60214136e-02	9.40568880e-04
8.50000000e-02	2.56460325e-02	9.33688769e-04
8.52500000e-02	2.56698620e-02	9.43722629e-04
8.55000000e-02	2.56883936e-02	9.31671279e-04
8.57500000e-02	2.57077506e-02	9.35159481e-04
8.60000000e-02	2.58086920e-02	9.46765332e-04
8.62500000e-02	2.57414935e-02	9.30391532e-04
8.65000000e-02	2.53698969e-02	9.25450524e-04
8.67500000e-02	2.55664150e-02	9.22659203e-04
8.70000000e-02	2.47802832e-02	8.88146609e-04
8.72500000e-02	2.53047119e-02	8.87280543e-04
8.75000000e-02	2.51584047e-02	8.71778708e-04
8.77500000e-02	2.50970897e-02	8.69071045e-04
8.80000000e-02	2.54595544e-02	8.87800734e-04
8.82500000e-02	2.48709442e-02	8.55192818e-04
8.85000000e-02	2.52236212e-02	8.67558948e-04
8.87500000e-02	2.50504332e-02	8.47199280e-04
8.90000000e-02	2.46093901e-02	8.37127754e-04
8.92500000e-02	2.49843347e-02	8.46156774e-04
8.95000000e-02	2.52024464e-02	8.47952228e-04
8.97500000e-02	2.53293333e-02	8.42694754e-04
9.00000000e-02	2.49160332e-02	8.25392915e-04
9.02500000e-02	2.53685945e-02	8.48622918e-04
9.05000000e-02	2.43386030e-02	8.10767706e-04
9.07500000e-02	2.48527092e-02	8.23915306e-04
9.10000000e-02	2.47596535e-02	8.17442586e-04
9.12500000e-02	2.46033910e-02	8.09557439e-04
9.15000000e-02	2.43201135e-02	8.02117614e-04
9.17500000e-02	2.40595721e-02	7.93851835e-04
9.20000000e-02	2.45892417e-02	8.07725069e-04
9.22500000e-02	2.43488141e-02	7.95645809e-04
9.25000000e-02	2.40019080e-02	7.86108747e-04
9.27500000e-02	2.48013607e-02	8.10031932e-04
9.30000000e-02	2.44516618e-02	7.97369195e-04
9.32500000e-02	2.41814647e-02	7.91339120e-04
9.35000000e-02	2.42079978e-02	7.82267064e-04
9.37500000e-02	2.39496250e-02	7.68566131e-04
9.40000000e-02	2.44575602e-02	7.97776590e-04
9.42500000e-02	2.42347317e-02	7.83124530e-04
9.45000000e-02	2.37720400e-02	7.66228667e-04
9.47500000e-02	2.42867115e-02	7.80743184e-04
9.50000000e-02	2.38693830e-02	7.64601699e-04
9.52500000e-02	2.38967027e-02	7.67861799e-04
9.55000000e-02	2.35976623e-02	7.55633710e-04
9.57500000e-02	2.41069488e-02	7.68343661e-04
9.60000000e-02	2.36674551e-02	7.54432498e-04
9.62500000e-02	2.34499627e-02	7.45661969e-04
9.65000000e-02	2.33014826e-02	7.44449947e-04
9.67500000e-02	2.37872680e-02	7.50290620e-04
9.70000000e-02	2.35054904e-02	7.45406705e-04
9.72500000e-02	2.37307069e-02	7.47368643e-04
9.75000000e-02	2.34845539e-02	7.39482220e-04
9.77500000e-02	2.36433245e-02	7.39806292e-04
9.80000000e-02	2.38227187e-02	7.54298830e-04
9.82500000e-02	2.32588809e-02	7.31759076e-04
9.85000000e-02	2.33323948e-02	7.32060425e-04
9.87500000e-02	2.39973603e-02	7.51000722e-04
9.90000000e-02	2.34691793e-02	7.35376515e-04
9.92500000e-02	2.34549477e-02	7.42229624e-04
9.95000000e-02	2.39615574e-02	7.44303682e-04
9.97500000e-02	2.32542229e-02	7.22274580e-04
1.00000000e-01	2.30896866e-02	5.84975325e-04
1.00500000e-01	2.38240485e-02	5.24668807e-04
1.01000000e-01	2.33649153e-02	5.10606423e-04
1.01500000e-01	2.32631224e-02	5.07650262e-04
1.02000000e-01	2.32788996e-02	5.03997031e-04
1.02500000e-01	2.34465491e-02	5.05447970e-04
1.03000000e-01	2.30793484e-02	5.00909212e-04
1.03500000e-01	2.29956070e-02	4.95327971e-04
1.04000000e-01	2.26806781e-02	4.89159677e-04
1.04500000e-01	2.27179081e-02	4.89095123e-04
1.05000000e-01	2.31283163e-02	4.94963722e-04
1.05500000e-01	2.29636521e-02	4.90978608e-04
1.06000000e-01	2.27346120e-02	4.84254451e-04
1.06500000e-01	2.31145124e-02	4.91536363e-04
1.07000000e-01	2.30452340e-02	4.95634261e-04
1.07500000e-01	2.29391086e-02	5.00729315e-04
1.08000000e-01	2.28067027e-02	5.03788261e-04
1.08500000e-01	2.23720809e-02	4.98747163e-04
1.09000000e-01	2.26442067e-02	5.09005122e-04
1.09500000e-01	2.24956302e-02	5.07122040e-04
1.10000000e-01	2.20318225e-02	4.91991809e-04
1.10500000e-01	2.25634937e-02	4.93844623e-04
1.11000000e-01	2.21403944e-02	4.76134721e-04
1.11500000e-01	2.25183982e-02	4.79149973e-04
1.12000000e-01	2.22394759e-02	4.70657775e-04
1.12500000e-01	2.25253539e-02	4.72746908e-04
1.13000000e-01	2.23245499e-02	4.68856289e-04
1.13500000e-01	2.21453348e-02	4.65405155e-04
1.14000000e-01	2.20742360e-02	4.58342839e-04
1.14500000e-01	2.22572722e-02	4.62659581e-04
1.15000000e-01	2.24236056e-02	4.63784478e-04
1.15500000e-01	2.21611586e-02	4.58043324e-04
1.16000000e-01	2.17505452e-02	4.48853499e-04
1.16500000e-01	2.23705700e-02	4.59802249e-04
1.17000000e-01	2.23788732e-02	4.58373599e-04
1.17500000e-01	2.20428403e-02	4.50061838e-04
1.18000000e-01	2.20637037e-02	4.51634242e-04
1.18500000e-01	2.22586868e-02	4.49904395e-04
1.19000000e-01	2.22377387e-02	4.51070218e-04
1.19500000e-01	2.19735760e-02	4.43081061e-04
1.20000000e-01	2.20076069e-02	4.43923540e-04
1.20500000e-01	2.21145568e-02	4.45515986e-04
1.21000000e-01	2.19782152e-02	4.43378803e-04
1.21500000e-01	2.19203267e-02	4.39152414e-04
1.22000000e-01	2.23797634e-02	4.46569925e-04
1.22500000e-01	2.23487357e-02	4.47091777e-04
1.23000000e-01	2.18631049e-02	4.35806676e-04
1.23500000e-01	2.21050890e-02	4.39828813e-04
1.24000000e-01	2.22200893e-02	4.44618147e-04
1.24500000e-01	2.24062101e-02	4.42863000e-04
1.25000000e-01	2.23887651e-02	4.44629645e-04
1.25500000e-01	2.20673422e-02	4.36725555e-04
1.26000000e-01	2.20474231e-02	4.34586075e-04
1.26500000e-01	2.21894947e-02	4.35192644e-04
1.27000000e-01	2.21272916e-02	4.32579255e-04
1.27500000e-01	2.22357566e-02	4.33926463e-04
1.28000000e-01	2.23023215e-02	4.36474480e-04
1.28500000e-01	2.27157161e-02	4.40846798e-04
1.29000000e-01	2.18799609e-02	4.26431689e-04
1.29500000e-01	2.22557668e-02	4.31073900e-04
1.30000000e-01	2.23580348e-02	4.33841674e-04
1.30500000e-01	2.23817653e-02	4.30740288e-04
1.31000000e-01	2.22287508e-02	4.28999357e-04
1.31500000e-01	2.23504130e-02	4.28152327e-04
1.32000000e-01	2.19058973e-02	4.21279279e-04
1.32500000e-01	2.20209048e-02	4.20945597e-04
1.33000000e-01	2.19290476e-02	4.17736480e-04
1.33500000e-01	2.22897198e-02	4.21688587e-04
1.34000000e-01	2.20028565e-02	4.18915161e-04
1.34500000e-01	2.24104175e-02	4.22848634e-04
1.35000000e-01	2.15800019e-02	4.09442072e-04
1.35500000e-01	2.21756457e-02	4.16529881e-04
1.36000000e-01	2.21643280e-02	4.14829504e-04
1.36500000e-01	2.20086652e-02	4.14163243e-04
1.37000000e-01	2.22228617e-02	4.15657983e-04
1.37500000e-01	2.19741853e-02	4.10222291e-04
1.38000000e-01	2.19380593e-02	4.09806258e-04
1.38500000e-01	2.19830391e-02	4.08891234e-04
1.39000000e-01	2.17575815e-02	4.08087423e-04
1.39500000e-01	2.18589418e-02	4.07559512e-04
1.40000000e-01	2.19949898e-02	4.09912831e-04
1.40500000e-01	2.13621601e-02	3.97426541e-04
1.41000000e-01	2.16501034e-02	4.02439874e-04
1.41500000e-01	2.16473287e-02	4.02331838e-04
1.42000000e-01	2.10508723e-02	3.90198870e-04
1.42500000e-01	2.13926509e-02	3.96671534e-04
1.43000000e-01	2.14269883e-02	3.98788484e-04
1.43500000e-01	2.11075954e-02	3.90669215e-04
1.44000000e-01	2.08696233e-02	3.85129872e-04
1.44500000e-01	2.12476156e-02	3.90679346e-04
1.45000000e-01	2.14215404e-02	3.92626168e-04
1.45500000e-01	2.10279738e-02	3.85233746e-04
1.46000000e-01	2.11310471e-02	3.86240110e-04
1.46500000e-01	2.07822986e-02	3.79272968e-04
1.47000000e-01	2.10063407e-02	3.83682558e-04
1.47500000e-01	2.08833085e-02	3.80634049e-04
1.48000000e-01	2.12706337e-02	3.84890128e-04
1.48500000e-01	2.10703485e-02	3.81830051e-04
1.49000000e-01	2.09134078e-02	3.76351518e-04
1.49500000e-01	2.07803423e-02	3.76392361e-04
1.50000000e-01	2.08851102e-02	3.77521655e-04
1.50500000e-01	2.08045566e-02	3.77539403e-04
1.51000000e-01	2.10612749e-02	3.77942031e-04
1.51500000e-01	2.08579479e-02	3.75117368e-04
1.52000000e-01	2.11579863e-02	3.78822304e-04
1.52500000e-01	2.10266652e-02	3.75821500e-04
1.53000000e-01	2.07949449e-02	3.73000494e-04
1.53500000e-01	2.11740928e-02	3.77052372e-04
1.54000000e-01	2.09668079e-02	3.74548323e-04
1.54500000e-01	2.10037279e-02	3.80101191e-04
1.55000000e-01	2.08492089e-02	3.82794198e-04
1.55500000e-01	2.07029247e-02	3.82722172e-04
1.56000000e-01	2.09174699e-02	3.88614843e-04
1.56500000e-01	2.06149950e-02	3.82935588e-04
1.57000000e-01	2.06466435e-02	3.84306531e-04
1.57500000e-01	2.06971248e-02	3.78282652e-04
1.58000000e-01	2.05695482e-02	3.72030004e-04
1.58500000e-01	2.06984187e-02	3.70970354e-04
1.59000000e-01	2.08501620e-02	3.70117042e-04
1.59500000e-01	2.06934389e-02	3.66938489e-04
1.60000000e-01	2.08878363e-02	3.70967712e-04
1.60500000e-01	2.02698247e-02	3.57928001e-04
1.61000000e-01	2.06962677e-02	3.65441378e-04
1.61500000e-01	2.02793664e-02	3.58021863e-04
1.62000000e-01	2.03360348e-02	3.60252078e-04
1.62500000e-01	2.03543385e-02	3.58959789e-04
1.63000000e-01	2.05531396e-02	3.58356430e-04
1.63500000e-01	2.07115558e-02	3.62261011e-04
1.64000000e-01	2.04492758e-02	3.57116778e-04
1.64500000e-01	2.05242494e-02	3.59430889e-04
1.65000000e-01	2.02534950e-02	3.52734467e-04
1.65500000e-01	2.02547058e-02	3.53610242e-04
1.66000000e-01	2.02988728e-02	3.51956639e-04
1.66500000e-01	2.04904488e-02	3.54464538e-04
1.67000000e-01	2.05496824e-02	3.55998850e-04
1.67500000e-01	2.05204226e-02	3.54951089e-04
1.68000000e-01	2.03756214e-02	3.52203053e-04
1.68500000e-01	2.03091869e-02	3.49359796e-04
1.69000000e-01	2.01484303e-02	3.46790149e-04
1.69500000e-01	2.01722482e-02	3.47278440e-04
1.70000000e-01	2.01275448e-02	3.46023598e-04
1.70500000e-01	2.02191323e-02	3.47129483e-04
1.71000000e-01	2.02631777e-02	3.46067326e-04
1.71500000e-01	2.01846617e-02	3.44979065e-04
1.72000000e-01	2.05269222e-02	3.49520356e-04
1.72500000e-01	2.04862880e-02	3.49908064e-04
1.73000000e-01	2.03623028e-02	3.45958333e-04
1.73500000e-01	2.01756512e-02	3.42141129e-04
1.74000000e-01	2.01126314e-02	3.40028863e-04
1.74500000e-01	2.02618893e-02	3.40939311e-04
1.75000000e-01	2.00686474e-02	3.37294379e-04
1.75500000e-01	2.04671615e-02	3.41716105e-04
1.76000000e-01	2.01182992e-02	3.36614201e-04
1.76500000e-01	1.99379071e-02	3.34416490e-04
1.77000000e-01	2.00797089e-02	3.36388413e-04
1.77500000e-01	1.98723490e-02	3.31754006e-04
1.78000000e-01	2.00205734e-02	3.34375435e-04
1.78500000e-01	2.01101412e-02	3.36096376e-04
1.79000000e-01	1.99216255e-02	3.33569682e-04
1.79500000e-01	2.00410115e-02	3.34466796e-04
1.80000000e-01	1.98356053e-02	3.30852777e-04
1.80500000e-01	1.99266224e-02	3.31762122e-04
1.81000000e-01	1.98947641e-02	3.30125129e-04
1.81500000e-01	1.99201102e-02	3.30874793e-04
1.82000000e-01	1.99762507e-02	3.32498546e-04
1.82500000e-01	1.97437347e-02	3.26476043e-04
1.83000000e-01	1.98340448e-02	3.29424080e-04
1.83500000e-01	1.98548246e-02	3.28011506e-04
1.84000000e-01	1.98096942e-02	3.27071612e-04
1.84500000e-01	1.98109941e-02	3.26733996e-04
1.85000000e-01	1.96791144e-02	3.25191002e-04
1.85500000e-01	1.98367677e-02	3.24739224e-04
1.86000000e-01	2.00138026e-02	3.27767662e-04
1.86500000e-01	1.97249598e-02	3.22874246e-04
1.87000000e-01	1.98983307e-02	3.25275751e-04
1.87500000e-01	1.98190636e-02	3.24201510e-04
1.88000000e-01	1.99855572e-02	3.26326067e-04
1.88500000e-01	1.98723294e-02	3.24079558e-04
1.89000000e-01	2.00749772e-02	3.25969791e-04
1.89500000e-01	1.96443362e-02	3.20889092e-04
1.90000000e-01	1.98653703e-02	3.22057119e-04
1.90500000e-01	2.00582365e-02	3.24111449e-04
1.91000000e-01	1.95816171e-02	3.17948632e-04
1.91500000e-01	1.98536721e-02	3.22072453e-04
1.92000000e-01	1.98575503e-02	3.19108260e-04
1.92500000e-01	1.96732784e-02	3.18028852e-04
1.93000000e-01	1.95537293e-02	3.16256948e-04
1.93500000e-01	1.96909981e-02	3.16736442e-04
1.94000000e-01	1.94211111e-02	3.13445549e-04
1.94500000e-01	1.98669119e-02	3.18378432e-04
1.95000000e-01	1.97536004e-02	3.16896330e-04
1.95500000e-01	1.97641005e-02	3.15249412e-04
1.96000000e-01	1.98094139e-02	3.16636471e-04
1.96500000e-01	1.91606758e-02	3.06369630e-04
1.97000000e-01	1.97128611e-02	3.14163127e-04
1.97500000e-01	1.95780643e-02	3.11482642e-04
1.98000000e-01	1.94969157e-02	3.10768132e-04
1.98500000e-01	1.95490453e-02	3.10263246e-04
1.99000000e-01	1.95305472e-02	3.10679171e-04
1.99500000e-01	1.94205109e-02	3.07732359e-04
2.00000000e-01	1.96198743e-02	3.11122111e-04
2.00500000e-01	1.96563845e-02	3.11129993e-04
2.01000000e-01	1.94933278e-02	3.09067770e-04
2.01500000e-01	1.94185290e-02	3.05941791e-04
2.02000000e-01	1.95883238e-02	3.09268386e-04
2.02500000e-01	1.95320662e-02	3.06060503e-04
2.03000000e-01	1.92521811e-02	3.03104301e-04
2.03500000e-01	1.95381423e-02	3.07784549e-04
2.04000000e-01	1.92432378e-02	3.02675377e-04
2.04500000e-01	1.93739346e-02	3.03752468e-04
2.05000000e-01	1.91791127e-02	3.00665353e-04
2.05500000e-01	1.92318068e-02	3.01435793e-04
2.06000000e-01	1.94021998e-02	3.04014540e-04
2.06500000e-01	1.95899950e-02	3.06404059e-04
2.07000000e-01	1.94014908e-02	3.02044430e-04
2.07500000e-01	1.93541568e-02	3.01739254e-04
2.08000000e-01	1.94419554e-02	3.02335826e-04
2.08500000e-01	1.93397722e-02	2.99534468e-04
2.09000000e-01	1.92200670e-02	3.00144725e-04
2.09500000e-01	1.92252419e-02	2.96750311e-04
2.10000000e-01	1.94009606e-02	3.00714181e-04
2.10500000e-01	1.93888005e-02	2.99733961e-04
2.11000000e-01	1.92805063e-02	2.98286140e-04
2.11500000e-01	1.92686319e-02	2.98539116e-04
2.12000000e-01	1.93006695e-02	2.97857725e-04
2.12500000e-01	1.93137433e-02	2.97211820e-04
2.13000000e-01	1.92001232e-02	2.95937526e-04
2.13500000e-01	1.92150983e-02	2.94789778e-04
2.14000000e-01	1.93965255e-02	2.97288667e-04
2.14500000e-01	1.92089859e-02	2.94742870e-04
2.15000000e-01	1.90790363e-02	2.93484138e-04
2.15500000e-01	1.92284174e-02	2.93030489e-04
2.16000000e-01	1.91277319e-02	2.92344538e-04
2.16500000e-01	1.92571349e-02	2.93004683e-04
2.17000000e-01	1.91346024e-02	2.97266849e-04
2.17500000e-01	1.90555202e-02	3.01263007e-04
2.18000000e-01	1.90902120e-02	2.99454932e-04
2.18500000e-01	1.90387155e-02	3.02227130e-04
2.19000000e-01	1.90583277e-02	3.04949381e-04
2.19500000e-01	1.91620737e-02	3.05684188e-04
2.20000000e-01	1.90716558e-02	3.06677800e-04
2.20500000e-01	1.91667304e-02	3.08314510e-04
2.21000000e-01	1.89301197e-02	3.04903952e-04
2.21500000e-01	1.91773459e-02	3.11257733e-04
2.22000000e-01	1.91185775e-02	3.09043528e-04
2.22500000e-01	1.89492673e-02	3.08868760e-04
2.23000000e-01	1.90420788e-02	3.11052317e-04
2.23500000e-01	1.90985288e-02	3.11555283e-04
2.24000000e-01	1.93933124e-02	3.15446400e-04
2.24500000e-01	1.87895190e-02	3.08796810e-04
2.25000000e-01	1.90744105e-02	3.13890960e-04
2.25500000e-01	1.88172449e-02	3.09070171e-04
2.26000000e-01	1.88375438e-02	3.10258540e-04
2.26500000e-01	1.87882696e-02	3.04411727e-04
2.27000000e-01	1.89958904e-02	3.04718558e-04
2.27500000e-01	1.92575130e-02	3.06846757e-04
2.28000000e-01	1.90315860e-02	3.02682410e-04
2.28500000e-01	1.90700297e-02	3.02341772e-04
2.29000000e-01	1.91308239e-02	3.00839791e-04
2.29500000e-01	1.87121031e-02	2.94014165e-04
2.30000000e-01	1.92910095e-02	3.01065854e-04
2.30500000e-01	1.88846493e-02	2.93470309e-04
2.31000000e-01	1.92690637e-02	2.99312160e-04
2.31500000e-01	1.89175636e-02	2.93449427e-04
2.32000000e-01	1.89094808e-02	2.93768108e-04
2.32500000e-01	1.87128241e-02	2.90242128e-04
2.33000000e-01	1.85934821e-02	2.86305686e-04
2.33500000e-01	1.88923727e-02	2.89949450e-04
2.34000000e-01	1.90841027e-02	2.92080346e-04
2.34500000e-01	1.88634836e-02	2.89031503e-04
2.35000000e-01	1.87502585e-02	2.87798870e-04
2.35500000e-01	1.87315038e-02	2.85762379e-04
2.36000000e-01	1.87993391e-02	2.87377147e-04
2.36500000e-01	1.86618109e-02	2.83524682e-04
2.37000000e-01	1.86953163e-02	2.85202464e-04
2.37500000e-01	1.86210804e-02	2.83068522e-04
2.38000000e-01	1.87826735e-02	2.84059596e-04
2.38500000e-01	1.85708013e-02	2.82100639e-04
2.39000000e-01	1.85335188e-02	2.79684875e-04
2.39500000e-01	1.87146620e-02	2.83038093e-04
2.40000000e-01	1.87064732e-02	2.80989233e-04
2.40500000e-01	1.86454195e-02	2.80414014e-04
2.41000000e-01	1.84071589e-02	2.76597983e-04
2.41500000e-01	1.88247948e-02	2.80227978e-04
2.42000000e-01	1.87845287e-02	2.80901073e-04
2.42500000e-01	1.85997240e-02	2.76776903e-04
2.43000000e-01	1.83822124e-02	2.74125150e-04
2.43500000e-01	1.87908741e-02	2.79337205e-04
2.44000000e-01	1.85382688e-02	2.74281416e-04
2.44500000e-01	1.86563906e-02	2.76665794e-04
2.45000000e-01	1.85678891e-02	2.74691608e-04
2.45500000e-01	1.85954003e-02	2.75455760e-04
2.46000000e-01	1.87030276e-02	2.76355209e-04
2.46500000e-01	1.84155299e-02	2.71502448e-04
2.47000000e-01	1.85904950e-02	2.74511538e-04
2.47500000e-01	1.84446000e-02	2.71052483e-04
2.48000000e-01	1.83625437e-02	2.70308329e-04
2.48500000e-01	1.86135989e-02	2.72736476e-04
2.49000000e-01	1.86512691e-02	2.73429979e-04
2.49500000e-01	1.84215383e-02	2.70081148e-04
2.50000000e-01	1.88023112e-02	2.75098911e-04
2.50500000e-01	1.85918103e-02	2.71793391e-04
2.51000000e-01	1.83870287e-02	2.67286869e-04
2.51500000e-01	1.86025668e-02	2.71563251e-04
2.52000000e-01	1.85084202e-02	2.69928275e-04
2.52500000e-01	1.84346608e-02	2.67578095e-04
2.53000000e-01	1.86490559e-02	2.72002749e-04
2.53500000e-01	1.86133405e-02	2.70286644e-04
2.54000000e-01	1.86007784e-02	2.70774729e-04
2.54500000e-01	1.83738107e-02	2.67013620e-04
2.55000000e-01	1.83651380e-02	2.64640201e-04
2.55500000e-01	1.84501535e-02	2.67641055e-04
2.56000000e-01	1.86680626e-02	2.68345964e-04
2.56500000e-01	1.84297160e-02	2.65359761e-04
2.57000000e-01	1.82546739e-02	2.64038686e-04
2.57500000e-01	1.83499326e-02	2.63978119e-04
2.58000000e-01	1.83655827e-02	2.64466295e-04
2.58500000e-01	1.81743829e-02	2.61447596e-04
2.59000000e-01	1.84231051e-02	2.65112404e-04
2.59500000e-01	1.83278431e-02	2.62752328e-04
2.60000000e-01	1.83492955e-02	2.62508123e-04
2.60500000e-01	1.83476227e-02	2.62336975e-04
2.61000000e-01	1.82477855e-02	2.60521853e-04
2.61500000e-01	1.81655406e-02	2.60278351e-04
2.62000000e-01	1.81959518e-02	2.60012789e-04
2.62500000e-01	1.83054014e-02	2.61166089e-04
2.63000000e-01	1.83029017e-02	2.60534529e-04
2.63500000e-01	1.83865260e-02	2.61610076e-04
2.64000000e-01	1.81668052e-02	2.59059325e-04
2.64500000e-01	1.82952706e-02	2.59903871e-04
2.65000000e-01	1.82376515e-02	2.58641244e-04
2.65500000e-01	1.85445841e-02	2.62501383e-04
2.66000000e-01	1.81642661e-02	2.56975535e-04
2.66500000e-01	1.81913737e-02	2.56757774e-04
2.67000000e-01	1.79995546e-02	2.54804905e-04
2.67500000e-01	1.81750684e-02	2.56550018e-04
2.68000000e-01	1.80782369e-02	2.54429629e-04
2.68500000e-01	1.83495561e-02	2.58127865e-04
2.69000000e-01	1.82364545e-02	2.56260918e-04
2.69500000e-01	1.77945730e-02	2.49698821e-04
2.70000000e-01	1.79955667e-02	2.52411435e-04
2.70500000e-01	1.83799216e-02	2.56946373e-04
2.71000000e-01	1.79191193e-02	2.50269421e-04
2.71500000e-01	1.80957303e-02	2.52354551e-04
2.72000000e-01	1.81724245e-02	2.53544454e-04
2.72500000e-01	1.81540497e-02	2.53822355e-04
2.73000000e-01	1.80458369e-02	2.51232565e-04
2.73500000e-01	1.82307836e-02	2.53446251e-04
2.74000000e-01	1.82031352e-02	2.53069940e-04
2.74500000e-01	1.83020287e-02	2.54307255e-04
2.75000000e-01	1.80451011e-02	2.50683797e-04
2.75500000e-01	1.81163364e-02	2.51785050e-04
2.76000000e-01	1.80870490e-02	2.49759311e-04
2.76500000e-01	1.81530905e-02	2.51844162e-04
2.77000000e-01	1.79347788e-02	2.48755970e-04
2.77500000e-01	1.81484990e-02	2.50788975e-04
2.78000000e-01	1.82418491e-02	2.52021205e-04
2.78500000e-01	1.80135623e-02	2.48633013e-04
2.79000000e-01	1.80454928e-02	2.48929505e-04
2.79500000e-01	1.80865566e-02	2.48521582e-04
2.80000000e-01	1.82280900e-02	2.51005252e-04
2.80500000e-01	1.78535756e-02	2.45312109e-04
2.81000000e-01	1.79995405e-02	2.47893417e-04
2.81500000e-01	1.81422482e-02	2.47700580e-04
2.82000000e-01	1.78120578e-02	2.45201257e-04
2.82500000e-01	1.78191054e-02	2.44891991e-04
2.83000000e-01	1.79575784e-02	2.45585559e-04
2.83500000e-01	1.78215043e-02	2.43909119e-04
2.84000000e-01	1.81461828e-02	2.47325570e-04
2.84500000e-01	1.79581630e-02	2.44645948e-04
2.85000000e-01	1.77759143e-02	2.41879422e-04
2.85500000e-01	1.79636092e-02	2.44091230e-04
2.86000000e-01	1.79156391e-02	2.44769724e-04
2.86500000e-01	1.77959562e-02	2.42442698e-04
2.87000000e-01	1.77414495e-02	2.41287108e-04
2.87500000e-01	1.79063231e-02	2.42627607e-04
2.88000000e-01	1.77099652e-02	2.38959891e-04
2.88500000e-01	1.76633035e-02	2.39479410e-04
2.89000000e-01	1.78681470e-02	2.41365839e-04
2.89500000e-01	1.78942798e-02	2.42687434e-04
2.90000000e-01	1.76494792e-02	2.38445200e-04
2.90500000e-01	1.77907004e-02	2.41602314e-04
2.91000000e-01	1.75724617e-02	2.36033030e-04
2.91500000e-01	1.76590898e-02	2.37746970e-04
2.92000000e-01	1.77209782e-02	2.38273347e-04
2.92500000e-01	1.76155760e-02	2.37069889e-04
2.93000000e-01	1.76358877e-02	2.36634409e-04
2.93500000e-01	1.77044439e-02	2.37731077e-04
2.94000000e-01	1.74721183e-02	2.34768504e-04
2.94500000e-01	1.75429818e-02	2.36033411e-04
2.95000000e-01	1.75925760e-02	2.35350143e-04
2.95500000e-01	1.76024067e-02	2.35924191e-04
2.96000000e-01	1.74819782e-02	2.34330235e-04
2.96500000e-01	1.75971310e-02	2.35408317e-04
2.97000000e-01	1.75162422e-02	2.34395352e-04
2.97500000e-01	1.75166933e-02	2.34041369e-04
2.98000000e-01	1.75745443e-02	2.33950066e-04
2.98500000e-01	1.74411544e-02	2.32596891e-04
2.99000000e-01	1.76528919e-02	2.35201612e-04
2.99500000e-01	1.75989102e-02	2.34789180e-04
3.00000000e-01	1.76437091e-02	2.34750007e-04
3.00500000e-01	1.76729437e-02	2.35009578e-04
3.01000000e-01	1.76620204e-02	2.34577815e-04
3.01500000e-01	1.78525655e-02	2.36698330e-04
3.02000000e-01	1.75830454e-02	2.33233730e-04
3.02500000e-01	1.75879922e-02	2.32472292e-04
3.03000000e-01	1.77436928e-02	2.35513095e-04
3.03500000e-01	1.74555491e-02	2.30332242e-04
3.04000000e-01	1.75194156e-02	2.31465180e-04
3.04500000e-01	1.75703869e-02	2.31631206e-04
3.05000000e-01	1.75953950e-02	2.31915254e-04
3.05500000e-01	1.76809730e-02	2.33483760e-04
3.06000000e-01	1.73315763e-02	2.27562647e-04
3.06500000e-01	1.72408453e-02	2.26854574e-04
3.07000000e-01	1.74520757e-02	2.29172733e-04
3.07500000e-01	1.74159322e-02	2.28467256e-04
3.08000000e-01	1.74951814e-02	2.29261427e-04
3.08500000e-01	1.73497508e-02	2.27050508e-04
3.09000000e-01	1.74675811e-02	2.28599719e-04
3.09500000e-01	1.73386330e-02	2.27024423e-04
3.10000000e-01	1.73035413e-02	2.26442746e-04
3.10500000e-01	1.74345805e-02	2.28069365e-04
3.11000000e-01	1.74909120e-02	2.28494363e-04
3.11500000e-01	1.75213936e-02	2.28336202e-04
3.12000000e-01	1.70822149e-02	2.22527418e-04
3.12500000e-01	1.75162000e-02	2.28129409e-04
3.13000000e-01	1.72432059e-02	2.23249880e-04
3.13500000e-01	1.73980407e-02	2.26421123e-04
3.14000000e-01	1.73293465e-02	2.25591923e-04
3.14500000e-01	1.72975566e-02	2.24775889e-04
3.15000000e-01	1.73708610e-02	2.25943771e-04
3.15500000e-01	1.74552322e-02	2.26496856e-04
3.16000000e-01	1.73132668e-02	2.23892568e-04
3.16500000e-01	1.70403166e-02	2.20945272e-04
3.17000000e-01	1.70930180e-02	2.21085697e-04
3.17500000e-01	1.70764255e-02	2.21119378e-04
3.18000000e-01	1.73778789e-02	2.24349735e-04
3.18500000e-01	1.72973497e-02	2.23764220e-04
3.19000000e-01	1.72620977e-02	2.22089938e-04
3.19500000e-01	1.70677574e-02	2.19853857e-04
3.20000000e-01	1.72165636e-02	2.21694147e-04
3.20500000e-01	1.70416646e-02	2.19972612e-04
3.21000000e-01	1.71080175e-02	2.20048731e-04
3.21500000e-01	1.72247800e-02	2.21483740e-04
3.22000000e-01	1.69805215e-02	2.18275675e-04
3.22500000e-01	1.70889340e-02	2.19349441e-04
3.23000000e-01	1.71342405e-02	2.19516857e-04
3.23500000e-01	1.70411751e-02	2.18871693e-04
3.24000000e-01	1.70791943e-02	2.18961963e-04
3.24500000e-01	1.68815770e-02	2.16230550e-04
3.25000000e-01	1.69691096e-02	2.17222475e-04
3.25500000e-01	1.70667917e-02	2.18595934e-04
3.26000000e-01	1.70287093e-02	2.17091241e-04
3.26500000e-01	1.71451644e-02	2.18724524e-04
3.27000000e-01	1.71682590e-02	2.19332123e-04
3.27500000e-01	1.68920093e-02	2.16108293e-04
3.28000000e-01	1.70909956e-02	2.18155642e-04
3.28500000e-01	1.70419270e-02	2.17322938e-04
3.29000000e-01	1.70980342e-02	2.17542571e-04
3.29500000e-01	1.68663067e-02	2.14902364e-04
3.30000000e-01	1.69897901e-02	2.16030758e-04
3.30500000e-01	1.70970136e-02	2.16162912e-04
3.31000000e-01	1.69249035e-02	2.14937955e-04
3.31500000e-01	1.69414069e-02	2.14272307e-04
3.32000000e-01	1.69876462e-02	2.15258739e-04
3.32500000e-01	1.68619898e-02	2.13233912e-04
3.33000000e-01	1.69063633e-02	2.13532023e-04
3.33500000e-01	1.69077356e-02	2.13654437e-04
3.34000000e-01	1.69399776e-02	2.13793972e-04
3.34500000e-01	1.71148733e-02	2.16113257e-04
3.35000000e-01	1.69617315e-02	2.13453088e-04
3.35500000e-01	1.68793794e-02	2.13097707e-04
3.36000000e-01	1.69977924e-02	2.13913523e-04
3.36500000e-01	1.68459164e-02	2.12065906e-04
3.37000000e-01	1.70713417e-02	2.14961184e-04
3.37500000e-01	1.68915754e-02	2.11194992e-04
3.38000000e-01	1.68245897e-02	2.11505807e-04
3.38500000e-01	1.66578603e-02	2.09571300e-04
3.39000000e-01	1.69226497e-02	2.12666048e-04
3.39500000e-01	1.69124280e-02	2.11126851e-04
3.40000000e-01	1.67104522e-02	2.09429151e-04
3.40500000e-01	1.67805677e-02	2.10148368e-04
3.41000000e-01	1.67372918e-02	2.08521174e-04
3.41500000e-01	1.66461847e-02	2.08587343e-04
3.42000000e-01	1.69305533e-02	2.10411931e-04
3.42500000e-01	1.68148845e-02	2.09693219e-04
3.43000000e-01	1.69986542e-02	2.11192401e-04
3.43500000e-01	1.66793358e-02	2.07914441e-04
3.44000000e-01	1.68816573e-02	2.09963721e-04
3.44500000e-01	1.67068709e-02	2.07347432e-04
3.45000000e-01	1.68167202e-02	2.09250830e-04
3.45500000e-01	1.67133011e-02	2.07437250e-04
3.46000000e-01	1.66497248e-02	2.07081375e-04
3.46500000e-01	1.68430720e-02	2.09170566e-04
3.47000000e-01	1.67791257e-02	2.07845440e-04
3.47500000e-01	1.66967140e-02	2.06896695e-04
3.48000000e-01	1.65711641e-02	2.05266348e-04
3.48500000e-01	1.66453229e-02	2.06773069e-04
3.49000000e-01	1.64835068e-02	2.03421301e-04
3.49500000e-01	1.66191302e-02	2.05427327e-04
3.50000000e-01	1.64827562e-02	1.66247213e-04
3.51000000e-01	1.66370903e-02	1.45106073e-04
3.52000000e-01	1.65611182e-02	1.44656837e-04
3.53000000e-01	1.65205320e-02	1.43452541e-04
3.54000000e-01	1.66921407e-02	1.44668253e-04
3.55000000e-01	1.65587845e-02	1.43343102e-04
3.56000000e-01	1.65424800e-02	1.44293806e-04
3.57000000e-01	1.64625765e-02	1.46077515e-04
3.58000000e-01	1.64466534e-02	1.46939015e-04
3.59000000e-01	1.64007829e-02	1.47552740e-04
3.60000000e-01	1.64540439e-02	1.49047283e-04
3.61000000e-01	1.65459700e-02	1.50323912e-04
3.62000000e-01	1.65698680e-02	1.51307250e-04
3.63000000e-01	1.63602122e-02	1.50361548e-04
3.64000000e-01	1.62586709e-02	1.50256624e-04
3.65000000e-01	1.63819307e-02	1.51201757e-04
3.66000000e-01	1.64072372e-02	1.49973437e-04
3.67000000e-01	1.63071772e-02	1.46798216e-04
3.68000000e-01	1.63298346e-02	1.46144487e-04
3.69000000e-01	1.63031040e-02	1.45069872e-04
3.70000000e-01	1.62718067e-02	1.43971272e-04
3.71000000e-01	1.62281599e-02	1.45487495e-04
3.72000000e-01	1.63001658e-02	1.47413297e-04
3.73000000e-01	1.63643092e-02	1.48213461e-04
3.74000000e-01	1.61315045e-02	1.45841671e-04
3.75000000e-01	1.63163152e-02	1.47525995e-04
3.76000000e-01	1.61378348e-02	1.46493875e-04
3.77000000e-01	1.62520747e-02	1.47477355e-04
3.78000000e-01	1.61941967e-02	1.46837988e-04
3.79000000e-01	1.61052636e-02	1.45817128e-04
3.80000000e-01	1.61025354e-02	1.45658971e-04
3.81000000e-01	1.60722791e-02	1.45294265e-04
3.82000000e-01	1.60575696e-02	1.45677101e-04
3.83000000e-01	1.61025862e-02	1.45326321e-04
3.84000000e-01	1.59909109e-02	1.44857903e-04
3.85000000e-01	1.60502308e-02	1.45033793e-04
3.86000000e-01	1.60301564e-02	1.44993255e-04
3.87000000e-01	1.60694122e-02	1.45283353e-04
3.88000000e-01	1.59779803e-02	1.44334640e-04
3.89000000e-01	1.58740625e-02	1.43897835e-04
3.90000000e-01	1.58929390e-02	1.43359971e-04
3.91000000e-01	1.59624109e-02	1.43812223e-04
3.92000000e-01	1.58377523e-02	1.43038643e-04
3.93000000e-01	1.59351780e-02	1.43702005e-04
3.94000000e-01	1.59546328e-02	1.43896648e-04
3.95000000e-01	1.58742992e-02	1.43151556e-04
3.96000000e-01	1.58375156e-02	1.42880272e-04
3.97000000e-01	1.58340739e-02	1.42461725e-04
3.98000000e-01	1.56643773e-02	1.41134083e-04
3.99000000e-01	1.59189344e-02	1.43457708e-04
4.00000000e-01	1.58157588e-02	1.42791603e-04
4.01000000e-01	1.56535454e-02	1.41326694e-04
4.02000000e-01	1.57544538e-02	1.41927708e-04
4.03000000e-01	1.57283989e-02	1.41585142e-04
4.04000000e-01	1.56374191e-02	1.41282910e-04
4.05000000e-01	1.56285772e-02	1.41012844e-04
4.06000000e-01	1.57248444e-02	1.41603627e-04
4.07000000e-01	1.57228080e-02	1.41565257e-04
4.08000000e-01	1.56729762e-02	1.41398866e-04
4.09000000e-01	1.55946615e-02	1.40363462e-04
4.10000000e-01	1.56932456e-02	1.40965124e-04
4.11000000e-01	1.55915945e-02	1.40269588e-04
4.12000000e-01	1.56480576e-02	1.40545185e-04
4.13000000e-01	1.55768343e-02	1.39655848e-04
4.14000000e-01	1.56017006e-02	1.40232455e-04
4.15000000e-01	1.55636801e-02	1.39954633e-04
4.16000000e-01	1.56517816e-02	1.40244072e-04
4.17000000e-01	1.56007797e-02	1.40351729e-04
4.18000000e-01	1.56879950e-02	1.42714142e-04
4.19000000e-01	1.57144082e-02	1.44331502e-04
4.20000000e-01	1.56232968e-02	1.44569697e-04
4.21000000e-01	1.55537609e-02	1.44177271e-04
4.22000000e-01	1.57104666e-02	1.46057298e-04
4.23000000e-01	1.57289918e-02	1.46709751e-04
4.24000000e-01	1.56498608e-02	1.46739992e-04
4.25000000e-01	1.55262180e-02	1.45581501e-04
4.26000000e-01	1.56806485e-02	1.47043212e-04
4.27000000e-01	1.55453048e-02	1.45821494e-04
4.28000000e-01	1.55778734e-02	1.46505413e-04
4.29000000e-01	1.55820253e-02	1.47225481e-04
4.30000000e-01	1.55516143e-02	1.46217892e-04
4.31000000e-01	1.56228912e-02	1.46769577e-04
4.32000000e-01	1.53295220e-02	1.44165364e-04
4.33000000e-01	1.57000313e-02	1.47471984e-04
4.34000000e-01	1.55817220e-02	1.46826425e-04
4.35000000e-01	1.54658645e-02	1.46184603e-04
4.36000000e-01	1.55985933e-02	1.47297196e-04
4.37000000e-01	1.54933373e-02	1.46694188e-04
4.38000000e-01	1.55189899e-02	1.46757066e-04
4.39000000e-01	1.54304366e-02	1.46546519e-04
4.40000000e-01	1.55377146e-02	1.47424469e-04
4.41000000e-01	1.54840975e-02	1.47417979e-04
4.42000000e-01	1.53656936e-02	1.46706093e-04
4.43000000e-01	1.55007289e-02	1.47594490e-04
4.44000000e-01	1.56240973e-02	1.49330602e-04
4.45000000e-01	1.54361465e-02	1.47215257e-04
4.46000000e-01	1.54848705e-02	1.47826525e-04
4.47000000e-01	1.53206794e-02	1.46621031e-04
4.48000000e-01	1.54456510e-02	1.47922951e-04
4.49000000e-01	1.53748227e-02	1.47565718e-04
4.50000000e-01	1.54747094e-02	1.48452304e-04
4.51000000e-01	1.53746382e-02	1.47774810e-04
4.52000000e-01	1.53005913e-02	1.47659236e-04
4.53000000e-01	1.52474210e-02	1.47011094e-04
4.54000000e-01	1.52567757e-02	1.46982498e-04
4.55000000e-01	1.52438119e-02	1.47493461e-04
4.56000000e-01	1.53034892e-02	1.47640924e-04
4.57000000e-01	1.52281149e-02	1.47211590e-04
4.58000000e-01	1.53613736e-02	1.48435919e-04
4.59000000e-01	1.51991520e-02	1.46770278e-04
4.60000000e-01	1.52589769e-02	1.47762343e-04
4.61000000e-01	1.52721589e-02	1.48095018e-04
4.62000000e-01	1.52557843e-02	1.47665853e-04
4.63000000e-01	1.51172377e-02	1.46860352e-04
4.64000000e-01	1.53043607e-02	1.48900666e-04
4.65000000e-01	1.53608510e-02	1.48752512e-04
4.66000000e-01	1.52420736e-02	1.48143298e-04
4.67000000e-01	1.53256207e-02	1.49537517e-04
4.68000000e-01	1.52031217e-02	1.48043604e-04
4.69000000e-01	1.51576382e-02	1.48209259e-04
4.70000000e-01	1.50411753e-02	1.47283271e-04
4.71000000e-01	1.52234179e-02	1.48604451e-04
4.72000000e-01	1.50988426e-02	1.47478713e-04
4.73000000e-01	1.50165869e-02	1.46909689e-04
4.74000000e-01	1.51274665e-02	1.47526078e-04
4.75000000e-01	1.50485355e-02	1.47046976e-04
4.76000000e-01	1.51564267e-02	1.47741895e-04
4.77000000e-01	1.51022953e-02	1.47346281e-04
4.78000000e-01	1.49701272e-02	1.46593414e-04
4.79000000e-01	1.50204001e-02	1.46875637e-04
4.80000000e-01	1.50427451e-02	1.47558774e-04
4.81000000e-01	1.49657976e-02	1.46552285e-04
4.82000000e-01	1.49684750e-02	1.46569526e-04
4.83000000e-01	1.49998074e-02	1.46848858e-04
4.84000000e-01	1.49526070e-02	1.46376460e-04
4.85000000e-01	1.51416398e-02	1.48552524e-04
4.86000000e-01	1.50303508e-02	1.47170909e-04
4.87000000e-01	1.49283297e-02	1.46744775e-04
4.88000000e-01	1.49540514e-02	1.46705488e-04
4.89000000e-01	1.49180440e-02	1.46926014e-04
4.90000000e-01	1.49542912e-02	1.47164996e-04
4.91000000e-01	1.50487893e-02	1.47645850e-04
4.92000000e-01	1.50681704e-02	1.48365357e-04
4.93000000e-01	1.48511615e-02	1.46406269e-04
4.94000000e-01	1.51056434e-02	1.48497511e-04
4.95000000e-01	1.49223643e-02	1.48331329e-04
4.96000000e-01	1.48585279e-02	1.51589601e-04
4.97000000e-01	1.49121001e-02	1.55249485e-04
4.98000000e-01	1.49184299e-02	1.57244696e-04
4.99000000e-01	1.49227172e-02	1.59062643e-04
5.00000000e-01	1.48245233e-02	1.60177608e-04
5.01000000e-01	1.50153874e-02	1.63409330e-04
5.02000000e-01	1.50148764e-02	1.64642008e-04
5.03000000e-01	1.48497332e-02	1.65405796e-04
5.04000000e-01	1.48683236e-02	1.66545297e-04
5.05000000e-01	1.48455274e-02	1.63511821e-04
5.06000000e-01	1.48609417e-02	1.60480581e-04
5.07000000e-01	1.48168239e-02	1.57762544e-04
5.08000000e-01	1.48822544e-02	1.57576508e-04
5.09000000e-01	1.48056924e-02	1.55958781e-04
5.10000000e-01	1.50277602e-02	1.57902206e-04
5.11000000e-01	1.47629999e-02	1.54963093e-04
5.12000000e-01	1.47966989e-02	1.54762099e-04
5.13000000e-01	1.47994455e-02	1.54944657e-04
5.14000000e-01	1.49608368e-02	1.55735663e-04
5.15000000e-01	1.48692467e-02	1.54758927e-04
5.16000000e-01	1.49033697e-02	1.54471278e-04
5.17000000e-01	1.47790982e-02	1.53126977e-04
5.18000000e-01	1.47713277e-02	1.53145174e-04
5.19000000e-01	1.46656774e-02	1.51167238e-04
5.20000000e-01	1.47938735e-02	1.52321297e-04
5.21000000e-01	1.47538656e-02	1.52020527e-04
5.22000000e-01	1.46343951e-02	1.50466901e-04
5.23000000e-01	1.47570238e-02	1.51429398e-04
5.24000000e-01	1.47894536e-02	1.51717190e-04
5.25000000e-01	1.46528154e-02	1.50469000e-04
5.26000000e-01	1.47802255e-02	1.51814976e-04
5.27000000e-01	1.46022641e-02	1.49746727e-04
5.28000000e-01	1.46554615e-02	1.50687019e-04
5.29000000e-01	1.47219428e-02	1.51209701e-04
5.30000000e-01	1.46123393e-02	1.49960524e-04
5.31000000e-01	1.46119426e-02	1.50534116e-04
5.32000000e-01	1.47090274e-02	1.51309128e-04
5.33000000e-01	1.46128684e-02	1.49939361e-04
5.34000000e-01	1.45021218e-02	1.49122685e-04
5.35000000e-01	1.46158424e-02	1.50141608e-04
5.36000000e-01	1.46252373e-02	1.49955556e-04
5.37000000e-01	1.45753173e-02	1.50291642e-04
5.38000000e-01	1.45220119e-02	1.49068084e-04
5.39000000e-01	1.46843011e-02	1.51066452e-04
5.40000000e-01	1.45192479e-02	1.48955684e-04
5.41000000e-01	1.45668959e-02	1.49510168e-04
5.42000000e-01	1.45108301e-02	1.49046102e-04
5.43000000e-01	1.46093030e-02	1.49716099e-04
5.44000000e-01	1.45122729e-02	1.49182572e-04
5.45000000e-01	1.45608884e-02	1.49424279e-04
5.46000000e-01	1.43972261e-02	1.48065854e-04
5.47000000e-01	1.44421812e-02	1.48579924e-04
5.48000000e-01	1.44063140e-02	1.47941451e-04
5.49000000e-01	1.43285107e-02	1.47537666e-04
5.50000000e-01	1.44533136e-02	1.48459994e-04
5.51000000e-01	1.43669884e-02	1.47269302e-04
5.52000000e-01	1.42912520e-02	1.46476129e-04
5.53000000e-01	1.43796250e-02	1.46979980e-04
5.54000000e-01	1.43220402e-02	1.46613490e-04
5.55000000e-01	1.44057610e-02	1.47126286e-04
5.56000000e-01	1.42862845e-02	1.46323088e-04
5.57000000e-01	1.44234942e-02	1.47348763e-04
5.58000000e-01	1.43987260e-02	1.47126629e-04
5.59000000e-01	1.42384334e-02	1.46012702e-04
5.60000000e-01	1.43723149e-02	1.47308980e-04
5.61000000e-01	1.42877141e-02	1.45835783e-04
5.62000000e-01	1.43380283e-02	1.46573929e-04
5.63000000e-01	1.41612591e-02	1.44864731e-04
5.64000000e-01	1.42350835e-02	1.45680617e-04
5.65000000e-01	1.42224035e-02	1.45257603e-04
5.66000000e-01	1.42738421e-02	1.46235715e-04
5.67000000e-01	1.42036545e-02	1.45330214e-04
5.68000000e-01	1.42272757e-02	1.45398515e-04
5.69000000e-01	1.41840439e-02	1.45117861e-04
5.70000000e-01	1.42423802e-02	1.45245017e-04
5.71000000e-01	1.41834273e-02	1.45039279e-04
5.72000000e-01	1.43580465e-02	1.46630934e-04
5.73000000e-01	1.40741928e-02	1.44273574e-04
5.74000000e-01	1.41540771e-02	1.44127859e-04
5.75000000e-01	1.41375299e-02	1.44913586e-04
5.76000000e-01	1.42289314e-02	1.46089654e-04
5.77000000e-01	1.41838035e-02	1.44898400e-04
5.78000000e-01	1.42110176e-02	1.45192672e-04
5.79000000e-01	1.42690369e-02	1.46164614e-04
5.80000000e-01	1.41363211e-02	1.45167063e-04
5.81000000e-01	1.41108420e-02	1.44705239e-04
5.82000000e-01	1.40715707e-02	1.44233229e-04
5.83000000e-01	1.41632901e-02	1.45371275e-04
5.84000000e-01	1.40820372e-02	1.44660040e-04
5.85000000e-01	1.41360490e-02	1.45546101e-04
5.86000000e-01	1.39159971e-02	1.43171513e-04
5.87000000e-01	1.41189067e-02	1.44242012e-04
5.88000000e-01	1.42007690e-02	1.45266171e-04
5.89000000e-01	1.40762391e-02	1.44545693e-04
5.90000000e-01	1.40542576e-02	1.44254447e-04
5.91000000e-01	1.39209807e-02	1.43172718e-04
5.92000000e-01	1.38299600e-02	1.42222541e-04
5.93000000e-01	1.40537381e-02	1.44536391e-04
5.94000000e-01	1.39071784e-02	1.42968537e-04
5.95000000e-01	1.38775385e-02	1.43049592e-04
5.96000000e-01	1.40434523e-02	1.44401125e-04
5.97000000e-01	1.39209142e-02	1.42825945e-04
5.98000000e-01	1.41151740e-02	1.45199790e-04
5.99000000e-01	1.38817725e-02	1.42773475e-04
6.00000000e-01	1.39576138e-02	1.43482000e-04
6.01000000e-01	1.38264634e-02	1.42556251e-04
6.02000000e-01	1.38370152e-02	1.42199453e-04
6.03000000e-01	1.37604758e-02	1.41677006e-04
6.04000000e-01	1.38589274e-02	1.42661643e-04
6.05000000e-01	1.38474364e-02	1.42472070e-04
6.06000000e-01	1.37088439e-02	1.41518595e-04
6.07000000e-01	1.39767054e-02	1.44250010e-04
6.08000000e-01	1.38771708e-02	1.43104949e-04
6.09000000e-01	1.38515732e-02	1.42813713e-04
6.10000000e-01	1.39731600e-02	1.43745827e-04
6.11000000e-01	1.38101198e-02	1.42460319e-04
6.12000000e-01	1.38197913e-02	1.42915226e-04
6.13000000e-01	1.38595432e-02	1.43028006e-04
6.14000000e-01	1.37588903e-02	1.42072175e-04
6.15000000e-01	1.38759407e-02	1.43128243e-04
6.16000000e-01	1.37830964e-02	1.42108901e-04
6.17000000e-01	1.37651175e-02	1.42053782e-04
6.18000000e-01	1.36269536e-02	1.40943066e-04
6.19000000e-01	1.38157460e-02	1.42725990e-04
6.20000000e-01	1.38936293e-02	1.42672392e-04
6.21000000e-01	1.37183349e-02	1.41017466e-04
6.22000000e-01	1.37448899e-02	1.40946178e-04
6.23000000e-01	1.38903198e-02	1.42702317e-04
6.24000000e-01	1.38243543e-02	1.41147682e-04
6.25000000e-01	1.35059495e-02	1.39015126e-04
6.26000000e-01	1.37399524e-02	1.40520046e-04
6.27000000e-01	1.38649502e-02	1.41809184e-04
6.28000000e-01	1.36142392e-02	1.39828253e-04
6.29000000e-01	1.37610372e-02	1.40601445e-04
6.30000000e-01	1.34640143e-02	1.38116277e-04
6.31000000e-01	1.36366614e-02	1.39720891e-04
6.32000000e-01	1.35688193e-02	1.39789475e-04
6.33000000e-01	1.37447880e-02	1.40419834e-04
6.34000000e-01	1.36398610e-02	1.43636562e-04
6.35000000e-01	1.37104437e-02	1.48495850e-04
6.36000000e-01	1.36112723e-02	1.49997574e-04
6.37000000e-01	1.37503241e-02	1.53824489e-04
6.38000000e-01	1.37871921e-02	1.56151855e-04
6.39000000e-01	1.38396614e-02	1.58560307e-04
6.40000000e-01	1.38665288e-02	1.60712961e-04
6.41000000e-01	1.38035738e-02	1.61549956e-04
6.42000000e-01	1.37687985e-02	1.63468152e-04
6.43000000e-01	1.37505644e-02	1.62603158e-04
6.44000000e-01	1.37909346e-02	1.57864703e-04
6.45000000e-01	1.37357254e-02	1.54574380e-04
6.46000000e-01	1.37787883e-02	1.53882059e-04
6.47000000e-01	1.38053839e-02	1.52939291e-04
6.48000000e-01	1.37892301e-02	1.52028794e-04
6.49000000e-01	1.37577951e-02	1.50661652e-04
6.50000000e-01	1.37103912e-02	1.49409682e-04
6.51000000e-01	1.36121124e-02	1.48219033e-04
6.52000000e-01	1.37737228e-02	1.48701205e-04
6.53000000e-01	1.38170598e-02	1.48225226e-04
6.54000000e-01	1.37266725e-02	1.47311996e-04
6.55000000e-01	1.36703315e-02	1.46823420e-04
6.56000000e-01	1.36215401e-02	1.46035995e-04
6.57000000e-01	1.36725666e-02	1.46459219e-04
6.58000000e-01	1.36127499e-02	1.45394523e-04
6.59000000e-01	1.37410609e-02	1.46282442e-04
6.60000000e-01	1.36758694e-02	1.45541486e-04
6.61000000e-01	1.36946172e-02	1.46501501e-04
6.62000000e-01	1.36819657e-02	1.45925323e-04
6.63000000e-01	1.35563712e-02	1.44328008e-04
6.64000000e-01	1.35722165e-02	1.44777072e-04
6.65000000e-01	1.35821717e-02	1.45294171e-04
6.66000000e-01	1.36826247e-02	1.45450456e-04
6.67000000e-01	1.37622298e-02	1.46098090e-04
6.68000000e-01	1.35679217e-02	1.44621941e-04
6.69000000e-01	1.36956495e-02	1.45471857e-04
6.70000000e-01	1.35751386e-02	1.44161594e-04
6.71000000e-01	1.35792532e-02	1.44184942e-04
6.72000000e-01	1.35800829e-02	1.43937160e-04
6.73000000e-01	1.35149541e-02	1.43739377e-04
6.74000000e-01	1.35283119e-02	1.43802661e-04
6.75000000e-01	1.34163251e-02	1.42273005e-04
6.76000000e-01	1.35933372e-02	1.44096747e-04
6.77000000e-01	1.34425077e-02	1.42665585e-04
6.78000000e-01	1.33869931e-02	1.41976679e-04
6.79000000e-01	1.35295718e-02	1.43440627e-04
6.80000000e-01	1.34092627e-02	1.42322432e-04
6.81000000e-01	1.35310792e-02	1.43869203e-04
6.82000000e-01	1.34009034e-02	1.41914539e-04
6.83000000e-01	1.35857099e-02	1.43458051e-04
6.84000000e-01	1.34632432e-02	1.42487463e-04
6.85000000e-01	1.34549121e-02	1.42263980e-04
6.86000000e-01	1.33812945e-02	1.41644190e-04
6.87000000e-01	1.34396073e-02	1.42617265e-04
6.88000000e-01	1.34312086e-02	1.42284341e-04
6.89000000e-01	1.35090746e-02	1.42534402e-04
6.90000000e-01	1.33133799e-02	1.40920880e-04
6.91000000e-01	1.33920561e-02	1.41763387e-04
6.92000000e-01	1.36126226e-02	1.43477696e-04
6.93000000e-01	1.33414090e-02	1.41531998e-04
6.94000000e-01	1.34535657e-02	1.42218981e-04
6.95000000e-01	1.34742305e-02	1.42608622e-04
6.96000000e-01	1.34559217e-02	1.42141881e-04
6.97000000e-01	1.35376025e-02	1.42849504e-04
6.98000000e-01	1.34159030e-02	1.41853989e-04
6.99000000e-01	1.32269363e-02	1.39962473e-04
7.00000000e-01	1.31875901e-02	1.40095215e-04
7.01000000e-01	1.34275236e-02	1.41840311e-04
7.02000000e-01	1.33792132e-02	1.41022081e-04
7.03000000e-01	1.32786147e-02	1.40131240e-04
7.04000000e-01	1.32774538e-02	1.40369147e-04
7.05000000e-01	1.32541684e-02	1.40678991e-04
7.06000000e-01	1.32883341e-02	1.40126582e-04
7.07000000e-01	1.32292925e-02	1.39866199e-04
7.08000000e-01	1.33609679e-02	1.40242843e-04
7.09000000e-01	1.32379628e-02	1.39508723e-04
7.10000000e-01	1.32265426e-02	1.39457476e-04
7.11000000e-01	1.31100589e-02	1.38458040e-04
7.12000000e-01	1.32355086e-02	1.39774340e-04
7.13000000e-01	1.31295277e-02	1.38827587e-04
7.14000000e-01	1.32314304e-02	1.39683546e-04
7.15000000e-01	1.31154235e-02	1.38666039e-04
7.16000000e-01	1.31769709e-02	1.38969834e-04
7.17000000e-01	1.31333636e-02	1.38962270e-04
7.18000000e-01	1.31366627e-02	1.38610464e-04
7.19000000e-01	1.32204315e-02	1.39343217e-04
7.20000000e-01	1.30962399e-02	1.38802135e-04
7.21000000e-01	1.30271006e-02	1.37680817e-04
7.22000000e-01	1.31046648e-02	1.38615076e-04
7.23000000e-01	1.30280191e-02	1.38215530e-04
7.24000000e-01	1.29283806e-02	1.37379784e-04
7.25000000e-01	1.31457938e-02	1.39209777e-04
7.26000000e-01	1.30666416e-02	1.38476555e-04
7.27000000e-01	1.30378274e-02	1.38077606e-04
7.28000000e-01	1.29347270e-02	1.37078481e-04
7.29000000e-01	1.30775582e-02	1.38360650e-04
7.30000000e-01	1.28834706e-02	1.36297521e-04
7.31000000e-01	1.30647548e-02	1.37711272e-04
7.32000000e-01	1.30575564e-02	1.38197470e-04
7.33000000e-01	1.29874297e-02	1.37436919e-04
7.34000000e-01	1.29922484e-02	1.37107516e-04
7.35000000e-01	1.29700302e-02	1.36835876e-04
7.36000000e-01	1.29185036e-02	1.36154183e-04
7.37000000e-01	1.29594837e-02	1.36169153e-04
7.38000000e-01	1.28983729e-02	1.35210974e-04
7.39000000e-01	1.29647314e-02	1.36419511e-04
7.40000000e-01	1.28941529e-02	1.34939073e-04
7.41000000e-01	1.30553370e-02	1.36550241e-04
7.42000000e-01	1.28747353e-02	1.34581060e-04
7.43000000e-01	1.27193596e-02	1.33928572e-04
7.44000000e-01	1.28494806e-02	1.34903960e-04
7.45000000e-01	1.28221574e-02	1.34093557e-04
7.46000000e-01	1.28698532e-02	1.34719866e-04
7.47000000e-01	1.29359356e-02	1.35278691e-04
7.48000000e-01	1.28363211e-02	1.33961860e-04
7.49000000e-01	1.27837845e-02	1.34167402e-04
7.50000000e-01	1.28492744e-02	1.34434907e-04
7.51000000e-01	1.27950307e-02	1.33835704e-04
7.52000000e-01	1.29015373e-02	1.35249920e-04
7.53000000e-01	1.28710268e-02	1.34966973e-04
7.54000000e-01	1.29185337e-02	1.35149250e-04
7.55000000e-01	1.28425126e-02	1.34861046e-04
7.56000000e-01	1.27828108e-02	1.34016482e-04
7.57000000e-01	1.28073937e-02	1.34359512e-04
7.58000000e-01	1.28383915e-02	1.34788487e-04
7.59000000e-01	1.28105756e-02	1.34321000e-04
7.60000000e-01	1.27328207e-02	1.33332146e-04
7.61000000e-01	1.27949345e-02	1.33493535e-04
7.62000000e-01	1.27127233e-02	1.32473399e-04
7.63000000e-01	1.27670937e-02	1.32972801e-04
7.64000000e-01	1.27471237e-02	1.32213553e-04
7.65000000e-01	1.26529637e-02	1.31487345e-04
7.66000000e-01	1.26677621e-02	1.31732685e-04
7.67000000e-01	1.26485999e-02	1.31912565e-04
7.68000000e-01	1.26982306e-02	1.32016008e-04
7.69000000e-01	1.24810482e-02	1.29813448e-04
7.70000000e-01	1.26075936e-02	1.31000521e-04
7.71000000e-01	1.26665820e-02	1.31944117e-04
7.72000000e-01	1.25566915e-02	1.35124273e-04
7.73000000e-01	1.26895933e-02	1.40370300e-04
7.74000000e-01	1.25464116e-02	1.41480104e-04
7.75000000e-01	1.25702491e-02	1.44514141e-04
7.76000000e-01	1.25626240e-02	1.46619833e-04
7.77000000e-01	1.26152844e-02	1.49251441e-04
7.78000000e-01	1.24651402e-02	1.49748850e-04
7.79000000e-01	1.26059424e-02	1.52512285e-04
7.80000000e-01	1.24285240e-02	1.52400141e-04
7.81000000e-01	1.23441309e-02	1.53516255e-04
7.82000000e-01	1.24455828e-02	1.56240945e-04
7.83000000e-01	1.24500587e-02	1.58097540e-04
7.84000000e-01	1.23902910e-02	1.59206053e-04
7.85000000e-01	1.25717586e-02	1.63120766e-04
7.86000000e-01	1.24970166e-02	1.63141901e-04
7.87000000e-01	1.21907154e-02	1.61012955e-04
7.88000000e-01	1.23831865e-02	1.65923636e-04
7.89000000e-01	1.23124885e-02	1.65480424e-04
7.90000000e-01	1.22327985e-02	1.67866715e-04
7.91000000e-01	1.23517994e-02	1.70327651e-04
7.92000000e-01	1.22474739e-02	1.70711531e-04
7.93000000e-01	1.24691977e-02	1.74549524e-04
7.94000000e-01	1.24626857e-02	1.76553472e-04
7.95000000e-01	1.25399695e-02	1.79976393e-04
7.96000000e-01	1.22379543e-02	1.77123353e-04
7.97000000e-01	1.23313078e-02	1.80589736e-04
7.98000000e-01	1.23693934e-02	1.83367776e-04
7.99000000e-01	1.23521165e-02	1.84754646e-04
8.00000000e-01	1.25079235e-02	1.87757306e-04
8.01000000e-01	1.22655291e-02	1.87370040e-04
8.02000000e-01	1.23148285e-02	1.89853246e-04
8.03000000e-01	1.21673860e-02	1.89590441e-04
8.04000000e-01	1.21403837e-02	1.91925335e-04
8.05000000e-01	1.23546745e-02	1.95557094e-04
8.06000000e-01	1.20344629e-02	1.95053286e-04
8.07000000e-01	1.23910263e-02	2.00984949e-04
8.08000000e-01	1.21271444e-02	1.99468652e-04
8.09000000e-01	1.21587928e-02	2.02531691e-04
8.10000000e-01	1.22932109e-02	2.07146005e-04
8.11000000e-01	1.20187059e-02	2.05433537e-04
8.12000000e-01	1.24020287e-02	2.12500224e-04
8.13000000e-01	1.23981532e-02	2.14890524e-04
8.14000000e-01	1.23203501e-02	2.16520734e-04
8.15000000e-01	1.21189762e-02	2.17123454e-04
8.16000000e-01	1.19928829e-02	2.15987398e-04
8.17000000e-01	1.20361054e-02	2.18496890e-04
8.18000000e-01	1.19980684e-02	2.21670327e-04
8.19000000e-01	1.23624905e-02	2.31171908e-04
8.20000000e-01	1.19529816e-02	2.27320068e-04
8.21000000e-01	1.20095665e-02	2.30383090e-04
8.22000000e-01	1.20169166e-02	2.33280061e-04
8.23000000e-01	1.16861101e-02	2.32011348e-04
8.24000000e-01	1.20530923e-02	2.39697587e-04
8.25000000e-01	1.19430794e-02	2.41828520e-04
8.26000000e-01	1.20295169e-02	2.47445177e-04
8.27000000e-01	1.18820420e-02	2.48393035e-04
8.28000000e-01	1.20080036e-02	2.54062123e-04
8.29000000e-01	1.20416428e-02	2.60755161e-04
8.30000000e-01	1.18911735e-02	2.61467749e-04
8.31000000e-01	1.17670240e-02	2.62111979e-04
8.32000000e-01	1.16870730e-02	2.66183338e-04
8.33000000e-01	1.17931335e-02	2.70410877e-04
8.34000000e-01	1.17760741e-02	2.74061676e-04
8.35000000e-01	1.17195316e-02	2.79231540e-04
8.36000000e-01	1.16534750e-02	2.83426026e-04
8.37000000e-01	1.17403541e-02	2.91913813e-04
8.38000000e-01	1.19178721e-02	3.00128918e-04
8.39000000e-01	1.19516343e-02	3.09427559e-04
8.40000000e-01	1.17641951e-02	3.05501437e-04
8.41000000e-01	1.17756857e-02	3.19448000e-04
8.42000000e-01	1.19922897e-02	3.29333023e-04
8.43000000e-01	1.16046195e-02	3.30056682e-04
8.44000000e-01	1.16155223e-02	3.36977799e-04
8.45000000e-01	1.14764151e-02	3.42638284e-04
8.46000000e-01	1.17689529e-02	3.58842877e-04
8.47000000e-01	1.15043602e-02	3.63173342e-04
8.48000000e-01	1.19651974e-02	3.85398880e-04
8.49000000e-01	1.18878380e-02	3.97499024e-04
8.50000000e-01	1.12465142e-02	3.87637357e-04
8.51000000e-01	1.12850350e-02	4.05818171e-04
8.52000000e-01	1.15878197e-02	4.30396793e-04
8.53000000e-01	1.15003301e-02	4.50069527e-04
8.54000000e-01	1.15311739e-02	4.70309967e-04
8.55000000e-01	1.15134788e-02	4.84040514e-04
8.56000000e-01	1.15664440e-02	4.97420492e-04
8.57000000e-01	1.14262096e-02	5.03124255e-04
8.58000000e-01	1.13577791e-02	5.25588287e-04
8.59000000e-01	1.12157819e-02	5.27608885e-04
8.60000000e-01	1.08863010e-02	5.33938608e-04
8.61000000e-01	1.11194237e-02	5.61148292e-04
8.62000000e-01	1.13467909e-02	5.90870026e-04
8.63000000e-01	1.11307331e-02	6.14985919e-04
8.64000000e-01	1.13957066e-02	6.37491620e-04
8.65000000e-01	1.10893818e-02	6.51941167e-04
8.66000000e-01	1.11115792e-02	6.96138196e-04
8.67000000e-01	1.16574041e-02	7.60099323e-04
8.68000000e-01	1.20252332e-02	8.37559673e-04
8.69000000e-01	1.07831996e-02	8.33086885e-04
8.70000000e-01	1.13703861e-02	9.43473285e-04
8.71000000e-01	1.13993705e-02	1.04988336e-03
8.72000000e-01	1.19115856e-02	1.20368696e-03
8.73000000e-01	1.03625264e-02	1.24953064e-03
8.74000000e-01	1.14895998e-02	1.83389682e-03
8.75000000e-01	1.23922106e-02	4.07635147e-03
