% Filename : SSW21_00035_00011.h5
% Date & Time : 30-Oct-2025 17:32:16
% X-ray Energy (keV) : 13.30001
% Exposure Time (s) : 0.500
% Beam Center : 1461.24000, 208.98300
% Sample to Detector Distance (SDD) (mm) : 1990.750
% Detector Pixel Size (mm) : 0.075
% Photodiode Value : 141332.000
% I0 of Sample : 0
% I0 of Standard : 1
% 
% q(A^-1)   I(q)    I(q)_SE
0.00000000e+00	1.02265204e-02	6.51815836e-03
2.50000000e-04	0.00000000e+00	0.00000000e+00
5.00000000e-04	0.00000000e+00	0.00000000e+00
7.50000000e-04	0.00000000e+00	0.00000000e+00
1.00000000e-03	0.00000000e+00	0.00000000e+00
1.25000000e-03	0.00000000e+00	0.00000000e+00
1.50000000e-03	0.00000000e+00	0.00000000e+00
1.75000000e-03	0.00000000e+00	0.00000000e+00
2.00000000e-03	0.00000000e+00	0.00000000e+00
2.25000000e-03	0.00000000e+00	0.00000000e+00
2.50000000e-03	0.00000000e+00	0.00000000e+00
2.75000000e-03	0.00000000e+00	0.00000000e+00
3.00000000e-03	0.00000000e+00	0.00000000e+00
3.25000000e-03	1.11965327e+03	6.78379730e+02
3.50000000e-03	2.13781229e+02	1.07446164e+02
3.75000000e-03	1.14182167e+02	4.85378424e+01
4.00000000e-03	9.91597698e+01	3.79348814e+01
4.25000000e-03	4.56903701e+01	1.48657274e+01
4.50000000e-03	5.63113983e+01	1.63435778e+01
4.75000000e-03	5.59902946e+01	1.35530572e+01
5.00000000e-03	4.40938463e+01	1.02913497e+01
5.25000000e-03	3.60851929e+01	8.31124140e+00
5.50000000e-03	2.97102412e+01	6.68931256e+00
5.75000000e-03	2.52924546e+01	5.54588689e+00
6.00000000e-03	2.05566274e+01	4.31561235e+00
6.25000000e-03	1.84550469e+01	3.89519047e+00
6.50000000e-03	1.55737336e+01	3.26829359e+00
6.75000000e-03	1.30676940e+01	2.59626042e+00
7.00000000e-03	1.13583812e+01	2.22861032e+00
7.25000000e-03	9.29724595e+00	1.74560114e+00
7.50000000e-03	8.36128487e+00	1.59968772e+00
7.75000000e-03	7.21788313e+00	1.32153322e+00
8.00000000e-03	6.61851237e+00	1.18458792e+00
8.25000000e-03	5.64755286e+00	9.77155969e-01
8.50000000e-03	5.09076606e+00	8.77218425e-01
8.75000000e-03	4.53585394e+00	7.63636052e-01
9.00000000e-03	4.04969937e+00	6.67661988e-01
9.25000000e-03	3.55307619e+00	5.78927702e-01
9.50000000e-03	3.13172486e+00	5.06710371e-01
9.75000000e-03	2.86034598e+00	4.48006398e-01
1.00000000e-02	2.53632803e+00	3.97574537e-01
1.02500000e-02	2.39959482e+00	3.71677301e-01
1.05000000e-02	2.12337675e+00	3.14847187e-01
1.07500000e-02	1.90946928e+00	2.83562664e-01
1.10000000e-02	1.70384179e+00	2.45284903e-01
1.12500000e-02	1.56199889e+00	2.25727391e-01
1.15000000e-02	1.45183753e+00	2.00509841e-01
1.17500000e-02	1.22912648e+00	1.63707888e-01
1.20000000e-02	1.18920925e+00	1.54835310e-01
1.22500000e-02	1.13387701e+00	1.47862676e-01
1.25000000e-02	1.05489368e+00	1.33943241e-01
1.27500000e-02	9.83488902e-01	1.25592058e-01
1.30000000e-02	9.07185317e-01	1.11697198e-01
1.32500000e-02	8.29544481e-01	9.97151757e-02
1.35000000e-02	7.62091654e-01	9.09290568e-02
1.37500000e-02	7.23238983e-01	8.56671020e-02
1.40000000e-02	6.66678234e-01	7.79473986e-02
1.42500000e-02	6.12187580e-01	6.89296080e-02
1.45000000e-02	5.78166531e-01	6.40220298e-02
1.47500000e-02	5.39115217e-01	5.88414797e-02
1.50000000e-02	5.02561948e-01	5.44131564e-02
1.52500000e-02	4.74709574e-01	5.05634855e-02
1.55000000e-02	4.38924195e-01	4.60000200e-02
1.57500000e-02	4.10499669e-01	4.23195302e-02
1.60000000e-02	3.91868934e-01	3.91886592e-02
1.62500000e-02	3.85705380e-01	3.88086327e-02
1.65000000e-02	3.52133249e-01	3.44943587e-02
1.67500000e-02	3.37515812e-01	3.23153497e-02
1.70000000e-02	3.20649714e-01	3.08002778e-02
1.72500000e-02	3.00980662e-01	2.84649709e-02
1.75000000e-02	2.87706779e-01	2.70515429e-02
1.77500000e-02	2.72964709e-01	2.51082515e-02
1.80000000e-02	2.66811955e-01	2.40932993e-02
1.82500000e-02	2.44815715e-01	2.13876593e-02
1.85000000e-02	2.33976932e-01	2.08435188e-02
1.87500000e-02	2.19105093e-01	1.86330086e-02
1.90000000e-02	2.13363127e-01	1.79000797e-02
1.92500000e-02	2.04631546e-01	1.65867371e-02
1.95000000e-02	1.92155809e-01	1.55886566e-02
1.97500000e-02	1.92637098e-01	1.59441782e-02
2.00000000e-02	1.76580673e-01	1.38742157e-02
2.02500000e-02	1.66666957e-01	1.28115824e-02
2.05000000e-02	1.67404519e-01	1.28254302e-02
2.07500000e-02	1.59962561e-01	1.21441301e-02
2.10000000e-02	1.55242414e-01	1.21253818e-02
2.12500000e-02	1.53550471e-01	1.17604487e-02
2.15000000e-02	1.49154870e-01	1.11308483e-02
2.17500000e-02	1.44954080e-01	1.09271015e-02
2.20000000e-02	1.43506825e-01	1.06177253e-02
2.22500000e-02	1.35543928e-01	9.78849347e-03
2.25000000e-02	1.34598878e-01	9.78710604e-03
2.27500000e-02	1.29326573e-01	9.20594568e-03
2.30000000e-02	1.25491094e-01	9.01008219e-03
2.32500000e-02	1.18026500e-01	8.28382477e-03
2.35000000e-02	1.20171718e-01	8.34979192e-03
2.37500000e-02	1.16953771e-01	8.00490984e-03
2.40000000e-02	1.11663286e-01	7.70951922e-03
2.42500000e-02	1.08383302e-01	7.33550965e-03
2.45000000e-02	1.05384187e-01	7.19143141e-03
2.47500000e-02	1.02241493e-01	6.75893069e-03
2.50000000e-02	1.01324207e-01	6.64024360e-03
2.52500000e-02	1.00615352e-01	6.62128470e-03
2.55000000e-02	9.63138301e-02	6.19553824e-03
2.57500000e-02	9.44373658e-02	5.99164832e-03
2.60000000e-02	9.20773072e-02	5.88192982e-03
2.62500000e-02	8.80747948e-02	5.53681349e-03
2.65000000e-02	8.65976495e-02	5.42321384e-03
2.67500000e-02	8.60089853e-02	5.29486181e-03
2.70000000e-02	8.20126592e-02	5.06935283e-03
2.72500000e-02	8.12864395e-02	4.90462189e-03
2.75000000e-02	7.98630613e-02	4.84737570e-03
2.77500000e-02	7.73350766e-02	4.65966958e-03
2.80000000e-02	7.54886550e-02	4.40140952e-03
2.82500000e-02	7.49677858e-02	4.42318796e-03
2.85000000e-02	7.46060060e-02	4.34441863e-03
2.87500000e-02	7.37365496e-02	4.27008033e-03
2.90000000e-02	7.05063299e-02	4.02587738e-03
2.92500000e-02	6.97655735e-02	3.87231397e-03
2.95000000e-02	6.96504150e-02	3.95258767e-03
2.97500000e-02	6.81218649e-02	3.82367197e-03
3.00000000e-02	6.69616959e-02	3.78070699e-03
3.02500000e-02	6.76376922e-02	3.74330906e-03
3.05000000e-02	6.51478788e-02	3.50150827e-03
3.07500000e-02	6.55422781e-02	3.51219828e-03
3.10000000e-02	6.31430525e-02	3.43947721e-03
3.12500000e-02	6.12110601e-02	3.38616457e-03
3.15000000e-02	5.98590057e-02	3.21782308e-03
3.17500000e-02	5.92006570e-02	3.11223967e-03
3.20000000e-02	5.80287855e-02	3.10678729e-03
3.22500000e-02	5.91580809e-02	3.14332639e-03
3.25000000e-02	5.59734521e-02	2.98011324e-03
3.27500000e-02	5.61499733e-02	2.94575801e-03
3.30000000e-02	5.62470748e-02	2.83912026e-03
3.32500000e-02	5.53742716e-02	2.83763091e-03
3.35000000e-02	5.45444459e-02	2.81558653e-03
3.37500000e-02	5.30548075e-02	2.67105658e-03
3.40000000e-02	5.31471067e-02	2.68224111e-03
3.42500000e-02	5.11158044e-02	2.59185792e-03
3.45000000e-02	5.10255645e-02	2.54494830e-03
3.47500000e-02	5.08325996e-02	2.58887782e-03
3.50000000e-02	4.98271851e-02	2.49820492e-03
3.52500000e-02	4.83468606e-02	2.35918648e-03
3.55000000e-02	4.80346184e-02	2.32967285e-03
3.57500000e-02	4.79547620e-02	2.38340552e-03
3.60000000e-02	4.77030466e-02	2.34877190e-03
3.62500000e-02	4.56396197e-02	2.20634416e-03
3.65000000e-02	4.67639098e-02	2.27470731e-03
3.67500000e-02	4.69304185e-02	2.27507868e-03
3.70000000e-02	4.49817992e-02	2.16603945e-03
3.72500000e-02	4.47133300e-02	2.15199871e-03
3.75000000e-02	4.45162033e-02	2.15451744e-03
3.77500000e-02	4.48998687e-02	2.13294659e-03
3.80000000e-02	4.35473380e-02	2.01884174e-03
3.82500000e-02	4.20482192e-02	1.94621571e-03
3.85000000e-02	4.36937800e-02	2.06215119e-03
3.87500000e-02	4.23045670e-02	1.93973227e-03
3.90000000e-02	4.21876931e-02	1.96712450e-03
3.92500000e-02	4.17916158e-02	1.92117660e-03
3.95000000e-02	4.16953799e-02	1.92509493e-03
3.97500000e-02	4.03272632e-02	1.82812579e-03
4.00000000e-02	4.05096255e-02	1.84371907e-03
4.02500000e-02	3.98207823e-02	1.80317195e-03
4.05000000e-02	4.04678105e-02	1.82638534e-03
4.07500000e-02	4.02285595e-02	1.81015146e-03
4.10000000e-02	3.86880534e-02	1.73533675e-03
4.12500000e-02	3.94508622e-02	1.76161485e-03
4.15000000e-02	3.91152011e-02	1.74739509e-03
4.17500000e-02	3.82135100e-02	1.69438866e-03
4.20000000e-02	3.83341020e-02	1.68623000e-03
4.22500000e-02	3.74159299e-02	1.64099152e-03
4.25000000e-02	3.70647289e-02	1.62738576e-03
4.27500000e-02	3.74121384e-02	1.62655025e-03
4.30000000e-02	3.68829399e-02	1.59896161e-03
4.32500000e-02	3.64749514e-02	1.56402391e-03
4.35000000e-02	3.58020285e-02	1.54608380e-03
4.37500000e-02	3.66684671e-02	1.57317244e-03
4.40000000e-02	3.61277174e-02	1.57280639e-03
4.42500000e-02	3.57010779e-02	1.52165121e-03
4.45000000e-02	3.57097704e-02	1.53652747e-03
4.47500000e-02	3.62798175e-02	1.54298361e-03
4.50000000e-02	3.49474672e-02	1.49697710e-03
4.52500000e-02	3.48067557e-02	1.46568653e-03
4.55000000e-02	3.47237361e-02	1.45809805e-03
4.57500000e-02	3.45940141e-02	1.44471196e-03
4.60000000e-02	3.36827538e-02	1.40561891e-03
4.62500000e-02	3.39964908e-02	1.42024758e-03
4.65000000e-02	3.55407517e-02	1.48585726e-03
4.67500000e-02	3.38306015e-02	1.40182080e-03
4.70000000e-02	3.30512639e-02	1.37057172e-03
4.72500000e-02	3.26633821e-02	1.34489438e-03
4.75000000e-02	3.43981093e-02	1.42310798e-03
4.77500000e-02	3.30434674e-02	1.35020962e-03
4.80000000e-02	3.30410177e-02	1.34717130e-03
4.82500000e-02	3.24551713e-02	1.31773630e-03
4.85000000e-02	3.29337581e-02	1.35670414e-03
4.87500000e-02	3.25680761e-02	1.32266199e-03
4.90000000e-02	3.31516504e-02	1.33164132e-03
4.92500000e-02	3.22653737e-02	1.30675634e-03
4.95000000e-02	3.24968707e-02	1.30022464e-03
4.97500000e-02	3.15592623e-02	1.28738937e-03
5.00000000e-02	3.17286885e-02	1.28199926e-03
5.02500000e-02	3.12516666e-02	1.25423179e-03
5.05000000e-02	3.06479200e-02	1.22220817e-03
5.07500000e-02	3.12766774e-02	1.24422669e-03
5.10000000e-02	3.07694126e-02	1.21333692e-03
5.12500000e-02	3.15555383e-02	1.25527534e-03
5.15000000e-02	3.14123793e-02	1.23920975e-03
5.17500000e-02	3.04655405e-02	1.20830191e-03
5.20000000e-02	3.04947792e-02	1.19011015e-03
5.22500000e-02	3.06352287e-02	1.20970339e-03
5.25000000e-02	2.99254704e-02	1.16566866e-03
5.27500000e-02	2.95930521e-02	1.15902996e-03
5.30000000e-02	2.94508195e-02	1.15928156e-03
5.32500000e-02	2.99069998e-02	1.16668231e-03
5.35000000e-02	2.89938269e-02	1.12705643e-03
5.37500000e-02	2.92444236e-02	1.14263713e-03
5.40000000e-02	2.96940971e-02	1.15300273e-03
5.42500000e-02	2.92380798e-02	1.12533952e-03
5.45000000e-02	2.90470337e-02	1.12864991e-03
5.47500000e-02	3.02728576e-02	1.15182246e-03
5.50000000e-02	2.94617592e-02	1.13273906e-03
5.52500000e-02	2.92700784e-02	1.11339735e-03
5.55000000e-02	2.93633951e-02	1.11751031e-03
5.57500000e-02	2.89666522e-02	1.11185346e-03
5.60000000e-02	2.89551467e-02	1.09282305e-03
5.62500000e-02	2.86002411e-02	1.09401091e-03
5.65000000e-02	2.78210884e-02	1.05202551e-03
5.67500000e-02	2.83400762e-02	1.08114499e-03
5.70000000e-02	2.84642695e-02	1.06722093e-03
5.72500000e-02	2.84359531e-02	1.07468029e-03
5.75000000e-02	2.79660343e-02	1.04908251e-03
5.77500000e-02	2.88688354e-02	1.06671782e-03
5.80000000e-02	2.80729309e-02	1.04568258e-03
5.82500000e-02	2.80826105e-02	1.05949353e-03
5.85000000e-02	2.77042689e-02	1.03337235e-03
5.87500000e-02	2.81501472e-02	1.04060789e-03
5.90000000e-02	2.75656177e-02	1.03543551e-03
5.92500000e-02	2.70416068e-02	1.00300738e-03
5.95000000e-02	2.72730869e-02	1.00691251e-03
5.97500000e-02	2.74804844e-02	1.01539069e-03
6.00000000e-02	2.68488294e-02	9.88386942e-04
6.02500000e-02	2.74461296e-02	1.00613206e-03
6.05000000e-02	2.63946853e-02	9.73608945e-04
6.07500000e-02	2.68659761e-02	9.88951958e-04
6.10000000e-02	2.65590371e-02	9.81056129e-04
6.12500000e-02	2.61172817e-02	9.59003333e-04
6.15000000e-02	2.64901947e-02	9.71664179e-04
6.17500000e-02	2.64725351e-02	9.62310362e-04
6.20000000e-02	2.68585865e-02	9.76717898e-04
6.22500000e-02	2.66626470e-02	9.72175510e-04
6.25000000e-02	2.61830533e-02	9.49195009e-04
6.27500000e-02	2.65318525e-02	9.61405442e-04
6.30000000e-02	2.61415986e-02	9.40711562e-04
6.32500000e-02	2.65370631e-02	9.63980525e-04
6.35000000e-02	2.59417622e-02	9.40108743e-04
6.37500000e-02	2.67989630e-02	9.65240691e-04
6.40000000e-02	2.67850633e-02	9.66808210e-04
6.42500000e-02	2.67312762e-02	9.57901821e-04
6.45000000e-02	2.63815951e-02	9.39137485e-04
6.47500000e-02	2.60016358e-02	9.28637755e-04
6.50000000e-02	2.58033814e-02	9.17097569e-04
6.52500000e-02	2.58244828e-02	9.10414103e-04
6.55000000e-02	2.63784847e-02	9.31645704e-04
6.57500000e-02	2.62515104e-02	9.29830676e-04
6.60000000e-02	2.63680808e-02	9.33581673e-04
6.62500000e-02	2.59271054e-02	9.18706218e-04
6.65000000e-02	2.54524240e-02	9.02228610e-04
6.67500000e-02	2.59180127e-02	9.12653255e-04
6.70000000e-02	2.54619084e-02	9.04046124e-04
6.72500000e-02	2.52753314e-02	8.94630108e-04
6.75000000e-02	2.52149587e-02	8.88410250e-04
6.77500000e-02	2.55491817e-02	8.91535293e-04
6.80000000e-02	2.59394062e-02	9.10404258e-04
6.82500000e-02	2.52899193e-02	8.84431245e-04
6.85000000e-02	2.54090564e-02	8.95385010e-04
6.87500000e-02	2.53364018e-02	8.82798863e-04
6.90000000e-02	2.47761895e-02	8.64024901e-04
6.92500000e-02	2.58958430e-02	8.97538047e-04
6.95000000e-02	2.49889881e-02	8.72388162e-04
6.97500000e-02	2.50429578e-02	8.73997427e-04
7.00000000e-02	2.51344338e-02	8.72857942e-04
7.02500000e-02	2.47592801e-02	8.58129379e-04
7.05000000e-02	2.50067680e-02	8.56375292e-04
7.07500000e-02	2.48704752e-02	8.63639874e-04
7.10000000e-02	2.49776701e-02	8.58793516e-04
7.12500000e-02	2.44999111e-02	8.41743291e-04
7.15000000e-02	2.51494055e-02	8.55308147e-04
7.17500000e-02	2.47663813e-02	8.46528363e-04
7.20000000e-02	2.43707609e-02	8.34479554e-04
7.22500000e-02	2.40030960e-02	8.18625852e-04
7.25000000e-02	2.46304724e-02	8.43884836e-04
7.27500000e-02	2.44105875e-02	8.33981695e-04
7.30000000e-02	2.52712553e-02	8.62063440e-04
7.32500000e-02	2.39194327e-02	8.19813179e-04
7.35000000e-02	2.45756326e-02	8.31782637e-04
7.37500000e-02	2.48039646e-02	8.35321744e-04
7.40000000e-02	2.43404739e-02	8.16929120e-04
7.42500000e-02	2.44335835e-02	8.25951515e-04
7.45000000e-02	2.50181582e-02	8.41615420e-04
7.47500000e-02	2.41681535e-02	8.08388152e-04
7.50000000e-02	2.41827254e-02	8.08141673e-04
7.52500000e-02	2.45056225e-02	8.13364413e-04
7.55000000e-02	2.41210828e-02	8.07321405e-04
7.57500000e-02	2.43984286e-02	8.10611406e-04
7.60000000e-02	2.40280870e-02	8.06859899e-04
7.62500000e-02	2.42256408e-02	8.07702493e-04
7.65000000e-02	2.46202011e-02	8.19482850e-04
7.67500000e-02	2.40281317e-02	8.00810862e-04
7.70000000e-02	2.42474089e-02	7.99915793e-04
7.72500000e-02	2.43736103e-02	8.19308956e-04
7.75000000e-02	2.42397226e-02	8.28134274e-04
7.77500000e-02	2.48821029e-02	8.51761863e-04
7.80000000e-02	2.41647136e-02	8.29635322e-04
7.82500000e-02	2.42566816e-02	8.42311113e-04
7.85000000e-02	2.47806416e-02	8.64924482e-04
7.87500000e-02	2.40804495e-02	8.36767384e-04
7.90000000e-02	2.31077294e-02	8.04840110e-04
7.92500000e-02	2.38325232e-02	8.33682279e-04
7.95000000e-02	2.40640167e-02	8.47976345e-04
7.97500000e-02	2.44175624e-02	8.60940940e-04
8.00000000e-02	2.37999083e-02	8.40911697e-04
8.02500000e-02	2.39230976e-02	8.48730659e-04
8.05000000e-02	2.42351349e-02	8.58889286e-04
8.07500000e-02	2.38267085e-02	8.52613789e-04
8.10000000e-02	2.41239675e-02	8.60861394e-04
8.12500000e-02	2.42251488e-02	8.65135382e-04
8.15000000e-02	2.38411830e-02	8.51373538e-04
8.17500000e-02	2.46244495e-02	8.83365614e-04
8.20000000e-02	2.44406530e-02	8.75823869e-04
8.22500000e-02	2.41474800e-02	8.68887776e-04
8.25000000e-02	2.42724522e-02	8.74845491e-04
8.27500000e-02	2.37701324e-02	8.52802228e-04
8.30000000e-02	2.34169240e-02	8.52329779e-04
8.32500000e-02	2.39756310e-02	8.67027246e-04
8.35000000e-02	2.41735729e-02	8.73470546e-04
8.37500000e-02	2.34135311e-02	8.43170501e-04
8.40000000e-02	2.35356119e-02	8.52995583e-04
8.42500000e-02	2.42374081e-02	8.76436029e-04
8.45000000e-02	2.36737331e-02	8.62771519e-04
8.47500000e-02	2.37624776e-02	8.69080914e-04
8.50000000e-02	2.34650216e-02	8.52165815e-04
8.52500000e-02	2.30401345e-02	8.50519084e-04
8.55000000e-02	2.39329809e-02	8.67254753e-04
8.57500000e-02	2.34761097e-02	8.66942253e-04
8.60000000e-02	2.38967091e-02	8.76234052e-04
8.62500000e-02	2.35293730e-02	8.60562203e-04
8.65000000e-02	2.31564932e-02	8.45800117e-04
8.67500000e-02	2.37105822e-02	8.65055775e-04
8.70000000e-02	2.30596841e-02	8.22420981e-04
8.72500000e-02	2.38048035e-02	8.37222598e-04
8.75000000e-02	2.37474771e-02	8.26750206e-04
8.77500000e-02	2.33879003e-02	8.15270673e-04
8.80000000e-02	2.34921686e-02	8.18490924e-04
8.82500000e-02	2.32028531e-02	8.09486116e-04
8.85000000e-02	2.33103300e-02	8.11400238e-04
8.87500000e-02	2.27773025e-02	7.73021466e-04
8.90000000e-02	2.27284328e-02	7.85658163e-04
8.92500000e-02	2.33597069e-02	7.88254939e-04
8.95000000e-02	2.34808822e-02	7.86094240e-04
8.97500000e-02	2.29865908e-02	7.74877798e-04
9.00000000e-02	2.36337631e-02	7.86745130e-04
9.02500000e-02	2.29134817e-02	7.71590744e-04
9.05000000e-02	2.27035835e-02	7.64070598e-04
9.07500000e-02	2.29630388e-02	7.64516634e-04
9.10000000e-02	2.30943034e-02	7.65133185e-04
9.12500000e-02	2.29366865e-02	7.61799577e-04
9.15000000e-02	2.30264053e-02	7.59686158e-04
9.17500000e-02	2.30448589e-02	7.63557176e-04
9.20000000e-02	2.26968086e-02	7.47995927e-04
9.22500000e-02	2.25449833e-02	7.46258764e-04
9.25000000e-02	2.29517788e-02	7.51728030e-04
9.27500000e-02	2.24171970e-02	7.42059901e-04
9.30000000e-02	2.25156585e-02	7.39390654e-04
9.32500000e-02	2.28712007e-02	7.46502707e-04
9.35000000e-02	2.28059023e-02	7.39360861e-04
9.37500000e-02	2.30829796e-02	7.44849046e-04
9.40000000e-02	2.26490710e-02	7.39594427e-04
9.42500000e-02	2.27078573e-02	7.38468123e-04
9.45000000e-02	2.27390894e-02	7.33815263e-04
9.47500000e-02	2.31484394e-02	7.49567959e-04
9.50000000e-02	2.25513487e-02	7.24676541e-04
9.52500000e-02	2.26650047e-02	7.29663989e-04
9.55000000e-02	2.25421066e-02	7.17043463e-04
9.57500000e-02	2.26979245e-02	7.32623445e-04
9.60000000e-02	2.27832857e-02	7.27649808e-04
9.62500000e-02	2.28759614e-02	7.23949944e-04
9.65000000e-02	2.19468097e-02	7.00386421e-04
9.67500000e-02	2.20447279e-02	7.06664116e-04
9.70000000e-02	2.30800543e-02	7.35421170e-04
9.72500000e-02	2.27450397e-02	7.24904347e-04
9.75000000e-02	2.21974660e-02	7.07199277e-04
9.77500000e-02	2.21820603e-02	6.98792783e-04
9.80000000e-02	2.21899455e-02	6.99425496e-04
9.82500000e-02	2.25619457e-02	7.14465326e-04
9.85000000e-02	2.29031791e-02	7.19828715e-04
9.87500000e-02	2.28840148e-02	7.16930871e-04
9.90000000e-02	2.27126167e-02	7.12783770e-04
9.92500000e-02	2.24903789e-02	7.04644036e-04
9.95000000e-02	2.25616844e-02	7.04525474e-04
9.97500000e-02	2.24560497e-02	7.03864134e-04
1.00000000e-01	2.23572093e-02	5.69743745e-04
1.00500000e-01	2.25107557e-02	4.97951248e-04
1.01000000e-01	2.23651860e-02	4.90209767e-04
1.01500000e-01	2.25791419e-02	4.95857417e-04
1.02000000e-01	2.20105849e-02	4.81029166e-04
1.02500000e-01	2.23611113e-02	4.84956817e-04
1.03000000e-01	2.20923798e-02	4.81584789e-04
1.03500000e-01	2.22408541e-02	4.80919714e-04
1.04000000e-01	2.22165189e-02	4.80723610e-04
1.04500000e-01	2.23663888e-02	4.84339926e-04
1.05000000e-01	2.17470246e-02	4.65058750e-04
1.05500000e-01	2.19821639e-02	4.71600318e-04
1.06000000e-01	2.20811877e-02	4.72287740e-04
1.06500000e-01	2.21522649e-02	4.72962289e-04
1.07000000e-01	2.18804121e-02	4.75869295e-04
1.07500000e-01	2.20169528e-02	4.82381423e-04
1.08000000e-01	2.20495933e-02	4.88939534e-04
1.08500000e-01	2.17787157e-02	4.86178628e-04
1.09000000e-01	2.19686145e-02	4.92647946e-04
1.09500000e-01	2.14438351e-02	4.85635632e-04
1.10000000e-01	2.21241221e-02	4.94330393e-04
1.10500000e-01	2.21811259e-02	4.82452357e-04
1.11000000e-01	2.17507599e-02	4.67508963e-04
1.11500000e-01	2.20314872e-02	4.71455662e-04
1.12000000e-01	2.20614450e-02	4.67596654e-04
1.12500000e-01	2.18552677e-02	4.59682806e-04
1.13000000e-01	2.19174085e-02	4.59771315e-04
1.13500000e-01	2.18104877e-02	4.59350396e-04
1.14000000e-01	2.20568101e-02	4.59550990e-04
1.14500000e-01	2.17187601e-02	4.53661819e-04
1.15000000e-01	2.17278828e-02	4.50609318e-04
1.15500000e-01	2.20180976e-02	4.53858351e-04
1.16000000e-01	2.19292190e-02	4.51140207e-04
1.16500000e-01	2.17823665e-02	4.49886112e-04
1.17000000e-01	2.20708281e-02	4.53849206e-04
1.17500000e-01	2.15852472e-02	4.42374308e-04
1.18000000e-01	2.19090919e-02	4.49998512e-04
1.18500000e-01	2.17071827e-02	4.40277047e-04
1.19000000e-01	2.15524191e-02	4.37412742e-04
1.19500000e-01	2.15175452e-02	4.36678658e-04
1.20000000e-01	2.15605419e-02	4.35550796e-04
1.20500000e-01	2.15119799e-02	4.32954021e-04
1.21000000e-01	2.17122879e-02	4.38131001e-04
1.21500000e-01	2.15536116e-02	4.33684400e-04
1.22000000e-01	2.16870854e-02	4.33957816e-04
1.22500000e-01	2.15469746e-02	4.32965512e-04
1.23000000e-01	2.13851133e-02	4.27333013e-04
1.23500000e-01	2.14790204e-02	4.28926772e-04
1.24000000e-01	2.17047581e-02	4.31296541e-04
1.24500000e-01	2.19448627e-02	4.34138506e-04
1.25000000e-01	2.18100057e-02	4.32018618e-04
1.25500000e-01	2.17160586e-02	4.27112736e-04
1.26000000e-01	2.19529918e-02	4.31055609e-04
1.26500000e-01	2.17918869e-02	4.28582630e-04
1.27000000e-01	2.17190955e-02	4.25873160e-04
1.27500000e-01	2.17059507e-02	4.24600404e-04
1.28000000e-01	2.19278970e-02	4.30410951e-04
1.28500000e-01	2.17585723e-02	4.24130383e-04
1.29000000e-01	2.13673205e-02	4.17435813e-04
1.29500000e-01	2.16113531e-02	4.19552263e-04
1.30000000e-01	2.15390347e-02	4.16494510e-04
1.30500000e-01	2.17711299e-02	4.19522874e-04
1.31000000e-01	2.17729716e-02	4.20163389e-04
1.31500000e-01	2.14386994e-02	4.14166552e-04
1.32000000e-01	2.18880674e-02	4.20462208e-04
1.32500000e-01	2.15961679e-02	4.13956557e-04
1.33000000e-01	2.16460878e-02	4.12802936e-04
1.33500000e-01	2.17802312e-02	4.12488386e-04
1.34000000e-01	2.16795898e-02	4.12106963e-04
1.34500000e-01	2.15507011e-02	4.08940789e-04
1.35000000e-01	2.15096626e-02	4.04227805e-04
1.35500000e-01	2.14310834e-02	4.05282873e-04
1.36000000e-01	2.14142340e-02	4.02662181e-04
1.36500000e-01	2.14614550e-02	4.07894769e-04
1.37000000e-01	2.16738269e-02	4.06550831e-04
1.37500000e-01	2.16433129e-02	4.04413055e-04
1.38000000e-01	2.11156603e-02	3.96067675e-04
1.38500000e-01	2.13651692e-02	4.00105381e-04
1.39000000e-01	2.16430586e-02	4.05293072e-04
1.39500000e-01	2.12727805e-02	3.97922584e-04
1.40000000e-01	2.16375270e-02	4.05076748e-04
1.40500000e-01	2.11961232e-02	3.94027408e-04
1.41000000e-01	2.11641517e-02	3.93948728e-04
1.41500000e-01	2.11141634e-02	3.95152484e-04
1.42000000e-01	2.10445593e-02	3.90661205e-04
1.42500000e-01	2.14438945e-02	3.98764028e-04
1.43000000e-01	2.10144606e-02	3.89061546e-04
1.43500000e-01	2.10225631e-02	3.87590599e-04
1.44000000e-01	2.12770377e-02	3.91851299e-04
1.44500000e-01	2.12980962e-02	3.90571812e-04
1.45000000e-01	2.10101154e-02	3.87094565e-04
1.45500000e-01	2.10044066e-02	3.85695743e-04
1.46000000e-01	2.10558127e-02	3.84751166e-04
1.46500000e-01	2.09601872e-02	3.83235779e-04
1.47000000e-01	2.11046623e-02	3.84764145e-04
1.47500000e-01	2.09490972e-02	3.80699276e-04
1.48000000e-01	2.11032358e-02	3.84501653e-04
1.48500000e-01	2.11056976e-02	3.83597474e-04
1.49000000e-01	2.08655040e-02	3.76598472e-04
1.49500000e-01	2.08962857e-02	3.78803649e-04
1.50000000e-01	2.12094638e-02	3.84125273e-04
1.50500000e-01	2.09165225e-02	3.78625159e-04
1.51000000e-01	2.08626740e-02	3.76906905e-04
1.51500000e-01	2.08919870e-02	3.74325454e-04
1.52000000e-01	2.08161880e-02	3.73617053e-04
1.52500000e-01	2.10326639e-02	3.76373271e-04
1.53000000e-01	2.08297545e-02	3.74571548e-04
1.53500000e-01	2.08404631e-02	3.72126689e-04
1.54000000e-01	2.08544662e-02	3.71514785e-04
1.54500000e-01	2.05645090e-02	3.73732641e-04
1.55000000e-01	2.02606579e-02	3.74059441e-04
1.55500000e-01	2.07193787e-02	3.83277157e-04
1.56000000e-01	2.05219147e-02	3.82439314e-04
1.56500000e-01	2.04380717e-02	3.80746788e-04
1.57000000e-01	2.07621671e-02	3.86175512e-04
1.57500000e-01	2.05773648e-02	3.77616926e-04
1.58000000e-01	2.05589857e-02	3.70950508e-04
1.58500000e-01	2.03652336e-02	3.66980742e-04
1.59000000e-01	2.05582072e-02	3.66488622e-04
1.59500000e-01	2.05591740e-02	3.65594901e-04
1.60000000e-01	2.06740439e-02	3.67988783e-04
1.60500000e-01	2.04389547e-02	3.61751372e-04
1.61000000e-01	2.07089959e-02	3.66852604e-04
1.61500000e-01	2.04604682e-02	3.59474028e-04
1.62000000e-01	2.06330465e-02	3.63196619e-04
1.62500000e-01	2.04467462e-02	3.60338130e-04
1.63000000e-01	2.04907041e-02	3.59320593e-04
1.63500000e-01	2.04908399e-02	3.60750861e-04
1.64000000e-01	2.04725165e-02	3.56952929e-04
1.64500000e-01	2.05034909e-02	3.57979652e-04
1.65000000e-01	2.06412257e-02	3.59987044e-04
1.65500000e-01	2.03529957e-02	3.53282679e-04
1.66000000e-01	2.03984396e-02	3.54342633e-04
1.66500000e-01	2.04691213e-02	3.54269181e-04
1.67000000e-01	2.02428427e-02	3.51313401e-04
1.67500000e-01	2.03587619e-02	3.52559819e-04
1.68000000e-01	2.05946496e-02	3.55790539e-04
1.68500000e-01	2.03449650e-02	3.49305463e-04
1.69000000e-01	2.03864463e-02	3.51400556e-04
1.69500000e-01	2.00757306e-02	3.44135311e-04
1.70000000e-01	2.03056002e-02	3.49028880e-04
1.70500000e-01	2.01049794e-02	3.43923849e-04
1.71000000e-01	2.02427027e-02	3.45343875e-04
1.71500000e-01	2.06254858e-02	3.52595956e-04
1.72000000e-01	2.02267602e-02	3.45522668e-04
1.72500000e-01	2.00654964e-02	3.42816428e-04
1.73000000e-01	2.01782214e-02	3.43130141e-04
1.73500000e-01	2.01179787e-02	3.41082507e-04
1.74000000e-01	1.99704849e-02	3.38036373e-04
1.74500000e-01	2.00577702e-02	3.36545281e-04
1.75000000e-01	2.02475052e-02	3.39229127e-04
1.75500000e-01	2.01271727e-02	3.36561609e-04
1.76000000e-01	2.03229575e-02	3.40600010e-04
1.76500000e-01	1.99686387e-02	3.35698633e-04
1.77000000e-01	2.01161286e-02	3.36559189e-04
1.77500000e-01	2.00203002e-02	3.35430107e-04
1.78000000e-01	2.01515508e-02	3.34946756e-04
1.78500000e-01	1.99590043e-02	3.34448785e-04
1.79000000e-01	1.99957989e-02	3.33720549e-04
1.79500000e-01	1.96154265e-02	3.28376196e-04
1.80000000e-01	1.99727283e-02	3.33405169e-04
1.80500000e-01	1.99761241e-02	3.32253081e-04
1.81000000e-01	1.96453585e-02	3.27981580e-04
1.81500000e-01	1.99367025e-02	3.31009734e-04
1.82000000e-01	2.00027825e-02	3.32255934e-04
1.82500000e-01	1.98476489e-02	3.28274538e-04
1.83000000e-01	1.98714695e-02	3.29440017e-04
1.83500000e-01	1.96707188e-02	3.26858275e-04
1.84000000e-01	1.97270185e-02	3.25919871e-04
1.84500000e-01	1.99279521e-02	3.29618104e-04
1.85000000e-01	1.97657620e-02	3.25966524e-04
1.85500000e-01	1.98908498e-02	3.26350147e-04
1.86000000e-01	1.99168552e-02	3.26338036e-04
1.86500000e-01	1.99063848e-02	3.27061017e-04
1.87000000e-01	1.99547325e-02	3.26196371e-04
1.87500000e-01	1.96752065e-02	3.20626100e-04
1.88000000e-01	1.98624783e-02	3.24536729e-04
1.88500000e-01	1.96642207e-02	3.20535673e-04
1.89000000e-01	1.95680911e-02	3.19451142e-04
1.89500000e-01	1.99269652e-02	3.24896283e-04
1.90000000e-01	1.97382148e-02	3.20195641e-04
1.90500000e-01	1.97930273e-02	3.21005165e-04
1.91000000e-01	1.94890898e-02	3.16728273e-04
1.91500000e-01	1.94786949e-02	3.16508600e-04
1.92000000e-01	1.97365321e-02	3.19244113e-04
1.92500000e-01	1.94063966e-02	3.14807565e-04
1.93000000e-01	1.96472594e-02	3.18350240e-04
1.93500000e-01	1.96666989e-02	3.16983627e-04
1.94000000e-01	1.96838579e-02	3.17514837e-04
1.94500000e-01	1.93932401e-02	3.11365401e-04
1.95000000e-01	1.98173462e-02	3.17983646e-04
1.95500000e-01	1.93723336e-02	3.10540918e-04
1.96000000e-01	1.95237324e-02	3.12376916e-04
1.96500000e-01	1.94791899e-02	3.12326206e-04
1.97000000e-01	1.95104793e-02	3.12561747e-04
1.97500000e-01	1.95746736e-02	3.12573763e-04
1.98000000e-01	1.93967699e-02	3.09748264e-04
1.98500000e-01	1.94349119e-02	3.07787705e-04
1.99000000e-01	1.91871875e-02	3.06078804e-04
1.99500000e-01	1.97596502e-02	3.12859450e-04
2.00000000e-01	1.94278539e-02	3.08213460e-04
2.00500000e-01	1.93495135e-02	3.07334977e-04
2.01000000e-01	1.92697921e-02	3.05386505e-04
2.01500000e-01	1.92795768e-02	3.04879581e-04
2.02000000e-01	1.93510811e-02	3.05300886e-04
2.02500000e-01	1.92945521e-02	3.03723695e-04
2.03000000e-01	1.94788512e-02	3.05526259e-04
2.03500000e-01	1.90648286e-02	3.00864206e-04
2.04000000e-01	1.92626494e-02	3.01895946e-04
2.04500000e-01	1.91606547e-02	3.02307244e-04
2.05000000e-01	1.93310743e-02	3.02760566e-04
2.05500000e-01	1.93678208e-02	3.03685450e-04
2.06000000e-01	1.93148436e-02	3.02116082e-04
2.06500000e-01	1.91616985e-02	2.99063595e-04
2.07000000e-01	1.91957176e-02	2.98894291e-04
2.07500000e-01	1.90653201e-02	2.96251264e-04
2.08000000e-01	1.91227183e-02	2.98059687e-04
2.08500000e-01	1.88740386e-02	2.94011005e-04
2.09000000e-01	1.90097174e-02	2.96993307e-04
2.09500000e-01	1.92950223e-02	2.98660605e-04
2.10000000e-01	1.91502667e-02	2.96360203e-04
2.10500000e-01	1.91181810e-02	2.96706311e-04
2.11000000e-01	1.91593675e-02	2.94451392e-04
2.11500000e-01	1.91841402e-02	2.96189686e-04
2.12000000e-01	1.87741910e-02	2.90357237e-04
2.12500000e-01	1.86176506e-02	2.88501539e-04
2.13000000e-01	1.90871215e-02	2.93461257e-04
2.13500000e-01	1.88346300e-02	2.89685848e-04
2.14000000e-01	1.90404558e-02	2.91328006e-04
2.14500000e-01	1.89852120e-02	2.91314283e-04
2.15000000e-01	1.89175934e-02	2.92458850e-04
2.15500000e-01	1.88554160e-02	2.88850951e-04
2.16000000e-01	1.91831008e-02	2.93119367e-04
2.16500000e-01	1.92113421e-02	2.94211919e-04
2.17000000e-01	1.87891173e-02	2.91269438e-04
2.17500000e-01	1.89442569e-02	2.97673290e-04
2.18000000e-01	1.86978065e-02	2.95302252e-04
2.18500000e-01	1.89862884e-02	3.00636141e-04
2.19000000e-01	1.89414622e-02	3.01469241e-04
2.19500000e-01	1.88382816e-02	3.01551481e-04
2.20000000e-01	1.88482476e-02	3.04208979e-04
2.20500000e-01	1.88251610e-02	3.03756749e-04
2.21000000e-01	1.89171886e-02	3.05034745e-04
2.21500000e-01	1.85929353e-02	3.02527467e-04
2.22000000e-01	1.87074940e-02	3.03382323e-04
2.22500000e-01	1.89423255e-02	3.08969457e-04
2.23000000e-01	1.88443196e-02	3.07368249e-04
2.23500000e-01	1.89010580e-02	3.09763809e-04
2.24000000e-01	1.88350425e-02	3.08384302e-04
2.24500000e-01	1.88662000e-02	3.11535817e-04
2.25000000e-01	1.88443413e-02	3.11415663e-04
2.25500000e-01	1.87752484e-02	3.09364673e-04
2.26000000e-01	1.87198579e-02	3.11767292e-04
2.26500000e-01	1.88254864e-02	3.05215554e-04
2.27000000e-01	1.88830240e-02	3.04137495e-04
2.27500000e-01	1.87635454e-02	2.99085877e-04
2.28000000e-01	1.87298557e-02	2.98222897e-04
2.28500000e-01	1.85968218e-02	2.94186084e-04
2.29000000e-01	1.89113166e-02	2.98667860e-04
2.29500000e-01	1.86693243e-02	2.93026566e-04
2.30000000e-01	1.88391508e-02	2.94499983e-04
2.30500000e-01	1.87788586e-02	2.91496817e-04
2.31000000e-01	1.87829825e-02	2.94059657e-04
2.31500000e-01	1.88606306e-02	2.92491287e-04
2.32000000e-01	1.86014190e-02	2.88089058e-04
2.32500000e-01	1.85808898e-02	2.88012519e-04
2.33000000e-01	1.87989823e-02	2.88611024e-04
2.33500000e-01	1.84235997e-02	2.83546360e-04
2.34000000e-01	1.85064489e-02	2.84147298e-04
2.34500000e-01	1.85599022e-02	2.84701139e-04
2.35000000e-01	1.82814056e-02	2.80026426e-04
2.35500000e-01	1.83794289e-02	2.81494227e-04
2.36000000e-01	1.84987797e-02	2.81814183e-04
2.36500000e-01	1.85508294e-02	2.82564691e-04
2.37000000e-01	1.83000724e-02	2.77852532e-04
2.37500000e-01	1.81582404e-02	2.76583963e-04
2.38000000e-01	1.85480404e-02	2.79119081e-04
2.38500000e-01	1.84345965e-02	2.79033334e-04
2.39000000e-01	1.82082931e-02	2.75409942e-04
2.39500000e-01	1.82574141e-02	2.75723527e-04
2.40000000e-01	1.83529519e-02	2.76100471e-04
2.40500000e-01	1.85725588e-02	2.77477848e-04
2.41000000e-01	1.84283189e-02	2.77300100e-04
2.41500000e-01	1.84010085e-02	2.74772785e-04
2.42000000e-01	1.83662037e-02	2.75682051e-04
2.42500000e-01	1.84326609e-02	2.74633516e-04
2.43000000e-01	1.84257199e-02	2.74280021e-04
2.43500000e-01	1.84242210e-02	2.74544928e-04
2.44000000e-01	1.84566752e-02	2.74491223e-04
2.44500000e-01	1.84028139e-02	2.74102778e-04
2.45000000e-01	1.83856992e-02	2.72792400e-04
2.45500000e-01	1.81017904e-02	2.68780239e-04
2.46000000e-01	1.81578120e-02	2.69327030e-04
2.46500000e-01	1.83209784e-02	2.70295011e-04
2.47000000e-01	1.83563216e-02	2.71868995e-04
2.47500000e-01	1.83020104e-02	2.68765635e-04
2.48000000e-01	1.83253652e-02	2.70540559e-04
2.48500000e-01	1.82464962e-02	2.68876815e-04
2.49000000e-01	1.84019277e-02	2.70262966e-04
2.49500000e-01	1.81219894e-02	2.65432089e-04
2.50000000e-01	1.81883914e-02	2.66464617e-04
2.50500000e-01	1.82624099e-02	2.68565457e-04
2.51000000e-01	1.81722467e-02	2.64685279e-04
2.51500000e-01	1.83229330e-02	2.68189629e-04
2.52000000e-01	1.82739951e-02	2.66836885e-04
2.52500000e-01	1.82438925e-02	2.66169402e-04
2.53000000e-01	1.81096113e-02	2.63845517e-04
2.53500000e-01	1.81367877e-02	2.63603384e-04
2.54000000e-01	1.82685459e-02	2.65819343e-04
2.54500000e-01	1.78576474e-02	2.58074261e-04
2.55000000e-01	1.81068162e-02	2.62056227e-04
2.55500000e-01	1.80504010e-02	2.61146377e-04
2.56000000e-01	1.81453671e-02	2.62597929e-04
2.56500000e-01	1.80493264e-02	2.60853401e-04
2.57000000e-01	1.78765464e-02	2.57984806e-04
2.57500000e-01	1.78321301e-02	2.56922370e-04
2.58000000e-01	1.81199890e-02	2.61357553e-04
2.58500000e-01	1.79448394e-02	2.59386545e-04
2.59000000e-01	1.80161825e-02	2.58912736e-04
2.59500000e-01	1.80964710e-02	2.60481005e-04
2.60000000e-01	1.78059296e-02	2.56018748e-04
2.60500000e-01	1.81166234e-02	2.58424900e-04
2.61000000e-01	1.80418918e-02	2.58168034e-04
2.61500000e-01	1.80782981e-02	2.59422609e-04
2.62000000e-01	1.80634543e-02	2.58318733e-04
2.62500000e-01	1.77248226e-02	2.53757998e-04
2.63000000e-01	1.80651152e-02	2.57173043e-04
2.63500000e-01	1.79480393e-02	2.55013878e-04
2.64000000e-01	1.78879028e-02	2.55018435e-04
2.64500000e-01	1.79154441e-02	2.54495911e-04
2.65000000e-01	1.77545973e-02	2.53320607e-04
2.65500000e-01	1.79551760e-02	2.55319473e-04
2.66000000e-01	1.77404134e-02	2.52169518e-04
2.66500000e-01	1.80596495e-02	2.55450499e-04
2.67000000e-01	1.76265832e-02	2.48955420e-04
2.67500000e-01	1.80602464e-02	2.54441273e-04
2.68000000e-01	1.77611563e-02	2.50128388e-04
2.68500000e-01	1.78442435e-02	2.51867581e-04
2.69000000e-01	1.77434378e-02	2.49926496e-04
2.69500000e-01	1.79000079e-02	2.50623728e-04
2.70000000e-01	1.77442433e-02	2.49619663e-04
2.70500000e-01	1.78104381e-02	2.50373182e-04
2.71000000e-01	1.77562379e-02	2.48497084e-04
2.71500000e-01	1.79215412e-02	2.50849735e-04
2.72000000e-01	1.76421229e-02	2.46698182e-04
2.72500000e-01	1.77519089e-02	2.48503424e-04
2.73000000e-01	1.76628699e-02	2.46558414e-04
2.73500000e-01	1.78122497e-02	2.47712195e-04
2.74000000e-01	1.78218246e-02	2.47195250e-04
2.74500000e-01	1.78018381e-02	2.47149616e-04
2.75000000e-01	1.75920865e-02	2.44755910e-04
2.75500000e-01	1.79557600e-02	2.49363608e-04
2.76000000e-01	1.77586209e-02	2.46560375e-04
2.76500000e-01	1.77014774e-02	2.46265228e-04
2.77000000e-01	1.76027831e-02	2.44062476e-04
2.77500000e-01	1.76623919e-02	2.45242672e-04
2.78000000e-01	1.75195505e-02	2.42186634e-04
2.78500000e-01	1.78096474e-02	2.46220873e-04
2.79000000e-01	1.76569979e-02	2.43298927e-04
2.79500000e-01	1.75461846e-02	2.42049332e-04
2.80000000e-01	1.75835315e-02	2.42632448e-04
2.80500000e-01	1.73963769e-02	2.40019675e-04
2.81000000e-01	1.78659340e-02	2.46642362e-04
2.81500000e-01	1.76061995e-02	2.41721477e-04
2.82000000e-01	1.74203739e-02	2.40635845e-04
2.82500000e-01	1.77851355e-02	2.44569368e-04
2.83000000e-01	1.75528338e-02	2.40621428e-04
2.83500000e-01	1.76601217e-02	2.42243324e-04
2.84000000e-01	1.75640162e-02	2.41041006e-04
2.84500000e-01	1.75133688e-02	2.40648992e-04
2.85000000e-01	1.76391599e-02	2.40708076e-04
2.85500000e-01	1.73514846e-02	2.37034521e-04
2.86000000e-01	1.73363504e-02	2.37598094e-04
2.86500000e-01	1.74669043e-02	2.38314202e-04
2.87000000e-01	1.75046620e-02	2.38524073e-04
2.87500000e-01	1.74105216e-02	2.36378366e-04
2.88000000e-01	1.75289075e-02	2.36977808e-04
2.88500000e-01	1.73498702e-02	2.35901011e-04
2.89000000e-01	1.75506950e-02	2.37579609e-04
2.89500000e-01	1.74853498e-02	2.37262968e-04
2.90000000e-01	1.74784079e-02	2.36128613e-04
2.90500000e-01	1.74910726e-02	2.36461513e-04
2.91000000e-01	1.73719316e-02	2.34729047e-04
2.91500000e-01	1.74395842e-02	2.35596910e-04
2.92000000e-01	1.73745874e-02	2.33919604e-04
2.92500000e-01	1.75447479e-02	2.35920503e-04
2.93000000e-01	1.74782081e-02	2.34753967e-04
2.93500000e-01	1.74854552e-02	2.34778223e-04
2.94000000e-01	1.74839197e-02	2.35322395e-04
2.94500000e-01	1.74603895e-02	2.34651649e-04
2.95000000e-01	1.75625386e-02	2.34686729e-04
2.95500000e-01	1.73866564e-02	2.32702309e-04
2.96000000e-01	1.74864241e-02	2.34417435e-04
2.96500000e-01	1.72670272e-02	2.32205986e-04
2.97000000e-01	1.73586830e-02	2.32427320e-04
2.97500000e-01	1.72534881e-02	2.29747247e-04
2.98000000e-01	1.73452261e-02	2.32053377e-04
2.98500000e-01	1.75910383e-02	2.33947351e-04
2.99000000e-01	1.73251621e-02	2.31213760e-04
2.99500000e-01	1.72691424e-02	2.30621498e-04
3.00000000e-01	1.73069357e-02	2.30842487e-04
3.00500000e-01	1.71988755e-02	2.29716932e-04
3.01000000e-01	1.74726439e-02	2.31722716e-04
3.01500000e-01	1.72523791e-02	2.29743244e-04
3.02000000e-01	1.74126447e-02	2.30609355e-04
3.02500000e-01	1.74926893e-02	2.32637582e-04
3.03000000e-01	1.73111791e-02	2.29685282e-04
3.03500000e-01	1.73060130e-02	2.28499603e-04
3.04000000e-01	1.72980878e-02	2.30051042e-04
3.04500000e-01	1.71626077e-02	2.27048120e-04
3.05000000e-01	1.73615535e-02	2.29225095e-04
3.05500000e-01	1.72656037e-02	2.27600827e-04
3.06000000e-01	1.72451316e-02	2.26412654e-04
3.06500000e-01	1.72800490e-02	2.27624673e-04
3.07000000e-01	1.71956190e-02	2.26184993e-04
3.07500000e-01	1.72092076e-02	2.25902731e-04
3.08000000e-01	1.72099147e-02	2.26179089e-04
3.08500000e-01	1.70906518e-02	2.24142742e-04
3.09000000e-01	1.72940491e-02	2.26824368e-04
3.09500000e-01	1.72038930e-02	2.25491537e-04
3.10000000e-01	1.72507481e-02	2.25761058e-04
3.10500000e-01	1.71335321e-02	2.25274900e-04
3.11000000e-01	1.71930171e-02	2.24748499e-04
3.11500000e-01	1.70484870e-02	2.23054894e-04
3.12000000e-01	1.72004632e-02	2.24828859e-04
3.12500000e-01	1.71016878e-02	2.22817277e-04
3.13000000e-01	1.72156145e-02	2.23823256e-04
3.13500000e-01	1.70550833e-02	2.22067611e-04
3.14000000e-01	1.69627553e-02	2.20830219e-04
3.14500000e-01	1.69655700e-02	2.20269721e-04
3.15000000e-01	1.72458541e-02	2.23926441e-04
3.15500000e-01	1.69844131e-02	2.20383636e-04
3.16000000e-01	1.71436357e-02	2.23053885e-04
3.16500000e-01	1.71612952e-02	2.23105794e-04
3.17000000e-01	1.70753406e-02	2.21618443e-04
3.17500000e-01	1.71180665e-02	2.22061415e-04
3.18000000e-01	1.68947897e-02	2.18394612e-04
3.18500000e-01	1.69131130e-02	2.18647073e-04
3.19000000e-01	1.69909364e-02	2.19541128e-04
3.19500000e-01	1.69396758e-02	2.18276441e-04
3.20000000e-01	1.68672323e-02	2.17847797e-04
3.20500000e-01	1.69081817e-02	2.17487739e-04
3.21000000e-01	1.69568213e-02	2.18403464e-04
3.21500000e-01	1.70108988e-02	2.19273763e-04
3.22000000e-01	1.69665379e-02	2.17971339e-04
3.22500000e-01	1.69207714e-02	2.17008013e-04
3.23000000e-01	1.69566726e-02	2.17490848e-04
3.23500000e-01	1.67422831e-02	2.15466195e-04
3.24000000e-01	1.69822618e-02	2.17766327e-04
3.24500000e-01	1.66458732e-02	2.14353135e-04
3.25000000e-01	1.69629487e-02	2.16486240e-04
3.25500000e-01	1.67344246e-02	2.14236889e-04
3.26000000e-01	1.68354598e-02	2.15524995e-04
3.26500000e-01	1.67993665e-02	2.14293614e-04
3.27000000e-01	1.69112886e-02	2.15969666e-04
3.27500000e-01	1.69159357e-02	2.15703603e-04
3.28000000e-01	1.68219745e-02	2.15283001e-04
3.28500000e-01	1.67240060e-02	2.13083006e-04
3.29000000e-01	1.66312088e-02	2.11796147e-04
3.29500000e-01	1.67409603e-02	2.13498393e-04
3.30000000e-01	1.66070669e-02	2.11974932e-04
3.30500000e-01	1.66677976e-02	2.12352329e-04
3.31000000e-01	1.67122526e-02	2.11648869e-04
3.31500000e-01	1.67876229e-02	2.13060349e-04
3.32000000e-01	1.66837053e-02	2.12572931e-04
3.32500000e-01	1.67618963e-02	2.12545369e-04
3.33000000e-01	1.67776373e-02	2.12324419e-04
3.33500000e-01	1.66572973e-02	2.10555521e-04
3.34000000e-01	1.65028814e-02	2.08919545e-04
3.34500000e-01	1.67227704e-02	2.12017428e-04
3.35000000e-01	1.66065674e-02	2.08875673e-04
3.35500000e-01	1.66532175e-02	2.10330855e-04
3.36000000e-01	1.66795764e-02	2.09802533e-04
3.36500000e-01	1.66746594e-02	2.10359732e-04
3.37000000e-01	1.66486892e-02	2.09467277e-04
3.37500000e-01	1.66482315e-02	2.09760378e-04
3.38000000e-01	1.65904430e-02	2.08973630e-04
3.38500000e-01	1.64388414e-02	2.06609303e-04
3.39000000e-01	1.64597097e-02	2.06581249e-04
3.39500000e-01	1.66406064e-02	2.08379281e-04
3.40000000e-01	1.64851770e-02	2.07300210e-04
3.40500000e-01	1.65084601e-02	2.07176663e-04
3.41000000e-01	1.65054856e-02	2.06804406e-04
3.41500000e-01	1.64631870e-02	2.06389508e-04
3.42000000e-01	1.65405828e-02	2.05733270e-04
3.42500000e-01	1.64720519e-02	2.05861824e-04
3.43000000e-01	1.64644071e-02	2.05256788e-04
3.43500000e-01	1.66203225e-02	2.06968716e-04
3.44000000e-01	1.64618026e-02	2.05477247e-04
3.44500000e-01	1.64201733e-02	2.04533539e-04
3.45000000e-01	1.63856452e-02	2.04237573e-04
3.45500000e-01	1.65177860e-02	2.05191020e-04
3.46000000e-01	1.65181609e-02	2.05724547e-04
3.46500000e-01	1.65661659e-02	2.05744656e-04
3.47000000e-01	1.65184620e-02	2.04738173e-04
3.47500000e-01	1.62342708e-02	2.01249681e-04
3.48000000e-01	1.62588811e-02	2.01519856e-04
3.48500000e-01	1.63073936e-02	2.02931444e-04
3.49000000e-01	1.64475490e-02	2.04151294e-04
3.49500000e-01	1.63361395e-02	2.02363326e-04
3.50000000e-01	1.63024519e-02	1.64711680e-04
3.51000000e-01	1.64051565e-02	1.42729271e-04
3.52000000e-01	1.62201083e-02	1.41708471e-04
3.53000000e-01	1.63529557e-02	1.41863703e-04
3.54000000e-01	1.62395096e-02	1.40711504e-04
3.55000000e-01	1.61922034e-02	1.40683732e-04
3.56000000e-01	1.61894134e-02	1.41090511e-04
3.57000000e-01	1.62424889e-02	1.44189835e-04
3.58000000e-01	1.62110862e-02	1.44911375e-04
3.59000000e-01	1.61324565e-02	1.45510358e-04
3.60000000e-01	1.62776768e-02	1.47404397e-04
3.61000000e-01	1.61060435e-02	1.46819953e-04
3.62000000e-01	1.59961410e-02	1.46183481e-04
3.63000000e-01	1.60754737e-02	1.47806719e-04
3.64000000e-01	1.61877697e-02	1.49058043e-04
3.65000000e-01	1.61217305e-02	1.49422398e-04
3.66000000e-01	1.61967087e-02	1.47969389e-04
3.67000000e-01	1.61273590e-02	1.45737979e-04
3.68000000e-01	1.59568119e-02	1.42865334e-04
3.69000000e-01	1.59593490e-02	1.42453929e-04
3.70000000e-01	1.59865752e-02	1.42020809e-04
3.71000000e-01	1.59905518e-02	1.43782702e-04
3.72000000e-01	1.60208634e-02	1.45051666e-04
3.73000000e-01	1.60394480e-02	1.45408994e-04
3.74000000e-01	1.60043613e-02	1.45016530e-04
3.75000000e-01	1.60583756e-02	1.45519019e-04
3.76000000e-01	1.58961962e-02	1.44055776e-04
3.77000000e-01	1.59987658e-02	1.45365270e-04
3.78000000e-01	1.59698794e-02	1.44870200e-04
3.79000000e-01	1.58323103e-02	1.43675740e-04
3.80000000e-01	1.59017548e-02	1.43886724e-04
3.81000000e-01	1.59763423e-02	1.44613182e-04
3.82000000e-01	1.58559734e-02	1.43718293e-04
3.83000000e-01	1.57790090e-02	1.42618985e-04
3.84000000e-01	1.58529732e-02	1.43216190e-04
3.85000000e-01	1.58559728e-02	1.44044859e-04
3.86000000e-01	1.58331792e-02	1.43345758e-04
3.87000000e-01	1.56474935e-02	1.41829846e-04
3.88000000e-01	1.57447572e-02	1.42773024e-04
3.89000000e-01	1.56692895e-02	1.42131186e-04
3.90000000e-01	1.56512617e-02	1.41630138e-04
3.91000000e-01	1.56713151e-02	1.41842837e-04
3.92000000e-01	1.57365783e-02	1.42377959e-04
3.93000000e-01	1.58425329e-02	1.42849063e-04
3.94000000e-01	1.57015775e-02	1.41787538e-04
3.95000000e-01	1.56871009e-02	1.41763638e-04
3.96000000e-01	1.56305199e-02	1.40981197e-04
3.97000000e-01	1.56486009e-02	1.41291403e-04
3.98000000e-01	1.54595490e-02	1.39975926e-04
3.99000000e-01	1.56837371e-02	1.41818001e-04
4.00000000e-01	1.57367531e-02	1.42078932e-04
4.01000000e-01	1.55165993e-02	1.40154387e-04
4.02000000e-01	1.55581297e-02	1.40651908e-04
4.03000000e-01	1.55199508e-02	1.40198400e-04
4.04000000e-01	1.54975764e-02	1.40010055e-04
4.05000000e-01	1.56212843e-02	1.40734942e-04
4.06000000e-01	1.54748204e-02	1.40081816e-04
4.07000000e-01	1.54471666e-02	1.39657980e-04
4.08000000e-01	1.55576351e-02	1.40148575e-04
4.09000000e-01	1.54034925e-02	1.38773261e-04
4.10000000e-01	1.56367046e-02	1.40816070e-04
4.11000000e-01	1.53905630e-02	1.38608091e-04
4.12000000e-01	1.54600951e-02	1.38940361e-04
4.13000000e-01	1.54145301e-02	1.39003090e-04
4.14000000e-01	1.54238000e-02	1.38714670e-04
4.15000000e-01	1.53938756e-02	1.38296417e-04
4.16000000e-01	1.53431157e-02	1.38306184e-04
4.17000000e-01	1.54809372e-02	1.39391172e-04
4.18000000e-01	1.52595572e-02	1.38605218e-04
4.19000000e-01	1.52908761e-02	1.40871538e-04
4.20000000e-01	1.54228550e-02	1.42608085e-04
4.21000000e-01	1.54783255e-02	1.43413092e-04
4.22000000e-01	1.54413422e-02	1.43903479e-04
4.23000000e-01	1.54766044e-02	1.44468201e-04
4.24000000e-01	1.55362704e-02	1.45690408e-04
4.25000000e-01	1.53936159e-02	1.44295079e-04
4.26000000e-01	1.53757835e-02	1.44238786e-04
4.27000000e-01	1.53513247e-02	1.44021445e-04
4.28000000e-01	1.54761089e-02	1.45315793e-04
4.29000000e-01	1.52623584e-02	1.44456402e-04
4.30000000e-01	1.52877600e-02	1.44055524e-04
4.31000000e-01	1.53329210e-02	1.43784326e-04
4.32000000e-01	1.53873603e-02	1.45098774e-04
4.33000000e-01	1.52795634e-02	1.44169888e-04
4.34000000e-01	1.53112569e-02	1.44179474e-04
4.35000000e-01	1.52172574e-02	1.44048413e-04
4.36000000e-01	1.52177451e-02	1.43933376e-04
4.37000000e-01	1.52700171e-02	1.44434799e-04
4.38000000e-01	1.51955010e-02	1.44089466e-04
4.39000000e-01	1.52479297e-02	1.45038729e-04
4.40000000e-01	1.51356441e-02	1.43784150e-04
4.41000000e-01	1.51170720e-02	1.43975352e-04
4.42000000e-01	1.52670731e-02	1.45741676e-04
4.43000000e-01	1.52648042e-02	1.45824333e-04
4.44000000e-01	1.50940348e-02	1.44379816e-04
4.45000000e-01	1.51333770e-02	1.44971291e-04
4.46000000e-01	1.50489894e-02	1.44386775e-04
4.47000000e-01	1.52973740e-02	1.46480049e-04
4.48000000e-01	1.51152479e-02	1.45198401e-04
4.49000000e-01	1.49661853e-02	1.44602887e-04
4.50000000e-01	1.51224110e-02	1.45487225e-04
4.51000000e-01	1.51470271e-02	1.45877841e-04
4.52000000e-01	1.50242452e-02	1.44826013e-04
4.53000000e-01	1.51792416e-02	1.46453526e-04
4.54000000e-01	1.49867612e-02	1.44695247e-04
4.55000000e-01	1.51135536e-02	1.45932740e-04
4.56000000e-01	1.50128281e-02	1.45304842e-04
4.57000000e-01	1.49973010e-02	1.45413074e-04
4.58000000e-01	1.50730388e-02	1.46011103e-04
4.59000000e-01	1.49392515e-02	1.45219994e-04
4.60000000e-01	1.50122128e-02	1.45822929e-04
4.61000000e-01	1.50360748e-02	1.45998860e-04
4.62000000e-01	1.48826050e-02	1.44896570e-04
4.63000000e-01	1.49780603e-02	1.45976169e-04
4.64000000e-01	1.50544992e-02	1.46749156e-04
4.65000000e-01	1.50051967e-02	1.46224499e-04
4.66000000e-01	1.49248459e-02	1.45557817e-04
4.67000000e-01	1.49439616e-02	1.45889475e-04
4.68000000e-01	1.49680555e-02	1.46236791e-04
4.69000000e-01	1.50154194e-02	1.46738447e-04
4.70000000e-01	1.48541521e-02	1.45498168e-04
4.71000000e-01	1.49049870e-02	1.45528726e-04
4.72000000e-01	1.47505197e-02	1.44600917e-04
4.73000000e-01	1.50611846e-02	1.47014931e-04
4.74000000e-01	1.48131492e-02	1.44765776e-04
4.75000000e-01	1.48127343e-02	1.44492740e-04
4.76000000e-01	1.47353197e-02	1.44053770e-04
4.77000000e-01	1.48782194e-02	1.45551592e-04
4.78000000e-01	1.47965169e-02	1.44884806e-04
4.79000000e-01	1.48179931e-02	1.44843818e-04
4.80000000e-01	1.49562194e-02	1.46276558e-04
4.81000000e-01	1.48080909e-02	1.45003191e-04
4.82000000e-01	1.48359942e-02	1.45395293e-04
4.83000000e-01	1.47490552e-02	1.44703131e-04
4.84000000e-01	1.48191258e-02	1.44931467e-04
4.85000000e-01	1.46944992e-02	1.44497557e-04
4.86000000e-01	1.46197299e-02	1.43885591e-04
4.87000000e-01	1.47889517e-02	1.45371445e-04
4.88000000e-01	1.46563829e-02	1.44673185e-04
4.89000000e-01	1.47783390e-02	1.45719607e-04
4.90000000e-01	1.47098240e-02	1.45389072e-04
4.91000000e-01	1.46228742e-02	1.44339082e-04
4.92000000e-01	1.48492067e-02	1.46242209e-04
4.93000000e-01	1.46764164e-02	1.44730020e-04
4.94000000e-01	1.48437590e-02	1.46284594e-04
4.95000000e-01	1.47642588e-02	1.46771417e-04
4.96000000e-01	1.45618579e-02	1.49275283e-04
4.97000000e-01	1.47347818e-02	1.53297104e-04
4.98000000e-01	1.46619799e-02	1.54765739e-04
4.99000000e-01	1.47181420e-02	1.56695700e-04
5.00000000e-01	1.48140964e-02	1.59747938e-04
5.01000000e-01	1.46878401e-02	1.60028576e-04
5.02000000e-01	1.46500730e-02	1.61673299e-04
5.03000000e-01	1.45082556e-02	1.61583046e-04
5.04000000e-01	1.46380818e-02	1.63503743e-04
5.05000000e-01	1.45974677e-02	1.61629617e-04
5.06000000e-01	1.47431975e-02	1.59468070e-04
5.07000000e-01	1.46584061e-02	1.56231077e-04
5.08000000e-01	1.47335483e-02	1.56001123e-04
5.09000000e-01	1.47156126e-02	1.55049585e-04
5.10000000e-01	1.47219628e-02	1.55030429e-04
5.11000000e-01	1.46574988e-02	1.54246798e-04
5.12000000e-01	1.45975594e-02	1.52484219e-04
5.13000000e-01	1.45853702e-02	1.52910913e-04
5.14000000e-01	1.44706744e-02	1.51187264e-04
5.15000000e-01	1.46035041e-02	1.52028855e-04
5.16000000e-01	1.45705546e-02	1.51731601e-04
5.17000000e-01	1.45615045e-02	1.51409566e-04
5.18000000e-01	1.45419741e-02	1.51002652e-04
5.19000000e-01	1.45023575e-02	1.49924684e-04
5.20000000e-01	1.44915848e-02	1.49674171e-04
5.21000000e-01	1.45185491e-02	1.49513005e-04
5.22000000e-01	1.45410200e-02	1.49582443e-04
5.23000000e-01	1.46621687e-02	1.50614333e-04
5.24000000e-01	1.44706105e-02	1.49278738e-04
5.25000000e-01	1.44118199e-02	1.48175726e-04
5.26000000e-01	1.43066901e-02	1.47420837e-04
5.27000000e-01	1.43280110e-02	1.47707799e-04
5.28000000e-01	1.44615736e-02	1.48711377e-04
5.29000000e-01	1.45558643e-02	1.49964956e-04
5.30000000e-01	1.43472801e-02	1.47329090e-04
5.31000000e-01	1.45309079e-02	1.49639339e-04
5.32000000e-01	1.42955642e-02	1.47188122e-04
5.33000000e-01	1.43795583e-02	1.47967762e-04
5.34000000e-01	1.44099915e-02	1.48619436e-04
5.35000000e-01	1.43453674e-02	1.47565465e-04
5.36000000e-01	1.44302203e-02	1.48359648e-04
5.37000000e-01	1.45205922e-02	1.49554890e-04
5.38000000e-01	1.43116648e-02	1.46930944e-04
5.39000000e-01	1.44769893e-02	1.48630264e-04
5.40000000e-01	1.42925373e-02	1.47364641e-04
5.41000000e-01	1.42077477e-02	1.46372830e-04
5.42000000e-01	1.42781008e-02	1.46939037e-04
5.43000000e-01	1.43338099e-02	1.47608026e-04
5.44000000e-01	1.42785816e-02	1.46876672e-04
5.45000000e-01	1.42221544e-02	1.46697567e-04
5.46000000e-01	1.42190882e-02	1.46463638e-04
5.47000000e-01	1.42386925e-02	1.46733806e-04
5.48000000e-01	1.41536727e-02	1.46063829e-04
5.49000000e-01	1.41686936e-02	1.46134504e-04
5.50000000e-01	1.42250283e-02	1.46256654e-04
5.51000000e-01	1.41868093e-02	1.45384943e-04
5.52000000e-01	1.42672053e-02	1.46034952e-04
5.53000000e-01	1.41597182e-02	1.45127091e-04
5.54000000e-01	1.42320396e-02	1.45755051e-04
5.55000000e-01	1.41170572e-02	1.44883460e-04
5.56000000e-01	1.41486040e-02	1.44553381e-04
5.57000000e-01	1.40241266e-02	1.43363175e-04
5.58000000e-01	1.40747272e-02	1.43717137e-04
5.59000000e-01	1.41241919e-02	1.44496709e-04
5.60000000e-01	1.40916886e-02	1.44672376e-04
5.61000000e-01	1.41322129e-02	1.44161122e-04
5.62000000e-01	1.40965614e-02	1.44311341e-04
5.63000000e-01	1.41636232e-02	1.44904656e-04
5.64000000e-01	1.40737339e-02	1.43832548e-04
5.65000000e-01	1.39086782e-02	1.42879937e-04
5.66000000e-01	1.40253391e-02	1.43663300e-04
5.67000000e-01	1.39479807e-02	1.43129607e-04
5.68000000e-01	1.39287377e-02	1.42628901e-04
5.69000000e-01	1.40839207e-02	1.43763708e-04
5.70000000e-01	1.39447837e-02	1.42759763e-04
5.71000000e-01	1.38458705e-02	1.41409044e-04
5.72000000e-01	1.39015470e-02	1.42480402e-04
5.73000000e-01	1.38036838e-02	1.42052578e-04
5.74000000e-01	1.39816590e-02	1.42869395e-04
5.75000000e-01	1.39227220e-02	1.42945073e-04
5.76000000e-01	1.38665429e-02	1.42005243e-04
5.77000000e-01	1.39887260e-02	1.43331826e-04
5.78000000e-01	1.38304511e-02	1.42366087e-04
5.79000000e-01	1.39047203e-02	1.42859603e-04
5.80000000e-01	1.38488348e-02	1.42664389e-04
5.81000000e-01	1.39438659e-02	1.42758782e-04
5.82000000e-01	1.38070150e-02	1.41967439e-04
5.83000000e-01	1.39921431e-02	1.43457255e-04
5.84000000e-01	1.37848923e-02	1.41845493e-04
5.85000000e-01	1.37950342e-02	1.41943976e-04
5.86000000e-01	1.38225247e-02	1.42424539e-04
5.87000000e-01	1.37091184e-02	1.40881169e-04
5.88000000e-01	1.39095044e-02	1.43068127e-04
5.89000000e-01	1.37386642e-02	1.41383139e-04
5.90000000e-01	1.37729801e-02	1.41353987e-04
5.91000000e-01	1.37446772e-02	1.41131985e-04
5.92000000e-01	1.38323491e-02	1.42502212e-04
5.93000000e-01	1.37386271e-02	1.41405260e-04
5.94000000e-01	1.37321104e-02	1.41822569e-04
5.95000000e-01	1.37229519e-02	1.41552168e-04
5.96000000e-01	1.38024911e-02	1.42567120e-04
5.97000000e-01	1.36451750e-02	1.40631054e-04
5.98000000e-01	1.37462506e-02	1.41778056e-04
5.99000000e-01	1.37058590e-02	1.41394687e-04
6.00000000e-01	1.35782300e-02	1.40222221e-04
6.01000000e-01	1.36175016e-02	1.40691446e-04
6.02000000e-01	1.35887003e-02	1.40439890e-04
6.03000000e-01	1.35941811e-02	1.40873932e-04
6.04000000e-01	1.37348587e-02	1.42219684e-04
6.05000000e-01	1.36482931e-02	1.40758507e-04
6.06000000e-01	1.36358381e-02	1.40865103e-04
6.07000000e-01	1.37310052e-02	1.41799889e-04
6.08000000e-01	1.35197433e-02	1.40182018e-04
6.09000000e-01	1.36487036e-02	1.41176808e-04
6.10000000e-01	1.36212817e-02	1.40647077e-04
6.11000000e-01	1.36533234e-02	1.41473606e-04
6.12000000e-01	1.35059642e-02	1.39357136e-04
6.13000000e-01	1.37363644e-02	1.41385088e-04
6.14000000e-01	1.36384509e-02	1.40877065e-04
6.15000000e-01	1.36441263e-02	1.40947178e-04
6.16000000e-01	1.36857212e-02	1.41490103e-04
6.17000000e-01	1.34986692e-02	1.39579300e-04
6.18000000e-01	1.35513503e-02	1.40330610e-04
6.19000000e-01	1.36511252e-02	1.40666755e-04
6.20000000e-01	1.35308354e-02	1.39637120e-04
6.21000000e-01	1.35692558e-02	1.39777509e-04
6.22000000e-01	1.35790667e-02	1.39800142e-04
6.23000000e-01	1.36339116e-02	1.39744680e-04
6.24000000e-01	1.35244729e-02	1.38414781e-04
6.25000000e-01	1.35010690e-02	1.38939892e-04
6.26000000e-01	1.35055777e-02	1.38808600e-04
6.27000000e-01	1.35577736e-02	1.39031063e-04
6.28000000e-01	1.35892709e-02	1.39241025e-04
6.29000000e-01	1.35674844e-02	1.39111557e-04
6.30000000e-01	1.34782936e-02	1.38649634e-04
6.31000000e-01	1.34890710e-02	1.38441810e-04
6.32000000e-01	1.34465547e-02	1.38406017e-04
6.33000000e-01	1.35036653e-02	1.38424486e-04
6.34000000e-01	1.34366323e-02	1.41382086e-04
6.35000000e-01	1.34018745e-02	1.45823881e-04
6.36000000e-01	1.35086670e-02	1.48813521e-04
6.37000000e-01	1.35699031e-02	1.52253646e-04
6.38000000e-01	1.35257902e-02	1.53358421e-04
6.39000000e-01	1.34198072e-02	1.54399235e-04
6.40000000e-01	1.34097098e-02	1.55616373e-04
6.41000000e-01	1.34210168e-02	1.58136630e-04
6.42000000e-01	1.34791880e-02	1.59877619e-04
6.43000000e-01	1.33801832e-02	1.58575927e-04
6.44000000e-01	1.34786677e-02	1.54287419e-04
6.45000000e-01	1.35231567e-02	1.52358227e-04
6.46000000e-01	1.35215374e-02	1.51627816e-04
6.47000000e-01	1.33572941e-02	1.49028760e-04
6.48000000e-01	1.33661642e-02	1.47693978e-04
6.49000000e-01	1.34480831e-02	1.47392254e-04
6.50000000e-01	1.34005801e-02	1.46545343e-04
6.51000000e-01	1.34154081e-02	1.46091421e-04
6.52000000e-01	1.35338203e-02	1.46702222e-04
6.53000000e-01	1.34197113e-02	1.44966758e-04
6.54000000e-01	1.33393233e-02	1.44024171e-04
6.55000000e-01	1.34823244e-02	1.45063148e-04
6.56000000e-01	1.34279698e-02	1.44316395e-04
6.57000000e-01	1.34861874e-02	1.45081794e-04
6.58000000e-01	1.34670770e-02	1.43979996e-04
6.59000000e-01	1.34699358e-02	1.44030299e-04
6.60000000e-01	1.34015354e-02	1.43300021e-04
6.61000000e-01	1.34658834e-02	1.44001261e-04
6.62000000e-01	1.32456327e-02	1.42299265e-04
6.63000000e-01	1.34688312e-02	1.43969517e-04
6.64000000e-01	1.33948743e-02	1.43067966e-04
6.65000000e-01	1.33675659e-02	1.42934876e-04
6.66000000e-01	1.33404566e-02	1.42420311e-04
6.67000000e-01	1.33973785e-02	1.42930825e-04
6.68000000e-01	1.34502600e-02	1.43063203e-04
6.69000000e-01	1.32669565e-02	1.41528329e-04
6.70000000e-01	1.32799595e-02	1.41644663e-04
6.71000000e-01	1.32072476e-02	1.40694633e-04
6.72000000e-01	1.33573812e-02	1.42111484e-04
6.73000000e-01	1.32157740e-02	1.40873154e-04
6.74000000e-01	1.34273415e-02	1.42328983e-04
6.75000000e-01	1.31925484e-02	1.40059026e-04
6.76000000e-01	1.32171341e-02	1.40175961e-04
6.77000000e-01	1.32748567e-02	1.41192587e-04
6.78000000e-01	1.31628721e-02	1.40154413e-04
6.79000000e-01	1.32193486e-02	1.40645862e-04
6.80000000e-01	1.32402896e-02	1.40641667e-04
6.81000000e-01	1.31861401e-02	1.39543528e-04
6.82000000e-01	1.32426640e-02	1.41003968e-04
6.83000000e-01	1.31956339e-02	1.40038511e-04
6.84000000e-01	1.32501489e-02	1.40511835e-04
6.85000000e-01	1.31766879e-02	1.39619351e-04
6.86000000e-01	1.31616068e-02	1.39708065e-04
6.87000000e-01	1.31391835e-02	1.39359939e-04
6.88000000e-01	1.32429693e-02	1.40381025e-04
6.89000000e-01	1.31194704e-02	1.39414168e-04
6.90000000e-01	1.32592461e-02	1.40492048e-04
6.91000000e-01	1.30799626e-02	1.38507975e-04
6.92000000e-01	1.30508532e-02	1.38450823e-04
6.93000000e-01	1.31538063e-02	1.39719044e-04
6.94000000e-01	1.30887330e-02	1.38806969e-04
6.95000000e-01	1.30538441e-02	1.37994849e-04
6.96000000e-01	1.30174403e-02	1.37991345e-04
6.97000000e-01	1.31507804e-02	1.39448280e-04
6.98000000e-01	1.30387981e-02	1.38427871e-04
6.99000000e-01	1.32178856e-02	1.39712275e-04
7.00000000e-01	1.30878748e-02	1.38487417e-04
7.01000000e-01	1.29710138e-02	1.37618931e-04
7.02000000e-01	1.30059585e-02	1.37698696e-04
7.03000000e-01	1.30916548e-02	1.38184096e-04
7.04000000e-01	1.30468842e-02	1.38266242e-04
7.05000000e-01	1.31522372e-02	1.39239729e-04
7.06000000e-01	1.29947540e-02	1.38256487e-04
7.07000000e-01	1.29220240e-02	1.36975986e-04
7.08000000e-01	1.29121944e-02	1.36196659e-04
7.09000000e-01	1.30297019e-02	1.37613873e-04
7.10000000e-01	1.29793352e-02	1.37513622e-04
7.11000000e-01	1.28253648e-02	1.35973570e-04
7.12000000e-01	1.29404543e-02	1.36927930e-04
7.13000000e-01	1.29234040e-02	1.37423681e-04
7.14000000e-01	1.29074581e-02	1.36787076e-04
7.15000000e-01	1.28150511e-02	1.36184217e-04
7.16000000e-01	1.28222527e-02	1.35610587e-04
7.17000000e-01	1.28000809e-02	1.35420335e-04
7.18000000e-01	1.27775738e-02	1.35655396e-04
7.19000000e-01	1.28553924e-02	1.36110414e-04
7.20000000e-01	1.28008544e-02	1.35710730e-04
7.21000000e-01	1.28967815e-02	1.36865941e-04
7.22000000e-01	1.26939850e-02	1.34637004e-04
7.23000000e-01	1.26435638e-02	1.34795663e-04
7.24000000e-01	1.27296114e-02	1.34737180e-04
7.25000000e-01	1.27142366e-02	1.34842648e-04
7.26000000e-01	1.28893437e-02	1.36252035e-04
7.27000000e-01	1.26878193e-02	1.34575986e-04
7.28000000e-01	1.27461881e-02	1.35331986e-04
7.29000000e-01	1.27103509e-02	1.35038829e-04
7.30000000e-01	1.28855813e-02	1.36717018e-04
7.31000000e-01	1.26855637e-02	1.34255878e-04
7.32000000e-01	1.28456231e-02	1.36082466e-04
7.33000000e-01	1.26196939e-02	1.34144916e-04
7.34000000e-01	1.25862113e-02	1.33153962e-04
7.35000000e-01	1.27250549e-02	1.34510011e-04
7.36000000e-01	1.27306423e-02	1.34570241e-04
7.37000000e-01	1.26045376e-02	1.33346154e-04
7.38000000e-01	1.26356437e-02	1.33065978e-04
7.39000000e-01	1.27592479e-02	1.33986032e-04
7.40000000e-01	1.27200320e-02	1.33471541e-04
7.41000000e-01	1.26343465e-02	1.33052227e-04
7.42000000e-01	1.26341257e-02	1.32854582e-04
7.43000000e-01	1.25428587e-02	1.32064475e-04
7.44000000e-01	1.26630060e-02	1.33052875e-04
7.45000000e-01	1.26286330e-02	1.32522820e-04
7.46000000e-01	1.25063315e-02	1.31381241e-04
7.47000000e-01	1.26221124e-02	1.32457835e-04
7.48000000e-01	1.25402453e-02	1.31812398e-04
7.49000000e-01	1.26006759e-02	1.32064745e-04
7.50000000e-01	1.26387519e-02	1.32583208e-04
7.51000000e-01	1.26280424e-02	1.32807653e-04
7.52000000e-01	1.24546307e-02	1.31137062e-04
7.53000000e-01	1.24927420e-02	1.31485510e-04
7.54000000e-01	1.23894680e-02	1.30451840e-04
7.55000000e-01	1.24458873e-02	1.30847751e-04
7.56000000e-01	1.25280681e-02	1.32248563e-04
7.57000000e-01	1.24217971e-02	1.30229373e-04
7.58000000e-01	1.24889405e-02	1.31613229e-04
7.59000000e-01	1.24037565e-02	1.30260284e-04
7.60000000e-01	1.23247441e-02	1.29280580e-04
7.61000000e-01	1.25267662e-02	1.31172080e-04
7.62000000e-01	1.25074229e-02	1.31058844e-04
7.63000000e-01	1.23786499e-02	1.29197261e-04
7.64000000e-01	1.22774490e-02	1.28158138e-04
7.65000000e-01	1.23168906e-02	1.28618553e-04
7.66000000e-01	1.23754025e-02	1.29057036e-04
7.67000000e-01	1.23637880e-02	1.28847938e-04
7.68000000e-01	1.22595995e-02	1.28292634e-04
7.69000000e-01	1.22170996e-02	1.27172726e-04
7.70000000e-01	1.22973186e-02	1.28109603e-04
7.71000000e-01	1.23365720e-02	1.28176570e-04
7.72000000e-01	1.23340024e-02	1.32629011e-04
7.73000000e-01	1.23095350e-02	1.36653444e-04
7.74000000e-01	1.23356960e-02	1.39890674e-04
7.75000000e-01	1.21647580e-02	1.39803734e-04
7.76000000e-01	1.23544666e-02	1.43797592e-04
7.77000000e-01	1.22376647e-02	1.45009061e-04
7.78000000e-01	1.22631224e-02	1.47565981e-04
7.79000000e-01	1.23715527e-02	1.50338917e-04
7.80000000e-01	1.23509648e-02	1.51464652e-04
7.81000000e-01	1.20752686e-02	1.50337891e-04
7.82000000e-01	1.21504877e-02	1.52357925e-04
7.83000000e-01	1.23327273e-02	1.57045456e-04
7.84000000e-01	1.21518952e-02	1.56403232e-04
7.85000000e-01	1.20998562e-02	1.57677749e-04
7.86000000e-01	1.22420722e-02	1.60653027e-04
7.87000000e-01	1.21204267e-02	1.61346583e-04
7.88000000e-01	1.20905460e-02	1.62064075e-04
7.89000000e-01	1.22430799e-02	1.64999499e-04
7.90000000e-01	1.20760342e-02	1.64707589e-04
7.91000000e-01	1.20799779e-02	1.67105574e-04
7.92000000e-01	1.20104946e-02	1.67905264e-04
7.93000000e-01	1.20807764e-02	1.70186284e-04
7.94000000e-01	1.21407850e-02	1.73441887e-04
7.95000000e-01	1.20424955e-02	1.73527325e-04
7.96000000e-01	1.21703854e-02	1.75888742e-04
7.97000000e-01	1.20931898e-02	1.77477745e-04
7.98000000e-01	1.19783778e-02	1.78710991e-04
7.99000000e-01	1.20895100e-02	1.80884843e-04
8.00000000e-01	1.20753007e-02	1.83606608e-04
8.01000000e-01	1.20682909e-02	1.84715487e-04
8.02000000e-01	1.20523839e-02	1.86000897e-04
8.03000000e-01	1.18798074e-02	1.85532983e-04
8.04000000e-01	1.19396031e-02	1.88784649e-04
8.05000000e-01	1.20313332e-02	1.91177390e-04
8.06000000e-01	1.19001697e-02	1.92443738e-04
8.07000000e-01	1.18544971e-02	1.93559843e-04
8.08000000e-01	1.19180340e-02	1.96426325e-04
8.09000000e-01	1.17776657e-02	1.96236102e-04
8.10000000e-01	1.19597624e-02	2.02056133e-04
8.11000000e-01	1.17953420e-02	2.01416460e-04
8.12000000e-01	1.19521604e-02	2.05898411e-04
8.13000000e-01	1.19623029e-02	2.07323341e-04
8.14000000e-01	1.17703310e-02	2.07334507e-04
8.15000000e-01	1.17864503e-02	2.10211303e-04
8.16000000e-01	1.17836333e-02	2.13784844e-04
8.17000000e-01	1.17060567e-02	2.14114834e-04
8.18000000e-01	1.17037160e-02	2.17571646e-04
8.19000000e-01	1.18241044e-02	2.21318962e-04
8.20000000e-01	1.19304005e-02	2.24867542e-04
8.21000000e-01	1.16605129e-02	2.25716047e-04
8.22000000e-01	1.16879566e-02	2.27262488e-04
8.23000000e-01	1.17042125e-02	2.30294151e-04
8.24000000e-01	1.15431195e-02	2.31346904e-04
8.25000000e-01	1.15149154e-02	2.33550631e-04
8.26000000e-01	1.15664095e-02	2.41032839e-04
8.27000000e-01	1.17514216e-02	2.45197819e-04
8.28000000e-01	1.14637176e-02	2.43666250e-04
8.29000000e-01	1.15802911e-02	2.50468325e-04
8.30000000e-01	1.16744238e-02	2.55058421e-04
8.31000000e-01	1.15639054e-02	2.57336757e-04
8.32000000e-01	1.14402217e-02	2.60952284e-04
8.33000000e-01	1.14891570e-02	2.65949808e-04
8.34000000e-01	1.14887140e-02	2.68313597e-04
8.35000000e-01	1.13188804e-02	2.71709481e-04
8.36000000e-01	1.14378747e-02	2.77402787e-04
8.37000000e-01	1.16521155e-02	2.89736850e-04
8.38000000e-01	1.16478560e-02	2.95096899e-04
8.39000000e-01	1.15309717e-02	2.98889046e-04
8.40000000e-01	1.14497942e-02	3.03690459e-04
8.41000000e-01	1.11516907e-02	3.02449377e-04
8.42000000e-01	1.14871592e-02	3.13445873e-04
8.43000000e-01	1.11781861e-02	3.20050340e-04
8.44000000e-01	1.11995016e-02	3.24182706e-04
8.45000000e-01	1.15061302e-02	3.43142777e-04
8.46000000e-01	1.15375798e-02	3.52187966e-04
8.47000000e-01	1.12827949e-02	3.56597699e-04
8.48000000e-01	1.11952901e-02	3.66948576e-04
8.49000000e-01	1.15261214e-02	3.84035860e-04
8.50000000e-01	1.13751171e-02	3.95318213e-04
8.51000000e-01	1.14170465e-02	4.13564726e-04
8.52000000e-01	1.09501790e-02	4.08668174e-04
8.53000000e-01	1.12477515e-02	4.39113021e-04
8.54000000e-01	1.07125101e-02	4.42175246e-04
8.55000000e-01	1.08789696e-02	4.54755967e-04
8.56000000e-01	1.10720491e-02	4.74516588e-04
8.57000000e-01	1.14005104e-02	5.07316443e-04
8.58000000e-01	1.12218336e-02	5.22520598e-04
8.59000000e-01	1.06335667e-02	5.06845306e-04
8.60000000e-01	1.12326735e-02	5.35509035e-04
8.61000000e-01	1.10338621e-02	5.62265768e-04
8.62000000e-01	1.17312452e-02	6.15323421e-04
8.63000000e-01	1.09941866e-02	6.13226220e-04
8.64000000e-01	1.11230605e-02	6.44955328e-04
8.65000000e-01	1.05703985e-02	6.42953979e-04
8.66000000e-01	1.14952999e-02	7.10804050e-04
8.67000000e-01	1.07670959e-02	7.21325858e-04
8.68000000e-01	1.16548511e-02	7.99384361e-04
8.69000000e-01	1.08949236e-02	8.36922667e-04
8.70000000e-01	1.08776103e-02	9.02247403e-04
8.71000000e-01	1.06751483e-02	9.83184216e-04
8.72000000e-01	1.11087630e-02	1.15635889e-03
8.73000000e-01	1.22164985e-02	1.52312853e-03
8.74000000e-01	1.23089059e-02	1.93581680e-03
8.75000000e-01	1.15045725e-02	3.69009459e-03
