% Filename : SSW20_00038_00007.h5
% Date & Time : 30-Oct-2025 17:43:32
% X-ray Energy (keV) : 13.30001
% Exposure Time (s) : 0.500
% Beam Center : 1461.24000, 208.98300
% Sample to Detector Distance (SDD) (mm) : 1990.750
% Detector Pixel Size (mm) : 0.075
% Photodiode Value : 140980.000
% I0 of Sample : 0
% I0 of Standard : 1
% 
% q(A^-1)   I(q)    I(q)_SE
0.00000000e+00	1.15335710e-02	6.65890982e-03
2.50000000e-04	0.00000000e+00	0.00000000e+00
5.00000000e-04	0.00000000e+00	0.00000000e+00
7.50000000e-04	0.00000000e+00	0.00000000e+00
1.00000000e-03	0.00000000e+00	0.00000000e+00
1.25000000e-03	0.00000000e+00	0.00000000e+00
1.50000000e-03	0.00000000e+00	0.00000000e+00
1.75000000e-03	0.00000000e+00	0.00000000e+00
2.00000000e-03	0.00000000e+00	0.00000000e+00
2.25000000e-03	0.00000000e+00	0.00000000e+00
2.50000000e-03	0.00000000e+00	0.00000000e+00
2.75000000e-03	0.00000000e+00	0.00000000e+00
3.00000000e-03	0.00000000e+00	0.00000000e+00
3.25000000e-03	4.21409943e+02	4.21409943e+02
3.50000000e-03	4.04025723e+02	1.56280734e+02
3.75000000e-03	3.54243456e+02	1.46243111e+02
4.00000000e-03	3.14772799e+02	1.13011434e+02
4.25000000e-03	1.71262794e+02	6.06527844e+01
4.50000000e-03	4.59603324e+02	1.41807251e+02
4.75000000e-03	4.47778412e+02	1.15356534e+02
5.00000000e-03	3.17902089e+02	8.20361204e+01
5.25000000e-03	2.85489765e+02	7.44021472e+01
5.50000000e-03	2.39450708e+02	5.66759345e+01
5.75000000e-03	2.11483525e+02	4.87776871e+01
6.00000000e-03	1.69438701e+02	4.04423755e+01
6.25000000e-03	1.39891574e+02	3.21038900e+01
6.50000000e-03	1.17502702e+02	2.73348628e+01
6.75000000e-03	1.04042303e+02	2.32352599e+01
7.00000000e-03	9.09350123e+01	1.92166462e+01
7.25000000e-03	7.85834362e+01	1.69399552e+01
7.50000000e-03	6.40848797e+01	1.42123165e+01
7.75000000e-03	5.30348551e+01	1.11082739e+01
8.00000000e-03	5.36718743e+01	1.05090396e+01
8.25000000e-03	4.10669062e+01	8.13946545e+00
8.50000000e-03	4.01191503e+01	7.93692226e+00
8.75000000e-03	3.71606596e+01	7.67533546e+00
9.00000000e-03	3.06537408e+01	5.98839466e+00
9.25000000e-03	2.82035583e+01	5.29288476e+00
9.50000000e-03	2.40292318e+01	4.33324666e+00
9.75000000e-03	2.26515901e+01	4.08634290e+00
1.00000000e-02	1.81151424e+01	3.30248298e+00
1.02500000e-02	1.88169453e+01	3.48284190e+00
1.05000000e-02	1.74813638e+01	3.12186472e+00
1.07500000e-02	1.57271533e+01	2.86458712e+00
1.10000000e-02	1.39778675e+01	2.43476330e+00
1.12500000e-02	1.25499145e+01	2.24798743e+00
1.15000000e-02	1.15603689e+01	1.97374741e+00
1.17500000e-02	1.02710301e+01	1.72152463e+00
1.20000000e-02	9.72611689e+00	1.59848694e+00
1.22500000e-02	9.10957890e+00	1.47560761e+00
1.25000000e-02	8.15118866e+00	1.31976940e+00
1.27500000e-02	7.65034541e+00	1.24655340e+00
1.30000000e-02	7.35876075e+00	1.15126041e+00
1.32500000e-02	6.37107100e+00	9.68235494e-01
1.35000000e-02	6.11316473e+00	9.33169081e-01
1.37500000e-02	5.63791411e+00	8.62829224e-01
1.40000000e-02	5.30776163e+00	8.00104628e-01
1.42500000e-02	4.83405604e+00	7.08710762e-01
1.45000000e-02	4.58214728e+00	6.61601927e-01
1.47500000e-02	4.32523257e+00	6.27021551e-01
1.50000000e-02	3.94564883e+00	5.71367032e-01
1.52500000e-02	3.68790297e+00	5.29624480e-01
1.55000000e-02	3.51460803e+00	4.95670739e-01
1.57500000e-02	3.20197871e+00	4.55307897e-01
1.60000000e-02	3.07938329e+00	4.21437041e-01
1.62500000e-02	3.13233095e+00	4.37358222e-01
1.65000000e-02	2.72491850e+00	3.80203980e-01
1.67500000e-02	2.53938022e+00	3.30416570e-01
1.70000000e-02	2.33603424e+00	3.08788922e-01
1.72500000e-02	2.32849797e+00	3.09383003e-01
1.75000000e-02	2.02374912e+00	2.63726436e-01
1.77500000e-02	2.01369348e+00	2.68633823e-01
1.80000000e-02	1.92494202e+00	2.41077396e-01
1.82500000e-02	1.78904753e+00	2.27174776e-01
1.85000000e-02	1.71791248e+00	2.21822967e-01
1.87500000e-02	1.63043268e+00	2.04800358e-01
1.90000000e-02	1.54311228e+00	1.93974828e-01
1.92500000e-02	1.49527461e+00	1.83349496e-01
1.95000000e-02	1.37053442e+00	1.67713347e-01
1.97500000e-02	1.35511411e+00	1.64589534e-01
2.00000000e-02	1.25727115e+00	1.53962414e-01
2.02500000e-02	1.19749987e+00	1.46266174e-01
2.05000000e-02	1.14503774e+00	1.32690124e-01
2.07500000e-02	1.11373428e+00	1.30750265e-01
2.10000000e-02	1.05534991e+00	1.22219385e-01
2.12500000e-02	1.02756119e+00	1.17701748e-01
2.15000000e-02	9.78972180e-01	1.12106757e-01
2.17500000e-02	9.84492962e-01	1.08872858e-01
2.20000000e-02	9.39019172e-01	1.03073795e-01
2.22500000e-02	8.89602032e-01	9.82668865e-02
2.25000000e-02	8.82207368e-01	9.72020427e-02
2.27500000e-02	8.35965587e-01	9.10501321e-02
2.30000000e-02	8.47735388e-01	9.22275398e-02
2.32500000e-02	7.89331093e-01	8.45497537e-02
2.35000000e-02	7.72160688e-01	8.35667099e-02
2.37500000e-02	7.49077796e-01	8.06510378e-02
2.40000000e-02	7.08147618e-01	7.67002028e-02
2.42500000e-02	7.29857136e-01	7.53705998e-02
2.45000000e-02	6.85130150e-01	7.23225206e-02
2.47500000e-02	6.43612539e-01	6.49452328e-02
2.50000000e-02	6.25621082e-01	6.48506183e-02
2.52500000e-02	6.00523892e-01	6.21407267e-02
2.55000000e-02	5.92997243e-01	5.85618846e-02
2.57500000e-02	5.64046883e-01	5.62830198e-02
2.60000000e-02	5.52841729e-01	5.51439655e-02
2.62500000e-02	5.35377775e-01	5.36043667e-02
2.65000000e-02	5.10759045e-01	5.03365938e-02
2.67500000e-02	5.13726466e-01	4.87220131e-02
2.70000000e-02	4.75460160e-01	4.58599604e-02
2.72500000e-02	4.61338246e-01	4.45268935e-02
2.75000000e-02	4.54975169e-01	4.45589655e-02
2.77500000e-02	4.41218266e-01	4.33524849e-02
2.80000000e-02	4.26575814e-01	3.92808612e-02
2.82500000e-02	4.12033891e-01	3.80007349e-02
2.85000000e-02	4.04244058e-01	3.72131121e-02
2.87500000e-02	3.87757196e-01	3.55583668e-02
2.90000000e-02	3.77820087e-01	3.49253099e-02
2.92500000e-02	3.69079506e-01	3.25570043e-02
2.95000000e-02	3.61867987e-01	3.34703384e-02
2.97500000e-02	3.47695196e-01	3.10182233e-02
3.00000000e-02	3.42461991e-01	3.06081730e-02
3.02500000e-02	3.30484230e-01	2.91844195e-02
3.05000000e-02	3.17006006e-01	2.71891393e-02
3.07500000e-02	3.10747883e-01	2.68016429e-02
3.10000000e-02	3.00556864e-01	2.54920139e-02
3.12500000e-02	2.97814319e-01	2.58666587e-02
3.15000000e-02	2.79113995e-01	2.38986299e-02
3.17500000e-02	2.89715742e-01	2.41275501e-02
3.20000000e-02	2.73869034e-01	2.31127365e-02
3.22500000e-02	2.72062824e-01	2.30318380e-02
3.25000000e-02	2.60385525e-01	2.21063818e-02
3.27500000e-02	2.51968042e-01	2.05707155e-02
3.30000000e-02	2.50957140e-01	2.04565890e-02
3.32500000e-02	2.38067023e-01	1.95810671e-02
3.35000000e-02	2.37038495e-01	1.95036253e-02
3.37500000e-02	2.29052345e-01	1.88082371e-02
3.40000000e-02	2.19933470e-01	1.78218131e-02
3.42500000e-02	2.20799774e-01	1.75127093e-02
3.45000000e-02	2.13111416e-01	1.67383571e-02
3.47500000e-02	2.05922587e-01	1.63721048e-02
3.50000000e-02	2.00171853e-01	1.58841657e-02
3.52500000e-02	1.99652628e-01	1.55511034e-02
3.55000000e-02	1.93558370e-01	1.48527277e-02
3.57500000e-02	1.91545364e-01	1.47468448e-02
3.60000000e-02	1.85905155e-01	1.42959884e-02
3.62500000e-02	1.84066002e-01	1.41778787e-02
3.65000000e-02	1.71964971e-01	1.30594062e-02
3.67500000e-02	1.76709551e-01	1.30571836e-02
3.70000000e-02	1.71182577e-01	1.27814707e-02
3.72500000e-02	1.65552040e-01	1.22331621e-02
3.75000000e-02	1.61107444e-01	1.19158720e-02
3.77500000e-02	1.60880468e-01	1.17177920e-02
3.80000000e-02	1.57344745e-01	1.12926031e-02
3.82500000e-02	1.50887789e-01	1.07785002e-02
3.85000000e-02	1.48521894e-01	1.07468167e-02
3.87500000e-02	1.45594971e-01	1.05263885e-02
3.90000000e-02	1.42927883e-01	1.01163250e-02
3.92500000e-02	1.44733617e-01	1.00576386e-02
3.95000000e-02	1.32981271e-01	9.27804990e-03
3.97500000e-02	1.35049228e-01	9.57101934e-03
4.00000000e-02	1.30873309e-01	9.05515329e-03
4.02500000e-02	1.30933940e-01	8.83206566e-03
4.05000000e-02	1.28494693e-01	8.62993945e-03
4.07500000e-02	1.23813808e-01	8.32401898e-03
4.10000000e-02	1.21559016e-01	8.17437955e-03
4.12500000e-02	1.20881145e-01	8.06890194e-03
4.15000000e-02	1.15658900e-01	7.64213960e-03
4.17500000e-02	1.16375075e-01	7.57726905e-03
4.20000000e-02	1.11607635e-01	7.31500268e-03
4.22500000e-02	1.13015281e-01	7.35189195e-03
4.25000000e-02	1.09833070e-01	6.97720254e-03
4.27500000e-02	1.07995171e-01	6.89458072e-03
4.30000000e-02	1.05429690e-01	6.76570135e-03
4.32500000e-02	1.02466104e-01	6.50540556e-03
4.35000000e-02	9.92782162e-02	6.29677635e-03
4.37500000e-02	9.92720194e-02	6.21207031e-03
4.40000000e-02	9.85493046e-02	6.13003219e-03
4.42500000e-02	9.52320349e-02	5.87759348e-03
4.45000000e-02	9.45411761e-02	5.77893134e-03
4.47500000e-02	9.30997449e-02	5.69415808e-03
4.50000000e-02	9.22322397e-02	5.64475777e-03
4.52500000e-02	9.17722248e-02	5.57733671e-03
4.55000000e-02	8.98216710e-02	5.46469084e-03
4.57500000e-02	8.88053313e-02	5.24973254e-03
4.60000000e-02	8.64740504e-02	5.11719369e-03
4.62500000e-02	8.55753200e-02	5.08237656e-03
4.65000000e-02	8.14261027e-02	4.75048197e-03
4.67500000e-02	8.36905815e-02	4.80179449e-03
4.70000000e-02	8.15866937e-02	4.72727822e-03
4.72500000e-02	8.13482541e-02	4.68541417e-03
4.75000000e-02	7.66158434e-02	4.40458238e-03
4.77500000e-02	7.79803077e-02	4.46080551e-03
4.80000000e-02	7.61627317e-02	4.35106072e-03
4.82500000e-02	7.36307183e-02	4.08519406e-03
4.85000000e-02	7.50567069e-02	4.31584814e-03
4.87500000e-02	7.19604314e-02	4.04480659e-03
4.90000000e-02	7.21788701e-02	3.98499917e-03
4.92500000e-02	7.17542697e-02	3.92993756e-03
4.95000000e-02	6.95847964e-02	3.78644119e-03
4.97500000e-02	6.93171932e-02	3.76952402e-03
5.00000000e-02	6.70086612e-02	3.58380059e-03
5.02500000e-02	6.69415006e-02	3.53482853e-03
5.05000000e-02	6.62994368e-02	3.47038240e-03
5.07500000e-02	6.47151599e-02	3.38755026e-03
5.10000000e-02	6.42042591e-02	3.40113172e-03
5.12500000e-02	6.33072467e-02	3.35508874e-03
5.15000000e-02	6.16788966e-02	3.18360867e-03
5.17500000e-02	6.18090302e-02	3.18633433e-03
5.20000000e-02	6.08471025e-02	3.16465972e-03
5.22500000e-02	5.97849715e-02	3.09204023e-03
5.25000000e-02	5.84854667e-02	2.96369158e-03
5.27500000e-02	5.83651390e-02	2.90799283e-03
5.30000000e-02	5.69693487e-02	2.90023757e-03
5.32500000e-02	5.81223093e-02	2.91993730e-03
5.35000000e-02	5.54849932e-02	2.75884107e-03
5.37500000e-02	5.62516977e-02	2.81743418e-03
5.40000000e-02	5.66072508e-02	2.77298941e-03
5.42500000e-02	5.59569701e-02	2.77326550e-03
5.45000000e-02	5.48018547e-02	2.63598864e-03
5.47500000e-02	5.41370088e-02	2.60620316e-03
5.50000000e-02	5.21349998e-02	2.51512791e-03
5.52500000e-02	5.21178473e-02	2.48810731e-03
5.55000000e-02	5.15512976e-02	2.45968434e-03
5.57500000e-02	5.18844931e-02	2.48578359e-03
5.60000000e-02	5.02160017e-02	2.44094161e-03
5.62500000e-02	4.94620218e-02	2.33740370e-03
5.65000000e-02	5.02674470e-02	2.35503259e-03
5.67500000e-02	4.98326890e-02	2.34861253e-03
5.70000000e-02	4.79463447e-02	2.18369120e-03
5.72500000e-02	4.90123626e-02	2.25526866e-03
5.75000000e-02	4.81391383e-02	2.21774639e-03
5.77500000e-02	4.78971011e-02	2.17007823e-03
5.80000000e-02	4.61742275e-02	2.09690610e-03
5.82500000e-02	4.65380652e-02	2.09096419e-03
5.85000000e-02	4.53498983e-02	2.05803987e-03
5.87500000e-02	4.51866926e-02	2.03752689e-03
5.90000000e-02	4.39478632e-02	1.95485256e-03
5.92500000e-02	4.44981825e-02	1.96689159e-03
5.95000000e-02	4.38970101e-02	1.92246641e-03
5.97500000e-02	4.34794657e-02	1.94201127e-03
6.00000000e-02	4.30575497e-02	1.87787570e-03
6.02500000e-02	4.21412221e-02	1.81459035e-03
6.05000000e-02	4.25033593e-02	1.87194634e-03
6.07500000e-02	4.29014237e-02	1.85540123e-03
6.10000000e-02	4.16197131e-02	1.80428656e-03
6.12500000e-02	4.19677819e-02	1.76709163e-03
6.15000000e-02	4.09102240e-02	1.71834397e-03
6.17500000e-02	4.01922104e-02	1.72286769e-03
6.20000000e-02	3.97616589e-02	1.69553721e-03
6.22500000e-02	4.06914320e-02	1.69747703e-03
6.25000000e-02	3.94051674e-02	1.65533779e-03
6.27500000e-02	4.02148708e-02	1.66966819e-03
6.30000000e-02	3.97120850e-02	1.64160408e-03
6.32500000e-02	3.82121406e-02	1.54067409e-03
6.35000000e-02	3.82106281e-02	1.56292081e-03
6.37500000e-02	3.83300768e-02	1.54746131e-03
6.40000000e-02	3.92410536e-02	1.60089706e-03
6.42500000e-02	3.80374143e-02	1.53190986e-03
6.45000000e-02	3.82985279e-02	1.56331870e-03
6.47500000e-02	3.68854432e-02	1.47101729e-03
6.50000000e-02	3.64574907e-02	1.45156807e-03
6.52500000e-02	3.60462785e-02	1.41568259e-03
6.55000000e-02	3.61397424e-02	1.43486838e-03
6.57500000e-02	3.65569330e-02	1.42651827e-03
6.60000000e-02	3.51164018e-02	1.37556871e-03
6.62500000e-02	3.54024108e-02	1.38454939e-03
6.65000000e-02	3.52678856e-02	1.36996973e-03
6.67500000e-02	3.55317579e-02	1.38941204e-03
6.70000000e-02	3.53062261e-02	1.38462360e-03
6.72500000e-02	3.63049848e-02	1.39137827e-03
6.75000000e-02	3.53800304e-02	1.35959288e-03
6.77500000e-02	3.56796885e-02	1.37325202e-03
6.80000000e-02	3.50739811e-02	1.36063330e-03
6.82500000e-02	3.41239070e-02	1.30659401e-03
6.85000000e-02	3.40511087e-02	1.31442807e-03
6.87500000e-02	3.42462316e-02	1.27730940e-03
6.90000000e-02	3.40923157e-02	1.29144841e-03
6.92500000e-02	3.45480809e-02	1.28484742e-03
6.95000000e-02	3.35764325e-02	1.23854254e-03
6.97500000e-02	3.38339509e-02	1.25658764e-03
7.00000000e-02	3.37594363e-02	1.24538539e-03
7.02500000e-02	3.33757311e-02	1.24185249e-03
7.05000000e-02	3.33593503e-02	1.23288002e-03
7.07500000e-02	3.25507209e-02	1.21249915e-03
7.10000000e-02	3.34414978e-02	1.21716594e-03
7.12500000e-02	3.22739209e-02	1.17401302e-03
7.15000000e-02	3.29852809e-02	1.20766471e-03
7.17500000e-02	3.30016620e-02	1.19682032e-03
7.20000000e-02	3.25207477e-02	1.16871924e-03
7.22500000e-02	3.20632891e-02	1.15121264e-03
7.25000000e-02	3.15897269e-02	1.12755155e-03
7.27500000e-02	3.21099399e-02	1.15380832e-03
7.30000000e-02	3.19402130e-02	1.14165888e-03
7.32500000e-02	3.19925256e-02	1.13542650e-03
7.35000000e-02	3.17180579e-02	1.13350208e-03
7.37500000e-02	3.05743538e-02	1.06956843e-03
7.40000000e-02	3.11017437e-02	1.10074319e-03
7.42500000e-02	3.13844258e-02	1.10253754e-03
7.45000000e-02	3.00324632e-02	1.04670203e-03
7.47500000e-02	3.08930690e-02	1.07012977e-03
7.50000000e-02	3.12483128e-02	1.08925961e-03
7.52500000e-02	3.13639492e-02	1.08807280e-03
7.55000000e-02	2.98394962e-02	1.03575991e-03
7.57500000e-02	3.06201250e-02	1.06208761e-03
7.60000000e-02	2.92655490e-02	1.01031141e-03
7.62500000e-02	3.01925723e-02	1.04394053e-03
7.65000000e-02	3.04385976e-02	1.04182944e-03
7.67500000e-02	3.08360723e-02	1.06399229e-03
7.70000000e-02	3.03061326e-02	1.03052074e-03
7.72500000e-02	3.04317187e-02	1.05911593e-03
7.75000000e-02	3.00339564e-02	1.04894810e-03
7.77500000e-02	3.01504009e-02	1.07467445e-03
7.80000000e-02	3.01076497e-02	1.07440619e-03
7.82500000e-02	3.03213822e-02	1.08398673e-03
7.85000000e-02	3.00311719e-02	1.07642146e-03
7.87500000e-02	3.05757483e-02	1.09256670e-03
7.90000000e-02	3.00063234e-02	1.08709694e-03
7.92500000e-02	3.02437130e-02	1.08846210e-03
7.95000000e-02	3.01182962e-02	1.09501801e-03
7.97500000e-02	2.95850788e-02	1.07923695e-03
8.00000000e-02	2.96543976e-02	1.06846398e-03
8.02500000e-02	2.97595266e-02	1.07167244e-03
8.05000000e-02	2.93608698e-02	1.07009065e-03
8.07500000e-02	2.98498815e-02	1.08545757e-03
8.10000000e-02	2.98976199e-02	1.09191618e-03
8.12500000e-02	2.94885759e-02	1.07948870e-03
8.15000000e-02	2.92634153e-02	1.05987331e-03
8.17500000e-02	2.91709139e-02	1.07080988e-03
8.20000000e-02	2.90881453e-02	1.06304619e-03
8.22500000e-02	2.96202937e-02	1.07519650e-03
8.25000000e-02	2.98107877e-02	1.09472305e-03
8.27500000e-02	2.85953787e-02	1.04508705e-03
8.30000000e-02	2.86992963e-02	1.05486376e-03
8.32500000e-02	2.85714063e-02	1.05370681e-03
8.35000000e-02	2.87573051e-02	1.05454565e-03
8.37500000e-02	2.81950128e-02	1.02129720e-03
8.40000000e-02	2.96584265e-02	1.08434152e-03
8.42500000e-02	2.85250680e-02	1.04181493e-03
8.45000000e-02	2.89770960e-02	1.06947635e-03
8.47500000e-02	2.93899024e-02	1.07731348e-03
8.50000000e-02	2.98787126e-02	1.09517351e-03
8.52500000e-02	2.88238528e-02	1.06282907e-03
8.55000000e-02	2.84747169e-02	1.05464858e-03
8.57500000e-02	2.89848719e-02	1.07751523e-03
8.60000000e-02	2.88502723e-02	1.06264686e-03
8.62500000e-02	2.88384333e-02	1.06256404e-03
8.65000000e-02	2.73151406e-02	1.01125952e-03
8.67500000e-02	2.83244398e-02	1.04993191e-03
8.70000000e-02	2.77396512e-02	1.00444861e-03
8.72500000e-02	2.79276512e-02	9.89253524e-04
8.75000000e-02	2.80341875e-02	9.90689690e-04
8.77500000e-02	2.82720195e-02	9.90557575e-04
8.80000000e-02	2.75230729e-02	9.65334224e-04
8.82500000e-02	2.78923804e-02	9.63612342e-04
8.85000000e-02	2.77749170e-02	9.72231968e-04
8.87500000e-02	2.80027507e-02	9.54445372e-04
8.90000000e-02	2.69292516e-02	9.27183899e-04
8.92500000e-02	2.71445986e-02	9.27956879e-04
8.95000000e-02	2.70078909e-02	9.14539074e-04
8.97500000e-02	2.66278796e-02	9.05961501e-04
9.00000000e-02	2.68383190e-02	9.04306978e-04
9.02500000e-02	2.67313805e-02	9.05687033e-04
9.05000000e-02	2.64805656e-02	8.99787424e-04
9.07500000e-02	2.65753256e-02	8.86453438e-04
9.10000000e-02	2.60691041e-02	8.69303445e-04
9.12500000e-02	2.59564212e-02	8.55638290e-04
9.15000000e-02	2.60283869e-02	8.73150420e-04
9.17500000e-02	2.67962522e-02	8.85356546e-04
9.20000000e-02	2.58365812e-02	8.61151503e-04
9.22500000e-02	2.68083223e-02	8.78080043e-04
9.25000000e-02	2.63563404e-02	8.66202295e-04
9.27500000e-02	2.64335858e-02	8.70635947e-04
9.30000000e-02	2.59672961e-02	8.47337908e-04
9.32500000e-02	2.56542017e-02	8.49683392e-04
9.35000000e-02	2.58855654e-02	8.42638386e-04
9.37500000e-02	2.56142803e-02	8.28986576e-04
9.40000000e-02	2.62564910e-02	8.57224871e-04
9.42500000e-02	2.57425752e-02	8.36704225e-04
9.45000000e-02	2.59367414e-02	8.35381296e-04
9.47500000e-02	2.58273969e-02	8.32836315e-04
9.50000000e-02	2.62479063e-02	8.48356595e-04
9.52500000e-02	2.53626582e-02	8.20003812e-04
9.55000000e-02	2.58555130e-02	8.31832867e-04
9.57500000e-02	2.59342600e-02	8.29521508e-04
9.60000000e-02	2.52707763e-02	8.05246042e-04
9.62500000e-02	2.52451321e-02	8.03547429e-04
9.65000000e-02	2.51114770e-02	8.01266485e-04
9.67500000e-02	2.63728868e-02	8.37858544e-04
9.70000000e-02	2.59282377e-02	8.19944054e-04
9.72500000e-02	2.56648951e-02	8.14712940e-04
9.75000000e-02	2.57530659e-02	8.13023539e-04
9.77500000e-02	2.54396044e-02	8.02095963e-04
9.80000000e-02	2.53376977e-02	8.00782492e-04
9.82500000e-02	2.49791915e-02	7.88817411e-04
9.85000000e-02	2.52216734e-02	7.90448057e-04
9.87500000e-02	2.51889412e-02	7.90891255e-04
9.90000000e-02	2.51885163e-02	7.82975447e-04
9.92500000e-02	2.48342724e-02	7.77589133e-04
9.95000000e-02	2.44722143e-02	7.59913749e-04
9.97500000e-02	2.52947387e-02	7.85777646e-04
1.00000000e-01	2.44729069e-02	6.24814660e-04
1.00500000e-01	2.46713523e-02	5.45218522e-04
1.01000000e-01	2.47963772e-02	5.43615880e-04
1.01500000e-01	2.41634887e-02	5.29750337e-04
1.02000000e-01	2.43414376e-02	5.30751468e-04
1.02500000e-01	2.44742117e-02	5.27548561e-04
1.03000000e-01	2.40614543e-02	5.21851620e-04
1.03500000e-01	2.43743285e-02	5.26675764e-04
1.04000000e-01	2.41351033e-02	5.17987993e-04
1.04500000e-01	2.39777842e-02	5.16450055e-04
1.05000000e-01	2.41487838e-02	5.17266815e-04
1.05500000e-01	2.37576151e-02	5.10816940e-04
1.06000000e-01	2.39598350e-02	5.07592865e-04
1.06500000e-01	2.40246918e-02	5.09979995e-04
1.07000000e-01	2.38573036e-02	5.13671469e-04
1.07500000e-01	2.37972131e-02	5.21087269e-04
1.08000000e-01	2.34219703e-02	5.18088991e-04
1.08500000e-01	2.30647245e-02	5.14123235e-04
1.09000000e-01	2.30966820e-02	5.15846489e-04
1.09500000e-01	2.30216606e-02	5.17137867e-04
1.10000000e-01	2.34469277e-02	5.18587903e-04
1.10500000e-01	2.35131059e-02	5.10946479e-04
1.11000000e-01	2.34465110e-02	5.02208906e-04
1.11500000e-01	2.36155314e-02	5.03992934e-04
1.12000000e-01	2.36100269e-02	4.95856185e-04
1.12500000e-01	2.34368422e-02	4.91197753e-04
1.13000000e-01	2.35765264e-02	4.92999586e-04
1.13500000e-01	2.32349510e-02	4.84319726e-04
1.14000000e-01	2.35506684e-02	4.90938191e-04
1.14500000e-01	2.34190491e-02	4.87205354e-04
1.15000000e-01	2.28455641e-02	4.70552748e-04
1.15500000e-01	2.31449351e-02	4.78315355e-04
1.16000000e-01	2.33188422e-02	4.77675158e-04
1.16500000e-01	2.35113505e-02	4.82291330e-04
1.17000000e-01	2.29814736e-02	4.71490954e-04
1.17500000e-01	2.33623277e-02	4.75740466e-04
1.18000000e-01	2.32638798e-02	4.74057385e-04
1.18500000e-01	2.27847962e-02	4.62723003e-04
1.19000000e-01	2.29198635e-02	4.64883153e-04
1.19500000e-01	2.27505463e-02	4.58623190e-04
1.20000000e-01	2.31548344e-02	4.64204918e-04
1.20500000e-01	2.27015090e-02	4.56979853e-04
1.21000000e-01	2.29060554e-02	4.58265282e-04
1.21500000e-01	2.26333088e-02	4.53145043e-04
1.22000000e-01	2.26622801e-02	4.52962692e-04
1.22500000e-01	2.27160172e-02	4.54334003e-04
1.23000000e-01	2.26315994e-02	4.50942363e-04
1.23500000e-01	2.32687916e-02	4.61786139e-04
1.24000000e-01	2.35353878e-02	4.67382457e-04
1.24500000e-01	2.31913551e-02	4.56035781e-04
1.25000000e-01	2.29711808e-02	4.51388848e-04
1.25500000e-01	2.33680407e-02	4.60167023e-04
1.26000000e-01	2.34924136e-02	4.62300921e-04
1.26500000e-01	2.35323207e-02	4.62530300e-04
1.27000000e-01	2.36238538e-02	4.60595688e-04
1.27500000e-01	2.30862834e-02	4.50255430e-04
1.28000000e-01	2.30951823e-02	4.48767302e-04
1.28500000e-01	2.32476954e-02	4.52080716e-04
1.29000000e-01	2.29769191e-02	4.45765748e-04
1.29500000e-01	2.34869292e-02	4.53005439e-04
1.30000000e-01	2.31478860e-02	4.48693451e-04
1.30500000e-01	2.31289323e-02	4.47732524e-04
1.31000000e-01	2.33052900e-02	4.48710597e-04
1.31500000e-01	2.30672515e-02	4.43710821e-04
1.32000000e-01	2.30891688e-02	4.43300689e-04
1.32500000e-01	2.31618049e-02	4.41922232e-04
1.33000000e-01	2.28590948e-02	4.36613193e-04
1.33500000e-01	2.27313054e-02	4.30692668e-04
1.34000000e-01	2.27044853e-02	4.31068304e-04
1.34500000e-01	2.31736896e-02	4.38057468e-04
1.35000000e-01	2.26389344e-02	4.26764178e-04
1.35500000e-01	2.28705097e-02	4.30189017e-04
1.36000000e-01	2.28574601e-02	4.28104063e-04
1.36500000e-01	2.27972409e-02	4.27839236e-04
1.37000000e-01	2.30944536e-02	4.30022140e-04
1.37500000e-01	2.28661080e-02	4.27897334e-04
1.38000000e-01	2.26149688e-02	4.23272172e-04
1.38500000e-01	2.28626496e-02	4.25316440e-04
1.39000000e-01	2.25463790e-02	4.20625894e-04
1.39500000e-01	2.22365242e-02	4.13595705e-04
1.40000000e-01	2.23217670e-02	4.15152015e-04
1.40500000e-01	2.22649142e-02	4.14530231e-04
1.41000000e-01	2.18868431e-02	4.06193047e-04
1.41500000e-01	2.17529035e-02	4.02513190e-04
1.42000000e-01	2.16702892e-02	4.00617787e-04
1.42500000e-01	2.15864637e-02	3.99561158e-04
1.43000000e-01	2.20748702e-02	4.08686631e-04
1.43500000e-01	2.16664684e-02	3.99494819e-04
1.44000000e-01	2.21334420e-02	4.06308865e-04
1.44500000e-01	2.16911966e-02	3.97851637e-04
1.45000000e-01	2.16103449e-02	3.97460846e-04
1.45500000e-01	2.15574934e-02	3.93643951e-04
1.46000000e-01	2.17422988e-02	3.96688617e-04
1.46500000e-01	2.13315067e-02	3.89964905e-04
1.47000000e-01	2.14991036e-02	3.91288325e-04
1.47500000e-01	2.18137303e-02	3.95877898e-04
1.48000000e-01	2.17329791e-02	3.92934426e-04
1.48500000e-01	2.17412852e-02	3.92919792e-04
1.49000000e-01	2.16294081e-02	3.90408496e-04
1.49500000e-01	2.12960589e-02	3.86517694e-04
1.50000000e-01	2.13583438e-02	3.87045551e-04
1.50500000e-01	2.17434578e-02	3.92834815e-04
1.51000000e-01	2.14474827e-02	3.85236569e-04
1.51500000e-01	2.14084171e-02	3.84580239e-04
1.52000000e-01	2.13093036e-02	3.81019900e-04
1.52500000e-01	2.12268118e-02	3.80083929e-04
1.53000000e-01	2.14059742e-02	3.81848847e-04
1.53500000e-01	2.12022732e-02	3.76167364e-04
1.54000000e-01	2.10910615e-02	3.75327849e-04
1.54500000e-01	2.12883850e-02	3.84481076e-04
1.55000000e-01	2.10937050e-02	3.86078275e-04
1.55500000e-01	2.14411020e-02	3.93563118e-04
1.56000000e-01	2.11527779e-02	3.93718732e-04
1.56500000e-01	2.11654384e-02	3.91471302e-04
1.57000000e-01	2.09959834e-02	3.91393324e-04
1.57500000e-01	2.09459833e-02	3.82713136e-04
1.58000000e-01	2.10389914e-02	3.79595698e-04
1.58500000e-01	2.11391186e-02	3.78141585e-04
1.59000000e-01	2.08923854e-02	3.73068977e-04
1.59500000e-01	2.10393336e-02	3.74921963e-04
1.60000000e-01	2.08367276e-02	3.72820776e-04
1.60500000e-01	2.09590986e-02	3.67818987e-04
1.61000000e-01	2.07859891e-02	3.69481521e-04
1.61500000e-01	2.12954665e-02	3.75589964e-04
1.62000000e-01	2.08177630e-02	3.65897249e-04
1.62500000e-01	2.08920583e-02	3.67043103e-04
1.63000000e-01	2.06785158e-02	3.61710374e-04
1.63500000e-01	2.09455431e-02	3.68282251e-04
1.64000000e-01	2.10480299e-02	3.66253035e-04
1.64500000e-01	2.06944453e-02	3.60453110e-04
1.65000000e-01	2.07415867e-02	3.60522386e-04
1.65500000e-01	2.08286401e-02	3.60942923e-04
1.66000000e-01	2.08309658e-02	3.62711156e-04
1.66500000e-01	2.08574749e-02	3.61918931e-04
1.67000000e-01	2.07038894e-02	3.57958682e-04
1.67500000e-01	2.07890166e-02	3.59839269e-04
1.68000000e-01	2.09851396e-02	3.61013236e-04
1.68500000e-01	2.08256110e-02	3.59824641e-04
1.69000000e-01	2.05944479e-02	3.53902648e-04
1.69500000e-01	2.06475634e-02	3.53574230e-04
1.70000000e-01	2.07058446e-02	3.55385191e-04
1.70500000e-01	2.07307378e-02	3.53192299e-04
1.71000000e-01	2.04680446e-02	3.49350265e-04
1.71500000e-01	2.07274295e-02	3.54329936e-04
1.72000000e-01	2.06078061e-02	3.51162664e-04
1.72500000e-01	2.05380904e-02	3.49005507e-04
1.73000000e-01	2.03432150e-02	3.45470105e-04
1.73500000e-01	2.06327825e-02	3.49088092e-04
1.74000000e-01	2.05547733e-02	3.47786940e-04
1.74500000e-01	2.06259416e-02	3.45752790e-04
1.75000000e-01	2.08544035e-02	3.47309993e-04
1.75500000e-01	2.03636687e-02	3.40594614e-04
1.76000000e-01	2.03082765e-02	3.40341893e-04
1.76500000e-01	2.01910013e-02	3.38662405e-04
1.77000000e-01	2.07161121e-02	3.45863497e-04
1.77500000e-01	2.01600215e-02	3.38508825e-04
1.78000000e-01	2.04564127e-02	3.40797642e-04
1.78500000e-01	2.03698510e-02	3.39885379e-04
1.79000000e-01	2.01793996e-02	3.36617118e-04
1.79500000e-01	2.05266517e-02	3.41136783e-04
1.80000000e-01	2.03509088e-02	3.39556740e-04
1.80500000e-01	2.01027117e-02	3.35056505e-04
1.81000000e-01	2.05740796e-02	3.41700434e-04
1.81500000e-01	2.02791537e-02	3.35781986e-04
1.82000000e-01	2.03693416e-02	3.36797202e-04
1.82500000e-01	2.02821354e-02	3.34872058e-04
1.83000000e-01	2.00768807e-02	3.31807997e-04
1.83500000e-01	2.04487423e-02	3.38934406e-04
1.84000000e-01	2.02626556e-02	3.34315142e-04
1.84500000e-01	2.02517932e-02	3.33534003e-04
1.85000000e-01	2.03121731e-02	3.33272284e-04
1.85500000e-01	2.03017347e-02	3.32825165e-04
1.86000000e-01	2.01808386e-02	3.31459677e-04
1.86500000e-01	2.02030823e-02	3.30731805e-04
1.87000000e-01	2.02713266e-02	3.30955169e-04
1.87500000e-01	2.00697549e-02	3.28709936e-04
1.88000000e-01	2.04516473e-02	3.33411601e-04
1.88500000e-01	1.99572818e-02	3.24735322e-04
1.89000000e-01	2.02791332e-02	3.30185242e-04
1.89500000e-01	2.00603033e-02	3.25667949e-04
1.90000000e-01	2.02097178e-02	3.25826817e-04
1.90500000e-01	2.01771356e-02	3.27071429e-04
1.91000000e-01	1.99659660e-02	3.23370324e-04
1.91500000e-01	2.01958003e-02	3.26796597e-04
1.92000000e-01	2.01826903e-02	3.24921477e-04
1.92500000e-01	2.01362170e-02	3.25253998e-04
1.93000000e-01	1.98741996e-02	3.21336481e-04
1.93500000e-01	2.00685541e-02	3.23950018e-04
1.94000000e-01	1.98641384e-02	3.18817991e-04
1.94500000e-01	2.00808984e-02	3.21650534e-04
1.95000000e-01	2.01346287e-02	3.22776171e-04
1.95500000e-01	1.98671440e-02	3.17590885e-04
1.96000000e-01	2.01317513e-02	3.21004358e-04
1.96500000e-01	2.02312734e-02	3.23985267e-04
1.97000000e-01	2.00959805e-02	3.19751577e-04
1.97500000e-01	1.97897723e-02	3.15826229e-04
1.98000000e-01	1.98064575e-02	3.15177657e-04
1.98500000e-01	1.99647091e-02	3.18985269e-04
1.99000000e-01	1.98277191e-02	3.14581315e-04
1.99500000e-01	1.98230088e-02	3.13490224e-04
2.00000000e-01	2.01366964e-02	3.18035249e-04
2.00500000e-01	1.98503815e-02	3.13929847e-04
2.01000000e-01	2.00923735e-02	3.17640805e-04
2.01500000e-01	1.99790083e-02	3.14947949e-04
2.02000000e-01	2.01023747e-02	3.16408469e-04
2.02500000e-01	1.99176825e-02	3.12952818e-04
2.03000000e-01	1.98385272e-02	3.12314778e-04
2.03500000e-01	1.98795268e-02	3.12930316e-04
2.04000000e-01	1.99340824e-02	3.12198828e-04
2.04500000e-01	1.98977081e-02	3.12102162e-04
2.05000000e-01	1.97871322e-02	3.09681455e-04
2.05500000e-01	1.95226570e-02	3.06510132e-04
2.06000000e-01	1.96392133e-02	3.07187035e-04
2.06500000e-01	1.95438910e-02	3.04608570e-04
2.07000000e-01	1.97140636e-02	3.07267613e-04
2.07500000e-01	1.95859295e-02	3.03893208e-04
2.08000000e-01	1.98791899e-02	3.10007152e-04
2.08500000e-01	1.97163634e-02	3.04994641e-04
2.09000000e-01	1.96659414e-02	3.04706276e-04
2.09500000e-01	1.98806149e-02	3.07926517e-04
2.10000000e-01	1.96410844e-02	3.04182910e-04
2.10500000e-01	1.97949790e-02	3.06340582e-04
2.11000000e-01	1.95504442e-02	3.01081026e-04
2.11500000e-01	1.95135768e-02	3.02282828e-04
2.12000000e-01	1.93341023e-02	2.97196208e-04
2.12500000e-01	1.95207816e-02	2.99639374e-04
2.13000000e-01	1.95360426e-02	3.00388858e-04
2.13500000e-01	1.96122016e-02	3.00644832e-04
2.14000000e-01	1.94973407e-02	2.99152338e-04
2.14500000e-01	1.95348924e-02	2.99803873e-04
2.15000000e-01	1.94837672e-02	2.99449564e-04
2.15500000e-01	1.92850908e-02	2.94073255e-04
2.16000000e-01	1.93533693e-02	2.94616508e-04
2.16500000e-01	1.94012564e-02	2.94942142e-04
2.17000000e-01	1.96400768e-02	3.02079447e-04
2.17500000e-01	1.92516887e-02	3.03232509e-04
2.18000000e-01	1.95793738e-02	3.06916473e-04
2.18500000e-01	1.95546304e-02	3.10151071e-04
2.19000000e-01	1.93962908e-02	3.08097480e-04
2.19500000e-01	1.94713324e-02	3.10115977e-04
2.20000000e-01	1.93796460e-02	3.10806409e-04
2.20500000e-01	1.93444805e-02	3.10623400e-04
2.21000000e-01	1.93235840e-02	3.11299232e-04
2.21500000e-01	1.92578888e-02	3.12454901e-04
2.22000000e-01	1.93643676e-02	3.13231689e-04
2.22500000e-01	1.93494242e-02	3.14034920e-04
2.23000000e-01	1.95516862e-02	3.17014961e-04
2.23500000e-01	1.95243699e-02	3.18265701e-04
2.24000000e-01	1.94457143e-02	3.17057686e-04
2.24500000e-01	1.92304561e-02	3.15935431e-04
2.25000000e-01	1.96017640e-02	3.20700661e-04
2.25500000e-01	1.91488309e-02	3.13831624e-04
2.26000000e-01	1.92829208e-02	3.18345813e-04
2.26500000e-01	1.90809861e-02	3.09549705e-04
2.27000000e-01	1.91176394e-02	3.06351447e-04
2.27500000e-01	1.90602421e-02	3.04517295e-04
2.28000000e-01	1.93578375e-02	3.07171659e-04
2.28500000e-01	1.91632174e-02	3.02541219e-04
2.29000000e-01	1.90854095e-02	3.00592081e-04
2.29500000e-01	1.91063617e-02	2.99513478e-04
2.30000000e-01	1.91946527e-02	3.00115742e-04
2.30500000e-01	1.91248724e-02	2.97269972e-04
2.31000000e-01	1.92283505e-02	2.98249671e-04
2.31500000e-01	1.90671240e-02	2.95013582e-04
2.32000000e-01	1.91628501e-02	2.96346718e-04
2.32500000e-01	1.92109249e-02	2.96665914e-04
2.33000000e-01	1.92517745e-02	2.96074096e-04
2.33500000e-01	1.89940380e-02	2.92211164e-04
2.34000000e-01	1.90621604e-02	2.92839013e-04
2.34500000e-01	1.90901230e-02	2.92445545e-04
2.35000000e-01	1.90251978e-02	2.90375363e-04
2.35500000e-01	1.87512996e-02	2.85423865e-04
2.36000000e-01	1.90159271e-02	2.89998841e-04
2.36500000e-01	1.90557244e-02	2.90512295e-04
2.37000000e-01	1.89408562e-02	2.88051817e-04
2.37500000e-01	1.87999542e-02	2.84722360e-04
2.38000000e-01	1.88795291e-02	2.85503743e-04
2.38500000e-01	1.86798859e-02	2.82095484e-04
2.39000000e-01	1.87547195e-02	2.82575459e-04
2.39500000e-01	1.91232876e-02	2.87041677e-04
2.40000000e-01	1.88454965e-02	2.82500189e-04
2.40500000e-01	1.90378952e-02	2.85723757e-04
2.41000000e-01	1.91221628e-02	2.86579090e-04
2.41500000e-01	1.86677252e-02	2.78902574e-04
2.42000000e-01	1.90504305e-02	2.84088983e-04
2.42500000e-01	1.87535927e-02	2.79174266e-04
2.43000000e-01	1.88385171e-02	2.80074674e-04
2.43500000e-01	1.86913127e-02	2.77984300e-04
2.44000000e-01	1.88146853e-02	2.78621435e-04
2.44500000e-01	1.89336841e-02	2.79825499e-04
2.45000000e-01	1.88121449e-02	2.77936442e-04
2.45500000e-01	1.88399954e-02	2.78263348e-04
2.46000000e-01	1.87349804e-02	2.76925666e-04
2.46500000e-01	1.86719766e-02	2.74838606e-04
2.47000000e-01	1.89896121e-02	2.79694695e-04
2.47500000e-01	1.86018276e-02	2.73226311e-04
2.48000000e-01	1.88793921e-02	2.77055261e-04
2.48500000e-01	1.88883318e-02	2.76073629e-04
2.49000000e-01	1.86782712e-02	2.72961364e-04
2.49500000e-01	1.87020901e-02	2.74760013e-04
2.50000000e-01	1.87574894e-02	2.75184273e-04
2.50500000e-01	1.88076945e-02	2.75287563e-04
2.51000000e-01	1.86392769e-02	2.71269222e-04
2.51500000e-01	1.88883120e-02	2.75549803e-04
2.52000000e-01	1.89326235e-02	2.75267671e-04
2.52500000e-01	1.86963570e-02	2.71926401e-04
2.53000000e-01	1.85811545e-02	2.70868619e-04
2.53500000e-01	1.88581280e-02	2.72499031e-04
2.54000000e-01	1.90277082e-02	2.75469154e-04
2.54500000e-01	1.89297720e-02	2.73447602e-04
2.55000000e-01	1.86918076e-02	2.69542447e-04
2.55500000e-01	1.87994893e-02	2.72116156e-04
2.56000000e-01	1.88283962e-02	2.70841947e-04
2.56500000e-01	1.89321336e-02	2.72073556e-04
2.57000000e-01	1.87519695e-02	2.69707370e-04
2.57500000e-01	1.87395356e-02	2.69941533e-04
2.58000000e-01	1.86103772e-02	2.67691484e-04
2.58500000e-01	1.85977266e-02	2.66973927e-04
2.59000000e-01	1.87243178e-02	2.68432995e-04
2.59500000e-01	1.84980865e-02	2.64979250e-04
2.60000000e-01	1.87029459e-02	2.66777367e-04
2.60500000e-01	1.86948195e-02	2.67627699e-04
2.61000000e-01	1.85420622e-02	2.64187591e-04
2.61500000e-01	1.86585138e-02	2.65589336e-04
2.62000000e-01	1.85846755e-02	2.64604757e-04
2.62500000e-01	1.86127070e-02	2.64727139e-04
2.63000000e-01	1.87238684e-02	2.66327873e-04
2.63500000e-01	1.84701245e-02	2.62072995e-04
2.64000000e-01	1.85761965e-02	2.64696735e-04
2.64500000e-01	1.84356847e-02	2.60952362e-04
2.65000000e-01	1.83828350e-02	2.59611396e-04
2.65500000e-01	1.86836117e-02	2.63179337e-04
2.66000000e-01	1.85854881e-02	2.62866715e-04
2.66500000e-01	1.84675263e-02	2.60489357e-04
2.67000000e-01	1.86798053e-02	2.64187134e-04
2.67500000e-01	1.83076425e-02	2.57540211e-04
2.68000000e-01	1.82349436e-02	2.56447342e-04
2.68500000e-01	1.84072006e-02	2.58507194e-04
2.69000000e-01	1.82243199e-02	2.55715009e-04
2.69500000e-01	1.83846737e-02	2.56139084e-04
2.70000000e-01	1.83342035e-02	2.56988020e-04
2.70500000e-01	1.83838902e-02	2.56245017e-04
2.71000000e-01	1.83510655e-02	2.56119381e-04
2.71500000e-01	1.84865167e-02	2.58543084e-04
2.72000000e-01	1.84447602e-02	2.56002074e-04
2.72500000e-01	1.82322645e-02	2.53835938e-04
2.73000000e-01	1.82776713e-02	2.55124912e-04
2.73500000e-01	1.82908461e-02	2.53286798e-04
2.74000000e-01	1.84013101e-02	2.55087023e-04
2.74500000e-01	1.82733574e-02	2.52665810e-04
2.75000000e-01	1.82442014e-02	2.52850945e-04
2.75500000e-01	1.82187164e-02	2.52903991e-04
2.76000000e-01	1.83442265e-02	2.53711130e-04
2.76500000e-01	1.81524329e-02	2.51902813e-04
2.77000000e-01	1.82711325e-02	2.52265499e-04
2.77500000e-01	1.83530707e-02	2.53493669e-04
2.78000000e-01	1.82478382e-02	2.51902678e-04
2.78500000e-01	1.82743255e-02	2.52706336e-04
2.79000000e-01	1.80507667e-02	2.48618670e-04
2.79500000e-01	1.81579404e-02	2.49673600e-04
2.80000000e-01	1.82161562e-02	2.51242496e-04
2.80500000e-01	1.81890208e-02	2.49664882e-04
2.81000000e-01	1.81368441e-02	2.49848537e-04
2.81500000e-01	1.82722361e-02	2.49925165e-04
2.82000000e-01	1.82496667e-02	2.50138811e-04
2.82500000e-01	1.82140688e-02	2.49120498e-04
2.83000000e-01	1.81644125e-02	2.48934956e-04
2.83500000e-01	1.80722897e-02	2.47720447e-04
2.84000000e-01	1.81504738e-02	2.48787755e-04
2.84500000e-01	1.80034014e-02	2.46165989e-04
2.85000000e-01	1.79445915e-02	2.44681084e-04
2.85500000e-01	1.78365691e-02	2.42771057e-04
2.86000000e-01	1.78660088e-02	2.44349998e-04
2.86500000e-01	1.80038008e-02	2.45215781e-04
2.87000000e-01	1.79853172e-02	2.45176621e-04
2.87500000e-01	1.79401079e-02	2.42683919e-04
2.88000000e-01	1.79714161e-02	2.41877009e-04
2.88500000e-01	1.76871200e-02	2.39587072e-04
2.89000000e-01	1.79204195e-02	2.42733261e-04
2.89500000e-01	1.79020263e-02	2.41752234e-04
2.90000000e-01	1.78991206e-02	2.41069561e-04
2.90500000e-01	1.78155804e-02	2.40735972e-04
2.91000000e-01	1.75952575e-02	2.37349812e-04
2.91500000e-01	1.77429973e-02	2.38690443e-04
2.92000000e-01	1.79071133e-02	2.40562111e-04
2.92500000e-01	1.80252422e-02	2.41368102e-04
2.93000000e-01	1.78883152e-02	2.39572545e-04
2.93500000e-01	1.78462322e-02	2.38941267e-04
2.94000000e-01	1.77181981e-02	2.37714132e-04
2.94500000e-01	1.78921767e-02	2.40177175e-04
2.95000000e-01	1.77030011e-02	2.36610480e-04
2.95500000e-01	1.79430672e-02	2.40087381e-04
2.96000000e-01	1.79490326e-02	2.39367861e-04
2.96500000e-01	1.78767243e-02	2.38502778e-04
2.97000000e-01	1.76721159e-02	2.36134339e-04
2.97500000e-01	1.78723557e-02	2.38304304e-04
2.98000000e-01	1.75597122e-02	2.34537785e-04
2.98500000e-01	1.77288227e-02	2.35612142e-04
2.99000000e-01	1.77051540e-02	2.34527478e-04
2.99500000e-01	1.77505281e-02	2.36390973e-04
3.00000000e-01	1.80298284e-02	2.39154340e-04
3.00500000e-01	1.78438620e-02	2.36210870e-04
3.01000000e-01	1.77192931e-02	2.34580537e-04
3.01500000e-01	1.77572082e-02	2.34678754e-04
3.02000000e-01	1.76367788e-02	2.32830128e-04
3.02500000e-01	1.76984596e-02	2.33536112e-04
3.03000000e-01	1.75618655e-02	2.33002250e-04
3.03500000e-01	1.76366547e-02	2.32881306e-04
3.04000000e-01	1.76353827e-02	2.33241470e-04
3.04500000e-01	1.75510321e-02	2.31810342e-04
3.05000000e-01	1.77498222e-02	2.33879803e-04
3.05500000e-01	1.78804350e-02	2.35543098e-04
3.06000000e-01	1.77960137e-02	2.32654356e-04
3.06500000e-01	1.77443899e-02	2.33816584e-04
3.07000000e-01	1.75202701e-02	2.30670273e-04
3.07500000e-01	1.74666597e-02	2.29535102e-04
3.08000000e-01	1.75612952e-02	2.29827994e-04
3.08500000e-01	1.75821406e-02	2.29701101e-04
3.09000000e-01	1.74979765e-02	2.30081523e-04
3.09500000e-01	1.76124248e-02	2.30234850e-04
3.10000000e-01	1.74914717e-02	2.29112972e-04
3.10500000e-01	1.74907764e-02	2.28708361e-04
3.11000000e-01	1.75203422e-02	2.28607167e-04
3.11500000e-01	1.76270357e-02	2.29427800e-04
3.12000000e-01	1.76492383e-02	2.29947969e-04
3.12500000e-01	1.76394655e-02	2.28728109e-04
3.13000000e-01	1.75400679e-02	2.27681848e-04
3.13500000e-01	1.74410565e-02	2.27164291e-04
3.14000000e-01	1.73321674e-02	2.25164711e-04
3.14500000e-01	1.72833085e-02	2.24604955e-04
3.15000000e-01	1.74399948e-02	2.26523336e-04
3.15500000e-01	1.73997266e-02	2.25882422e-04
3.16000000e-01	1.73900117e-02	2.25171777e-04
3.16500000e-01	1.73221142e-02	2.24741895e-04
3.17000000e-01	1.72078495e-02	2.23124297e-04
3.17500000e-01	1.75339671e-02	2.27853745e-04
3.18000000e-01	1.73708213e-02	2.24356054e-04
3.18500000e-01	1.72773365e-02	2.23516755e-04
3.19000000e-01	1.72046628e-02	2.22358780e-04
3.19500000e-01	1.74233725e-02	2.23856856e-04
3.20000000e-01	1.73525588e-02	2.23787357e-04
3.20500000e-01	1.74956900e-02	2.24479458e-04
3.21000000e-01	1.74170919e-02	2.23872921e-04
3.21500000e-01	1.70694274e-02	2.20311375e-04
3.22000000e-01	1.72026345e-02	2.21879606e-04
3.22500000e-01	1.74018067e-02	2.23391604e-04
3.23000000e-01	1.73168201e-02	2.21416550e-04
3.23500000e-01	1.72473063e-02	2.21085863e-04
3.24000000e-01	1.72747084e-02	2.20483579e-04
3.24500000e-01	1.71930178e-02	2.20380014e-04
3.25000000e-01	1.73030959e-02	2.21102432e-04
3.25500000e-01	1.72146979e-02	2.20802247e-04
3.26000000e-01	1.70154664e-02	2.16744287e-04
3.26500000e-01	1.72384372e-02	2.19110414e-04
3.27000000e-01	1.72913961e-02	2.20538182e-04
3.27500000e-01	1.70802949e-02	2.17845203e-04
3.28000000e-01	1.73186513e-02	2.20430397e-04
3.28500000e-01	1.71040529e-02	2.17616904e-04
3.29000000e-01	1.73566529e-02	2.20435372e-04
3.29500000e-01	1.71618429e-02	2.17891914e-04
3.30000000e-01	1.74139592e-02	2.20692437e-04
3.30500000e-01	1.71000837e-02	2.16788127e-04
3.31000000e-01	1.69453834e-02	2.14882958e-04
3.31500000e-01	1.71227875e-02	2.16498389e-04
3.32000000e-01	1.71121929e-02	2.16615359e-04
3.32500000e-01	1.69412350e-02	2.14151577e-04
3.33000000e-01	1.70669093e-02	2.15857437e-04
3.33500000e-01	1.72529841e-02	2.17839755e-04
3.34000000e-01	1.69757196e-02	2.13434819e-04
3.34500000e-01	1.71079438e-02	2.15848945e-04
3.35000000e-01	1.71340506e-02	2.14971778e-04
3.35500000e-01	1.69229709e-02	2.13350023e-04
3.36000000e-01	1.71073650e-02	2.14435487e-04
3.36500000e-01	1.69232045e-02	2.12770468e-04
3.37000000e-01	1.67244399e-02	2.10543130e-04
3.37500000e-01	1.69855615e-02	2.13484575e-04
3.38000000e-01	1.70947966e-02	2.15054553e-04
3.38500000e-01	1.69413376e-02	2.12380362e-04
3.39000000e-01	1.69359373e-02	2.12815248e-04
3.39500000e-01	1.70908675e-02	2.13476628e-04
3.40000000e-01	1.70055294e-02	2.13201550e-04
3.40500000e-01	1.69318500e-02	2.11315697e-04
3.41000000e-01	1.68962544e-02	2.11219141e-04
3.41500000e-01	1.69163996e-02	2.11657313e-04
3.42000000e-01	1.69597525e-02	2.11016978e-04
3.42500000e-01	1.69305013e-02	2.11465916e-04
3.43000000e-01	1.69209454e-02	2.10753150e-04
3.43500000e-01	1.68065648e-02	2.09036623e-04
3.44000000e-01	1.68604095e-02	2.10450562e-04
3.44500000e-01	1.69067939e-02	2.09817818e-04
3.45000000e-01	1.70431666e-02	2.11431492e-04
3.45500000e-01	1.67446096e-02	2.07784295e-04
3.46000000e-01	1.68322399e-02	2.08487333e-04
3.46500000e-01	1.67388295e-02	2.07593174e-04
3.47000000e-01	1.69399667e-02	2.09256117e-04
3.47500000e-01	1.67907872e-02	2.07568219e-04
3.48000000e-01	1.69075208e-02	2.08892081e-04
3.48500000e-01	1.68022082e-02	2.08198603e-04
3.49000000e-01	1.68843275e-02	2.08539745e-04
3.49500000e-01	1.67056592e-02	2.07268629e-04
3.50000000e-01	1.67707347e-02	1.68626119e-04
3.51000000e-01	1.68055224e-02	1.46366696e-04
3.52000000e-01	1.67458144e-02	1.45878300e-04
3.53000000e-01	1.66729755e-02	1.44694397e-04
3.54000000e-01	1.67675177e-02	1.45008190e-04
3.55000000e-01	1.66402249e-02	1.44202263e-04
3.56000000e-01	1.66817521e-02	1.45022323e-04
3.57000000e-01	1.66414702e-02	1.47349056e-04
3.58000000e-01	1.66687101e-02	1.48747125e-04
3.59000000e-01	1.66576341e-02	1.49912845e-04
3.60000000e-01	1.65121708e-02	1.49329208e-04
3.61000000e-01	1.64652896e-02	1.49990406e-04
3.62000000e-01	1.65898021e-02	1.51702986e-04
3.63000000e-01	1.65094403e-02	1.51339516e-04
3.64000000e-01	1.65168219e-02	1.51883546e-04
3.65000000e-01	1.64388788e-02	1.51662099e-04
3.66000000e-01	1.63905926e-02	1.49250239e-04
3.67000000e-01	1.64961646e-02	1.48415864e-04
3.68000000e-01	1.64354279e-02	1.46665769e-04
3.69000000e-01	1.63138443e-02	1.45290262e-04
3.70000000e-01	1.63402521e-02	1.44712276e-04
3.71000000e-01	1.64825107e-02	1.47546900e-04
3.72000000e-01	1.64133072e-02	1.47963526e-04
3.73000000e-01	1.63283829e-02	1.47309405e-04
3.74000000e-01	1.63698806e-02	1.48272421e-04
3.75000000e-01	1.61325150e-02	1.46314911e-04
3.76000000e-01	1.61826139e-02	1.46608222e-04
3.77000000e-01	1.61457099e-02	1.46637662e-04
3.78000000e-01	1.61368266e-02	1.46534692e-04
3.79000000e-01	1.62519221e-02	1.46717490e-04
3.80000000e-01	1.61276236e-02	1.45757289e-04
3.81000000e-01	1.61318164e-02	1.45646431e-04
3.82000000e-01	1.62600730e-02	1.46926549e-04
3.83000000e-01	1.62065039e-02	1.46289053e-04
3.84000000e-01	1.61931243e-02	1.46157627e-04
3.85000000e-01	1.57960805e-02	1.43275133e-04
3.86000000e-01	1.61072118e-02	1.45537411e-04
3.87000000e-01	1.60906980e-02	1.45306875e-04
3.88000000e-01	1.60945164e-02	1.45434898e-04
3.89000000e-01	1.60283112e-02	1.44482892e-04
3.90000000e-01	1.58740022e-02	1.43331427e-04
3.91000000e-01	1.60175759e-02	1.44357949e-04
3.92000000e-01	1.59810356e-02	1.43878869e-04
3.93000000e-01	1.59255721e-02	1.43823490e-04
3.94000000e-01	1.59021199e-02	1.43200582e-04
3.95000000e-01	1.59885809e-02	1.44109044e-04
3.96000000e-01	1.58543467e-02	1.43389409e-04
3.97000000e-01	1.58937052e-02	1.43184909e-04
3.98000000e-01	1.59527588e-02	1.43801319e-04
3.99000000e-01	1.58925546e-02	1.43508446e-04
4.00000000e-01	1.58198715e-02	1.42592645e-04
4.01000000e-01	1.57693587e-02	1.42052160e-04
4.02000000e-01	1.59617213e-02	1.44047135e-04
4.03000000e-01	1.57867313e-02	1.42529451e-04
4.04000000e-01	1.60317561e-02	1.44370397e-04
4.05000000e-01	1.57380220e-02	1.41933915e-04
4.06000000e-01	1.60308309e-02	1.44345539e-04
4.07000000e-01	1.56310528e-02	1.40708873e-04
4.08000000e-01	1.57687898e-02	1.41928052e-04
4.09000000e-01	1.57531204e-02	1.41761675e-04
4.10000000e-01	1.58739009e-02	1.42778102e-04
4.11000000e-01	1.57420820e-02	1.41728471e-04
4.12000000e-01	1.57717008e-02	1.41793643e-04
4.13000000e-01	1.56190562e-02	1.40254993e-04
4.14000000e-01	1.56982453e-02	1.41128475e-04
4.15000000e-01	1.56253486e-02	1.40016361e-04
4.16000000e-01	1.55690548e-02	1.40059184e-04
4.17000000e-01	1.57618422e-02	1.41609509e-04
4.18000000e-01	1.56671516e-02	1.42093476e-04
4.19000000e-01	1.56906010e-02	1.44281161e-04
4.20000000e-01	1.56538988e-02	1.44439761e-04
4.21000000e-01	1.57023038e-02	1.45584481e-04
4.22000000e-01	1.57244170e-02	1.46124279e-04
4.23000000e-01	1.55530535e-02	1.45186153e-04
4.24000000e-01	1.55864007e-02	1.46027551e-04
4.25000000e-01	1.58111775e-02	1.47629997e-04
4.26000000e-01	1.56902196e-02	1.46777342e-04
4.27000000e-01	1.56604400e-02	1.46606587e-04
4.28000000e-01	1.56358829e-02	1.46815348e-04
4.29000000e-01	1.56046003e-02	1.46837840e-04
4.30000000e-01	1.57058715e-02	1.47220057e-04
4.31000000e-01	1.56710283e-02	1.46936485e-04
4.32000000e-01	1.54784222e-02	1.45497842e-04
4.33000000e-01	1.56287271e-02	1.46856449e-04
4.34000000e-01	1.57504048e-02	1.48225670e-04
4.35000000e-01	1.54933517e-02	1.46187196e-04
4.36000000e-01	1.55588921e-02	1.46585505e-04
4.37000000e-01	1.56759563e-02	1.47995443e-04
4.38000000e-01	1.55675889e-02	1.47488180e-04
4.39000000e-01	1.54422177e-02	1.46356625e-04
4.40000000e-01	1.55131298e-02	1.47127098e-04
4.41000000e-01	1.53980086e-02	1.46079365e-04
4.42000000e-01	1.55321143e-02	1.47888785e-04
4.43000000e-01	1.54663340e-02	1.47457876e-04
4.44000000e-01	1.54688189e-02	1.47245176e-04
4.45000000e-01	1.55686036e-02	1.48663848e-04
4.46000000e-01	1.53993210e-02	1.47135423e-04
4.47000000e-01	1.54866617e-02	1.48236539e-04
4.48000000e-01	1.53534795e-02	1.47022372e-04
4.49000000e-01	1.54132334e-02	1.48254541e-04
4.50000000e-01	1.54209775e-02	1.48115336e-04
4.51000000e-01	1.53128554e-02	1.47370205e-04
4.52000000e-01	1.52699745e-02	1.47035008e-04
4.53000000e-01	1.52351039e-02	1.47052637e-04
4.54000000e-01	1.53797855e-02	1.48409089e-04
4.55000000e-01	1.52604452e-02	1.47502117e-04
4.56000000e-01	1.53102206e-02	1.48183841e-04
4.57000000e-01	1.53078719e-02	1.47781476e-04
4.58000000e-01	1.52489717e-02	1.47651850e-04
4.59000000e-01	1.54197748e-02	1.49035722e-04
4.60000000e-01	1.53056853e-02	1.48364177e-04
4.61000000e-01	1.52918424e-02	1.48204769e-04
4.62000000e-01	1.51895664e-02	1.47200298e-04
4.63000000e-01	1.53326822e-02	1.48953793e-04
4.64000000e-01	1.53169789e-02	1.48640975e-04
4.65000000e-01	1.51944375e-02	1.48069452e-04
4.66000000e-01	1.52188793e-02	1.47981367e-04
4.67000000e-01	1.51236567e-02	1.47214950e-04
4.68000000e-01	1.53122632e-02	1.49231916e-04
4.69000000e-01	1.54177342e-02	1.49919062e-04
4.70000000e-01	1.52514898e-02	1.48840610e-04
4.71000000e-01	1.51889814e-02	1.48280288e-04
4.72000000e-01	1.52681894e-02	1.48857462e-04
4.73000000e-01	1.51512883e-02	1.47683480e-04
4.74000000e-01	1.52015808e-02	1.47893994e-04
4.75000000e-01	1.51827232e-02	1.48140476e-04
4.76000000e-01	1.51389907e-02	1.47494893e-04
4.77000000e-01	1.51438652e-02	1.47519033e-04
4.78000000e-01	1.50712502e-02	1.47173097e-04
4.79000000e-01	1.49500482e-02	1.46071624e-04
4.80000000e-01	1.50411639e-02	1.46573472e-04
4.81000000e-01	1.50895784e-02	1.47712206e-04
4.82000000e-01	1.49860645e-02	1.46908317e-04
4.83000000e-01	1.49953611e-02	1.46806750e-04
4.84000000e-01	1.50018141e-02	1.47330137e-04
4.85000000e-01	1.50852653e-02	1.47945434e-04
4.86000000e-01	1.49076310e-02	1.46439210e-04
4.87000000e-01	1.50753244e-02	1.47943560e-04
4.88000000e-01	1.48860099e-02	1.46128705e-04
4.89000000e-01	1.49085314e-02	1.46544543e-04
4.90000000e-01	1.50591778e-02	1.48295837e-04
4.91000000e-01	1.49185693e-02	1.46696450e-04
4.92000000e-01	1.49603919e-02	1.47737979e-04
4.93000000e-01	1.50287254e-02	1.47800289e-04
4.94000000e-01	1.48811873e-02	1.46963312e-04
4.95000000e-01	1.50199458e-02	1.48614826e-04
4.96000000e-01	1.50228037e-02	1.53533661e-04
4.97000000e-01	1.48898730e-02	1.54929790e-04
4.98000000e-01	1.49288346e-02	1.57188904e-04
4.99000000e-01	1.48927365e-02	1.59258338e-04
5.00000000e-01	1.50191214e-02	1.62087643e-04
5.01000000e-01	1.50156533e-02	1.63177451e-04
5.02000000e-01	1.49851490e-02	1.64882909e-04
5.03000000e-01	1.49139711e-02	1.65775337e-04
5.04000000e-01	1.48284050e-02	1.65934327e-04
5.05000000e-01	1.48854017e-02	1.63336552e-04
5.06000000e-01	1.49967163e-02	1.61465253e-04
5.07000000e-01	1.47323590e-02	1.57647082e-04
5.08000000e-01	1.49772569e-02	1.58906498e-04
5.09000000e-01	1.49451229e-02	1.57553885e-04
5.10000000e-01	1.49140632e-02	1.56986026e-04
5.11000000e-01	1.49246967e-02	1.56748853e-04
5.12000000e-01	1.48027957e-02	1.54640035e-04
5.13000000e-01	1.48368318e-02	1.55425674e-04
5.14000000e-01	1.48111385e-02	1.54293707e-04
5.15000000e-01	1.48714920e-02	1.54664892e-04
5.16000000e-01	1.46113975e-02	1.52020035e-04
5.17000000e-01	1.47655467e-02	1.52976172e-04
5.18000000e-01	1.46997151e-02	1.52750208e-04
5.19000000e-01	1.47019043e-02	1.51450511e-04
5.20000000e-01	1.47485629e-02	1.52066797e-04
5.21000000e-01	1.49157512e-02	1.52878727e-04
5.22000000e-01	1.49088188e-02	1.52413699e-04
5.23000000e-01	1.47865168e-02	1.51905724e-04
5.24000000e-01	1.46372155e-02	1.50716675e-04
5.25000000e-01	1.47796914e-02	1.51300416e-04
5.26000000e-01	1.46504491e-02	1.50618393e-04
5.27000000e-01	1.47201637e-02	1.51280346e-04
5.28000000e-01	1.48762334e-02	1.52806642e-04
5.29000000e-01	1.46493966e-02	1.50504047e-04
5.30000000e-01	1.46541814e-02	1.50087447e-04
5.31000000e-01	1.47799063e-02	1.51728801e-04
5.32000000e-01	1.46619208e-02	1.50371992e-04
5.33000000e-01	1.47610920e-02	1.51572893e-04
5.34000000e-01	1.45388416e-02	1.49119427e-04
5.35000000e-01	1.46203499e-02	1.50309079e-04
5.36000000e-01	1.46625955e-02	1.50870363e-04
5.37000000e-01	1.45548635e-02	1.49463912e-04
5.38000000e-01	1.45609459e-02	1.49369497e-04
5.39000000e-01	1.45539779e-02	1.49165369e-04
5.40000000e-01	1.46037568e-02	1.50063976e-04
5.41000000e-01	1.44906571e-02	1.48684841e-04
5.42000000e-01	1.43256345e-02	1.47271833e-04
5.43000000e-01	1.45168366e-02	1.49571848e-04
5.44000000e-01	1.45318484e-02	1.49402879e-04
5.45000000e-01	1.44561016e-02	1.48879451e-04
5.46000000e-01	1.44204083e-02	1.48268118e-04
5.47000000e-01	1.46363461e-02	1.50152947e-04
5.48000000e-01	1.44369905e-02	1.48481707e-04
5.49000000e-01	1.45852118e-02	1.49460746e-04
5.50000000e-01	1.44479830e-02	1.48386360e-04
5.51000000e-01	1.45121444e-02	1.48305834e-04
5.52000000e-01	1.44662013e-02	1.47964426e-04
5.53000000e-01	1.44400707e-02	1.47618425e-04
5.54000000e-01	1.44045884e-02	1.47389355e-04
5.55000000e-01	1.44222952e-02	1.47669040e-04
5.56000000e-01	1.43855094e-02	1.47180899e-04
5.57000000e-01	1.43846118e-02	1.46601052e-04
5.58000000e-01	1.43945859e-02	1.46845164e-04
5.59000000e-01	1.43193862e-02	1.46401721e-04
5.60000000e-01	1.44135565e-02	1.47049348e-04
5.61000000e-01	1.44079090e-02	1.47487249e-04
5.62000000e-01	1.42357689e-02	1.45638612e-04
5.63000000e-01	1.44277953e-02	1.47011786e-04
5.64000000e-01	1.42021299e-02	1.45069104e-04
5.65000000e-01	1.44643546e-02	1.47277670e-04
5.66000000e-01	1.42115422e-02	1.45145621e-04
5.67000000e-01	1.43835002e-02	1.47182826e-04
5.68000000e-01	1.43118427e-02	1.46321526e-04
5.69000000e-01	1.42213629e-02	1.44774653e-04
5.70000000e-01	1.41651133e-02	1.44760347e-04
5.71000000e-01	1.42235261e-02	1.45286720e-04
5.72000000e-01	1.42710932e-02	1.45655924e-04
5.73000000e-01	1.42829977e-02	1.45929330e-04
5.74000000e-01	1.41835869e-02	1.45106270e-04
5.75000000e-01	1.41805303e-02	1.45135125e-04
5.76000000e-01	1.41136987e-02	1.45286416e-04
5.77000000e-01	1.41535349e-02	1.45090930e-04
5.78000000e-01	1.40720476e-02	1.44630124e-04
5.79000000e-01	1.41792648e-02	1.45348106e-04
5.80000000e-01	1.41683403e-02	1.45082299e-04
5.81000000e-01	1.40727219e-02	1.44107367e-04
5.82000000e-01	1.40789186e-02	1.44559638e-04
5.83000000e-01	1.41686568e-02	1.45273768e-04
5.84000000e-01	1.40850744e-02	1.44425404e-04
5.85000000e-01	1.41210261e-02	1.44991530e-04
5.86000000e-01	1.40334473e-02	1.44099007e-04
5.87000000e-01	1.40102343e-02	1.43610281e-04
5.88000000e-01	1.40478945e-02	1.44047481e-04
5.89000000e-01	1.38574041e-02	1.42553750e-04
5.90000000e-01	1.39874708e-02	1.43438504e-04
5.91000000e-01	1.41875803e-02	1.45465409e-04
5.92000000e-01	1.40868386e-02	1.44724816e-04
5.93000000e-01	1.40068760e-02	1.43865429e-04
5.94000000e-01	1.41175237e-02	1.44723970e-04
5.95000000e-01	1.40167195e-02	1.43972462e-04
5.96000000e-01	1.39039281e-02	1.42656775e-04
5.97000000e-01	1.40155774e-02	1.44030652e-04
5.98000000e-01	1.39029658e-02	1.43174868e-04
5.99000000e-01	1.39124693e-02	1.43333311e-04
6.00000000e-01	1.39449885e-02	1.43618327e-04
6.01000000e-01	1.38024465e-02	1.42281144e-04
6.02000000e-01	1.39141298e-02	1.43078592e-04
6.03000000e-01	1.38393325e-02	1.43413164e-04
6.04000000e-01	1.39640768e-02	1.43388725e-04
6.05000000e-01	1.39223081e-02	1.43178802e-04
6.06000000e-01	1.38847331e-02	1.43099859e-04
6.07000000e-01	1.39254097e-02	1.43706851e-04
6.08000000e-01	1.38641665e-02	1.42834684e-04
6.09000000e-01	1.39695246e-02	1.43436189e-04
6.10000000e-01	1.37747773e-02	1.41759957e-04
6.11000000e-01	1.39463168e-02	1.43753325e-04
6.12000000e-01	1.39034704e-02	1.43465491e-04
6.13000000e-01	1.37260118e-02	1.42046747e-04
6.14000000e-01	1.38331533e-02	1.42683589e-04
6.15000000e-01	1.38498997e-02	1.42766341e-04
6.16000000e-01	1.38519440e-02	1.43023145e-04
6.17000000e-01	1.37794085e-02	1.41984343e-04
6.18000000e-01	1.37199002e-02	1.41277135e-04
6.19000000e-01	1.37803706e-02	1.41963301e-04
6.20000000e-01	1.38169668e-02	1.42123835e-04
6.21000000e-01	1.37669730e-02	1.41449047e-04
6.22000000e-01	1.37362975e-02	1.41412736e-04
6.23000000e-01	1.37681889e-02	1.41407264e-04
6.24000000e-01	1.37791862e-02	1.41371439e-04
6.25000000e-01	1.37077124e-02	1.40573814e-04
6.26000000e-01	1.37655426e-02	1.40891597e-04
6.27000000e-01	1.37263149e-02	1.40972754e-04
6.28000000e-01	1.38617154e-02	1.41495592e-04
6.29000000e-01	1.37128444e-02	1.40539389e-04
6.30000000e-01	1.37729441e-02	1.40908757e-04
6.31000000e-01	1.36642954e-02	1.40366994e-04
6.32000000e-01	1.36642377e-02	1.40258449e-04
6.33000000e-01	1.36969159e-02	1.39952141e-04
6.34000000e-01	1.38297900e-02	1.44498997e-04
6.35000000e-01	1.37543688e-02	1.48722446e-04
6.36000000e-01	1.38248001e-02	1.52254875e-04
6.37000000e-01	1.38023052e-02	1.54449730e-04
6.38000000e-01	1.38158704e-02	1.56010975e-04
6.39000000e-01	1.37427815e-02	1.57244469e-04
6.40000000e-01	1.36953240e-02	1.59014257e-04
6.41000000e-01	1.36321180e-02	1.60130009e-04
6.42000000e-01	1.36738231e-02	1.62154292e-04
6.43000000e-01	1.37993275e-02	1.63487520e-04
6.44000000e-01	1.38432800e-02	1.58697111e-04
6.45000000e-01	1.37774012e-02	1.55626354e-04
6.46000000e-01	1.38233239e-02	1.54549798e-04
6.47000000e-01	1.36191905e-02	1.50818372e-04
6.48000000e-01	1.37629768e-02	1.51678141e-04
6.49000000e-01	1.36608791e-02	1.49794865e-04
6.50000000e-01	1.36058038e-02	1.48497642e-04
6.51000000e-01	1.36447742e-02	1.48345662e-04
6.52000000e-01	1.37916519e-02	1.48876305e-04
6.53000000e-01	1.37999023e-02	1.48368159e-04
6.54000000e-01	1.37439022e-02	1.47738655e-04
6.55000000e-01	1.37092258e-02	1.46940868e-04
6.56000000e-01	1.36518636e-02	1.46743597e-04
6.57000000e-01	1.36340005e-02	1.45958686e-04
6.58000000e-01	1.36733012e-02	1.46102961e-04
6.59000000e-01	1.37195137e-02	1.46927258e-04
6.60000000e-01	1.36083877e-02	1.45181642e-04
6.61000000e-01	1.36975557e-02	1.45809195e-04
6.62000000e-01	1.36689049e-02	1.46157301e-04
6.63000000e-01	1.36723852e-02	1.45337413e-04
6.64000000e-01	1.36146253e-02	1.45060879e-04
6.65000000e-01	1.36267862e-02	1.45407282e-04
6.66000000e-01	1.35870630e-02	1.44508826e-04
6.67000000e-01	1.35514714e-02	1.44098539e-04
6.68000000e-01	1.37708638e-02	1.46399435e-04
6.69000000e-01	1.36383323e-02	1.44969669e-04
6.70000000e-01	1.35651267e-02	1.43895691e-04
6.71000000e-01	1.35621379e-02	1.44358402e-04
6.72000000e-01	1.34920780e-02	1.43172065e-04
6.73000000e-01	1.34500769e-02	1.42861687e-04
6.74000000e-01	1.34771067e-02	1.43340833e-04
6.75000000e-01	1.36455041e-02	1.44354971e-04
6.76000000e-01	1.34751776e-02	1.43067257e-04
6.77000000e-01	1.35567128e-02	1.43340607e-04
6.78000000e-01	1.34496948e-02	1.42483171e-04
6.79000000e-01	1.34930414e-02	1.42857077e-04
6.80000000e-01	1.34884492e-02	1.42995489e-04
6.81000000e-01	1.35559234e-02	1.43463591e-04
6.82000000e-01	1.34581494e-02	1.42840254e-04
6.83000000e-01	1.34499495e-02	1.42037654e-04
6.84000000e-01	1.36304256e-02	1.43767989e-04
6.85000000e-01	1.34197490e-02	1.42599112e-04
6.86000000e-01	1.33362611e-02	1.40991464e-04
6.87000000e-01	1.36096200e-02	1.43846049e-04
6.88000000e-01	1.34072188e-02	1.41817088e-04
6.89000000e-01	1.33646663e-02	1.41382484e-04
6.90000000e-01	1.34179919e-02	1.41731394e-04
6.91000000e-01	1.34486222e-02	1.42257743e-04
6.92000000e-01	1.35101984e-02	1.42864276e-04
6.93000000e-01	1.34710526e-02	1.42380134e-04
6.94000000e-01	1.33875377e-02	1.41560485e-04
6.95000000e-01	1.34128034e-02	1.41980067e-04
6.96000000e-01	1.33527660e-02	1.41119378e-04
6.97000000e-01	1.35852889e-02	1.42557037e-04
6.98000000e-01	1.33713908e-02	1.41270029e-04
6.99000000e-01	1.32871359e-02	1.40975083e-04
7.00000000e-01	1.32786618e-02	1.40309018e-04
7.01000000e-01	1.32422211e-02	1.40040990e-04
7.02000000e-01	1.33504068e-02	1.40468076e-04
7.03000000e-01	1.33078713e-02	1.40680836e-04
7.04000000e-01	1.32128581e-02	1.39607064e-04
7.05000000e-01	1.33636977e-02	1.40754753e-04
7.06000000e-01	1.32752063e-02	1.40389720e-04
7.07000000e-01	1.32523681e-02	1.39726272e-04
7.08000000e-01	1.32030757e-02	1.38899502e-04
7.09000000e-01	1.32458433e-02	1.39739545e-04
7.10000000e-01	1.31337514e-02	1.38996238e-04
7.11000000e-01	1.32102018e-02	1.39984361e-04
7.12000000e-01	1.33098733e-02	1.40429901e-04
7.13000000e-01	1.31534734e-02	1.38976130e-04
7.14000000e-01	1.33083364e-02	1.40281936e-04
7.15000000e-01	1.31389521e-02	1.38969861e-04
7.16000000e-01	1.30423458e-02	1.37705455e-04
7.17000000e-01	1.31244054e-02	1.38817220e-04
7.18000000e-01	1.30952730e-02	1.38134607e-04
7.19000000e-01	1.31201774e-02	1.38730109e-04
7.20000000e-01	1.30253244e-02	1.38407484e-04
7.21000000e-01	1.30227059e-02	1.37955632e-04
7.22000000e-01	1.31183112e-02	1.38601035e-04
7.23000000e-01	1.29582817e-02	1.37500437e-04
7.24000000e-01	1.31067751e-02	1.38639421e-04
7.25000000e-01	1.30534940e-02	1.37656173e-04
7.26000000e-01	1.30679744e-02	1.37732611e-04
7.27000000e-01	1.30642455e-02	1.38488266e-04
7.28000000e-01	1.31036643e-02	1.38401264e-04
7.29000000e-01	1.30160529e-02	1.37894272e-04
7.30000000e-01	1.28688567e-02	1.36283172e-04
7.31000000e-01	1.27787996e-02	1.35584889e-04
7.32000000e-01	1.29315262e-02	1.37284022e-04
7.33000000e-01	1.29510545e-02	1.37413763e-04
7.34000000e-01	1.29935921e-02	1.37078290e-04
7.35000000e-01	1.29179348e-02	1.36030515e-04
7.36000000e-01	1.30121719e-02	1.37171918e-04
7.37000000e-01	1.29344320e-02	1.36134671e-04
7.38000000e-01	1.29328357e-02	1.35422712e-04
7.39000000e-01	1.28785510e-02	1.35042197e-04
7.40000000e-01	1.28930169e-02	1.35609253e-04
7.41000000e-01	1.29534627e-02	1.35878629e-04
7.42000000e-01	1.28535282e-02	1.34631390e-04
7.43000000e-01	1.28093949e-02	1.34611239e-04
7.44000000e-01	1.29695734e-02	1.35739594e-04
7.45000000e-01	1.27022883e-02	1.33027431e-04
7.46000000e-01	1.28374437e-02	1.34787691e-04
7.47000000e-01	1.28473407e-02	1.34197716e-04
7.48000000e-01	1.28709075e-02	1.34191057e-04
7.49000000e-01	1.28352730e-02	1.34356853e-04
7.50000000e-01	1.27907403e-02	1.34313337e-04
7.51000000e-01	1.27907151e-02	1.34544656e-04
7.52000000e-01	1.27213595e-02	1.33222032e-04
7.53000000e-01	1.27205927e-02	1.33669185e-04
7.54000000e-01	1.27096035e-02	1.32787732e-04
7.55000000e-01	1.28333559e-02	1.34374095e-04
7.56000000e-01	1.27134744e-02	1.33406086e-04
7.57000000e-01	1.26661004e-02	1.32934656e-04
7.58000000e-01	1.27458497e-02	1.33636040e-04
7.59000000e-01	1.27070709e-02	1.32926473e-04
7.60000000e-01	1.26439493e-02	1.32227423e-04
7.61000000e-01	1.27186566e-02	1.32582862e-04
7.62000000e-01	1.26453555e-02	1.32028194e-04
7.63000000e-01	1.26748703e-02	1.31905926e-04
7.64000000e-01	1.26816708e-02	1.31835849e-04
7.65000000e-01	1.27708428e-02	1.32435029e-04
7.66000000e-01	1.24759049e-02	1.30338460e-04
7.67000000e-01	1.25990430e-02	1.31096085e-04
7.68000000e-01	1.26138205e-02	1.31160111e-04
7.69000000e-01	1.26619607e-02	1.31457565e-04
7.70000000e-01	1.26557226e-02	1.31474785e-04
7.71000000e-01	1.26016640e-02	1.31532285e-04
7.72000000e-01	1.25918596e-02	1.35180308e-04
7.73000000e-01	1.25752321e-02	1.39043384e-04
7.74000000e-01	1.26150489e-02	1.42528951e-04
7.75000000e-01	1.25939252e-02	1.44694182e-04
7.76000000e-01	1.25777813e-02	1.46644233e-04
7.77000000e-01	1.24164945e-02	1.46896333e-04
7.78000000e-01	1.25708742e-02	1.50592319e-04
7.79000000e-01	1.24505492e-02	1.50697200e-04
7.80000000e-01	1.24786577e-02	1.53069363e-04
7.81000000e-01	1.23429419e-02	1.53504669e-04
7.82000000e-01	1.24621487e-02	1.56140366e-04
7.83000000e-01	1.25379484e-02	1.59082852e-04
7.84000000e-01	1.24808801e-02	1.59685421e-04
7.85000000e-01	1.24419874e-02	1.61022212e-04
7.86000000e-01	1.24480770e-02	1.62814938e-04
7.87000000e-01	1.24685577e-02	1.64729626e-04
7.88000000e-01	1.23228980e-02	1.65215762e-04
7.89000000e-01	1.22716716e-02	1.65428587e-04
7.90000000e-01	1.22222143e-02	1.67284617e-04
7.91000000e-01	1.24895057e-02	1.72155958e-04
7.92000000e-01	1.25105829e-02	1.72922883e-04
7.93000000e-01	1.22445445e-02	1.72830274e-04
7.94000000e-01	1.23974759e-02	1.75784356e-04
7.95000000e-01	1.22327851e-02	1.75595391e-04
7.96000000e-01	1.22463570e-02	1.77642300e-04
7.97000000e-01	1.23950697e-02	1.81581476e-04
7.98000000e-01	1.22523195e-02	1.80553379e-04
7.99000000e-01	1.22295856e-02	1.82778128e-04
8.00000000e-01	1.22751400e-02	1.84683341e-04
8.01000000e-01	1.24185330e-02	1.89517475e-04
8.02000000e-01	1.23051497e-02	1.89926223e-04
8.03000000e-01	1.21541271e-02	1.89301243e-04
8.04000000e-01	1.21493302e-02	1.91547273e-04
8.05000000e-01	1.23510279e-02	1.95900879e-04
8.06000000e-01	1.23070475e-02	1.98489623e-04
8.07000000e-01	1.24884537e-02	2.02978395e-04
8.08000000e-01	1.20415824e-02	1.98812637e-04
8.09000000e-01	1.22159959e-02	2.02935663e-04
8.10000000e-01	1.20151388e-02	2.02578609e-04
8.11000000e-01	1.23130690e-02	2.08279483e-04
8.12000000e-01	1.20991814e-02	2.07520009e-04
8.13000000e-01	1.19834448e-02	2.08868969e-04
8.14000000e-01	1.18142111e-02	2.09765174e-04
8.15000000e-01	1.22174842e-02	2.16687280e-04
8.16000000e-01	1.22188235e-02	2.19403961e-04
8.17000000e-01	1.19668698e-02	2.18646908e-04
8.18000000e-01	1.21842543e-02	2.25112753e-04
8.19000000e-01	1.20414803e-02	2.25019294e-04
8.20000000e-01	1.18053025e-02	2.24889012e-04
8.21000000e-01	1.20740689e-02	2.31970761e-04
8.22000000e-01	1.18722943e-02	2.31427688e-04
8.23000000e-01	1.19232489e-02	2.35712053e-04
8.24000000e-01	1.20673658e-02	2.39916217e-04
8.25000000e-01	1.19180396e-02	2.41721278e-04
8.26000000e-01	1.19092481e-02	2.46054577e-04
8.27000000e-01	1.20808345e-02	2.52834283e-04
8.28000000e-01	1.19245501e-02	2.52803316e-04
8.29000000e-01	1.18257001e-02	2.55950836e-04
8.30000000e-01	1.19244570e-02	2.60955808e-04
8.31000000e-01	1.17379065e-02	2.60552714e-04
8.32000000e-01	1.19241723e-02	2.69420440e-04
8.33000000e-01	1.16031047e-02	2.69952365e-04
8.34000000e-01	1.15623995e-02	2.71554085e-04
8.35000000e-01	1.18229823e-02	2.80893149e-04
8.36000000e-01	1.17163869e-02	2.83508130e-04
8.37000000e-01	1.16022830e-02	2.90344533e-04
8.38000000e-01	1.17656419e-02	2.98679034e-04
8.39000000e-01	1.12507388e-02	2.90889485e-04
8.40000000e-01	1.18191059e-02	3.08802776e-04
8.41000000e-01	1.14702441e-02	3.09472443e-04
8.42000000e-01	1.17138766e-02	3.22789297e-04
8.43000000e-01	1.15663032e-02	3.26084481e-04
8.44000000e-01	1.15368618e-02	3.34969538e-04
8.45000000e-01	1.13311740e-02	3.35429171e-04
8.46000000e-01	1.17745210e-02	3.56344370e-04
8.47000000e-01	1.15281326e-02	3.59472553e-04
8.48000000e-01	1.17521885e-02	3.78645259e-04
8.49000000e-01	1.18122039e-02	3.95058831e-04
8.50000000e-01	1.11278633e-02	3.87378003e-04
8.51000000e-01	1.14089637e-02	4.07110549e-04
8.52000000e-01	1.18446774e-02	4.34421167e-04
8.53000000e-01	1.13564147e-02	4.40700823e-04
8.54000000e-01	1.12859140e-02	4.56602337e-04
8.55000000e-01	1.12705072e-02	4.69791047e-04
8.56000000e-01	1.17537848e-02	5.08907641e-04
8.57000000e-01	1.19459311e-02	5.31205878e-04
8.58000000e-01	1.11016265e-02	5.08394466e-04
8.59000000e-01	1.15189230e-02	5.37960974e-04
8.60000000e-01	1.18578100e-02	5.71494964e-04
8.61000000e-01	1.17623067e-02	5.87655384e-04
8.62000000e-01	1.08469062e-02	5.70888415e-04
8.63000000e-01	1.09586718e-02	6.00064999e-04
8.64000000e-01	1.14144214e-02	6.40955378e-04
8.65000000e-01	1.08974122e-02	6.53023615e-04
8.66000000e-01	1.10658396e-02	6.86539588e-04
8.67000000e-01	1.11376485e-02	7.54827856e-04
8.68000000e-01	1.07442761e-02	7.78095271e-04
8.69000000e-01	1.13916971e-02	8.62771277e-04
8.70000000e-01	1.00790016e-02	8.32506682e-04
8.71000000e-01	1.05209265e-02	9.84715692e-04
8.72000000e-01	1.15218397e-02	1.19083672e-03
8.73000000e-01	1.18693427e-02	1.44162843e-03
8.74000000e-01	9.96661109e-03	1.58547865e-03
8.75000000e-01	1.23876448e-02	3.79668573e-03
