% Filename : SSW20_00038_00020.h5
% Date & Time : 30-Oct-2025 17:44:09
% X-ray Energy (keV) : 13.30001
% Exposure Time (s) : 0.500
% Beam Center : 1461.24000, 208.98300
% Sample to Detector Distance (SDD) (mm) : 1990.750
% Detector Pixel Size (mm) : 0.075
% Photodiode Value : 140764.000
% I0 of Sample : 0
% I0 of Standard : 1
% 
% q(A^-1)   I(q)    I(q)_SE
0.00000000e+00	8.98430593e-03	5.59451501e-03
2.50000000e-04	0.00000000e+00	0.00000000e+00
5.00000000e-04	0.00000000e+00	0.00000000e+00
7.50000000e-04	0.00000000e+00	0.00000000e+00
1.00000000e-03	0.00000000e+00	0.00000000e+00
1.25000000e-03	0.00000000e+00	0.00000000e+00
1.50000000e-03	0.00000000e+00	0.00000000e+00
1.75000000e-03	0.00000000e+00	0.00000000e+00
2.00000000e-03	0.00000000e+00	0.00000000e+00
2.25000000e-03	0.00000000e+00	0.00000000e+00
2.50000000e-03	0.00000000e+00	0.00000000e+00
2.75000000e-03	0.00000000e+00	0.00000000e+00
3.00000000e-03	0.00000000e+00	0.00000000e+00
3.25000000e-03	2.05596676e+03	2.05596676e+03
3.50000000e-03	4.93783659e+02	1.87628121e+02
3.75000000e-03	2.90203307e+02	9.77675208e+01
4.00000000e-03	2.90375530e+02	1.05032516e+02
4.25000000e-03	2.71080621e+02	1.08527972e+02
4.50000000e-03	3.29003617e+02	1.00444292e+02
4.75000000e-03	3.35363582e+02	8.86882251e+01
5.00000000e-03	2.67632603e+02	6.85159561e+01
5.25000000e-03	2.37724606e+02	6.01895674e+01
5.50000000e-03	1.99133279e+02	4.98611645e+01
5.75000000e-03	1.71301192e+02	4.14618801e+01
6.00000000e-03	1.37198339e+02	3.29559377e+01
6.25000000e-03	1.09763790e+02	2.49677321e+01
6.50000000e-03	9.21638575e+01	2.06579907e+01
6.75000000e-03	8.26343820e+01	1.82691023e+01
7.00000000e-03	7.21306453e+01	1.57767621e+01
7.25000000e-03	6.03487433e+01	1.30404185e+01
7.50000000e-03	5.40682323e+01	1.15498748e+01
7.75000000e-03	4.85806549e+01	1.03509463e+01
8.00000000e-03	4.34085418e+01	8.65201147e+00
8.25000000e-03	3.67673802e+01	7.25838199e+00
8.50000000e-03	3.09841859e+01	5.86263541e+00
8.75000000e-03	2.78896280e+01	5.25294283e+00
9.00000000e-03	2.50685144e+01	4.70183673e+00
9.25000000e-03	2.24868163e+01	4.02107612e+00
9.50000000e-03	1.95120239e+01	3.42411194e+00
9.75000000e-03	1.76661189e+01	3.07777380e+00
1.00000000e-02	1.54645667e+01	2.69467607e+00
1.02500000e-02	1.37647480e+01	2.33898111e+00
1.05000000e-02	1.30078604e+01	2.12562479e+00
1.07500000e-02	1.23022765e+01	2.02793728e+00
1.10000000e-02	1.06551391e+01	1.69558060e+00
1.12500000e-02	9.69759903e+00	1.59712359e+00
1.15000000e-02	9.08094144e+00	1.43318937e+00
1.17500000e-02	7.68111416e+00	1.19139402e+00
1.20000000e-02	7.51199156e+00	1.15642519e+00
1.22500000e-02	7.06413032e+00	1.06196890e+00
1.25000000e-02	6.59275539e+00	9.83501439e-01
1.27500000e-02	6.18404840e+00	9.21113874e-01
1.30000000e-02	5.71068439e+00	8.21654063e-01
1.32500000e-02	5.18817620e+00	7.57318339e-01
1.35000000e-02	4.90398753e+00	7.12844328e-01
1.37500000e-02	4.50578054e+00	6.39670947e-01
1.40000000e-02	4.19588150e+00	5.89660525e-01
1.42500000e-02	3.84067392e+00	5.21116007e-01
1.45000000e-02	3.60794745e+00	4.84679918e-01
1.47500000e-02	3.39161752e+00	4.53082957e-01
1.50000000e-02	3.13052646e+00	4.16764849e-01
1.52500000e-02	2.98875634e+00	3.92529682e-01
1.55000000e-02	2.70787712e+00	3.44757076e-01
1.57500000e-02	2.64203541e+00	3.39980134e-01
1.60000000e-02	2.46299435e+00	3.18003723e-01
1.62500000e-02	2.32912274e+00	2.94019162e-01
1.65000000e-02	2.13405359e+00	2.62353402e-01
1.67500000e-02	2.04010559e+00	2.47205922e-01
1.70000000e-02	1.94995904e+00	2.40058461e-01
1.72500000e-02	1.80612098e+00	2.14811364e-01
1.75000000e-02	1.68466432e+00	2.03011949e-01
1.77500000e-02	1.63667356e+00	1.95265016e-01
1.80000000e-02	1.56543986e+00	1.80624943e-01
1.82500000e-02	1.42514540e+00	1.60188836e-01
1.85000000e-02	1.38019280e+00	1.61015938e-01
1.87500000e-02	1.33563975e+00	1.52235249e-01
1.90000000e-02	1.28670951e+00	1.48148236e-01
1.92500000e-02	1.18652780e+00	1.30856874e-01
1.95000000e-02	1.07130683e+00	1.17043098e-01
1.97500000e-02	1.07436982e+00	1.16634310e-01
2.00000000e-02	9.63309902e-01	1.02794476e-01
2.02500000e-02	9.20484520e-01	9.85608389e-02
2.05000000e-02	9.39747534e-01	9.90172089e-02
2.07500000e-02	8.93840841e-01	9.37842845e-02
2.10000000e-02	8.71484364e-01	9.15377874e-02
2.12500000e-02	8.54675202e-01	8.82269287e-02
2.15000000e-02	8.19360773e-01	8.43454366e-02
2.17500000e-02	7.90474817e-01	8.02499237e-02
2.20000000e-02	7.62456710e-01	7.65743447e-02
2.22500000e-02	7.13645433e-01	7.21581718e-02
2.25000000e-02	7.22755188e-01	7.22709996e-02
2.27500000e-02	6.61858247e-01	6.43390063e-02
2.30000000e-02	6.76333532e-01	6.52189307e-02
2.32500000e-02	6.28770903e-01	5.96636664e-02
2.35000000e-02	6.30981765e-01	6.09462199e-02
2.37500000e-02	5.96711474e-01	5.61937263e-02
2.40000000e-02	5.69002557e-01	5.44119790e-02
2.42500000e-02	5.65212404e-01	5.31710040e-02
2.45000000e-02	5.49746023e-01	5.19585080e-02
2.47500000e-02	5.24024970e-01	4.78072656e-02
2.50000000e-02	5.17027919e-01	4.78698553e-02
2.52500000e-02	4.92161688e-01	4.55402683e-02
2.55000000e-02	4.76616395e-01	4.23848835e-02
2.57500000e-02	4.68170417e-01	4.20270533e-02
2.60000000e-02	4.51756985e-01	4.04063197e-02
2.62500000e-02	4.27400657e-01	3.82687229e-02
2.65000000e-02	4.20156504e-01	3.71192186e-02
2.67500000e-02	4.15979187e-01	3.63383105e-02
2.70000000e-02	3.95378596e-01	3.48468376e-02
2.72500000e-02	3.82242152e-01	3.29729951e-02
2.75000000e-02	3.61798811e-01	3.13441767e-02
2.77500000e-02	3.60122048e-01	3.10168199e-02
2.80000000e-02	3.45794261e-01	2.93019173e-02
2.82500000e-02	3.36318521e-01	2.85094646e-02
2.85000000e-02	3.32546260e-01	2.80922454e-02
2.87500000e-02	3.25345288e-01	2.68305527e-02
2.90000000e-02	3.19294531e-01	2.65646787e-02
2.92500000e-02	3.05670786e-01	2.43629207e-02
2.95000000e-02	3.00443106e-01	2.44405545e-02
2.97500000e-02	2.86999749e-01	2.30967262e-02
3.00000000e-02	2.84122986e-01	2.29211911e-02
3.02500000e-02	2.78538911e-01	2.23416432e-02
3.05000000e-02	2.70161979e-01	2.10846644e-02
3.07500000e-02	2.59281725e-01	2.04608645e-02
3.10000000e-02	2.50257541e-01	1.94001216e-02
3.12500000e-02	2.45373785e-01	1.93314053e-02
3.15000000e-02	2.36946760e-01	1.82930566e-02
3.17500000e-02	2.31169401e-01	1.73912298e-02
3.20000000e-02	2.32472476e-01	1.75477468e-02
3.22500000e-02	2.24302702e-01	1.70167718e-02
3.25000000e-02	2.13682293e-01	1.59284749e-02
3.27500000e-02	2.09057496e-01	1.56531769e-02
3.30000000e-02	2.06591032e-01	1.51215500e-02
3.32500000e-02	2.01856720e-01	1.49285674e-02
3.35000000e-02	1.96645562e-01	1.44622984e-02
3.37500000e-02	1.93436460e-01	1.41053931e-02
3.40000000e-02	1.85590294e-01	1.32444978e-02
3.42500000e-02	1.81827712e-01	1.28419292e-02
3.45000000e-02	1.77292370e-01	1.28188562e-02
3.47500000e-02	1.75650170e-01	1.24430380e-02
3.50000000e-02	1.67297104e-01	1.15488174e-02
3.52500000e-02	1.66851729e-01	1.16353480e-02
3.55000000e-02	1.58883773e-01	1.08283187e-02
3.57500000e-02	1.58664838e-01	1.10097992e-02
3.60000000e-02	1.53176688e-01	1.05409972e-02
3.62500000e-02	1.49630908e-01	1.02660008e-02
3.65000000e-02	1.45231307e-01	9.87107473e-03
3.67500000e-02	1.48485275e-01	1.00016426e-02
3.70000000e-02	1.41896177e-01	9.39244893e-03
3.72500000e-02	1.37322549e-01	9.10536891e-03
3.75000000e-02	1.38543128e-01	9.34694482e-03
3.77500000e-02	1.33092182e-01	8.80150902e-03
3.80000000e-02	1.31691403e-01	8.63553792e-03
3.82500000e-02	1.26321553e-01	8.19633664e-03
3.85000000e-02	1.26604848e-01	8.20299524e-03
3.87500000e-02	1.23970811e-01	7.94209820e-03
3.90000000e-02	1.22188480e-01	7.90908048e-03
3.92500000e-02	1.16870976e-01	7.43775863e-03
3.95000000e-02	1.15454482e-01	7.28364808e-03
3.97500000e-02	1.12485246e-01	7.01939970e-03
4.00000000e-02	1.12505815e-01	7.04634726e-03
4.02500000e-02	1.08932416e-01	6.69017894e-03
4.05000000e-02	1.06213138e-01	6.43963618e-03
4.07500000e-02	1.03914050e-01	6.29474649e-03
4.10000000e-02	1.04868480e-01	6.47694443e-03
4.12500000e-02	1.01904408e-01	6.17345151e-03
4.15000000e-02	9.85604314e-02	5.85706128e-03
4.17500000e-02	9.83806617e-02	5.82220783e-03
4.20000000e-02	9.41783101e-02	5.53674751e-03
4.22500000e-02	9.54958047e-02	5.60263583e-03
4.25000000e-02	9.31656884e-02	5.45489371e-03
4.27500000e-02	9.21095978e-02	5.34820967e-03
4.30000000e-02	9.13298801e-02	5.28041712e-03
4.32500000e-02	8.81880710e-02	5.05763828e-03
4.35000000e-02	8.43181164e-02	4.80448742e-03
4.37500000e-02	8.51504877e-02	4.80504861e-03
4.40000000e-02	8.47156520e-02	4.77347309e-03
4.42500000e-02	8.14563964e-02	4.53004793e-03
4.45000000e-02	8.28743941e-02	4.62347730e-03
4.47500000e-02	8.08739760e-02	4.48433141e-03
4.50000000e-02	7.94321706e-02	4.37971070e-03
4.52500000e-02	7.78737048e-02	4.30425517e-03
4.55000000e-02	7.77672894e-02	4.25610290e-03
4.57500000e-02	7.57275784e-02	4.06386561e-03
4.60000000e-02	7.53617392e-02	4.08760863e-03
4.62500000e-02	7.27925069e-02	3.86582033e-03
4.65000000e-02	7.25355968e-02	3.89134507e-03
4.67500000e-02	7.31974981e-02	3.85553172e-03
4.70000000e-02	6.95138529e-02	3.63177291e-03
4.72500000e-02	6.93342949e-02	3.65099129e-03
4.75000000e-02	6.86612745e-02	3.60955448e-03
4.77500000e-02	6.85226766e-02	3.50298406e-03
4.80000000e-02	6.66627851e-02	3.42319605e-03
4.82500000e-02	6.54055461e-02	3.37026231e-03
4.85000000e-02	6.47390872e-02	3.38809838e-03
4.87500000e-02	6.43392171e-02	3.30567930e-03
4.90000000e-02	6.34431779e-02	3.18223151e-03
4.92500000e-02	6.25468064e-02	3.11079166e-03
4.95000000e-02	6.26090695e-02	3.10711817e-03
4.97500000e-02	6.08142183e-02	2.98952769e-03
5.00000000e-02	6.01062749e-02	2.97724782e-03
5.02500000e-02	5.97342641e-02	2.86409449e-03
5.05000000e-02	5.95152678e-02	2.92446277e-03
5.07500000e-02	5.76774464e-02	2.80100792e-03
5.10000000e-02	5.77249005e-02	2.76319186e-03
5.12500000e-02	5.56672775e-02	2.69640078e-03
5.15000000e-02	5.64982027e-02	2.68096815e-03
5.17500000e-02	5.53678775e-02	2.65830139e-03
5.20000000e-02	5.46222077e-02	2.52414487e-03
5.22500000e-02	5.39170252e-02	2.50709919e-03
5.25000000e-02	5.18720187e-02	2.43123496e-03
5.27500000e-02	5.24664754e-02	2.43374174e-03
5.30000000e-02	5.25153090e-02	2.46391421e-03
5.32500000e-02	5.17827396e-02	2.40537325e-03
5.35000000e-02	5.19521896e-02	2.35332634e-03
5.37500000e-02	5.07341250e-02	2.31561694e-03
5.40000000e-02	5.10528172e-02	2.27224320e-03
5.42500000e-02	4.87250050e-02	2.20163730e-03
5.45000000e-02	5.00445007e-02	2.27884451e-03
5.47500000e-02	4.89015556e-02	2.20078071e-03
5.50000000e-02	4.85635168e-02	2.17376779e-03
5.52500000e-02	4.72340047e-02	2.09225279e-03
5.55000000e-02	4.83289065e-02	2.14673628e-03
5.57500000e-02	4.71389133e-02	2.10110371e-03
5.60000000e-02	4.64325338e-02	2.02925563e-03
5.62500000e-02	4.60774855e-02	2.02739888e-03
5.65000000e-02	4.60724220e-02	2.01253634e-03
5.67500000e-02	4.67140237e-02	2.02863828e-03
5.70000000e-02	4.45217394e-02	1.89916518e-03
5.72500000e-02	4.52033214e-02	1.97214950e-03
5.75000000e-02	4.45479993e-02	1.92058264e-03
5.77500000e-02	4.31701182e-02	1.82309183e-03
5.80000000e-02	4.39855494e-02	1.87677383e-03
5.82500000e-02	4.34823239e-02	1.79754213e-03
5.85000000e-02	4.24022493e-02	1.76895564e-03
5.87500000e-02	4.15045592e-02	1.73387526e-03
5.90000000e-02	4.24150549e-02	1.77375282e-03
5.92500000e-02	4.12424622e-02	1.71563278e-03
5.95000000e-02	4.12905196e-02	1.69395390e-03
5.97500000e-02	4.07847744e-02	1.70873569e-03
6.00000000e-02	4.06403551e-02	1.66857663e-03
6.02500000e-02	4.02303635e-02	1.63767763e-03
6.05000000e-02	3.89684182e-02	1.58277079e-03
6.07500000e-02	3.94498263e-02	1.59149032e-03
6.10000000e-02	3.89179473e-02	1.59221530e-03
6.12500000e-02	3.89791955e-02	1.55846669e-03
6.15000000e-02	3.92513988e-02	1.57127080e-03
6.17500000e-02	3.89819622e-02	1.55542081e-03
6.20000000e-02	3.86763036e-02	1.54309293e-03
6.22500000e-02	3.84359617e-02	1.55171674e-03
6.25000000e-02	3.78314123e-02	1.48961033e-03
6.27500000e-02	3.75971793e-02	1.48677324e-03
6.30000000e-02	3.73103465e-02	1.46025094e-03
6.32500000e-02	3.64894927e-02	1.42700176e-03
6.35000000e-02	3.68719085e-02	1.42193643e-03
6.37500000e-02	3.68973336e-02	1.44391028e-03
6.40000000e-02	3.68356200e-02	1.42953347e-03
6.42500000e-02	3.62545469e-02	1.41551367e-03
6.45000000e-02	3.58228812e-02	1.36130135e-03
6.47500000e-02	3.53737490e-02	1.36947081e-03
6.50000000e-02	3.63399108e-02	1.40253969e-03
6.52500000e-02	3.52802737e-02	1.34141103e-03
6.55000000e-02	3.49840131e-02	1.32443437e-03
6.57500000e-02	3.46002982e-02	1.30053029e-03
6.60000000e-02	3.50567520e-02	1.32139559e-03
6.62500000e-02	3.46622306e-02	1.31786760e-03
6.65000000e-02	3.41789625e-02	1.27826411e-03
6.67500000e-02	3.42214951e-02	1.26859092e-03
6.70000000e-02	3.38889821e-02	1.26962640e-03
6.72500000e-02	3.40852746e-02	1.26651044e-03
6.75000000e-02	3.42860796e-02	1.26301875e-03
6.77500000e-02	3.35603464e-02	1.22629574e-03
6.80000000e-02	3.34084365e-02	1.22545344e-03
6.82500000e-02	3.37486258e-02	1.24171404e-03
6.85000000e-02	3.36925367e-02	1.23307335e-03
6.87500000e-02	3.27481320e-02	1.19475104e-03
6.90000000e-02	3.27816203e-02	1.18386358e-03
6.92500000e-02	3.28680685e-02	1.19058649e-03
6.95000000e-02	3.28136100e-02	1.18769950e-03
6.97500000e-02	3.29829068e-02	1.18993284e-03
7.00000000e-02	3.23501392e-02	1.16043250e-03
7.02500000e-02	3.25243058e-02	1.15265340e-03
7.05000000e-02	3.24442995e-02	1.15723453e-03
7.07500000e-02	3.33897932e-02	1.20013451e-03
7.10000000e-02	3.18709442e-02	1.13692554e-03
7.12500000e-02	3.22119843e-02	1.13883200e-03
7.15000000e-02	3.22151585e-02	1.13385248e-03
7.17500000e-02	3.19200442e-02	1.13106839e-03
7.20000000e-02	3.15404233e-02	1.12050829e-03
7.22500000e-02	3.07554892e-02	1.08637389e-03
7.25000000e-02	3.23628853e-02	1.13982011e-03
7.27500000e-02	3.18388631e-02	1.11527998e-03
7.30000000e-02	3.15510158e-02	1.10873704e-03
7.32500000e-02	3.14452103e-02	1.08945904e-03
7.35000000e-02	3.12974101e-02	1.08137542e-03
7.37500000e-02	3.10002343e-02	1.06254124e-03
7.40000000e-02	3.09099660e-02	1.07049239e-03
7.42500000e-02	3.08215135e-02	1.06553314e-03
7.45000000e-02	3.05590951e-02	1.05252515e-03
7.47500000e-02	3.08014160e-02	1.04723415e-03
7.50000000e-02	3.05923517e-02	1.04033627e-03
7.52500000e-02	3.05368174e-02	1.04289063e-03
7.55000000e-02	2.97935134e-02	1.01662214e-03
7.57500000e-02	3.04968664e-02	1.03493636e-03
7.60000000e-02	3.01057370e-02	1.02058523e-03
7.62500000e-02	3.00735619e-02	1.02253197e-03
7.65000000e-02	2.99865217e-02	1.01311627e-03
7.67500000e-02	2.98548534e-02	1.00160213e-03
7.70000000e-02	3.00775237e-02	1.00576138e-03
7.72500000e-02	2.97176294e-02	1.01776785e-03
7.75000000e-02	2.96258059e-02	1.01973678e-03
7.77500000e-02	2.95291757e-02	1.02422084e-03
7.80000000e-02	2.99787060e-02	1.03848950e-03
7.82500000e-02	2.95681045e-02	1.03357035e-03
7.85000000e-02	2.94759099e-02	1.05263944e-03
7.87500000e-02	2.97295878e-02	1.04350657e-03
7.90000000e-02	3.00775751e-02	1.05216432e-03
7.92500000e-02	2.91574024e-02	1.02651420e-03
7.95000000e-02	2.91368124e-02	1.03728868e-03
7.97500000e-02	2.91463350e-02	1.04452378e-03
8.00000000e-02	2.96180841e-02	1.05633072e-03
8.02500000e-02	2.94181118e-02	1.05225138e-03
8.05000000e-02	2.89592122e-02	1.03114977e-03
8.07500000e-02	2.99219513e-02	1.07670386e-03
8.10000000e-02	2.96404045e-02	1.06612808e-03
8.12500000e-02	2.83845880e-02	1.02027502e-03
8.15000000e-02	2.83654107e-02	1.02117020e-03
8.17500000e-02	2.97247896e-02	1.07624886e-03
8.20000000e-02	2.92015773e-02	1.04217276e-03
8.22500000e-02	2.90333157e-02	1.04976568e-03
8.25000000e-02	2.95526354e-02	1.06490428e-03
8.27500000e-02	2.82154433e-02	1.01447459e-03
8.30000000e-02	2.91891761e-02	1.06400719e-03
8.32500000e-02	2.80709659e-02	1.02634823e-03
8.35000000e-02	2.85169201e-02	1.04871135e-03
8.37500000e-02	2.80418467e-02	1.01574421e-03
8.40000000e-02	2.87985917e-02	1.04470759e-03
8.42500000e-02	2.86667893e-02	1.05186491e-03
8.45000000e-02	2.81252263e-02	1.03188582e-03
8.47500000e-02	2.88537581e-02	1.05004279e-03
8.50000000e-02	2.79166012e-02	1.02256515e-03
8.52500000e-02	2.79573306e-02	1.03224477e-03
8.55000000e-02	2.84857248e-02	1.03368932e-03
8.57500000e-02	2.83401426e-02	1.03858716e-03
8.60000000e-02	2.84580021e-02	1.05095334e-03
8.62500000e-02	2.78912641e-02	1.02731358e-03
8.65000000e-02	2.76312289e-02	1.01087970e-03
8.67500000e-02	2.75759888e-02	1.00510875e-03
8.70000000e-02	2.77291268e-02	9.92308104e-04
8.72500000e-02	2.72538385e-02	9.69732959e-04
8.75000000e-02	2.80270407e-02	9.73027878e-04
8.77500000e-02	2.80578999e-02	9.67981610e-04
8.80000000e-02	2.73616712e-02	9.52847195e-04
8.82500000e-02	2.70329383e-02	9.33351909e-04
8.85000000e-02	2.74988099e-02	9.52869417e-04
8.87500000e-02	2.68224394e-02	9.11752500e-04
8.90000000e-02	2.70042389e-02	9.20237305e-04
8.92500000e-02	2.73526593e-02	9.22312436e-04
8.95000000e-02	2.66364763e-02	9.02156361e-04
8.97500000e-02	2.64682932e-02	8.87606538e-04
9.00000000e-02	2.63452283e-02	8.81480163e-04
9.02500000e-02	2.67029932e-02	8.88800728e-04
9.05000000e-02	2.67014905e-02	8.92554262e-04
9.07500000e-02	2.63369467e-02	8.79530501e-04
9.10000000e-02	2.60367446e-02	8.60166883e-04
9.12500000e-02	2.68922076e-02	8.85739992e-04
9.15000000e-02	2.63339632e-02	8.75173819e-04
9.17500000e-02	2.60368627e-02	8.64393156e-04
9.20000000e-02	2.63893783e-02	8.67020413e-04
9.22500000e-02	2.58702957e-02	8.43038088e-04
9.25000000e-02	2.58468507e-02	8.47088191e-04
9.27500000e-02	2.63860034e-02	8.61483951e-04
9.30000000e-02	2.59852027e-02	8.47059843e-04
9.32500000e-02	2.61471129e-02	8.58055309e-04
9.35000000e-02	2.59512725e-02	8.44575722e-04
9.37500000e-02	2.57871525e-02	8.33772854e-04
9.40000000e-02	2.57192593e-02	8.31711720e-04
9.42500000e-02	2.62356702e-02	8.41585931e-04
9.45000000e-02	2.56436178e-02	8.21789637e-04
9.47500000e-02	2.53112086e-02	8.13971579e-04
9.50000000e-02	2.60295836e-02	8.32964038e-04
9.52500000e-02	2.57062944e-02	8.21305728e-04
9.55000000e-02	2.53192722e-02	8.10432990e-04
9.57500000e-02	2.54425957e-02	8.14378665e-04
9.60000000e-02	2.54517661e-02	8.16827986e-04
9.62500000e-02	2.51002913e-02	7.96431087e-04
9.65000000e-02	2.52706037e-02	7.93862627e-04
9.67500000e-02	2.59465573e-02	8.16813052e-04
9.70000000e-02	2.47442487e-02	7.86629807e-04
9.72500000e-02	2.50048973e-02	7.89823891e-04
9.75000000e-02	2.50213630e-02	7.91056978e-04
9.77500000e-02	2.55595256e-02	8.01675906e-04
9.80000000e-02	2.49318043e-02	7.85025522e-04
9.82500000e-02	2.48092466e-02	7.75163654e-04
9.85000000e-02	2.48195524e-02	7.73911079e-04
9.87500000e-02	2.53768691e-02	7.92834026e-04
9.90000000e-02	2.51024000e-02	7.83753315e-04
9.92500000e-02	2.48683391e-02	7.77239631e-04
9.95000000e-02	2.53142186e-02	7.87914467e-04
9.97500000e-02	2.50780216e-02	7.78654447e-04
1.00000000e-01	2.42803522e-02	6.16396553e-04
1.00500000e-01	2.45736206e-02	5.42607586e-04
1.01000000e-01	2.39721883e-02	5.23001732e-04
1.01500000e-01	2.43437886e-02	5.30276562e-04
1.02000000e-01	2.48501857e-02	5.37973168e-04
1.02500000e-01	2.43464716e-02	5.26726437e-04
1.03000000e-01	2.45491732e-02	5.30307976e-04
1.03500000e-01	2.39664555e-02	5.16905854e-04
1.04000000e-01	2.40068225e-02	5.15812888e-04
1.04500000e-01	2.44480748e-02	5.22649299e-04
1.05000000e-01	2.42531733e-02	5.16715021e-04
1.05500000e-01	2.39398515e-02	5.10110136e-04
1.06000000e-01	2.42604226e-02	5.14587246e-04
1.06500000e-01	2.42352337e-02	5.12590571e-04
1.07000000e-01	2.42629742e-02	5.21585703e-04
1.07500000e-01	2.34567249e-02	5.12599044e-04
1.08000000e-01	2.33858373e-02	5.19625019e-04
1.08500000e-01	2.30433096e-02	5.14984071e-04
1.09000000e-01	2.30746881e-02	5.15365966e-04
1.09500000e-01	2.33535994e-02	5.25636807e-04
1.10000000e-01	2.32561364e-02	5.15732129e-04
1.10500000e-01	2.35608629e-02	5.11663916e-04
1.11000000e-01	2.34523595e-02	5.03141666e-04
1.11500000e-01	2.32238013e-02	4.95971592e-04
1.12000000e-01	2.33379775e-02	4.92442009e-04
1.12500000e-01	2.34332217e-02	4.92687917e-04
1.13000000e-01	2.31925877e-02	4.86747253e-04
1.13500000e-01	2.30175665e-02	4.80247094e-04
1.14000000e-01	2.33663361e-02	4.85736697e-04
1.14500000e-01	2.36080556e-02	4.89842996e-04
1.15000000e-01	2.31342901e-02	4.76834074e-04
1.15500000e-01	2.32274273e-02	4.79380954e-04
1.16000000e-01	2.29418033e-02	4.70291284e-04
1.16500000e-01	2.32085542e-02	4.76117868e-04
1.17000000e-01	2.29293391e-02	4.67906682e-04
1.17500000e-01	2.29628930e-02	4.67966461e-04
1.18000000e-01	2.29183153e-02	4.65859470e-04
1.18500000e-01	2.30076456e-02	4.66767006e-04
1.19000000e-01	2.25774561e-02	4.58977925e-04
1.19500000e-01	2.27971173e-02	4.59190968e-04
1.20000000e-01	2.31407038e-02	4.65912298e-04
1.20500000e-01	2.29691394e-02	4.62294499e-04
1.21000000e-01	2.26863018e-02	4.55493463e-04
1.21500000e-01	2.28469412e-02	4.58907920e-04
1.22000000e-01	2.26661431e-02	4.52299190e-04
1.22500000e-01	2.24979796e-02	4.49025432e-04
1.23000000e-01	2.30964341e-02	4.59212216e-04
1.23500000e-01	2.30989870e-02	4.58199810e-04
1.24000000e-01	2.29763034e-02	4.53892204e-04
1.24500000e-01	2.33429576e-02	4.58344721e-04
1.25000000e-01	2.32052136e-02	4.58014201e-04
1.25500000e-01	2.31761998e-02	4.54596877e-04
1.26000000e-01	2.30822385e-02	4.53206328e-04
1.26500000e-01	2.27343169e-02	4.45124435e-04
1.27000000e-01	2.32841260e-02	4.54849619e-04
1.27500000e-01	2.30019559e-02	4.52100753e-04
1.28000000e-01	2.27054092e-02	4.42413600e-04
1.28500000e-01	2.30736778e-02	4.47376265e-04
1.29000000e-01	2.31167002e-02	4.48224421e-04
1.29500000e-01	2.32352265e-02	4.48622473e-04
1.30000000e-01	2.27410329e-02	4.40163697e-04
1.30500000e-01	2.27823418e-02	4.39837609e-04
1.31000000e-01	2.28265189e-02	4.39256064e-04
1.31500000e-01	2.30845678e-02	4.41727553e-04
1.32000000e-01	2.30571452e-02	4.39875331e-04
1.32500000e-01	2.29442625e-02	4.37356499e-04
1.33000000e-01	2.27086319e-02	4.33627657e-04
1.33500000e-01	2.30952830e-02	4.36454137e-04
1.34000000e-01	2.27525429e-02	4.30852061e-04
1.34500000e-01	2.25352965e-02	4.23824415e-04
1.35000000e-01	2.28894059e-02	4.30675553e-04
1.35500000e-01	2.26487732e-02	4.26512304e-04
1.36000000e-01	2.28124260e-02	4.28546169e-04
1.36500000e-01	2.27773929e-02	4.28033911e-04
1.37000000e-01	2.28101235e-02	4.24029821e-04
1.37500000e-01	2.24583236e-02	4.20174736e-04
1.38000000e-01	2.23712726e-02	4.18711629e-04
1.38500000e-01	2.27261547e-02	4.23357825e-04
1.39000000e-01	2.24517547e-02	4.20464017e-04
1.39500000e-01	2.23129341e-02	4.15399160e-04
1.40000000e-01	2.23687564e-02	4.16325802e-04
1.40500000e-01	2.19744580e-02	4.06584497e-04
1.41000000e-01	2.19638461e-02	4.05122749e-04
1.41500000e-01	2.17525841e-02	4.02543535e-04
1.42000000e-01	2.18948965e-02	4.03950014e-04
1.42500000e-01	2.18062750e-02	4.04074337e-04
1.43000000e-01	2.19643332e-02	4.05432667e-04
1.43500000e-01	2.18719028e-02	4.02408449e-04
1.44000000e-01	2.16984498e-02	3.99059774e-04
1.44500000e-01	2.17067780e-02	3.97635185e-04
1.45000000e-01	2.18665074e-02	4.00926357e-04
1.45500000e-01	2.17726574e-02	3.98399085e-04
1.46000000e-01	2.19367527e-02	3.99470766e-04
1.46500000e-01	2.13547635e-02	3.91385882e-04
1.47000000e-01	2.17557828e-02	3.96156154e-04
1.47500000e-01	2.14692328e-02	3.91051757e-04
1.48000000e-01	2.10934044e-02	3.84457371e-04
1.48500000e-01	2.12108541e-02	3.85226040e-04
1.49000000e-01	2.14280569e-02	3.87790278e-04
1.49500000e-01	2.16477481e-02	3.91742889e-04
1.50000000e-01	2.11436999e-02	3.81210236e-04
1.50500000e-01	2.13465028e-02	3.85317515e-04
1.51000000e-01	2.15066113e-02	3.85382053e-04
1.51500000e-01	2.11891862e-02	3.81053673e-04
1.52000000e-01	2.11372891e-02	3.77535701e-04
1.52500000e-01	2.13791107e-02	3.82540027e-04
1.53000000e-01	2.16436431e-02	3.86264935e-04
1.53500000e-01	2.13107613e-02	3.78287642e-04
1.54000000e-01	2.10836400e-02	3.75098876e-04
1.54500000e-01	2.15340359e-02	3.88712153e-04
1.55000000e-01	2.13103830e-02	3.91678088e-04
1.55500000e-01	2.09493381e-02	3.86962766e-04
1.56000000e-01	2.09278520e-02	3.87262946e-04
1.56500000e-01	2.13205684e-02	3.95917823e-04
1.57000000e-01	2.12749489e-02	3.95950196e-04
1.57500000e-01	2.12850355e-02	3.87858761e-04
1.58000000e-01	2.11249415e-02	3.80216478e-04
1.58500000e-01	2.09794886e-02	3.76527567e-04
1.59000000e-01	2.11513270e-02	3.77315045e-04
1.59500000e-01	2.08671013e-02	3.71345005e-04
1.60000000e-01	2.08571940e-02	3.70335422e-04
1.60500000e-01	2.07405990e-02	3.66710657e-04
1.61000000e-01	2.10597478e-02	3.73471092e-04
1.61500000e-01	2.09818431e-02	3.67696607e-04
1.62000000e-01	2.10379701e-02	3.69573795e-04
1.62500000e-01	2.05005109e-02	3.61707960e-04
1.63000000e-01	2.10258878e-02	3.66309185e-04
1.63500000e-01	2.07306966e-02	3.65056441e-04
1.64000000e-01	2.07742654e-02	3.62441524e-04
1.64500000e-01	2.06365667e-02	3.60887163e-04
1.65000000e-01	2.08650997e-02	3.62581068e-04
1.65500000e-01	2.07122917e-02	3.59825001e-04
1.66000000e-01	2.08361537e-02	3.61944036e-04
1.66500000e-01	2.07772948e-02	3.59181493e-04
1.67000000e-01	2.07574252e-02	3.59351241e-04
1.67500000e-01	2.06128763e-02	3.55753068e-04
1.68000000e-01	2.09897420e-02	3.60767851e-04
1.68500000e-01	2.07919779e-02	3.57542058e-04
1.69000000e-01	2.05557226e-02	3.54351488e-04
1.69500000e-01	2.07123469e-02	3.54148359e-04
1.70000000e-01	2.06903093e-02	3.53861282e-04
1.70500000e-01	2.05939774e-02	3.51363376e-04
1.71000000e-01	2.05993243e-02	3.50924490e-04
1.71500000e-01	2.04419956e-02	3.49515267e-04
1.72000000e-01	2.05823114e-02	3.51753701e-04
1.72500000e-01	2.05451265e-02	3.49329123e-04
1.73000000e-01	2.05982116e-02	3.49296953e-04
1.73500000e-01	2.06793789e-02	3.49285749e-04
1.74000000e-01	2.05874628e-02	3.47511036e-04
1.74500000e-01	2.02513585e-02	3.39358207e-04
1.75000000e-01	2.03938914e-02	3.42108925e-04
1.75500000e-01	2.04537017e-02	3.42149721e-04
1.76000000e-01	2.04490221e-02	3.42323136e-04
1.76500000e-01	2.03563615e-02	3.40774234e-04
1.77000000e-01	2.04653111e-02	3.41726910e-04
1.77500000e-01	2.03493571e-02	3.39955773e-04
1.78000000e-01	2.02731182e-02	3.37519207e-04
1.78500000e-01	2.05634210e-02	3.41962294e-04
1.79000000e-01	2.01311519e-02	3.34827456e-04
1.79500000e-01	2.04888854e-02	3.41517768e-04
1.80000000e-01	2.04950975e-02	3.41686855e-04
1.80500000e-01	2.02115010e-02	3.38289910e-04
1.81000000e-01	2.01868038e-02	3.36443004e-04
1.81500000e-01	2.04204677e-02	3.37083473e-04
1.82000000e-01	2.03320948e-02	3.37361046e-04
1.82500000e-01	2.00000218e-02	3.30536796e-04
1.83000000e-01	2.04483298e-02	3.36749466e-04
1.83500000e-01	2.01872354e-02	3.33781183e-04
1.84000000e-01	2.03242617e-02	3.34331197e-04
1.84500000e-01	2.01728494e-02	3.31369186e-04
1.85000000e-01	2.01542128e-02	3.32133698e-04
1.85500000e-01	2.01061025e-02	3.30196754e-04
1.86000000e-01	2.00381980e-02	3.28321324e-04
1.86500000e-01	2.00286559e-02	3.28216912e-04
1.87000000e-01	2.02874103e-02	3.31386585e-04
1.87500000e-01	2.02959522e-02	3.31641712e-04
1.88000000e-01	2.03121516e-02	3.31237873e-04
1.88500000e-01	2.02949213e-02	3.31166983e-04
1.89000000e-01	1.98960155e-02	3.24097709e-04
1.89500000e-01	2.01504259e-02	3.28373813e-04
1.90000000e-01	1.99328055e-02	3.24097324e-04
1.90500000e-01	2.03756991e-02	3.30892516e-04
1.91000000e-01	2.00972678e-02	3.24144800e-04
1.91500000e-01	2.01311479e-02	3.26197643e-04
1.92000000e-01	2.00440517e-02	3.23606692e-04
1.92500000e-01	2.02983897e-02	3.26688105e-04
1.93000000e-01	1.99932543e-02	3.22370451e-04
1.93500000e-01	2.00081766e-02	3.22299479e-04
1.94000000e-01	1.97870702e-02	3.18948658e-04
1.94500000e-01	2.00251128e-02	3.21268600e-04
1.95000000e-01	1.99024691e-02	3.20635415e-04
1.95500000e-01	1.98382856e-02	3.17359908e-04
1.96000000e-01	1.99122195e-02	3.17588173e-04
1.96500000e-01	2.00083602e-02	3.19562046e-04
1.97000000e-01	1.98783757e-02	3.17102781e-04
1.97500000e-01	1.97399451e-02	3.14486141e-04
1.98000000e-01	1.97091521e-02	3.14683611e-04
1.98500000e-01	1.96272823e-02	3.11616655e-04
1.99000000e-01	1.98409840e-02	3.15350102e-04
1.99500000e-01	1.97631435e-02	3.12364609e-04
2.00000000e-01	1.98303986e-02	3.13885787e-04
2.00500000e-01	1.96441880e-02	3.11887654e-04
2.01000000e-01	1.98859219e-02	3.14356492e-04
2.01500000e-01	1.96286626e-02	3.10744648e-04
2.02000000e-01	1.97553380e-02	3.10695197e-04
2.02500000e-01	1.97461109e-02	3.09215524e-04
2.03000000e-01	1.98274334e-02	3.10890315e-04
2.03500000e-01	1.96762948e-02	3.07961591e-04
2.04000000e-01	1.98575088e-02	3.11341164e-04
2.04500000e-01	1.96889603e-02	3.09800191e-04
2.05000000e-01	1.95845318e-02	3.05721356e-04
2.05500000e-01	1.97326338e-02	3.07186206e-04
2.06000000e-01	1.93607569e-02	3.01018087e-04
2.06500000e-01	1.98357360e-02	3.09976804e-04
2.07000000e-01	1.96640174e-02	3.06124503e-04
2.07500000e-01	1.95580940e-02	3.04469621e-04
2.08000000e-01	1.95916358e-02	3.05478803e-04
2.08500000e-01	1.96728217e-02	3.03663702e-04
2.09000000e-01	1.94437648e-02	3.02336528e-04
2.09500000e-01	1.98881765e-02	3.07930407e-04
2.10000000e-01	1.96090696e-02	3.03854794e-04
2.10500000e-01	1.95127301e-02	3.01362751e-04
2.11000000e-01	1.96240063e-02	3.02152104e-04
2.11500000e-01	1.97026038e-02	3.04043258e-04
2.12000000e-01	1.96320165e-02	3.02282931e-04
2.12500000e-01	1.94127821e-02	2.99393254e-04
2.13000000e-01	1.94427273e-02	2.99623937e-04
2.13500000e-01	1.94901398e-02	2.98481390e-04
2.14000000e-01	1.93636462e-02	2.98372323e-04
2.14500000e-01	1.93888010e-02	2.96882106e-04
2.15000000e-01	1.93969122e-02	2.98055861e-04
2.15500000e-01	1.94359328e-02	2.97106265e-04
2.16000000e-01	1.93672825e-02	2.96277144e-04
2.16500000e-01	1.93539050e-02	2.94925232e-04
2.17000000e-01	1.93019221e-02	2.99275611e-04
2.17500000e-01	1.92222419e-02	3.02751099e-04
2.18000000e-01	1.91232995e-02	3.02597641e-04
2.18500000e-01	1.92561728e-02	3.06244179e-04
2.19000000e-01	1.91492324e-02	3.05003632e-04
2.19500000e-01	1.92270472e-02	3.07072924e-04
2.20000000e-01	1.93898568e-02	3.10860607e-04
2.20500000e-01	1.93309736e-02	3.10167258e-04
2.21000000e-01	1.94152551e-02	3.13448231e-04
2.21500000e-01	1.91411879e-02	3.10487150e-04
2.22000000e-01	1.97048639e-02	3.17681906e-04
2.22500000e-01	1.92505670e-02	3.12388094e-04
2.23000000e-01	1.93436099e-02	3.14338373e-04
2.23500000e-01	1.89868895e-02	3.10833976e-04
2.24000000e-01	1.93637169e-02	3.17099111e-04
2.24500000e-01	1.90464182e-02	3.13552221e-04
2.25000000e-01	1.92008814e-02	3.15531287e-04
2.25500000e-01	1.90425965e-02	3.13674918e-04
2.26000000e-01	1.93385835e-02	3.18211828e-04
2.26500000e-01	1.93830888e-02	3.14597370e-04
2.27000000e-01	1.92975923e-02	3.10157565e-04
2.27500000e-01	1.92181509e-02	3.06004197e-04
2.28000000e-01	1.92498057e-02	3.05197061e-04
2.28500000e-01	1.94808307e-02	3.07868871e-04
2.29000000e-01	1.90270281e-02	2.98955924e-04
2.29500000e-01	1.91650067e-02	3.00358291e-04
2.30000000e-01	1.92046763e-02	3.00318661e-04
2.30500000e-01	1.90251372e-02	2.95438988e-04
2.31000000e-01	1.91655384e-02	2.98639214e-04
2.31500000e-01	1.90648344e-02	2.95340958e-04
2.32000000e-01	1.90742544e-02	2.94759331e-04
2.32500000e-01	1.91616426e-02	2.94956970e-04
2.33000000e-01	1.88936574e-02	2.91080323e-04
2.33500000e-01	1.90016116e-02	2.92324201e-04
2.34000000e-01	1.88880428e-02	2.89510428e-04
2.34500000e-01	1.89290953e-02	2.89831045e-04
2.35000000e-01	1.90581058e-02	2.92022208e-04
2.35500000e-01	1.90189399e-02	2.90104618e-04
2.36000000e-01	1.90349732e-02	2.89109762e-04
2.36500000e-01	1.92062162e-02	2.92011773e-04
2.37000000e-01	1.90246828e-02	2.88684317e-04
2.37500000e-01	1.88871646e-02	2.85759380e-04
2.38000000e-01	1.88515573e-02	2.85674589e-04
2.38500000e-01	1.89489381e-02	2.87295299e-04
2.39000000e-01	1.88410446e-02	2.83348817e-04
2.39500000e-01	1.88856744e-02	2.83527467e-04
2.40000000e-01	1.89712476e-02	2.83991500e-04
2.40500000e-01	1.86233967e-02	2.79584230e-04
2.41000000e-01	1.87632807e-02	2.81452141e-04
2.41500000e-01	1.90076965e-02	2.84356932e-04
2.42000000e-01	1.88072980e-02	2.80753844e-04
2.42500000e-01	1.88826512e-02	2.80376495e-04
2.43000000e-01	1.87937769e-02	2.79892654e-04
2.43500000e-01	1.87672557e-02	2.79654440e-04
2.44000000e-01	1.89967127e-02	2.81060730e-04
2.44500000e-01	1.85702009e-02	2.74722546e-04
2.45000000e-01	1.87459464e-02	2.76651180e-04
2.45500000e-01	1.89589097e-02	2.79648109e-04
2.46000000e-01	1.91407325e-02	2.82963102e-04
2.46500000e-01	1.87023457e-02	2.74753492e-04
2.47000000e-01	1.87396466e-02	2.75901215e-04
2.47500000e-01	1.86967661e-02	2.73627037e-04
2.48000000e-01	1.86094225e-02	2.73812280e-04
2.48500000e-01	1.89852750e-02	2.77406629e-04
2.49000000e-01	1.84464898e-02	2.70932819e-04
2.49500000e-01	1.85652467e-02	2.71300495e-04
2.50000000e-01	1.87685643e-02	2.73200605e-04
2.50500000e-01	1.87941436e-02	2.75485472e-04
2.51000000e-01	1.83068627e-02	2.67970744e-04
2.51500000e-01	1.88819273e-02	2.75244463e-04
2.52000000e-01	1.86794800e-02	2.72131134e-04
2.52500000e-01	1.84636547e-02	2.68296966e-04
2.53000000e-01	1.85585962e-02	2.70672496e-04
2.53500000e-01	1.87631258e-02	2.71194124e-04
2.54000000e-01	1.87608749e-02	2.71310700e-04
2.54500000e-01	1.86412734e-02	2.69628276e-04
2.55000000e-01	1.85378066e-02	2.68294292e-04
2.55500000e-01	1.86512340e-02	2.69795801e-04
2.56000000e-01	1.85133087e-02	2.67327027e-04
2.56500000e-01	1.88172340e-02	2.70833486e-04
2.57000000e-01	1.87545628e-02	2.70019600e-04
2.57500000e-01	1.84505445e-02	2.66013163e-04
2.58000000e-01	1.84720552e-02	2.66055206e-04
2.58500000e-01	1.84520276e-02	2.64582255e-04
2.59000000e-01	1.83257347e-02	2.63590390e-04
2.59500000e-01	1.84665706e-02	2.65210502e-04
2.60000000e-01	1.86070046e-02	2.67277424e-04
2.60500000e-01	1.84683254e-02	2.64173819e-04
2.61000000e-01	1.84434953e-02	2.62912038e-04
2.61500000e-01	1.84067047e-02	2.62539303e-04
2.62000000e-01	1.84739789e-02	2.63246436e-04
2.62500000e-01	1.84061658e-02	2.62577328e-04
2.63000000e-01	1.85064445e-02	2.63326378e-04
2.63500000e-01	1.85572250e-02	2.62955128e-04
2.64000000e-01	1.83377705e-02	2.60277504e-04
2.64500000e-01	1.86089854e-02	2.63435922e-04
2.65000000e-01	1.87018607e-02	2.65329944e-04
2.65500000e-01	1.83908803e-02	2.60899647e-04
2.66000000e-01	1.83359043e-02	2.59768227e-04
2.66500000e-01	1.83459766e-02	2.58837964e-04
2.67000000e-01	1.82430494e-02	2.56852579e-04
2.67500000e-01	1.84767852e-02	2.59640236e-04
2.68000000e-01	1.84538209e-02	2.58981742e-04
2.68500000e-01	1.84004702e-02	2.58344439e-04
2.69000000e-01	1.83412833e-02	2.57498561e-04
2.69500000e-01	1.82783716e-02	2.56091449e-04
2.70000000e-01	1.83152516e-02	2.56725245e-04
2.70500000e-01	1.83767283e-02	2.56711913e-04
2.71000000e-01	1.81680578e-02	2.53675073e-04
2.71500000e-01	1.82090300e-02	2.54782988e-04
2.72000000e-01	1.83081321e-02	2.55173127e-04
2.72500000e-01	1.83261297e-02	2.55717210e-04
2.73000000e-01	1.83476897e-02	2.55697524e-04
2.73500000e-01	1.84253307e-02	2.55278437e-04
2.74000000e-01	1.83292248e-02	2.54511200e-04
2.74500000e-01	1.82983697e-02	2.53637168e-04
2.75000000e-01	1.83222000e-02	2.53168676e-04
2.75500000e-01	1.82648776e-02	2.53820804e-04
2.76000000e-01	1.82681837e-02	2.52928939e-04
2.76500000e-01	1.83919148e-02	2.54752176e-04
2.77000000e-01	1.83841027e-02	2.53922826e-04
2.77500000e-01	1.81990095e-02	2.52184124e-04
2.78000000e-01	1.84818939e-02	2.55382424e-04
2.78500000e-01	1.82416024e-02	2.51585347e-04
2.79000000e-01	1.82151177e-02	2.50457119e-04
2.79500000e-01	1.81709137e-02	2.50309326e-04
2.80000000e-01	1.81457137e-02	2.49715076e-04
2.80500000e-01	1.82888529e-02	2.50501584e-04
2.81000000e-01	1.81735926e-02	2.50201037e-04
2.81500000e-01	1.78896062e-02	2.45940686e-04
2.82000000e-01	1.83279198e-02	2.50768819e-04
2.82500000e-01	1.81346291e-02	2.49112239e-04
2.83000000e-01	1.79887860e-02	2.46086727e-04
2.83500000e-01	1.80640378e-02	2.46188072e-04
2.84000000e-01	1.80294479e-02	2.46005454e-04
2.84500000e-01	1.79476279e-02	2.44630339e-04
2.85000000e-01	1.83136242e-02	2.49882734e-04
2.85500000e-01	1.79409486e-02	2.44057933e-04
2.86000000e-01	1.80708906e-02	2.46443929e-04
2.86500000e-01	1.80002330e-02	2.44487031e-04
2.87000000e-01	1.79489443e-02	2.43744901e-04
2.87500000e-01	1.77812709e-02	2.41328456e-04
2.88000000e-01	1.79558199e-02	2.42303734e-04
2.88500000e-01	1.81829574e-02	2.46557212e-04
2.89000000e-01	1.78149124e-02	2.41693025e-04
2.89500000e-01	1.80200209e-02	2.43862911e-04
2.90000000e-01	1.79595498e-02	2.42078821e-04
2.90500000e-01	1.79159189e-02	2.41593508e-04
2.91000000e-01	1.79841436e-02	2.41989793e-04
2.91500000e-01	1.79021394e-02	2.40510286e-04
2.92000000e-01	1.78292064e-02	2.39622927e-04
2.92500000e-01	1.77013125e-02	2.37954995e-04
2.93000000e-01	1.80234659e-02	2.42031838e-04
2.93500000e-01	1.77710493e-02	2.39239956e-04
2.94000000e-01	1.79341897e-02	2.39388612e-04
2.94500000e-01	1.75952887e-02	2.36833091e-04
2.95000000e-01	1.77448902e-02	2.37736810e-04
2.95500000e-01	1.78333562e-02	2.38711787e-04
2.96000000e-01	1.76914775e-02	2.36112669e-04
2.96500000e-01	1.79593637e-02	2.39053708e-04
2.97000000e-01	1.77153522e-02	2.36314921e-04
2.97500000e-01	1.77948676e-02	2.36372399e-04
2.98000000e-01	1.77985193e-02	2.37605188e-04
2.98500000e-01	1.77880586e-02	2.36904742e-04
2.99000000e-01	1.78237322e-02	2.36072609e-04
2.99500000e-01	1.79041693e-02	2.39196184e-04
3.00000000e-01	1.78045566e-02	2.36466996e-04
3.00500000e-01	1.77751280e-02	2.36254795e-04
3.01000000e-01	1.76977100e-02	2.34074221e-04
3.01500000e-01	1.76335190e-02	2.34065766e-04
3.02000000e-01	1.77426587e-02	2.34450002e-04
3.02500000e-01	1.76557484e-02	2.33896491e-04
3.03000000e-01	1.76813899e-02	2.33827833e-04
3.03500000e-01	1.74997054e-02	2.31253424e-04
3.04000000e-01	1.77021743e-02	2.34643600e-04
3.04500000e-01	1.77564447e-02	2.33931760e-04
3.05000000e-01	1.75954935e-02	2.31776790e-04
3.05500000e-01	1.75633592e-02	2.31501021e-04
3.06000000e-01	1.76555828e-02	2.31515700e-04
3.06500000e-01	1.74820259e-02	2.30460157e-04
3.07000000e-01	1.75788046e-02	2.30543847e-04
3.07500000e-01	1.75486801e-02	2.30621897e-04
3.08000000e-01	1.76683237e-02	2.31084885e-04
3.08500000e-01	1.75568676e-02	2.29983341e-04
3.09000000e-01	1.74825657e-02	2.29519841e-04
3.09500000e-01	1.76107209e-02	2.29957128e-04
3.10000000e-01	1.75691379e-02	2.29894881e-04
3.10500000e-01	1.77685064e-02	2.32198371e-04
3.11000000e-01	1.74766843e-02	2.28466112e-04
3.11500000e-01	1.75451288e-02	2.28145143e-04
3.12000000e-01	1.75045900e-02	2.28053491e-04
3.12500000e-01	1.76313998e-02	2.28763327e-04
3.13000000e-01	1.73656244e-02	2.25871653e-04
3.13500000e-01	1.74400949e-02	2.26570530e-04
3.14000000e-01	1.73640353e-02	2.25839347e-04
3.14500000e-01	1.75488570e-02	2.27141484e-04
3.15000000e-01	1.72838645e-02	2.24868499e-04
3.15500000e-01	1.74048037e-02	2.26315370e-04
3.16000000e-01	1.76317258e-02	2.27592655e-04
3.16500000e-01	1.74564024e-02	2.24710679e-04
3.17000000e-01	1.75988732e-02	2.27907163e-04
3.17500000e-01	1.73589792e-02	2.25250064e-04
3.18000000e-01	1.75241288e-02	2.25849164e-04
3.18500000e-01	1.74722445e-02	2.25602541e-04
3.19000000e-01	1.73553675e-02	2.23927517e-04
3.19500000e-01	1.74086827e-02	2.24599858e-04
3.20000000e-01	1.72605998e-02	2.22006372e-04
3.20500000e-01	1.74606382e-02	2.24275893e-04
3.21000000e-01	1.74567368e-02	2.24499122e-04
3.21500000e-01	1.74384590e-02	2.24038888e-04
3.22000000e-01	1.73376125e-02	2.23140461e-04
3.22500000e-01	1.74695088e-02	2.23207345e-04
3.23000000e-01	1.72034182e-02	2.20098598e-04
3.23500000e-01	1.74153869e-02	2.23114534e-04
3.24000000e-01	1.72357483e-02	2.19770162e-04
3.24500000e-01	1.69793439e-02	2.17984069e-04
3.25000000e-01	1.72725350e-02	2.21023055e-04
3.25500000e-01	1.73682225e-02	2.22092453e-04
3.26000000e-01	1.72152557e-02	2.19261051e-04
3.26500000e-01	1.70950618e-02	2.17920186e-04
3.27000000e-01	1.71332312e-02	2.18329597e-04
3.27500000e-01	1.71777472e-02	2.18773510e-04
3.28000000e-01	1.70597497e-02	2.16895061e-04
3.28500000e-01	1.72201870e-02	2.18219889e-04
3.29000000e-01	1.71167001e-02	2.18537253e-04
3.29500000e-01	1.71636222e-02	2.18541219e-04
3.30000000e-01	1.72507487e-02	2.18491083e-04
3.30500000e-01	1.71106734e-02	2.16565035e-04
3.31000000e-01	1.70479391e-02	2.16043546e-04
3.31500000e-01	1.71260397e-02	2.16329155e-04
3.32000000e-01	1.69475465e-02	2.15032208e-04
3.32500000e-01	1.70627507e-02	2.15453766e-04
3.33000000e-01	1.71818952e-02	2.16798681e-04
3.33500000e-01	1.72380072e-02	2.17304765e-04
3.34000000e-01	1.69949659e-02	2.14677378e-04
3.34500000e-01	1.71335762e-02	2.16257133e-04
3.35000000e-01	1.71873853e-02	2.15907839e-04
3.35500000e-01	1.71121700e-02	2.15666634e-04
3.36000000e-01	1.69611204e-02	2.13584832e-04
3.36500000e-01	1.69786892e-02	2.13066788e-04
3.37000000e-01	1.70753362e-02	2.13966365e-04
3.37500000e-01	1.70593630e-02	2.14059031e-04
3.38000000e-01	1.71749261e-02	2.15970692e-04
3.38500000e-01	1.70494280e-02	2.13139567e-04
3.39000000e-01	1.70780562e-02	2.13469314e-04
3.39500000e-01	1.68526901e-02	2.10196031e-04
3.40000000e-01	1.69999935e-02	2.12825761e-04
3.40500000e-01	1.69438802e-02	2.12251923e-04
3.41000000e-01	1.70121190e-02	2.12310876e-04
3.41500000e-01	1.67918285e-02	2.10427885e-04
3.42000000e-01	1.69737442e-02	2.10831439e-04
3.42500000e-01	1.70597636e-02	2.13094625e-04
3.43000000e-01	1.68434952e-02	2.09527753e-04
3.43500000e-01	1.68730892e-02	2.09667406e-04
3.44000000e-01	1.67532900e-02	2.08346462e-04
3.44500000e-01	1.69710266e-02	2.10690921e-04
3.45000000e-01	1.68758461e-02	2.09616190e-04
3.45500000e-01	1.67500496e-02	2.08203738e-04
3.46000000e-01	1.69615104e-02	2.10391030e-04
3.46500000e-01	1.69501655e-02	2.09941961e-04
3.47000000e-01	1.68680798e-02	2.08345316e-04
3.47500000e-01	1.68183338e-02	2.07860403e-04
3.48000000e-01	1.68730406e-02	2.08912143e-04
3.48500000e-01	1.67347751e-02	2.07112702e-04
3.49000000e-01	1.69456220e-02	2.08778132e-04
3.49500000e-01	1.68512838e-02	2.07412398e-04
3.50000000e-01	1.67635288e-02	1.68937705e-04
3.51000000e-01	1.66738100e-02	1.45565174e-04
3.52000000e-01	1.67718035e-02	1.46215879e-04
3.53000000e-01	1.68328237e-02	1.45971347e-04
3.54000000e-01	1.66212120e-02	1.43904702e-04
3.55000000e-01	1.68248638e-02	1.45512062e-04
3.56000000e-01	1.67038347e-02	1.45114216e-04
3.57000000e-01	1.67073300e-02	1.47476388e-04
3.58000000e-01	1.65962394e-02	1.48174278e-04
3.59000000e-01	1.65728080e-02	1.48975450e-04
3.60000000e-01	1.65609455e-02	1.50160115e-04
3.61000000e-01	1.65170474e-02	1.49871167e-04
3.62000000e-01	1.65382879e-02	1.51093434e-04
3.63000000e-01	1.63542764e-02	1.50507686e-04
3.64000000e-01	1.66504072e-02	1.53035805e-04
3.65000000e-01	1.64568756e-02	1.51972283e-04
3.66000000e-01	1.65237696e-02	1.50699628e-04
3.67000000e-01	1.64099215e-02	1.48124072e-04
3.68000000e-01	1.63969011e-02	1.46789101e-04
3.69000000e-01	1.63943989e-02	1.46169188e-04
3.70000000e-01	1.63659296e-02	1.44489147e-04
3.71000000e-01	1.63331532e-02	1.46579040e-04
3.72000000e-01	1.62965456e-02	1.47304787e-04
3.73000000e-01	1.63080592e-02	1.47391327e-04
3.74000000e-01	1.62436384e-02	1.47247845e-04
3.75000000e-01	1.63438493e-02	1.48212876e-04
3.76000000e-01	1.61657881e-02	1.46759918e-04
3.77000000e-01	1.62732206e-02	1.47727971e-04
3.78000000e-01	1.62339081e-02	1.47310666e-04
3.79000000e-01	1.61331657e-02	1.46000273e-04
3.80000000e-01	1.62798097e-02	1.47003249e-04
3.81000000e-01	1.61612770e-02	1.46246283e-04
3.82000000e-01	1.60279357e-02	1.45051470e-04
3.83000000e-01	1.61928160e-02	1.46293718e-04
3.84000000e-01	1.62148334e-02	1.46687860e-04
3.85000000e-01	1.60239865e-02	1.45222853e-04
3.86000000e-01	1.60654518e-02	1.44995802e-04
3.87000000e-01	1.61492235e-02	1.45819552e-04
3.88000000e-01	1.61129574e-02	1.45356146e-04
3.89000000e-01	1.60985424e-02	1.44944091e-04
3.90000000e-01	1.61075575e-02	1.45041061e-04
3.91000000e-01	1.58764977e-02	1.43543450e-04
3.92000000e-01	1.60719720e-02	1.44797271e-04
3.93000000e-01	1.59879631e-02	1.44254337e-04
3.94000000e-01	1.60401587e-02	1.44793484e-04
3.95000000e-01	1.60106278e-02	1.44343564e-04
3.96000000e-01	1.58970284e-02	1.43106934e-04
3.97000000e-01	1.60507921e-02	1.44382191e-04
3.98000000e-01	1.59317702e-02	1.43495087e-04
3.99000000e-01	1.60585414e-02	1.44696080e-04
4.00000000e-01	1.58631381e-02	1.43243432e-04
4.01000000e-01	1.58665579e-02	1.42961997e-04
4.02000000e-01	1.59880793e-02	1.43841507e-04
4.03000000e-01	1.58329860e-02	1.42591911e-04
4.04000000e-01	1.57266635e-02	1.41690446e-04
4.05000000e-01	1.56790439e-02	1.41246627e-04
4.06000000e-01	1.57440956e-02	1.42112423e-04
4.07000000e-01	1.58284511e-02	1.42688372e-04
4.08000000e-01	1.58517492e-02	1.42087292e-04
4.09000000e-01	1.59084305e-02	1.42512986e-04
4.10000000e-01	1.58146168e-02	1.42197214e-04
4.11000000e-01	1.57921632e-02	1.42165889e-04
4.12000000e-01	1.56891246e-02	1.41240586e-04
4.13000000e-01	1.57809857e-02	1.41807338e-04
4.14000000e-01	1.57534092e-02	1.41321253e-04
4.15000000e-01	1.56640566e-02	1.40545174e-04
4.16000000e-01	1.55640816e-02	1.40016425e-04
4.17000000e-01	1.57740520e-02	1.41377533e-04
4.18000000e-01	1.58309865e-02	1.43573897e-04
4.19000000e-01	1.57626793e-02	1.44497185e-04
4.20000000e-01	1.57462064e-02	1.45552611e-04
4.21000000e-01	1.58985935e-02	1.47095789e-04
4.22000000e-01	1.57821660e-02	1.46662181e-04
4.23000000e-01	1.57559537e-02	1.47140363e-04
4.24000000e-01	1.56483895e-02	1.46394151e-04
4.25000000e-01	1.57642439e-02	1.47953592e-04
4.26000000e-01	1.58185997e-02	1.48166496e-04
4.27000000e-01	1.56881488e-02	1.46888273e-04
4.28000000e-01	1.58168178e-02	1.48205423e-04
4.29000000e-01	1.56653534e-02	1.47524977e-04
4.30000000e-01	1.56442859e-02	1.47196441e-04
4.31000000e-01	1.58081042e-02	1.48146120e-04
4.32000000e-01	1.55897102e-02	1.46715218e-04
4.33000000e-01	1.56050222e-02	1.46864281e-04
4.34000000e-01	1.56851923e-02	1.47705353e-04
4.35000000e-01	1.57104759e-02	1.47960963e-04
4.36000000e-01	1.57095865e-02	1.48311034e-04
4.37000000e-01	1.57699340e-02	1.48565548e-04
4.38000000e-01	1.55319377e-02	1.47173697e-04
4.39000000e-01	1.54436109e-02	1.46723686e-04
4.40000000e-01	1.56100586e-02	1.48382264e-04
4.41000000e-01	1.55723163e-02	1.47722765e-04
4.42000000e-01	1.55127746e-02	1.47610263e-04
4.43000000e-01	1.55755338e-02	1.48764537e-04
4.44000000e-01	1.55774813e-02	1.48523716e-04
4.45000000e-01	1.55865829e-02	1.48452597e-04
4.46000000e-01	1.55310724e-02	1.48148546e-04
4.47000000e-01	1.56258372e-02	1.49101777e-04
4.48000000e-01	1.55265041e-02	1.48627932e-04
4.49000000e-01	1.55090655e-02	1.48631617e-04
4.50000000e-01	1.53853072e-02	1.48118510e-04
4.51000000e-01	1.55723880e-02	1.49517217e-04
4.52000000e-01	1.53473027e-02	1.47598572e-04
4.53000000e-01	1.53092803e-02	1.47549271e-04
4.54000000e-01	1.53825603e-02	1.47934827e-04
4.55000000e-01	1.53624063e-02	1.48273986e-04
4.56000000e-01	1.54265038e-02	1.48548925e-04
4.57000000e-01	1.53785497e-02	1.48743369e-04
4.58000000e-01	1.53142774e-02	1.48043773e-04
4.59000000e-01	1.53185879e-02	1.48450604e-04
4.60000000e-01	1.53765992e-02	1.49121047e-04
4.61000000e-01	1.52549534e-02	1.47893760e-04
4.62000000e-01	1.53810022e-02	1.49091343e-04
4.63000000e-01	1.52097121e-02	1.47962619e-04
4.64000000e-01	1.54405475e-02	1.49950848e-04
4.65000000e-01	1.53931214e-02	1.49661063e-04
4.66000000e-01	1.53726094e-02	1.49510478e-04
4.67000000e-01	1.52199615e-02	1.48240293e-04
4.68000000e-01	1.52568615e-02	1.48679483e-04
4.69000000e-01	1.51651900e-02	1.48097038e-04
4.70000000e-01	1.52976697e-02	1.49194772e-04
4.71000000e-01	1.51718777e-02	1.48417502e-04
4.72000000e-01	1.53182934e-02	1.48996098e-04
4.73000000e-01	1.51849830e-02	1.48040279e-04
4.74000000e-01	1.52856692e-02	1.48970700e-04
4.75000000e-01	1.51747187e-02	1.48332427e-04
4.76000000e-01	1.52384420e-02	1.48323776e-04
4.77000000e-01	1.51559299e-02	1.47865323e-04
4.78000000e-01	1.51315445e-02	1.47917898e-04
4.79000000e-01	1.51637565e-02	1.48063397e-04
4.80000000e-01	1.51180588e-02	1.47090004e-04
4.81000000e-01	1.51615684e-02	1.48317410e-04
4.82000000e-01	1.51725326e-02	1.48096038e-04
4.83000000e-01	1.52060674e-02	1.48540549e-04
4.84000000e-01	1.51170280e-02	1.48144328e-04
4.85000000e-01	1.51847137e-02	1.48452824e-04
4.86000000e-01	1.51419628e-02	1.48663726e-04
4.87000000e-01	1.49649960e-02	1.47069129e-04
4.88000000e-01	1.51211125e-02	1.48450521e-04
4.89000000e-01	1.50934660e-02	1.47897879e-04
4.90000000e-01	1.50833797e-02	1.47843534e-04
4.91000000e-01	1.50991825e-02	1.48410952e-04
4.92000000e-01	1.49328899e-02	1.47181952e-04
4.93000000e-01	1.49829942e-02	1.47757288e-04
4.94000000e-01	1.51346069e-02	1.48636617e-04
4.95000000e-01	1.51138110e-02	1.49826171e-04
4.96000000e-01	1.50131147e-02	1.53356324e-04
4.97000000e-01	1.50001558e-02	1.56175510e-04
4.98000000e-01	1.51181968e-02	1.59263596e-04
4.99000000e-01	1.50153665e-02	1.60146172e-04
5.00000000e-01	1.48215823e-02	1.59724818e-04
5.01000000e-01	1.49505927e-02	1.62960298e-04
5.02000000e-01	1.49468896e-02	1.64527410e-04
5.03000000e-01	1.50471754e-02	1.67059450e-04
5.04000000e-01	1.49919422e-02	1.67635755e-04
5.05000000e-01	1.51215782e-02	1.66091837e-04
5.06000000e-01	1.51677904e-02	1.63052131e-04
5.07000000e-01	1.50800520e-02	1.60479334e-04
5.08000000e-01	1.49598953e-02	1.58573052e-04
5.09000000e-01	1.50370367e-02	1.58620925e-04
5.10000000e-01	1.50318861e-02	1.57828174e-04
5.11000000e-01	1.50115669e-02	1.57236471e-04
5.12000000e-01	1.49966270e-02	1.56430359e-04
5.13000000e-01	1.48880676e-02	1.55729223e-04
5.14000000e-01	1.48613510e-02	1.54904082e-04
5.15000000e-01	1.49542203e-02	1.55556500e-04
5.16000000e-01	1.49024450e-02	1.54737182e-04
5.17000000e-01	1.47817116e-02	1.53151781e-04
5.18000000e-01	1.46531808e-02	1.51496750e-04
5.19000000e-01	1.48595833e-02	1.52738537e-04
5.20000000e-01	1.48550160e-02	1.52881709e-04
5.21000000e-01	1.48847719e-02	1.52719225e-04
5.22000000e-01	1.47887845e-02	1.52155228e-04
5.23000000e-01	1.48493671e-02	1.52315912e-04
5.24000000e-01	1.47070836e-02	1.51023079e-04
5.25000000e-01	1.47650854e-02	1.51522212e-04
5.26000000e-01	1.47367741e-02	1.50970920e-04
5.27000000e-01	1.47963510e-02	1.51924447e-04
5.28000000e-01	1.48541545e-02	1.52257399e-04
5.29000000e-01	1.47231841e-02	1.51333589e-04
5.30000000e-01	1.47124446e-02	1.51474864e-04
5.31000000e-01	1.46588316e-02	1.50685808e-04
5.32000000e-01	1.46760729e-02	1.51334081e-04
5.33000000e-01	1.48019828e-02	1.51658333e-04
5.34000000e-01	1.47324746e-02	1.51274571e-04
5.35000000e-01	1.46300944e-02	1.49947253e-04
5.36000000e-01	1.47957103e-02	1.51556322e-04
5.37000000e-01	1.47484827e-02	1.51491384e-04
5.38000000e-01	1.47310184e-02	1.50956153e-04
5.39000000e-01	1.47232506e-02	1.51108375e-04
5.40000000e-01	1.45758134e-02	1.49978574e-04
5.41000000e-01	1.44807759e-02	1.49107665e-04
5.42000000e-01	1.44908394e-02	1.48831578e-04
5.43000000e-01	1.45486274e-02	1.49401186e-04
5.44000000e-01	1.46322111e-02	1.50232759e-04
5.45000000e-01	1.45068456e-02	1.48716907e-04
5.46000000e-01	1.46954148e-02	1.50899949e-04
5.47000000e-01	1.45189846e-02	1.49344197e-04
5.48000000e-01	1.45118270e-02	1.49108374e-04
5.49000000e-01	1.45376483e-02	1.49028817e-04
5.50000000e-01	1.44345846e-02	1.48174104e-04
5.51000000e-01	1.45296909e-02	1.48690666e-04
5.52000000e-01	1.45519659e-02	1.48841473e-04
5.53000000e-01	1.44245998e-02	1.47716029e-04
5.54000000e-01	1.43567115e-02	1.46708293e-04
5.55000000e-01	1.44948355e-02	1.47766029e-04
5.56000000e-01	1.44220326e-02	1.47301714e-04
5.57000000e-01	1.44696120e-02	1.47806480e-04
5.58000000e-01	1.44346430e-02	1.47286141e-04
5.59000000e-01	1.44237892e-02	1.46912846e-04
5.60000000e-01	1.45140153e-02	1.48055343e-04
5.61000000e-01	1.45564574e-02	1.48563759e-04
5.62000000e-01	1.42858098e-02	1.46330274e-04
5.63000000e-01	1.44452417e-02	1.47810633e-04
5.64000000e-01	1.44201032e-02	1.47206881e-04
5.65000000e-01	1.44008955e-02	1.47034688e-04
5.66000000e-01	1.42677798e-02	1.46150758e-04
5.67000000e-01	1.42997583e-02	1.46199275e-04
5.68000000e-01	1.43729148e-02	1.47389088e-04
5.69000000e-01	1.43186414e-02	1.45794214e-04
5.70000000e-01	1.42922939e-02	1.45829456e-04
5.71000000e-01	1.43208831e-02	1.46293295e-04
5.72000000e-01	1.43192104e-02	1.46403854e-04
5.73000000e-01	1.41891174e-02	1.45003291e-04
5.74000000e-01	1.43804421e-02	1.46955255e-04
5.75000000e-01	1.41697063e-02	1.45226851e-04
5.76000000e-01	1.41816114e-02	1.45126523e-04
5.77000000e-01	1.42755540e-02	1.46118413e-04
5.78000000e-01	1.42271831e-02	1.45827527e-04
5.79000000e-01	1.42061169e-02	1.45223215e-04
5.80000000e-01	1.41900805e-02	1.45283694e-04
5.81000000e-01	1.42752348e-02	1.46297228e-04
5.82000000e-01	1.41746878e-02	1.45292671e-04
5.83000000e-01	1.41094847e-02	1.44386487e-04
5.84000000e-01	1.42484115e-02	1.45996601e-04
5.85000000e-01	1.43297573e-02	1.46935247e-04
5.86000000e-01	1.40982666e-02	1.44437041e-04
5.87000000e-01	1.42295566e-02	1.46013142e-04
5.88000000e-01	1.40623728e-02	1.44325322e-04
5.89000000e-01	1.41233182e-02	1.44906399e-04
5.90000000e-01	1.41563030e-02	1.45357301e-04
5.91000000e-01	1.40447208e-02	1.44243002e-04
5.92000000e-01	1.40557426e-02	1.44487105e-04
5.93000000e-01	1.40957077e-02	1.44825287e-04
5.94000000e-01	1.40438846e-02	1.44520635e-04
5.95000000e-01	1.39382044e-02	1.43454800e-04
5.96000000e-01	1.41280734e-02	1.45607510e-04
5.97000000e-01	1.39902572e-02	1.43914752e-04
5.98000000e-01	1.40409662e-02	1.44255427e-04
5.99000000e-01	1.41123865e-02	1.44867264e-04
6.00000000e-01	1.39797856e-02	1.43746943e-04
6.01000000e-01	1.39925611e-02	1.43873678e-04
6.02000000e-01	1.38870201e-02	1.42928814e-04
6.03000000e-01	1.40318473e-02	1.44701694e-04
6.04000000e-01	1.40466345e-02	1.44507628e-04
6.05000000e-01	1.40210105e-02	1.44580400e-04
6.06000000e-01	1.40189583e-02	1.44172894e-04
6.07000000e-01	1.39372972e-02	1.43640880e-04
6.08000000e-01	1.40038962e-02	1.44339564e-04
6.09000000e-01	1.38843025e-02	1.43535640e-04
6.10000000e-01	1.39005765e-02	1.43181460e-04
6.11000000e-01	1.40048716e-02	1.43871851e-04
6.12000000e-01	1.39212482e-02	1.43926145e-04
6.13000000e-01	1.39148681e-02	1.43519648e-04
6.14000000e-01	1.39547908e-02	1.43355650e-04
6.15000000e-01	1.39818484e-02	1.43734413e-04
6.16000000e-01	1.37749984e-02	1.42856777e-04
6.17000000e-01	1.39885863e-02	1.44124866e-04
6.18000000e-01	1.38086111e-02	1.42661322e-04
6.19000000e-01	1.38700445e-02	1.42749460e-04
6.20000000e-01	1.39413100e-02	1.43639239e-04
6.21000000e-01	1.39015454e-02	1.42654133e-04
6.22000000e-01	1.38573670e-02	1.42079055e-04
6.23000000e-01	1.38318953e-02	1.41817536e-04
6.24000000e-01	1.38568201e-02	1.41965732e-04
6.25000000e-01	1.37855728e-02	1.40723895e-04
6.26000000e-01	1.38130961e-02	1.41230884e-04
6.27000000e-01	1.38222335e-02	1.41169702e-04
6.28000000e-01	1.37121916e-02	1.40165691e-04
6.29000000e-01	1.37922415e-02	1.40801261e-04
6.30000000e-01	1.38427726e-02	1.41426261e-04
6.31000000e-01	1.37098009e-02	1.40828751e-04
6.32000000e-01	1.37432906e-02	1.41144437e-04
6.33000000e-01	1.37896390e-02	1.40994399e-04
6.34000000e-01	1.38752136e-02	1.45284119e-04
6.35000000e-01	1.38492758e-02	1.49717980e-04
6.36000000e-01	1.39063651e-02	1.52717135e-04
6.37000000e-01	1.37036302e-02	1.53813703e-04
6.38000000e-01	1.39199377e-02	1.57479400e-04
6.39000000e-01	1.38484510e-02	1.58273789e-04
6.40000000e-01	1.38240620e-02	1.60272533e-04
6.41000000e-01	1.37976805e-02	1.62237332e-04
6.42000000e-01	1.37916452e-02	1.63387987e-04
6.43000000e-01	1.38121259e-02	1.64010955e-04
6.44000000e-01	1.41682031e-02	1.62088450e-04
6.45000000e-01	1.39309363e-02	1.56466418e-04
6.46000000e-01	1.38301389e-02	1.54417947e-04
6.47000000e-01	1.38516240e-02	1.53452499e-04
6.48000000e-01	1.37529719e-02	1.50967094e-04
6.49000000e-01	1.36706815e-02	1.49695527e-04
6.50000000e-01	1.38842783e-02	1.50805378e-04
6.51000000e-01	1.38974329e-02	1.50491175e-04
6.52000000e-01	1.37654169e-02	1.49055949e-04
6.53000000e-01	1.37969266e-02	1.48995988e-04
6.54000000e-01	1.37662806e-02	1.48157738e-04
6.55000000e-01	1.37135995e-02	1.47057777e-04
6.56000000e-01	1.37956535e-02	1.47872133e-04
6.57000000e-01	1.37118710e-02	1.46871708e-04
6.58000000e-01	1.38900225e-02	1.48028539e-04
6.59000000e-01	1.38256361e-02	1.47104595e-04
6.60000000e-01	1.37416572e-02	1.46900704e-04
6.61000000e-01	1.37969069e-02	1.46723597e-04
6.62000000e-01	1.38200061e-02	1.47219336e-04
6.63000000e-01	1.37284162e-02	1.46480685e-04
6.64000000e-01	1.37250298e-02	1.45929332e-04
6.65000000e-01	1.37365739e-02	1.46468034e-04
6.66000000e-01	1.37405380e-02	1.46252441e-04
6.67000000e-01	1.37509938e-02	1.46008759e-04
6.68000000e-01	1.34718472e-02	1.43344321e-04
6.69000000e-01	1.36546556e-02	1.45062264e-04
6.70000000e-01	1.36385939e-02	1.44793432e-04
6.71000000e-01	1.36515263e-02	1.44891585e-04
6.72000000e-01	1.37015831e-02	1.45741592e-04
6.73000000e-01	1.37681397e-02	1.45725752e-04
6.74000000e-01	1.36016225e-02	1.43990745e-04
6.75000000e-01	1.37480768e-02	1.45817797e-04
6.76000000e-01	1.35808434e-02	1.44098499e-04
6.77000000e-01	1.36465466e-02	1.44656163e-04
6.78000000e-01	1.36062316e-02	1.44037200e-04
6.79000000e-01	1.37182290e-02	1.45256949e-04
6.80000000e-01	1.37112966e-02	1.44898371e-04
6.81000000e-01	1.36119958e-02	1.44187992e-04
6.82000000e-01	1.35552041e-02	1.43603185e-04
6.83000000e-01	1.36040254e-02	1.43780568e-04
6.84000000e-01	1.35439981e-02	1.43393912e-04
6.85000000e-01	1.36566281e-02	1.44499370e-04
6.86000000e-01	1.35947885e-02	1.43401900e-04
6.87000000e-01	1.35633914e-02	1.43960713e-04
6.88000000e-01	1.34982500e-02	1.43186211e-04
6.89000000e-01	1.35045685e-02	1.42441259e-04
6.90000000e-01	1.34000881e-02	1.42171440e-04
6.91000000e-01	1.35705427e-02	1.43556896e-04
6.92000000e-01	1.33912156e-02	1.41828926e-04
6.93000000e-01	1.36306299e-02	1.43812354e-04
6.94000000e-01	1.35890750e-02	1.43672828e-04
6.95000000e-01	1.34181156e-02	1.41931185e-04
6.96000000e-01	1.34860594e-02	1.42415994e-04
6.97000000e-01	1.35372998e-02	1.42741855e-04
6.98000000e-01	1.33382486e-02	1.41087648e-04
6.99000000e-01	1.35748384e-02	1.42811635e-04
7.00000000e-01	1.35006884e-02	1.42582794e-04
7.01000000e-01	1.34254353e-02	1.42118712e-04
7.02000000e-01	1.33717169e-02	1.41572172e-04
7.03000000e-01	1.34614092e-02	1.41895547e-04
7.04000000e-01	1.33638462e-02	1.41106204e-04
7.05000000e-01	1.33705994e-02	1.41210958e-04
7.06000000e-01	1.34137992e-02	1.41501954e-04
7.07000000e-01	1.33789403e-02	1.41535796e-04
7.08000000e-01	1.34049513e-02	1.41420275e-04
7.09000000e-01	1.33849152e-02	1.41589138e-04
7.10000000e-01	1.33332890e-02	1.40645500e-04
7.11000000e-01	1.32914976e-02	1.39780213e-04
7.12000000e-01	1.31629220e-02	1.39100777e-04
7.13000000e-01	1.31806569e-02	1.39098527e-04
7.14000000e-01	1.32896541e-02	1.40531548e-04
7.15000000e-01	1.32109975e-02	1.40073225e-04
7.16000000e-01	1.32021954e-02	1.39338300e-04
7.17000000e-01	1.32549166e-02	1.39797897e-04
7.18000000e-01	1.31844567e-02	1.39511583e-04
7.19000000e-01	1.33029494e-02	1.40616129e-04
7.20000000e-01	1.32315402e-02	1.39711020e-04
7.21000000e-01	1.32156106e-02	1.39885295e-04
7.22000000e-01	1.32009654e-02	1.39416998e-04
7.23000000e-01	1.29839294e-02	1.37357937e-04
7.24000000e-01	1.30462711e-02	1.38277116e-04
7.25000000e-01	1.32873461e-02	1.40120305e-04
7.26000000e-01	1.31841669e-02	1.39034840e-04
7.27000000e-01	1.31884116e-02	1.39007555e-04
7.28000000e-01	1.31015633e-02	1.38963456e-04
7.29000000e-01	1.30944393e-02	1.38294425e-04
7.30000000e-01	1.30828444e-02	1.37980547e-04
7.31000000e-01	1.30918968e-02	1.38837095e-04
7.32000000e-01	1.30554872e-02	1.37971170e-04
7.33000000e-01	1.30633598e-02	1.38478543e-04
7.34000000e-01	1.29811624e-02	1.37482310e-04
7.35000000e-01	1.30921681e-02	1.37815064e-04
7.36000000e-01	1.30215461e-02	1.37044974e-04
7.37000000e-01	1.29360037e-02	1.36098376e-04
7.38000000e-01	1.29960115e-02	1.36415966e-04
7.39000000e-01	1.31239210e-02	1.37164615e-04
7.40000000e-01	1.30288584e-02	1.36497176e-04
7.41000000e-01	1.29215210e-02	1.35094045e-04
7.42000000e-01	1.31112508e-02	1.36990387e-04
7.43000000e-01	1.29448323e-02	1.35623393e-04
7.44000000e-01	1.28913864e-02	1.35094065e-04
7.45000000e-01	1.30428185e-02	1.36660913e-04
7.46000000e-01	1.29229938e-02	1.35336857e-04
7.47000000e-01	1.29542184e-02	1.35330196e-04
7.48000000e-01	1.30080133e-02	1.36072688e-04
7.49000000e-01	1.28947737e-02	1.34917565e-04
7.50000000e-01	1.28666565e-02	1.34673192e-04
7.51000000e-01	1.29304411e-02	1.35195175e-04
7.52000000e-01	1.29692377e-02	1.35965634e-04
7.53000000e-01	1.28655236e-02	1.35087761e-04
7.54000000e-01	1.28227082e-02	1.34048495e-04
7.55000000e-01	1.28341351e-02	1.34684339e-04
7.56000000e-01	1.28375014e-02	1.34489613e-04
7.57000000e-01	1.28878917e-02	1.34977898e-04
7.58000000e-01	1.27332860e-02	1.33678388e-04
7.59000000e-01	1.29072081e-02	1.34719418e-04
7.60000000e-01	1.28279661e-02	1.34385622e-04
7.61000000e-01	1.28715574e-02	1.34245003e-04
7.62000000e-01	1.28713525e-02	1.33825492e-04
7.63000000e-01	1.29211748e-02	1.34328057e-04
7.64000000e-01	1.27236502e-02	1.32746134e-04
7.65000000e-01	1.28370080e-02	1.33219396e-04
7.66000000e-01	1.27443526e-02	1.32359844e-04
7.67000000e-01	1.28159760e-02	1.33234893e-04
7.68000000e-01	1.26870646e-02	1.31737153e-04
7.69000000e-01	1.26892786e-02	1.31762046e-04
7.70000000e-01	1.26234660e-02	1.31426337e-04
7.71000000e-01	1.27424654e-02	1.31916961e-04
7.72000000e-01	1.26556579e-02	1.35441066e-04
7.73000000e-01	1.26713329e-02	1.40279645e-04
7.74000000e-01	1.26836376e-02	1.42797541e-04
7.75000000e-01	1.25906611e-02	1.44717612e-04
7.76000000e-01	1.27779534e-02	1.48625183e-04
7.77000000e-01	1.26024240e-02	1.49195071e-04
7.78000000e-01	1.25367458e-02	1.50154535e-04
7.79000000e-01	1.26345466e-02	1.53042416e-04
7.80000000e-01	1.25822034e-02	1.54395519e-04
7.81000000e-01	1.24813911e-02	1.55094917e-04
7.82000000e-01	1.26055386e-02	1.57887848e-04
7.83000000e-01	1.26562647e-02	1.60115616e-04
7.84000000e-01	1.25174146e-02	1.60422860e-04
7.85000000e-01	1.26188049e-02	1.63124185e-04
7.86000000e-01	1.26428882e-02	1.64785751e-04
7.87000000e-01	1.23694974e-02	1.63034940e-04
7.88000000e-01	1.25261088e-02	1.67535739e-04
7.89000000e-01	1.24589431e-02	1.68229261e-04
7.90000000e-01	1.25335153e-02	1.70775437e-04
7.91000000e-01	1.26064096e-02	1.72875629e-04
7.92000000e-01	1.25690744e-02	1.74806797e-04
7.93000000e-01	1.26819389e-02	1.77775509e-04
7.94000000e-01	1.25466853e-02	1.78279324e-04
7.95000000e-01	1.24500884e-02	1.78143346e-04
7.96000000e-01	1.25512724e-02	1.81517282e-04
7.97000000e-01	1.21793056e-02	1.79474838e-04
7.98000000e-01	1.22996876e-02	1.82287105e-04
7.99000000e-01	1.25639688e-02	1.87299143e-04
8.00000000e-01	1.25381714e-02	1.88927697e-04
8.01000000e-01	1.24747076e-02	1.90478308e-04
8.02000000e-01	1.23454715e-02	1.89987291e-04
8.03000000e-01	1.23905903e-02	1.92061538e-04
8.04000000e-01	1.23732691e-02	1.93237499e-04
8.05000000e-01	1.22629120e-02	1.94910340e-04
8.06000000e-01	1.23521798e-02	1.97890614e-04
8.07000000e-01	1.23978244e-02	2.00311068e-04
8.08000000e-01	1.23555679e-02	2.02313812e-04
8.09000000e-01	1.22985128e-02	2.04348156e-04
8.10000000e-01	1.24128203e-02	2.08008588e-04
8.11000000e-01	1.23413499e-02	2.10381848e-04
8.12000000e-01	1.23503294e-02	2.11163549e-04
8.13000000e-01	1.22618418e-02	2.13044924e-04
8.14000000e-01	1.21013843e-02	2.12918403e-04
8.15000000e-01	1.24367644e-02	2.20307533e-04
8.16000000e-01	1.21673088e-02	2.18250119e-04
8.17000000e-01	1.23349481e-02	2.23017863e-04
8.18000000e-01	1.19258343e-02	2.20158090e-04
8.19000000e-01	1.22758770e-02	2.30107818e-04
8.20000000e-01	1.21827971e-02	2.29926388e-04
8.21000000e-01	1.21125134e-02	2.31912893e-04
8.22000000e-01	1.22967243e-02	2.38281438e-04
8.23000000e-01	1.19960581e-02	2.38605228e-04
8.24000000e-01	1.23801353e-02	2.46642296e-04
8.25000000e-01	1.19658524e-02	2.42119310e-04
8.26000000e-01	1.24098719e-02	2.55365699e-04
8.27000000e-01	1.22981609e-02	2.55711148e-04
8.28000000e-01	1.19396184e-02	2.53067625e-04
8.29000000e-01	1.21390652e-02	2.60098063e-04
8.30000000e-01	1.19358987e-02	2.60849538e-04
8.31000000e-01	1.19739505e-02	2.65494639e-04
8.32000000e-01	1.17776211e-02	2.67636686e-04
8.33000000e-01	1.21180822e-02	2.75603336e-04
8.34000000e-01	1.16918228e-02	2.72752903e-04
8.35000000e-01	1.18961203e-02	2.83154169e-04
8.36000000e-01	1.18668999e-02	2.87420925e-04
8.37000000e-01	1.19187171e-02	2.97040247e-04
8.38000000e-01	1.15513471e-02	2.92702017e-04
8.39000000e-01	1.19155637e-02	3.06671176e-04
8.40000000e-01	1.17680031e-02	3.10224029e-04
8.41000000e-01	1.16984177e-02	3.17029154e-04
8.42000000e-01	1.19655108e-02	3.28921074e-04
8.43000000e-01	1.19533322e-02	3.35866608e-04
8.44000000e-01	1.20253281e-02	3.49201424e-04
8.45000000e-01	1.17785280e-02	3.48789735e-04
8.46000000e-01	1.15973716e-02	3.54382278e-04
8.47000000e-01	1.17773838e-02	3.69173310e-04
8.48000000e-01	1.17963329e-02	3.79061042e-04
8.49000000e-01	1.18699765e-02	3.94391917e-04
8.50000000e-01	1.18160140e-02	4.06589791e-04
8.51000000e-01	1.17838425e-02	4.16546840e-04
8.52000000e-01	1.13792619e-02	4.29851529e-04
8.53000000e-01	1.15890499e-02	4.48404087e-04
8.54000000e-01	1.13562140e-02	4.64036144e-04
8.55000000e-01	1.14576789e-02	4.84808739e-04
8.56000000e-01	1.16990305e-02	5.07406719e-04
8.57000000e-01	1.11386676e-02	4.96022714e-04
8.58000000e-01	1.09479507e-02	5.02914843e-04
8.59000000e-01	1.13393216e-02	5.28577161e-04
8.60000000e-01	1.16738651e-02	5.64133060e-04
8.61000000e-01	1.19693396e-02	5.98043819e-04
8.62000000e-01	1.14378815e-02	5.89472039e-04
8.63000000e-01	1.12803531e-02	6.13633178e-04
8.64000000e-01	1.17418417e-02	6.62839709e-04
8.65000000e-01	1.21435376e-02	7.15173833e-04
8.66000000e-01	1.20005940e-02	7.35161896e-04
8.67000000e-01	1.05915000e-02	7.13681371e-04
8.68000000e-01	1.17196343e-02	8.21825180e-04
8.69000000e-01	1.21043443e-02	9.07511934e-04
8.70000000e-01	1.14323088e-02	9.42695657e-04
8.71000000e-01	1.11711037e-02	1.01222571e-03
8.72000000e-01	1.11149872e-02	1.15265266e-03
8.73000000e-01	1.08609221e-02	1.30468408e-03
8.74000000e-01	9.98191004e-03	1.55338741e-03
8.75000000e-01	1.36900998e-02	4.44599365e-03
