% Filename : SSW20_00038_00006.h5
% Date & Time : 30-Oct-2025 17:43:29
% X-ray Energy (keV) : 13.30001
% Exposure Time (s) : 0.500
% Beam Center : 1461.24000, 208.98300
% Sample to Detector Distance (SDD) (mm) : 1990.750
% Detector Pixel Size (mm) : 0.075
% Photodiode Value : 141145.000
% I0 of Sample : 0
% I0 of Standard : 1
% 
% q(A^-1)   I(q)    I(q)_SE
0.00000000e+00	1.02400781e-02	5.43061750e-03
2.50000000e-04	0.00000000e+00	0.00000000e+00
5.00000000e-04	0.00000000e+00	0.00000000e+00
7.50000000e-04	0.00000000e+00	0.00000000e+00
1.00000000e-03	0.00000000e+00	0.00000000e+00
1.25000000e-03	0.00000000e+00	0.00000000e+00
1.50000000e-03	0.00000000e+00	0.00000000e+00
1.75000000e-03	0.00000000e+00	0.00000000e+00
2.00000000e-03	0.00000000e+00	0.00000000e+00
2.25000000e-03	0.00000000e+00	0.00000000e+00
2.50000000e-03	0.00000000e+00	0.00000000e+00
2.75000000e-03	0.00000000e+00	0.00000000e+00
3.00000000e-03	0.00000000e+00	0.00000000e+00
3.25000000e-03	3.27902425e+03	2.42126661e+03
3.50000000e-03	6.35453678e+02	2.30727037e+02
3.75000000e-03	3.22171892e+02	9.54934164e+01
4.00000000e-03	3.17173459e+02	1.00383391e+02
4.25000000e-03	3.21101551e+02	1.31463413e+02
4.50000000e-03	4.18921497e+02	1.27363973e+02
4.75000000e-03	4.32397354e+02	1.07682185e+02
5.00000000e-03	3.32967240e+02	8.71022975e+01
5.25000000e-03	2.86278259e+02	7.56312511e+01
5.50000000e-03	2.46414533e+02	6.00465037e+01
5.75000000e-03	2.16997814e+02	5.09081720e+01
6.00000000e-03	1.65259657e+02	3.90498121e+01
6.25000000e-03	1.39868247e+02	3.20270879e+01
6.50000000e-03	1.20369734e+02	2.82943302e+01
6.75000000e-03	1.01329999e+02	2.20621621e+01
7.00000000e-03	9.72979812e+01	2.17451191e+01
7.25000000e-03	8.16664299e+01	1.77738614e+01
7.50000000e-03	6.30688175e+01	1.34848012e+01
7.75000000e-03	5.34774857e+01	1.09977561e+01
8.00000000e-03	5.71756547e+01	1.15114932e+01
8.25000000e-03	4.21544648e+01	8.14523553e+00
8.50000000e-03	4.07511962e+01	8.00396282e+00
8.75000000e-03	3.76174868e+01	7.87050255e+00
9.00000000e-03	3.10191872e+01	6.03375271e+00
9.25000000e-03	2.88695418e+01	5.47561189e+00
9.50000000e-03	2.48579929e+01	4.48289570e+00
9.75000000e-03	2.31155427e+01	4.22510152e+00
1.00000000e-02	1.94809273e+01	3.61579129e+00
1.02500000e-02	1.92771446e+01	3.56762111e+00
1.05000000e-02	1.81867556e+01	3.23436363e+00
1.07500000e-02	1.61565058e+01	2.89612227e+00
1.10000000e-02	1.46001888e+01	2.47300499e+00
1.12500000e-02	1.34805466e+01	2.39527135e+00
1.15000000e-02	1.20018721e+01	1.97336479e+00
1.17500000e-02	1.07401224e+01	1.72484096e+00
1.20000000e-02	1.00427802e+01	1.62123989e+00
1.22500000e-02	9.69026798e+00	1.61249287e+00
1.25000000e-02	8.42599154e+00	1.35762991e+00
1.27500000e-02	7.79955268e+00	1.23118642e+00
1.30000000e-02	7.62169296e+00	1.16839518e+00
1.32500000e-02	6.62810270e+00	9.97547175e-01
1.35000000e-02	6.32214268e+00	9.52588445e-01
1.37500000e-02	5.85814859e+00	8.80485000e-01
1.40000000e-02	5.57257478e+00	8.37971141e-01
1.42500000e-02	5.05440375e+00	7.38420561e-01
1.45000000e-02	4.92612000e+00	7.17696359e-01
1.47500000e-02	4.63792697e+00	6.72830693e-01
1.50000000e-02	4.13438450e+00	5.83629930e-01
1.52500000e-02	3.93453182e+00	5.67179630e-01
1.55000000e-02	3.66779356e+00	5.06318836e-01
1.57500000e-02	3.30939063e+00	4.59666518e-01
1.60000000e-02	3.25444663e+00	4.46659201e-01
1.62500000e-02	3.34891811e+00	4.75949675e-01
1.65000000e-02	2.78843686e+00	3.79815082e-01
1.67500000e-02	2.65805444e+00	3.36674326e-01
1.70000000e-02	2.47899820e+00	3.19582251e-01
1.72500000e-02	2.44138601e+00	3.15489645e-01
1.75000000e-02	2.18967011e+00	2.83222389e-01
1.77500000e-02	2.14345275e+00	2.75964994e-01
1.80000000e-02	2.02387651e+00	2.45945489e-01
1.82500000e-02	1.88978098e+00	2.30214449e-01
1.85000000e-02	1.83220173e+00	2.31027990e-01
1.87500000e-02	1.72355261e+00	2.12994895e-01
1.90000000e-02	1.61310978e+00	1.98919710e-01
1.92500000e-02	1.54640152e+00	1.81744755e-01
1.95000000e-02	1.46036369e+00	1.76031955e-01
1.97500000e-02	1.42556293e+00	1.68385658e-01
2.00000000e-02	1.33482102e+00	1.61709664e-01
2.02500000e-02	1.26860250e+00	1.49997783e-01
2.05000000e-02	1.20036404e+00	1.33906009e-01
2.07500000e-02	1.16914824e+00	1.32354017e-01
2.10000000e-02	1.11493876e+00	1.29064326e-01
2.12500000e-02	1.07480797e+00	1.20485109e-01
2.15000000e-02	1.00901845e+00	1.10790234e-01
2.17500000e-02	1.04129424e+00	1.11554382e-01
2.20000000e-02	9.94041718e-01	1.06302204e-01
2.22500000e-02	9.38458747e-01	1.02281574e-01
2.25000000e-02	9.21322009e-01	9.98560920e-02
2.27500000e-02	8.77818783e-01	9.45278081e-02
2.30000000e-02	8.86773171e-01	9.19945019e-02
2.32500000e-02	8.31683974e-01	8.71809077e-02
2.35000000e-02	8.00299044e-01	8.30998297e-02
2.37500000e-02	7.77996669e-01	8.21962262e-02
2.40000000e-02	7.39766223e-01	7.74067735e-02
2.42500000e-02	7.68059551e-01	7.73834380e-02
2.45000000e-02	7.10785574e-01	7.35933492e-02
2.47500000e-02	6.74661052e-01	6.79033104e-02
2.50000000e-02	6.57402568e-01	6.54738480e-02
2.52500000e-02	6.28942260e-01	6.33108269e-02
2.55000000e-02	6.18949964e-01	5.96069362e-02
2.57500000e-02	5.89029357e-01	5.68714934e-02
2.60000000e-02	5.77986296e-01	5.70005486e-02
2.62500000e-02	5.63714416e-01	5.53320409e-02
2.65000000e-02	5.29742817e-01	5.10465482e-02
2.67500000e-02	5.35070184e-01	4.96263189e-02
2.70000000e-02	4.93075235e-01	4.64331964e-02
2.72500000e-02	4.86366159e-01	4.54021762e-02
2.75000000e-02	4.68696966e-01	4.38910701e-02
2.77500000e-02	4.58099023e-01	4.25998138e-02
2.80000000e-02	4.37626599e-01	3.91119247e-02
2.82500000e-02	4.34875795e-01	3.95350904e-02
2.85000000e-02	4.17561099e-01	3.72554238e-02
2.87500000e-02	4.04442101e-01	3.64313997e-02
2.90000000e-02	3.88366172e-01	3.50355617e-02
2.92500000e-02	3.85560178e-01	3.29819975e-02
2.95000000e-02	3.67359065e-01	3.19551457e-02
2.97500000e-02	3.54743919e-01	3.05547528e-02
3.00000000e-02	3.52214809e-01	3.08941498e-02
3.02500000e-02	3.41592202e-01	2.91069725e-02
3.05000000e-02	3.27165739e-01	2.71646336e-02
3.07500000e-02	3.23475504e-01	2.73147622e-02
3.10000000e-02	3.17965408e-01	2.68618918e-02
3.12500000e-02	3.08196264e-01	2.61588807e-02
3.15000000e-02	2.93954137e-01	2.43777186e-02
3.17500000e-02	2.97062198e-01	2.41233872e-02
3.20000000e-02	2.85942707e-01	2.33579517e-02
3.22500000e-02	2.81017902e-01	2.34521604e-02
3.25000000e-02	2.66869309e-01	2.16801881e-02
3.27500000e-02	2.60766400e-01	2.09756184e-02
3.30000000e-02	2.56457094e-01	2.03027389e-02
3.32500000e-02	2.43967863e-01	1.92782708e-02
3.35000000e-02	2.50998400e-01	2.02734356e-02
3.37500000e-02	2.33967094e-01	1.84098822e-02
3.40000000e-02	2.21247713e-01	1.69518867e-02
3.42500000e-02	2.27647413e-01	1.71639419e-02
3.45000000e-02	2.19175522e-01	1.70227061e-02
3.47500000e-02	2.11936624e-01	1.62462014e-02
3.50000000e-02	2.05872058e-01	1.57827921e-02
3.52500000e-02	2.08065559e-01	1.59743827e-02
3.55000000e-02	1.98496956e-01	1.48615750e-02
3.57500000e-02	1.99810168e-01	1.50509294e-02
3.60000000e-02	1.87572349e-01	1.40842498e-02
3.62500000e-02	1.85178634e-01	1.37871842e-02
3.65000000e-02	1.77294819e-01	1.31560054e-02
3.67500000e-02	1.82601439e-01	1.31101509e-02
3.70000000e-02	1.74569108e-01	1.25970765e-02
3.72500000e-02	1.68122749e-01	1.19909897e-02
3.75000000e-02	1.66033757e-01	1.20572804e-02
3.77500000e-02	1.64918174e-01	1.17991324e-02
3.80000000e-02	1.60718440e-01	1.11711144e-02
3.82500000e-02	1.55884687e-01	1.07575785e-02
3.85000000e-02	1.52076100e-01	1.07079299e-02
3.87500000e-02	1.46178265e-01	1.00781280e-02
3.90000000e-02	1.43855027e-01	1.00030998e-02
3.92500000e-02	1.45841424e-01	9.80930938e-03
3.95000000e-02	1.39672103e-01	9.46012551e-03
3.97500000e-02	1.36930309e-01	9.34973013e-03
4.00000000e-02	1.32782201e-01	8.88002034e-03
4.02500000e-02	1.32870523e-01	8.87908538e-03
4.05000000e-02	1.30528453e-01	8.51700850e-03
4.07500000e-02	1.25137286e-01	8.12587637e-03
4.10000000e-02	1.24192769e-01	8.14658320e-03
4.12500000e-02	1.20155670e-01	7.74605749e-03
4.15000000e-02	1.18299485e-01	7.54549919e-03
4.17500000e-02	1.18022942e-01	7.52612199e-03
4.20000000e-02	1.12134389e-01	7.08864855e-03
4.22500000e-02	1.14416883e-01	7.23040529e-03
4.25000000e-02	1.12222875e-01	6.97524600e-03
4.27500000e-02	1.08359336e-01	6.82910308e-03
4.30000000e-02	1.07740301e-01	6.66632582e-03
4.32500000e-02	1.05403813e-01	6.58999473e-03
4.35000000e-02	1.02902460e-01	6.48519963e-03
4.37500000e-02	1.00181427e-01	6.15281466e-03
4.40000000e-02	9.79414217e-02	5.97589448e-03
4.42500000e-02	9.89706439e-02	5.96199613e-03
4.45000000e-02	9.59155269e-02	5.67570205e-03
4.47500000e-02	9.37252355e-02	5.66364381e-03
4.50000000e-02	9.43715302e-02	5.61750175e-03
4.52500000e-02	9.18191896e-02	5.35913743e-03
4.55000000e-02	8.92216512e-02	5.26604055e-03
4.57500000e-02	8.90679662e-02	5.14132299e-03
4.60000000e-02	8.66788788e-02	5.07764059e-03
4.62500000e-02	8.53503069e-02	4.84166157e-03
4.65000000e-02	8.18992790e-02	4.63458690e-03
4.67500000e-02	8.51011766e-02	4.77180664e-03
4.70000000e-02	8.29814764e-02	4.72622929e-03
4.72500000e-02	8.08246860e-02	4.51127017e-03
4.75000000e-02	7.94268713e-02	4.43104700e-03
4.77500000e-02	7.85480972e-02	4.38048786e-03
4.80000000e-02	7.68401649e-02	4.24388580e-03
4.82500000e-02	7.37905893e-02	4.08821292e-03
4.85000000e-02	7.53148814e-02	4.16056478e-03
4.87500000e-02	7.37641177e-02	4.01962937e-03
4.90000000e-02	7.22706820e-02	3.86110282e-03
4.92500000e-02	7.30277078e-02	3.91067083e-03
4.95000000e-02	6.97582810e-02	3.73391739e-03
4.97500000e-02	7.04033956e-02	3.79401492e-03
5.00000000e-02	6.76602392e-02	3.59142100e-03
5.02500000e-02	6.84719464e-02	3.53794888e-03
5.05000000e-02	6.54539189e-02	3.38562158e-03
5.07500000e-02	6.69519721e-02	3.45638899e-03
5.10000000e-02	6.50508206e-02	3.38602040e-03
5.12500000e-02	6.40813180e-02	3.29331620e-03
5.15000000e-02	6.25514144e-02	3.19319372e-03
5.17500000e-02	6.24808216e-02	3.14319597e-03
5.20000000e-02	6.07947624e-02	3.10903116e-03
5.22500000e-02	5.97531416e-02	3.03582606e-03
5.25000000e-02	5.82000479e-02	2.93579996e-03
5.27500000e-02	5.85557600e-02	2.93225070e-03
5.30000000e-02	5.77910748e-02	2.79872747e-03
5.32500000e-02	5.87084628e-02	2.90166750e-03
5.35000000e-02	5.69029435e-02	2.79510385e-03
5.37500000e-02	5.60641793e-02	2.74589357e-03
5.40000000e-02	5.53158979e-02	2.64865979e-03
5.42500000e-02	5.52154728e-02	2.64919324e-03
5.45000000e-02	5.50471466e-02	2.64544745e-03
5.47500000e-02	5.27836809e-02	2.50274147e-03
5.50000000e-02	5.19353822e-02	2.44492106e-03
5.52500000e-02	5.25400340e-02	2.44449217e-03
5.55000000e-02	5.10232022e-02	2.35003712e-03
5.57500000e-02	5.17938386e-02	2.45161390e-03
5.60000000e-02	5.08696265e-02	2.36441575e-03
5.62500000e-02	4.97612101e-02	2.27206631e-03
5.65000000e-02	4.91259697e-02	2.24015862e-03
5.67500000e-02	4.95797027e-02	2.25989844e-03
5.70000000e-02	4.91615641e-02	2.22041941e-03
5.72500000e-02	4.78715775e-02	2.14044576e-03
5.75000000e-02	4.72420699e-02	2.14644755e-03
5.77500000e-02	4.65390394e-02	2.09169027e-03
5.80000000e-02	4.56117823e-02	2.01181739e-03
5.82500000e-02	4.64265424e-02	2.03708490e-03
5.85000000e-02	4.54459052e-02	2.00021558e-03
5.87500000e-02	4.43074900e-02	1.95503184e-03
5.90000000e-02	4.48279178e-02	1.91082134e-03
5.92500000e-02	4.43110860e-02	1.93135370e-03
5.95000000e-02	4.42985185e-02	1.90008631e-03
5.97500000e-02	4.39556292e-02	1.89853973e-03
6.00000000e-02	4.27109218e-02	1.82667829e-03
6.02500000e-02	4.29546129e-02	1.82823432e-03
6.05000000e-02	4.23761012e-02	1.78975824e-03
6.07500000e-02	4.29179834e-02	1.81066774e-03
6.10000000e-02	4.11518182e-02	1.71244496e-03
6.12500000e-02	4.02783997e-02	1.68512990e-03
6.15000000e-02	4.10483114e-02	1.70276336e-03
6.17500000e-02	4.03466594e-02	1.66620607e-03
6.20000000e-02	4.00091621e-02	1.64012164e-03
6.22500000e-02	3.98678856e-02	1.62664939e-03
6.25000000e-02	3.90017353e-02	1.58353334e-03
6.27500000e-02	3.89731176e-02	1.55767786e-03
6.30000000e-02	3.80550632e-02	1.52063238e-03
6.32500000e-02	3.85099235e-02	1.54587137e-03
6.35000000e-02	3.71407965e-02	1.48011897e-03
6.37500000e-02	3.75415015e-02	1.50180485e-03
6.40000000e-02	3.83932189e-02	1.52769506e-03
6.42500000e-02	3.71478487e-02	1.44241406e-03
6.45000000e-02	3.70396836e-02	1.43298290e-03
6.47500000e-02	3.62577757e-02	1.42894584e-03
6.50000000e-02	3.63519424e-02	1.40349375e-03
6.52500000e-02	3.69165561e-02	1.42153431e-03
6.55000000e-02	3.57605222e-02	1.36693554e-03
6.57500000e-02	3.56398849e-02	1.37844002e-03
6.60000000e-02	3.51062313e-02	1.35223432e-03
6.62500000e-02	3.59255169e-02	1.37944524e-03
6.65000000e-02	3.49671134e-02	1.32234995e-03
6.67500000e-02	3.55003782e-02	1.33326302e-03
6.70000000e-02	3.51366791e-02	1.32618679e-03
6.72500000e-02	3.54211264e-02	1.33158479e-03
6.75000000e-02	3.41181910e-02	1.28063241e-03
6.77500000e-02	3.43610802e-02	1.27531644e-03
6.80000000e-02	3.42439028e-02	1.27253283e-03
6.82500000e-02	3.37930000e-02	1.26149484e-03
6.85000000e-02	3.32373990e-02	1.22826681e-03
6.87500000e-02	3.27890198e-02	1.19680600e-03
6.90000000e-02	3.29056808e-02	1.19364454e-03
6.92500000e-02	3.31595828e-02	1.21064926e-03
6.95000000e-02	3.32980215e-02	1.22598768e-03
6.97500000e-02	3.30868437e-02	1.20868449e-03
7.00000000e-02	3.15537957e-02	1.14949523e-03
7.02500000e-02	3.31323441e-02	1.19341159e-03
7.05000000e-02	3.25262042e-02	1.18101244e-03
7.07500000e-02	3.31521009e-02	1.20410967e-03
7.10000000e-02	3.26443565e-02	1.16880559e-03
7.12500000e-02	3.22168602e-02	1.15289379e-03
7.15000000e-02	3.19080113e-02	1.13127801e-03
7.17500000e-02	3.20116702e-02	1.13180584e-03
7.20000000e-02	3.09632678e-02	1.09597597e-03
7.22500000e-02	3.26235710e-02	1.15234027e-03
7.25000000e-02	3.10202614e-02	1.08187969e-03
7.27500000e-02	3.18578242e-02	1.12207960e-03
7.30000000e-02	3.14563481e-02	1.10876033e-03
7.32500000e-02	3.09762865e-02	1.08220962e-03
7.35000000e-02	3.08772533e-02	1.07732622e-03
7.37500000e-02	3.07905726e-02	1.06862369e-03
7.40000000e-02	3.05923562e-02	1.06778764e-03
7.42500000e-02	3.01429566e-02	1.04884575e-03
7.45000000e-02	3.04859112e-02	1.06567033e-03
7.47500000e-02	3.02236362e-02	1.04417196e-03
7.50000000e-02	3.01957145e-02	1.03750747e-03
7.52500000e-02	3.06483646e-02	1.06145141e-03
7.55000000e-02	3.06100199e-02	1.04636371e-03
7.57500000e-02	2.97675239e-02	1.00985851e-03
7.60000000e-02	3.03178846e-02	1.02441706e-03
7.62500000e-02	3.02122414e-02	1.02833543e-03
7.65000000e-02	2.98918864e-02	1.01655680e-03
7.67500000e-02	2.92023810e-02	9.91550246e-04
7.70000000e-02	3.01357684e-02	1.01612183e-03
7.72500000e-02	2.91409564e-02	1.00052417e-03
7.75000000e-02	2.98796332e-02	1.02856734e-03
7.77500000e-02	2.95990051e-02	1.03074256e-03
7.80000000e-02	2.99851185e-02	1.03327403e-03
7.82500000e-02	2.92125601e-02	1.03134468e-03
7.85000000e-02	2.95562699e-02	1.04998833e-03
7.87500000e-02	2.94118260e-02	1.03656441e-03
7.90000000e-02	3.02226401e-02	1.07402815e-03
7.92500000e-02	2.94821466e-02	1.03849331e-03
7.95000000e-02	2.91850093e-02	1.03745831e-03
7.97500000e-02	3.02028335e-02	1.07673857e-03
8.00000000e-02	2.98696222e-02	1.06062686e-03
8.02500000e-02	2.90916393e-02	1.04252155e-03
8.05000000e-02	3.00024859e-02	1.06844709e-03
8.07500000e-02	2.90029462e-02	1.04527657e-03
8.10000000e-02	2.91538870e-02	1.04599478e-03
8.12500000e-02	2.91557943e-02	1.04875091e-03
8.15000000e-02	2.93954583e-02	1.05904218e-03
8.17500000e-02	2.86608073e-02	1.04975952e-03
8.20000000e-02	2.87480298e-02	1.03453775e-03
8.22500000e-02	2.84143252e-02	1.04316866e-03
8.25000000e-02	2.85210959e-02	1.03666349e-03
8.27500000e-02	2.81287131e-02	1.01630584e-03
8.30000000e-02	2.88264595e-02	1.04058479e-03
8.32500000e-02	2.86562423e-02	1.04763373e-03
8.35000000e-02	2.85327055e-02	1.04352919e-03
8.37500000e-02	2.80085088e-02	1.00809230e-03
8.40000000e-02	2.85649961e-02	1.03324368e-03
8.42500000e-02	2.82746418e-02	1.03415224e-03
8.45000000e-02	2.87360948e-02	1.05510138e-03
8.47500000e-02	2.84860347e-02	1.04364686e-03
8.50000000e-02	2.78736296e-02	1.01373006e-03
8.52500000e-02	2.87296051e-02	1.05745387e-03
8.55000000e-02	2.77405809e-02	1.00669275e-03
8.57500000e-02	2.86155636e-02	1.05581980e-03
8.60000000e-02	2.79458223e-02	1.02070912e-03
8.62500000e-02	2.81819754e-02	1.02969741e-03
8.65000000e-02	2.78246074e-02	1.02151529e-03
8.67500000e-02	2.80803605e-02	1.02506949e-03
8.70000000e-02	2.77178131e-02	9.90790296e-04
8.72500000e-02	2.75580581e-02	9.72624297e-04
8.75000000e-02	2.68107165e-02	9.36617937e-04
8.77500000e-02	2.74636076e-02	9.58713732e-04
8.80000000e-02	2.70847262e-02	9.57131189e-04
8.82500000e-02	2.65736372e-02	9.23157589e-04
8.85000000e-02	2.64514191e-02	9.25293638e-04
8.87500000e-02	2.74283255e-02	9.26884842e-04
8.90000000e-02	2.67298994e-02	9.11894104e-04
8.92500000e-02	2.74922000e-02	9.29367235e-04
8.95000000e-02	2.73312704e-02	9.22437102e-04
8.97500000e-02	2.65177190e-02	8.87940904e-04
9.00000000e-02	2.66140231e-02	8.89622123e-04
9.02500000e-02	2.54449576e-02	8.57175389e-04
9.05000000e-02	2.61084433e-02	8.69379080e-04
9.07500000e-02	2.59418100e-02	8.66656558e-04
9.10000000e-02	2.62912122e-02	8.73240215e-04
9.12500000e-02	2.69947316e-02	8.90181196e-04
9.15000000e-02	2.63257407e-02	8.65364745e-04
9.17500000e-02	2.63589881e-02	8.71506824e-04
9.20000000e-02	2.57262755e-02	8.47877759e-04
9.22500000e-02	2.60169758e-02	8.51778868e-04
9.25000000e-02	2.56147399e-02	8.43535937e-04
9.27500000e-02	2.51412280e-02	8.26670694e-04
9.30000000e-02	2.56174872e-02	8.34188731e-04
9.32500000e-02	2.54134212e-02	8.34297881e-04
9.35000000e-02	2.59244139e-02	8.44773012e-04
9.37500000e-02	2.57261379e-02	8.38179355e-04
9.40000000e-02	2.56195203e-02	8.30585054e-04
9.42500000e-02	2.50083227e-02	8.07789549e-04
9.45000000e-02	2.56680447e-02	8.25760539e-04
9.47500000e-02	2.55115163e-02	8.23305546e-04
9.50000000e-02	2.49784470e-02	8.04546594e-04
9.52500000e-02	2.50713219e-02	8.11286975e-04
9.55000000e-02	2.54857020e-02	8.12193538e-04
9.57500000e-02	2.49280228e-02	8.01389420e-04
9.60000000e-02	2.54790053e-02	8.09555571e-04
9.62500000e-02	2.53113231e-02	8.01820300e-04
9.65000000e-02	2.48498795e-02	7.93119655e-04
9.67500000e-02	2.51102337e-02	7.96189660e-04
9.70000000e-02	2.50609142e-02	7.91271049e-04
9.72500000e-02	2.47814901e-02	7.81642011e-04
9.75000000e-02	2.47193780e-02	7.83553254e-04
9.77500000e-02	2.48734348e-02	7.82826271e-04
9.80000000e-02	2.50964646e-02	7.89468047e-04
9.82500000e-02	2.49377722e-02	7.87358235e-04
9.85000000e-02	2.49663223e-02	7.83027455e-04
9.87500000e-02	2.49945281e-02	7.83102264e-04
9.90000000e-02	2.45489590e-02	7.65549142e-04
9.92500000e-02	2.43458097e-02	7.61922657e-04
9.95000000e-02	2.44715461e-02	7.59770168e-04
9.97500000e-02	2.46519559e-02	7.65261085e-04
1.00000000e-01	2.44733132e-02	6.22370517e-04
1.00500000e-01	2.44973446e-02	5.38736987e-04
1.01000000e-01	2.42885758e-02	5.29147187e-04
1.01500000e-01	2.43093830e-02	5.28678656e-04
1.02000000e-01	2.43478061e-02	5.30328660e-04
1.02500000e-01	2.41772423e-02	5.22041990e-04
1.03000000e-01	2.41582096e-02	5.22193204e-04
1.03500000e-01	2.35853848e-02	5.08529801e-04
1.04000000e-01	2.39590752e-02	5.13942107e-04
1.04500000e-01	2.36155979e-02	5.08536346e-04
1.05000000e-01	2.39060407e-02	5.10404943e-04
1.05500000e-01	2.37335702e-02	5.02438630e-04
1.06000000e-01	2.38410343e-02	5.08510664e-04
1.06500000e-01	2.41734997e-02	5.12771969e-04
1.07000000e-01	2.38066473e-02	5.13049944e-04
1.07500000e-01	2.35657342e-02	5.13669900e-04
1.08000000e-01	2.34504955e-02	5.16195215e-04
1.08500000e-01	2.30033647e-02	5.13613884e-04
1.09000000e-01	2.31187796e-02	5.17156805e-04
1.09500000e-01	2.28375328e-02	5.13700559e-04
1.10000000e-01	2.30661452e-02	5.12413918e-04
1.10500000e-01	2.28412733e-02	4.98785553e-04
1.11000000e-01	2.33195663e-02	4.99518598e-04
1.11500000e-01	2.34394680e-02	4.99013385e-04
1.12000000e-01	2.35915225e-02	4.95600499e-04
1.12500000e-01	2.33681732e-02	4.91079414e-04
1.13000000e-01	2.29777884e-02	4.82701364e-04
1.13500000e-01	2.28701306e-02	4.78337079e-04
1.14000000e-01	2.34123200e-02	4.83466494e-04
1.14500000e-01	2.28214001e-02	4.74069611e-04
1.15000000e-01	2.29609449e-02	4.74010191e-04
1.15500000e-01	2.29599767e-02	4.72588899e-04
1.16000000e-01	2.26249274e-02	4.66153308e-04
1.16500000e-01	2.32677085e-02	4.78103257e-04
1.17000000e-01	2.30161345e-02	4.71212596e-04
1.17500000e-01	2.26533307e-02	4.63357983e-04
1.18000000e-01	2.29956434e-02	4.68111365e-04
1.18500000e-01	2.27447763e-02	4.61418379e-04
1.19000000e-01	2.27089746e-02	4.60627219e-04
1.19500000e-01	2.30778181e-02	4.66141279e-04
1.20000000e-01	2.25681042e-02	4.53874474e-04
1.20500000e-01	2.26601514e-02	4.57077787e-04
1.21000000e-01	2.25348584e-02	4.51653946e-04
1.21500000e-01	2.26281292e-02	4.54390694e-04
1.22000000e-01	2.25433033e-02	4.49417738e-04
1.22500000e-01	2.25245540e-02	4.48856957e-04
1.23000000e-01	2.28486424e-02	4.55161889e-04
1.23500000e-01	2.27788395e-02	4.52817498e-04
1.24000000e-01	2.29351382e-02	4.53947326e-04
1.24500000e-01	2.32117932e-02	4.55215804e-04
1.25000000e-01	2.35707885e-02	4.62969452e-04
1.25500000e-01	2.31956417e-02	4.54230122e-04
1.26000000e-01	2.33077001e-02	4.59435874e-04
1.26500000e-01	2.29544059e-02	4.48934157e-04
1.27000000e-01	2.27809647e-02	4.44024149e-04
1.27500000e-01	2.31880315e-02	4.53747147e-04
1.28000000e-01	2.29737751e-02	4.46478440e-04
1.28500000e-01	2.27776664e-02	4.41576855e-04
1.29000000e-01	2.31815369e-02	4.50144668e-04
1.29500000e-01	2.31602952e-02	4.48555700e-04
1.30000000e-01	2.26324860e-02	4.37906604e-04
1.30500000e-01	2.27359654e-02	4.39499146e-04
1.31000000e-01	2.30748953e-02	4.42959024e-04
1.31500000e-01	2.23881739e-02	4.30619699e-04
1.32000000e-01	2.30128451e-02	4.41895810e-04
1.32500000e-01	2.27204950e-02	4.34745883e-04
1.33000000e-01	2.30529396e-02	4.37254473e-04
1.33500000e-01	2.28345566e-02	4.31751815e-04
1.34000000e-01	2.27995134e-02	4.32852794e-04
1.34500000e-01	2.30263687e-02	4.35042053e-04
1.35000000e-01	2.26326843e-02	4.27359536e-04
1.35500000e-01	2.28509692e-02	4.29895712e-04
1.36000000e-01	2.31503099e-02	4.33127465e-04
1.36500000e-01	2.32152384e-02	4.36166151e-04
1.37000000e-01	2.27287079e-02	4.24573007e-04
1.37500000e-01	2.27357039e-02	4.25967209e-04
1.38000000e-01	2.26664423e-02	4.21562907e-04
1.38500000e-01	2.26718799e-02	4.22903657e-04
1.39000000e-01	2.24860338e-02	4.18876836e-04
1.39500000e-01	2.24396776e-02	4.16971599e-04
1.40000000e-01	2.23831786e-02	4.18815723e-04
1.40500000e-01	2.22837335e-02	4.14415478e-04
1.41000000e-01	2.18877962e-02	4.06470087e-04
1.41500000e-01	2.18647059e-02	4.05548818e-04
1.42000000e-01	2.13849733e-02	3.95539693e-04
1.42500000e-01	2.13000153e-02	3.96224913e-04
1.43000000e-01	2.15837659e-02	4.00109226e-04
1.43500000e-01	2.15023892e-02	3.97423615e-04
1.44000000e-01	2.14190633e-02	3.94872192e-04
1.44500000e-01	2.17921433e-02	3.98306809e-04
1.45000000e-01	2.19111780e-02	4.01771676e-04
1.45500000e-01	2.16908477e-02	3.97709437e-04
1.46000000e-01	2.16250787e-02	3.95248494e-04
1.46500000e-01	2.13389713e-02	3.90775078e-04
1.47000000e-01	2.11662206e-02	3.86011513e-04
1.47500000e-01	2.12816199e-02	3.88124723e-04
1.48000000e-01	2.16488680e-02	3.94041280e-04
1.48500000e-01	2.13343759e-02	3.87310029e-04
1.49000000e-01	2.14415770e-02	3.88869050e-04
1.49500000e-01	2.13965750e-02	3.86654474e-04
1.50000000e-01	2.11916260e-02	3.82034479e-04
1.50500000e-01	2.14988383e-02	3.89516614e-04
1.51000000e-01	2.14511725e-02	3.84706269e-04
1.51500000e-01	2.08857993e-02	3.75535971e-04
1.52000000e-01	2.14730473e-02	3.82561089e-04
1.52500000e-01	2.12798693e-02	3.80804744e-04
1.53000000e-01	2.13201874e-02	3.80434946e-04
1.53500000e-01	2.15677849e-02	3.83938179e-04
1.54000000e-01	2.11496016e-02	3.76060585e-04
1.54500000e-01	2.12820846e-02	3.84650667e-04
1.55000000e-01	2.12773676e-02	3.90502163e-04
1.55500000e-01	2.11199884e-02	3.89753464e-04
1.56000000e-01	2.14000852e-02	3.96803182e-04
1.56500000e-01	2.10989954e-02	3.89999379e-04
1.57000000e-01	2.09784304e-02	3.90162436e-04
1.57500000e-01	2.11331931e-02	3.87056138e-04
1.58000000e-01	2.08551374e-02	3.76757834e-04
1.58500000e-01	2.08762648e-02	3.74528533e-04
1.59000000e-01	2.10840048e-02	3.77237751e-04
1.59500000e-01	2.10555310e-02	3.74327409e-04
1.60000000e-01	2.10406141e-02	3.72875817e-04
1.60500000e-01	2.10087129e-02	3.70313185e-04
1.61000000e-01	2.06922321e-02	3.66641138e-04
1.61500000e-01	2.08890489e-02	3.66031549e-04
1.62000000e-01	2.07996436e-02	3.64531293e-04
1.62500000e-01	2.07729238e-02	3.65939865e-04
1.63000000e-01	2.07465658e-02	3.62572165e-04
1.63500000e-01	2.06224872e-02	3.63449855e-04
1.64000000e-01	2.08585978e-02	3.63660834e-04
1.64500000e-01	2.06506607e-02	3.60606038e-04
1.65000000e-01	2.06661346e-02	3.59923405e-04
1.65500000e-01	2.06709308e-02	3.59254903e-04
1.66000000e-01	2.07532047e-02	3.60039236e-04
1.66500000e-01	2.06297780e-02	3.57961337e-04
1.67000000e-01	2.08859042e-02	3.62402491e-04
1.67500000e-01	2.06531788e-02	3.56483301e-04
1.68000000e-01	2.06195415e-02	3.55061953e-04
1.68500000e-01	2.07215804e-02	3.56013164e-04
1.69000000e-01	2.10054605e-02	3.61849311e-04
1.69500000e-01	2.04418678e-02	3.50636991e-04
1.70000000e-01	2.03938377e-02	3.50338198e-04
1.70500000e-01	2.05818857e-02	3.52199099e-04
1.71000000e-01	2.06491803e-02	3.54227851e-04
1.71500000e-01	2.06387511e-02	3.51226581e-04
1.72000000e-01	2.06011536e-02	3.49700623e-04
1.72500000e-01	2.03420259e-02	3.46271346e-04
1.73000000e-01	2.06536197e-02	3.49958707e-04
1.73500000e-01	2.03852411e-02	3.44881230e-04
1.74000000e-01	2.04746145e-02	3.45404874e-04
1.74500000e-01	2.07255272e-02	3.48076895e-04
1.75000000e-01	2.04429629e-02	3.41879275e-04
1.75500000e-01	2.03500101e-02	3.40825443e-04
1.76000000e-01	2.02811560e-02	3.40371320e-04
1.76500000e-01	2.01369918e-02	3.36772886e-04
1.77000000e-01	2.05677567e-02	3.44482074e-04
1.77500000e-01	2.02126403e-02	3.38543505e-04
1.78000000e-01	2.01314136e-02	3.36094229e-04
1.78500000e-01	2.04710732e-02	3.41917000e-04
1.79000000e-01	2.05619305e-02	3.42994941e-04
1.79500000e-01	2.04280079e-02	3.40743463e-04
1.80000000e-01	2.01408463e-02	3.35532677e-04
1.80500000e-01	2.03090750e-02	3.37049466e-04
1.81000000e-01	2.04181766e-02	3.39239066e-04
1.81500000e-01	2.01928048e-02	3.34771288e-04
1.82000000e-01	2.04656370e-02	3.38994026e-04
1.82500000e-01	2.02660715e-02	3.34917256e-04
1.83000000e-01	2.03503933e-02	3.35316174e-04
1.83500000e-01	2.04259279e-02	3.36148988e-04
1.84000000e-01	2.04574212e-02	3.36157753e-04
1.84500000e-01	2.00564728e-02	3.30322880e-04
1.85000000e-01	2.03404608e-02	3.32967399e-04
1.85500000e-01	2.01099879e-02	3.29675090e-04
1.86000000e-01	2.01841315e-02	3.30825825e-04
1.86500000e-01	2.01751736e-02	3.29682753e-04
1.87000000e-01	2.01791415e-02	3.31063276e-04
1.87500000e-01	2.01836630e-02	3.29609714e-04
1.88000000e-01	2.00283231e-02	3.28375240e-04
1.88500000e-01	2.01818678e-02	3.27400615e-04
1.89000000e-01	2.00451700e-02	3.25957032e-04
1.89500000e-01	2.02091102e-02	3.27083061e-04
1.90000000e-01	2.02902095e-02	3.28616622e-04
1.90500000e-01	2.02597251e-02	3.28084902e-04
1.91000000e-01	1.98317749e-02	3.20811203e-04
1.91500000e-01	2.00369766e-02	3.23715755e-04
1.92000000e-01	1.99349451e-02	3.21075503e-04
1.92500000e-01	1.98331768e-02	3.21115179e-04
1.93000000e-01	2.00068230e-02	3.22035416e-04
1.93500000e-01	2.00016975e-02	3.21213529e-04
1.94000000e-01	1.97883191e-02	3.17932173e-04
1.94500000e-01	2.00080717e-02	3.20246271e-04
1.95000000e-01	1.99135597e-02	3.19758311e-04
1.95500000e-01	1.99612665e-02	3.18364751e-04
1.96000000e-01	1.99756979e-02	3.18580777e-04
1.96500000e-01	1.97286530e-02	3.15599970e-04
1.97000000e-01	1.96744300e-02	3.14245012e-04
1.97500000e-01	1.98081451e-02	3.14237930e-04
1.98000000e-01	1.97327664e-02	3.13296580e-04
1.98500000e-01	1.99866250e-02	3.16895219e-04
1.99000000e-01	1.98075598e-02	3.15303411e-04
1.99500000e-01	1.99679106e-02	3.16215466e-04
2.00000000e-01	2.00320872e-02	3.16904173e-04
2.00500000e-01	1.97301706e-02	3.13433660e-04
2.01000000e-01	1.97944593e-02	3.12506690e-04
2.01500000e-01	1.97527346e-02	3.11863156e-04
2.02000000e-01	1.99400305e-02	3.13780437e-04
2.02500000e-01	1.96957595e-02	3.09474850e-04
2.03000000e-01	1.96969828e-02	3.09806311e-04
2.03500000e-01	1.97008835e-02	3.09413310e-04
2.04000000e-01	1.96401648e-02	3.07878065e-04
2.04500000e-01	1.96760761e-02	3.09218215e-04
2.05000000e-01	1.98495466e-02	3.08943429e-04
2.05500000e-01	1.96374125e-02	3.07354481e-04
2.06000000e-01	1.95804459e-02	3.04946312e-04
2.06500000e-01	1.97608347e-02	3.08938795e-04
2.07000000e-01	1.94941944e-02	3.01402515e-04
2.07500000e-01	1.98170608e-02	3.07664395e-04
2.08000000e-01	1.98308072e-02	3.09221622e-04
2.08500000e-01	1.95155353e-02	3.02776123e-04
2.09000000e-01	1.97495762e-02	3.07395406e-04
2.09500000e-01	1.94693224e-02	3.00895745e-04
2.10000000e-01	1.94769861e-02	3.01631347e-04
2.10500000e-01	1.95248926e-02	3.03139352e-04
2.11000000e-01	1.91233618e-02	2.95112155e-04
2.11500000e-01	1.94442136e-02	3.01362450e-04
2.12000000e-01	1.95554732e-02	3.01005972e-04
2.12500000e-01	1.93339945e-02	2.97166059e-04
2.13000000e-01	1.95160208e-02	3.00227035e-04
2.13500000e-01	1.94028712e-02	2.97092975e-04
2.14000000e-01	1.93788953e-02	2.97903610e-04
2.14500000e-01	1.94498091e-02	2.96395409e-04
2.15000000e-01	1.91473605e-02	2.94410822e-04
2.15500000e-01	1.95763891e-02	2.96886006e-04
2.16000000e-01	1.93168552e-02	2.95250947e-04
2.16500000e-01	1.93850628e-02	2.95710198e-04
2.17000000e-01	1.95362358e-02	3.02231542e-04
2.17500000e-01	1.94282209e-02	3.03912575e-04
2.18000000e-01	1.93371922e-02	3.03821576e-04
2.18500000e-01	1.92631174e-02	3.05719456e-04
2.19000000e-01	1.93806695e-02	3.07775249e-04
2.19500000e-01	1.93614799e-02	3.08864893e-04
2.20000000e-01	1.96050257e-02	3.14647808e-04
2.20500000e-01	1.93321225e-02	3.12085560e-04
2.21000000e-01	1.93638779e-02	3.11589135e-04
2.21500000e-01	1.90759753e-02	3.09503530e-04
2.22000000e-01	1.93427745e-02	3.12828979e-04
2.22500000e-01	1.92805674e-02	3.14641433e-04
2.23000000e-01	1.92481283e-02	3.13765037e-04
2.23500000e-01	1.94019281e-02	3.18490113e-04
2.24000000e-01	1.95196454e-02	3.17560545e-04
2.24500000e-01	1.91459033e-02	3.15021197e-04
2.25000000e-01	1.94770265e-02	3.20309610e-04
2.25500000e-01	1.94506241e-02	3.19732013e-04
2.26000000e-01	1.92506274e-02	3.16751200e-04
2.26500000e-01	1.92972801e-02	3.11969958e-04
2.27000000e-01	1.92403575e-02	3.08702055e-04
2.27500000e-01	1.92945886e-02	3.07840847e-04
2.28000000e-01	1.93622795e-02	3.07723762e-04
2.28500000e-01	1.92359647e-02	3.04054245e-04
2.29000000e-01	1.91014117e-02	3.00987101e-04
2.29500000e-01	1.92858337e-02	3.02246682e-04
2.30000000e-01	1.92225952e-02	3.00324910e-04
2.30500000e-01	1.91639991e-02	2.98324106e-04
2.31000000e-01	1.90313253e-02	2.96347020e-04
2.31500000e-01	1.89380540e-02	2.93565400e-04
2.32000000e-01	1.89886008e-02	2.93985125e-04
2.32500000e-01	1.92755325e-02	2.96910908e-04
2.33000000e-01	1.90078113e-02	2.92608881e-04
2.33500000e-01	1.92711622e-02	2.95667091e-04
2.34000000e-01	1.92101334e-02	2.94209533e-04
2.34500000e-01	1.89928094e-02	2.91426414e-04
2.35000000e-01	1.87788476e-02	2.87072731e-04
2.35500000e-01	1.91092465e-02	2.91265326e-04
2.36000000e-01	1.91214060e-02	2.91450913e-04
2.36500000e-01	1.91278049e-02	2.91308511e-04
2.37000000e-01	1.92136360e-02	2.91303953e-04
2.37500000e-01	1.90789994e-02	2.90388449e-04
2.38000000e-01	1.90134026e-02	2.87523770e-04
2.38500000e-01	1.88824091e-02	2.85367742e-04
2.39000000e-01	1.88753762e-02	2.85092652e-04
2.39500000e-01	1.89521257e-02	2.86071974e-04
2.40000000e-01	1.87581900e-02	2.82341312e-04
2.40500000e-01	1.88607157e-02	2.82106943e-04
2.41000000e-01	1.85791230e-02	2.78357087e-04
2.41500000e-01	1.88249613e-02	2.80966775e-04
2.42000000e-01	1.88729438e-02	2.82093719e-04
2.42500000e-01	1.88711577e-02	2.79788877e-04
2.43000000e-01	1.88401018e-02	2.79825117e-04
2.43500000e-01	1.89801984e-02	2.82166674e-04
2.44000000e-01	1.85904786e-02	2.75358637e-04
2.44500000e-01	1.88690176e-02	2.79065377e-04
2.45000000e-01	1.86936210e-02	2.75796683e-04
2.45500000e-01	1.86280918e-02	2.75731553e-04
2.46000000e-01	1.86208072e-02	2.74944866e-04
2.46500000e-01	1.84720067e-02	2.72031792e-04
2.47000000e-01	1.88351102e-02	2.77150278e-04
2.47500000e-01	1.88288122e-02	2.74600891e-04
2.48000000e-01	1.86222228e-02	2.74961130e-04
2.48500000e-01	1.85722734e-02	2.71254204e-04
2.49000000e-01	1.87520410e-02	2.74795852e-04
2.49500000e-01	1.84262363e-02	2.69638027e-04
2.50000000e-01	1.86363287e-02	2.71379920e-04
2.50500000e-01	1.86359776e-02	2.72604217e-04
2.51000000e-01	1.87054043e-02	2.71839449e-04
2.51500000e-01	1.88469155e-02	2.74276559e-04
2.52000000e-01	1.87923892e-02	2.74142203e-04
2.52500000e-01	1.87136465e-02	2.71780878e-04
2.53000000e-01	1.83557032e-02	2.67460196e-04
2.53500000e-01	1.86112705e-02	2.70138731e-04
2.54000000e-01	1.85863182e-02	2.69087858e-04
2.54500000e-01	1.86464994e-02	2.71273393e-04
2.55000000e-01	1.85800982e-02	2.68677750e-04
2.55500000e-01	1.85984121e-02	2.69491266e-04
2.56000000e-01	1.85976070e-02	2.67909653e-04
2.56500000e-01	1.85990873e-02	2.68768610e-04
2.57000000e-01	1.86068394e-02	2.67109955e-04
2.57500000e-01	1.86834147e-02	2.68147632e-04
2.58000000e-01	1.84817486e-02	2.66202291e-04
2.58500000e-01	1.85077776e-02	2.65494690e-04
2.59000000e-01	1.88745177e-02	2.70214680e-04
2.59500000e-01	1.86451854e-02	2.66542874e-04
2.60000000e-01	1.86019789e-02	2.67022375e-04
2.60500000e-01	1.86641063e-02	2.66621222e-04
2.61000000e-01	1.85781123e-02	2.65801036e-04
2.61500000e-01	1.84180989e-02	2.63095556e-04
2.62000000e-01	1.85214582e-02	2.64276177e-04
2.62500000e-01	1.84669125e-02	2.63584458e-04
2.63000000e-01	1.86023496e-02	2.64333551e-04
2.63500000e-01	1.85823618e-02	2.62764897e-04
2.64000000e-01	1.86641441e-02	2.65343363e-04
2.64500000e-01	1.85579634e-02	2.62347777e-04
2.65000000e-01	1.84727750e-02	2.60910633e-04
2.65500000e-01	1.85349743e-02	2.61856308e-04
2.66000000e-01	1.85252621e-02	2.62687528e-04
2.66500000e-01	1.85249834e-02	2.61060283e-04
2.67000000e-01	1.83368057e-02	2.57897078e-04
2.67500000e-01	1.84898620e-02	2.59180706e-04
2.68000000e-01	1.84358678e-02	2.58900298e-04
2.68500000e-01	1.84445938e-02	2.58997310e-04
2.69000000e-01	1.81999285e-02	2.55569961e-04
2.69500000e-01	1.85813688e-02	2.60023501e-04
2.70000000e-01	1.85206158e-02	2.58257251e-04
2.70500000e-01	1.83831042e-02	2.56408015e-04
2.71000000e-01	1.83510554e-02	2.56970504e-04
2.71500000e-01	1.83522440e-02	2.55727773e-04
2.72000000e-01	1.83211569e-02	2.55148873e-04
2.72500000e-01	1.83003481e-02	2.54844910e-04
2.73000000e-01	1.84823395e-02	2.56235428e-04
2.73500000e-01	1.83149486e-02	2.54119404e-04
2.74000000e-01	1.83047604e-02	2.54320515e-04
2.74500000e-01	1.82701151e-02	2.54164203e-04
2.75000000e-01	1.84691893e-02	2.55378682e-04
2.75500000e-01	1.82276789e-02	2.52379444e-04
2.76000000e-01	1.82196248e-02	2.52431572e-04
2.76500000e-01	1.83264391e-02	2.54320434e-04
2.77000000e-01	1.83119900e-02	2.53206345e-04
2.77500000e-01	1.81949416e-02	2.51550485e-04
2.78000000e-01	1.82010999e-02	2.50803529e-04
2.78500000e-01	1.81729091e-02	2.51187157e-04
2.79000000e-01	1.83305316e-02	2.52750905e-04
2.79500000e-01	1.78538151e-02	2.45889664e-04
2.80000000e-01	1.80885546e-02	2.49221799e-04
2.80500000e-01	1.81322637e-02	2.48360129e-04
2.81000000e-01	1.81519570e-02	2.48845684e-04
2.81500000e-01	1.81704398e-02	2.49287011e-04
2.82000000e-01	1.81597936e-02	2.48795287e-04
2.82500000e-01	1.78714798e-02	2.45439658e-04
2.83000000e-01	1.82179109e-02	2.48926618e-04
2.83500000e-01	1.83331205e-02	2.50912558e-04
2.84000000e-01	1.78023186e-02	2.43546895e-04
2.84500000e-01	1.79436863e-02	2.45122576e-04
2.85000000e-01	1.79907076e-02	2.45342024e-04
2.85500000e-01	1.80591633e-02	2.45204119e-04
2.86000000e-01	1.78276432e-02	2.42948955e-04
2.86500000e-01	1.80362939e-02	2.45072277e-04
2.87000000e-01	1.79845915e-02	2.44849228e-04
2.87500000e-01	1.81460597e-02	2.44853109e-04
2.88000000e-01	1.78657288e-02	2.41570807e-04
2.88500000e-01	1.78554365e-02	2.42636694e-04
2.89000000e-01	1.79840779e-02	2.43084816e-04
2.89500000e-01	1.78947117e-02	2.41570581e-04
2.90000000e-01	1.77516991e-02	2.39883475e-04
2.90500000e-01	1.77412228e-02	2.39547106e-04
2.91000000e-01	1.78728306e-02	2.40644144e-04
2.91500000e-01	1.81610261e-02	2.43273428e-04
2.92000000e-01	1.79500923e-02	2.41924900e-04
2.92500000e-01	1.78981304e-02	2.40040987e-04
2.93000000e-01	1.79196959e-02	2.39742823e-04
2.93500000e-01	1.77449475e-02	2.37231352e-04
2.94000000e-01	1.78548644e-02	2.39165888e-04
2.94500000e-01	1.78528984e-02	2.40230951e-04
2.95000000e-01	1.77578263e-02	2.36924863e-04
2.95500000e-01	1.76448347e-02	2.36086928e-04
2.96000000e-01	1.77575932e-02	2.38175915e-04
2.96500000e-01	1.78356147e-02	2.38080171e-04
2.97000000e-01	1.78122045e-02	2.38473967e-04
2.97500000e-01	1.77101081e-02	2.35657941e-04
2.98000000e-01	1.77442194e-02	2.36917935e-04
2.98500000e-01	1.77539313e-02	2.37139332e-04
2.99000000e-01	1.77072477e-02	2.35426274e-04
2.99500000e-01	1.78371378e-02	2.37519568e-04
3.00000000e-01	1.75228481e-02	2.33538368e-04
3.00500000e-01	1.76574961e-02	2.34269984e-04
3.01000000e-01	1.76184235e-02	2.32955305e-04
3.01500000e-01	1.76732143e-02	2.33994923e-04
3.02000000e-01	1.73871848e-02	2.29810603e-04
3.02500000e-01	1.77522330e-02	2.35016136e-04
3.03000000e-01	1.74982499e-02	2.31422905e-04
3.03500000e-01	1.74531454e-02	2.30777924e-04
3.04000000e-01	1.76393609e-02	2.32946779e-04
3.04500000e-01	1.74723097e-02	2.30353273e-04
3.05000000e-01	1.76151374e-02	2.32691066e-04
3.05500000e-01	1.75505797e-02	2.31006896e-04
3.06000000e-01	1.73956272e-02	2.27440124e-04
3.06500000e-01	1.76729190e-02	2.32058627e-04
3.07000000e-01	1.76502211e-02	2.30631502e-04
3.07500000e-01	1.76181650e-02	2.31358219e-04
3.08000000e-01	1.73199625e-02	2.27322401e-04
3.08500000e-01	1.74800796e-02	2.29413137e-04
3.09000000e-01	1.74607954e-02	2.28767283e-04
3.09500000e-01	1.74285844e-02	2.28187399e-04
3.10000000e-01	1.75837401e-02	2.30050049e-04
3.10500000e-01	1.73312483e-02	2.26588990e-04
3.11000000e-01	1.76259643e-02	2.29611551e-04
3.11500000e-01	1.76773244e-02	2.30459533e-04
3.12000000e-01	1.74150173e-02	2.27235914e-04
3.12500000e-01	1.73477956e-02	2.25791792e-04
3.13000000e-01	1.75458996e-02	2.28154087e-04
3.13500000e-01	1.75121758e-02	2.27748102e-04
3.14000000e-01	1.74597969e-02	2.26994288e-04
3.14500000e-01	1.72663778e-02	2.23747976e-04
3.15000000e-01	1.73185665e-02	2.25075819e-04
3.15500000e-01	1.74983163e-02	2.27668227e-04
3.16000000e-01	1.72539592e-02	2.23964827e-04
3.16500000e-01	1.73838915e-02	2.25170997e-04
3.17000000e-01	1.72833577e-02	2.23668021e-04
3.17500000e-01	1.73622948e-02	2.24234321e-04
3.18000000e-01	1.73654128e-02	2.24265031e-04
3.18500000e-01	1.73758006e-02	2.24728044e-04
3.19000000e-01	1.73640468e-02	2.24131766e-04
3.19500000e-01	1.73268334e-02	2.23250126e-04
3.20000000e-01	1.73484307e-02	2.23268688e-04
3.20500000e-01	1.74565895e-02	2.25209790e-04
3.21000000e-01	1.73091192e-02	2.22016878e-04
3.21500000e-01	1.70712838e-02	2.20154788e-04
3.22000000e-01	1.72991423e-02	2.21792453e-04
3.22500000e-01	1.74919906e-02	2.24257197e-04
3.23000000e-01	1.71168221e-02	2.19222008e-04
3.23500000e-01	1.73453701e-02	2.21856055e-04
3.24000000e-01	1.72469072e-02	2.20238597e-04
3.24500000e-01	1.72150546e-02	2.20127936e-04
3.25000000e-01	1.72347709e-02	2.19652860e-04
3.25500000e-01	1.73270440e-02	2.21136247e-04
3.26000000e-01	1.73205042e-02	2.20952648e-04
3.26500000e-01	1.71439894e-02	2.18491687e-04
3.27000000e-01	1.69879445e-02	2.16913553e-04
3.27500000e-01	1.70075120e-02	2.16366132e-04
3.28000000e-01	1.72864375e-02	2.20240267e-04
3.28500000e-01	1.70351607e-02	2.16968011e-04
3.29000000e-01	1.70867612e-02	2.17186498e-04
3.29500000e-01	1.71982941e-02	2.18588073e-04
3.30000000e-01	1.71811288e-02	2.16891394e-04
3.30500000e-01	1.70101671e-02	2.15876629e-04
3.31000000e-01	1.69584710e-02	2.14989560e-04
3.31500000e-01	1.72982484e-02	2.19219343e-04
3.32000000e-01	1.71768070e-02	2.17618107e-04
3.32500000e-01	1.70037028e-02	2.14673548e-04
3.33000000e-01	1.70612016e-02	2.16442156e-04
3.33500000e-01	1.70211840e-02	2.14196836e-04
3.34000000e-01	1.70477743e-02	2.15244413e-04
3.34500000e-01	1.69213704e-02	2.14375013e-04
3.35000000e-01	1.72286408e-02	2.16281654e-04
3.35500000e-01	1.71255658e-02	2.15362386e-04
3.36000000e-01	1.68981938e-02	2.12425067e-04
3.36500000e-01	1.68647853e-02	2.12644697e-04
3.37000000e-01	1.70347314e-02	2.14529369e-04
3.37500000e-01	1.69626528e-02	2.13408760e-04
3.38000000e-01	1.72061391e-02	2.16071724e-04
3.38500000e-01	1.69245647e-02	2.11587822e-04
3.39000000e-01	1.69435697e-02	2.13401269e-04
3.39500000e-01	1.68217131e-02	2.11473553e-04
3.40000000e-01	1.68321720e-02	2.10575888e-04
3.40500000e-01	1.69078222e-02	2.10748527e-04
3.41000000e-01	1.68765018e-02	2.10485547e-04
3.41500000e-01	1.69153891e-02	2.11252961e-04
3.42000000e-01	1.68769218e-02	2.10259755e-04
3.42500000e-01	1.67613240e-02	2.08742538e-04
3.43000000e-01	1.67320683e-02	2.09278511e-04
3.43500000e-01	1.70007943e-02	2.10214768e-04
3.44000000e-01	1.67092671e-02	2.08208310e-04
3.44500000e-01	1.69049294e-02	2.10196720e-04
3.45000000e-01	1.68434342e-02	2.09428967e-04
3.45500000e-01	1.69086183e-02	2.09586693e-04
3.46000000e-01	1.68399928e-02	2.08670061e-04
3.46500000e-01	1.67981871e-02	2.07995709e-04
3.47000000e-01	1.68408877e-02	2.08696444e-04
3.47500000e-01	1.67930769e-02	2.07815001e-04
3.48000000e-01	1.67306047e-02	2.07108200e-04
3.48500000e-01	1.67144715e-02	2.07392170e-04
3.49000000e-01	1.67322516e-02	2.06171730e-04
3.49500000e-01	1.67049935e-02	2.06596169e-04
3.50000000e-01	1.67526949e-02	1.68404488e-04
3.51000000e-01	1.67047017e-02	1.45754654e-04
3.52000000e-01	1.66823929e-02	1.45100178e-04
3.53000000e-01	1.68665621e-02	1.45864568e-04
3.54000000e-01	1.66270631e-02	1.44211895e-04
3.55000000e-01	1.65622812e-02	1.43780816e-04
3.56000000e-01	1.66266073e-02	1.44647578e-04
3.57000000e-01	1.65415848e-02	1.46231994e-04
3.58000000e-01	1.64702601e-02	1.47425157e-04
3.59000000e-01	1.64971966e-02	1.48644963e-04
3.60000000e-01	1.65364572e-02	1.49949856e-04
3.61000000e-01	1.64107049e-02	1.49268510e-04
3.62000000e-01	1.65623783e-02	1.51524602e-04
3.63000000e-01	1.64972638e-02	1.51213222e-04
3.64000000e-01	1.63135762e-02	1.50331221e-04
3.65000000e-01	1.62351718e-02	1.50225955e-04
3.66000000e-01	1.63060213e-02	1.48865960e-04
3.67000000e-01	1.63808964e-02	1.47239909e-04
3.68000000e-01	1.63738323e-02	1.46599876e-04
3.69000000e-01	1.64088628e-02	1.45928522e-04
3.70000000e-01	1.64436774e-02	1.45594238e-04
3.71000000e-01	1.64780656e-02	1.47398997e-04
3.72000000e-01	1.62876346e-02	1.47051999e-04
3.73000000e-01	1.63979213e-02	1.48461730e-04
3.74000000e-01	1.62054518e-02	1.46687975e-04
3.75000000e-01	1.62808404e-02	1.47594001e-04
3.76000000e-01	1.62804637e-02	1.47295799e-04
3.77000000e-01	1.62340235e-02	1.47135146e-04
3.78000000e-01	1.62870925e-02	1.47520797e-04
3.79000000e-01	1.61691273e-02	1.46653444e-04
3.80000000e-01	1.62152037e-02	1.46183378e-04
3.81000000e-01	1.62112010e-02	1.46593600e-04
3.82000000e-01	1.61509046e-02	1.46084787e-04
3.83000000e-01	1.60287493e-02	1.45109298e-04
3.84000000e-01	1.59738398e-02	1.44610802e-04
3.85000000e-01	1.61440413e-02	1.46507302e-04
3.86000000e-01	1.60152058e-02	1.44571950e-04
3.87000000e-01	1.61218775e-02	1.45546704e-04
3.88000000e-01	1.59144205e-02	1.44006336e-04
3.89000000e-01	1.59787127e-02	1.44282677e-04
3.90000000e-01	1.60345390e-02	1.44374927e-04
3.91000000e-01	1.60041400e-02	1.44291532e-04
3.92000000e-01	1.60301442e-02	1.44285511e-04
3.93000000e-01	1.58560771e-02	1.43024197e-04
3.94000000e-01	1.59120952e-02	1.43255419e-04
3.95000000e-01	1.59416732e-02	1.44012347e-04
3.96000000e-01	1.58612513e-02	1.43085308e-04
3.97000000e-01	1.58847324e-02	1.42904301e-04
3.98000000e-01	1.57800583e-02	1.42582336e-04
3.99000000e-01	1.58488368e-02	1.43242206e-04
4.00000000e-01	1.58100719e-02	1.43018274e-04
4.01000000e-01	1.57893396e-02	1.42389166e-04
4.02000000e-01	1.58247210e-02	1.42547182e-04
4.03000000e-01	1.57732280e-02	1.42059128e-04
4.04000000e-01	1.57720571e-02	1.42418077e-04
4.05000000e-01	1.57737606e-02	1.42135073e-04
4.06000000e-01	1.57631391e-02	1.42220237e-04
4.07000000e-01	1.58490344e-02	1.42994205e-04
4.08000000e-01	1.57417195e-02	1.41794342e-04
4.09000000e-01	1.56390018e-02	1.40913173e-04
4.10000000e-01	1.57303728e-02	1.41720811e-04
4.11000000e-01	1.57652315e-02	1.41809845e-04
4.12000000e-01	1.57070973e-02	1.41479317e-04
4.13000000e-01	1.56870972e-02	1.41099697e-04
4.14000000e-01	1.54792159e-02	1.39214663e-04
4.15000000e-01	1.56536036e-02	1.40579514e-04
4.16000000e-01	1.57036626e-02	1.40729875e-04
4.17000000e-01	1.56800155e-02	1.40414499e-04
4.18000000e-01	1.55808523e-02	1.41466390e-04
4.19000000e-01	1.55970770e-02	1.43336099e-04
4.20000000e-01	1.56751635e-02	1.44467594e-04
4.21000000e-01	1.57280233e-02	1.45632932e-04
4.22000000e-01	1.57149104e-02	1.46192762e-04
4.23000000e-01	1.55269214e-02	1.45008108e-04
4.24000000e-01	1.56091462e-02	1.46299948e-04
4.25000000e-01	1.56703549e-02	1.46715909e-04
4.26000000e-01	1.56955495e-02	1.46867500e-04
4.27000000e-01	1.55794358e-02	1.46370643e-04
4.28000000e-01	1.55814070e-02	1.46498105e-04
4.29000000e-01	1.56961501e-02	1.47550555e-04
4.30000000e-01	1.55613486e-02	1.46367853e-04
4.31000000e-01	1.56123301e-02	1.46569405e-04
4.32000000e-01	1.55054959e-02	1.45452029e-04
4.33000000e-01	1.55497421e-02	1.46401382e-04
4.34000000e-01	1.56361008e-02	1.47312083e-04
4.35000000e-01	1.54962139e-02	1.46309918e-04
4.36000000e-01	1.54033774e-02	1.45032237e-04
4.37000000e-01	1.55181605e-02	1.46420830e-04
4.38000000e-01	1.53122115e-02	1.45119431e-04
4.39000000e-01	1.56965424e-02	1.48467277e-04
4.40000000e-01	1.54881473e-02	1.46872123e-04
4.41000000e-01	1.55203323e-02	1.47436237e-04
4.42000000e-01	1.54708998e-02	1.47364062e-04
4.43000000e-01	1.56204545e-02	1.48803822e-04
4.44000000e-01	1.54486623e-02	1.47618883e-04
4.45000000e-01	1.54349509e-02	1.47235290e-04
4.46000000e-01	1.53001887e-02	1.46310892e-04
4.47000000e-01	1.52755657e-02	1.46499655e-04
4.48000000e-01	1.53968272e-02	1.47103018e-04
4.49000000e-01	1.54563692e-02	1.48324726e-04
4.50000000e-01	1.54025991e-02	1.47746893e-04
4.51000000e-01	1.53348888e-02	1.47292107e-04
4.52000000e-01	1.54316437e-02	1.48413397e-04
4.53000000e-01	1.53604813e-02	1.47540318e-04
4.54000000e-01	1.54103844e-02	1.48314133e-04
4.55000000e-01	1.53960941e-02	1.48440540e-04
4.56000000e-01	1.53248180e-02	1.47908603e-04
4.57000000e-01	1.53819756e-02	1.48349890e-04
4.58000000e-01	1.52382290e-02	1.47672221e-04
4.59000000e-01	1.51686899e-02	1.46957929e-04
4.60000000e-01	1.53734984e-02	1.48883384e-04
4.61000000e-01	1.52219664e-02	1.47742448e-04
4.62000000e-01	1.53013929e-02	1.48338633e-04
4.63000000e-01	1.53018983e-02	1.48713611e-04
4.64000000e-01	1.52711723e-02	1.48359439e-04
4.65000000e-01	1.52429783e-02	1.48144124e-04
4.66000000e-01	1.53973802e-02	1.49668190e-04
4.67000000e-01	1.51979113e-02	1.48222176e-04
4.68000000e-01	1.51348363e-02	1.47562952e-04
4.69000000e-01	1.52470390e-02	1.48366849e-04
4.70000000e-01	1.51608291e-02	1.48130490e-04
4.71000000e-01	1.50841434e-02	1.46950133e-04
4.72000000e-01	1.50612500e-02	1.46771128e-04
4.73000000e-01	1.51289081e-02	1.47356420e-04
4.74000000e-01	1.50884320e-02	1.46909452e-04
4.75000000e-01	1.52553939e-02	1.48713678e-04
4.76000000e-01	1.50549577e-02	1.46957644e-04
4.77000000e-01	1.51948120e-02	1.48269091e-04
4.78000000e-01	1.50629887e-02	1.46895302e-04
4.79000000e-01	1.50990887e-02	1.47273416e-04
4.80000000e-01	1.50444707e-02	1.46764997e-04
4.81000000e-01	1.50318954e-02	1.46604650e-04
4.82000000e-01	1.50677345e-02	1.47519562e-04
4.83000000e-01	1.48903789e-02	1.45821543e-04
4.84000000e-01	1.50400225e-02	1.47222895e-04
4.85000000e-01	1.48589116e-02	1.45724378e-04
4.86000000e-01	1.50137640e-02	1.47408505e-04
4.87000000e-01	1.49148083e-02	1.46485060e-04
4.88000000e-01	1.49902470e-02	1.47021241e-04
4.89000000e-01	1.49271398e-02	1.46865300e-04
4.90000000e-01	1.50273784e-02	1.47774655e-04
4.91000000e-01	1.48443276e-02	1.46010112e-04
4.92000000e-01	1.49126366e-02	1.46994221e-04
4.93000000e-01	1.48914608e-02	1.46491937e-04
4.94000000e-01	1.50356222e-02	1.47804197e-04
4.95000000e-01	1.49797129e-02	1.48412718e-04
4.96000000e-01	1.50127165e-02	1.53343586e-04
4.97000000e-01	1.49368471e-02	1.55050950e-04
4.98000000e-01	1.48290105e-02	1.57009091e-04
4.99000000e-01	1.47402151e-02	1.57987643e-04
5.00000000e-01	1.48578270e-02	1.60831864e-04
5.01000000e-01	1.48901654e-02	1.62258874e-04
5.02000000e-01	1.49658075e-02	1.64719170e-04
5.03000000e-01	1.48784306e-02	1.65152113e-04
5.04000000e-01	1.48859828e-02	1.66289232e-04
5.05000000e-01	1.49933686e-02	1.65374712e-04
5.06000000e-01	1.50541118e-02	1.61894937e-04
5.07000000e-01	1.47816084e-02	1.57257683e-04
5.08000000e-01	1.49063849e-02	1.57648020e-04
5.09000000e-01	1.49427524e-02	1.57776171e-04
5.10000000e-01	1.47514784e-02	1.55363551e-04
5.11000000e-01	1.48815647e-02	1.56289135e-04
5.12000000e-01	1.49940697e-02	1.57258889e-04
5.13000000e-01	1.48626926e-02	1.55125598e-04
5.14000000e-01	1.47079084e-02	1.53719656e-04
5.15000000e-01	1.47533147e-02	1.53284030e-04
5.16000000e-01	1.47783213e-02	1.53367586e-04
5.17000000e-01	1.47106601e-02	1.53023688e-04
5.18000000e-01	1.48525806e-02	1.53745276e-04
5.19000000e-01	1.47247042e-02	1.51500543e-04
5.20000000e-01	1.48710459e-02	1.52976939e-04
5.21000000e-01	1.47864941e-02	1.51880109e-04
5.22000000e-01	1.47548207e-02	1.51408144e-04
5.23000000e-01	1.46570090e-02	1.50124132e-04
5.24000000e-01	1.45569306e-02	1.49886275e-04
5.25000000e-01	1.46698468e-02	1.50468734e-04
5.26000000e-01	1.46669382e-02	1.50785525e-04
5.27000000e-01	1.46043630e-02	1.49857951e-04
5.28000000e-01	1.47629297e-02	1.51559063e-04
5.29000000e-01	1.46013308e-02	1.50053611e-04
5.30000000e-01	1.45605384e-02	1.49844346e-04
5.31000000e-01	1.45759737e-02	1.50181925e-04
5.32000000e-01	1.46094946e-02	1.50474900e-04
5.33000000e-01	1.47651897e-02	1.51939060e-04
5.34000000e-01	1.46800201e-02	1.50690058e-04
5.35000000e-01	1.47049029e-02	1.50930916e-04
5.36000000e-01	1.44726673e-02	1.48737634e-04
5.37000000e-01	1.44974216e-02	1.49011139e-04
5.38000000e-01	1.45932966e-02	1.49349009e-04
5.39000000e-01	1.45500339e-02	1.49183005e-04
5.40000000e-01	1.45293506e-02	1.49296448e-04
5.41000000e-01	1.46611543e-02	1.50099817e-04
5.42000000e-01	1.44944568e-02	1.49019334e-04
5.43000000e-01	1.45152844e-02	1.49045600e-04
5.44000000e-01	1.43382069e-02	1.47316942e-04
5.45000000e-01	1.46188123e-02	1.49870180e-04
5.46000000e-01	1.45035611e-02	1.49267143e-04
5.47000000e-01	1.44496860e-02	1.48765004e-04
5.48000000e-01	1.43644137e-02	1.47850229e-04
5.49000000e-01	1.43990940e-02	1.47309244e-04
5.50000000e-01	1.44913972e-02	1.48486734e-04
5.51000000e-01	1.44327911e-02	1.47966578e-04
5.52000000e-01	1.43800249e-02	1.47315588e-04
5.53000000e-01	1.43872270e-02	1.46926755e-04
5.54000000e-01	1.44173823e-02	1.47121000e-04
5.55000000e-01	1.45539135e-02	1.48521983e-04
5.56000000e-01	1.43091071e-02	1.46468784e-04
5.57000000e-01	1.42956849e-02	1.46380396e-04
5.58000000e-01	1.43193223e-02	1.46167682e-04
5.59000000e-01	1.42406976e-02	1.45571450e-04
5.60000000e-01	1.42814650e-02	1.46339830e-04
5.61000000e-01	1.43638231e-02	1.46477568e-04
5.62000000e-01	1.43085664e-02	1.46272010e-04
5.63000000e-01	1.42108589e-02	1.45271084e-04
5.64000000e-01	1.42642558e-02	1.45391371e-04
5.65000000e-01	1.42629486e-02	1.45417747e-04
5.66000000e-01	1.41582512e-02	1.44540526e-04
5.67000000e-01	1.41310073e-02	1.44787435e-04
5.68000000e-01	1.41589878e-02	1.45255147e-04
5.69000000e-01	1.41844618e-02	1.45020074e-04
5.70000000e-01	1.41720100e-02	1.44660881e-04
5.71000000e-01	1.41823072e-02	1.45160389e-04
5.72000000e-01	1.42602643e-02	1.45824951e-04
5.73000000e-01	1.41872246e-02	1.45301748e-04
5.74000000e-01	1.42574324e-02	1.45710228e-04
5.75000000e-01	1.41694358e-02	1.45278160e-04
5.76000000e-01	1.39959439e-02	1.43415643e-04
5.77000000e-01	1.41506649e-02	1.44915510e-04
5.78000000e-01	1.41100455e-02	1.44949349e-04
5.79000000e-01	1.39669086e-02	1.43105416e-04
5.80000000e-01	1.39611347e-02	1.43189852e-04
5.81000000e-01	1.41474650e-02	1.44888803e-04
5.82000000e-01	1.40851575e-02	1.44112468e-04
5.83000000e-01	1.40467173e-02	1.44452593e-04
5.84000000e-01	1.40928827e-02	1.44318176e-04
5.85000000e-01	1.40292680e-02	1.43440794e-04
5.86000000e-01	1.41838279e-02	1.45658412e-04
5.87000000e-01	1.40181261e-02	1.44211617e-04
5.88000000e-01	1.39244028e-02	1.42960479e-04
5.89000000e-01	1.40349840e-02	1.44349034e-04
5.90000000e-01	1.39817004e-02	1.43734823e-04
5.91000000e-01	1.39042911e-02	1.43048615e-04
5.92000000e-01	1.40385945e-02	1.43893479e-04
5.93000000e-01	1.39606551e-02	1.43787389e-04
5.94000000e-01	1.40672441e-02	1.44591058e-04
5.95000000e-01	1.39681294e-02	1.43526075e-04
5.96000000e-01	1.38097609e-02	1.42777713e-04
5.97000000e-01	1.37892310e-02	1.41858619e-04
5.98000000e-01	1.39578594e-02	1.43576285e-04
5.99000000e-01	1.38513894e-02	1.42746289e-04
6.00000000e-01	1.38194367e-02	1.41882957e-04
6.01000000e-01	1.40638307e-02	1.44433090e-04
6.02000000e-01	1.38397096e-02	1.42245358e-04
6.03000000e-01	1.38593630e-02	1.42890327e-04
6.04000000e-01	1.40244527e-02	1.44040259e-04
6.05000000e-01	1.38969799e-02	1.43460618e-04
6.06000000e-01	1.38795257e-02	1.43072416e-04
6.07000000e-01	1.38216802e-02	1.42301098e-04
6.08000000e-01	1.38660738e-02	1.43057398e-04
6.09000000e-01	1.39047375e-02	1.43147675e-04
6.10000000e-01	1.38685677e-02	1.42953483e-04
6.11000000e-01	1.37948001e-02	1.42289893e-04
6.12000000e-01	1.37599233e-02	1.41804573e-04
6.13000000e-01	1.37664037e-02	1.42420366e-04
6.14000000e-01	1.37274871e-02	1.42237868e-04
6.15000000e-01	1.38337101e-02	1.42430401e-04
6.16000000e-01	1.37923118e-02	1.42507286e-04
6.17000000e-01	1.38371252e-02	1.42638588e-04
6.18000000e-01	1.37583153e-02	1.41643919e-04
6.19000000e-01	1.38341749e-02	1.42334854e-04
6.20000000e-01	1.36846059e-02	1.41054726e-04
6.21000000e-01	1.38221321e-02	1.42239462e-04
6.22000000e-01	1.35356602e-02	1.39360712e-04
6.23000000e-01	1.37984520e-02	1.41295135e-04
6.24000000e-01	1.38431142e-02	1.41713031e-04
6.25000000e-01	1.36458870e-02	1.39782530e-04
6.26000000e-01	1.36564242e-02	1.39512048e-04
6.27000000e-01	1.37779252e-02	1.41205756e-04
6.28000000e-01	1.35448086e-02	1.38509587e-04
6.29000000e-01	1.37476387e-02	1.40778240e-04
6.30000000e-01	1.36375694e-02	1.39543635e-04
6.31000000e-01	1.35815156e-02	1.39182374e-04
6.32000000e-01	1.37229107e-02	1.40583468e-04
6.33000000e-01	1.36673017e-02	1.40286329e-04
6.34000000e-01	1.36712550e-02	1.43555692e-04
6.35000000e-01	1.36482325e-02	1.47761573e-04
6.36000000e-01	1.37304847e-02	1.51204137e-04
6.37000000e-01	1.38663171e-02	1.55179847e-04
6.38000000e-01	1.37422480e-02	1.55707671e-04
6.39000000e-01	1.38534890e-02	1.58556609e-04
6.40000000e-01	1.36203526e-02	1.57424657e-04
6.41000000e-01	1.36284166e-02	1.59534613e-04
6.42000000e-01	1.38071426e-02	1.63838441e-04
6.43000000e-01	1.34537717e-02	1.59673561e-04
6.44000000e-01	1.37182002e-02	1.56369549e-04
6.45000000e-01	1.36509476e-02	1.53723904e-04
6.46000000e-01	1.37372261e-02	1.53328214e-04
6.47000000e-01	1.36488340e-02	1.51495493e-04
6.48000000e-01	1.37455381e-02	1.51484120e-04
6.49000000e-01	1.37700394e-02	1.50859770e-04
6.50000000e-01	1.38023702e-02	1.50013756e-04
6.51000000e-01	1.37106697e-02	1.48472537e-04
6.52000000e-01	1.38271396e-02	1.49194149e-04
6.53000000e-01	1.36887058e-02	1.47379024e-04
6.54000000e-01	1.36721669e-02	1.47109176e-04
6.55000000e-01	1.37652070e-02	1.47927844e-04
6.56000000e-01	1.35597626e-02	1.45159774e-04
6.57000000e-01	1.37545361e-02	1.46830441e-04
6.58000000e-01	1.36560485e-02	1.46204119e-04
6.59000000e-01	1.37266890e-02	1.46252596e-04
6.60000000e-01	1.37521831e-02	1.46799052e-04
6.61000000e-01	1.36114049e-02	1.44758590e-04
6.62000000e-01	1.36579829e-02	1.45931723e-04
6.63000000e-01	1.36269211e-02	1.45525068e-04
6.64000000e-01	1.35664386e-02	1.44537470e-04
6.65000000e-01	1.34957597e-02	1.43732699e-04
6.66000000e-01	1.36800080e-02	1.45345060e-04
6.67000000e-01	1.34636633e-02	1.43252205e-04
6.68000000e-01	1.35892720e-02	1.44594824e-04
6.69000000e-01	1.36804389e-02	1.45232563e-04
6.70000000e-01	1.36076125e-02	1.44019594e-04
6.71000000e-01	1.35204278e-02	1.43573161e-04
6.72000000e-01	1.37491638e-02	1.45526577e-04
6.73000000e-01	1.34576169e-02	1.42653553e-04
6.74000000e-01	1.35129221e-02	1.43666527e-04
6.75000000e-01	1.34567584e-02	1.42851835e-04
6.76000000e-01	1.34743829e-02	1.42704181e-04
6.77000000e-01	1.34595784e-02	1.42631431e-04
6.78000000e-01	1.34990423e-02	1.43016758e-04
6.79000000e-01	1.35440021e-02	1.43426862e-04
6.80000000e-01	1.34652317e-02	1.42588192e-04
6.81000000e-01	1.32934179e-02	1.41051522e-04
6.82000000e-01	1.34080460e-02	1.42141614e-04
6.83000000e-01	1.34557169e-02	1.42334360e-04
6.84000000e-01	1.34086509e-02	1.41928140e-04
6.85000000e-01	1.34317478e-02	1.41943075e-04
6.86000000e-01	1.35593273e-02	1.43586432e-04
6.87000000e-01	1.35342167e-02	1.43083832e-04
6.88000000e-01	1.34514804e-02	1.42574001e-04
6.89000000e-01	1.34376280e-02	1.41514420e-04
6.90000000e-01	1.34700069e-02	1.42360377e-04
6.91000000e-01	1.33727044e-02	1.41656501e-04
6.92000000e-01	1.34004142e-02	1.41746132e-04
6.93000000e-01	1.33101758e-02	1.40745448e-04
6.94000000e-01	1.34942844e-02	1.42420073e-04
6.95000000e-01	1.31983234e-02	1.39660008e-04
6.96000000e-01	1.33787763e-02	1.41248657e-04
6.97000000e-01	1.34633521e-02	1.42328667e-04
6.98000000e-01	1.33833393e-02	1.41562284e-04
6.99000000e-01	1.33110980e-02	1.41064882e-04
7.00000000e-01	1.31257773e-02	1.39377738e-04
7.01000000e-01	1.32941907e-02	1.40790938e-04
7.02000000e-01	1.31325401e-02	1.39265331e-04
7.03000000e-01	1.32121633e-02	1.40007487e-04
7.04000000e-01	1.32648548e-02	1.41008063e-04
7.05000000e-01	1.32691461e-02	1.40551751e-04
7.06000000e-01	1.32666713e-02	1.40939282e-04
7.07000000e-01	1.30787725e-02	1.38037516e-04
7.08000000e-01	1.32755329e-02	1.40162073e-04
7.09000000e-01	1.30958955e-02	1.38621331e-04
7.10000000e-01	1.31881535e-02	1.38881073e-04
7.11000000e-01	1.30981264e-02	1.38449277e-04
7.12000000e-01	1.31425669e-02	1.39066212e-04
7.13000000e-01	1.31409716e-02	1.39324998e-04
7.14000000e-01	1.30304682e-02	1.37646980e-04
7.15000000e-01	1.31260563e-02	1.39219862e-04
7.16000000e-01	1.30919056e-02	1.38183908e-04
7.17000000e-01	1.31784750e-02	1.38935087e-04
7.18000000e-01	1.30008035e-02	1.37540194e-04
7.19000000e-01	1.30752757e-02	1.38886421e-04
7.20000000e-01	1.29264610e-02	1.36733383e-04
7.21000000e-01	1.29881858e-02	1.37758288e-04
7.22000000e-01	1.30972339e-02	1.38800805e-04
7.23000000e-01	1.30075787e-02	1.37552384e-04
7.24000000e-01	1.30167983e-02	1.37461487e-04
7.25000000e-01	1.30661200e-02	1.38280664e-04
7.26000000e-01	1.29752561e-02	1.37106452e-04
7.27000000e-01	1.29332356e-02	1.37383092e-04
7.28000000e-01	1.29673445e-02	1.37221316e-04
7.29000000e-01	1.30562222e-02	1.37882689e-04
7.30000000e-01	1.29757084e-02	1.37411516e-04
7.31000000e-01	1.29995763e-02	1.37940060e-04
7.32000000e-01	1.28560756e-02	1.36242971e-04
7.33000000e-01	1.29436977e-02	1.37360073e-04
7.34000000e-01	1.28950471e-02	1.36502847e-04
7.35000000e-01	1.28559843e-02	1.36245370e-04
7.36000000e-01	1.29356126e-02	1.35751086e-04
7.37000000e-01	1.28788113e-02	1.35825850e-04
7.38000000e-01	1.28619863e-02	1.35343996e-04
7.39000000e-01	1.28361256e-02	1.34560871e-04
7.40000000e-01	1.27011168e-02	1.33609085e-04
7.41000000e-01	1.27440289e-02	1.33817495e-04
7.42000000e-01	1.29174872e-02	1.35528419e-04
7.43000000e-01	1.28497502e-02	1.34947943e-04
7.44000000e-01	1.28269191e-02	1.35015396e-04
7.45000000e-01	1.28577437e-02	1.34925580e-04
7.46000000e-01	1.28372558e-02	1.34403073e-04
7.47000000e-01	1.28643682e-02	1.34677422e-04
7.48000000e-01	1.29023560e-02	1.34994412e-04
7.49000000e-01	1.28026254e-02	1.33926343e-04
7.50000000e-01	1.27076241e-02	1.33009321e-04
7.51000000e-01	1.28875239e-02	1.34707560e-04
7.52000000e-01	1.29851471e-02	1.36128071e-04
7.53000000e-01	1.28083452e-02	1.34063048e-04
7.54000000e-01	1.29167019e-02	1.35013429e-04
7.55000000e-01	1.27312658e-02	1.33666869e-04
7.56000000e-01	1.28998672e-02	1.34682644e-04
7.57000000e-01	1.26480840e-02	1.32501348e-04
7.58000000e-01	1.27145315e-02	1.32585911e-04
7.59000000e-01	1.26846259e-02	1.33280254e-04
7.60000000e-01	1.27024902e-02	1.32871156e-04
7.61000000e-01	1.27458795e-02	1.33377029e-04
7.62000000e-01	1.26424624e-02	1.32078506e-04
7.63000000e-01	1.27023768e-02	1.32451068e-04
7.64000000e-01	1.27322523e-02	1.32589955e-04
7.65000000e-01	1.26590924e-02	1.31406061e-04
7.66000000e-01	1.25838670e-02	1.30925813e-04
7.67000000e-01	1.26334829e-02	1.31452886e-04
7.68000000e-01	1.25810314e-02	1.31079609e-04
7.69000000e-01	1.26019168e-02	1.31136984e-04
7.70000000e-01	1.25453304e-02	1.30606714e-04
7.71000000e-01	1.25440607e-02	1.30517908e-04
7.72000000e-01	1.26315369e-02	1.35381003e-04
7.73000000e-01	1.26059554e-02	1.39318547e-04
7.74000000e-01	1.24465283e-02	1.40609547e-04
7.75000000e-01	1.25605090e-02	1.44349254e-04
7.76000000e-01	1.25853143e-02	1.46280033e-04
7.77000000e-01	1.27633325e-02	1.50338033e-04
7.78000000e-01	1.24976834e-02	1.49377202e-04
7.79000000e-01	1.26703863e-02	1.53254683e-04
7.80000000e-01	1.26007086e-02	1.54432051e-04
7.81000000e-01	1.26049310e-02	1.56430374e-04
7.82000000e-01	1.24641411e-02	1.56230506e-04
7.83000000e-01	1.23221735e-02	1.56510558e-04
7.84000000e-01	1.22612495e-02	1.57486504e-04
7.85000000e-01	1.24621965e-02	1.61093778e-04
7.86000000e-01	1.25414101e-02	1.63895459e-04
7.87000000e-01	1.25477717e-02	1.65806219e-04
7.88000000e-01	1.24689954e-02	1.66611459e-04
7.89000000e-01	1.24233379e-02	1.68084050e-04
7.90000000e-01	1.25340466e-02	1.70733771e-04
7.91000000e-01	1.23479091e-02	1.69460667e-04
7.92000000e-01	1.21684614e-02	1.70023308e-04
7.93000000e-01	1.23786657e-02	1.73769085e-04
7.94000000e-01	1.23450554e-02	1.75775738e-04
7.95000000e-01	1.22832436e-02	1.76744855e-04
7.96000000e-01	1.23618149e-02	1.79010072e-04
7.97000000e-01	1.21014563e-02	1.76405730e-04
7.98000000e-01	1.24295118e-02	1.83939007e-04
7.99000000e-01	1.21926929e-02	1.81863854e-04
8.00000000e-01	1.22476246e-02	1.84987803e-04
8.01000000e-01	1.23123023e-02	1.87165215e-04
8.02000000e-01	1.20649296e-02	1.86569195e-04
8.03000000e-01	1.23387513e-02	1.91497087e-04
8.04000000e-01	1.22647673e-02	1.92885853e-04
8.05000000e-01	1.21996891e-02	1.93574722e-04
8.06000000e-01	1.21786152e-02	1.95804973e-04
8.07000000e-01	1.20720548e-02	1.96020854e-04
8.08000000e-01	1.21855961e-02	2.00142236e-04
8.09000000e-01	1.20466838e-02	1.99476565e-04
8.10000000e-01	1.18818172e-02	2.01076860e-04
8.11000000e-01	1.19877514e-02	2.04521130e-04
8.12000000e-01	1.21786686e-02	2.09817978e-04
8.13000000e-01	1.18691984e-02	2.06221140e-04
8.14000000e-01	1.20676069e-02	2.11767935e-04
8.15000000e-01	1.21049150e-02	2.15902161e-04
8.16000000e-01	1.19791158e-02	2.15920845e-04
8.17000000e-01	1.18917522e-02	2.17227254e-04
8.18000000e-01	1.19034717e-02	2.19343889e-04
8.19000000e-01	1.19556280e-02	2.24350354e-04
8.20000000e-01	1.20454797e-02	2.28029897e-04
8.21000000e-01	1.19924256e-02	2.30907503e-04
8.22000000e-01	1.19875605e-02	2.33111577e-04
8.23000000e-01	1.20961123e-02	2.38030530e-04
8.24000000e-01	1.20057891e-02	2.40217951e-04
8.25000000e-01	1.19526904e-02	2.42142436e-04
8.26000000e-01	1.21267169e-02	2.50344692e-04
8.27000000e-01	1.19059187e-02	2.47297599e-04
8.28000000e-01	1.18945001e-02	2.52713142e-04
8.29000000e-01	1.16837950e-02	2.52553756e-04
8.30000000e-01	1.19344672e-02	2.60269136e-04
8.31000000e-01	1.19628409e-02	2.64541719e-04
8.32000000e-01	1.18536077e-02	2.68030883e-04
8.33000000e-01	1.20058830e-02	2.76664515e-04
8.34000000e-01	1.18967122e-02	2.77017437e-04
8.35000000e-01	1.17929141e-02	2.81577663e-04
8.36000000e-01	1.14928902e-02	2.78047418e-04
8.37000000e-01	1.17814269e-02	2.89591443e-04
8.38000000e-01	1.14224810e-02	2.91336858e-04
8.39000000e-01	1.16174746e-02	2.99303707e-04
8.40000000e-01	1.18669460e-02	3.11043531e-04
8.41000000e-01	1.15346139e-02	3.12678032e-04
8.42000000e-01	1.17408239e-02	3.23310008e-04
8.43000000e-01	1.12354922e-02	3.17543564e-04
8.44000000e-01	1.16184586e-02	3.38852280e-04
8.45000000e-01	1.16653505e-02	3.45927524e-04
8.46000000e-01	1.15825692e-02	3.48851744e-04
8.47000000e-01	1.17910754e-02	3.64752704e-04
8.48000000e-01	1.14928931e-02	3.69950556e-04
8.49000000e-01	1.17430447e-02	3.86025860e-04
8.50000000e-01	1.16655183e-02	4.01043282e-04
8.51000000e-01	1.16834853e-02	4.15999334e-04
8.52000000e-01	1.13288535e-02	4.26481847e-04
8.53000000e-01	1.15738610e-02	4.51007948e-04
8.54000000e-01	1.10907073e-02	4.55273833e-04
8.55000000e-01	1.15899078e-02	4.89167825e-04
8.56000000e-01	1.07897489e-02	4.65655305e-04
8.57000000e-01	1.19040567e-02	5.23750455e-04
8.58000000e-01	1.12514923e-02	5.16465916e-04
8.59000000e-01	1.10411370e-02	5.36119369e-04
8.60000000e-01	1.07015542e-02	5.11364164e-04
8.61000000e-01	1.14882621e-02	5.77210810e-04
8.62000000e-01	1.16885367e-02	6.20558731e-04
8.63000000e-01	1.09458598e-02	6.03566839e-04
8.64000000e-01	1.06341318e-02	6.00823289e-04
8.65000000e-01	1.10222680e-02	6.55250301e-04
8.66000000e-01	1.14134613e-02	7.16190751e-04
8.67000000e-01	1.12494285e-02	7.40914898e-04
8.68000000e-01	1.10504803e-02	7.81611991e-04
8.69000000e-01	1.16434504e-02	8.66331350e-04
8.70000000e-01	1.11830994e-02	9.31026611e-04
8.71000000e-01	1.17130588e-02	1.07094253e-03
8.72000000e-01	1.20087356e-02	1.21592801e-03
8.73000000e-01	1.19632530e-02	1.44195959e-03
8.74000000e-01	1.11874922e-02	1.88190907e-03
8.75000000e-01	8.95986245e-03	2.86212350e-03
