% Filename : SSW21_00035_00033.h5
% Date & Time : 30-Oct-2025 17:33:19
% X-ray Energy (keV) : 13.30001
% Exposure Time (s) : 0.500
% Beam Center : 1461.24000, 208.98300
% Sample to Detector Distance (SDD) (mm) : 1990.750
% Detector Pixel Size (mm) : 0.075
% Photodiode Value : 140277.000
% I0 of Sample : 0
% I0 of Standard : 1
% 
% q(A^-1)   I(q)    I(q)_SE
0.00000000e+00	6.43964981e-03	3.40753894e-03
2.50000000e-04	0.00000000e+00	0.00000000e+00
5.00000000e-04	0.00000000e+00	0.00000000e+00
7.50000000e-04	0.00000000e+00	0.00000000e+00
1.00000000e-03	0.00000000e+00	0.00000000e+00
1.25000000e-03	0.00000000e+00	0.00000000e+00
1.50000000e-03	0.00000000e+00	0.00000000e+00
1.75000000e-03	0.00000000e+00	0.00000000e+00
2.00000000e-03	0.00000000e+00	0.00000000e+00
2.25000000e-03	0.00000000e+00	0.00000000e+00
2.50000000e-03	0.00000000e+00	0.00000000e+00
2.75000000e-03	0.00000000e+00	0.00000000e+00
3.00000000e-03	0.00000000e+00	0.00000000e+00
3.25000000e-03	7.51169829e+02	4.59701321e+02
3.50000000e-03	3.78760169e+02	1.40145608e+02
3.75000000e-03	2.11239988e+02	8.04668757e+01
4.00000000e-03	1.67895745e+02	5.73932408e+01
4.25000000e-03	9.10141766e+01	2.95006204e+01
4.50000000e-03	9.59062413e+01	2.35984975e+01
4.75000000e-03	8.26789539e+01	1.76364614e+01
5.00000000e-03	6.35092195e+01	1.33171381e+01
5.25000000e-03	5.29846547e+01	1.07311952e+01
5.50000000e-03	4.24759750e+01	8.36628481e+00
5.75000000e-03	3.61497369e+01	7.00958453e+00
6.00000000e-03	2.92133344e+01	5.58960970e+00
6.25000000e-03	2.57064890e+01	4.72261183e+00
6.50000000e-03	2.12444066e+01	3.81363936e+00
6.75000000e-03	1.82304567e+01	3.17407581e+00
7.00000000e-03	1.56730950e+01	2.66299345e+00
7.25000000e-03	1.34058660e+01	2.22164149e+00
7.50000000e-03	1.13202334e+01	1.87132146e+00
7.75000000e-03	1.01446890e+01	1.63928416e+00
8.00000000e-03	9.23014244e+00	1.45278589e+00
8.25000000e-03	7.89219287e+00	1.20920231e+00
8.50000000e-03	7.16844807e+00	1.08298920e+00
8.75000000e-03	6.42272709e+00	9.49656517e-01
9.00000000e-03	5.81005361e+00	8.39139573e-01
9.25000000e-03	5.06279469e+00	7.18558355e-01
9.50000000e-03	4.47754946e+00	6.21261058e-01
9.75000000e-03	4.11355161e+00	5.70348136e-01
1.00000000e-02	3.68897717e+00	5.09850942e-01
1.02500000e-02	3.39844915e+00	4.61137339e-01
1.05000000e-02	2.98284877e+00	3.82255465e-01
1.07500000e-02	2.73824825e+00	3.47942715e-01
1.10000000e-02	2.49351999e+00	3.13023101e-01
1.12500000e-02	2.34047808e+00	2.98191817e-01
1.15000000e-02	2.17181554e+00	2.66314074e-01
1.17500000e-02	1.90116511e+00	2.31176227e-01
1.20000000e-02	1.73464206e+00	2.04068986e-01
1.22500000e-02	1.64915068e+00	1.91731724e-01
1.25000000e-02	1.55797876e+00	1.75950211e-01
1.27500000e-02	1.44532506e+00	1.61182319e-01
1.30000000e-02	1.33137269e+00	1.47256877e-01
1.32500000e-02	1.23154983e+00	1.32619070e-01
1.35000000e-02	1.16979183e+00	1.25376959e-01
1.37500000e-02	1.09262993e+00	1.14782342e-01
1.40000000e-02	1.01770121e+00	1.06134743e-01
1.42500000e-02	9.38783499e-01	9.50696328e-02
1.45000000e-02	8.90366328e-01	8.81250809e-02
1.47500000e-02	8.16818900e-01	8.03946809e-02
1.50000000e-02	7.71878007e-01	7.39737553e-02
1.52500000e-02	7.35120725e-01	6.97365120e-02
1.55000000e-02	6.82695814e-01	6.35041292e-02
1.57500000e-02	6.39284548e-01	5.86973159e-02
1.60000000e-02	6.15997783e-01	5.51505951e-02
1.62500000e-02	5.90113849e-01	5.37640915e-02
1.65000000e-02	5.52656177e-01	4.91961776e-02
1.67500000e-02	5.24791267e-01	4.53239966e-02
1.70000000e-02	4.97987616e-01	4.29182464e-02
1.72500000e-02	4.76001635e-01	3.99487784e-02
1.75000000e-02	4.54263747e-01	3.78155632e-02
1.77500000e-02	4.21706516e-01	3.38608995e-02
1.80000000e-02	4.08929895e-01	3.27936700e-02
1.82500000e-02	3.88960327e-01	3.00761152e-02
1.85000000e-02	3.74027408e-01	2.96689015e-02
1.87500000e-02	3.55326650e-01	2.75475638e-02
1.90000000e-02	3.41366392e-01	2.61598284e-02
1.92500000e-02	3.24976376e-01	2.42925779e-02
1.95000000e-02	3.08868902e-01	2.24274533e-02
1.97500000e-02	2.99194955e-01	2.19410972e-02
2.00000000e-02	2.82876031e-01	2.01106116e-02
2.02500000e-02	2.75837155e-01	1.94633396e-02
2.05000000e-02	2.65469698e-01	1.82753086e-02
2.07500000e-02	2.56256510e-01	1.76425099e-02
2.10000000e-02	2.51131260e-01	1.73009823e-02
2.12500000e-02	2.47010488e-01	1.67971264e-02
2.15000000e-02	2.40818032e-01	1.61729664e-02
2.17500000e-02	2.32529970e-01	1.55945684e-02
2.20000000e-02	2.27766843e-01	1.53532652e-02
2.22500000e-02	2.15355906e-01	1.43212103e-02
2.25000000e-02	2.15632110e-01	1.43580100e-02
2.27500000e-02	2.06434554e-01	1.35503605e-02
2.30000000e-02	2.03215585e-01	1.32827739e-02
2.32500000e-02	1.95966049e-01	1.26459180e-02
2.35000000e-02	1.96234265e-01	1.27623504e-02
2.37500000e-02	1.90609404e-01	1.21255605e-02
2.40000000e-02	1.78557234e-01	1.13467415e-02
2.42500000e-02	1.77550145e-01	1.11993846e-02
2.45000000e-02	1.71345669e-01	1.07703598e-02
2.47500000e-02	1.68315161e-01	1.03091922e-02
2.50000000e-02	1.64802683e-01	1.00375946e-02
2.52500000e-02	1.60349135e-01	9.86716433e-03
2.55000000e-02	1.57110401e-01	9.45422475e-03
2.57500000e-02	1.50305943e-01	9.22200278e-03
2.60000000e-02	1.46354856e-01	8.64260914e-03
2.62500000e-02	1.45852083e-01	8.73162302e-03
2.65000000e-02	1.42627843e-01	8.31147607e-03
2.67500000e-02	1.36626495e-01	7.88009656e-03
2.70000000e-02	1.35332581e-01	7.88938363e-03
2.72500000e-02	1.30949015e-01	7.42313563e-03
2.75000000e-02	1.26595680e-01	7.29546711e-03
2.77500000e-02	1.27511905e-01	7.37008865e-03
2.80000000e-02	1.21737973e-01	6.84902429e-03
2.82500000e-02	1.19769498e-01	6.64338985e-03
2.85000000e-02	1.20477129e-01	6.68301431e-03
2.87500000e-02	1.18912408e-01	6.59587876e-03
2.90000000e-02	1.14929286e-01	6.41116645e-03
2.92500000e-02	1.12356475e-01	6.08168492e-03
2.95000000e-02	1.10968107e-01	6.05330646e-03
2.97500000e-02	1.11163457e-01	5.96040276e-03
3.00000000e-02	1.08149185e-01	5.83107131e-03
3.02500000e-02	1.05977163e-01	5.70886567e-03
3.05000000e-02	1.03321670e-01	5.36972399e-03
3.07500000e-02	1.01841669e-01	5.38371035e-03
3.10000000e-02	9.96432245e-02	5.19394117e-03
3.12500000e-02	9.72716649e-02	5.15758568e-03
3.15000000e-02	9.49009836e-02	4.89820553e-03
3.17500000e-02	9.46019029e-02	4.83384171e-03
3.20000000e-02	9.35697679e-02	4.84992987e-03
3.22500000e-02	8.97845961e-02	4.62000825e-03
3.25000000e-02	9.03091809e-02	4.59461106e-03
3.27500000e-02	8.72055961e-02	4.45568137e-03
3.30000000e-02	8.47640930e-02	4.22401937e-03
3.32500000e-02	8.44970605e-02	4.18899052e-03
3.35000000e-02	8.50194693e-02	4.22929851e-03
3.37500000e-02	8.17067420e-02	4.10525758e-03
3.40000000e-02	7.95515271e-02	3.94391433e-03
3.42500000e-02	7.92534757e-02	3.88823526e-03
3.45000000e-02	7.84000802e-02	3.87321035e-03
3.47500000e-02	7.80458453e-02	3.79537641e-03
3.50000000e-02	7.56915559e-02	3.67259677e-03
3.52500000e-02	7.31642734e-02	3.58167912e-03
3.55000000e-02	7.44711370e-02	3.52589681e-03
3.57500000e-02	7.29873072e-02	3.55302850e-03
3.60000000e-02	7.05631355e-02	3.36084590e-03
3.62500000e-02	7.14434075e-02	3.39471246e-03
3.65000000e-02	7.00184575e-02	3.36369417e-03
3.67500000e-02	6.98157622e-02	3.27713403e-03
3.70000000e-02	6.75814520e-02	3.19078488e-03
3.72500000e-02	6.68259085e-02	3.11961845e-03
3.75000000e-02	6.64654475e-02	3.10571989e-03
3.77500000e-02	6.55396803e-02	3.06208225e-03
3.80000000e-02	6.37967088e-02	2.93126285e-03
3.82500000e-02	6.41378358e-02	2.95004565e-03
3.85000000e-02	6.37733316e-02	2.98747525e-03
3.87500000e-02	6.16477765e-02	2.80059155e-03
3.90000000e-02	6.23068838e-02	2.88160456e-03
3.92500000e-02	5.97052187e-02	2.68887427e-03
3.95000000e-02	5.80851080e-02	2.60343931e-03
3.97500000e-02	5.93305185e-02	2.66049689e-03
4.00000000e-02	5.70526546e-02	2.56114012e-03
4.02500000e-02	5.67306191e-02	2.56314017e-03
4.05000000e-02	5.70963404e-02	2.52497314e-03
4.07500000e-02	5.64935515e-02	2.47461003e-03
4.10000000e-02	5.63698963e-02	2.52092337e-03
4.12500000e-02	5.51137746e-02	2.42119954e-03
4.15000000e-02	5.50334839e-02	2.42034226e-03
4.17500000e-02	5.43160695e-02	2.37807311e-03
4.20000000e-02	5.37132306e-02	2.32015228e-03
4.22500000e-02	5.37155404e-02	2.32108270e-03
4.25000000e-02	5.31721764e-02	2.29619206e-03
4.27500000e-02	5.38594435e-02	2.29585028e-03
4.30000000e-02	5.16111611e-02	2.20336376e-03
4.32500000e-02	5.14241964e-02	2.20428081e-03
4.35000000e-02	5.05546271e-02	2.18705936e-03
4.37500000e-02	5.07302659e-02	2.15090076e-03
4.40000000e-02	4.95944939e-02	2.09740638e-03
4.42500000e-02	4.90001509e-02	2.08051875e-03
4.45000000e-02	4.78596559e-02	2.01264143e-03
4.47500000e-02	4.75788620e-02	1.99770510e-03
4.50000000e-02	4.81610522e-02	2.03586485e-03
4.52500000e-02	4.73506303e-02	1.97423598e-03
4.55000000e-02	4.65810415e-02	1.92641489e-03
4.57500000e-02	4.67505301e-02	1.93116995e-03
4.60000000e-02	4.63534202e-02	1.91771156e-03
4.62500000e-02	4.58279126e-02	1.90735963e-03
4.65000000e-02	4.56885059e-02	1.86412301e-03
4.67500000e-02	4.49203746e-02	1.82429340e-03
4.70000000e-02	4.48723143e-02	1.83324251e-03
4.72500000e-02	4.42824675e-02	1.81814672e-03
4.75000000e-02	4.55444184e-02	1.87356239e-03
4.77500000e-02	4.33579343e-02	1.75786934e-03
4.80000000e-02	4.25440523e-02	1.71942773e-03
4.82500000e-02	4.21833179e-02	1.71723527e-03
4.85000000e-02	4.31659103e-02	1.76346892e-03
4.87500000e-02	4.31130649e-02	1.74033227e-03
4.90000000e-02	4.20286339e-02	1.67961264e-03
4.92500000e-02	4.18316899e-02	1.66476382e-03
4.95000000e-02	4.19719470e-02	1.66734607e-03
4.97500000e-02	4.11657338e-02	1.65165668e-03
5.00000000e-02	4.11148845e-02	1.62091129e-03
5.02500000e-02	4.09481327e-02	1.60944057e-03
5.05000000e-02	4.07118575e-02	1.60290622e-03
5.07500000e-02	4.01903162e-02	1.58610971e-03
5.10000000e-02	4.01259110e-02	1.57399519e-03
5.12500000e-02	3.89620945e-02	1.52708108e-03
5.15000000e-02	3.85473724e-02	1.48784164e-03
5.17500000e-02	3.81875694e-02	1.49291921e-03
5.20000000e-02	3.83626157e-02	1.49361199e-03
5.22500000e-02	3.75416964e-02	1.49038565e-03
5.25000000e-02	3.79439990e-02	1.47071891e-03
5.27500000e-02	3.84725635e-02	1.48718885e-03
5.30000000e-02	3.84972157e-02	1.49335148e-03
5.32500000e-02	3.81166060e-02	1.47141102e-03
5.35000000e-02	3.71878050e-02	1.44112937e-03
5.37500000e-02	3.87508482e-02	1.48738500e-03
5.40000000e-02	3.74121095e-02	1.43536271e-03
5.42500000e-02	3.62910100e-02	1.38390913e-03
5.45000000e-02	3.66505268e-02	1.39571676e-03
5.47500000e-02	3.67008612e-02	1.38982961e-03
5.50000000e-02	3.66052015e-02	1.39460679e-03
5.52500000e-02	3.60555972e-02	1.36905142e-03
5.55000000e-02	3.64365721e-02	1.37552341e-03
5.57500000e-02	3.59221781e-02	1.36601424e-03
5.60000000e-02	3.57301553e-02	1.34684880e-03
5.62500000e-02	3.50178508e-02	1.33587508e-03
5.65000000e-02	3.49436879e-02	1.31018484e-03
5.67500000e-02	3.54762889e-02	1.33032104e-03
5.70000000e-02	3.51207509e-02	1.30268249e-03
5.72500000e-02	3.52671722e-02	1.31753140e-03
5.75000000e-02	3.46153305e-02	1.29067649e-03
5.77500000e-02	3.41948743e-02	1.26002732e-03
5.80000000e-02	3.47955018e-02	1.29028043e-03
5.82500000e-02	3.45698350e-02	1.28401032e-03
5.85000000e-02	3.38527122e-02	1.24808816e-03
5.87500000e-02	3.40114510e-02	1.25559710e-03
5.90000000e-02	3.40361308e-02	1.25726296e-03
5.92500000e-02	3.40293284e-02	1.24686388e-03
5.95000000e-02	3.34632200e-02	1.22443303e-03
5.97500000e-02	3.29041603e-02	1.21696278e-03
6.00000000e-02	3.28501581e-02	1.19565901e-03
6.02500000e-02	3.33252957e-02	1.22180311e-03
6.05000000e-02	3.28763257e-02	1.19578930e-03
6.07500000e-02	3.25219114e-02	1.18552642e-03
6.10000000e-02	3.26533751e-02	1.17930038e-03
6.12500000e-02	3.27610322e-02	1.18615188e-03
6.15000000e-02	3.21912624e-02	1.15966194e-03
6.17500000e-02	3.27136946e-02	1.18146351e-03
6.20000000e-02	3.17222370e-02	1.14573553e-03
6.22500000e-02	3.25142661e-02	1.16500209e-03
6.25000000e-02	3.13432420e-02	1.12926752e-03
6.27500000e-02	3.15291990e-02	1.12622144e-03
6.30000000e-02	3.15821566e-02	1.13400527e-03
6.32500000e-02	3.18029312e-02	1.13751572e-03
6.35000000e-02	3.10741280e-02	1.11700017e-03
6.37500000e-02	3.17491585e-02	1.12758751e-03
6.40000000e-02	3.11814419e-02	1.11640708e-03
6.42500000e-02	3.08375297e-02	1.08870937e-03
6.45000000e-02	3.05343621e-02	1.07967470e-03
6.47500000e-02	3.03302414e-02	1.07574457e-03
6.50000000e-02	3.10312502e-02	1.10423207e-03
6.52500000e-02	3.05933644e-02	1.08922452e-03
6.55000000e-02	3.09585361e-02	1.08867599e-03
6.57500000e-02	2.99470130e-02	1.05087143e-03
6.60000000e-02	2.99894676e-02	1.06240272e-03
6.62500000e-02	3.04210677e-02	1.06161196e-03
6.65000000e-02	2.96378970e-02	1.04027131e-03
6.67500000e-02	3.02828316e-02	1.05035936e-03
6.70000000e-02	3.02223832e-02	1.05364405e-03
6.72500000e-02	3.03091381e-02	1.06279730e-03
6.75000000e-02	2.96445913e-02	1.02557558e-03
6.77500000e-02	2.97771143e-02	1.03188204e-03
6.80000000e-02	2.92543449e-02	1.01876133e-03
6.82500000e-02	2.97613059e-02	1.02734319e-03
6.85000000e-02	2.95088852e-02	1.02865709e-03
6.87500000e-02	2.91043287e-02	1.00519482e-03
6.90000000e-02	2.96576110e-02	1.01924946e-03
6.92500000e-02	2.94792492e-02	1.00558026e-03
6.95000000e-02	2.99245467e-02	1.02741399e-03
6.97500000e-02	2.90548297e-02	9.98792345e-04
7.00000000e-02	2.93382215e-02	1.00836896e-03
7.02500000e-02	2.87252586e-02	9.79275735e-04
7.05000000e-02	2.90293665e-02	9.96841919e-04
7.07500000e-02	2.88287705e-02	9.93965297e-04
7.10000000e-02	2.90277993e-02	9.89561263e-04
7.12500000e-02	2.82875930e-02	9.66400164e-04
7.15000000e-02	2.79104538e-02	9.44547367e-04
7.17500000e-02	2.84385701e-02	9.70131065e-04
7.20000000e-02	2.83786372e-02	9.65292956e-04
7.22500000e-02	2.83457424e-02	9.57141952e-04
7.25000000e-02	2.82364266e-02	9.59804276e-04
7.27500000e-02	2.79479270e-02	9.44314521e-04
7.30000000e-02	2.82335261e-02	9.51106803e-04
7.32500000e-02	2.83405066e-02	9.52212491e-04
7.35000000e-02	2.74196545e-02	9.23554648e-04
7.37500000e-02	2.77322843e-02	9.28494291e-04
7.40000000e-02	2.76808691e-02	9.25559577e-04
7.42500000e-02	2.77068941e-02	9.31913133e-04
7.45000000e-02	2.77578466e-02	9.28006170e-04
7.47500000e-02	2.79454269e-02	9.27735407e-04
7.50000000e-02	2.75478441e-02	9.23119574e-04
7.52500000e-02	2.80497628e-02	9.34004881e-04
7.55000000e-02	2.78893903e-02	9.18973428e-04
7.57500000e-02	2.72275753e-02	9.06064168e-04
7.60000000e-02	2.69396688e-02	8.99112535e-04
7.62500000e-02	2.80026473e-02	9.31374166e-04
7.65000000e-02	2.74319243e-02	9.12503684e-04
7.67500000e-02	2.74558699e-02	9.06791824e-04
7.70000000e-02	2.68827032e-02	8.83962338e-04
7.72500000e-02	2.72477665e-02	9.15417569e-04
7.75000000e-02	2.66435185e-02	9.01814649e-04
7.77500000e-02	2.74475379e-02	9.35853677e-04
7.80000000e-02	2.71096554e-02	9.23753367e-04
7.82500000e-02	2.67180479e-02	9.19923336e-04
7.85000000e-02	2.75316001e-02	9.47394633e-04
7.87500000e-02	2.79607818e-02	9.67138408e-04
7.90000000e-02	2.77182624e-02	9.62739845e-04
7.92500000e-02	2.67823516e-02	9.28173813e-04
7.95000000e-02	2.72162741e-02	9.47370883e-04
7.97500000e-02	2.64979762e-02	9.35123183e-04
8.00000000e-02	2.71346974e-02	9.57382642e-04
8.02500000e-02	2.70964754e-02	9.51243845e-04
8.05000000e-02	2.70760614e-02	9.48202583e-04
8.07500000e-02	2.72161812e-02	9.71381260e-04
8.10000000e-02	2.68277078e-02	9.49389133e-04
8.12500000e-02	2.70876735e-02	9.57550255e-04
8.15000000e-02	2.67335751e-02	9.44433518e-04
8.17500000e-02	2.70234628e-02	9.66261346e-04
8.20000000e-02	2.72000260e-02	9.71620185e-04
8.22500000e-02	2.68995889e-02	9.57742789e-04
8.25000000e-02	2.66485147e-02	9.57626031e-04
8.27500000e-02	2.72661326e-02	9.71591215e-04
8.30000000e-02	2.74308826e-02	9.88354259e-04
8.32500000e-02	2.69571076e-02	9.68391208e-04
8.35000000e-02	2.67931123e-02	9.71411547e-04
8.37500000e-02	2.66315521e-02	9.50111762e-04
8.40000000e-02	2.62974840e-02	9.48903020e-04
8.42500000e-02	2.67786624e-02	9.74188711e-04
8.45000000e-02	2.60400663e-02	9.47045040e-04
8.47500000e-02	2.60596372e-02	9.50890831e-04
8.50000000e-02	2.61452268e-02	9.44664788e-04
8.52500000e-02	2.70629320e-02	9.85047674e-04
8.55000000e-02	2.63159986e-02	9.50866447e-04
8.57500000e-02	2.63858672e-02	9.64373091e-04
8.60000000e-02	2.60948157e-02	9.51773091e-04
8.62500000e-02	2.69162798e-02	9.80271288e-04
8.65000000e-02	2.60874082e-02	9.51966355e-04
8.67500000e-02	2.63218841e-02	9.54294925e-04
8.70000000e-02	2.58648845e-02	9.24635210e-04
8.72500000e-02	2.61772595e-02	9.17696310e-04
8.75000000e-02	2.58993630e-02	8.94489783e-04
8.77500000e-02	2.67341261e-02	9.24906280e-04
8.80000000e-02	2.59814088e-02	8.96351914e-04
8.82500000e-02	2.61525271e-02	8.99754531e-04
8.85000000e-02	2.61476444e-02	8.98692298e-04
8.87500000e-02	2.60197959e-02	8.81697876e-04
8.90000000e-02	2.60748776e-02	8.86264369e-04
8.92500000e-02	2.55439867e-02	8.67405807e-04
8.95000000e-02	2.54860754e-02	8.60376510e-04
8.97500000e-02	2.59988550e-02	8.66025635e-04
9.00000000e-02	2.51888052e-02	8.38318429e-04
9.02500000e-02	2.54584664e-02	8.45323615e-04
9.05000000e-02	2.55788026e-02	8.55191694e-04
9.07500000e-02	2.57303594e-02	8.54194957e-04
9.10000000e-02	2.51740883e-02	8.24290255e-04
9.12500000e-02	2.55217618e-02	8.35156610e-04
9.15000000e-02	2.57612507e-02	8.49227100e-04
9.17500000e-02	2.49563617e-02	8.24593769e-04
9.20000000e-02	2.50839584e-02	8.23186930e-04
9.22500000e-02	2.51109263e-02	8.27335676e-04
9.25000000e-02	2.54288886e-02	8.34397094e-04
9.27500000e-02	2.48987693e-02	8.15975312e-04
9.30000000e-02	2.49790331e-02	8.12245724e-04
9.32500000e-02	2.48813654e-02	8.12008627e-04
9.35000000e-02	2.53460042e-02	8.19406826e-04
9.37500000e-02	2.50379017e-02	8.15440738e-04
9.40000000e-02	2.49588667e-02	8.04564427e-04
9.42500000e-02	2.46907237e-02	7.95753878e-04
9.45000000e-02	2.52315264e-02	8.10767034e-04
9.47500000e-02	2.50773024e-02	8.08222524e-04
9.50000000e-02	2.40652375e-02	7.70314469e-04
9.52500000e-02	2.51287790e-02	8.07655329e-04
9.55000000e-02	2.47406721e-02	7.88629970e-04
9.57500000e-02	2.50484104e-02	8.03254093e-04
9.60000000e-02	2.46167369e-02	7.77507291e-04
9.62500000e-02	2.49069202e-02	7.92378695e-04
9.65000000e-02	2.46906815e-02	7.82348669e-04
9.67500000e-02	2.47018486e-02	7.79834571e-04
9.70000000e-02	2.45314447e-02	7.75168997e-04
9.72500000e-02	2.44848492e-02	7.73158173e-04
9.75000000e-02	2.53565394e-02	8.00613688e-04
9.77500000e-02	2.45890524e-02	7.72852573e-04
9.80000000e-02	2.45515692e-02	7.72491717e-04
9.82500000e-02	2.44527922e-02	7.70413924e-04
9.85000000e-02	2.36557658e-02	7.43774865e-04
9.87500000e-02	2.47605338e-02	7.77435610e-04
9.90000000e-02	2.38284966e-02	7.49137822e-04
9.92500000e-02	2.42288237e-02	7.57683816e-04
9.95000000e-02	2.45988732e-02	7.63690386e-04
9.97500000e-02	2.40232208e-02	7.49533792e-04
1.00000000e-01	2.43089104e-02	6.14463064e-04
1.00500000e-01	2.42287417e-02	5.33749517e-04
1.01000000e-01	2.43484116e-02	5.31178030e-04
1.01500000e-01	2.42038650e-02	5.26707079e-04
1.02000000e-01	2.39806581e-02	5.20037138e-04
1.02500000e-01	2.40047501e-02	5.18490037e-04
1.03000000e-01	2.38070036e-02	5.14067271e-04
1.03500000e-01	2.41417093e-02	5.17870243e-04
1.04000000e-01	2.40138967e-02	5.16668585e-04
1.04500000e-01	2.35565715e-02	5.05053552e-04
1.05000000e-01	2.37611738e-02	5.04714023e-04
1.05500000e-01	2.40398429e-02	5.11313875e-04
1.06000000e-01	2.39773711e-02	5.08297133e-04
1.06500000e-01	2.39800826e-02	5.07233480e-04
1.07000000e-01	2.38050559e-02	5.11935812e-04
1.07500000e-01	2.38218945e-02	5.20180324e-04
1.08000000e-01	2.38045365e-02	5.25046675e-04
1.08500000e-01	2.33879710e-02	5.21339435e-04
1.09000000e-01	2.31177461e-02	5.16343449e-04
1.09500000e-01	2.37344004e-02	5.33253235e-04
1.10000000e-01	2.37351003e-02	5.27485172e-04
1.10500000e-01	2.33887939e-02	5.07914336e-04
1.11000000e-01	2.31671862e-02	4.97378223e-04
1.11500000e-01	2.34183259e-02	4.98655717e-04
1.12000000e-01	2.37814326e-02	5.03068928e-04
1.12500000e-01	2.34315231e-02	4.92038913e-04
1.13000000e-01	2.34280436e-02	4.91642868e-04
1.13500000e-01	2.34229192e-02	4.89452399e-04
1.14000000e-01	2.34775453e-02	4.86261640e-04
1.14500000e-01	2.36070357e-02	4.88340201e-04
1.15000000e-01	2.37951886e-02	4.89601819e-04
1.15500000e-01	2.33709192e-02	4.79471142e-04
1.16000000e-01	2.32606438e-02	4.77317028e-04
1.16500000e-01	2.36274515e-02	4.83917777e-04
1.17000000e-01	2.36228592e-02	4.83601491e-04
1.17500000e-01	2.34862328e-02	4.76923629e-04
1.18000000e-01	2.33326442e-02	4.75059626e-04
1.18500000e-01	2.32928929e-02	4.70349611e-04
1.19000000e-01	2.32502722e-02	4.72619787e-04
1.19500000e-01	2.33710652e-02	4.71266399e-04
1.20000000e-01	2.33971218e-02	4.70840924e-04
1.20500000e-01	2.35061476e-02	4.73654484e-04
1.21000000e-01	2.28310712e-02	4.58044930e-04
1.21500000e-01	2.29904917e-02	4.60315510e-04
1.22000000e-01	2.28395216e-02	4.55925953e-04
1.22500000e-01	2.30299500e-02	4.59272034e-04
1.23000000e-01	2.33713250e-02	4.62585563e-04
1.23500000e-01	2.32355687e-02	4.59906249e-04
1.24000000e-01	2.30447704e-02	4.56173966e-04
1.24500000e-01	2.30460365e-02	4.54005858e-04
1.25000000e-01	2.34182255e-02	4.60874127e-04
1.25500000e-01	2.33915326e-02	4.60888949e-04
1.26000000e-01	2.32193337e-02	4.55219896e-04
1.26500000e-01	2.32600684e-02	4.55352510e-04
1.27000000e-01	2.31003934e-02	4.51632783e-04
1.27500000e-01	2.33674081e-02	4.54788284e-04
1.28000000e-01	2.33744361e-02	4.57006676e-04
1.28500000e-01	2.26726049e-02	4.42465493e-04
1.29000000e-01	2.32771628e-02	4.50969141e-04
1.29500000e-01	2.27660544e-02	4.39527102e-04
1.30000000e-01	2.31276581e-02	4.46747578e-04
1.30500000e-01	2.27762334e-02	4.39456626e-04
1.31000000e-01	2.31344000e-02	4.44177363e-04
1.31500000e-01	2.29273493e-02	4.38639931e-04
1.32000000e-01	2.31176384e-02	4.42710151e-04
1.32500000e-01	2.27863894e-02	4.35246939e-04
1.33000000e-01	2.30570640e-02	4.39306581e-04
1.33500000e-01	2.32473819e-02	4.39381227e-04
1.34000000e-01	2.27711089e-02	4.30951529e-04
1.34500000e-01	2.27855206e-02	4.30405054e-04
1.35000000e-01	2.25344545e-02	4.25443782e-04
1.35500000e-01	2.31081953e-02	4.34036262e-04
1.36000000e-01	2.31658005e-02	4.33900257e-04
1.36500000e-01	2.26508686e-02	4.26492938e-04
1.37000000e-01	2.28736262e-02	4.26168195e-04
1.37500000e-01	2.26420357e-02	4.23382968e-04
1.38000000e-01	2.24974002e-02	4.20537413e-04
1.38500000e-01	2.27879787e-02	4.25051556e-04
1.39000000e-01	2.27120927e-02	4.23662237e-04
1.39500000e-01	2.28939663e-02	4.24079342e-04
1.40000000e-01	2.26665322e-02	4.23155186e-04
1.40500000e-01	2.26641683e-02	4.21580307e-04
1.41000000e-01	2.25221633e-02	4.16809283e-04
1.41500000e-01	2.23804270e-02	4.15970094e-04
1.42000000e-01	2.25274866e-02	4.16723099e-04
1.42500000e-01	2.25502397e-02	4.16669529e-04
1.43000000e-01	2.21381235e-02	4.09095973e-04
1.43500000e-01	2.22657599e-02	4.08766980e-04
1.44000000e-01	2.21491432e-02	4.08006823e-04
1.44500000e-01	2.22645149e-02	4.08137759e-04
1.45000000e-01	2.23625167e-02	4.09657835e-04
1.45500000e-01	2.24863889e-02	4.10516169e-04
1.46000000e-01	2.22574233e-02	4.08079548e-04
1.46500000e-01	2.20632782e-02	4.03060798e-04
1.47000000e-01	2.18705267e-02	3.99355628e-04
1.47500000e-01	2.21812849e-02	4.01617861e-04
1.48000000e-01	2.23198113e-02	4.04440616e-04
1.48500000e-01	2.26594109e-02	4.09195776e-04
1.49000000e-01	2.18494984e-02	3.94920752e-04
1.49500000e-01	2.23644683e-02	4.03112286e-04
1.50000000e-01	2.23158617e-02	4.01451550e-04
1.50500000e-01	2.23546577e-02	4.03069578e-04
1.51000000e-01	2.21035097e-02	3.96897726e-04
1.51500000e-01	2.20950148e-02	3.94409040e-04
1.52000000e-01	2.17112294e-02	3.87229113e-04
1.52500000e-01	2.21846368e-02	3.95564982e-04
1.53000000e-01	2.19659422e-02	3.90298939e-04
1.53500000e-01	2.18097539e-02	3.87090681e-04
1.54000000e-01	2.15483434e-02	3.83217738e-04
1.54500000e-01	2.20455935e-02	3.99371483e-04
1.55000000e-01	2.16241167e-02	3.96993481e-04
1.55500000e-01	2.17355961e-02	4.00993994e-04
1.56000000e-01	2.15002189e-02	4.00310730e-04
1.56500000e-01	2.16882957e-02	4.02754470e-04
1.57000000e-01	2.15091889e-02	4.00119471e-04
1.57500000e-01	2.15095273e-02	3.92265002e-04
1.58000000e-01	2.15502937e-02	3.85083159e-04
1.58500000e-01	2.15628089e-02	3.86439813e-04
1.59000000e-01	2.17392668e-02	3.86628775e-04
1.59500000e-01	2.15193110e-02	3.81375216e-04
1.60000000e-01	2.15492938e-02	3.83374942e-04
1.60500000e-01	2.14736629e-02	3.78667442e-04
1.61000000e-01	2.15750611e-02	3.79834577e-04
1.61500000e-01	2.17145660e-02	3.81616809e-04
1.62000000e-01	2.13937550e-02	3.75374899e-04
1.62500000e-01	2.14506750e-02	3.78197443e-04
1.63000000e-01	2.15987339e-02	3.78152512e-04
1.63500000e-01	2.15624738e-02	3.80125235e-04
1.64000000e-01	2.15650594e-02	3.75442435e-04
1.64500000e-01	2.16766562e-02	3.77838654e-04
1.65000000e-01	2.13472588e-02	3.71258547e-04
1.65500000e-01	2.13648582e-02	3.70572485e-04
1.66000000e-01	2.15460411e-02	3.74540061e-04
1.66500000e-01	2.12537302e-02	3.66343836e-04
1.67000000e-01	2.13803792e-02	3.69763326e-04
1.67500000e-01	2.16667100e-02	3.72978899e-04
1.68000000e-01	2.11685756e-02	3.65904459e-04
1.68500000e-01	2.13966845e-02	3.68072794e-04
1.69000000e-01	2.13256198e-02	3.67302267e-04
1.69500000e-01	2.10642084e-02	3.62108925e-04
1.70000000e-01	2.12629759e-02	3.63126578e-04
1.70500000e-01	2.14047938e-02	3.65002658e-04
1.71000000e-01	2.13216658e-02	3.63448838e-04
1.71500000e-01	2.09350608e-02	3.57865801e-04
1.72000000e-01	2.09099351e-02	3.55025299e-04
1.72500000e-01	2.11685645e-02	3.59886690e-04
1.73000000e-01	2.13317587e-02	3.60665013e-04
1.73500000e-01	2.13564130e-02	3.59463328e-04
1.74000000e-01	2.11879735e-02	3.57570869e-04
1.74500000e-01	2.10467456e-02	3.52348156e-04
1.75000000e-01	2.09350012e-02	3.51761352e-04
1.75500000e-01	2.08525521e-02	3.49395385e-04
1.76000000e-01	2.11752592e-02	3.53940815e-04
1.76500000e-01	2.11182452e-02	3.54069926e-04
1.77000000e-01	2.10899982e-02	3.50852852e-04
1.77500000e-01	2.08664164e-02	3.47868135e-04
1.78000000e-01	2.07036719e-02	3.45664951e-04
1.78500000e-01	2.07078254e-02	3.45485666e-04
1.79000000e-01	2.11347411e-02	3.51297681e-04
1.79500000e-01	2.09826518e-02	3.49016953e-04
1.80000000e-01	2.09972157e-02	3.50175532e-04
1.80500000e-01	2.11129586e-02	3.50116717e-04
1.81000000e-01	2.07050578e-02	3.43620907e-04
1.81500000e-01	2.07998769e-02	3.43813025e-04
1.82000000e-01	2.09581518e-02	3.46905659e-04
1.82500000e-01	2.08706516e-02	3.43749939e-04
1.83000000e-01	2.08236527e-02	3.44104545e-04
1.83500000e-01	2.08012578e-02	3.41866462e-04
1.84000000e-01	2.07272623e-02	3.40705469e-04
1.84500000e-01	2.09326219e-02	3.44913648e-04
1.85000000e-01	2.09364240e-02	3.44228032e-04
1.85500000e-01	2.05963722e-02	3.37891932e-04
1.86000000e-01	2.06661032e-02	3.38301651e-04
1.86500000e-01	2.05741478e-02	3.35649884e-04
1.87000000e-01	2.08466804e-02	3.40427332e-04
1.87500000e-01	2.08378583e-02	3.40419230e-04
1.88000000e-01	2.05712887e-02	3.35342911e-04
1.88500000e-01	2.05743212e-02	3.34256841e-04
1.89000000e-01	2.05986986e-02	3.34899623e-04
1.89500000e-01	2.08839041e-02	3.38374601e-04
1.90000000e-01	2.06083520e-02	3.33741085e-04
1.90500000e-01	2.02962360e-02	3.28695245e-04
1.91000000e-01	2.01417857e-02	3.25504911e-04
1.91500000e-01	2.03381438e-02	3.29828406e-04
1.92000000e-01	2.04665642e-02	3.29992302e-04
1.92500000e-01	2.02402662e-02	3.25850842e-04
1.93000000e-01	2.06920409e-02	3.33583535e-04
1.93500000e-01	2.03770575e-02	3.27027690e-04
1.94000000e-01	2.01722697e-02	3.25991602e-04
1.94500000e-01	2.03605069e-02	3.26253169e-04
1.95000000e-01	2.02210410e-02	3.24816309e-04
1.95500000e-01	2.03465964e-02	3.26374020e-04
1.96000000e-01	2.00336590e-02	3.20210580e-04
1.96500000e-01	2.02196293e-02	3.22113785e-04
1.97000000e-01	2.01926047e-02	3.22362737e-04
1.97500000e-01	2.02892745e-02	3.22720891e-04
1.98000000e-01	2.02514980e-02	3.22510527e-04
1.98500000e-01	2.04290423e-02	3.24573792e-04
1.99000000e-01	2.01246036e-02	3.20251115e-04
1.99500000e-01	1.99908038e-02	3.17585594e-04
2.00000000e-01	2.02496960e-02	3.21274743e-04
2.00500000e-01	2.01863299e-02	3.20146441e-04
2.01000000e-01	1.98579162e-02	3.13817491e-04
2.01500000e-01	2.01001512e-02	3.16682925e-04
2.02000000e-01	2.03158789e-02	3.20111769e-04
2.02500000e-01	1.99719857e-02	3.13767013e-04
2.03000000e-01	2.00084076e-02	3.15349610e-04
2.03500000e-01	2.00197288e-02	3.15314980e-04
2.04000000e-01	1.99777488e-02	3.14567358e-04
2.04500000e-01	1.97632431e-02	3.10486030e-04
2.05000000e-01	1.97894611e-02	3.08012107e-04
2.05500000e-01	2.00397079e-02	3.13411001e-04
2.06000000e-01	1.99236277e-02	3.10873685e-04
2.06500000e-01	1.96721170e-02	3.08112608e-04
2.07000000e-01	2.00186682e-02	3.12249104e-04
2.07500000e-01	1.99009575e-02	3.09265223e-04
2.08000000e-01	2.00362258e-02	3.12111874e-04
2.08500000e-01	1.97786268e-02	3.05891838e-04
2.09000000e-01	1.99983967e-02	3.11225982e-04
2.09500000e-01	1.98382638e-02	3.06673465e-04
2.10000000e-01	2.00484853e-02	3.09728616e-04
2.10500000e-01	1.99181654e-02	3.07281837e-04
2.11000000e-01	1.99173563e-02	3.06440721e-04
2.11500000e-01	2.02068988e-02	3.10074780e-04
2.12000000e-01	1.96660523e-02	3.02626704e-04
2.12500000e-01	1.98803054e-02	3.05624566e-04
2.13000000e-01	1.97605028e-02	3.03840953e-04
2.13500000e-01	1.97397063e-02	3.03862139e-04
2.14000000e-01	1.96327936e-02	3.01880904e-04
2.14500000e-01	1.98253622e-02	3.03050158e-04
2.15000000e-01	1.98913118e-02	3.04453749e-04
2.15500000e-01	1.95535628e-02	2.97888799e-04
2.16000000e-01	1.96236576e-02	2.99433987e-04
2.16500000e-01	1.95768078e-02	2.99826339e-04
2.17000000e-01	1.97107376e-02	3.05518159e-04
2.17500000e-01	1.99519359e-02	3.12665516e-04
2.18000000e-01	1.93381104e-02	3.05355481e-04
2.18500000e-01	1.95742470e-02	3.10332010e-04
2.19000000e-01	1.96638163e-02	3.12456822e-04
2.19500000e-01	1.95149091e-02	3.12264197e-04
2.20000000e-01	1.92746364e-02	3.10280134e-04
2.20500000e-01	1.97499703e-02	3.18111849e-04
2.21000000e-01	1.94961430e-02	3.15306805e-04
2.21500000e-01	1.96290492e-02	3.18654804e-04
2.22000000e-01	1.97512231e-02	3.19646602e-04
2.22500000e-01	1.97942555e-02	3.20220596e-04
2.23000000e-01	1.92875960e-02	3.13205785e-04
2.23500000e-01	1.95731656e-02	3.18952928e-04
2.24000000e-01	1.96372216e-02	3.20882987e-04
2.24500000e-01	1.95884978e-02	3.21079472e-04
2.25000000e-01	1.95813692e-02	3.20051856e-04
2.25500000e-01	1.94986142e-02	3.20367763e-04
2.26000000e-01	1.93642951e-02	3.19744267e-04
2.26500000e-01	1.96567635e-02	3.18786132e-04
2.27000000e-01	1.95778406e-02	3.14144053e-04
2.27500000e-01	1.96223818e-02	3.12858052e-04
2.28000000e-01	1.95093278e-02	3.10397763e-04
2.28500000e-01	1.94178202e-02	3.06405047e-04
2.29000000e-01	1.96199324e-02	3.07423608e-04
2.29500000e-01	1.95729130e-02	3.06567165e-04
2.30000000e-01	1.93503150e-02	3.02059031e-04
2.30500000e-01	1.95696752e-02	3.03884147e-04
2.31000000e-01	1.92504097e-02	2.98902823e-04
2.31500000e-01	1.91060814e-02	2.96214137e-04
2.32000000e-01	1.94202669e-02	3.00081386e-04
2.32500000e-01	1.92167397e-02	2.97542280e-04
2.33000000e-01	1.92122920e-02	2.96155426e-04
2.33500000e-01	1.92868768e-02	2.95929222e-04
2.34000000e-01	1.91998156e-02	2.94742459e-04
2.34500000e-01	1.90423243e-02	2.91169806e-04
2.35000000e-01	1.91326560e-02	2.92726221e-04
2.35500000e-01	1.91479000e-02	2.92125057e-04
2.36000000e-01	1.92064445e-02	2.92778938e-04
2.36500000e-01	1.93337296e-02	2.94408234e-04
2.37000000e-01	1.88938154e-02	2.87822959e-04
2.37500000e-01	1.88191353e-02	2.85923844e-04
2.38000000e-01	1.91256109e-02	2.88522738e-04
2.38500000e-01	1.91321484e-02	2.89899188e-04
2.39000000e-01	1.90454072e-02	2.86216044e-04
2.39500000e-01	1.89341022e-02	2.84681873e-04
2.40000000e-01	1.90694994e-02	2.87195772e-04
2.40500000e-01	1.90051929e-02	2.84080061e-04
2.41000000e-01	1.87164752e-02	2.80272714e-04
2.41500000e-01	1.89290200e-02	2.82407037e-04
2.42000000e-01	1.90420795e-02	2.83374175e-04
2.42500000e-01	1.88210958e-02	2.79669356e-04
2.43000000e-01	1.90640136e-02	2.82960636e-04
2.43500000e-01	1.89465828e-02	2.81210155e-04
2.44000000e-01	1.89159609e-02	2.81489825e-04
2.44500000e-01	1.87394778e-02	2.76678920e-04
2.45000000e-01	1.90009497e-02	2.80303638e-04
2.45500000e-01	1.87563841e-02	2.77077293e-04
2.46000000e-01	1.89182431e-02	2.79677605e-04
2.46500000e-01	1.86087122e-02	2.74617028e-04
2.47000000e-01	1.86326844e-02	2.75344854e-04
2.47500000e-01	1.88231753e-02	2.75325291e-04
2.48000000e-01	1.86723147e-02	2.74270512e-04
2.48500000e-01	1.87860771e-02	2.75621744e-04
2.49000000e-01	1.90264145e-02	2.77195142e-04
2.49500000e-01	1.87217028e-02	2.74533175e-04
2.50000000e-01	1.86780305e-02	2.73055225e-04
2.50500000e-01	1.87155427e-02	2.73521308e-04
2.51000000e-01	1.87764973e-02	2.73315152e-04
2.51500000e-01	1.89457894e-02	2.76935882e-04
2.52000000e-01	1.84299718e-02	2.69951066e-04
2.52500000e-01	1.88302798e-02	2.73571705e-04
2.53000000e-01	1.85927819e-02	2.70432476e-04
2.53500000e-01	1.88649931e-02	2.73224107e-04
2.54000000e-01	1.88368857e-02	2.73052595e-04
2.54500000e-01	1.85850384e-02	2.68251494e-04
2.55000000e-01	1.87547910e-02	2.71328516e-04
2.55500000e-01	1.87467124e-02	2.71138453e-04
2.56000000e-01	1.88140124e-02	2.70618966e-04
2.56500000e-01	1.89915186e-02	2.74318955e-04
2.57000000e-01	1.86021091e-02	2.67253797e-04
2.57500000e-01	1.86531228e-02	2.67654294e-04
2.58000000e-01	1.89047582e-02	2.71110152e-04
2.58500000e-01	1.84932113e-02	2.65737044e-04
2.59000000e-01	1.85486244e-02	2.65219527e-04
2.59500000e-01	1.85331171e-02	2.65213551e-04
2.60000000e-01	1.87178955e-02	2.67694521e-04
2.60500000e-01	1.84975970e-02	2.65099608e-04
2.61000000e-01	1.86946820e-02	2.66394913e-04
2.61500000e-01	1.86282969e-02	2.66215081e-04
2.62000000e-01	1.84827174e-02	2.63927209e-04
2.62500000e-01	1.85860121e-02	2.64029662e-04
2.63000000e-01	1.87238725e-02	2.66319603e-04
2.63500000e-01	1.84264380e-02	2.61474025e-04
2.64000000e-01	1.87948250e-02	2.66952910e-04
2.64500000e-01	1.83499593e-02	2.59803977e-04
2.65000000e-01	1.84821179e-02	2.62040529e-04
2.65500000e-01	1.83643920e-02	2.60586552e-04
2.66000000e-01	1.82596319e-02	2.58598688e-04
2.66500000e-01	1.84403794e-02	2.61057067e-04
2.67000000e-01	1.85186723e-02	2.60928989e-04
2.67500000e-01	1.85237273e-02	2.60553361e-04
2.68000000e-01	1.83982605e-02	2.58818960e-04
2.68500000e-01	1.81453544e-02	2.55567658e-04
2.69000000e-01	1.83847670e-02	2.57656260e-04
2.69500000e-01	1.82355508e-02	2.55728132e-04
2.70000000e-01	1.83037042e-02	2.56043247e-04
2.70500000e-01	1.82576577e-02	2.55215031e-04
2.71000000e-01	1.83490254e-02	2.54701488e-04
2.71500000e-01	1.84634903e-02	2.57643901e-04
2.72000000e-01	1.83778227e-02	2.54946892e-04
2.72500000e-01	1.83390116e-02	2.56344575e-04
2.73000000e-01	1.81985035e-02	2.53430251e-04
2.73500000e-01	1.84999763e-02	2.56375810e-04
2.74000000e-01	1.79985673e-02	2.51029258e-04
2.74500000e-01	1.84295064e-02	2.55177809e-04
2.75000000e-01	1.82656899e-02	2.53423464e-04
2.75500000e-01	1.82742444e-02	2.54329799e-04
2.76000000e-01	1.81421977e-02	2.52264477e-04
2.76500000e-01	1.83253152e-02	2.53941107e-04
2.77000000e-01	1.80097146e-02	2.49977553e-04
2.77500000e-01	1.82765470e-02	2.53044956e-04
2.78000000e-01	1.82107157e-02	2.50848878e-04
2.78500000e-01	1.81709348e-02	2.52173547e-04
2.79000000e-01	1.80108451e-02	2.47931297e-04
2.79500000e-01	1.81271604e-02	2.49536273e-04
2.80000000e-01	1.83403592e-02	2.52740810e-04
2.80500000e-01	1.82600860e-02	2.51126680e-04
2.81000000e-01	1.81151379e-02	2.48640503e-04
2.81500000e-01	1.81150660e-02	2.48177908e-04
2.82000000e-01	1.81609310e-02	2.49220812e-04
2.82500000e-01	1.82689329e-02	2.50868136e-04
2.83000000e-01	1.80925216e-02	2.47380839e-04
2.83500000e-01	1.80530623e-02	2.46558739e-04
2.84000000e-01	1.80000510e-02	2.46104777e-04
2.84500000e-01	1.81530886e-02	2.47596717e-04
2.85000000e-01	1.79574716e-02	2.44973811e-04
2.85500000e-01	1.79908404e-02	2.44717432e-04
2.86000000e-01	1.81394901e-02	2.47188730e-04
2.86500000e-01	1.80772836e-02	2.45471856e-04
2.87000000e-01	1.83905800e-02	2.49938895e-04
2.87500000e-01	1.81517902e-02	2.45647396e-04
2.88000000e-01	1.79979393e-02	2.43798049e-04
2.88500000e-01	1.79927765e-02	2.44460448e-04
2.89000000e-01	1.79568412e-02	2.43458512e-04
2.89500000e-01	1.80349989e-02	2.43410472e-04
2.90000000e-01	1.79291375e-02	2.42306492e-04
2.90500000e-01	1.81289350e-02	2.44255064e-04
2.91000000e-01	1.79934700e-02	2.42674990e-04
2.91500000e-01	1.80108003e-02	2.42862613e-04
2.92000000e-01	1.78603802e-02	2.40455907e-04
2.92500000e-01	1.78346089e-02	2.39799204e-04
2.93000000e-01	1.79033071e-02	2.39549130e-04
2.93500000e-01	1.79541236e-02	2.41337942e-04
2.94000000e-01	1.77864917e-02	2.38108141e-04
2.94500000e-01	1.80180855e-02	2.41222810e-04
2.95000000e-01	1.79380668e-02	2.39922659e-04
2.95500000e-01	1.77617850e-02	2.38700909e-04
2.96000000e-01	1.80874860e-02	2.41233023e-04
2.96500000e-01	1.78288662e-02	2.37326946e-04
2.97000000e-01	1.77431001e-02	2.37195816e-04
2.97500000e-01	1.79744715e-02	2.39262995e-04
2.98000000e-01	1.78847872e-02	2.38947455e-04
2.98500000e-01	1.78078880e-02	2.37905837e-04
2.99000000e-01	1.77730358e-02	2.36298250e-04
2.99500000e-01	1.77300666e-02	2.36601517e-04
3.00000000e-01	1.78150500e-02	2.36398537e-04
3.00500000e-01	1.78784710e-02	2.37062825e-04
3.01000000e-01	1.77998212e-02	2.35001118e-04
3.01500000e-01	1.78641811e-02	2.36840446e-04
3.02000000e-01	1.77623044e-02	2.36620126e-04
3.02500000e-01	1.78029658e-02	2.35322698e-04
3.03000000e-01	1.78714551e-02	2.36574058e-04
3.03500000e-01	1.77455287e-02	2.34259519e-04
3.04000000e-01	1.78096872e-02	2.34846371e-04
3.04500000e-01	1.77247938e-02	2.34234638e-04
3.05000000e-01	1.75262464e-02	2.31456605e-04
3.05500000e-01	1.77356989e-02	2.32859663e-04
3.06000000e-01	1.76830786e-02	2.31509640e-04
3.06500000e-01	1.75808290e-02	2.31158073e-04
3.07000000e-01	1.79182319e-02	2.34365966e-04
3.07500000e-01	1.77386689e-02	2.32745661e-04
3.08000000e-01	1.77958410e-02	2.33013197e-04
3.08500000e-01	1.76420203e-02	2.31083125e-04
3.09000000e-01	1.77330845e-02	2.32353703e-04
3.09500000e-01	1.77181217e-02	2.31085423e-04
3.10000000e-01	1.76657007e-02	2.30768162e-04
3.10500000e-01	1.76152591e-02	2.29900384e-04
3.11000000e-01	1.76001328e-02	2.29375973e-04
3.11500000e-01	1.76887071e-02	2.30014056e-04
3.12000000e-01	1.74961635e-02	2.28361081e-04
3.12500000e-01	1.75589090e-02	2.28795873e-04
3.13000000e-01	1.75762973e-02	2.28811380e-04
3.13500000e-01	1.74840815e-02	2.27525915e-04
3.14000000e-01	1.76240512e-02	2.29465984e-04
3.14500000e-01	1.74865572e-02	2.26767868e-04
3.15000000e-01	1.74752424e-02	2.26952017e-04
3.15500000e-01	1.74685158e-02	2.26907774e-04
3.16000000e-01	1.74179557e-02	2.26068726e-04
3.16500000e-01	1.73165643e-02	2.24388261e-04
3.17000000e-01	1.73307412e-02	2.24359009e-04
3.17500000e-01	1.76585551e-02	2.28490112e-04
3.18000000e-01	1.74520099e-02	2.25613203e-04
3.18500000e-01	1.75296409e-02	2.26993229e-04
3.19000000e-01	1.76488502e-02	2.27264577e-04
3.19500000e-01	1.75814859e-02	2.26195177e-04
3.20000000e-01	1.76619134e-02	2.27187281e-04
3.20500000e-01	1.75231970e-02	2.25077765e-04
3.21000000e-01	1.73591827e-02	2.23563625e-04
3.21500000e-01	1.74254177e-02	2.24347342e-04
3.22000000e-01	1.72346897e-02	2.21519715e-04
3.22500000e-01	1.75577993e-02	2.25199381e-04
3.23000000e-01	1.72477505e-02	2.21342720e-04
3.23500000e-01	1.73549609e-02	2.21717882e-04
3.24000000e-01	1.70353578e-02	2.18256154e-04
3.24500000e-01	1.73241469e-02	2.22373217e-04
3.25000000e-01	1.72357102e-02	2.20413105e-04
3.25500000e-01	1.71606635e-02	2.19414909e-04
3.26000000e-01	1.72285900e-02	2.19795069e-04
3.26500000e-01	1.70004668e-02	2.16382484e-04
3.27000000e-01	1.72714181e-02	2.20637766e-04
3.27500000e-01	1.72165055e-02	2.19386205e-04
3.28000000e-01	1.73211508e-02	2.20627552e-04
3.28500000e-01	1.72705089e-02	2.19368683e-04
3.29000000e-01	1.72869052e-02	2.18995831e-04
3.29500000e-01	1.72964991e-02	2.20044971e-04
3.30000000e-01	1.73350885e-02	2.19315031e-04
3.30500000e-01	1.72743582e-02	2.19585894e-04
3.31000000e-01	1.70908863e-02	2.15949895e-04
3.31500000e-01	1.72310774e-02	2.18892877e-04
3.32000000e-01	1.71585108e-02	2.18208928e-04
3.32500000e-01	1.71201208e-02	2.16512435e-04
3.33000000e-01	1.72471537e-02	2.17851856e-04
3.33500000e-01	1.72947483e-02	2.17575234e-04
3.34000000e-01	1.70378310e-02	2.14948362e-04
3.34500000e-01	1.71719541e-02	2.16981294e-04
3.35000000e-01	1.71033541e-02	2.15436434e-04
3.35500000e-01	1.71116226e-02	2.15278133e-04
3.36000000e-01	1.71863223e-02	2.16482487e-04
3.36500000e-01	1.69938227e-02	2.14067230e-04
3.37000000e-01	1.70094707e-02	2.12814860e-04
3.37500000e-01	1.70565593e-02	2.13185051e-04
3.38000000e-01	1.71718637e-02	2.15225111e-04
3.38500000e-01	1.71287556e-02	2.13960465e-04
3.39000000e-01	1.70367593e-02	2.13894105e-04
3.39500000e-01	1.69915237e-02	2.13228906e-04
3.40000000e-01	1.71121165e-02	2.13506201e-04
3.40500000e-01	1.71810519e-02	2.14292099e-04
3.41000000e-01	1.70736024e-02	2.12898068e-04
3.41500000e-01	1.71845088e-02	2.15025882e-04
3.42000000e-01	1.69964460e-02	2.11644341e-04
3.42500000e-01	1.71165668e-02	2.13671190e-04
3.43000000e-01	1.69460141e-02	2.10302766e-04
3.43500000e-01	1.70951706e-02	2.11802329e-04
3.44000000e-01	1.69992523e-02	2.12078554e-04
3.44500000e-01	1.69428947e-02	2.11133221e-04
3.45000000e-01	1.68833437e-02	2.08744789e-04
3.45500000e-01	1.69205857e-02	2.09450998e-04
3.46000000e-01	1.69183941e-02	2.10552833e-04
3.46500000e-01	1.67588260e-02	2.07429557e-04
3.47000000e-01	1.69206887e-02	2.09321032e-04
3.47500000e-01	1.68546682e-02	2.08885858e-04
3.48000000e-01	1.70499134e-02	2.11310455e-04
3.48500000e-01	1.69096475e-02	2.09298797e-04
3.49000000e-01	1.68961509e-02	2.08634339e-04
3.49500000e-01	1.67259137e-02	2.06874443e-04
3.50000000e-01	1.68358921e-02	1.69865472e-04
3.51000000e-01	1.68060029e-02	1.46572647e-04
3.52000000e-01	1.67747379e-02	1.46431977e-04
3.53000000e-01	1.67331014e-02	1.45083491e-04
3.54000000e-01	1.66477137e-02	1.44609375e-04
3.55000000e-01	1.67058450e-02	1.44574544e-04
3.56000000e-01	1.66748110e-02	1.45245444e-04
3.57000000e-01	1.67294324e-02	1.48277704e-04
3.58000000e-01	1.66222971e-02	1.48432871e-04
3.59000000e-01	1.65660141e-02	1.48893002e-04
3.60000000e-01	1.64973521e-02	1.49300568e-04
3.61000000e-01	1.66278813e-02	1.51094883e-04
3.62000000e-01	1.65837466e-02	1.51212755e-04
3.63000000e-01	1.66065119e-02	1.52238148e-04
3.64000000e-01	1.65064025e-02	1.51836974e-04
3.65000000e-01	1.65565436e-02	1.52701863e-04
3.66000000e-01	1.65046747e-02	1.50448239e-04
3.67000000e-01	1.66073687e-02	1.49325986e-04
3.68000000e-01	1.64253964e-02	1.46639200e-04
3.69000000e-01	1.65544781e-02	1.47278836e-04
3.70000000e-01	1.64400127e-02	1.45170059e-04
3.71000000e-01	1.64498299e-02	1.47386638e-04
3.72000000e-01	1.65412559e-02	1.49142815e-04
3.73000000e-01	1.65607369e-02	1.49647261e-04
3.74000000e-01	1.64057195e-02	1.48507985e-04
3.75000000e-01	1.62982653e-02	1.47445527e-04
3.76000000e-01	1.62485114e-02	1.47049966e-04
3.77000000e-01	1.63408203e-02	1.48012956e-04
3.78000000e-01	1.63143514e-02	1.47991152e-04
3.79000000e-01	1.64443590e-02	1.48643145e-04
3.80000000e-01	1.63199494e-02	1.47362871e-04
3.81000000e-01	1.62979739e-02	1.47298627e-04
3.82000000e-01	1.62675372e-02	1.47247369e-04
3.83000000e-01	1.62933849e-02	1.47073324e-04
3.84000000e-01	1.61208752e-02	1.45930834e-04
3.85000000e-01	1.61130488e-02	1.46075420e-04
3.86000000e-01	1.61806965e-02	1.46538294e-04
3.87000000e-01	1.61226103e-02	1.45958262e-04
3.88000000e-01	1.62442293e-02	1.46030896e-04
3.89000000e-01	1.59552572e-02	1.44409687e-04
3.90000000e-01	1.61425177e-02	1.45540913e-04
3.91000000e-01	1.62800452e-02	1.47088614e-04
3.92000000e-01	1.61703210e-02	1.45424538e-04
3.93000000e-01	1.61002811e-02	1.44911222e-04
3.94000000e-01	1.61914454e-02	1.45584733e-04
3.95000000e-01	1.60028796e-02	1.44199147e-04
3.96000000e-01	1.61398174e-02	1.45158257e-04
3.97000000e-01	1.60360377e-02	1.44435702e-04
3.98000000e-01	1.61595860e-02	1.45407233e-04
3.99000000e-01	1.60765041e-02	1.45022659e-04
4.00000000e-01	1.60056799e-02	1.44604444e-04
4.01000000e-01	1.59746348e-02	1.43881042e-04
4.02000000e-01	1.59157823e-02	1.43415676e-04
4.03000000e-01	1.60156183e-02	1.44279970e-04
4.04000000e-01	1.60358478e-02	1.44529693e-04
4.05000000e-01	1.59186761e-02	1.42895972e-04
4.06000000e-01	1.59997709e-02	1.43925083e-04
4.07000000e-01	1.59269078e-02	1.43065707e-04
4.08000000e-01	1.58462634e-02	1.42216339e-04
4.09000000e-01	1.58868723e-02	1.42590170e-04
4.10000000e-01	1.57756763e-02	1.41829475e-04
4.11000000e-01	1.59092388e-02	1.42822389e-04
4.12000000e-01	1.59033848e-02	1.43427896e-04
4.13000000e-01	1.58484419e-02	1.42272461e-04
4.14000000e-01	1.58923889e-02	1.42500224e-04
4.15000000e-01	1.59201418e-02	1.42568903e-04
4.16000000e-01	1.58230176e-02	1.41970289e-04
4.17000000e-01	1.58747349e-02	1.42090781e-04
4.18000000e-01	1.56832524e-02	1.42168159e-04
4.19000000e-01	1.58516675e-02	1.45516072e-04
4.20000000e-01	1.58034832e-02	1.45939776e-04
4.21000000e-01	1.58115464e-02	1.46087831e-04
4.22000000e-01	1.59335362e-02	1.48254846e-04
4.23000000e-01	1.58426514e-02	1.47969864e-04
4.24000000e-01	1.58317431e-02	1.48041370e-04
4.25000000e-01	1.58605640e-02	1.48374016e-04
4.26000000e-01	1.58352724e-02	1.48160715e-04
4.27000000e-01	1.59147578e-02	1.48590116e-04
4.28000000e-01	1.58056321e-02	1.48585301e-04
4.29000000e-01	1.57892074e-02	1.48500680e-04
4.30000000e-01	1.57507278e-02	1.47858644e-04
4.31000000e-01	1.57715717e-02	1.48019054e-04
4.32000000e-01	1.57401505e-02	1.48039502e-04
4.33000000e-01	1.57297909e-02	1.47749614e-04
4.34000000e-01	1.57243600e-02	1.47816970e-04
4.35000000e-01	1.56387333e-02	1.47984916e-04
4.36000000e-01	1.56440312e-02	1.47997699e-04
4.37000000e-01	1.56511500e-02	1.48110427e-04
4.38000000e-01	1.54687676e-02	1.46661161e-04
4.39000000e-01	1.57241197e-02	1.49045928e-04
4.40000000e-01	1.56914665e-02	1.48558655e-04
4.41000000e-01	1.55863339e-02	1.47981354e-04
4.42000000e-01	1.56064890e-02	1.48978699e-04
4.43000000e-01	1.56299562e-02	1.48624189e-04
4.44000000e-01	1.55741677e-02	1.48549414e-04
4.45000000e-01	1.55768553e-02	1.48695286e-04
4.46000000e-01	1.56463891e-02	1.49366859e-04
4.47000000e-01	1.54635055e-02	1.48065328e-04
4.48000000e-01	1.56410313e-02	1.49549699e-04
4.49000000e-01	1.55523603e-02	1.49232154e-04
4.50000000e-01	1.54260370e-02	1.48266518e-04
4.51000000e-01	1.55778103e-02	1.49754497e-04
4.52000000e-01	1.55759113e-02	1.49791241e-04
4.53000000e-01	1.54194211e-02	1.48149916e-04
4.54000000e-01	1.55266374e-02	1.49754276e-04
4.55000000e-01	1.53869825e-02	1.48304662e-04
4.56000000e-01	1.54864573e-02	1.49828649e-04
4.57000000e-01	1.54775108e-02	1.49103423e-04
4.58000000e-01	1.54437123e-02	1.49115007e-04
4.59000000e-01	1.53467840e-02	1.48500013e-04
4.60000000e-01	1.54471566e-02	1.49135616e-04
4.61000000e-01	1.55688047e-02	1.50707679e-04
4.62000000e-01	1.55780378e-02	1.50765254e-04
4.63000000e-01	1.54929108e-02	1.50317784e-04
4.64000000e-01	1.54182135e-02	1.49856835e-04
4.65000000e-01	1.52626517e-02	1.48353788e-04
4.66000000e-01	1.54194922e-02	1.50158510e-04
4.67000000e-01	1.54169794e-02	1.50075826e-04
4.68000000e-01	1.52519848e-02	1.48464142e-04
4.69000000e-01	1.52076935e-02	1.48654441e-04
4.70000000e-01	1.53003516e-02	1.49689435e-04
4.71000000e-01	1.53042038e-02	1.49397653e-04
4.72000000e-01	1.51558919e-02	1.47518858e-04
4.73000000e-01	1.52944382e-02	1.48552018e-04
4.74000000e-01	1.52745171e-02	1.48835142e-04
4.75000000e-01	1.51988814e-02	1.48084966e-04
4.76000000e-01	1.53151569e-02	1.49160180e-04
4.77000000e-01	1.53586305e-02	1.49576571e-04
4.78000000e-01	1.51319352e-02	1.47962527e-04
4.79000000e-01	1.51248475e-02	1.47516448e-04
4.80000000e-01	1.50889988e-02	1.47442625e-04
4.81000000e-01	1.51372510e-02	1.48148193e-04
4.82000000e-01	1.51791170e-02	1.48578737e-04
4.83000000e-01	1.51366871e-02	1.47970182e-04
4.84000000e-01	1.51159677e-02	1.48122685e-04
4.85000000e-01	1.52017004e-02	1.49101126e-04
4.86000000e-01	1.52204172e-02	1.48880601e-04
4.87000000e-01	1.51173009e-02	1.47907331e-04
4.88000000e-01	1.51100380e-02	1.48711204e-04
4.89000000e-01	1.51506265e-02	1.48872032e-04
4.90000000e-01	1.50599444e-02	1.47783111e-04
4.91000000e-01	1.50893196e-02	1.48341909e-04
4.92000000e-01	1.51443375e-02	1.48884468e-04
4.93000000e-01	1.51848221e-02	1.49325852e-04
4.94000000e-01	1.51577208e-02	1.49401938e-04
4.95000000e-01	1.52321082e-02	1.50906338e-04
4.96000000e-01	1.49128395e-02	1.52045483e-04
4.97000000e-01	1.50628905e-02	1.56936341e-04
4.98000000e-01	1.50823277e-02	1.58629152e-04
4.99000000e-01	1.50731036e-02	1.61134410e-04
5.00000000e-01	1.50908644e-02	1.62226619e-04
5.01000000e-01	1.50083318e-02	1.63387450e-04
5.02000000e-01	1.51019893e-02	1.65482405e-04
5.03000000e-01	1.51391177e-02	1.67952139e-04
5.04000000e-01	1.50055913e-02	1.67868011e-04
5.05000000e-01	1.52003195e-02	1.67343046e-04
5.06000000e-01	1.51216917e-02	1.62346886e-04
5.07000000e-01	1.49589420e-02	1.59330105e-04
5.08000000e-01	1.51192206e-02	1.59775055e-04
5.09000000e-01	1.50769995e-02	1.58437350e-04
5.10000000e-01	1.50488192e-02	1.57855899e-04
5.11000000e-01	1.51191211e-02	1.58442228e-04
5.12000000e-01	1.49557848e-02	1.57181521e-04
5.13000000e-01	1.49952333e-02	1.56795503e-04
5.14000000e-01	1.49067695e-02	1.55418412e-04
5.15000000e-01	1.48482862e-02	1.54507162e-04
5.16000000e-01	1.49896600e-02	1.55608697e-04
5.17000000e-01	1.49974848e-02	1.55836687e-04
5.18000000e-01	1.47320288e-02	1.52491823e-04
5.19000000e-01	1.48246686e-02	1.53108723e-04
5.20000000e-01	1.49254140e-02	1.53336636e-04
5.21000000e-01	1.47710827e-02	1.52592611e-04
5.22000000e-01	1.49463838e-02	1.53333173e-04
5.23000000e-01	1.49679540e-02	1.53693380e-04
5.24000000e-01	1.48456922e-02	1.52355665e-04
5.25000000e-01	1.48887868e-02	1.52624401e-04
5.26000000e-01	1.48145966e-02	1.51962037e-04
5.27000000e-01	1.48891510e-02	1.53105320e-04
5.28000000e-01	1.49483946e-02	1.53718412e-04
5.29000000e-01	1.47367794e-02	1.51469267e-04
5.30000000e-01	1.49302555e-02	1.53435367e-04
5.31000000e-01	1.47081249e-02	1.51059996e-04
5.32000000e-01	1.49101380e-02	1.53408418e-04
5.33000000e-01	1.48577464e-02	1.52406764e-04
5.34000000e-01	1.46204794e-02	1.50434705e-04
5.35000000e-01	1.47783857e-02	1.51587239e-04
5.36000000e-01	1.46716261e-02	1.50821560e-04
5.37000000e-01	1.47964953e-02	1.51680085e-04
5.38000000e-01	1.47901088e-02	1.51779204e-04
5.39000000e-01	1.46930680e-02	1.50787509e-04
5.40000000e-01	1.47557223e-02	1.51109628e-04
5.41000000e-01	1.47916610e-02	1.51959656e-04
5.42000000e-01	1.48007193e-02	1.51712095e-04
5.43000000e-01	1.47280168e-02	1.51323346e-04
5.44000000e-01	1.45358826e-02	1.48807683e-04
5.45000000e-01	1.46901620e-02	1.50469325e-04
5.46000000e-01	1.46621130e-02	1.50415468e-04
5.47000000e-01	1.45681948e-02	1.49628741e-04
5.48000000e-01	1.46091123e-02	1.50298225e-04
5.49000000e-01	1.46452190e-02	1.50461293e-04
5.50000000e-01	1.46405532e-02	1.50277766e-04
5.51000000e-01	1.45489445e-02	1.49358806e-04
5.52000000e-01	1.45323992e-02	1.48704904e-04
5.53000000e-01	1.47468635e-02	1.50365616e-04
5.54000000e-01	1.43586913e-02	1.46753751e-04
5.55000000e-01	1.45976992e-02	1.48991734e-04
5.56000000e-01	1.47095664e-02	1.49973638e-04
5.57000000e-01	1.45602430e-02	1.48674400e-04
5.58000000e-01	1.45349269e-02	1.48368110e-04
5.59000000e-01	1.45064027e-02	1.48091152e-04
5.60000000e-01	1.44853972e-02	1.47989495e-04
5.61000000e-01	1.45036106e-02	1.48026584e-04
5.62000000e-01	1.44556576e-02	1.47636485e-04
5.63000000e-01	1.44333906e-02	1.47416743e-04
5.64000000e-01	1.44266373e-02	1.47444429e-04
5.65000000e-01	1.43621917e-02	1.47005458e-04
5.66000000e-01	1.44441259e-02	1.46962094e-04
5.67000000e-01	1.44532242e-02	1.48058393e-04
5.68000000e-01	1.42972257e-02	1.46042697e-04
5.69000000e-01	1.44448530e-02	1.46952735e-04
5.70000000e-01	1.44256914e-02	1.46972364e-04
5.71000000e-01	1.44711346e-02	1.47881373e-04
5.72000000e-01	1.43280840e-02	1.46562195e-04
5.73000000e-01	1.44530544e-02	1.47861820e-04
5.74000000e-01	1.43189845e-02	1.46352478e-04
5.75000000e-01	1.43812118e-02	1.47327285e-04
5.76000000e-01	1.43492499e-02	1.47065696e-04
5.77000000e-01	1.42771480e-02	1.46236160e-04
5.78000000e-01	1.42194251e-02	1.45860090e-04
5.79000000e-01	1.43124492e-02	1.46657468e-04
5.80000000e-01	1.43929592e-02	1.47619757e-04
5.81000000e-01	1.42480019e-02	1.45979350e-04
5.82000000e-01	1.43428109e-02	1.46710852e-04
5.83000000e-01	1.42573980e-02	1.46202205e-04
5.84000000e-01	1.41915113e-02	1.45387969e-04
5.85000000e-01	1.42339880e-02	1.45574494e-04
5.86000000e-01	1.43114737e-02	1.46352617e-04
5.87000000e-01	1.42891988e-02	1.46196783e-04
5.88000000e-01	1.41542058e-02	1.45024612e-04
5.89000000e-01	1.43085215e-02	1.46458310e-04
5.90000000e-01	1.43131046e-02	1.46561237e-04
5.91000000e-01	1.43306111e-02	1.47326825e-04
5.92000000e-01	1.42466443e-02	1.46152210e-04
5.93000000e-01	1.41873217e-02	1.45611467e-04
5.94000000e-01	1.41953867e-02	1.45434212e-04
5.95000000e-01	1.42264548e-02	1.45385686e-04
5.96000000e-01	1.42032553e-02	1.45664944e-04
5.97000000e-01	1.42619360e-02	1.46421201e-04
5.98000000e-01	1.41605077e-02	1.44903649e-04
5.99000000e-01	1.41479330e-02	1.45449865e-04
6.00000000e-01	1.41785778e-02	1.45975353e-04
6.01000000e-01	1.42692845e-02	1.46517513e-04
6.02000000e-01	1.41621657e-02	1.45195936e-04
6.03000000e-01	1.41482824e-02	1.45367596e-04
6.04000000e-01	1.40942138e-02	1.45060610e-04
6.05000000e-01	1.41583837e-02	1.45355501e-04
6.06000000e-01	1.41528080e-02	1.45884055e-04
6.07000000e-01	1.41176731e-02	1.45421635e-04
6.08000000e-01	1.42454777e-02	1.46231727e-04
6.09000000e-01	1.42999651e-02	1.46550027e-04
6.10000000e-01	1.41481847e-02	1.45877094e-04
6.11000000e-01	1.40844319e-02	1.44903250e-04
6.12000000e-01	1.41817260e-02	1.45856402e-04
6.13000000e-01	1.41394915e-02	1.45634827e-04
6.14000000e-01	1.41254200e-02	1.45656864e-04
6.15000000e-01	1.42200146e-02	1.45820982e-04
6.16000000e-01	1.40763276e-02	1.44934382e-04
6.17000000e-01	1.39831269e-02	1.44076472e-04
6.18000000e-01	1.39986900e-02	1.44491589e-04
6.19000000e-01	1.40782538e-02	1.44526456e-04
6.20000000e-01	1.41169099e-02	1.45246587e-04
6.21000000e-01	1.39919583e-02	1.43711432e-04
6.22000000e-01	1.40144659e-02	1.43834499e-04
6.23000000e-01	1.39669333e-02	1.42790575e-04
6.24000000e-01	1.39279932e-02	1.42694978e-04
6.25000000e-01	1.40224673e-02	1.43172441e-04
6.26000000e-01	1.41399083e-02	1.44370536e-04
6.27000000e-01	1.39120831e-02	1.42478075e-04
6.28000000e-01	1.39194725e-02	1.42645626e-04
6.29000000e-01	1.40036992e-02	1.43308440e-04
6.30000000e-01	1.39279690e-02	1.42358620e-04
6.31000000e-01	1.39227108e-02	1.42263969e-04
6.32000000e-01	1.38000015e-02	1.41665258e-04
6.33000000e-01	1.39532644e-02	1.42609980e-04
6.34000000e-01	1.39246182e-02	1.46321563e-04
6.35000000e-01	1.38568432e-02	1.49623233e-04
6.36000000e-01	1.39031224e-02	1.52808205e-04
6.37000000e-01	1.40299672e-02	1.56157473e-04
6.38000000e-01	1.40753143e-02	1.59241276e-04
6.39000000e-01	1.39951401e-02	1.60171625e-04
6.40000000e-01	1.39117729e-02	1.61117082e-04
6.41000000e-01	1.39230235e-02	1.63386784e-04
6.42000000e-01	1.39703202e-02	1.65480392e-04
6.43000000e-01	1.40423602e-02	1.66368896e-04
6.44000000e-01	1.40520604e-02	1.60278814e-04
6.45000000e-01	1.39783527e-02	1.57330522e-04
6.46000000e-01	1.40133044e-02	1.56363310e-04
6.47000000e-01	1.38424044e-02	1.53168862e-04
6.48000000e-01	1.39944381e-02	1.53622329e-04
6.49000000e-01	1.39479917e-02	1.53106775e-04
6.50000000e-01	1.38536920e-02	1.50645075e-04
6.51000000e-01	1.38100414e-02	1.50121006e-04
6.52000000e-01	1.40828834e-02	1.52317212e-04
6.53000000e-01	1.40365670e-02	1.50520410e-04
6.54000000e-01	1.36805041e-02	1.47075162e-04
6.55000000e-01	1.40257245e-02	1.49895843e-04
6.56000000e-01	1.39912098e-02	1.49712264e-04
6.57000000e-01	1.40848561e-02	1.50146233e-04
6.58000000e-01	1.39399460e-02	1.48859736e-04
6.59000000e-01	1.39640991e-02	1.48381317e-04
6.60000000e-01	1.39305561e-02	1.48277116e-04
6.61000000e-01	1.38663581e-02	1.47552231e-04
6.62000000e-01	1.38183835e-02	1.47660489e-04
6.63000000e-01	1.40006683e-02	1.48702978e-04
6.64000000e-01	1.38435276e-02	1.46977841e-04
6.65000000e-01	1.37770765e-02	1.46513264e-04
6.66000000e-01	1.38762635e-02	1.47333774e-04
6.67000000e-01	1.38315683e-02	1.46794765e-04
6.68000000e-01	1.38470249e-02	1.46647400e-04
6.69000000e-01	1.37764370e-02	1.46427602e-04
6.70000000e-01	1.38624792e-02	1.47414819e-04
6.71000000e-01	1.36225518e-02	1.45148606e-04
6.72000000e-01	1.37541816e-02	1.45903587e-04
6.73000000e-01	1.37858412e-02	1.45823618e-04
6.74000000e-01	1.36680953e-02	1.45134004e-04
6.75000000e-01	1.37389656e-02	1.45151844e-04
6.76000000e-01	1.36727268e-02	1.44803521e-04
6.77000000e-01	1.36947585e-02	1.45451992e-04
6.78000000e-01	1.37452188e-02	1.45203591e-04
6.79000000e-01	1.35464831e-02	1.44049570e-04
6.80000000e-01	1.36451860e-02	1.44597953e-04
6.81000000e-01	1.35684735e-02	1.43936378e-04
6.82000000e-01	1.37831005e-02	1.45540333e-04
6.83000000e-01	1.37252739e-02	1.45106735e-04
6.84000000e-01	1.36471654e-02	1.43827403e-04
6.85000000e-01	1.36046684e-02	1.43995486e-04
6.86000000e-01	1.35144376e-02	1.43559259e-04
6.87000000e-01	1.37069251e-02	1.45065754e-04
6.88000000e-01	1.36910912e-02	1.44990131e-04
6.89000000e-01	1.35435751e-02	1.43170636e-04
6.90000000e-01	1.37132725e-02	1.44892112e-04
6.91000000e-01	1.35624811e-02	1.43558050e-04
6.92000000e-01	1.36592046e-02	1.44248554e-04
6.93000000e-01	1.36966200e-02	1.44412377e-04
6.94000000e-01	1.37079909e-02	1.44965557e-04
6.95000000e-01	1.36473369e-02	1.43935084e-04
6.96000000e-01	1.35594173e-02	1.43430411e-04
6.97000000e-01	1.35723023e-02	1.43593472e-04
6.98000000e-01	1.35394670e-02	1.42976254e-04
6.99000000e-01	1.36327283e-02	1.43867113e-04
7.00000000e-01	1.35566603e-02	1.43082546e-04
7.01000000e-01	1.35601889e-02	1.43330177e-04
7.02000000e-01	1.34231038e-02	1.41916661e-04
7.03000000e-01	1.35598378e-02	1.42965352e-04
7.04000000e-01	1.35356178e-02	1.42949346e-04
7.05000000e-01	1.36722296e-02	1.44289792e-04
7.06000000e-01	1.34872369e-02	1.42229478e-04
7.07000000e-01	1.36138089e-02	1.43372010e-04
7.08000000e-01	1.35196770e-02	1.42100666e-04
7.09000000e-01	1.33196729e-02	1.40607975e-04
7.10000000e-01	1.34142587e-02	1.41323279e-04
7.11000000e-01	1.33719802e-02	1.41121436e-04
7.12000000e-01	1.35053275e-02	1.41855787e-04
7.13000000e-01	1.33433764e-02	1.40738544e-04
7.14000000e-01	1.33056390e-02	1.40194963e-04
7.15000000e-01	1.32159540e-02	1.39685251e-04
7.16000000e-01	1.32802219e-02	1.40418910e-04
7.17000000e-01	1.33356478e-02	1.40686824e-04
7.18000000e-01	1.32706726e-02	1.39762173e-04
7.19000000e-01	1.32198111e-02	1.39753138e-04
7.20000000e-01	1.32886114e-02	1.40324005e-04
7.21000000e-01	1.32445523e-02	1.39867214e-04
7.22000000e-01	1.31134727e-02	1.38315561e-04
7.23000000e-01	1.32375783e-02	1.39513251e-04
7.24000000e-01	1.33854329e-02	1.41705484e-04
7.25000000e-01	1.34250783e-02	1.41784836e-04
7.26000000e-01	1.32913651e-02	1.40185351e-04
7.27000000e-01	1.34704124e-02	1.42365357e-04
7.28000000e-01	1.31792390e-02	1.39886148e-04
7.29000000e-01	1.31626037e-02	1.39172435e-04
7.30000000e-01	1.32554523e-02	1.40576535e-04
7.31000000e-01	1.32165440e-02	1.39654532e-04
7.32000000e-01	1.31491263e-02	1.38986745e-04
7.33000000e-01	1.30641919e-02	1.38417702e-04
7.34000000e-01	1.30019728e-02	1.37415134e-04
7.35000000e-01	1.31831190e-02	1.38982512e-04
7.36000000e-01	1.31824388e-02	1.38342750e-04
7.37000000e-01	1.31353602e-02	1.37826670e-04
7.38000000e-01	1.31475947e-02	1.37846404e-04
7.39000000e-01	1.31099473e-02	1.37254720e-04
7.40000000e-01	1.31553688e-02	1.37460234e-04
7.41000000e-01	1.31558294e-02	1.37114653e-04
7.42000000e-01	1.32999858e-02	1.38674793e-04
7.43000000e-01	1.29962278e-02	1.35352035e-04
7.44000000e-01	1.30862055e-02	1.36889019e-04
7.45000000e-01	1.31453539e-02	1.37686688e-04
7.46000000e-01	1.29630236e-02	1.35612913e-04
7.47000000e-01	1.29762185e-02	1.35525204e-04
7.48000000e-01	1.30213109e-02	1.36364490e-04
7.49000000e-01	1.30847892e-02	1.36487683e-04
7.50000000e-01	1.31493637e-02	1.37568852e-04
7.51000000e-01	1.29136621e-02	1.35152815e-04
7.52000000e-01	1.28371539e-02	1.34411948e-04
7.53000000e-01	1.29630266e-02	1.36001859e-04
7.54000000e-01	1.30458080e-02	1.36463526e-04
7.55000000e-01	1.30979585e-02	1.37163261e-04
7.56000000e-01	1.30752898e-02	1.37389997e-04
7.57000000e-01	1.30711005e-02	1.36640204e-04
7.58000000e-01	1.29459216e-02	1.35328232e-04
7.59000000e-01	1.28865075e-02	1.35171028e-04
7.60000000e-01	1.28608751e-02	1.34772907e-04
7.61000000e-01	1.30968392e-02	1.36254635e-04
7.62000000e-01	1.28590284e-02	1.33797432e-04
7.63000000e-01	1.29883187e-02	1.34902437e-04
7.64000000e-01	1.28986537e-02	1.33840306e-04
7.65000000e-01	1.28372210e-02	1.33354194e-04
7.66000000e-01	1.29122970e-02	1.34202715e-04
7.67000000e-01	1.26978044e-02	1.32182770e-04
7.68000000e-01	1.27184780e-02	1.31986890e-04
7.69000000e-01	1.28125045e-02	1.33083036e-04
7.70000000e-01	1.28660039e-02	1.33623590e-04
7.71000000e-01	1.30130688e-02	1.34870227e-04
7.72000000e-01	1.28073754e-02	1.36901474e-04
7.73000000e-01	1.27838804e-02	1.41517007e-04
7.74000000e-01	1.27113596e-02	1.43413745e-04
7.75000000e-01	1.29198946e-02	1.47625250e-04
7.76000000e-01	1.27004848e-02	1.48050382e-04
7.77000000e-01	1.28059516e-02	1.51111328e-04
7.78000000e-01	1.26559457e-02	1.52035200e-04
7.79000000e-01	1.28293700e-02	1.55005669e-04
7.80000000e-01	1.27072748e-02	1.55551024e-04
7.81000000e-01	1.27178362e-02	1.58692012e-04
7.82000000e-01	1.26533228e-02	1.58728523e-04
7.83000000e-01	1.25454875e-02	1.59379350e-04
7.84000000e-01	1.27389152e-02	1.63211786e-04
7.85000000e-01	1.26288741e-02	1.63689377e-04
7.86000000e-01	1.27231727e-02	1.67044473e-04
7.87000000e-01	1.25833291e-02	1.66192408e-04
7.88000000e-01	1.26998378e-02	1.69413952e-04
7.89000000e-01	1.25837306e-02	1.69829302e-04
7.90000000e-01	1.24685510e-02	1.69962396e-04
7.91000000e-01	1.25935386e-02	1.73519810e-04
7.92000000e-01	1.25063915e-02	1.73574041e-04
7.93000000e-01	1.24251043e-02	1.74829596e-04
7.94000000e-01	1.26482225e-02	1.79578906e-04
7.95000000e-01	1.24438797e-02	1.78353413e-04
7.96000000e-01	1.26131702e-02	1.82172963e-04
7.97000000e-01	1.24798104e-02	1.82312913e-04
7.98000000e-01	1.25446440e-02	1.85275749e-04
7.99000000e-01	1.23225472e-02	1.84072531e-04
8.00000000e-01	1.24144724e-02	1.86680190e-04
8.01000000e-01	1.24003383e-02	1.88517319e-04
8.02000000e-01	1.26887226e-02	1.96308140e-04
8.03000000e-01	1.23287322e-02	1.91724301e-04
8.04000000e-01	1.22479999e-02	1.92229586e-04
8.05000000e-01	1.23082417e-02	1.95369246e-04
8.06000000e-01	1.24505592e-02	1.99867728e-04
8.07000000e-01	1.27503088e-02	2.06054840e-04
8.08000000e-01	1.25231631e-02	2.05599785e-04
8.09000000e-01	1.24902026e-02	2.06401457e-04
8.10000000e-01	1.25123352e-02	2.09819389e-04
8.11000000e-01	1.22387562e-02	2.09025035e-04
8.12000000e-01	1.23107700e-02	2.12385596e-04
8.13000000e-01	1.22923499e-02	2.14101879e-04
8.14000000e-01	1.23708064e-02	2.16455679e-04
8.15000000e-01	1.23017086e-02	2.18258348e-04
8.16000000e-01	1.22589084e-02	2.19914013e-04
8.17000000e-01	1.19834260e-02	2.19451205e-04
8.18000000e-01	1.23478947e-02	2.26581609e-04
8.19000000e-01	1.19991930e-02	2.25154465e-04
8.20000000e-01	1.24067046e-02	2.34465070e-04
8.21000000e-01	1.23330913e-02	2.35115856e-04
8.22000000e-01	1.21629593e-02	2.36927161e-04
8.23000000e-01	1.21709598e-02	2.39560938e-04
8.24000000e-01	1.19556042e-02	2.40688198e-04
8.25000000e-01	1.19303643e-02	2.43041021e-04
8.26000000e-01	1.23426727e-02	2.52089293e-04
8.27000000e-01	1.20392804e-02	2.52078578e-04
8.28000000e-01	1.20653517e-02	2.57592390e-04
8.29000000e-01	1.24674130e-02	2.67420888e-04
8.30000000e-01	1.21752373e-02	2.66814379e-04
8.31000000e-01	1.19301413e-02	2.64521369e-04
8.32000000e-01	1.19067355e-02	2.69269365e-04
8.33000000e-01	1.20649384e-02	2.78207035e-04
8.34000000e-01	1.19801614e-02	2.78238872e-04
8.35000000e-01	1.19803392e-02	2.86559774e-04
8.36000000e-01	1.21719718e-02	2.95327563e-04
8.37000000e-01	1.21561982e-02	2.99817357e-04
8.38000000e-01	1.19091832e-02	3.01972158e-04
8.39000000e-01	1.20692108e-02	3.09372706e-04
8.40000000e-01	1.19800777e-02	3.13302488e-04
8.41000000e-01	1.17703388e-02	3.15789800e-04
8.42000000e-01	1.21270126e-02	3.36022235e-04
8.43000000e-01	1.19834287e-02	3.35873397e-04
8.44000000e-01	1.17860252e-02	3.39609108e-04
8.45000000e-01	1.16871490e-02	3.50227284e-04
8.46000000e-01	1.21157558e-02	3.63249841e-04
8.47000000e-01	1.19379599e-02	3.75076031e-04
8.48000000e-01	1.17100021e-02	3.79233057e-04
8.49000000e-01	1.21021420e-02	3.98192876e-04
8.50000000e-01	1.19039207e-02	4.09889301e-04
8.51000000e-01	1.20224299e-02	4.29096007e-04
8.52000000e-01	1.23447424e-02	4.52727368e-04
8.53000000e-01	1.17696537e-02	4.54793137e-04
8.54000000e-01	1.18564283e-02	4.80548174e-04
8.55000000e-01	1.13396174e-02	4.74839387e-04
8.56000000e-01	1.16201185e-02	5.01665579e-04
8.57000000e-01	1.11422261e-02	4.98684203e-04
8.58000000e-01	1.15371091e-02	5.27133746e-04
8.59000000e-01	1.19725606e-02	5.53492634e-04
8.60000000e-01	1.20440151e-02	5.81097917e-04
8.61000000e-01	1.11710336e-02	5.67645659e-04
8.62000000e-01	1.12626844e-02	5.85193261e-04
8.63000000e-01	1.19102940e-02	6.44896717e-04
8.64000000e-01	1.15407332e-02	6.51742880e-04
8.65000000e-01	1.14429572e-02	6.97839571e-04
8.66000000e-01	1.13026905e-02	7.07947651e-04
8.67000000e-01	1.10207584e-02	7.35682768e-04
8.68000000e-01	1.27047070e-02	8.74204427e-04
8.69000000e-01	1.17154919e-02	8.98329245e-04
8.70000000e-01	1.21066207e-02	1.00045192e-03
8.71000000e-01	1.18461072e-02	1.06729422e-03
8.72000000e-01	1.14633933e-02	1.20242867e-03
8.73000000e-01	1.24710540e-02	1.51044949e-03
8.74000000e-01	1.11612949e-02	1.83744821e-03
8.75000000e-01	1.03032090e-02	3.88747594e-03
