% Filename : SSW20_00038_00028.h5
% Date & Time : 30-Oct-2025 17:44:32
% X-ray Energy (keV) : 13.30001
% Exposure Time (s) : 0.500
% Beam Center : 1461.24000, 208.98300
% Sample to Detector Distance (SDD) (mm) : 1990.750
% Detector Pixel Size (mm) : 0.075
% Photodiode Value : 141149.000
% I0 of Sample : 0
% I0 of Standard : 1
% 
% q(A^-1)   I(q)    I(q)_SE
0.00000000e+00	1.53597007e-02	8.09527625e-03
2.50000000e-04	0.00000000e+00	0.00000000e+00
5.00000000e-04	0.00000000e+00	0.00000000e+00
7.50000000e-04	0.00000000e+00	0.00000000e+00
1.00000000e-03	0.00000000e+00	0.00000000e+00
1.25000000e-03	0.00000000e+00	0.00000000e+00
1.50000000e-03	0.00000000e+00	0.00000000e+00
1.75000000e-03	0.00000000e+00	0.00000000e+00
2.00000000e-03	0.00000000e+00	0.00000000e+00
2.25000000e-03	0.00000000e+00	0.00000000e+00
2.50000000e-03	0.00000000e+00	0.00000000e+00
2.75000000e-03	0.00000000e+00	0.00000000e+00
3.00000000e-03	0.00000000e+00	0.00000000e+00
3.25000000e-03	1.79658141e+03	1.33217575e+03
3.50000000e-03	5.06903710e+02	2.20740548e+02
3.75000000e-03	3.26732581e+02	1.29600719e+02
4.00000000e-03	3.18310184e+02	1.28727269e+02
4.25000000e-03	1.84132645e+02	7.13751862e+01
4.50000000e-03	1.91851058e+02	5.48498431e+01
4.75000000e-03	1.83685348e+02	5.18685811e+01
5.00000000e-03	2.04276815e+02	6.82599858e+01
5.25000000e-03	1.67404439e+02	4.61124173e+01
5.50000000e-03	1.70727826e+02	5.35290416e+01
5.75000000e-03	1.28170748e+02	3.58567834e+01
6.00000000e-03	9.22195860e+01	2.53843609e+01
6.25000000e-03	8.71102707e+01	2.47891376e+01
6.50000000e-03	8.56095282e+01	2.61895227e+01
6.75000000e-03	7.22462306e+01	2.09729249e+01
7.00000000e-03	6.36843581e+01	1.78587361e+01
7.25000000e-03	4.85365188e+01	1.40467082e+01
7.50000000e-03	3.89148830e+01	1.03201208e+01
7.75000000e-03	3.22850321e+01	8.12166911e+00
8.00000000e-03	3.99577748e+01	1.02255342e+01
8.25000000e-03	2.51094483e+01	5.71545809e+00
8.50000000e-03	2.17768533e+01	5.22800856e+00
8.75000000e-03	2.22920209e+01	5.87761269e+00
9.00000000e-03	2.00771090e+01	5.12852645e+00
9.25000000e-03	1.77727023e+01	3.79944218e+00
9.50000000e-03	1.49201662e+01	3.44810457e+00
9.75000000e-03	1.36619789e+01	3.15733921e+00
1.00000000e-02	1.16371048e+01	2.50818960e+00
1.02500000e-02	9.99599293e+00	2.11361911e+00
1.05000000e-02	1.21688239e+01	2.75708905e+00
1.07500000e-02	8.61233390e+00	1.82627244e+00
1.10000000e-02	7.76652839e+00	1.58639371e+00
1.12500000e-02	8.22376282e+00	1.98902692e+00
1.15000000e-02	7.55253680e+00	1.79493255e+00
1.17500000e-02	7.32980012e+00	1.57557406e+00
1.20000000e-02	6.07253953e+00	1.31809715e+00
1.22500000e-02	5.37483539e+00	1.08218611e+00
1.25000000e-02	4.67345298e+00	8.64532046e-01
1.27500000e-02	4.44082727e+00	8.33336331e-01
1.30000000e-02	4.96528259e+00	9.92734436e-01
1.32500000e-02	3.90116302e+00	6.99498600e-01
1.35000000e-02	3.65362394e+00	7.16112298e-01
1.37500000e-02	3.60642227e+00	7.38085881e-01
1.40000000e-02	3.26683282e+00	6.42029105e-01
1.42500000e-02	3.27690433e+00	6.15029570e-01
1.45000000e-02	2.72642194e+00	4.53800430e-01
1.47500000e-02	2.61265919e+00	4.65983397e-01
1.50000000e-02	2.37637689e+00	4.18764939e-01
1.52500000e-02	2.01892985e+00	3.11406718e-01
1.55000000e-02	2.30524246e+00	4.12291919e-01
1.57500000e-02	1.98570498e+00	3.30231336e-01
1.60000000e-02	1.73175383e+00	2.81620837e-01
1.62500000e-02	1.72083589e+00	2.92036118e-01
1.65000000e-02	1.60736318e+00	2.82573981e-01
1.67500000e-02	1.81836661e+00	3.18350027e-01
1.70000000e-02	1.41471237e+00	2.18518572e-01
1.72500000e-02	1.36709039e+00	2.17011869e-01
1.75000000e-02	1.28405439e+00	2.05419368e-01
1.77500000e-02	1.20962110e+00	1.96129406e-01
1.80000000e-02	1.41860855e+00	2.43294621e-01
1.82500000e-02	1.10054640e+00	1.63175962e-01
1.85000000e-02	1.03418097e+00	1.57014945e-01
1.87500000e-02	9.95408341e-01	1.61869876e-01
1.90000000e-02	9.29115091e-01	1.42498171e-01
1.92500000e-02	1.02352771e+00	1.63336169e-01
1.95000000e-02	8.61288396e-01	1.30785221e-01
1.97500000e-02	8.29980941e-01	1.33555039e-01
2.00000000e-02	7.78097533e-01	1.23939614e-01
2.02500000e-02	7.27090672e-01	1.08504072e-01
2.05000000e-02	7.39582539e-01	1.05404240e-01
2.07500000e-02	7.20045149e-01	1.08319639e-01
2.10000000e-02	6.61148302e-01	9.56854367e-02
2.12500000e-02	6.18218253e-01	8.66407591e-02
2.15000000e-02	5.76924361e-01	7.85252184e-02
2.17500000e-02	6.82359209e-01	9.60540465e-02
2.20000000e-02	5.90346601e-01	7.73479720e-02
2.22500000e-02	5.35245654e-01	7.04976546e-02
2.25000000e-02	5.66489091e-01	8.47685830e-02
2.27500000e-02	4.95370943e-01	6.34702595e-02
2.30000000e-02	5.57459703e-01	7.69353766e-02
2.32500000e-02	5.05452343e-01	6.48348916e-02
2.35000000e-02	4.93461283e-01	6.89665091e-02
2.37500000e-02	4.63429989e-01	6.17730753e-02
2.40000000e-02	4.41663843e-01	5.88988513e-02
2.42500000e-02	4.78410129e-01	6.18591171e-02
2.45000000e-02	4.21480121e-01	5.22585908e-02
2.47500000e-02	3.99990762e-01	4.97872619e-02
2.50000000e-02	3.90918869e-01	5.01770300e-02
2.52500000e-02	3.75804244e-01	4.77239122e-02
2.55000000e-02	3.89426575e-01	4.78851710e-02
2.57500000e-02	3.60653002e-01	4.26222113e-02
2.60000000e-02	3.39639161e-01	4.14968361e-02
2.62500000e-02	3.27359706e-01	3.87353725e-02
2.65000000e-02	3.17870351e-01	3.90305010e-02
2.67500000e-02	3.62197413e-01	4.63486728e-02
2.70000000e-02	2.94129877e-01	3.31141221e-02
2.72500000e-02	2.87903074e-01	3.27148749e-02
2.75000000e-02	2.76334832e-01	3.04017406e-02
2.77500000e-02	2.75596883e-01	3.29314012e-02
2.80000000e-02	2.93492090e-01	3.53326109e-02
2.82500000e-02	2.66487821e-01	2.87468271e-02
2.85000000e-02	2.50118370e-01	2.70409066e-02
2.87500000e-02	2.47120944e-01	2.71929489e-02
2.90000000e-02	2.42505944e-01	2.61085333e-02
2.92500000e-02	2.55475022e-01	2.75633842e-02
2.95000000e-02	2.24834188e-01	2.30002466e-02
2.97500000e-02	2.20181885e-01	2.30693490e-02
3.00000000e-02	2.17439104e-01	2.35697438e-02
3.02500000e-02	2.17541289e-01	2.27826263e-02
3.05000000e-02	2.11792275e-01	2.08714096e-02
3.07500000e-02	1.97589608e-01	1.99882791e-02
3.10000000e-02	1.94245119e-01	1.90645520e-02
3.12500000e-02	1.88172506e-01	1.88229021e-02
3.15000000e-02	1.86338125e-01	1.94913288e-02
3.17500000e-02	1.96772580e-01	2.00338558e-02
3.20000000e-02	1.81912434e-01	1.85812723e-02
3.22500000e-02	1.78001143e-01	1.90249181e-02
3.25000000e-02	1.70566214e-01	1.73746358e-02
3.27500000e-02	1.60016621e-01	1.44653145e-02
3.30000000e-02	1.73498701e-01	1.72779975e-02
3.32500000e-02	1.55904144e-01	1.51809439e-02
3.35000000e-02	1.49831335e-01	1.34993859e-02
3.37500000e-02	1.48919383e-01	1.37606805e-02
3.40000000e-02	1.43882898e-01	1.31573311e-02
3.42500000e-02	1.51423899e-01	1.37862045e-02
3.45000000e-02	1.35242787e-01	1.15473045e-02
3.47500000e-02	1.35552999e-01	1.26492378e-02
3.50000000e-02	1.31593086e-01	1.16523914e-02
3.52500000e-02	1.31003051e-01	1.09247781e-02
3.55000000e-02	1.36177062e-01	1.27153834e-02
3.57500000e-02	1.28188747e-01	1.12255441e-02
3.60000000e-02	1.23377986e-01	1.08889353e-02
3.62500000e-02	1.19499230e-01	1.08025557e-02
3.65000000e-02	1.14337447e-01	9.71070850e-03
3.67500000e-02	1.25277251e-01	1.07090495e-02
3.70000000e-02	1.12155044e-01	9.20805962e-03
3.72500000e-02	1.09493352e-01	8.99464913e-03
3.75000000e-02	1.04098553e-01	8.26109455e-03
3.77500000e-02	1.06907494e-01	8.74934726e-03
3.80000000e-02	1.05860597e-01	8.52702500e-03
3.82500000e-02	1.00923545e-01	7.83231502e-03
3.85000000e-02	9.65021435e-02	7.38344656e-03
3.87500000e-02	9.47808577e-02	7.13421018e-03
3.90000000e-02	9.62893250e-02	7.79746139e-03
3.92500000e-02	9.93634563e-02	7.71334011e-03
3.95000000e-02	9.21601641e-02	7.03158367e-03
3.97500000e-02	8.91490420e-02	6.38589549e-03
4.00000000e-02	8.87282410e-02	6.80549820e-03
4.02500000e-02	9.11214575e-02	6.94324864e-03
4.05000000e-02	9.22188253e-02	7.49424192e-03
4.07500000e-02	8.40549382e-02	6.07042080e-03
4.10000000e-02	8.20158199e-02	5.98174565e-03
4.12500000e-02	8.22813144e-02	6.12345906e-03
4.15000000e-02	8.01375335e-02	5.75359140e-03
4.17500000e-02	8.36090823e-02	6.22414450e-03
4.20000000e-02	7.49436731e-02	4.98104856e-03
4.22500000e-02	7.82690472e-02	5.84312778e-03
4.25000000e-02	7.54550057e-02	5.23432609e-03
4.27500000e-02	7.68902026e-02	5.51835954e-03
4.30000000e-02	7.41027036e-02	5.16971690e-03
4.32500000e-02	7.07767859e-02	4.86035228e-03
4.35000000e-02	7.05704160e-02	4.77298540e-03
4.37500000e-02	6.75358061e-02	4.33736512e-03
4.40000000e-02	7.25374850e-02	4.89103947e-03
4.42500000e-02	6.99289409e-02	4.67238850e-03
4.45000000e-02	6.55233323e-02	4.14729046e-03
4.47500000e-02	6.46257922e-02	3.95455485e-03
4.50000000e-02	6.30097522e-02	3.87780544e-03
4.52500000e-02	6.52307210e-02	4.13297117e-03
4.55000000e-02	6.50615658e-02	4.43086841e-03
4.57500000e-02	6.22808189e-02	3.93032108e-03
4.60000000e-02	5.98120848e-02	3.67197629e-03
4.62500000e-02	5.93193159e-02	3.58548594e-03
4.65000000e-02	6.11419673e-02	3.77622918e-03
4.67500000e-02	6.06737083e-02	3.61396357e-03
4.70000000e-02	5.83109374e-02	3.45141631e-03
4.72500000e-02	5.67878663e-02	3.41641586e-03
4.75000000e-02	5.68239510e-02	3.39611165e-03
4.77500000e-02	5.69742098e-02	3.37347998e-03
4.80000000e-02	5.70503230e-02	3.36215703e-03
4.82500000e-02	5.39205753e-02	3.06674522e-03
4.85000000e-02	5.33442684e-02	2.97822285e-03
4.87500000e-02	5.33224274e-02	3.05888791e-03
4.90000000e-02	5.35734067e-02	3.12242195e-03
4.92500000e-02	5.31297251e-02	3.03577246e-03
4.95000000e-02	5.17291746e-02	2.90730812e-03
4.97500000e-02	5.06183167e-02	2.79084089e-03
5.00000000e-02	4.88049673e-02	2.69276790e-03
5.02500000e-02	5.01747386e-02	2.72748899e-03
5.05000000e-02	4.92602462e-02	2.60777243e-03
5.07500000e-02	4.81288207e-02	2.59295847e-03
5.10000000e-02	4.69691505e-02	2.48903321e-03
5.12500000e-02	4.78315510e-02	2.52258301e-03
5.15000000e-02	4.76175490e-02	2.47517483e-03
5.17500000e-02	4.77511649e-02	2.52136106e-03
5.20000000e-02	4.62430473e-02	2.39526790e-03
5.22500000e-02	4.63676314e-02	2.37041412e-03
5.25000000e-02	4.37805748e-02	2.21658506e-03
5.27500000e-02	4.58337909e-02	2.25611616e-03
5.30000000e-02	4.50655016e-02	2.30928221e-03
5.32500000e-02	4.28854590e-02	2.14011160e-03
5.35000000e-02	4.19562368e-02	2.05630533e-03
5.37500000e-02	4.19145330e-02	1.97969740e-03
5.40000000e-02	4.28556535e-02	2.10841663e-03
5.42500000e-02	4.18133531e-02	2.05633684e-03
5.45000000e-02	4.08216861e-02	1.93123393e-03
5.47500000e-02	4.06801431e-02	1.86308145e-03
5.50000000e-02	3.98577992e-02	1.84457227e-03
5.52500000e-02	3.99183199e-02	1.86597174e-03
5.55000000e-02	4.00902145e-02	1.84781219e-03
5.57500000e-02	3.83822750e-02	1.70176074e-03
5.60000000e-02	3.84763864e-02	1.71762617e-03
5.62500000e-02	3.77824614e-02	1.70900560e-03
5.65000000e-02	3.79524522e-02	1.70003297e-03
5.67500000e-02	3.76469344e-02	1.65552192e-03
5.70000000e-02	3.64652492e-02	1.58503929e-03
5.72500000e-02	3.62026554e-02	1.56220934e-03
5.75000000e-02	3.68420482e-02	1.60001038e-03
5.77500000e-02	3.66218030e-02	1.59653709e-03
5.80000000e-02	3.56205563e-02	1.52696493e-03
5.82500000e-02	3.59841204e-02	1.50227028e-03
5.85000000e-02	3.43829313e-02	1.44050921e-03
5.87500000e-02	3.47635271e-02	1.48729065e-03
5.90000000e-02	3.47118293e-02	1.42275034e-03
5.92500000e-02	3.37628190e-02	1.39204711e-03
5.95000000e-02	3.43633616e-02	1.38939187e-03
5.97500000e-02	3.33978518e-02	1.35778945e-03
6.00000000e-02	3.36925958e-02	1.35832212e-03
6.02500000e-02	3.40098731e-02	1.43040405e-03
6.05000000e-02	3.35320213e-02	1.34919126e-03
6.07500000e-02	3.32827313e-02	1.33934391e-03
6.10000000e-02	3.26667775e-02	1.30471198e-03
6.12500000e-02	3.28219606e-02	1.30167799e-03
6.15000000e-02	3.28563094e-02	1.29807029e-03
6.17500000e-02	3.25170377e-02	1.27790390e-03
6.20000000e-02	3.12322845e-02	1.22871918e-03
6.22500000e-02	3.15482943e-02	1.21770956e-03
6.25000000e-02	3.17289591e-02	1.22348489e-03
6.27500000e-02	3.15850910e-02	1.20818004e-03
6.30000000e-02	3.15636182e-02	1.23034061e-03
6.32500000e-02	3.14405862e-02	1.20586299e-03
6.35000000e-02	3.13092953e-02	1.20319005e-03
6.37500000e-02	3.10393497e-02	1.17655566e-03
6.40000000e-02	3.05373848e-02	1.18218603e-03
6.42500000e-02	3.11478052e-02	1.16568956e-03
6.45000000e-02	3.08847157e-02	1.16911059e-03
6.47500000e-02	3.02850485e-02	1.14285399e-03
6.50000000e-02	3.05196636e-02	1.14572335e-03
6.52500000e-02	3.08087171e-02	1.16306213e-03
6.55000000e-02	2.99741200e-02	1.11429131e-03
6.57500000e-02	3.06155993e-02	1.14326458e-03
6.60000000e-02	3.02313674e-02	1.10955175e-03
6.62500000e-02	3.03315251e-02	1.13109991e-03
6.65000000e-02	3.11850382e-02	1.14486497e-03
6.67500000e-02	2.97554824e-02	1.08656990e-03
6.70000000e-02	2.96303406e-02	1.09095469e-03
6.72500000e-02	2.95303670e-02	1.08333401e-03
6.75000000e-02	2.93459352e-02	1.06008525e-03
6.77500000e-02	2.98284982e-02	1.08156566e-03
6.80000000e-02	2.94630843e-02	1.07148108e-03
6.82500000e-02	2.91911064e-02	1.05613131e-03
6.85000000e-02	2.93822217e-02	1.07762618e-03
6.87500000e-02	2.83924777e-02	1.02010841e-03
6.90000000e-02	2.92074746e-02	1.04222110e-03
6.92500000e-02	2.88280204e-02	1.03309200e-03
6.95000000e-02	2.88428528e-02	1.03372760e-03
6.97500000e-02	2.85289869e-02	1.01160331e-03
7.00000000e-02	2.84724230e-02	1.01446949e-03
7.02500000e-02	2.87716259e-02	1.01362281e-03
7.05000000e-02	2.87677091e-02	1.01427166e-03
7.07500000e-02	2.85424618e-02	9.99825646e-04
7.10000000e-02	2.76221079e-02	9.73082112e-04
7.12500000e-02	2.80838388e-02	9.84828068e-04
7.15000000e-02	2.87384143e-02	1.00576682e-03
7.17500000e-02	2.84310542e-02	9.98915490e-04
7.20000000e-02	2.73640193e-02	9.73963738e-04
7.22500000e-02	2.82232278e-02	9.80410242e-04
7.25000000e-02	2.74201068e-02	9.51418613e-04
7.27500000e-02	2.76131465e-02	9.58899908e-04
7.30000000e-02	2.76220898e-02	9.49565633e-04
7.32500000e-02	2.70507953e-02	9.24666050e-04
7.35000000e-02	2.78081238e-02	9.51165717e-04
7.37500000e-02	2.75142997e-02	9.47642601e-04
7.40000000e-02	2.75847931e-02	9.52985006e-04
7.42500000e-02	2.73200890e-02	9.40050544e-04
7.45000000e-02	2.80330295e-02	9.50956858e-04
7.47500000e-02	2.71394826e-02	9.26200926e-04
7.50000000e-02	2.74838797e-02	9.27417480e-04
7.52500000e-02	2.78857116e-02	9.54785648e-04
7.55000000e-02	2.71267835e-02	9.11218763e-04
7.57500000e-02	2.71144313e-02	9.15861549e-04
7.60000000e-02	2.80752252e-02	9.46865536e-04
7.62500000e-02	2.67578704e-02	9.06358981e-04
7.65000000e-02	2.69932057e-02	9.21096010e-04
7.67500000e-02	2.64692976e-02	8.80588049e-04
7.70000000e-02	2.68155762e-02	9.01504092e-04
7.72500000e-02	2.63394560e-02	8.96844078e-04
7.75000000e-02	2.69462209e-02	9.18421297e-04
7.77500000e-02	2.68534862e-02	9.32171222e-04
7.80000000e-02	2.74758758e-02	9.48093963e-04
7.82500000e-02	2.60360092e-02	9.06745242e-04
7.85000000e-02	2.71116367e-02	9.53272763e-04
7.87500000e-02	2.68182332e-02	9.39888143e-04
7.90000000e-02	2.68330828e-02	9.47153251e-04
7.92500000e-02	2.68892152e-02	9.46551633e-04
7.95000000e-02	2.75656575e-02	9.63811282e-04
7.97500000e-02	2.73718262e-02	9.78519509e-04
8.00000000e-02	2.67834744e-02	9.42018497e-04
8.02500000e-02	2.64040836e-02	9.34374507e-04
8.05000000e-02	2.64991406e-02	9.41648846e-04
8.07500000e-02	2.64822501e-02	9.49499622e-04
8.10000000e-02	2.63180116e-02	9.37778168e-04
8.12500000e-02	2.61143943e-02	9.37134249e-04
8.15000000e-02	2.66619328e-02	9.48354072e-04
8.17500000e-02	2.62959027e-02	9.46177606e-04
8.20000000e-02	2.64936700e-02	9.47917597e-04
8.22500000e-02	2.62405030e-02	9.49772671e-04
8.25000000e-02	2.69570949e-02	9.68391470e-04
8.27500000e-02	2.65218141e-02	9.40889700e-04
8.30000000e-02	2.65435901e-02	9.63071212e-04
8.32500000e-02	2.61779070e-02	9.37908241e-04
8.35000000e-02	2.59346159e-02	9.49630100e-04
8.37500000e-02	2.69382333e-02	9.62515521e-04
8.40000000e-02	2.66563246e-02	9.66590030e-04
8.42500000e-02	2.66457883e-02	9.66648161e-04
8.45000000e-02	2.54595021e-02	9.38301703e-04
8.47500000e-02	2.54228878e-02	9.36928333e-04
8.50000000e-02	2.53737842e-02	9.24050033e-04
8.52500000e-02	2.60260055e-02	9.48686887e-04
8.55000000e-02	2.57894253e-02	9.46380972e-04
8.57500000e-02	2.60798949e-02	9.49923225e-04
8.60000000e-02	2.57793040e-02	9.39902549e-04
8.62500000e-02	2.59688533e-02	9.49160239e-04
8.65000000e-02	2.50130010e-02	9.12636513e-04
8.67500000e-02	2.58942163e-02	9.33331785e-04
8.70000000e-02	2.58745200e-02	9.31075320e-04
8.72500000e-02	2.56173425e-02	9.04076723e-04
8.75000000e-02	2.52991144e-02	8.82379462e-04
8.77500000e-02	2.54479336e-02	8.80031940e-04
8.80000000e-02	2.59843539e-02	9.04059529e-04
8.82500000e-02	2.54530477e-02	8.83407061e-04
8.85000000e-02	2.49738526e-02	8.67152509e-04
8.87500000e-02	2.46108434e-02	8.36178229e-04
8.90000000e-02	2.53238599e-02	8.63100214e-04
8.92500000e-02	2.51206532e-02	8.49806927e-04
8.95000000e-02	2.50020795e-02	8.42593881e-04
8.97500000e-02	2.47968978e-02	8.31193379e-04
9.00000000e-02	2.51480230e-02	8.40463640e-04
9.02500000e-02	2.50058609e-02	8.36443501e-04
9.05000000e-02	2.50196908e-02	8.35748725e-04
9.07500000e-02	2.46677528e-02	8.19682902e-04
9.10000000e-02	2.47299074e-02	8.16287310e-04
9.12500000e-02	2.49016198e-02	8.28793897e-04
9.15000000e-02	2.46502168e-02	8.14094232e-04
9.17500000e-02	2.40940662e-02	7.95606090e-04
9.20000000e-02	2.43326910e-02	8.02756371e-04
9.22500000e-02	2.47702166e-02	8.07126859e-04
9.25000000e-02	2.48242705e-02	8.13493061e-04
9.27500000e-02	2.45383737e-02	8.02180280e-04
9.30000000e-02	2.42645955e-02	7.93808330e-04
9.32500000e-02	2.43148653e-02	7.93400325e-04
9.35000000e-02	2.40923496e-02	7.79727460e-04
9.37500000e-02	2.45308769e-02	7.96291623e-04
9.40000000e-02	2.43716319e-02	7.92313950e-04
9.42500000e-02	2.45125824e-02	7.86172339e-04
9.45000000e-02	2.38667741e-02	7.70374629e-04
9.47500000e-02	2.49479613e-02	8.05376824e-04
9.50000000e-02	2.41575495e-02	7.75195953e-04
9.52500000e-02	2.41927177e-02	7.78224970e-04
9.55000000e-02	2.39044835e-02	7.65068557e-04
9.57500000e-02	2.44772280e-02	7.82724213e-04
9.60000000e-02	2.42477502e-02	7.67575337e-04
9.62500000e-02	2.42162958e-02	7.68152176e-04
9.65000000e-02	2.37377638e-02	7.52231180e-04
9.67500000e-02	2.41331552e-02	7.66860480e-04
9.70000000e-02	2.37119503e-02	7.53242028e-04
9.72500000e-02	2.31478816e-02	7.35393888e-04
9.75000000e-02	2.32873795e-02	7.41536475e-04
9.77500000e-02	2.43201816e-02	7.62754337e-04
9.80000000e-02	2.40133033e-02	7.53601402e-04
9.82500000e-02	2.38252217e-02	7.52334627e-04
9.85000000e-02	2.35983539e-02	7.41881772e-04
9.87500000e-02	2.34769699e-02	7.39060779e-04
9.90000000e-02	2.36812875e-02	7.44444841e-04
9.92500000e-02	2.37486823e-02	7.42249994e-04
9.95000000e-02	2.35368812e-02	7.39237248e-04
9.97500000e-02	2.39663897e-02	7.43912907e-04
1.00000000e-01	2.32223478e-02	5.90845745e-04
1.00500000e-01	2.36873205e-02	5.22986091e-04
1.01000000e-01	2.36097496e-02	5.15595022e-04
1.01500000e-01	2.32443080e-02	5.07794887e-04
1.02000000e-01	2.34455857e-02	5.09068194e-04
1.02500000e-01	2.36475210e-02	5.12308519e-04
1.03000000e-01	2.34639613e-02	5.11295849e-04
1.03500000e-01	2.32702535e-02	5.04027780e-04
1.04000000e-01	2.34448533e-02	5.04331660e-04
1.04500000e-01	2.35507424e-02	5.03733691e-04
1.05000000e-01	2.31406011e-02	4.92630388e-04
1.05500000e-01	2.32874278e-02	4.95794442e-04
1.06000000e-01	2.28602119e-02	4.89224221e-04
1.06500000e-01	2.26674260e-02	4.80917052e-04
1.07000000e-01	2.28573763e-02	4.94021091e-04
1.07500000e-01	2.26486256e-02	4.96211438e-04
1.08000000e-01	2.31383649e-02	5.09174860e-04
1.08500000e-01	2.24624957e-02	5.01725410e-04
1.09000000e-01	2.26803509e-02	5.05876621e-04
1.09500000e-01	2.26941553e-02	5.09096581e-04
1.10000000e-01	2.28110706e-02	5.07353606e-04
1.10500000e-01	2.23923139e-02	4.88767251e-04
1.11000000e-01	2.25132508e-02	4.82915378e-04
1.11500000e-01	2.26093251e-02	4.81184417e-04
1.12000000e-01	2.28741056e-02	4.84927883e-04
1.12500000e-01	2.28148585e-02	4.78957404e-04
1.13000000e-01	2.27157278e-02	4.75278610e-04
1.13500000e-01	2.25087315e-02	4.68588264e-04
1.14000000e-01	2.28874889e-02	4.76237791e-04
1.14500000e-01	2.25136927e-02	4.66722417e-04
1.15000000e-01	2.23278511e-02	4.62613968e-04
1.15500000e-01	2.23485579e-02	4.61089461e-04
1.16000000e-01	2.28223823e-02	4.67979309e-04
1.16500000e-01	2.26872172e-02	4.64717685e-04
1.17000000e-01	2.26309506e-02	4.64145101e-04
1.17500000e-01	2.25831659e-02	4.60571949e-04
1.18000000e-01	2.24212622e-02	4.60583801e-04
1.18500000e-01	2.22723524e-02	4.52821021e-04
1.19000000e-01	2.24874232e-02	4.55564010e-04
1.19500000e-01	2.24508530e-02	4.54019340e-04
1.20000000e-01	2.22967208e-02	4.48777005e-04
1.20500000e-01	2.23697205e-02	4.47982542e-04
1.21000000e-01	2.23784158e-02	4.49943626e-04
1.21500000e-01	2.23115803e-02	4.47350960e-04
1.22000000e-01	2.21678732e-02	4.43161404e-04
1.22500000e-01	2.21391400e-02	4.40948331e-04
1.23000000e-01	2.23271461e-02	4.44697012e-04
1.23500000e-01	2.23859078e-02	4.43875556e-04
1.24000000e-01	2.25446530e-02	4.48099748e-04
1.24500000e-01	2.22554294e-02	4.39459993e-04
1.25000000e-01	2.26296627e-02	4.46543348e-04
1.25500000e-01	2.23213682e-02	4.41671222e-04
1.26000000e-01	2.24736344e-02	4.40474789e-04
1.26500000e-01	2.24346378e-02	4.40110327e-04
1.27000000e-01	2.23742494e-02	4.37959902e-04
1.27500000e-01	2.19729452e-02	4.31424788e-04
1.28000000e-01	2.20863285e-02	4.31613203e-04
1.28500000e-01	2.25863536e-02	4.40180718e-04
1.29000000e-01	2.21645512e-02	4.31699868e-04
1.29500000e-01	2.22468680e-02	4.29990052e-04
1.30000000e-01	2.23032520e-02	4.31816634e-04
1.30500000e-01	2.22877513e-02	4.31146359e-04
1.31000000e-01	2.21472993e-02	4.26322041e-04
1.31500000e-01	2.21922117e-02	4.26927075e-04
1.32000000e-01	2.27700222e-02	4.37303059e-04
1.32500000e-01	2.23590776e-02	4.27161030e-04
1.33000000e-01	2.22914259e-02	4.25616368e-04
1.33500000e-01	2.26428249e-02	4.28799776e-04
1.34000000e-01	2.23228536e-02	4.23017491e-04
1.34500000e-01	2.27084897e-02	4.28329396e-04
1.35000000e-01	2.23432587e-02	4.20942456e-04
1.35500000e-01	2.26977936e-02	4.25740608e-04
1.36000000e-01	2.22965395e-02	4.17164282e-04
1.36500000e-01	2.22015602e-02	4.15926266e-04
1.37000000e-01	2.23255465e-02	4.16314432e-04
1.37500000e-01	2.24126874e-02	4.18520572e-04
1.38000000e-01	2.24434056e-02	4.19888856e-04
1.38500000e-01	2.23261915e-02	4.17475689e-04
1.39000000e-01	2.19076132e-02	4.08951832e-04
1.39500000e-01	2.21157124e-02	4.10477786e-04
1.40000000e-01	2.16754593e-02	4.04867063e-04
1.40500000e-01	2.17785792e-02	4.05763600e-04
1.41000000e-01	2.17461032e-02	4.04010471e-04
1.41500000e-01	2.15700256e-02	4.01840970e-04
1.42000000e-01	2.13318192e-02	3.93711292e-04
1.42500000e-01	2.14286254e-02	3.96795489e-04
1.43000000e-01	2.16648561e-02	4.02446683e-04
1.43500000e-01	2.10456977e-02	3.87910724e-04
1.44000000e-01	2.14417715e-02	3.92531869e-04
1.44500000e-01	2.10934797e-02	3.85762440e-04
1.45000000e-01	2.14289315e-02	3.92997906e-04
1.45500000e-01	2.15899529e-02	3.95860753e-04
1.46000000e-01	2.10628614e-02	3.85138812e-04
1.46500000e-01	2.14814683e-02	3.92977826e-04
1.47000000e-01	2.09949522e-02	3.83952950e-04
1.47500000e-01	2.10658142e-02	3.84155273e-04
1.48000000e-01	2.11572794e-02	3.84292120e-04
1.48500000e-01	2.11131233e-02	3.85259127e-04
1.49000000e-01	2.13154292e-02	3.85771805e-04
1.49500000e-01	2.12705607e-02	3.84245085e-04
1.50000000e-01	2.12251492e-02	3.82559842e-04
1.50500000e-01	2.09621272e-02	3.78835403e-04
1.51000000e-01	2.13668956e-02	3.84730894e-04
1.51500000e-01	2.10415148e-02	3.77148346e-04
1.52000000e-01	2.07953676e-02	3.70525191e-04
1.52500000e-01	2.13337752e-02	3.81699658e-04
1.53000000e-01	2.09097649e-02	3.73822989e-04
1.53500000e-01	2.09868792e-02	3.74864938e-04
1.54000000e-01	2.07855115e-02	3.69515534e-04
1.54500000e-01	2.10717333e-02	3.82696791e-04
1.55000000e-01	2.09704183e-02	3.82846660e-04
1.55500000e-01	2.10477894e-02	3.88963312e-04
1.56000000e-01	2.09223842e-02	3.88840562e-04
1.56500000e-01	2.06855762e-02	3.84010043e-04
1.57000000e-01	2.09135205e-02	3.89579750e-04
1.57500000e-01	2.06930345e-02	3.78529407e-04
1.58000000e-01	2.08414923e-02	3.75437754e-04
1.58500000e-01	2.08239044e-02	3.74745932e-04
1.59000000e-01	2.06858489e-02	3.69230079e-04
1.59500000e-01	2.06776107e-02	3.68537520e-04
1.60000000e-01	2.06574944e-02	3.68624667e-04
1.60500000e-01	2.07292488e-02	3.66847750e-04
1.61000000e-01	2.06828058e-02	3.65705254e-04
1.61500000e-01	2.06253873e-02	3.62326857e-04
1.62000000e-01	2.08127317e-02	3.64832555e-04
1.62500000e-01	2.08209358e-02	3.66232801e-04
1.63000000e-01	2.04779234e-02	3.58591022e-04
1.63500000e-01	2.06704192e-02	3.63688569e-04
1.64000000e-01	2.06748696e-02	3.59702195e-04
1.64500000e-01	2.09574267e-02	3.65873412e-04
1.65000000e-01	2.06423851e-02	3.59411101e-04
1.65500000e-01	2.07285365e-02	3.59886447e-04
1.66000000e-01	2.06785739e-02	3.58879308e-04
1.66500000e-01	2.06845322e-02	3.57955243e-04
1.67000000e-01	2.03824446e-02	3.54138019e-04
1.67500000e-01	2.05686449e-02	3.54230956e-04
1.68000000e-01	2.04179137e-02	3.52444826e-04
1.68500000e-01	2.03642062e-02	3.50525838e-04
1.69000000e-01	2.04009902e-02	3.52076966e-04
1.69500000e-01	2.06322732e-02	3.53442006e-04
1.70000000e-01	2.05725412e-02	3.52166036e-04
1.70500000e-01	2.03015087e-02	3.47145786e-04
1.71000000e-01	1.99162505e-02	3.41289430e-04
1.71500000e-01	2.02503137e-02	3.46820441e-04
1.72000000e-01	2.06459077e-02	3.52072842e-04
1.72500000e-01	2.02251993e-02	3.45253130e-04
1.73000000e-01	2.03234833e-02	3.44889817e-04
1.73500000e-01	2.03182115e-02	3.44475380e-04
1.74000000e-01	2.01418504e-02	3.40528743e-04
1.74500000e-01	2.03856335e-02	3.42598306e-04
1.75000000e-01	2.05012331e-02	3.43838299e-04
1.75500000e-01	2.01307192e-02	3.37099759e-04
1.76000000e-01	2.01881970e-02	3.38270571e-04
1.76500000e-01	2.01611959e-02	3.38221309e-04
1.77000000e-01	2.01735224e-02	3.37399819e-04
1.77500000e-01	2.00821077e-02	3.35348885e-04
1.78000000e-01	2.01029663e-02	3.34982227e-04
1.78500000e-01	2.02963425e-02	3.39628910e-04
1.79000000e-01	2.01519009e-02	3.36488292e-04
1.79500000e-01	2.00441707e-02	3.34817325e-04
1.80000000e-01	1.99830080e-02	3.34983244e-04
1.80500000e-01	1.99576063e-02	3.32379789e-04
1.81000000e-01	2.00142981e-02	3.32876955e-04
1.81500000e-01	2.00416754e-02	3.32918617e-04
1.82000000e-01	2.01631440e-02	3.34205045e-04
1.82500000e-01	1.99225327e-02	3.30583889e-04
1.83000000e-01	1.99805167e-02	3.31704098e-04
1.83500000e-01	2.00079270e-02	3.29820055e-04
1.84000000e-01	2.00199475e-02	3.30213844e-04
1.84500000e-01	1.99244581e-02	3.28139512e-04
1.85000000e-01	2.00255289e-02	3.30481954e-04
1.85500000e-01	1.99737179e-02	3.28131669e-04
1.86000000e-01	2.01523743e-02	3.31527066e-04
1.86500000e-01	1.99750980e-02	3.27787049e-04
1.87000000e-01	1.99367306e-02	3.26203584e-04
1.87500000e-01	1.98636371e-02	3.24922887e-04
1.88000000e-01	1.97870479e-02	3.23801703e-04
1.88500000e-01	2.01145511e-02	3.28180621e-04
1.89000000e-01	2.01143330e-02	3.27802112e-04
1.89500000e-01	2.02412973e-02	3.27924578e-04
1.90000000e-01	1.98353186e-02	3.21107154e-04
1.90500000e-01	1.96862346e-02	3.18225235e-04
1.91000000e-01	1.94871682e-02	3.16552165e-04
1.91500000e-01	1.95511158e-02	3.17412553e-04
1.92000000e-01	1.98907972e-02	3.20952371e-04
1.92500000e-01	1.99240470e-02	3.21968922e-04
1.93000000e-01	1.97641649e-02	3.20256389e-04
1.93500000e-01	1.99598015e-02	3.21390474e-04
1.94000000e-01	1.98156035e-02	3.18289282e-04
1.94500000e-01	1.98008497e-02	3.17404072e-04
1.95000000e-01	1.96269958e-02	3.14987064e-04
1.95500000e-01	1.96902998e-02	3.13934397e-04
1.96000000e-01	1.98385392e-02	3.17621194e-04
1.96500000e-01	1.94901475e-02	3.11665511e-04
1.97000000e-01	1.95246047e-02	3.11826622e-04
1.97500000e-01	1.98531389e-02	3.16935784e-04
1.98000000e-01	1.98969542e-02	3.17506405e-04
1.98500000e-01	1.96330798e-02	3.13625413e-04
1.99000000e-01	1.96610335e-02	3.11636614e-04
1.99500000e-01	1.98663027e-02	3.14522923e-04
2.00000000e-01	1.93149286e-02	3.06407877e-04
2.00500000e-01	1.98196143e-02	3.15066903e-04
2.01000000e-01	1.94866688e-02	3.08571032e-04
2.01500000e-01	1.94219439e-02	3.08152187e-04
2.02000000e-01	1.94098879e-02	3.06512798e-04
2.02500000e-01	1.94601847e-02	3.06008183e-04
2.03000000e-01	1.94498613e-02	3.07522256e-04
2.03500000e-01	1.95872177e-02	3.08836555e-04
2.04000000e-01	1.94307704e-02	3.04861800e-04
2.04500000e-01	1.94506386e-02	3.07023292e-04
2.05000000e-01	1.95593030e-02	3.05502066e-04
2.05500000e-01	1.95012341e-02	3.05816471e-04
2.06000000e-01	1.93321429e-02	3.02625395e-04
2.06500000e-01	1.93214809e-02	3.01566634e-04
2.07000000e-01	1.95418815e-02	3.04222035e-04
2.07500000e-01	1.95624789e-02	3.04531213e-04
2.08000000e-01	1.94269872e-02	3.03191667e-04
2.08500000e-01	1.93677936e-02	3.00295446e-04
2.09000000e-01	1.96049335e-02	3.03760332e-04
2.09500000e-01	1.94268206e-02	3.00518425e-04
2.10000000e-01	1.93696307e-02	2.99817511e-04
2.10500000e-01	1.93946732e-02	3.00716114e-04
2.11000000e-01	1.96214790e-02	3.01656348e-04
2.11500000e-01	1.92603121e-02	2.97385083e-04
2.12000000e-01	1.93834838e-02	2.98082720e-04
2.12500000e-01	1.95680826e-02	3.00859323e-04
2.13000000e-01	1.91465965e-02	2.94382398e-04
2.13500000e-01	1.92468331e-02	2.95250842e-04
2.14000000e-01	1.93370862e-02	2.97889275e-04
2.14500000e-01	1.94817740e-02	2.98289752e-04
2.15000000e-01	1.94407203e-02	2.98508249e-04
2.15500000e-01	1.90810850e-02	2.90958290e-04
2.16000000e-01	1.93459386e-02	2.95027606e-04
2.16500000e-01	1.93789535e-02	2.96235645e-04
2.17000000e-01	1.91074977e-02	2.96329749e-04
2.17500000e-01	1.91207888e-02	3.00508360e-04
2.18000000e-01	1.91035894e-02	3.00057896e-04
2.18500000e-01	1.92635701e-02	3.06224187e-04
2.19000000e-01	1.90204272e-02	3.03121939e-04
2.19500000e-01	1.90652365e-02	3.04381293e-04
2.20000000e-01	1.91453109e-02	3.07943972e-04
2.20500000e-01	1.91890231e-02	3.08215899e-04
2.21000000e-01	1.92159180e-02	3.09312602e-04
2.21500000e-01	1.88608228e-02	3.06796734e-04
2.22000000e-01	1.91950850e-02	3.10922292e-04
2.22500000e-01	1.90551506e-02	3.09152220e-04
2.23000000e-01	1.92032627e-02	3.12251290e-04
2.23500000e-01	1.91873150e-02	3.13147218e-04
2.24000000e-01	1.91590047e-02	3.13721340e-04
2.24500000e-01	1.91303787e-02	3.14608469e-04
2.25000000e-01	1.92460409e-02	3.17384072e-04
2.25500000e-01	1.90464726e-02	3.14003102e-04
2.26000000e-01	1.88318849e-02	3.10922549e-04
2.26500000e-01	1.90947665e-02	3.10167464e-04
2.27000000e-01	1.93077138e-02	3.10379110e-04
2.27500000e-01	1.92324122e-02	3.05624094e-04
2.28000000e-01	1.90348741e-02	3.02648907e-04
2.28500000e-01	1.89430434e-02	2.99099529e-04
2.29000000e-01	1.90006701e-02	2.99519383e-04
2.29500000e-01	1.91185812e-02	2.98871975e-04
2.30000000e-01	1.89914640e-02	2.96880455e-04
2.30500000e-01	1.91874734e-02	2.98026272e-04
2.31000000e-01	1.87804817e-02	2.92576444e-04
2.31500000e-01	1.91291430e-02	2.96138755e-04
2.32000000e-01	1.87014575e-02	2.90444613e-04
2.32500000e-01	1.87705888e-02	2.90065710e-04
2.33000000e-01	1.88552594e-02	2.90510724e-04
2.33500000e-01	1.88057346e-02	2.89318619e-04
2.34000000e-01	1.86895306e-02	2.87040107e-04
2.34500000e-01	1.88265414e-02	2.88878818e-04
2.35000000e-01	1.88172093e-02	2.88194577e-04
2.35500000e-01	1.88806074e-02	2.87465339e-04
2.36000000e-01	1.88709664e-02	2.86753580e-04
2.36500000e-01	1.88955002e-02	2.87611145e-04
2.37000000e-01	1.88699351e-02	2.86041926e-04
2.37500000e-01	1.85946544e-02	2.82714589e-04
2.38000000e-01	1.86054389e-02	2.81625459e-04
2.38500000e-01	1.86973249e-02	2.83541318e-04
2.39000000e-01	1.85520253e-02	2.79674224e-04
2.39500000e-01	1.87767918e-02	2.82924560e-04
2.40000000e-01	1.87075858e-02	2.80893909e-04
2.40500000e-01	1.88521681e-02	2.82111594e-04
2.41000000e-01	1.88936691e-02	2.83014428e-04
2.41500000e-01	1.86541941e-02	2.78361888e-04
2.42000000e-01	1.89217939e-02	2.82914361e-04
2.42500000e-01	1.85144575e-02	2.75632494e-04
2.43000000e-01	1.86253534e-02	2.78451938e-04
2.43500000e-01	1.86584591e-02	2.77728279e-04
2.44000000e-01	1.89787430e-02	2.81587599e-04
2.44500000e-01	1.86688437e-02	2.76630537e-04
2.45000000e-01	1.88059959e-02	2.77270314e-04
2.45500000e-01	1.87164593e-02	2.76808978e-04
2.46000000e-01	1.87211719e-02	2.76397769e-04
2.46500000e-01	1.86795952e-02	2.75316607e-04
2.47000000e-01	1.87589774e-02	2.77491069e-04
2.47500000e-01	1.84547688e-02	2.70030966e-04
2.48000000e-01	1.86532118e-02	2.74365612e-04
2.48500000e-01	1.86920464e-02	2.73725046e-04
2.49000000e-01	1.82599634e-02	2.67827065e-04
2.49500000e-01	1.84121679e-02	2.69800454e-04
2.50000000e-01	1.84381826e-02	2.68431210e-04
2.50500000e-01	1.85610083e-02	2.71868374e-04
2.51000000e-01	1.83507042e-02	2.67910539e-04
2.51500000e-01	1.85314484e-02	2.70270433e-04
2.52000000e-01	1.87097746e-02	2.71862798e-04
2.52500000e-01	1.87056200e-02	2.71304427e-04
2.53000000e-01	1.84102884e-02	2.68498370e-04
2.53500000e-01	1.86854013e-02	2.70929772e-04
2.54000000e-01	1.85292418e-02	2.68601753e-04
2.54500000e-01	1.83956114e-02	2.67705585e-04
2.55000000e-01	1.86199654e-02	2.68770018e-04
2.55500000e-01	1.83015929e-02	2.65422676e-04
2.56000000e-01	1.84693606e-02	2.66721017e-04
2.56500000e-01	1.84328534e-02	2.66412117e-04
2.57000000e-01	1.83264511e-02	2.64118515e-04
2.57500000e-01	1.84205836e-02	2.64970972e-04
2.58000000e-01	1.84763297e-02	2.66019670e-04
2.58500000e-01	1.84065693e-02	2.64818317e-04
2.59000000e-01	1.83609791e-02	2.62897731e-04
2.59500000e-01	1.83023757e-02	2.61519883e-04
2.60000000e-01	1.85506017e-02	2.65108568e-04
2.60500000e-01	1.80998439e-02	2.59972691e-04
2.61000000e-01	1.82568959e-02	2.59880327e-04
2.61500000e-01	1.83331928e-02	2.61671460e-04
2.62000000e-01	1.82129428e-02	2.59587294e-04
2.62500000e-01	1.83847684e-02	2.61907574e-04
2.63000000e-01	1.81347634e-02	2.58906325e-04
2.63500000e-01	1.81906549e-02	2.58765686e-04
2.64000000e-01	1.83314574e-02	2.60525503e-04
2.64500000e-01	1.83021865e-02	2.58412910e-04
2.65000000e-01	1.81221680e-02	2.57662489e-04
2.65500000e-01	1.81091842e-02	2.56908893e-04
2.66000000e-01	1.79669049e-02	2.54947655e-04
2.66500000e-01	1.82278478e-02	2.57812604e-04
2.67000000e-01	1.83550388e-02	2.58721801e-04
2.67500000e-01	1.81287371e-02	2.54372579e-04
2.68000000e-01	1.83187891e-02	2.57238801e-04
2.68500000e-01	1.83068741e-02	2.56997673e-04
2.69000000e-01	1.81276367e-02	2.54311544e-04
2.69500000e-01	1.83665164e-02	2.57161364e-04
2.70000000e-01	1.83391937e-02	2.56979101e-04
2.70500000e-01	1.80559113e-02	2.52418242e-04
2.71000000e-01	1.82785512e-02	2.54845783e-04
2.71500000e-01	1.81953829e-02	2.53962030e-04
2.72000000e-01	1.82460114e-02	2.53756058e-04
2.72500000e-01	1.82562784e-02	2.54719682e-04
2.73000000e-01	1.80594394e-02	2.51707024e-04
2.73500000e-01	1.80354686e-02	2.51127806e-04
2.74000000e-01	1.81617492e-02	2.52023756e-04
2.74500000e-01	1.83013063e-02	2.53863040e-04
2.75000000e-01	1.81112915e-02	2.51368924e-04
2.75500000e-01	1.81810171e-02	2.52681601e-04
2.76000000e-01	1.82996740e-02	2.54113335e-04
2.76500000e-01	1.82452687e-02	2.52466822e-04
2.77000000e-01	1.82440086e-02	2.52797185e-04
2.77500000e-01	1.80036882e-02	2.49409090e-04
2.78000000e-01	1.80354438e-02	2.49493950e-04
2.78500000e-01	1.81708984e-02	2.50499478e-04
2.79000000e-01	1.80395794e-02	2.48809589e-04
2.79500000e-01	1.81436254e-02	2.49487406e-04
2.80000000e-01	1.79170638e-02	2.46891109e-04
2.80500000e-01	1.80400595e-02	2.48632534e-04
2.81000000e-01	1.78320338e-02	2.45991745e-04
2.81500000e-01	1.80437396e-02	2.47221365e-04
2.82000000e-01	1.77200544e-02	2.43131105e-04
2.82500000e-01	1.77210399e-02	2.43362451e-04
2.83000000e-01	1.79499762e-02	2.44905327e-04
2.83500000e-01	1.78822132e-02	2.44859265e-04
2.84000000e-01	1.78778775e-02	2.44718819e-04
2.84500000e-01	1.78979443e-02	2.45046135e-04
2.85000000e-01	1.77714187e-02	2.43107352e-04
2.85500000e-01	1.78543375e-02	2.43018833e-04
2.86000000e-01	1.79196354e-02	2.45049793e-04
2.86500000e-01	1.78187372e-02	2.42458514e-04
2.87000000e-01	1.78927366e-02	2.43928284e-04
2.87500000e-01	1.77767136e-02	2.40351957e-04
2.88000000e-01	1.79255000e-02	2.42618968e-04
2.88500000e-01	1.77294204e-02	2.40998844e-04
2.89000000e-01	1.75404682e-02	2.37314280e-04
2.89500000e-01	1.77609391e-02	2.40750586e-04
2.90000000e-01	1.77640599e-02	2.39420618e-04
2.90500000e-01	1.77407199e-02	2.39767762e-04
2.91000000e-01	1.79336626e-02	2.41395065e-04
2.91500000e-01	1.79002428e-02	2.40941793e-04
2.92000000e-01	1.77699239e-02	2.39871838e-04
2.92500000e-01	1.77413950e-02	2.38458209e-04
2.93000000e-01	1.77495991e-02	2.38713289e-04
2.93500000e-01	1.77437392e-02	2.38816711e-04
2.94000000e-01	1.76737989e-02	2.37420146e-04
2.94500000e-01	1.77669369e-02	2.38777785e-04
2.95000000e-01	1.77524284e-02	2.37399552e-04
2.95500000e-01	1.74751760e-02	2.34668414e-04
2.96000000e-01	1.78437129e-02	2.37865713e-04
2.96500000e-01	1.76950270e-02	2.36206505e-04
2.97000000e-01	1.74468836e-02	2.34036699e-04
2.97500000e-01	1.75772646e-02	2.34203386e-04
2.98000000e-01	1.76137492e-02	2.35564764e-04
2.98500000e-01	1.74694018e-02	2.32811350e-04
2.99000000e-01	1.76024618e-02	2.33794207e-04
2.99500000e-01	1.77105739e-02	2.36230831e-04
3.00000000e-01	1.75650823e-02	2.33425957e-04
3.00500000e-01	1.76728567e-02	2.35024355e-04
3.01000000e-01	1.75343457e-02	2.32264724e-04
3.01500000e-01	1.76555296e-02	2.33932742e-04
3.02000000e-01	1.76648740e-02	2.33509623e-04
3.02500000e-01	1.73596158e-02	2.29973371e-04
3.03000000e-01	1.75620385e-02	2.32080295e-04
3.03500000e-01	1.74886218e-02	2.31007790e-04
3.04000000e-01	1.75227259e-02	2.31658424e-04
3.04500000e-01	1.74548956e-02	2.29774368e-04
3.05000000e-01	1.73854184e-02	2.29255616e-04
3.05500000e-01	1.74332940e-02	2.29777644e-04
3.06000000e-01	1.74596274e-02	2.28907296e-04
3.06500000e-01	1.75750230e-02	2.30951402e-04
3.07000000e-01	1.72823823e-02	2.26830435e-04
3.07500000e-01	1.74779814e-02	2.29415625e-04
3.08000000e-01	1.75966425e-02	2.30248294e-04
3.08500000e-01	1.75250134e-02	2.28843662e-04
3.09000000e-01	1.73425605e-02	2.27137158e-04
3.09500000e-01	1.74014379e-02	2.26957694e-04
3.10000000e-01	1.74171728e-02	2.27307652e-04
3.10500000e-01	1.72928271e-02	2.25723979e-04
3.11000000e-01	1.72630935e-02	2.25456417e-04
3.11500000e-01	1.73216967e-02	2.25765171e-04
3.12000000e-01	1.74158469e-02	2.27423752e-04
3.12500000e-01	1.75449659e-02	2.28459027e-04
3.13000000e-01	1.73643453e-02	2.25544040e-04
3.13500000e-01	1.73286689e-02	2.24797835e-04
3.14000000e-01	1.72851241e-02	2.24379703e-04
3.14500000e-01	1.73752537e-02	2.25476333e-04
3.15000000e-01	1.71409321e-02	2.22725871e-04
3.15500000e-01	1.72266426e-02	2.23897435e-04
3.16000000e-01	1.74313000e-02	2.26057591e-04
3.16500000e-01	1.73645201e-02	2.24588886e-04
3.17000000e-01	1.73212474e-02	2.24335132e-04
3.17500000e-01	1.71826140e-02	2.22628885e-04
3.18000000e-01	1.71511716e-02	2.20757220e-04
3.18500000e-01	1.71114077e-02	2.21146982e-04
3.19000000e-01	1.73151312e-02	2.22650260e-04
3.19500000e-01	1.71352766e-02	2.20966380e-04
3.20000000e-01	1.73544021e-02	2.23150104e-04
3.20500000e-01	1.71956711e-02	2.22042566e-04
3.21000000e-01	1.71720610e-02	2.20989528e-04
3.21500000e-01	1.72189791e-02	2.22001444e-04
3.22000000e-01	1.71301375e-02	2.19509669e-04
3.22500000e-01	1.70468443e-02	2.19143854e-04
3.23000000e-01	1.72489183e-02	2.19741530e-04
3.23500000e-01	1.70426118e-02	2.19349723e-04
3.24000000e-01	1.70556231e-02	2.18478503e-04
3.24500000e-01	1.69604819e-02	2.17575952e-04
3.25000000e-01	1.70045592e-02	2.17205269e-04
3.25500000e-01	1.70869717e-02	2.18003198e-04
3.26000000e-01	1.70576746e-02	2.18501198e-04
3.26500000e-01	1.69181054e-02	2.15102825e-04
3.27000000e-01	1.69754781e-02	2.16592576e-04
3.27500000e-01	1.72409241e-02	2.18731443e-04
3.28000000e-01	1.72072147e-02	2.19330577e-04
3.28500000e-01	1.69161984e-02	2.15184079e-04
3.29000000e-01	1.69999503e-02	2.16635502e-04
3.29500000e-01	1.71595038e-02	2.18423978e-04
3.30000000e-01	1.68772047e-02	2.14403547e-04
3.30500000e-01	1.71457885e-02	2.17353271e-04
3.31000000e-01	1.71938547e-02	2.17203122e-04
3.31500000e-01	1.69415650e-02	2.14712094e-04
3.32000000e-01	1.70114441e-02	2.15223174e-04
3.32500000e-01	1.70186853e-02	2.14997851e-04
3.33000000e-01	1.70167502e-02	2.14813144e-04
3.33500000e-01	1.68837319e-02	2.13009213e-04
3.34000000e-01	1.68776816e-02	2.13188173e-04
3.34500000e-01	1.69739461e-02	2.14237527e-04
3.35000000e-01	1.68168789e-02	2.11326536e-04
3.35500000e-01	1.69285092e-02	2.13195504e-04
3.36000000e-01	1.68530251e-02	2.11974853e-04
3.36500000e-01	1.69011027e-02	2.13055654e-04
3.37000000e-01	1.71256996e-02	2.14020226e-04
3.37500000e-01	1.70305319e-02	2.13758547e-04
3.38000000e-01	1.68904780e-02	2.11965520e-04
3.38500000e-01	1.67506420e-02	2.09675098e-04
3.39000000e-01	1.68888395e-02	2.11803972e-04
3.39500000e-01	1.67770877e-02	2.10584488e-04
3.40000000e-01	1.69566572e-02	2.12765614e-04
3.40500000e-01	1.65607146e-02	2.06995818e-04
3.41000000e-01	1.68338867e-02	2.09888263e-04
3.41500000e-01	1.67054707e-02	2.09389839e-04
3.42000000e-01	1.68194409e-02	2.09123153e-04
3.42500000e-01	1.66710994e-02	2.07969548e-04
3.43000000e-01	1.68425230e-02	2.09498384e-04
3.43500000e-01	1.68300524e-02	2.09353932e-04
3.44000000e-01	1.66361781e-02	2.07792907e-04
3.44500000e-01	1.68012330e-02	2.08704490e-04
3.45000000e-01	1.67981558e-02	2.08630095e-04
3.45500000e-01	1.66895093e-02	2.07086897e-04
3.46000000e-01	1.67858489e-02	2.08425449e-04
3.46500000e-01	1.65965443e-02	2.06282129e-04
3.47000000e-01	1.66138286e-02	2.05946418e-04
3.47500000e-01	1.66131121e-02	2.05630381e-04
3.48000000e-01	1.69055907e-02	2.08450344e-04
3.48500000e-01	1.65866943e-02	2.05317752e-04
3.49000000e-01	1.66876655e-02	2.05761948e-04
3.49500000e-01	1.66880145e-02	2.05810081e-04
3.50000000e-01	1.68507729e-02	1.69652960e-04
3.51000000e-01	1.66620311e-02	1.45486341e-04
3.52000000e-01	1.65813701e-02	1.44352225e-04
3.53000000e-01	1.66160465e-02	1.44127539e-04
3.54000000e-01	1.66176080e-02	1.44215090e-04
3.55000000e-01	1.65733938e-02	1.43544481e-04
3.56000000e-01	1.64932064e-02	1.43101898e-04
3.57000000e-01	1.64386147e-02	1.45954692e-04
3.58000000e-01	1.64165976e-02	1.46438666e-04
3.59000000e-01	1.63570172e-02	1.47348789e-04
3.60000000e-01	1.64162792e-02	1.48686486e-04
3.61000000e-01	1.64895034e-02	1.49993988e-04
3.62000000e-01	1.64106376e-02	1.50016848e-04
3.63000000e-01	1.63494899e-02	1.50207106e-04
3.64000000e-01	1.63682285e-02	1.50717345e-04
3.65000000e-01	1.62084963e-02	1.50059348e-04
3.66000000e-01	1.62843980e-02	1.49105320e-04
3.67000000e-01	1.63121853e-02	1.46787533e-04
3.68000000e-01	1.64228124e-02	1.47117526e-04
3.69000000e-01	1.62477640e-02	1.44726399e-04
3.70000000e-01	1.61677583e-02	1.43237766e-04
3.71000000e-01	1.62660591e-02	1.45902677e-04
3.72000000e-01	1.62420729e-02	1.46723284e-04
3.73000000e-01	1.64031146e-02	1.48387008e-04
3.74000000e-01	1.62097107e-02	1.46742141e-04
3.75000000e-01	1.62410234e-02	1.47122629e-04
3.76000000e-01	1.61761427e-02	1.46539878e-04
3.77000000e-01	1.61790252e-02	1.46887263e-04
3.78000000e-01	1.62850554e-02	1.47746719e-04
3.79000000e-01	1.60083960e-02	1.45291398e-04
3.80000000e-01	1.61073740e-02	1.45500955e-04
3.81000000e-01	1.61344028e-02	1.45472056e-04
3.82000000e-01	1.60139580e-02	1.44738804e-04
3.83000000e-01	1.62239875e-02	1.46185445e-04
3.84000000e-01	1.60225361e-02	1.44754721e-04
3.85000000e-01	1.60000251e-02	1.44361633e-04
3.86000000e-01	1.59737884e-02	1.44538445e-04
3.87000000e-01	1.60089473e-02	1.44817801e-04
3.88000000e-01	1.59177133e-02	1.44343118e-04
3.89000000e-01	1.58969008e-02	1.43877641e-04
3.90000000e-01	1.58450465e-02	1.43271190e-04
3.91000000e-01	1.58051925e-02	1.42761919e-04
3.92000000e-01	1.59155701e-02	1.43711669e-04
3.93000000e-01	1.58993691e-02	1.43528976e-04
3.94000000e-01	1.59718786e-02	1.44107497e-04
3.95000000e-01	1.57570488e-02	1.42491591e-04
3.96000000e-01	1.57435391e-02	1.41772459e-04
3.97000000e-01	1.58040139e-02	1.42543911e-04
3.98000000e-01	1.57774366e-02	1.42147698e-04
3.99000000e-01	1.57860060e-02	1.42502943e-04
4.00000000e-01	1.56062723e-02	1.40924167e-04
4.01000000e-01	1.58685114e-02	1.43089470e-04
4.02000000e-01	1.57505440e-02	1.42139974e-04
4.03000000e-01	1.58009400e-02	1.42639351e-04
4.04000000e-01	1.58835798e-02	1.42911637e-04
4.05000000e-01	1.56467954e-02	1.40864088e-04
4.06000000e-01	1.56519800e-02	1.40865525e-04
4.07000000e-01	1.56410589e-02	1.41072440e-04
4.08000000e-01	1.57110483e-02	1.41432290e-04
4.09000000e-01	1.56305577e-02	1.40343553e-04
4.10000000e-01	1.56929902e-02	1.40907553e-04
4.11000000e-01	1.57010718e-02	1.41245214e-04
4.12000000e-01	1.55592351e-02	1.40288348e-04
4.13000000e-01	1.56464213e-02	1.40778150e-04
4.14000000e-01	1.56064228e-02	1.40435559e-04
4.15000000e-01	1.55671614e-02	1.39781401e-04
4.16000000e-01	1.55277536e-02	1.39557947e-04
4.17000000e-01	1.56863086e-02	1.40750832e-04
4.18000000e-01	1.55428163e-02	1.41167198e-04
4.19000000e-01	1.56888406e-02	1.44050008e-04
4.20000000e-01	1.57022843e-02	1.45039996e-04
4.21000000e-01	1.57132130e-02	1.45242595e-04
4.22000000e-01	1.56599006e-02	1.45635475e-04
4.23000000e-01	1.55884254e-02	1.45647676e-04
4.24000000e-01	1.55763972e-02	1.45766715e-04
4.25000000e-01	1.55739092e-02	1.46011017e-04
4.26000000e-01	1.54037206e-02	1.44536590e-04
4.27000000e-01	1.56623663e-02	1.46856525e-04
4.28000000e-01	1.55172874e-02	1.46146195e-04
4.29000000e-01	1.55485349e-02	1.46553342e-04
4.30000000e-01	1.55642701e-02	1.46603974e-04
4.31000000e-01	1.55886718e-02	1.45892834e-04
4.32000000e-01	1.55583100e-02	1.46579161e-04
4.33000000e-01	1.55344618e-02	1.46791483e-04
4.34000000e-01	1.54165301e-02	1.45335604e-04
4.35000000e-01	1.54981422e-02	1.46346039e-04
4.36000000e-01	1.55185634e-02	1.46338532e-04
4.37000000e-01	1.54646568e-02	1.46614924e-04
4.38000000e-01	1.55086824e-02	1.46835722e-04
4.39000000e-01	1.54353624e-02	1.46845458e-04
4.40000000e-01	1.53723287e-02	1.46393492e-04
4.41000000e-01	1.53661913e-02	1.46284315e-04
4.42000000e-01	1.53027138e-02	1.45886756e-04
4.43000000e-01	1.54616190e-02	1.47379931e-04
4.44000000e-01	1.54350887e-02	1.47067267e-04
4.45000000e-01	1.53481864e-02	1.47021563e-04
4.46000000e-01	1.52401196e-02	1.46153813e-04
4.47000000e-01	1.55063686e-02	1.48640176e-04
4.48000000e-01	1.53563403e-02	1.47496974e-04
4.49000000e-01	1.53877893e-02	1.47738538e-04
4.50000000e-01	1.54256201e-02	1.47837665e-04
4.51000000e-01	1.51673676e-02	1.45740713e-04
4.52000000e-01	1.53173849e-02	1.47150690e-04
4.53000000e-01	1.52967230e-02	1.47613323e-04
4.54000000e-01	1.52487274e-02	1.47223169e-04
4.55000000e-01	1.54002446e-02	1.48635390e-04
4.56000000e-01	1.52597491e-02	1.47219228e-04
4.57000000e-01	1.52608847e-02	1.47289127e-04
4.58000000e-01	1.53015499e-02	1.48104873e-04
4.59000000e-01	1.52381408e-02	1.47596694e-04
4.60000000e-01	1.52855832e-02	1.48142618e-04
4.61000000e-01	1.52514502e-02	1.47786303e-04
4.62000000e-01	1.51962993e-02	1.47580686e-04
4.63000000e-01	1.52500267e-02	1.47721082e-04
4.64000000e-01	1.52081472e-02	1.48012069e-04
4.65000000e-01	1.51791130e-02	1.47952095e-04
4.66000000e-01	1.51666288e-02	1.47890504e-04
4.67000000e-01	1.51051878e-02	1.47322109e-04
4.68000000e-01	1.51124935e-02	1.47202782e-04
4.69000000e-01	1.51209450e-02	1.47541152e-04
4.70000000e-01	1.51074007e-02	1.47597512e-04
4.71000000e-01	1.50758005e-02	1.46959202e-04
4.72000000e-01	1.50942537e-02	1.47343862e-04
4.73000000e-01	1.51040553e-02	1.47066559e-04
4.74000000e-01	1.49180486e-02	1.45753463e-04
4.75000000e-01	1.49277388e-02	1.45837089e-04
4.76000000e-01	1.51373578e-02	1.47573755e-04
4.77000000e-01	1.50984187e-02	1.47146786e-04
4.78000000e-01	1.49279750e-02	1.46361226e-04
4.79000000e-01	1.48594999e-02	1.45495445e-04
4.80000000e-01	1.49630019e-02	1.46435615e-04
4.81000000e-01	1.48893366e-02	1.45991156e-04
4.82000000e-01	1.49735325e-02	1.46520833e-04
4.83000000e-01	1.49792142e-02	1.46543236e-04
4.84000000e-01	1.48365297e-02	1.45576872e-04
4.85000000e-01	1.49059580e-02	1.46338382e-04
4.86000000e-01	1.50144265e-02	1.47325500e-04
4.87000000e-01	1.49894548e-02	1.47189831e-04
4.88000000e-01	1.49898210e-02	1.46827729e-04
4.89000000e-01	1.49172547e-02	1.46395808e-04
4.90000000e-01	1.49818271e-02	1.47054409e-04
4.91000000e-01	1.48974283e-02	1.46750859e-04
4.92000000e-01	1.48713749e-02	1.46278268e-04
4.93000000e-01	1.48633050e-02	1.46238498e-04
4.94000000e-01	1.48403377e-02	1.46085014e-04
4.95000000e-01	1.48339529e-02	1.47345725e-04
4.96000000e-01	1.48694896e-02	1.51710225e-04
4.97000000e-01	1.49453877e-02	1.55484952e-04
4.98000000e-01	1.48369504e-02	1.56079841e-04
4.99000000e-01	1.48341583e-02	1.58065849e-04
5.00000000e-01	1.48985980e-02	1.60646884e-04
5.01000000e-01	1.49258696e-02	1.62455836e-04
5.02000000e-01	1.49152375e-02	1.64329250e-04
5.03000000e-01	1.48984360e-02	1.66015526e-04
5.04000000e-01	1.49048782e-02	1.66679846e-04
5.05000000e-01	1.48845073e-02	1.64366298e-04
5.06000000e-01	1.49095329e-02	1.60639788e-04
5.07000000e-01	1.48622399e-02	1.58666021e-04
5.08000000e-01	1.47649323e-02	1.56616777e-04
5.09000000e-01	1.47783175e-02	1.55791437e-04
5.10000000e-01	1.48624215e-02	1.56298546e-04
5.11000000e-01	1.47402981e-02	1.54937121e-04
5.12000000e-01	1.47537474e-02	1.54476931e-04
5.13000000e-01	1.47803875e-02	1.54773151e-04
5.14000000e-01	1.48085412e-02	1.54265809e-04
5.15000000e-01	1.46748644e-02	1.52644738e-04
5.16000000e-01	1.46360532e-02	1.52221583e-04
5.17000000e-01	1.47333033e-02	1.52666551e-04
5.18000000e-01	1.47824499e-02	1.53169037e-04
5.19000000e-01	1.46934978e-02	1.51548485e-04
5.20000000e-01	1.46297954e-02	1.50322205e-04
5.21000000e-01	1.47204170e-02	1.51630075e-04
5.22000000e-01	1.47810000e-02	1.51806669e-04
5.23000000e-01	1.44932179e-02	1.49342734e-04
5.24000000e-01	1.46037988e-02	1.50642103e-04
5.25000000e-01	1.46278957e-02	1.50550240e-04
5.26000000e-01	1.45945497e-02	1.49851151e-04
5.27000000e-01	1.45845484e-02	1.49944180e-04
5.28000000e-01	1.44922139e-02	1.49376037e-04
5.29000000e-01	1.44783495e-02	1.48615943e-04
5.30000000e-01	1.46810350e-02	1.50376651e-04
5.31000000e-01	1.44433189e-02	1.48717714e-04
5.32000000e-01	1.44500897e-02	1.48937000e-04
5.33000000e-01	1.45725889e-02	1.49637721e-04
5.34000000e-01	1.43442360e-02	1.48175550e-04
5.35000000e-01	1.44608625e-02	1.48319423e-04
5.36000000e-01	1.44943974e-02	1.48876270e-04
5.37000000e-01	1.43432338e-02	1.47878894e-04
5.38000000e-01	1.45225756e-02	1.48779602e-04
5.39000000e-01	1.45329879e-02	1.49157754e-04
5.40000000e-01	1.44328527e-02	1.48643046e-04
5.41000000e-01	1.45199669e-02	1.49270307e-04
5.42000000e-01	1.43702064e-02	1.47912717e-04
5.43000000e-01	1.44702021e-02	1.48968501e-04
5.44000000e-01	1.45349981e-02	1.49203049e-04
5.45000000e-01	1.43675823e-02	1.47795393e-04
5.46000000e-01	1.42442414e-02	1.46752008e-04
5.47000000e-01	1.42971618e-02	1.46973684e-04
5.48000000e-01	1.44765892e-02	1.48699035e-04
5.49000000e-01	1.43517900e-02	1.47251831e-04
5.50000000e-01	1.43932397e-02	1.47565291e-04
5.51000000e-01	1.43178115e-02	1.46771463e-04
5.52000000e-01	1.44492721e-02	1.47635375e-04
5.53000000e-01	1.43105923e-02	1.46735782e-04
5.54000000e-01	1.40851769e-02	1.44067498e-04
5.55000000e-01	1.43828159e-02	1.47056601e-04
5.56000000e-01	1.42907878e-02	1.45643271e-04
5.57000000e-01	1.41993942e-02	1.45065698e-04
5.58000000e-01	1.43535870e-02	1.46494883e-04
5.59000000e-01	1.42593843e-02	1.45868885e-04
5.60000000e-01	1.42986386e-02	1.46765191e-04
5.61000000e-01	1.42092997e-02	1.45246006e-04
5.62000000e-01	1.41257737e-02	1.44638777e-04
5.63000000e-01	1.42595946e-02	1.45935490e-04
5.64000000e-01	1.42073397e-02	1.45218429e-04
5.65000000e-01	1.41564509e-02	1.44969330e-04
5.66000000e-01	1.41687735e-02	1.45183799e-04
5.67000000e-01	1.41024662e-02	1.44309891e-04
5.68000000e-01	1.41617060e-02	1.45265676e-04
5.69000000e-01	1.41247963e-02	1.44268707e-04
5.70000000e-01	1.40969448e-02	1.44324159e-04
5.71000000e-01	1.41869800e-02	1.44821679e-04
5.72000000e-01	1.41642520e-02	1.45165080e-04
5.73000000e-01	1.41742933e-02	1.45090731e-04
5.74000000e-01	1.41771278e-02	1.44610915e-04
5.75000000e-01	1.41596379e-02	1.45047008e-04
5.76000000e-01	1.40283850e-02	1.43836144e-04
5.77000000e-01	1.40670367e-02	1.44033747e-04
5.78000000e-01	1.38922534e-02	1.42533461e-04
5.79000000e-01	1.39551807e-02	1.43161646e-04
5.80000000e-01	1.41533333e-02	1.44900636e-04
5.81000000e-01	1.40621346e-02	1.44322734e-04
5.82000000e-01	1.40612787e-02	1.44202940e-04
5.83000000e-01	1.40416188e-02	1.44172043e-04
5.84000000e-01	1.39264828e-02	1.43162398e-04
5.85000000e-01	1.39657699e-02	1.43414765e-04
5.86000000e-01	1.39981998e-02	1.43876696e-04
5.87000000e-01	1.38568498e-02	1.41956040e-04
5.88000000e-01	1.38494942e-02	1.42555655e-04
5.89000000e-01	1.40028135e-02	1.43568440e-04
5.90000000e-01	1.40204945e-02	1.44013640e-04
5.91000000e-01	1.40099472e-02	1.43817917e-04
5.92000000e-01	1.39126588e-02	1.43089253e-04
5.93000000e-01	1.39508323e-02	1.43139335e-04
5.94000000e-01	1.38795118e-02	1.42537596e-04
5.95000000e-01	1.40081839e-02	1.43902458e-04
5.96000000e-01	1.39762127e-02	1.43338671e-04
5.97000000e-01	1.39242345e-02	1.42955060e-04
5.98000000e-01	1.37790117e-02	1.41967355e-04
5.99000000e-01	1.38785153e-02	1.42701108e-04
6.00000000e-01	1.38795648e-02	1.42718954e-04
6.01000000e-01	1.38363054e-02	1.42407033e-04
6.02000000e-01	1.37996309e-02	1.41985455e-04
6.03000000e-01	1.37597909e-02	1.42204977e-04
6.04000000e-01	1.36795093e-02	1.41023190e-04
6.05000000e-01	1.38025371e-02	1.42367047e-04
6.06000000e-01	1.37960534e-02	1.42060826e-04
6.07000000e-01	1.38669817e-02	1.42918330e-04
6.08000000e-01	1.37908636e-02	1.42508175e-04
6.09000000e-01	1.38342219e-02	1.42699511e-04
6.10000000e-01	1.39579763e-02	1.43799881e-04
6.11000000e-01	1.37132050e-02	1.41390803e-04
6.12000000e-01	1.37343118e-02	1.41726057e-04
6.13000000e-01	1.35971017e-02	1.40043017e-04
6.14000000e-01	1.36242007e-02	1.41015090e-04
6.15000000e-01	1.37824592e-02	1.42629767e-04
6.16000000e-01	1.37141280e-02	1.41822628e-04
6.17000000e-01	1.35722295e-02	1.40578622e-04
6.18000000e-01	1.37330676e-02	1.41310317e-04
6.19000000e-01	1.37344148e-02	1.41361311e-04
6.20000000e-01	1.36861788e-02	1.40613464e-04
6.21000000e-01	1.36580979e-02	1.40933193e-04
6.22000000e-01	1.37523094e-02	1.41275397e-04
6.23000000e-01	1.36566535e-02	1.40307663e-04
6.24000000e-01	1.37156766e-02	1.40430887e-04
6.25000000e-01	1.36742221e-02	1.40244483e-04
6.26000000e-01	1.36238642e-02	1.39353436e-04
6.27000000e-01	1.37110478e-02	1.40525103e-04
6.28000000e-01	1.37209601e-02	1.40771178e-04
6.29000000e-01	1.36452117e-02	1.40114576e-04
6.30000000e-01	1.34837246e-02	1.38852768e-04
6.31000000e-01	1.35873471e-02	1.39512973e-04
6.32000000e-01	1.36852016e-02	1.40464429e-04
6.33000000e-01	1.36583646e-02	1.40281283e-04
6.34000000e-01	1.35632789e-02	1.42981018e-04
6.35000000e-01	1.36625657e-02	1.47666015e-04
6.36000000e-01	1.36429613e-02	1.50730815e-04
6.37000000e-01	1.35953706e-02	1.52174115e-04
6.38000000e-01	1.37798549e-02	1.56197950e-04
6.39000000e-01	1.37346182e-02	1.57863165e-04
6.40000000e-01	1.36364567e-02	1.58011483e-04
6.41000000e-01	1.37080531e-02	1.61002794e-04
6.42000000e-01	1.36188191e-02	1.62254304e-04
6.43000000e-01	1.37718437e-02	1.62616958e-04
6.44000000e-01	1.36779521e-02	1.56265393e-04
6.45000000e-01	1.37274257e-02	1.54444761e-04
6.46000000e-01	1.36747716e-02	1.52857213e-04
6.47000000e-01	1.37240828e-02	1.52083437e-04
6.48000000e-01	1.36191990e-02	1.50363045e-04
6.49000000e-01	1.37513919e-02	1.50574596e-04
6.50000000e-01	1.37553496e-02	1.49659485e-04
6.51000000e-01	1.35260252e-02	1.47374764e-04
6.52000000e-01	1.38345532e-02	1.49275600e-04
6.53000000e-01	1.36220750e-02	1.46941059e-04
6.54000000e-01	1.35647283e-02	1.45873348e-04
6.55000000e-01	1.35671219e-02	1.45312450e-04
6.56000000e-01	1.35712877e-02	1.45542772e-04
6.57000000e-01	1.36155584e-02	1.45846166e-04
6.58000000e-01	1.37177736e-02	1.46549410e-04
6.59000000e-01	1.35059700e-02	1.44375064e-04
6.60000000e-01	1.34951798e-02	1.44471763e-04
6.61000000e-01	1.36021984e-02	1.44636833e-04
6.62000000e-01	1.36083003e-02	1.45695667e-04
6.63000000e-01	1.36042122e-02	1.45601936e-04
6.64000000e-01	1.35580918e-02	1.44603248e-04
6.65000000e-01	1.34584112e-02	1.43605792e-04
6.66000000e-01	1.36457181e-02	1.45316256e-04
6.67000000e-01	1.34114032e-02	1.42830877e-04
6.68000000e-01	1.34518148e-02	1.43263248e-04
6.69000000e-01	1.33831303e-02	1.42588393e-04
6.70000000e-01	1.34613695e-02	1.43125218e-04
6.71000000e-01	1.34241265e-02	1.43336305e-04
6.72000000e-01	1.34963344e-02	1.43450735e-04
6.73000000e-01	1.34601450e-02	1.42803700e-04
6.74000000e-01	1.33441048e-02	1.42056420e-04
6.75000000e-01	1.34277196e-02	1.42661117e-04
6.76000000e-01	1.34091855e-02	1.42310061e-04
6.77000000e-01	1.34446842e-02	1.42299644e-04
6.78000000e-01	1.34298611e-02	1.42398835e-04
6.79000000e-01	1.34155451e-02	1.42633078e-04
6.80000000e-01	1.35103844e-02	1.43219689e-04
6.81000000e-01	1.33588411e-02	1.41775983e-04
6.82000000e-01	1.34602580e-02	1.43035381e-04
6.83000000e-01	1.34007821e-02	1.41890427e-04
6.84000000e-01	1.32437665e-02	1.40474636e-04
6.85000000e-01	1.33726910e-02	1.41502903e-04
6.86000000e-01	1.33925496e-02	1.41574228e-04
6.87000000e-01	1.32690054e-02	1.40391185e-04
6.88000000e-01	1.33779386e-02	1.41791934e-04
6.89000000e-01	1.32893332e-02	1.40884592e-04
6.90000000e-01	1.31794290e-02	1.40006996e-04
6.91000000e-01	1.32861590e-02	1.40691057e-04
6.92000000e-01	1.33880814e-02	1.41244307e-04
6.93000000e-01	1.32479560e-02	1.40238129e-04
6.94000000e-01	1.34180744e-02	1.41681953e-04
6.95000000e-01	1.32987857e-02	1.40894447e-04
6.96000000e-01	1.33252406e-02	1.41393072e-04
6.97000000e-01	1.33782911e-02	1.41316662e-04
6.98000000e-01	1.32174798e-02	1.40093921e-04
6.99000000e-01	1.33066089e-02	1.40829175e-04
7.00000000e-01	1.32685200e-02	1.40536301e-04
7.01000000e-01	1.32888786e-02	1.40256127e-04
7.02000000e-01	1.32106859e-02	1.39903673e-04
7.03000000e-01	1.31452064e-02	1.38876864e-04
7.04000000e-01	1.32069071e-02	1.39496900e-04
7.05000000e-01	1.32321817e-02	1.39846797e-04
7.06000000e-01	1.30337822e-02	1.37959458e-04
7.07000000e-01	1.29896998e-02	1.37842865e-04
7.08000000e-01	1.31548214e-02	1.38442917e-04
7.09000000e-01	1.31070382e-02	1.38574726e-04
7.10000000e-01	1.30979197e-02	1.38690891e-04
7.11000000e-01	1.30915872e-02	1.38929944e-04
7.12000000e-01	1.31803346e-02	1.39042314e-04
7.13000000e-01	1.30818651e-02	1.38282482e-04
7.14000000e-01	1.30243519e-02	1.37676126e-04
7.15000000e-01	1.30197382e-02	1.38035974e-04
7.16000000e-01	1.30648743e-02	1.38156263e-04
7.17000000e-01	1.30922630e-02	1.38495194e-04
7.18000000e-01	1.29663953e-02	1.37288425e-04
7.19000000e-01	1.30683353e-02	1.38241200e-04
7.20000000e-01	1.30302284e-02	1.38179748e-04
7.21000000e-01	1.29529184e-02	1.37185995e-04
7.22000000e-01	1.29495954e-02	1.37383919e-04
7.23000000e-01	1.30223961e-02	1.37934379e-04
7.24000000e-01	1.30914935e-02	1.38305063e-04
7.25000000e-01	1.28771169e-02	1.36151696e-04
7.26000000e-01	1.28605755e-02	1.36049789e-04
7.27000000e-01	1.29361515e-02	1.36862017e-04
7.28000000e-01	1.29079135e-02	1.36299728e-04
7.29000000e-01	1.29413914e-02	1.36783749e-04
7.30000000e-01	1.30274570e-02	1.38153842e-04
7.31000000e-01	1.28180200e-02	1.35858032e-04
7.32000000e-01	1.29525671e-02	1.37243014e-04
7.33000000e-01	1.27728953e-02	1.35373166e-04
7.34000000e-01	1.28922275e-02	1.35804863e-04
7.35000000e-01	1.28303608e-02	1.35389816e-04
7.36000000e-01	1.27829009e-02	1.35045741e-04
7.37000000e-01	1.28788527e-02	1.35274508e-04
7.38000000e-01	1.28777739e-02	1.35456977e-04
7.39000000e-01	1.27347369e-02	1.33948264e-04
7.40000000e-01	1.26943283e-02	1.33278552e-04
7.41000000e-01	1.27949423e-02	1.34299698e-04
7.42000000e-01	1.27880231e-02	1.33894595e-04
7.43000000e-01	1.28277358e-02	1.34380713e-04
7.44000000e-01	1.28181379e-02	1.34461083e-04
7.45000000e-01	1.28056881e-02	1.33899779e-04
7.46000000e-01	1.28617159e-02	1.34829212e-04
7.47000000e-01	1.28115274e-02	1.34463148e-04
7.48000000e-01	1.26270444e-02	1.32596496e-04
7.49000000e-01	1.27192599e-02	1.33550442e-04
7.50000000e-01	1.26499247e-02	1.32927547e-04
7.51000000e-01	1.26412095e-02	1.32325423e-04
7.52000000e-01	1.26916948e-02	1.32687485e-04
7.53000000e-01	1.27278092e-02	1.33454941e-04
7.54000000e-01	1.27236350e-02	1.33544775e-04
7.55000000e-01	1.26763251e-02	1.32864235e-04
7.56000000e-01	1.26401233e-02	1.32689779e-04
7.57000000e-01	1.26043965e-02	1.32320112e-04
7.58000000e-01	1.27397988e-02	1.33414116e-04
7.59000000e-01	1.26355326e-02	1.32734218e-04
7.60000000e-01	1.26451481e-02	1.32401097e-04
7.61000000e-01	1.25890686e-02	1.31542472e-04
7.62000000e-01	1.25977296e-02	1.31833264e-04
7.63000000e-01	1.26233064e-02	1.31785954e-04
7.64000000e-01	1.24553000e-02	1.29944161e-04
7.65000000e-01	1.24324334e-02	1.29491211e-04
7.66000000e-01	1.25002454e-02	1.30307966e-04
7.67000000e-01	1.24175772e-02	1.29520059e-04
7.68000000e-01	1.25198731e-02	1.29950559e-04
7.69000000e-01	1.25492348e-02	1.30515126e-04
7.70000000e-01	1.24674739e-02	1.29901375e-04
7.71000000e-01	1.24615072e-02	1.29704020e-04
7.72000000e-01	1.24458149e-02	1.33795928e-04
7.73000000e-01	1.23651258e-02	1.37084691e-04
7.74000000e-01	1.22636887e-02	1.38689957e-04
7.75000000e-01	1.24412821e-02	1.43095086e-04
7.76000000e-01	1.23917342e-02	1.44972042e-04
7.77000000e-01	1.23787271e-02	1.46447468e-04
7.78000000e-01	1.23850418e-02	1.49152761e-04
7.79000000e-01	1.24404490e-02	1.51071606e-04
7.80000000e-01	1.24325648e-02	1.52313562e-04
7.81000000e-01	1.23404746e-02	1.53478065e-04
7.82000000e-01	1.24135303e-02	1.56401335e-04
7.83000000e-01	1.22580977e-02	1.56028174e-04
7.84000000e-01	1.22728575e-02	1.57681587e-04
7.85000000e-01	1.23453915e-02	1.60526309e-04
7.86000000e-01	1.23595860e-02	1.62224892e-04
7.87000000e-01	1.21925408e-02	1.61181206e-04
7.88000000e-01	1.23049061e-02	1.64604931e-04
7.89000000e-01	1.24644900e-02	1.68922795e-04
7.90000000e-01	1.22028634e-02	1.66762022e-04
7.91000000e-01	1.23084344e-02	1.69918232e-04
7.92000000e-01	1.24137344e-02	1.72018484e-04
7.93000000e-01	1.21050013e-02	1.70771074e-04
7.94000000e-01	1.21798641e-02	1.73718792e-04
7.95000000e-01	1.21496589e-02	1.74418987e-04
7.96000000e-01	1.23015127e-02	1.77705335e-04
7.97000000e-01	1.21995797e-02	1.79426357e-04
7.98000000e-01	1.20342688e-02	1.79140373e-04
7.99000000e-01	1.20817785e-02	1.80219873e-04
8.00000000e-01	1.22324698e-02	1.84480561e-04
8.01000000e-01	1.22555764e-02	1.87592413e-04
8.02000000e-01	1.22459329e-02	1.89173415e-04
8.03000000e-01	1.21562189e-02	1.90527701e-04
8.04000000e-01	1.20847181e-02	1.90354626e-04
8.05000000e-01	1.21199420e-02	1.93739092e-04
8.06000000e-01	1.19520540e-02	1.92759000e-04
8.07000000e-01	1.22611818e-02	1.98722837e-04
8.08000000e-01	1.21569512e-02	2.00770733e-04
8.09000000e-01	1.20016261e-02	1.99389257e-04
8.10000000e-01	1.19436652e-02	2.00928959e-04
8.11000000e-01	1.21922613e-02	2.07264657e-04
8.12000000e-01	1.20740550e-02	2.08257762e-04
8.13000000e-01	1.18514350e-02	2.07128612e-04
8.14000000e-01	1.18735503e-02	2.09212245e-04
8.15000000e-01	1.19697243e-02	2.12727277e-04
8.16000000e-01	1.21352875e-02	2.17808273e-04
8.17000000e-01	1.18243062e-02	2.16771132e-04
8.18000000e-01	1.18282120e-02	2.18507355e-04
8.19000000e-01	1.18772111e-02	2.22099012e-04
8.20000000e-01	1.19110607e-02	2.25089039e-04
8.21000000e-01	1.19483875e-02	2.29266382e-04
8.22000000e-01	1.19042996e-02	2.30630390e-04
8.23000000e-01	1.18601824e-02	2.32936254e-04
8.24000000e-01	1.18155718e-02	2.36565644e-04
8.25000000e-01	1.16270039e-02	2.37001662e-04
8.26000000e-01	1.16544727e-02	2.41191665e-04
8.27000000e-01	1.17978768e-02	2.47315349e-04
8.28000000e-01	1.17491918e-02	2.49949605e-04
8.29000000e-01	1.17433443e-02	2.54597859e-04
8.30000000e-01	1.17425756e-02	2.57550168e-04
8.31000000e-01	1.17751194e-02	2.61958271e-04
8.32000000e-01	1.15098505e-02	2.60740744e-04
8.33000000e-01	1.19260572e-02	2.72824241e-04
8.34000000e-01	1.14723428e-02	2.69909309e-04
8.35000000e-01	1.14676032e-02	2.75242460e-04
8.36000000e-01	1.16855761e-02	2.82343718e-04
8.37000000e-01	1.14307250e-02	2.85883448e-04
8.38000000e-01	1.16425128e-02	2.94000007e-04
8.39000000e-01	1.16408869e-02	2.96646697e-04
8.40000000e-01	1.13462712e-02	2.96325791e-04
8.41000000e-01	1.16198406e-02	3.11322699e-04
8.42000000e-01	1.17892608e-02	3.21433225e-04
8.43000000e-01	1.17677482e-02	3.31796771e-04
8.44000000e-01	1.13923092e-02	3.32610003e-04
8.45000000e-01	1.15367014e-02	3.41514621e-04
8.46000000e-01	1.13446528e-02	3.46492892e-04
8.47000000e-01	1.14023760e-02	3.56922324e-04
8.48000000e-01	1.12693388e-02	3.66745896e-04
8.49000000e-01	1.12049906e-02	3.79026278e-04
8.50000000e-01	1.14237469e-02	3.91775806e-04
8.51000000e-01	1.15415182e-02	4.15058567e-04
8.52000000e-01	1.14269638e-02	4.25105083e-04
8.53000000e-01	1.14984193e-02	4.43853169e-04
8.54000000e-01	1.13722119e-02	4.61502845e-04
8.55000000e-01	1.13825071e-02	4.74817062e-04
8.56000000e-01	1.09280271e-02	4.79238612e-04
8.57000000e-01	1.13455211e-02	4.98981174e-04
8.58000000e-01	1.06664154e-02	4.89937894e-04
8.59000000e-01	1.10959213e-02	5.27664191e-04
8.60000000e-01	1.11884243e-02	5.49395739e-04
8.61000000e-01	1.11020161e-02	5.63423836e-04
8.62000000e-01	1.15328781e-02	5.98902033e-04
8.63000000e-01	1.11552361e-02	6.05005282e-04
8.64000000e-01	1.11031573e-02	6.27163146e-04
8.65000000e-01	1.19978163e-02	7.09372237e-04
8.66000000e-01	1.08722899e-02	6.89211982e-04
8.67000000e-01	1.09214619e-02	7.31136851e-04
8.68000000e-01	1.08022325e-02	7.65780374e-04
8.69000000e-01	1.10721852e-02	8.49344246e-04
8.70000000e-01	1.12313094e-02	9.10551738e-04
8.71000000e-01	1.21041447e-02	1.08979179e-03
8.72000000e-01	1.18929326e-02	1.23223251e-03
8.73000000e-01	1.02923968e-02	1.28314033e-03
8.74000000e-01	1.09027520e-02	1.72485073e-03
8.75000000e-01	8.95960979e-03	3.04687560e-03
