% Filename : SSW20_00038_00032.h5
% Date & Time : 30-Oct-2025 17:44:43
% X-ray Energy (keV) : 13.30001
% Exposure Time (s) : 0.500
% Beam Center : 1461.24000, 208.98300
% Sample to Detector Distance (SDD) (mm) : 1990.750
% Detector Pixel Size (mm) : 0.075
% Photodiode Value : 140851.000
% I0 of Sample : 0
% I0 of Standard : 1
% 
% q(A^-1)   I(q)    I(q)_SE
0.00000000e+00	1.28268047e-02	7.02552475e-03
2.50000000e-04	0.00000000e+00	0.00000000e+00
5.00000000e-04	0.00000000e+00	0.00000000e+00
7.50000000e-04	0.00000000e+00	0.00000000e+00
1.00000000e-03	0.00000000e+00	0.00000000e+00
1.25000000e-03	0.00000000e+00	0.00000000e+00
1.50000000e-03	0.00000000e+00	0.00000000e+00
1.75000000e-03	0.00000000e+00	0.00000000e+00
2.00000000e-03	0.00000000e+00	0.00000000e+00
2.25000000e-03	0.00000000e+00	0.00000000e+00
2.50000000e-03	0.00000000e+00	0.00000000e+00
2.75000000e-03	0.00000000e+00	0.00000000e+00
3.00000000e-03	0.00000000e+00	0.00000000e+00
3.25000000e-03	3.81955782e+03	2.84315471e+03
3.50000000e-03	1.17972473e+03	4.58484796e+02
3.75000000e-03	6.80805395e+02	2.61757325e+02
4.00000000e-03	6.72046460e+02	2.39443112e+02
4.25000000e-03	3.33547496e+02	1.10877928e+02
4.50000000e-03	3.90040717e+02	1.02387805e+02
4.75000000e-03	3.64992691e+02	8.23498459e+01
5.00000000e-03	2.77501710e+02	6.11352840e+01
5.25000000e-03	2.28994857e+02	4.96597536e+01
5.50000000e-03	1.99035624e+02	4.14405811e+01
5.75000000e-03	1.61627719e+02	3.14226830e+01
6.00000000e-03	1.34223806e+02	2.76879229e+01
6.25000000e-03	1.12425994e+02	2.18911208e+01
6.50000000e-03	9.74415732e+01	1.87834138e+01
6.75000000e-03	8.16291329e+01	1.48011816e+01
7.00000000e-03	6.95124509e+01	1.21171818e+01
7.25000000e-03	6.15197510e+01	1.06185402e+01
7.50000000e-03	5.34068261e+01	9.61762433e+00
7.75000000e-03	4.48871437e+01	8.12206738e+00
8.00000000e-03	4.20476362e+01	7.30438301e+00
8.25000000e-03	3.44333809e+01	5.71675400e+00
8.50000000e-03	3.19461065e+01	5.07815565e+00
8.75000000e-03	2.79070824e+01	4.30566607e+00
9.00000000e-03	2.70355865e+01	4.39616792e+00
9.25000000e-03	2.35378258e+01	3.77193436e+00
9.50000000e-03	1.95890917e+01	2.87025035e+00
9.75000000e-03	1.79631544e+01	2.68878877e+00
1.00000000e-02	1.63470412e+01	2.43997047e+00
1.02500000e-02	1.53640102e+01	2.38409924e+00
1.05000000e-02	1.42275641e+01	2.17150716e+00
1.07500000e-02	1.20649705e+01	1.71478574e+00
1.10000000e-02	1.09050578e+01	1.48868573e+00
1.12500000e-02	1.04161998e+01	1.54643533e+00
1.15000000e-02	9.06850778e+00	1.20631909e+00
1.17500000e-02	8.55629751e+00	1.19452100e+00
1.20000000e-02	7.99312828e+00	1.09375758e+00
1.22500000e-02	7.33085647e+00	9.53452039e-01
1.25000000e-02	6.80803108e+00	8.73396965e-01
1.27500000e-02	6.39937290e+00	8.35843454e-01
1.30000000e-02	5.81492984e+00	7.28487013e-01
1.32500000e-02	5.21693045e+00	6.22398529e-01
1.35000000e-02	5.03664487e+00	6.06769339e-01
1.37500000e-02	4.73512135e+00	5.71359010e-01
1.40000000e-02	4.38215099e+00	5.59570614e-01
1.42500000e-02	4.01506833e+00	4.98087222e-01
1.45000000e-02	3.78561549e+00	4.58535074e-01
1.47500000e-02	3.57584787e+00	4.16459690e-01
1.50000000e-02	3.21136183e+00	3.53092294e-01
1.52500000e-02	3.07113171e+00	3.38306993e-01
1.55000000e-02	2.82374055e+00	3.11189319e-01
1.57500000e-02	2.75089241e+00	3.19259284e-01
1.60000000e-02	2.52109836e+00	2.85022894e-01
1.62500000e-02	2.46167550e+00	2.79190730e-01
1.65000000e-02	2.26601670e+00	2.56007158e-01
1.67500000e-02	2.16762804e+00	2.32933234e-01
1.70000000e-02	2.00707057e+00	2.06926781e-01
1.72500000e-02	1.90370661e+00	1.97435188e-01
1.75000000e-02	1.79853562e+00	1.89830325e-01
1.77500000e-02	1.71007238e+00	1.81506571e-01
1.80000000e-02	1.66336783e+00	1.70254941e-01
1.82500000e-02	1.53587321e+00	1.56586336e-01
1.85000000e-02	1.44518577e+00	1.41667162e-01
1.87500000e-02	1.40349096e+00	1.43125885e-01
1.90000000e-02	1.34260949e+00	1.45470061e-01
1.92500000e-02	1.26755905e+00	1.28482473e-01
1.95000000e-02	1.14154891e+00	1.10538931e-01
1.97500000e-02	1.11787529e+00	1.04923224e-01
2.00000000e-02	1.05547519e+00	9.96099472e-02
2.02500000e-02	1.01956437e+00	9.84412471e-02
2.05000000e-02	1.00239471e+00	9.70868008e-02
2.07500000e-02	9.67605015e-01	9.49082505e-02
2.10000000e-02	9.13682343e-01	8.40016149e-02
2.12500000e-02	8.95971189e-01	8.18328853e-02
2.15000000e-02	8.49668808e-01	7.82505017e-02
2.17500000e-02	8.30526007e-01	7.16711651e-02
2.20000000e-02	8.26211862e-01	7.42695849e-02
2.22500000e-02	7.73564104e-01	6.87189151e-02
2.25000000e-02	7.70153277e-01	7.21034923e-02
2.27500000e-02	7.28680242e-01	6.60747371e-02
2.30000000e-02	7.32121615e-01	6.67894159e-02
2.32500000e-02	6.81835507e-01	5.78340095e-02
2.35000000e-02	6.80094487e-01	5.95934726e-02
2.37500000e-02	6.45937405e-01	5.69902138e-02
2.40000000e-02	6.15278557e-01	5.38214448e-02
2.42500000e-02	6.06693125e-01	5.21624783e-02
2.45000000e-02	5.86057874e-01	5.06332301e-02
2.47500000e-02	5.63515018e-01	4.70708752e-02
2.50000000e-02	5.43274372e-01	4.44582607e-02
2.52500000e-02	5.28588945e-01	4.30320562e-02
2.55000000e-02	5.06444539e-01	3.98826228e-02
2.57500000e-02	4.99867095e-01	4.23281404e-02
2.60000000e-02	4.74305425e-01	3.89061831e-02
2.62500000e-02	4.63142276e-01	3.72769404e-02
2.65000000e-02	4.42178607e-01	3.41482060e-02
2.67500000e-02	4.35907602e-01	3.38874944e-02
2.70000000e-02	4.27365284e-01	3.55079221e-02
2.72500000e-02	4.05885055e-01	3.19791761e-02
2.75000000e-02	3.92271621e-01	3.11986150e-02
2.77500000e-02	3.83422984e-01	2.98090104e-02
2.80000000e-02	3.72940692e-01	2.87761848e-02
2.82500000e-02	3.63046532e-01	2.74828116e-02
2.85000000e-02	3.50366093e-01	2.55842783e-02
2.87500000e-02	3.47223769e-01	2.58616833e-02
2.90000000e-02	3.40876819e-01	2.59115652e-02
2.92500000e-02	3.24661736e-01	2.29202748e-02
2.95000000e-02	3.16369470e-01	2.26932660e-02
2.97500000e-02	3.07716338e-01	2.17966593e-02
3.00000000e-02	3.06023383e-01	2.27746541e-02
3.02500000e-02	3.00087098e-01	2.26638193e-02
3.05000000e-02	2.81068283e-01	2.01143911e-02
3.07500000e-02	2.84998725e-01	2.11105796e-02
3.10000000e-02	2.76325730e-01	2.00535251e-02
3.12500000e-02	2.66082055e-01	1.88956732e-02
3.15000000e-02	2.54804852e-01	1.76738460e-02
3.17500000e-02	2.47316896e-01	1.69010390e-02
3.20000000e-02	2.45843109e-01	1.73137072e-02
3.22500000e-02	2.36683316e-01	1.67505548e-02
3.25000000e-02	2.29307874e-01	1.56605857e-02
3.27500000e-02	2.27585209e-01	1.51725370e-02
3.30000000e-02	2.17367138e-01	1.40450806e-02
3.32500000e-02	2.11024443e-01	1.37665507e-02
3.35000000e-02	2.11611156e-01	1.39229999e-02
3.37500000e-02	2.03225993e-01	1.32489587e-02
3.40000000e-02	1.98664265e-01	1.26234950e-02
3.42500000e-02	1.93293801e-01	1.22709977e-02
3.45000000e-02	1.88364427e-01	1.19463311e-02
3.47500000e-02	1.88812689e-01	1.19712003e-02
3.50000000e-02	1.80363052e-01	1.14585109e-02
3.52500000e-02	1.79425118e-01	1.12622275e-02
3.55000000e-02	1.73330252e-01	1.07810990e-02
3.57500000e-02	1.72024785e-01	1.10672962e-02
3.60000000e-02	1.64916370e-01	1.02268924e-02
3.62500000e-02	1.61480006e-01	1.01373401e-02
3.65000000e-02	1.55802659e-01	9.73770518e-03
3.67500000e-02	1.56361111e-01	9.67880218e-03
3.70000000e-02	1.55693832e-01	9.56767160e-03
3.72500000e-02	1.47511209e-01	8.80130832e-03
3.75000000e-02	1.44927763e-01	8.58634217e-03
3.77500000e-02	1.41923639e-01	8.49686959e-03
3.80000000e-02	1.41630765e-01	8.43277277e-03
3.82500000e-02	1.36761846e-01	7.88686585e-03
3.85000000e-02	1.35998799e-01	8.06090239e-03
3.87500000e-02	1.32333706e-01	7.81435451e-03
3.90000000e-02	1.30276819e-01	7.67526607e-03
3.92500000e-02	1.27183487e-01	7.23572460e-03
3.95000000e-02	1.23310077e-01	7.00879231e-03
3.97500000e-02	1.21731558e-01	7.06193346e-03
4.00000000e-02	1.20250551e-01	6.81424096e-03
4.02500000e-02	1.18086521e-01	6.66617588e-03
4.05000000e-02	1.14497500e-01	6.23382739e-03
4.07500000e-02	1.13801767e-01	6.28773109e-03
4.10000000e-02	1.09890592e-01	6.05756734e-03
4.12500000e-02	1.09618697e-01	5.99104581e-03
4.15000000e-02	1.06545216e-01	5.88523176e-03
4.17500000e-02	1.06003718e-01	5.67111590e-03
4.20000000e-02	1.02519097e-01	5.46567359e-03
4.22500000e-02	1.02478573e-01	5.41764679e-03
4.25000000e-02	1.00589450e-01	5.35605958e-03
4.27500000e-02	9.70257501e-02	5.04740796e-03
4.30000000e-02	9.79823824e-02	5.09136987e-03
4.32500000e-02	9.47840960e-02	5.06284007e-03
4.35000000e-02	9.29132458e-02	5.00907923e-03
4.37500000e-02	9.20698536e-02	4.68492964e-03
4.40000000e-02	9.14953458e-02	4.77323653e-03
4.42500000e-02	8.83734653e-02	4.52686081e-03
4.45000000e-02	8.82294940e-02	4.45075206e-03
4.47500000e-02	8.71778675e-02	4.48347146e-03
4.50000000e-02	8.42643852e-02	4.28522201e-03
4.52500000e-02	8.46125993e-02	4.29186590e-03
4.55000000e-02	8.16597134e-02	3.98828182e-03
4.57500000e-02	8.19373052e-02	3.92141321e-03
4.60000000e-02	7.93143507e-02	3.96007910e-03
4.62500000e-02	7.99137631e-02	3.99357672e-03
4.65000000e-02	7.80559240e-02	3.80594456e-03
4.67500000e-02	7.70024064e-02	3.70507812e-03
4.70000000e-02	7.51656990e-02	3.52265772e-03
4.72500000e-02	7.45460894e-02	3.58097485e-03
4.75000000e-02	7.45627175e-02	3.57526407e-03
4.77500000e-02	7.30025766e-02	3.44703385e-03
4.80000000e-02	7.19780533e-02	3.43705612e-03
4.82500000e-02	7.05208201e-02	3.36542621e-03
4.85000000e-02	7.05239890e-02	3.36777649e-03
4.87500000e-02	6.86491666e-02	3.29394641e-03
4.90000000e-02	6.93808101e-02	3.20868416e-03
4.92500000e-02	6.67455716e-02	3.06565564e-03
4.95000000e-02	6.62174999e-02	3.02637594e-03
4.97500000e-02	6.57394978e-02	3.04456105e-03
5.00000000e-02	6.46079676e-02	3.00144738e-03
5.02500000e-02	6.43992065e-02	2.95097307e-03
5.05000000e-02	6.29225390e-02	2.82723414e-03
5.07500000e-02	6.19213862e-02	2.78987743e-03
5.10000000e-02	6.23005367e-02	2.78305095e-03
5.12500000e-02	5.95344706e-02	2.65645385e-03
5.15000000e-02	5.87639639e-02	2.58775693e-03
5.17500000e-02	6.02979683e-02	2.71133398e-03
5.20000000e-02	5.81912953e-02	2.53876070e-03
5.22500000e-02	5.80217783e-02	2.51738337e-03
5.25000000e-02	5.73148074e-02	2.50755136e-03
5.27500000e-02	5.65349191e-02	2.46427008e-03
5.30000000e-02	5.60937334e-02	2.44113830e-03
5.32500000e-02	5.66791038e-02	2.46288417e-03
5.35000000e-02	5.63592504e-02	2.41410027e-03
5.37500000e-02	5.61201959e-02	2.41820387e-03
5.40000000e-02	5.35134040e-02	2.30330292e-03
5.42500000e-02	5.42600415e-02	2.31105646e-03
5.45000000e-02	5.34722350e-02	2.24700134e-03
5.47500000e-02	5.33688616e-02	2.22494843e-03
5.50000000e-02	5.18021172e-02	2.19998347e-03
5.52500000e-02	5.15798530e-02	2.12128697e-03
5.55000000e-02	5.19901735e-02	2.14792027e-03
5.57500000e-02	5.13848534e-02	2.15492684e-03
5.60000000e-02	4.91706232e-02	2.03421344e-03
5.62500000e-02	4.92509312e-02	2.02890833e-03
5.65000000e-02	4.94337762e-02	2.00995895e-03
5.67500000e-02	4.77850354e-02	1.94706075e-03
5.70000000e-02	4.85486889e-02	1.95804085e-03
5.72500000e-02	4.83159050e-02	1.96247630e-03
5.75000000e-02	4.71827014e-02	1.90958813e-03
5.77500000e-02	4.63285015e-02	1.83991837e-03
5.80000000e-02	4.64886510e-02	1.87233178e-03
5.82500000e-02	4.59338926e-02	1.85382931e-03
5.85000000e-02	4.55177909e-02	1.80579333e-03
5.87500000e-02	4.57158646e-02	1.82199212e-03
5.90000000e-02	4.48133529e-02	1.78084267e-03
5.92500000e-02	4.52100949e-02	1.78717135e-03
5.95000000e-02	4.44077895e-02	1.75624493e-03
5.97500000e-02	4.36953177e-02	1.71763037e-03
6.00000000e-02	4.34387127e-02	1.70438424e-03
6.02500000e-02	4.25981022e-02	1.65423664e-03
6.05000000e-02	4.25811530e-02	1.64109039e-03
6.07500000e-02	4.33696764e-02	1.68041763e-03
6.10000000e-02	4.26030922e-02	1.62945795e-03
6.12500000e-02	4.18357970e-02	1.59744978e-03
6.15000000e-02	4.19833019e-02	1.59878868e-03
6.17500000e-02	4.22584750e-02	1.61400496e-03
6.20000000e-02	4.14238226e-02	1.58429316e-03
6.22500000e-02	4.14845459e-02	1.56734411e-03
6.25000000e-02	4.10907470e-02	1.57374171e-03
6.27500000e-02	4.05991142e-02	1.51347573e-03
6.30000000e-02	4.03275509e-02	1.51497896e-03
6.32500000e-02	4.03544032e-02	1.50409563e-03
6.35000000e-02	3.96207109e-02	1.48982374e-03
6.37500000e-02	3.95287381e-02	1.49006005e-03
6.40000000e-02	3.87873612e-02	1.44623703e-03
6.42500000e-02	3.82133952e-02	1.41681089e-03
6.45000000e-02	3.94086228e-02	1.46181476e-03
6.47500000e-02	3.88348452e-02	1.43445455e-03
6.50000000e-02	3.87768155e-02	1.43398595e-03
6.52500000e-02	3.83962633e-02	1.40638802e-03
6.55000000e-02	3.83859146e-02	1.39793989e-03
6.57500000e-02	3.77413167e-02	1.38115183e-03
6.60000000e-02	3.78201643e-02	1.37989703e-03
6.62500000e-02	3.78116879e-02	1.37204790e-03
6.65000000e-02	3.71666795e-02	1.35262513e-03
6.67500000e-02	3.69027963e-02	1.33118078e-03
6.70000000e-02	3.72049808e-02	1.34178354e-03
6.72500000e-02	3.68441397e-02	1.32124655e-03
6.75000000e-02	3.70230051e-02	1.32824455e-03
6.77500000e-02	3.66557304e-02	1.30402557e-03
6.80000000e-02	3.64391833e-02	1.29992225e-03
6.82500000e-02	3.66490450e-02	1.30829321e-03
6.85000000e-02	3.61908960e-02	1.28504633e-03
6.87500000e-02	3.59369130e-02	1.27337095e-03
6.90000000e-02	3.54460806e-02	1.25603972e-03
6.92500000e-02	3.57525031e-02	1.25942500e-03
6.95000000e-02	3.53996335e-02	1.25418131e-03
6.97500000e-02	3.54367078e-02	1.24574824e-03
7.00000000e-02	3.55298535e-02	1.24155627e-03
7.02500000e-02	3.48788869e-02	1.20962180e-03
7.05000000e-02	3.50154828e-02	1.22028008e-03
7.07500000e-02	3.56315692e-02	1.25220250e-03
7.10000000e-02	3.48026885e-02	1.21090835e-03
7.12500000e-02	3.45119327e-02	1.19409679e-03
7.15000000e-02	3.50732632e-02	1.19432308e-03
7.17500000e-02	3.40045460e-02	1.17714265e-03
7.20000000e-02	3.37009665e-02	1.16721013e-03
7.22500000e-02	3.40765817e-02	1.17251685e-03
7.25000000e-02	3.39343109e-02	1.16864811e-03
7.27500000e-02	3.33243850e-02	1.15082470e-03
7.30000000e-02	3.37973803e-02	1.15369673e-03
7.32500000e-02	3.33265409e-02	1.13102660e-03
7.35000000e-02	3.41206784e-02	1.15979020e-03
7.37500000e-02	3.34498475e-02	1.13197928e-03
7.40000000e-02	3.35707109e-02	1.13445309e-03
7.42500000e-02	3.31372068e-02	1.11667741e-03
7.45000000e-02	3.27642937e-02	1.10238395e-03
7.47500000e-02	3.28623444e-02	1.10494482e-03
7.50000000e-02	3.30124824e-02	1.11095472e-03
7.52500000e-02	3.32115333e-02	1.10992411e-03
7.55000000e-02	3.22330592e-02	1.07430329e-03
7.57500000e-02	3.26806506e-02	1.08243636e-03
7.60000000e-02	3.23520613e-02	1.08024278e-03
7.62500000e-02	3.23224212e-02	1.06885713e-03
7.65000000e-02	3.21265368e-02	1.07636782e-03
7.67500000e-02	3.20877888e-02	1.06007025e-03
7.70000000e-02	3.19204457e-02	1.04969917e-03
7.72500000e-02	3.22101951e-02	1.08252828e-03
7.75000000e-02	3.22117824e-02	1.09710777e-03
7.77500000e-02	3.21019047e-02	1.09456532e-03
7.80000000e-02	3.20119905e-02	1.08586885e-03
7.82500000e-02	3.19773786e-02	1.10553965e-03
7.85000000e-02	3.15961661e-02	1.09398262e-03
7.87500000e-02	3.16648668e-02	1.09794276e-03
7.90000000e-02	3.13840918e-02	1.09914161e-03
7.92500000e-02	3.15702023e-02	1.10105979e-03
7.95000000e-02	3.17932520e-02	1.11224666e-03
7.97500000e-02	3.12078244e-02	1.09174055e-03
8.00000000e-02	3.21396885e-02	1.13059058e-03
8.02500000e-02	3.24688825e-02	1.14445773e-03
8.05000000e-02	3.10862667e-02	1.09006581e-03
8.07500000e-02	3.12579452e-02	1.10776766e-03
8.10000000e-02	3.13507482e-02	1.10565679e-03
8.12500000e-02	3.12147748e-02	1.10621171e-03
8.15000000e-02	3.17892043e-02	1.12398991e-03
8.17500000e-02	3.08300267e-02	1.09632902e-03
8.20000000e-02	3.06115135e-02	1.09051711e-03
8.22500000e-02	3.08052752e-02	1.09502042e-03
8.25000000e-02	3.05893709e-02	1.08895526e-03
8.27500000e-02	3.04851994e-02	1.08727595e-03
8.30000000e-02	3.13506620e-02	1.12064359e-03
8.32500000e-02	3.09780118e-02	1.10658172e-03
8.35000000e-02	2.90406395e-02	1.04964569e-03
8.37500000e-02	2.99557882e-02	1.06763915e-03
8.40000000e-02	3.02241523e-02	1.09053344e-03
8.42500000e-02	3.00956764e-02	1.08676680e-03
8.45000000e-02	3.04674716e-02	1.09878766e-03
8.47500000e-02	3.01785443e-02	1.09610259e-03
8.50000000e-02	3.02792949e-02	1.08027418e-03
8.52500000e-02	3.02513919e-02	1.09889357e-03
8.55000000e-02	2.98019786e-02	1.07584777e-03
8.57500000e-02	3.01795890e-02	1.09248775e-03
8.60000000e-02	2.97492362e-02	1.08530510e-03
8.62500000e-02	2.98611290e-02	1.07407893e-03
8.65000000e-02	2.92253077e-02	1.06354653e-03
8.67500000e-02	3.00579089e-02	1.08299208e-03
8.70000000e-02	2.95743224e-02	1.05476645e-03
8.72500000e-02	2.94112582e-02	1.03093775e-03
8.75000000e-02	2.98446245e-02	1.03098943e-03
8.77500000e-02	2.92184116e-02	1.00768525e-03
8.80000000e-02	2.92657043e-02	1.00530844e-03
8.82500000e-02	2.91920456e-02	9.99730055e-04
8.85000000e-02	2.92459932e-02	1.00403404e-03
8.87500000e-02	2.91706797e-02	9.78727973e-04
8.90000000e-02	2.90783141e-02	9.79949868e-04
8.92500000e-02	2.89512967e-02	9.73491567e-04
8.95000000e-02	2.94655632e-02	9.92579547e-04
8.97500000e-02	2.89303580e-02	9.58328729e-04
9.00000000e-02	2.86166286e-02	9.43293265e-04
9.02500000e-02	2.84668322e-02	9.40757627e-04
9.05000000e-02	2.87501280e-02	9.46238876e-04
9.07500000e-02	2.86851954e-02	9.41947842e-04
9.10000000e-02	2.88274773e-02	9.49487155e-04
9.12500000e-02	2.87833916e-02	9.44522934e-04
9.15000000e-02	2.82479918e-02	9.26136497e-04
9.17500000e-02	2.84027417e-02	9.34505774e-04
9.20000000e-02	2.80944192e-02	9.18253179e-04
9.22500000e-02	2.75147664e-02	9.00415249e-04
9.25000000e-02	2.82930639e-02	9.13603310e-04
9.27500000e-02	2.74576157e-02	8.90732017e-04
9.30000000e-02	2.79030254e-02	9.05126876e-04
9.32500000e-02	2.78824149e-02	9.00529228e-04
9.35000000e-02	2.79695493e-02	8.97015812e-04
9.37500000e-02	2.80361641e-02	8.92790513e-04
9.40000000e-02	2.73958122e-02	8.85541593e-04
9.42500000e-02	2.75836812e-02	8.83247825e-04
9.45000000e-02	2.76795364e-02	8.81888213e-04
9.47500000e-02	2.75986678e-02	8.80290208e-04
9.50000000e-02	2.74582298e-02	8.71891317e-04
9.52500000e-02	2.75471981e-02	8.74376300e-04
9.55000000e-02	2.76730915e-02	8.72518905e-04
9.57500000e-02	2.71214437e-02	8.64317748e-04
9.60000000e-02	2.77685534e-02	8.75683276e-04
9.62500000e-02	2.72947169e-02	8.59257376e-04
9.65000000e-02	2.71334310e-02	8.56656111e-04
9.67500000e-02	2.74621699e-02	8.60196180e-04
9.70000000e-02	2.71832682e-02	8.50624007e-04
9.72500000e-02	2.68725010e-02	8.39120639e-04
9.75000000e-02	2.68153021e-02	8.39578468e-04
9.77500000e-02	2.73463498e-02	8.52239907e-04
9.80000000e-02	2.71062750e-02	8.43351671e-04
9.82500000e-02	2.61938098e-02	8.24544651e-04
9.85000000e-02	2.67402206e-02	8.30655914e-04
9.87500000e-02	2.72683242e-02	8.43475762e-04
9.90000000e-02	2.70417181e-02	8.41750602e-04
9.92500000e-02	2.70701195e-02	8.35444246e-04
9.95000000e-02	2.67744997e-02	8.31029843e-04
9.97500000e-02	2.66107344e-02	8.23561135e-04
1.00000000e-01	2.69852947e-02	6.79139037e-04
1.00500000e-01	2.62622283e-02	5.74671166e-04
1.01000000e-01	2.67402996e-02	5.78381524e-04
1.01500000e-01	2.63737944e-02	5.70976883e-04
1.02000000e-01	2.65331435e-02	5.70915452e-04
1.02500000e-01	2.59391867e-02	5.56921244e-04
1.03000000e-01	2.57488696e-02	5.56306427e-04
1.03500000e-01	2.60830652e-02	5.58240354e-04
1.04000000e-01	2.59061887e-02	5.52671648e-04
1.04500000e-01	2.58650884e-02	5.52660263e-04
1.05000000e-01	2.58008617e-02	5.48606106e-04
1.05500000e-01	2.59852837e-02	5.49879188e-04
1.06000000e-01	2.58812334e-02	5.46966425e-04
1.06500000e-01	2.58267008e-02	5.43595999e-04
1.07000000e-01	2.57233233e-02	5.50661063e-04
1.07500000e-01	2.52554480e-02	5.49275821e-04
1.08000000e-01	2.51861221e-02	5.51264197e-04
1.08500000e-01	2.52147911e-02	5.54997390e-04
1.09000000e-01	2.52067844e-02	5.59262800e-04
1.09500000e-01	2.49187511e-02	5.57789015e-04
1.10000000e-01	2.48079501e-02	5.48667284e-04
1.10500000e-01	2.46782130e-02	5.34190041e-04
1.11000000e-01	2.53894612e-02	5.40704501e-04
1.11500000e-01	2.50857758e-02	5.30564835e-04
1.12000000e-01	2.50025522e-02	5.23850738e-04
1.12500000e-01	2.53085747e-02	5.27935017e-04
1.13000000e-01	2.50424994e-02	5.21111567e-04
1.13500000e-01	2.52490112e-02	5.22104447e-04
1.14000000e-01	2.49559364e-02	5.15044729e-04
1.14500000e-01	2.54116027e-02	5.21876106e-04
1.15000000e-01	2.52349204e-02	5.17265740e-04
1.15500000e-01	2.53361646e-02	5.19827851e-04
1.16000000e-01	2.51717173e-02	5.14511565e-04
1.16500000e-01	2.51299359e-02	5.10450924e-04
1.17000000e-01	2.50902342e-02	5.10063219e-04
1.17500000e-01	2.46072022e-02	4.96429767e-04
1.18000000e-01	2.49215625e-02	5.05315821e-04
1.18500000e-01	2.49666953e-02	5.00787816e-04
1.19000000e-01	2.44971906e-02	4.94239746e-04
1.19500000e-01	2.44128933e-02	4.89807490e-04
1.20000000e-01	2.47228751e-02	4.94653254e-04
1.20500000e-01	2.45785626e-02	4.92632583e-04
1.21000000e-01	2.45524703e-02	4.89268093e-04
1.21500000e-01	2.44599963e-02	4.86079510e-04
1.22000000e-01	2.45512031e-02	4.85648530e-04
1.22500000e-01	2.45400204e-02	4.85737434e-04
1.23000000e-01	2.47789108e-02	4.89378146e-04
1.23500000e-01	2.50310435e-02	4.94848223e-04
1.24000000e-01	2.50118692e-02	4.91994430e-04
1.24500000e-01	2.53377036e-02	4.94942370e-04
1.25000000e-01	2.50853107e-02	4.91745114e-04
1.25500000e-01	2.52035823e-02	4.90952786e-04
1.26000000e-01	2.50172327e-02	4.87970866e-04
1.26500000e-01	2.46867530e-02	4.79299430e-04
1.27000000e-01	2.46105802e-02	4.77788285e-04
1.27500000e-01	2.49989812e-02	4.85835070e-04
1.28000000e-01	2.44609745e-02	4.75743173e-04
1.28500000e-01	2.45525490e-02	4.74724328e-04
1.29000000e-01	2.47338320e-02	4.76140045e-04
1.29500000e-01	2.45562165e-02	4.71474582e-04
1.30000000e-01	2.49954165e-02	4.80282186e-04
1.30500000e-01	2.43926265e-02	4.67721696e-04
1.31000000e-01	2.44651440e-02	4.65551984e-04
1.31500000e-01	2.42236742e-02	4.60969966e-04
1.32000000e-01	2.48600300e-02	4.72292480e-04
1.32500000e-01	2.42973863e-02	4.61616147e-04
1.33000000e-01	2.42091611e-02	4.60343220e-04
1.33500000e-01	2.45529984e-02	4.61942752e-04
1.34000000e-01	2.43031178e-02	4.60141182e-04
1.34500000e-01	2.41819930e-02	4.52259726e-04
1.35000000e-01	2.41370321e-02	4.52274807e-04
1.35500000e-01	2.44906134e-02	4.58073736e-04
1.36000000e-01	2.41521963e-02	4.49227473e-04
1.36500000e-01	2.40322798e-02	4.49934631e-04
1.37000000e-01	2.40700554e-02	4.47813431e-04
1.37500000e-01	2.36882817e-02	4.41297206e-04
1.38000000e-01	2.40012597e-02	4.46407161e-04
1.38500000e-01	2.41788327e-02	4.47875907e-04
1.39000000e-01	2.38882397e-02	4.43007749e-04
1.39500000e-01	2.37346714e-02	4.38418795e-04
1.40000000e-01	2.34029597e-02	4.35046921e-04
1.40500000e-01	2.35183844e-02	4.35577935e-04
1.41000000e-01	2.29580723e-02	4.26675679e-04
1.41500000e-01	2.26863421e-02	4.21860446e-04
1.42000000e-01	2.26338482e-02	4.16136220e-04
1.42500000e-01	2.29442662e-02	4.23093058e-04
1.43000000e-01	2.25405417e-02	4.15564686e-04
1.43500000e-01	2.25962756e-02	4.14253957e-04
1.44000000e-01	2.27639397e-02	4.15630486e-04
1.44500000e-01	2.26582762e-02	4.13329115e-04
1.45000000e-01	2.24559650e-02	4.11794334e-04
1.45500000e-01	2.29909138e-02	4.18267934e-04
1.46000000e-01	2.26266939e-02	4.13337835e-04
1.46500000e-01	2.23075249e-02	4.06170728e-04
1.47000000e-01	2.24358912e-02	4.06906098e-04
1.47500000e-01	2.24110290e-02	4.05290754e-04
1.48000000e-01	2.20644028e-02	3.99783389e-04
1.48500000e-01	2.22726925e-02	4.01989619e-04
1.49000000e-01	2.23219489e-02	4.02805508e-04
1.49500000e-01	2.22627449e-02	4.01922594e-04
1.50000000e-01	2.23590739e-02	4.01495071e-04
1.50500000e-01	2.25718728e-02	4.05383320e-04
1.51000000e-01	2.23435759e-02	3.99925068e-04
1.51500000e-01	2.22634248e-02	3.97797326e-04
1.52000000e-01	2.22365116e-02	3.96019760e-04
1.52500000e-01	2.22281894e-02	3.96902422e-04
1.53000000e-01	2.21109182e-02	3.93802548e-04
1.53500000e-01	2.19961965e-02	3.90322028e-04
1.54000000e-01	2.23519381e-02	3.95730583e-04
1.54500000e-01	2.21779177e-02	3.98746064e-04
1.55000000e-01	2.23246281e-02	4.07150571e-04
1.55500000e-01	2.21906775e-02	4.07211122e-04
1.56000000e-01	2.16768149e-02	4.01081412e-04
1.56500000e-01	2.17447740e-02	4.03264715e-04
1.57000000e-01	2.21206863e-02	4.09420795e-04
1.57500000e-01	2.17394023e-02	3.96932254e-04
1.58000000e-01	2.17005519e-02	3.89850975e-04
1.58500000e-01	2.18445671e-02	3.91054238e-04
1.59000000e-01	2.18620433e-02	3.87222705e-04
1.59500000e-01	2.15772432e-02	3.83166067e-04
1.60000000e-01	2.16518635e-02	3.83976631e-04
1.60500000e-01	2.17386237e-02	3.83557158e-04
1.61000000e-01	2.16225472e-02	3.82900676e-04
1.61500000e-01	2.17047868e-02	3.82503792e-04
1.62000000e-01	2.20080676e-02	3.84323316e-04
1.62500000e-01	2.18490432e-02	3.82753293e-04
1.63000000e-01	2.17879617e-02	3.79260974e-04
1.63500000e-01	2.17962342e-02	3.80651741e-04
1.64000000e-01	2.14025438e-02	3.72394033e-04
1.64500000e-01	2.18717781e-02	3.79254395e-04
1.65000000e-01	2.13836573e-02	3.70550060e-04
1.65500000e-01	2.14260095e-02	3.72513563e-04
1.66000000e-01	2.14071481e-02	3.71889497e-04
1.66500000e-01	2.14624770e-02	3.69255880e-04
1.67000000e-01	2.15071483e-02	3.71354519e-04
1.67500000e-01	2.15002961e-02	3.69753896e-04
1.68000000e-01	2.15056330e-02	3.70512753e-04
1.68500000e-01	2.15621514e-02	3.69905519e-04
1.69000000e-01	2.12947016e-02	3.65345446e-04
1.69500000e-01	2.12855350e-02	3.62917213e-04
1.70000000e-01	2.14198117e-02	3.65611718e-04
1.70500000e-01	2.12303853e-02	3.62739299e-04
1.71000000e-01	2.15741274e-02	3.66970810e-04
1.71500000e-01	2.11280398e-02	3.59076489e-04
1.72000000e-01	2.13384675e-02	3.61550840e-04
1.72500000e-01	2.11766593e-02	3.59197328e-04
1.73000000e-01	2.15020732e-02	3.63524128e-04
1.73500000e-01	2.10994561e-02	3.55885984e-04
1.74000000e-01	2.09053384e-02	3.52463339e-04
1.74500000e-01	2.10417170e-02	3.53590511e-04
1.75000000e-01	2.10765110e-02	3.51968855e-04
1.75500000e-01	2.13042179e-02	3.55542673e-04
1.76000000e-01	2.10629972e-02	3.52123944e-04
1.76500000e-01	2.11698631e-02	3.53175559e-04
1.77000000e-01	2.12954327e-02	3.53216101e-04
1.77500000e-01	2.09385606e-02	3.49529347e-04
1.78000000e-01	2.11545607e-02	3.51466128e-04
1.78500000e-01	2.11358062e-02	3.51105970e-04
1.79000000e-01	2.11311200e-02	3.50568886e-04
1.79500000e-01	2.09909269e-02	3.48811787e-04
1.80000000e-01	2.09071763e-02	3.47539155e-04
1.80500000e-01	2.09579262e-02	3.46824090e-04
1.81000000e-01	2.10592524e-02	3.49962633e-04
1.81500000e-01	2.07525561e-02	3.43405763e-04
1.82000000e-01	2.05757113e-02	3.41068146e-04
1.82500000e-01	2.09946592e-02	3.45080055e-04
1.83000000e-01	2.09013199e-02	3.44345197e-04
1.83500000e-01	2.07656362e-02	3.41063121e-04
1.84000000e-01	2.06406161e-02	3.39296050e-04
1.84500000e-01	2.08288095e-02	3.42192773e-04
1.85000000e-01	2.06088636e-02	3.38598230e-04
1.85500000e-01	2.09333494e-02	3.41732335e-04
1.86000000e-01	2.07898693e-02	3.40261934e-04
1.86500000e-01	2.06483099e-02	3.36972252e-04
1.87000000e-01	2.04539610e-02	3.33156889e-04
1.87500000e-01	2.08489782e-02	3.38800118e-04
1.88000000e-01	2.09026485e-02	3.39666867e-04
1.88500000e-01	2.06040763e-02	3.35406055e-04
1.89000000e-01	2.05634574e-02	3.33511294e-04
1.89500000e-01	2.09205823e-02	3.39596328e-04
1.90000000e-01	2.05475542e-02	3.32998634e-04
1.90500000e-01	2.04800458e-02	3.31925807e-04
1.91000000e-01	2.04191478e-02	3.30188180e-04
1.91500000e-01	2.06260404e-02	3.32956130e-04
1.92000000e-01	2.05859391e-02	3.31310204e-04
1.92500000e-01	2.07533537e-02	3.33885321e-04
1.93000000e-01	2.05566965e-02	3.31104561e-04
1.93500000e-01	2.04710715e-02	3.29056501e-04
1.94000000e-01	2.02729916e-02	3.26734086e-04
1.94500000e-01	2.04279582e-02	3.28281107e-04
1.95000000e-01	2.06128742e-02	3.30098203e-04
1.95500000e-01	2.04651196e-02	3.25922560e-04
1.96000000e-01	2.04545973e-02	3.25476908e-04
1.96500000e-01	2.03889831e-02	3.26371313e-04
1.97000000e-01	2.06191027e-02	3.27429653e-04
1.97500000e-01	2.06590527e-02	3.28164826e-04
1.98000000e-01	2.02115080e-02	3.19944952e-04
1.98500000e-01	2.04949391e-02	3.24611771e-04
1.99000000e-01	2.04067639e-02	3.24307552e-04
1.99500000e-01	2.05258956e-02	3.23338816e-04
2.00000000e-01	2.05202104e-02	3.24057645e-04
2.00500000e-01	2.04608303e-02	3.23041191e-04
2.01000000e-01	2.04923852e-02	3.22939859e-04
2.01500000e-01	2.04129624e-02	3.21065356e-04
2.02000000e-01	2.03145795e-02	3.18980665e-04
2.02500000e-01	2.02946152e-02	3.17653732e-04
2.03000000e-01	2.04022590e-02	3.20082651e-04
2.03500000e-01	2.03383062e-02	3.17555355e-04
2.04000000e-01	2.02176242e-02	3.16762052e-04
2.04500000e-01	2.04453696e-02	3.19520441e-04
2.05000000e-01	2.02543333e-02	3.15892061e-04
2.05500000e-01	2.01868369e-02	3.14282607e-04
2.06000000e-01	2.02245423e-02	3.14728817e-04
2.06500000e-01	2.01211717e-02	3.13653327e-04
2.07000000e-01	2.00250689e-02	3.11053243e-04
2.07500000e-01	2.02180851e-02	3.13632992e-04
2.08000000e-01	2.02637140e-02	3.14938505e-04
2.08500000e-01	2.00275065e-02	3.09054994e-04
2.09000000e-01	2.00920902e-02	3.12256944e-04
2.09500000e-01	1.99943661e-02	3.09476543e-04
2.10000000e-01	2.00728576e-02	3.10327391e-04
2.10500000e-01	2.01236285e-02	3.09623855e-04
2.11000000e-01	1.99951886e-02	3.07041204e-04
2.11500000e-01	2.02149914e-02	3.12578553e-04
2.12000000e-01	1.99767016e-02	3.06938827e-04
2.12500000e-01	2.01694570e-02	3.09570040e-04
2.13000000e-01	1.99743789e-02	3.06052005e-04
2.13500000e-01	2.00901068e-02	3.07337189e-04
2.14000000e-01	1.99869371e-02	3.07360776e-04
2.14500000e-01	1.99931448e-02	3.04356045e-04
2.15000000e-01	1.98083677e-02	3.03749848e-04
2.15500000e-01	1.99400737e-02	3.01534944e-04
2.16000000e-01	1.98359782e-02	3.01985153e-04
2.16500000e-01	1.99576165e-02	3.03689904e-04
2.17000000e-01	1.98811914e-02	3.05973116e-04
2.17500000e-01	1.98038151e-02	3.09796864e-04
2.18000000e-01	1.97431504e-02	3.08752061e-04
2.18500000e-01	2.00178930e-02	3.16981837e-04
2.19000000e-01	1.97331139e-02	3.12905202e-04
2.19500000e-01	2.00473040e-02	3.19457865e-04
2.20000000e-01	1.98564984e-02	3.17174249e-04
2.20500000e-01	2.00805723e-02	3.22029995e-04
2.21000000e-01	1.96325940e-02	3.15775586e-04
2.21500000e-01	1.98403342e-02	3.20403407e-04
2.22000000e-01	1.98725640e-02	3.20113398e-04
2.22500000e-01	1.96040747e-02	3.17140905e-04
2.23000000e-01	1.98910646e-02	3.22478946e-04
2.23500000e-01	1.96707487e-02	3.20165690e-04
2.24000000e-01	1.95508095e-02	3.18954270e-04
2.24500000e-01	2.00577567e-02	3.28286079e-04
2.25000000e-01	1.96884555e-02	3.23254099e-04
2.25500000e-01	1.97138878e-02	3.23481299e-04
2.26000000e-01	1.93385808e-02	3.17397510e-04
2.26500000e-01	1.97454933e-02	3.20796721e-04
2.27000000e-01	1.96856966e-02	3.14696507e-04
2.27500000e-01	1.97357951e-02	3.13872642e-04
2.28000000e-01	1.98407649e-02	3.13615093e-04
2.28500000e-01	1.96108263e-02	3.08515976e-04
2.29000000e-01	1.96482642e-02	3.08720852e-04
2.29500000e-01	1.95576270e-02	3.05555302e-04
2.30000000e-01	1.96578771e-02	3.06499552e-04
2.30500000e-01	1.96054479e-02	3.04705779e-04
2.31000000e-01	1.98552652e-02	3.07823746e-04
2.31500000e-01	1.93262968e-02	2.99493170e-04
2.32000000e-01	1.94257674e-02	3.00652307e-04
2.32500000e-01	1.93812017e-02	2.99442411e-04
2.33000000e-01	1.95928827e-02	2.99930980e-04
2.33500000e-01	1.91782839e-02	2.94266790e-04
2.34000000e-01	1.94739838e-02	2.98532692e-04
2.34500000e-01	1.93831707e-02	2.94745882e-04
2.35000000e-01	1.94360952e-02	2.95915121e-04
2.35500000e-01	1.94947690e-02	2.97176214e-04
2.36000000e-01	1.90720119e-02	2.90019037e-04
2.36500000e-01	1.91870081e-02	2.92535124e-04
2.37000000e-01	1.94306984e-02	2.93665331e-04
2.37500000e-01	1.94942915e-02	2.94737892e-04
2.38000000e-01	1.93692407e-02	2.92070026e-04
2.38500000e-01	1.92835418e-02	2.90235301e-04
2.39000000e-01	1.95788448e-02	2.93683607e-04
2.39500000e-01	1.93923226e-02	2.90819091e-04
2.40000000e-01	1.93430391e-02	2.88916151e-04
2.40500000e-01	1.91204632e-02	2.86273375e-04
2.41000000e-01	1.93590878e-02	2.88985677e-04
2.41500000e-01	1.92699659e-02	2.86753931e-04
2.42000000e-01	1.92561171e-02	2.86653906e-04
2.42500000e-01	1.93430699e-02	2.86887868e-04
2.43000000e-01	1.93665938e-02	2.87212424e-04
2.43500000e-01	1.91553901e-02	2.83796768e-04
2.44000000e-01	1.90528143e-02	2.81766272e-04
2.44500000e-01	1.90093029e-02	2.81196565e-04
2.45000000e-01	1.92897220e-02	2.83444022e-04
2.45500000e-01	1.92395331e-02	2.83778327e-04
2.46000000e-01	1.91124913e-02	2.82054584e-04
2.46500000e-01	1.90323745e-02	2.79710533e-04
2.47000000e-01	1.91507748e-02	2.81098819e-04
2.47500000e-01	1.91837172e-02	2.80323745e-04
2.48000000e-01	1.91766596e-02	2.80994447e-04
2.48500000e-01	1.91603205e-02	2.79665779e-04
2.49000000e-01	1.92803769e-02	2.81616878e-04
2.49500000e-01	1.90747011e-02	2.78725429e-04
2.50000000e-01	1.91597853e-02	2.77963026e-04
2.50500000e-01	1.88393311e-02	2.76265059e-04
2.51000000e-01	1.91581021e-02	2.77127737e-04
2.51500000e-01	1.92144778e-02	2.79378185e-04
2.52000000e-01	1.91472103e-02	2.78668648e-04
2.52500000e-01	1.88887476e-02	2.73846635e-04
2.53000000e-01	1.89914207e-02	2.77100640e-04
2.53500000e-01	1.89942748e-02	2.74719011e-04
2.54000000e-01	1.90676358e-02	2.75558920e-04
2.54500000e-01	1.88457566e-02	2.73049223e-04
2.55000000e-01	1.88700182e-02	2.72451227e-04
2.55500000e-01	1.89440766e-02	2.73510737e-04
2.56000000e-01	1.91122843e-02	2.75328936e-04
2.56500000e-01	1.89272773e-02	2.72629048e-04
2.57000000e-01	1.90242498e-02	2.72770359e-04
2.57500000e-01	1.91346573e-02	2.74460061e-04
2.58000000e-01	1.87688548e-02	2.69574257e-04
2.58500000e-01	1.88279461e-02	2.70275786e-04
2.59000000e-01	1.89830566e-02	2.71925992e-04
2.59500000e-01	1.89607731e-02	2.70485963e-04
2.60000000e-01	1.88915513e-02	2.70110607e-04
2.60500000e-01	1.89863341e-02	2.71646520e-04
2.61000000e-01	1.90017294e-02	2.70645848e-04
2.61500000e-01	1.86900993e-02	2.67013330e-04
2.62000000e-01	1.88663615e-02	2.68089805e-04
2.62500000e-01	1.86441877e-02	2.64879784e-04
2.63000000e-01	1.86355874e-02	2.64220956e-04
2.63500000e-01	1.91075869e-02	2.70503149e-04
2.64000000e-01	1.89762393e-02	2.68544338e-04
2.64500000e-01	1.87978476e-02	2.65577327e-04
2.65000000e-01	1.86831824e-02	2.64840669e-04
2.65500000e-01	1.88483019e-02	2.66412045e-04
2.66000000e-01	1.89418533e-02	2.66500720e-04
2.66500000e-01	1.85997275e-02	2.61499380e-04
2.67000000e-01	1.87462460e-02	2.64736169e-04
2.67500000e-01	1.87955843e-02	2.63736574e-04
2.68000000e-01	1.88037333e-02	2.63566852e-04
2.68500000e-01	1.87316576e-02	2.62836696e-04
2.69000000e-01	1.86957790e-02	2.61498031e-04
2.69500000e-01	1.86734621e-02	2.61018283e-04
2.70000000e-01	1.89511494e-02	2.65634006e-04
2.70500000e-01	1.85121537e-02	2.59356578e-04
2.71000000e-01	1.87799695e-02	2.61612437e-04
2.71500000e-01	1.85840875e-02	2.58146594e-04
2.72000000e-01	1.87012666e-02	2.59263927e-04
2.72500000e-01	1.86440481e-02	2.60016605e-04
2.73000000e-01	1.86536193e-02	2.58859351e-04
2.73500000e-01	1.89950838e-02	2.62350445e-04
2.74000000e-01	1.88875606e-02	2.62502124e-04
2.74500000e-01	1.85760767e-02	2.57524206e-04
2.75000000e-01	1.85312123e-02	2.56756003e-04
2.75500000e-01	1.86659868e-02	2.58602292e-04
2.76000000e-01	1.83987540e-02	2.54894549e-04
2.76500000e-01	1.84727063e-02	2.54932982e-04
2.77000000e-01	1.84298367e-02	2.54429956e-04
2.77500000e-01	1.86234804e-02	2.56664977e-04
2.78000000e-01	1.84307904e-02	2.54523961e-04
2.78500000e-01	1.85632139e-02	2.55765356e-04
2.79000000e-01	1.86038695e-02	2.55908946e-04
2.79500000e-01	1.82988306e-02	2.51253359e-04
2.80000000e-01	1.85211378e-02	2.55352092e-04
2.80500000e-01	1.85250512e-02	2.53589478e-04
2.81000000e-01	1.85455777e-02	2.54319992e-04
2.81500000e-01	1.87984766e-02	2.57087113e-04
2.82000000e-01	1.82508713e-02	2.49408632e-04
2.82500000e-01	1.84964664e-02	2.53061494e-04
2.83000000e-01	1.83829549e-02	2.50654532e-04
2.83500000e-01	1.83779914e-02	2.50692946e-04
2.84000000e-01	1.82931605e-02	2.48499489e-04
2.84500000e-01	1.84505181e-02	2.51558047e-04
2.85000000e-01	1.82855037e-02	2.48341906e-04
2.85500000e-01	1.82972490e-02	2.48085876e-04
2.86000000e-01	1.82896345e-02	2.48444080e-04
2.86500000e-01	1.83160967e-02	2.48596156e-04
2.87000000e-01	1.82291820e-02	2.47436997e-04
2.87500000e-01	1.80150122e-02	2.43627043e-04
2.88000000e-01	1.82445989e-02	2.46231669e-04
2.88500000e-01	1.83379811e-02	2.48686651e-04
2.89000000e-01	1.83032720e-02	2.47198072e-04
2.89500000e-01	1.81000761e-02	2.44665473e-04
2.90000000e-01	1.82342058e-02	2.46181739e-04
2.90500000e-01	1.82889422e-02	2.46372220e-04
2.91000000e-01	1.82596481e-02	2.45732766e-04
2.91500000e-01	1.81704295e-02	2.43266145e-04
2.92000000e-01	1.81868122e-02	2.43966565e-04
2.92500000e-01	1.79475319e-02	2.40937045e-04
2.93000000e-01	1.79330245e-02	2.39940422e-04
2.93500000e-01	1.81545362e-02	2.42543212e-04
2.94000000e-01	1.80653314e-02	2.41911084e-04
2.94500000e-01	1.81612253e-02	2.43659797e-04
2.95000000e-01	1.80912991e-02	2.41608674e-04
2.95500000e-01	1.79362895e-02	2.39927130e-04
2.96000000e-01	1.81733872e-02	2.42372207e-04
2.96500000e-01	1.81696649e-02	2.42807480e-04
2.97000000e-01	1.80034639e-02	2.40905652e-04
2.97500000e-01	1.80456488e-02	2.40376990e-04
2.98000000e-01	1.79755762e-02	2.38924737e-04
2.98500000e-01	1.80679631e-02	2.39449355e-04
2.99000000e-01	1.80992441e-02	2.40507080e-04
2.99500000e-01	1.81360447e-02	2.40731407e-04
3.00000000e-01	1.79337635e-02	2.38135660e-04
3.00500000e-01	1.81532109e-02	2.40504508e-04
3.01000000e-01	1.80266050e-02	2.38440467e-04
3.01500000e-01	1.81364623e-02	2.39886974e-04
3.02000000e-01	1.79686888e-02	2.37236204e-04
3.02500000e-01	1.81829162e-02	2.39968600e-04
3.03000000e-01	1.79822924e-02	2.37612828e-04
3.03500000e-01	1.79439041e-02	2.36827347e-04
3.04000000e-01	1.80718744e-02	2.38623473e-04
3.04500000e-01	1.80493164e-02	2.37185981e-04
3.05000000e-01	1.78136502e-02	2.34909380e-04
3.05500000e-01	1.79553282e-02	2.35597729e-04
3.06000000e-01	1.80546747e-02	2.35978298e-04
3.06500000e-01	1.77423409e-02	2.33404694e-04
3.07000000e-01	1.78849164e-02	2.34146067e-04
3.07500000e-01	1.79126906e-02	2.33721561e-04
3.08000000e-01	1.79842622e-02	2.35194098e-04
3.08500000e-01	1.75560653e-02	2.29865653e-04
3.09000000e-01	1.78384716e-02	2.33012236e-04
3.09500000e-01	1.78862962e-02	2.33295380e-04
3.10000000e-01	1.81123499e-02	2.36122383e-04
3.10500000e-01	1.79155744e-02	2.33475377e-04
3.11000000e-01	1.79021869e-02	2.33569189e-04
3.11500000e-01	1.78642753e-02	2.32682508e-04
3.12000000e-01	1.77349794e-02	2.31217806e-04
3.12500000e-01	1.76330960e-02	2.28878141e-04
3.13000000e-01	1.77540667e-02	2.30520791e-04
3.13500000e-01	1.75401523e-02	2.28338809e-04
3.14000000e-01	1.76694714e-02	2.29156455e-04
3.14500000e-01	1.78149613e-02	2.30617057e-04
3.15000000e-01	1.74881829e-02	2.27240202e-04
3.15500000e-01	1.78714189e-02	2.30687229e-04
3.16000000e-01	1.76313176e-02	2.28232038e-04
3.16500000e-01	1.76093636e-02	2.27612786e-04
3.17000000e-01	1.77920368e-02	2.29767823e-04
3.17500000e-01	1.77844438e-02	2.29269765e-04
3.18000000e-01	1.75425138e-02	2.26673606e-04
3.18500000e-01	1.78090830e-02	2.29675654e-04
3.19000000e-01	1.76584526e-02	2.26909247e-04
3.19500000e-01	1.78623753e-02	2.28958994e-04
3.20000000e-01	1.76113084e-02	2.26691999e-04
3.20500000e-01	1.74930270e-02	2.24778370e-04
3.21000000e-01	1.74743582e-02	2.24640747e-04
3.21500000e-01	1.76925320e-02	2.26451318e-04
3.22000000e-01	1.75509942e-02	2.25807173e-04
3.22500000e-01	1.77359316e-02	2.26802231e-04
3.23000000e-01	1.76060677e-02	2.24988603e-04
3.23500000e-01	1.75948267e-02	2.25091906e-04
3.24000000e-01	1.77212049e-02	2.26221874e-04
3.24500000e-01	1.73923735e-02	2.22263000e-04
3.25000000e-01	1.73880691e-02	2.21589164e-04
3.25500000e-01	1.72469782e-02	2.20185173e-04
3.26000000e-01	1.78013595e-02	2.26810711e-04
3.26500000e-01	1.72756768e-02	2.19394562e-04
3.27000000e-01	1.74355557e-02	2.21968614e-04
3.27500000e-01	1.73549004e-02	2.21126367e-04
3.28000000e-01	1.75219772e-02	2.22410100e-04
3.28500000e-01	1.75839586e-02	2.22952771e-04
3.29000000e-01	1.76044925e-02	2.23424838e-04
3.29500000e-01	1.73556358e-02	2.20614026e-04
3.30000000e-01	1.74929719e-02	2.20974860e-04
3.30500000e-01	1.74341973e-02	2.20569471e-04
3.31000000e-01	1.74684603e-02	2.20827569e-04
3.31500000e-01	1.74108444e-02	2.19519318e-04
3.32000000e-01	1.74919832e-02	2.21450962e-04
3.32500000e-01	1.74631910e-02	2.20039954e-04
3.33000000e-01	1.72525776e-02	2.17814397e-04
3.33500000e-01	1.72984629e-02	2.17739243e-04
3.34000000e-01	1.75574152e-02	2.20587405e-04
3.34500000e-01	1.72670398e-02	2.17307816e-04
3.35000000e-01	1.72621463e-02	2.17178291e-04
3.35500000e-01	1.72628839e-02	2.17038446e-04
3.36000000e-01	1.72782454e-02	2.16791034e-04
3.36500000e-01	1.72078749e-02	2.15848823e-04
3.37000000e-01	1.71869817e-02	2.15255657e-04
3.37500000e-01	1.71711538e-02	2.15239592e-04
3.38000000e-01	1.71679899e-02	2.15119188e-04
3.38500000e-01	1.72127077e-02	2.14567922e-04
3.39000000e-01	1.71896765e-02	2.15625149e-04
3.39500000e-01	1.72113680e-02	2.14886609e-04
3.40000000e-01	1.72733808e-02	2.15299252e-04
3.40500000e-01	1.71825688e-02	2.13946804e-04
3.41000000e-01	1.72996091e-02	2.15619616e-04
3.41500000e-01	1.71660378e-02	2.14519542e-04
3.42000000e-01	1.72019758e-02	2.14128483e-04
3.42500000e-01	1.71687432e-02	2.13448347e-04
3.43000000e-01	1.71822031e-02	2.13831895e-04
3.43500000e-01	1.71188966e-02	2.12474675e-04
3.44000000e-01	1.70857393e-02	2.12611270e-04
3.44500000e-01	1.73671142e-02	2.15252056e-04
3.45000000e-01	1.71587444e-02	2.13231884e-04
3.45500000e-01	1.70439316e-02	2.10849492e-04
3.46000000e-01	1.70532170e-02	2.11290262e-04
3.46500000e-01	1.71400982e-02	2.12476074e-04
3.47000000e-01	1.70378872e-02	2.10715071e-04
3.47500000e-01	1.72044885e-02	2.12655938e-04
3.48000000e-01	1.70052965e-02	2.10060914e-04
3.48500000e-01	1.71320770e-02	2.12251188e-04
3.49000000e-01	1.70436041e-02	2.09652389e-04
3.49500000e-01	1.68845881e-02	2.08223185e-04
3.50000000e-01	1.70302569e-02	1.70925991e-04
3.51000000e-01	1.68728925e-02	1.47181701e-04
3.52000000e-01	1.71577574e-02	1.48974003e-04
3.53000000e-01	1.69726504e-02	1.47017906e-04
3.54000000e-01	1.69873306e-02	1.47038732e-04
3.55000000e-01	1.68713435e-02	1.46205723e-04
3.56000000e-01	1.69192439e-02	1.47220515e-04
3.57000000e-01	1.68879021e-02	1.49304509e-04
3.58000000e-01	1.69039895e-02	1.50365147e-04
3.59000000e-01	1.69000910e-02	1.51464073e-04
3.60000000e-01	1.68713541e-02	1.52223282e-04
3.61000000e-01	1.66762376e-02	1.51576115e-04
3.62000000e-01	1.67794395e-02	1.53190124e-04
3.63000000e-01	1.66209190e-02	1.52421282e-04
3.64000000e-01	1.66937192e-02	1.53503793e-04
3.65000000e-01	1.66650809e-02	1.53686270e-04
3.66000000e-01	1.67959921e-02	1.52759004e-04
3.67000000e-01	1.67408048e-02	1.50526221e-04
3.68000000e-01	1.65742000e-02	1.47757682e-04
3.69000000e-01	1.66211603e-02	1.47634310e-04
3.70000000e-01	1.67458906e-02	1.48172831e-04
3.71000000e-01	1.67674644e-02	1.49963349e-04
3.72000000e-01	1.65425795e-02	1.49068901e-04
3.73000000e-01	1.67363785e-02	1.50889965e-04
3.74000000e-01	1.65701771e-02	1.49674303e-04
3.75000000e-01	1.66038278e-02	1.50089442e-04
3.76000000e-01	1.65008464e-02	1.49257605e-04
3.77000000e-01	1.64991615e-02	1.49330912e-04
3.78000000e-01	1.64034626e-02	1.48279825e-04
3.79000000e-01	1.64639492e-02	1.48686829e-04
3.80000000e-01	1.65570988e-02	1.49301684e-04
3.81000000e-01	1.64654478e-02	1.48431660e-04
3.82000000e-01	1.64249183e-02	1.48280696e-04
3.83000000e-01	1.64418873e-02	1.48100388e-04
3.84000000e-01	1.66540457e-02	1.49981851e-04
3.85000000e-01	1.63439016e-02	1.47601641e-04
3.86000000e-01	1.64550759e-02	1.48185401e-04
3.87000000e-01	1.63919089e-02	1.47848687e-04
3.88000000e-01	1.63834129e-02	1.47528244e-04
3.89000000e-01	1.64028551e-02	1.47698454e-04
3.90000000e-01	1.63259949e-02	1.46722516e-04
3.91000000e-01	1.64359987e-02	1.47984879e-04
3.92000000e-01	1.62169163e-02	1.45980869e-04
3.93000000e-01	1.62871105e-02	1.46599768e-04
3.94000000e-01	1.63236623e-02	1.46620525e-04
3.95000000e-01	1.61464620e-02	1.44839809e-04
3.96000000e-01	1.62179787e-02	1.46000546e-04
3.97000000e-01	1.62995855e-02	1.46455683e-04
3.98000000e-01	1.62179151e-02	1.46397686e-04
3.99000000e-01	1.62709951e-02	1.46603969e-04
4.00000000e-01	1.61859249e-02	1.45567088e-04
4.01000000e-01	1.60874259e-02	1.44842439e-04
4.02000000e-01	1.61154203e-02	1.45278488e-04
4.03000000e-01	1.60226049e-02	1.43974473e-04
4.04000000e-01	1.59912660e-02	1.43943713e-04
4.05000000e-01	1.62595801e-02	1.46104820e-04
4.06000000e-01	1.60653460e-02	1.44673028e-04
4.07000000e-01	1.61953002e-02	1.45378167e-04
4.08000000e-01	1.60017528e-02	1.43478954e-04
4.09000000e-01	1.60996625e-02	1.44504258e-04
4.10000000e-01	1.60176813e-02	1.43838252e-04
4.11000000e-01	1.61303321e-02	1.44637707e-04
4.12000000e-01	1.60452132e-02	1.43923407e-04
4.13000000e-01	1.59691288e-02	1.43417521e-04
4.14000000e-01	1.58322356e-02	1.41892514e-04
4.15000000e-01	1.60622794e-02	1.43472293e-04
4.16000000e-01	1.60709255e-02	1.43801428e-04
4.17000000e-01	1.60156858e-02	1.43340621e-04
4.18000000e-01	1.59631138e-02	1.44363861e-04
4.19000000e-01	1.60559015e-02	1.47397785e-04
4.20000000e-01	1.61443299e-02	1.49073855e-04
4.21000000e-01	1.58920457e-02	1.46737482e-04
4.22000000e-01	1.61281715e-02	1.48888885e-04
4.23000000e-01	1.60907893e-02	1.49827345e-04
4.24000000e-01	1.59644822e-02	1.49210956e-04
4.25000000e-01	1.60307615e-02	1.49843870e-04
4.26000000e-01	1.59802206e-02	1.49262366e-04
4.27000000e-01	1.60781575e-02	1.49953760e-04
4.28000000e-01	1.60132626e-02	1.49828139e-04
4.29000000e-01	1.58848318e-02	1.49510867e-04
4.30000000e-01	1.59316373e-02	1.49341916e-04
4.31000000e-01	1.59750273e-02	1.49624405e-04
4.32000000e-01	1.58404977e-02	1.48886523e-04
4.33000000e-01	1.58826851e-02	1.49082761e-04
4.34000000e-01	1.58253938e-02	1.48954772e-04
4.35000000e-01	1.58614566e-02	1.49542673e-04
4.36000000e-01	1.57148345e-02	1.48242035e-04
4.37000000e-01	1.58876812e-02	1.49990559e-04
4.38000000e-01	1.57726716e-02	1.49055771e-04
4.39000000e-01	1.58949245e-02	1.50021026e-04
4.40000000e-01	1.58275432e-02	1.49705535e-04
4.41000000e-01	1.57198163e-02	1.48973325e-04
4.42000000e-01	1.58273184e-02	1.50359466e-04
4.43000000e-01	1.56696564e-02	1.48969167e-04
4.44000000e-01	1.58449897e-02	1.50422000e-04
4.45000000e-01	1.58604568e-02	1.51160133e-04
4.46000000e-01	1.57990799e-02	1.50647019e-04
4.47000000e-01	1.57078290e-02	1.49754633e-04
4.48000000e-01	1.56198697e-02	1.49448061e-04
4.49000000e-01	1.56027874e-02	1.49429948e-04
4.50000000e-01	1.56512367e-02	1.50300397e-04
4.51000000e-01	1.56498243e-02	1.50074910e-04
4.52000000e-01	1.56585343e-02	1.50223524e-04
4.53000000e-01	1.55349729e-02	1.49729475e-04
4.54000000e-01	1.56168128e-02	1.50082618e-04
4.55000000e-01	1.57538817e-02	1.51347908e-04
4.56000000e-01	1.56824317e-02	1.50774841e-04
4.57000000e-01	1.56881675e-02	1.50858604e-04
4.58000000e-01	1.56359728e-02	1.50677945e-04
4.59000000e-01	1.56560677e-02	1.50894139e-04
4.60000000e-01	1.55452826e-02	1.50212129e-04
4.61000000e-01	1.55849465e-02	1.51129964e-04
4.62000000e-01	1.55206188e-02	1.50385881e-04
4.63000000e-01	1.54859737e-02	1.50143226e-04
4.64000000e-01	1.55141673e-02	1.50151994e-04
4.65000000e-01	1.55470199e-02	1.50919401e-04
4.66000000e-01	1.54456706e-02	1.49875304e-04
4.67000000e-01	1.56524902e-02	1.51802420e-04
4.68000000e-01	1.55898369e-02	1.51216098e-04
4.69000000e-01	1.54942780e-02	1.51180541e-04
4.70000000e-01	1.54038375e-02	1.50360674e-04
4.71000000e-01	1.54571086e-02	1.50933212e-04
4.72000000e-01	1.54860710e-02	1.50375791e-04
4.73000000e-01	1.54415822e-02	1.50395537e-04
4.74000000e-01	1.56294336e-02	1.51686630e-04
4.75000000e-01	1.54263840e-02	1.50166976e-04
4.76000000e-01	1.53799392e-02	1.49548415e-04
4.77000000e-01	1.53990476e-02	1.49507660e-04
4.78000000e-01	1.53648952e-02	1.49760271e-04
4.79000000e-01	1.54553228e-02	1.51027976e-04
4.80000000e-01	1.54342990e-02	1.50788883e-04
4.81000000e-01	1.54649053e-02	1.50711975e-04
4.82000000e-01	1.53579787e-02	1.49676202e-04
4.83000000e-01	1.53082112e-02	1.49500726e-04
4.84000000e-01	1.53822821e-02	1.50625106e-04
4.85000000e-01	1.52624822e-02	1.49527004e-04
4.86000000e-01	1.53475663e-02	1.50262539e-04
4.87000000e-01	1.53620644e-02	1.50080007e-04
4.88000000e-01	1.54068616e-02	1.50453187e-04
4.89000000e-01	1.53022724e-02	1.49728523e-04
4.90000000e-01	1.51845670e-02	1.48931716e-04
4.91000000e-01	1.52036940e-02	1.49170431e-04
4.92000000e-01	1.52905376e-02	1.50445118e-04
4.93000000e-01	1.53591732e-02	1.50977804e-04
4.94000000e-01	1.52318691e-02	1.49169212e-04
4.95000000e-01	1.53555341e-02	1.51970505e-04
4.96000000e-01	1.54000383e-02	1.56895938e-04
4.97000000e-01	1.52791620e-02	1.58014375e-04
4.98000000e-01	1.52115143e-02	1.59908576e-04
4.99000000e-01	1.51805951e-02	1.61787658e-04
5.00000000e-01	1.51900928e-02	1.63138215e-04
5.01000000e-01	1.52457280e-02	1.65449822e-04
5.02000000e-01	1.53163733e-02	1.68375862e-04
5.03000000e-01	1.52979257e-02	1.69169104e-04
5.04000000e-01	1.54708686e-02	1.72040671e-04
5.05000000e-01	1.53534108e-02	1.68238520e-04
5.06000000e-01	1.52809263e-02	1.64155544e-04
5.07000000e-01	1.54428989e-02	1.64048502e-04
5.08000000e-01	1.52443469e-02	1.61015541e-04
5.09000000e-01	1.51038327e-02	1.59558974e-04
5.10000000e-01	1.51333619e-02	1.59644572e-04
5.11000000e-01	1.52206540e-02	1.58998211e-04
5.12000000e-01	1.51831583e-02	1.58727440e-04
5.13000000e-01	1.52388442e-02	1.59248090e-04
5.14000000e-01	1.51243939e-02	1.57029046e-04
5.15000000e-01	1.51286649e-02	1.56546548e-04
5.16000000e-01	1.51828175e-02	1.57007992e-04
5.17000000e-01	1.52327190e-02	1.57704441e-04
5.18000000e-01	1.49566676e-02	1.54948902e-04
5.19000000e-01	1.49105093e-02	1.53386047e-04
5.20000000e-01	1.50736194e-02	1.54752991e-04
5.21000000e-01	1.51184273e-02	1.55167233e-04
5.22000000e-01	1.49296332e-02	1.53299497e-04
5.23000000e-01	1.50305436e-02	1.54530689e-04
5.24000000e-01	1.49512217e-02	1.53775546e-04
5.25000000e-01	1.49494128e-02	1.53353790e-04
5.26000000e-01	1.49468250e-02	1.53564844e-04
5.27000000e-01	1.49899651e-02	1.53617543e-04
5.28000000e-01	1.49216326e-02	1.53486093e-04
5.29000000e-01	1.51052240e-02	1.54713582e-04
5.30000000e-01	1.50465878e-02	1.54159070e-04
5.31000000e-01	1.50147087e-02	1.53495250e-04
5.32000000e-01	1.49208940e-02	1.53012458e-04
5.33000000e-01	1.49533283e-02	1.53127757e-04
5.34000000e-01	1.48802892e-02	1.53049025e-04
5.35000000e-01	1.50051018e-02	1.53521968e-04
5.36000000e-01	1.48190609e-02	1.52164861e-04
5.37000000e-01	1.48243681e-02	1.52230119e-04
5.38000000e-01	1.48564968e-02	1.52135930e-04
5.39000000e-01	1.49237102e-02	1.53039591e-04
5.40000000e-01	1.48009899e-02	1.52143628e-04
5.41000000e-01	1.49314951e-02	1.52958138e-04
5.42000000e-01	1.49299257e-02	1.52846190e-04
5.43000000e-01	1.48371606e-02	1.52271616e-04
5.44000000e-01	1.47443562e-02	1.51036680e-04
5.45000000e-01	1.47405064e-02	1.51031398e-04
5.46000000e-01	1.48891476e-02	1.52948365e-04
5.47000000e-01	1.47549456e-02	1.51473232e-04
5.48000000e-01	1.48187633e-02	1.51643201e-04
5.49000000e-01	1.48694842e-02	1.52020671e-04
5.50000000e-01	1.48028588e-02	1.51774683e-04
5.51000000e-01	1.47220347e-02	1.50570878e-04
5.52000000e-01	1.48555149e-02	1.51438422e-04
5.53000000e-01	1.44967790e-02	1.47800893e-04
5.54000000e-01	1.48354562e-02	1.50687461e-04
5.55000000e-01	1.47158976e-02	1.50060147e-04
5.56000000e-01	1.46020101e-02	1.48790350e-04
5.57000000e-01	1.46583220e-02	1.48951551e-04
5.58000000e-01	1.47091422e-02	1.49346386e-04
5.59000000e-01	1.46116555e-02	1.48580696e-04
5.60000000e-01	1.46475442e-02	1.49553445e-04
5.61000000e-01	1.46059674e-02	1.48399254e-04
5.62000000e-01	1.47305912e-02	1.49980079e-04
5.63000000e-01	1.47114530e-02	1.49946238e-04
5.64000000e-01	1.45600005e-02	1.48088953e-04
5.65000000e-01	1.46761667e-02	1.49637577e-04
5.66000000e-01	1.45537886e-02	1.48426862e-04
5.67000000e-01	1.46230542e-02	1.48941419e-04
5.68000000e-01	1.45688466e-02	1.48752220e-04
5.69000000e-01	1.45907260e-02	1.48180455e-04
5.70000000e-01	1.45968526e-02	1.48190028e-04
5.71000000e-01	1.46558266e-02	1.49261139e-04
5.72000000e-01	1.44781350e-02	1.47432283e-04
5.73000000e-01	1.45832422e-02	1.48909588e-04
5.74000000e-01	1.46344233e-02	1.49204337e-04
5.75000000e-01	1.45274149e-02	1.48165609e-04
5.76000000e-01	1.45716688e-02	1.48337979e-04
5.77000000e-01	1.44433359e-02	1.47594242e-04
5.78000000e-01	1.43918898e-02	1.47031003e-04
5.79000000e-01	1.43919661e-02	1.46696780e-04
5.80000000e-01	1.44484598e-02	1.47942124e-04
5.81000000e-01	1.45676311e-02	1.48898625e-04
5.82000000e-01	1.44949512e-02	1.47462950e-04
5.83000000e-01	1.44422765e-02	1.47659182e-04
5.84000000e-01	1.43561356e-02	1.47013655e-04
5.85000000e-01	1.44481600e-02	1.47963217e-04
5.86000000e-01	1.44108469e-02	1.47856214e-04
5.87000000e-01	1.44596566e-02	1.47956040e-04
5.88000000e-01	1.43877435e-02	1.47343513e-04
5.89000000e-01	1.44561874e-02	1.48091260e-04
5.90000000e-01	1.44849187e-02	1.48384889e-04
5.91000000e-01	1.45217582e-02	1.48589868e-04
5.92000000e-01	1.43721816e-02	1.47301894e-04
5.93000000e-01	1.42389110e-02	1.46097012e-04
5.94000000e-01	1.43433703e-02	1.46962104e-04
5.95000000e-01	1.44722964e-02	1.48034353e-04
5.96000000e-01	1.45156481e-02	1.49298734e-04
5.97000000e-01	1.43674154e-02	1.46966532e-04
5.98000000e-01	1.42930557e-02	1.46207503e-04
5.99000000e-01	1.42084595e-02	1.45633896e-04
6.00000000e-01	1.42125545e-02	1.45770924e-04
6.01000000e-01	1.43002839e-02	1.46715899e-04
6.02000000e-01	1.42206070e-02	1.46020562e-04
6.03000000e-01	1.43075490e-02	1.46448165e-04
6.04000000e-01	1.43485478e-02	1.47047165e-04
6.05000000e-01	1.41460341e-02	1.45101667e-04
6.06000000e-01	1.42071918e-02	1.46183710e-04
6.07000000e-01	1.41379058e-02	1.45526146e-04
6.08000000e-01	1.43610517e-02	1.47261560e-04
6.09000000e-01	1.42527423e-02	1.46267447e-04
6.10000000e-01	1.42811680e-02	1.46334491e-04
6.11000000e-01	1.41111728e-02	1.45425927e-04
6.12000000e-01	1.42984870e-02	1.46905081e-04
6.13000000e-01	1.41202324e-02	1.44840078e-04
6.14000000e-01	1.40184700e-02	1.44452424e-04
6.15000000e-01	1.42857280e-02	1.46431470e-04
6.16000000e-01	1.41519271e-02	1.45393367e-04
6.17000000e-01	1.41599528e-02	1.45882696e-04
6.18000000e-01	1.42188301e-02	1.46086962e-04
6.19000000e-01	1.41983896e-02	1.46228322e-04
6.20000000e-01	1.41113124e-02	1.44989220e-04
6.21000000e-01	1.42837013e-02	1.46408226e-04
6.22000000e-01	1.41246840e-02	1.44617731e-04
6.23000000e-01	1.40427451e-02	1.43278465e-04
6.24000000e-01	1.40810896e-02	1.43725127e-04
6.25000000e-01	1.41193554e-02	1.44103593e-04
6.26000000e-01	1.41774507e-02	1.44289721e-04
6.27000000e-01	1.39902005e-02	1.43077958e-04
6.28000000e-01	1.41667991e-02	1.44191541e-04
6.29000000e-01	1.42351191e-02	1.45313818e-04
6.30000000e-01	1.40218768e-02	1.43455010e-04
6.31000000e-01	1.42980052e-02	1.45834014e-04
6.32000000e-01	1.40246601e-02	1.43524580e-04
6.33000000e-01	1.41160593e-02	1.44497847e-04
6.34000000e-01	1.41294216e-02	1.48046771e-04
6.35000000e-01	1.42216549e-02	1.52993188e-04
6.36000000e-01	1.41205753e-02	1.54964281e-04
6.37000000e-01	1.40294312e-02	1.56258009e-04
6.38000000e-01	1.39827334e-02	1.57347562e-04
6.39000000e-01	1.42087853e-02	1.62168123e-04
6.40000000e-01	1.40408496e-02	1.62450552e-04
6.41000000e-01	1.41334248e-02	1.65866020e-04
6.42000000e-01	1.40949166e-02	1.66459146e-04
6.43000000e-01	1.42828124e-02	1.68515440e-04
6.44000000e-01	1.41950128e-02	1.61510759e-04
6.45000000e-01	1.41165522e-02	1.58717756e-04
6.46000000e-01	1.42625275e-02	1.58817623e-04
6.47000000e-01	1.40983037e-02	1.55582579e-04
6.48000000e-01	1.41199715e-02	1.54681030e-04
6.49000000e-01	1.41477328e-02	1.54254396e-04
6.50000000e-01	1.41093362e-02	1.53110681e-04
6.51000000e-01	1.40432318e-02	1.52064477e-04
6.52000000e-01	1.41749903e-02	1.52803017e-04
6.53000000e-01	1.40698870e-02	1.50999987e-04
6.54000000e-01	1.40933424e-02	1.51096966e-04
6.55000000e-01	1.40881158e-02	1.50228353e-04
6.56000000e-01	1.40757133e-02	1.50440308e-04
6.57000000e-01	1.41387326e-02	1.51160044e-04
6.58000000e-01	1.39669757e-02	1.48764983e-04
6.59000000e-01	1.40780744e-02	1.49886316e-04
6.60000000e-01	1.39590813e-02	1.48352244e-04
6.61000000e-01	1.41032021e-02	1.49778785e-04
6.62000000e-01	1.41310989e-02	1.49962606e-04
6.63000000e-01	1.39891931e-02	1.48863510e-04
6.64000000e-01	1.39882911e-02	1.48466256e-04
6.65000000e-01	1.41052622e-02	1.49680292e-04
6.66000000e-01	1.41070290e-02	1.49510836e-04
6.67000000e-01	1.39546594e-02	1.47902628e-04
6.68000000e-01	1.39978950e-02	1.48786660e-04
6.69000000e-01	1.41019581e-02	1.48928822e-04
6.70000000e-01	1.39116439e-02	1.47203788e-04
6.71000000e-01	1.38846464e-02	1.46953506e-04
6.72000000e-01	1.39811600e-02	1.47788292e-04
6.73000000e-01	1.39840219e-02	1.47680681e-04
6.74000000e-01	1.39979014e-02	1.47903593e-04
6.75000000e-01	1.37787094e-02	1.45648031e-04
6.76000000e-01	1.40704239e-02	1.48829464e-04
6.77000000e-01	1.38837340e-02	1.46389842e-04
6.78000000e-01	1.39824321e-02	1.47892065e-04
6.79000000e-01	1.39411108e-02	1.47371112e-04
6.80000000e-01	1.39330626e-02	1.46904895e-04
6.81000000e-01	1.38586396e-02	1.46704201e-04
6.82000000e-01	1.37954010e-02	1.45570190e-04
6.83000000e-01	1.39501318e-02	1.46935304e-04
6.84000000e-01	1.39154531e-02	1.46504968e-04
6.85000000e-01	1.38618592e-02	1.46025366e-04
6.86000000e-01	1.39600207e-02	1.47027578e-04
6.87000000e-01	1.38150157e-02	1.46243390e-04
6.88000000e-01	1.37719879e-02	1.45424615e-04
6.89000000e-01	1.39190168e-02	1.46414790e-04
6.90000000e-01	1.37835581e-02	1.44934118e-04
6.91000000e-01	1.38079875e-02	1.45003767e-04
6.92000000e-01	1.37691957e-02	1.45657362e-04
6.93000000e-01	1.39081161e-02	1.46709265e-04
6.94000000e-01	1.38206179e-02	1.45554744e-04
6.95000000e-01	1.38045479e-02	1.45214992e-04
6.96000000e-01	1.37742245e-02	1.45400360e-04
6.97000000e-01	1.36813516e-02	1.43624568e-04
6.98000000e-01	1.38192514e-02	1.45718825e-04
6.99000000e-01	1.37495000e-02	1.44725513e-04
7.00000000e-01	1.35871368e-02	1.43475864e-04
7.01000000e-01	1.37468533e-02	1.44834010e-04
7.02000000e-01	1.36060986e-02	1.43281495e-04
7.03000000e-01	1.37698248e-02	1.45270096e-04
7.04000000e-01	1.35744145e-02	1.43168523e-04
7.05000000e-01	1.36268120e-02	1.43860545e-04
7.06000000e-01	1.37245548e-02	1.44845254e-04
7.07000000e-01	1.36961911e-02	1.43976549e-04
7.08000000e-01	1.35938137e-02	1.42367648e-04
7.09000000e-01	1.35414709e-02	1.42345120e-04
7.10000000e-01	1.36194586e-02	1.43388093e-04
7.11000000e-01	1.35025058e-02	1.42272459e-04
7.12000000e-01	1.34531665e-02	1.41632916e-04
7.13000000e-01	1.33717339e-02	1.40991174e-04
7.14000000e-01	1.34805422e-02	1.42290488e-04
7.15000000e-01	1.35554978e-02	1.42672396e-04
7.16000000e-01	1.35536906e-02	1.42678095e-04
7.17000000e-01	1.35134341e-02	1.42395683e-04
7.18000000e-01	1.34562052e-02	1.41494562e-04
7.19000000e-01	1.33539856e-02	1.40708670e-04
7.20000000e-01	1.35228690e-02	1.42223197e-04
7.21000000e-01	1.34563793e-02	1.41649753e-04
7.22000000e-01	1.35677161e-02	1.42688796e-04
7.23000000e-01	1.35558885e-02	1.42256988e-04
7.24000000e-01	1.35113363e-02	1.41745022e-04
7.25000000e-01	1.33116015e-02	1.40441329e-04
7.26000000e-01	1.33878912e-02	1.40764358e-04
7.27000000e-01	1.34936616e-02	1.42319874e-04
7.28000000e-01	1.32406199e-02	1.39714498e-04
7.29000000e-01	1.33979790e-02	1.41449661e-04
7.30000000e-01	1.33893864e-02	1.41092231e-04
7.31000000e-01	1.32247141e-02	1.39665971e-04
7.32000000e-01	1.34031785e-02	1.41383780e-04
7.33000000e-01	1.32396395e-02	1.40007872e-04
7.34000000e-01	1.34043126e-02	1.41291629e-04
7.35000000e-01	1.33429032e-02	1.40150514e-04
7.36000000e-01	1.32048493e-02	1.38873551e-04
7.37000000e-01	1.34300387e-02	1.40198602e-04
7.38000000e-01	1.33598996e-02	1.39946041e-04
7.39000000e-01	1.33541864e-02	1.39813628e-04
7.40000000e-01	1.31698184e-02	1.37856908e-04
7.41000000e-01	1.32126147e-02	1.37660188e-04
7.42000000e-01	1.32389532e-02	1.38204858e-04
7.43000000e-01	1.32040085e-02	1.37962259e-04
7.44000000e-01	1.32879892e-02	1.38649110e-04
7.45000000e-01	1.31628577e-02	1.37811149e-04
7.46000000e-01	1.31634089e-02	1.37368492e-04
7.47000000e-01	1.31686114e-02	1.37283079e-04
7.48000000e-01	1.32232899e-02	1.38133056e-04
7.49000000e-01	1.32737631e-02	1.38363116e-04
7.50000000e-01	1.30564002e-02	1.36602250e-04
7.51000000e-01	1.29204458e-02	1.35103906e-04
7.52000000e-01	1.31351987e-02	1.37282809e-04
7.53000000e-01	1.31387764e-02	1.37450498e-04
7.54000000e-01	1.31925796e-02	1.37742769e-04
7.55000000e-01	1.32074585e-02	1.38388169e-04
7.56000000e-01	1.30935165e-02	1.36955120e-04
7.57000000e-01	1.32116189e-02	1.37706925e-04
7.58000000e-01	1.32057836e-02	1.37406804e-04
7.59000000e-01	1.29913044e-02	1.35907219e-04
7.60000000e-01	1.30827855e-02	1.36759041e-04
7.61000000e-01	1.30331217e-02	1.35320785e-04
7.62000000e-01	1.30226146e-02	1.35329948e-04
7.63000000e-01	1.29809697e-02	1.34660447e-04
7.64000000e-01	1.31007591e-02	1.35279470e-04
7.65000000e-01	1.30972714e-02	1.35452506e-04
7.66000000e-01	1.30584427e-02	1.34773680e-04
7.67000000e-01	1.30039615e-02	1.34572671e-04
7.68000000e-01	1.29484956e-02	1.33799644e-04
7.69000000e-01	1.29203510e-02	1.34059953e-04
7.70000000e-01	1.28644259e-02	1.33516823e-04
7.71000000e-01	1.29608244e-02	1.34421136e-04
7.72000000e-01	1.28784652e-02	1.37536450e-04
7.73000000e-01	1.29986488e-02	1.43502825e-04
7.74000000e-01	1.29269065e-02	1.45928449e-04
7.75000000e-01	1.29450580e-02	1.47570323e-04
7.76000000e-01	1.27720386e-02	1.48177893e-04
7.77000000e-01	1.28455645e-02	1.51597612e-04
7.78000000e-01	1.29618322e-02	1.54764202e-04
7.79000000e-01	1.28370104e-02	1.55239376e-04
7.80000000e-01	1.29446705e-02	1.58742463e-04
7.81000000e-01	1.30237413e-02	1.60567455e-04
7.82000000e-01	1.29079446e-02	1.61124107e-04
7.83000000e-01	1.27544888e-02	1.62108423e-04
7.84000000e-01	1.27487001e-02	1.62997468e-04
7.85000000e-01	1.28028554e-02	1.65245375e-04
7.86000000e-01	1.27706851e-02	1.67322248e-04
7.87000000e-01	1.26958941e-02	1.67414552e-04
7.88000000e-01	1.27901160e-02	1.70754319e-04
7.89000000e-01	1.28499835e-02	1.72879574e-04
7.90000000e-01	1.29025389e-02	1.74837004e-04
7.91000000e-01	1.26357702e-02	1.73408597e-04
7.92000000e-01	1.28123567e-02	1.77258465e-04
7.93000000e-01	1.28872104e-02	1.79868414e-04
7.94000000e-01	1.26514983e-02	1.79224548e-04
7.95000000e-01	1.26057519e-02	1.80381980e-04
7.96000000e-01	1.28834585e-02	1.85757345e-04
7.97000000e-01	1.26938949e-02	1.84876189e-04
7.98000000e-01	1.27520509e-02	1.88326075e-04
7.99000000e-01	1.24033529e-02	1.85539088e-04
8.00000000e-01	1.26458556e-02	1.89902401e-04
8.01000000e-01	1.25934788e-02	1.91711583e-04
8.02000000e-01	1.26241562e-02	1.93386272e-04
8.03000000e-01	1.24742197e-02	1.94573892e-04
8.04000000e-01	1.27705864e-02	1.99617528e-04
8.05000000e-01	1.25626335e-02	1.99201566e-04
8.06000000e-01	1.26321314e-02	2.01772140e-04
8.07000000e-01	1.24435980e-02	2.02205387e-04
8.08000000e-01	1.26442415e-02	2.05968040e-04
8.09000000e-01	1.24383068e-02	2.06635855e-04
8.10000000e-01	1.24797297e-02	2.09657293e-04
8.11000000e-01	1.25671470e-02	2.11580210e-04
8.12000000e-01	1.23949449e-02	2.12330071e-04
8.13000000e-01	1.25392249e-02	2.17770692e-04
8.14000000e-01	1.23293146e-02	2.15758179e-04
8.15000000e-01	1.23145636e-02	2.19126649e-04
8.16000000e-01	1.25741294e-02	2.24375346e-04
8.17000000e-01	1.24294139e-02	2.25047256e-04
8.18000000e-01	1.23529650e-02	2.27233843e-04
8.19000000e-01	1.24260312e-02	2.31411706e-04
8.20000000e-01	1.26390796e-02	2.37482218e-04
8.21000000e-01	1.22695653e-02	2.33706206e-04
8.22000000e-01	1.21542660e-02	2.36236926e-04
8.23000000e-01	1.22680446e-02	2.40535819e-04
8.24000000e-01	1.24070829e-02	2.47918880e-04
8.25000000e-01	1.21576219e-02	2.45394894e-04
8.26000000e-01	1.21688112e-02	2.51224129e-04
8.27000000e-01	1.22060858e-02	2.53727161e-04
8.28000000e-01	1.23906805e-02	2.62278127e-04
8.29000000e-01	1.21982443e-02	2.60610039e-04
8.30000000e-01	1.22215951e-02	2.65206925e-04
8.31000000e-01	1.19063246e-02	2.66557951e-04
8.32000000e-01	1.20559060e-02	2.71709607e-04
8.33000000e-01	1.22736889e-02	2.80722723e-04
8.34000000e-01	1.20664540e-02	2.80686583e-04
8.35000000e-01	1.22123963e-02	2.88725486e-04
8.36000000e-01	1.21749273e-02	2.95465938e-04
8.37000000e-01	1.19464632e-02	2.95181044e-04
8.38000000e-01	1.20063456e-02	3.02339805e-04
8.39000000e-01	1.20105089e-02	3.06749335e-04
8.40000000e-01	1.21660234e-02	3.17987076e-04
8.41000000e-01	1.17899193e-02	3.16939938e-04
8.42000000e-01	1.21481906e-02	3.31687506e-04
8.43000000e-01	1.21986013e-02	3.41101047e-04
8.44000000e-01	1.17141736e-02	3.37962777e-04
8.45000000e-01	1.17398849e-02	3.48968941e-04
8.46000000e-01	1.21060695e-02	3.67824834e-04
8.47000000e-01	1.17560824e-02	3.65766131e-04
8.48000000e-01	1.21805294e-02	3.92257588e-04
8.49000000e-01	1.19339578e-02	3.92071474e-04
8.50000000e-01	1.18936094e-02	4.11668964e-04
8.51000000e-01	1.16529298e-02	4.16364650e-04
8.52000000e-01	1.18407315e-02	4.38855240e-04
8.53000000e-01	1.12431457e-02	4.35862535e-04
8.54000000e-01	1.21728840e-02	4.89742883e-04
8.55000000e-01	1.23246467e-02	5.11928686e-04
8.56000000e-01	1.14140530e-02	4.91680377e-04
8.57000000e-01	1.19219174e-02	5.25914426e-04
8.58000000e-01	1.18758203e-02	5.35878010e-04
8.59000000e-01	1.20420681e-02	5.63787239e-04
8.60000000e-01	1.14057020e-02	5.53445988e-04
8.61000000e-01	1.08556803e-02	5.45524533e-04
8.62000000e-01	1.12167849e-02	5.90711434e-04
8.63000000e-01	1.14940320e-02	6.12264538e-04
8.64000000e-01	1.11839966e-02	6.41440870e-04
8.65000000e-01	1.16846950e-02	6.82560053e-04
8.66000000e-01	1.11871478e-02	6.93602155e-04
8.67000000e-01	1.18044946e-02	7.75316864e-04
8.68000000e-01	1.18543636e-02	8.29710386e-04
8.69000000e-01	1.15451407e-02	8.78181181e-04
8.70000000e-01	1.21788116e-02	1.00493557e-03
8.71000000e-01	1.15866249e-02	1.06849862e-03
8.72000000e-01	1.15324092e-02	1.18943171e-03
8.73000000e-01	1.09082048e-02	1.35326483e-03
8.74000000e-01	1.37760348e-02	2.04872213e-03
8.75000000e-01	1.11163117e-02	3.57713892e-03
