% Filename : SSW21_00035_00005.h5
% Date & Time : 30-Oct-2025 17:31:59
% X-ray Energy (keV) : 13.30001
% Exposure Time (s) : 0.500
% Beam Center : 1461.24000, 208.98300
% Sample to Detector Distance (SDD) (mm) : 1990.750
% Detector Pixel Size (mm) : 0.075
% Photodiode Value : 141116.000
% I0 of Sample : 0
% I0 of Standard : 1
% 
% q(A^-1)   I(q)    I(q)_SE
0.00000000e+00	7.68164500e-03	4.79034101e-03
2.50000000e-04	0.00000000e+00	0.00000000e+00
5.00000000e-04	0.00000000e+00	0.00000000e+00
7.50000000e-04	0.00000000e+00	0.00000000e+00
1.00000000e-03	0.00000000e+00	0.00000000e+00
1.25000000e-03	0.00000000e+00	0.00000000e+00
1.50000000e-03	0.00000000e+00	0.00000000e+00
1.75000000e-03	0.00000000e+00	0.00000000e+00
2.00000000e-03	0.00000000e+00	0.00000000e+00
2.25000000e-03	0.00000000e+00	0.00000000e+00
2.50000000e-03	0.00000000e+00	0.00000000e+00
2.75000000e-03	0.00000000e+00	0.00000000e+00
3.00000000e-03	0.00000000e+00	0.00000000e+00
3.25000000e-03	2.77107753e+02	2.01430055e+02
3.50000000e-03	8.62512645e+01	3.85057327e+01
3.75000000e-03	6.70779405e+01	2.55337501e+01
4.00000000e-03	5.06628565e+01	1.60372084e+01
4.25000000e-03	2.54184086e+01	6.97340275e+00
4.50000000e-03	3.47847612e+01	7.91390163e+00
4.75000000e-03	3.46532936e+01	7.91394494e+00
5.00000000e-03	2.54697335e+01	5.61719213e+00
5.25000000e-03	2.09902270e+01	4.58461768e+00
5.50000000e-03	1.85274361e+01	3.93799271e+00
5.75000000e-03	1.55134746e+01	3.25222675e+00
6.00000000e-03	1.20752840e+01	2.58023963e+00
6.25000000e-03	1.05515148e+01	2.17481398e+00
6.50000000e-03	8.72273167e+00	1.79786794e+00
6.75000000e-03	7.67197711e+00	1.49823091e+00
7.00000000e-03	6.60339533e+00	1.22352035e+00
7.25000000e-03	5.50460520e+00	1.02677740e+00
7.50000000e-03	4.75668707e+00	9.05220246e-01
7.75000000e-03	4.34920024e+00	8.14038496e-01
8.00000000e-03	4.15760025e+00	7.21960131e-01
8.25000000e-03	3.29814687e+00	5.62645077e-01
8.50000000e-03	2.93418289e+00	4.95268483e-01
8.75000000e-03	2.69541973e+00	4.73934720e-01
9.00000000e-03	2.41559506e+00	4.37963905e-01
9.25000000e-03	2.24129654e+00	3.78764229e-01
9.50000000e-03	1.85834001e+00	3.06511605e-01
9.75000000e-03	1.67947837e+00	2.75961867e-01
1.00000000e-02	1.50759964e+00	2.50152535e-01
1.02500000e-02	1.37832028e+00	2.19563365e-01
1.05000000e-02	1.25793664e+00	1.82618748e-01
1.07500000e-02	1.13254712e+00	1.70259088e-01
1.10000000e-02	9.91356560e-01	1.41848667e-01
1.12500000e-02	8.54956011e-01	1.06743334e-01
1.15000000e-02	8.39027267e-01	1.16779247e-01
1.17500000e-02	7.91317443e-01	1.09380455e-01
1.20000000e-02	7.24017281e-01	9.83718700e-02
1.22500000e-02	6.53904077e-01	8.63668568e-02
1.25000000e-02	6.13342816e-01	7.95171024e-02
1.27500000e-02	5.73680450e-01	7.25798027e-02
1.30000000e-02	5.45164517e-01	6.75144327e-02
1.32500000e-02	4.85658373e-01	6.00936241e-02
1.35000000e-02	4.57961336e-01	5.55084779e-02
1.37500000e-02	4.17397969e-01	4.94864624e-02
1.40000000e-02	3.84798522e-01	4.32141485e-02
1.42500000e-02	3.73549286e-01	4.12362623e-02
1.45000000e-02	3.48504189e-01	3.90350154e-02
1.47500000e-02	3.24216107e-01	3.63342528e-02
1.50000000e-02	2.98570962e-01	3.17849993e-02
1.52500000e-02	2.85812340e-01	2.98994504e-02
1.55000000e-02	2.72533732e-01	2.74861412e-02
1.57500000e-02	2.58987609e-01	2.60824974e-02
1.60000000e-02	2.31103622e-01	2.29156634e-02
1.62500000e-02	2.33171603e-01	2.36962664e-02
1.65000000e-02	2.12523677e-01	2.16746424e-02
1.67500000e-02	2.12032520e-01	2.10762371e-02
1.70000000e-02	1.93933128e-01	1.87314003e-02
1.72500000e-02	1.82016024e-01	1.68647318e-02
1.75000000e-02	1.76240031e-01	1.62558479e-02
1.77500000e-02	1.66587996e-01	1.50412986e-02
1.80000000e-02	1.63361624e-01	1.47642108e-02
1.82500000e-02	1.52455025e-01	1.32389161e-02
1.85000000e-02	1.42869382e-01	1.27998018e-02
1.87500000e-02	1.38972474e-01	1.16750961e-02
1.90000000e-02	1.31729177e-01	1.11328941e-02
1.92500000e-02	1.31747064e-01	1.07093125e-02
1.95000000e-02	1.18757764e-01	8.76736427e-03
1.97500000e-02	1.16817242e-01	8.90657940e-03
2.00000000e-02	1.08895780e-01	7.98146587e-03
2.02500000e-02	1.07530600e-01	7.98129424e-03
2.05000000e-02	1.06124227e-01	7.68024021e-03
2.07500000e-02	1.00968139e-01	6.96772737e-03
2.10000000e-02	9.75349793e-02	6.95662477e-03
2.12500000e-02	9.63843405e-02	7.00864267e-03
2.15000000e-02	9.22175322e-02	6.33321024e-03
2.17500000e-02	9.19961930e-02	6.22510278e-03
2.20000000e-02	8.90166745e-02	6.00955194e-03
2.22500000e-02	8.54804231e-02	5.87910867e-03
2.25000000e-02	8.60538022e-02	5.84246763e-03
2.27500000e-02	8.20726087e-02	5.59123671e-03
2.30000000e-02	8.04848444e-02	5.28465614e-03
2.32500000e-02	7.74602975e-02	5.00071278e-03
2.35000000e-02	7.70919357e-02	4.97173848e-03
2.37500000e-02	7.45901088e-02	4.80768156e-03
2.40000000e-02	7.22380569e-02	4.69711369e-03
2.42500000e-02	7.26693528e-02	4.62579706e-03
2.45000000e-02	7.11056464e-02	4.37193416e-03
2.47500000e-02	6.78043488e-02	4.08710171e-03
2.50000000e-02	6.70402536e-02	4.04105192e-03
2.52500000e-02	6.53319270e-02	3.93880881e-03
2.55000000e-02	6.44696272e-02	3.77731137e-03
2.57500000e-02	6.11391977e-02	3.56576228e-03
2.60000000e-02	6.08547304e-02	3.49096030e-03
2.62500000e-02	6.01785766e-02	3.43834396e-03
2.65000000e-02	5.85267874e-02	3.36250593e-03
2.67500000e-02	5.91011494e-02	3.37618272e-03
2.70000000e-02	5.67671683e-02	3.13630683e-03
2.72500000e-02	5.69006867e-02	3.18168861e-03
2.75000000e-02	5.44597856e-02	2.99217343e-03
2.77500000e-02	5.26787102e-02	2.91571351e-03
2.80000000e-02	5.40382578e-02	2.99667882e-03
2.82500000e-02	5.11264996e-02	2.74696496e-03
2.85000000e-02	5.25107414e-02	2.74271312e-03
2.87500000e-02	5.10292021e-02	2.70028342e-03
2.90000000e-02	5.22750193e-02	2.74007343e-03
2.92500000e-02	4.98464675e-02	2.61885879e-03
2.95000000e-02	4.80072897e-02	2.53680742e-03
2.97500000e-02	4.77899074e-02	2.43665776e-03
3.00000000e-02	4.67442783e-02	2.38841412e-03
3.02500000e-02	4.70190528e-02	2.42424878e-03
3.05000000e-02	4.65042641e-02	2.32551795e-03
3.07500000e-02	4.57171890e-02	2.31974784e-03
3.10000000e-02	4.41661029e-02	2.18822105e-03
3.12500000e-02	4.67461577e-02	2.37060334e-03
3.15000000e-02	4.39898654e-02	2.20237890e-03
3.17500000e-02	4.34703220e-02	2.14065374e-03
3.20000000e-02	4.24799354e-02	2.09128455e-03
3.22500000e-02	4.20300041e-02	2.08667979e-03
3.25000000e-02	4.20736894e-02	2.07750107e-03
3.27500000e-02	4.11602825e-02	1.99751792e-03
3.30000000e-02	4.09711622e-02	1.95642239e-03
3.32500000e-02	3.99429842e-02	1.89989474e-03
3.35000000e-02	3.98629066e-02	1.90822629e-03
3.37500000e-02	4.01423967e-02	1.89967931e-03
3.40000000e-02	3.84755774e-02	1.84361628e-03
3.42500000e-02	3.91958387e-02	1.83140619e-03
3.45000000e-02	3.84918763e-02	1.83724047e-03
3.47500000e-02	3.71778260e-02	1.73981287e-03
3.50000000e-02	3.61645070e-02	1.67300440e-03
3.52500000e-02	3.61345908e-02	1.72145902e-03
3.55000000e-02	3.67216977e-02	1.69238949e-03
3.57500000e-02	3.57275470e-02	1.66202605e-03
3.60000000e-02	3.53440665e-02	1.63860318e-03
3.62500000e-02	3.49419459e-02	1.60713491e-03
3.65000000e-02	3.47927886e-02	1.58642911e-03
3.67500000e-02	3.59998069e-02	1.61219735e-03
3.70000000e-02	3.45173139e-02	1.54542620e-03
3.72500000e-02	3.40234120e-02	1.55033820e-03
3.75000000e-02	3.29041778e-02	1.50334586e-03
3.77500000e-02	3.37566942e-02	1.52103502e-03
3.80000000e-02	3.31312481e-02	1.48189310e-03
3.82500000e-02	3.29628160e-02	1.46416717e-03
3.85000000e-02	3.19547848e-02	1.41262856e-03
3.87500000e-02	3.24069957e-02	1.44304650e-03
3.90000000e-02	3.25459899e-02	1.45740806e-03
3.92500000e-02	3.19935511e-02	1.42608879e-03
3.95000000e-02	3.07246296e-02	1.35255201e-03
3.97500000e-02	3.19892680e-02	1.42020224e-03
4.00000000e-02	3.17564310e-02	1.39352041e-03
4.02500000e-02	3.15291736e-02	1.38122442e-03
4.05000000e-02	3.09548366e-02	1.35481876e-03
4.07500000e-02	3.08840834e-02	1.32326989e-03
4.10000000e-02	3.05867217e-02	1.33245267e-03
4.12500000e-02	3.05421111e-02	1.31716427e-03
4.15000000e-02	3.00175542e-02	1.29182636e-03
4.17500000e-02	2.98903959e-02	1.29766798e-03
4.20000000e-02	3.00686803e-02	1.27492595e-03
4.22500000e-02	3.01054135e-02	1.27566863e-03
4.25000000e-02	2.87282040e-02	1.22391195e-03
4.27500000e-02	2.97383191e-02	1.26991062e-03
4.30000000e-02	2.91538306e-02	1.22111943e-03
4.32500000e-02	2.91608542e-02	1.22072505e-03
4.35000000e-02	2.91994921e-02	1.24665839e-03
4.37500000e-02	2.80491563e-02	1.17115751e-03
4.40000000e-02	2.91536701e-02	1.22044801e-03
4.42500000e-02	2.82338749e-02	1.19183992e-03
4.45000000e-02	2.88548300e-02	1.20220138e-03
4.47500000e-02	2.76628891e-02	1.15184209e-03
4.50000000e-02	2.83791565e-02	1.17794132e-03
4.52500000e-02	2.82611008e-02	1.16718471e-03
4.55000000e-02	2.75941726e-02	1.13278198e-03
4.57500000e-02	2.75792615e-02	1.13936901e-03
4.60000000e-02	2.73017735e-02	1.12724986e-03
4.62500000e-02	2.69652116e-02	1.11809593e-03
4.65000000e-02	2.70199877e-02	1.11182565e-03
4.67500000e-02	2.62845574e-02	1.06667964e-03
4.70000000e-02	2.69299774e-02	1.09607987e-03
4.72500000e-02	2.64278388e-02	1.07748765e-03
4.75000000e-02	2.67759847e-02	1.09540279e-03
4.77500000e-02	2.77414781e-02	1.11699958e-03
4.80000000e-02	2.75318848e-02	1.10813342e-03
4.82500000e-02	2.64280581e-02	1.06329293e-03
4.85000000e-02	2.61661740e-02	1.07486371e-03
4.87500000e-02	2.60823739e-02	1.04737801e-03
4.90000000e-02	2.68060216e-02	1.06124033e-03
4.92500000e-02	2.59444908e-02	1.03864133e-03
4.95000000e-02	2.66712298e-02	1.06552122e-03
4.97500000e-02	2.60867975e-02	1.04259096e-03
5.00000000e-02	2.64908226e-02	1.05843421e-03
5.02500000e-02	2.59041373e-02	1.02437734e-03
5.05000000e-02	2.53048318e-02	9.98068132e-04
5.07500000e-02	2.60737265e-02	1.02362382e-03
5.10000000e-02	2.53880926e-02	1.01081886e-03
5.12500000e-02	2.49013574e-02	9.81899088e-04
5.15000000e-02	2.53285490e-02	9.94064303e-04
5.17500000e-02	2.53727448e-02	9.91388759e-04
5.20000000e-02	2.48153246e-02	9.78590800e-04
5.22500000e-02	2.48641915e-02	9.87812105e-04
5.25000000e-02	2.50401576e-02	9.67834360e-04
5.27500000e-02	2.50212269e-02	9.68945958e-04
5.30000000e-02	2.48719128e-02	9.67827644e-04
5.32500000e-02	2.50275110e-02	9.69556189e-04
5.35000000e-02	2.56888325e-02	9.84196405e-04
5.37500000e-02	2.48805858e-02	9.61288363e-04
5.40000000e-02	2.48561171e-02	9.68718207e-04
5.42500000e-02	2.43077706e-02	9.30510872e-04
5.45000000e-02	2.44562699e-02	9.38550927e-04
5.47500000e-02	2.43237720e-02	9.26768345e-04
5.50000000e-02	2.43629050e-02	9.39778923e-04
5.52500000e-02	2.42381688e-02	9.27279030e-04
5.55000000e-02	2.54220739e-02	9.61555899e-04
5.57500000e-02	2.48159796e-02	9.48057541e-04
5.60000000e-02	2.44714283e-02	9.32199723e-04
5.62500000e-02	2.50493810e-02	9.51979851e-04
5.65000000e-02	2.40060762e-02	9.11507866e-04
5.67500000e-02	2.47536306e-02	9.35561105e-04
5.70000000e-02	2.43158510e-02	9.10943716e-04
5.72500000e-02	2.44301260e-02	9.23058143e-04
5.75000000e-02	2.40317719e-02	9.08440969e-04
5.77500000e-02	2.37832934e-02	8.80889003e-04
5.80000000e-02	2.37988243e-02	8.97622687e-04
5.82500000e-02	2.40692935e-02	9.03519251e-04
5.85000000e-02	2.42955388e-02	9.10051259e-04
5.87500000e-02	2.39019759e-02	8.91325477e-04
5.90000000e-02	2.43244129e-02	9.04200470e-04
5.92500000e-02	2.31818305e-02	8.63409789e-04
5.95000000e-02	2.33839570e-02	8.60193994e-04
5.97500000e-02	2.38045097e-02	8.81729920e-04
6.00000000e-02	2.33280869e-02	8.63134782e-04
6.02500000e-02	2.36527155e-02	8.75027824e-04
6.05000000e-02	2.38137459e-02	8.69344078e-04
6.07500000e-02	2.36709069e-02	8.73099525e-04
6.10000000e-02	2.26215989e-02	8.33849150e-04
6.12500000e-02	2.28210690e-02	8.33993087e-04
6.15000000e-02	2.38727455e-02	8.73229889e-04
6.17500000e-02	2.33330137e-02	8.52512052e-04
6.20000000e-02	2.31261167e-02	8.39156797e-04
6.22500000e-02	2.29910263e-02	8.39251637e-04
6.25000000e-02	2.28816045e-02	8.44112518e-04
6.27500000e-02	2.24486905e-02	8.08951614e-04
6.30000000e-02	2.29972176e-02	8.31479584e-04
6.32500000e-02	2.25904949e-02	8.16989196e-04
6.35000000e-02	2.27825183e-02	8.26240853e-04
6.37500000e-02	2.22426659e-02	8.08869315e-04
6.40000000e-02	2.26773187e-02	8.19939871e-04
6.42500000e-02	2.19092646e-02	7.80064306e-04
6.45000000e-02	2.34385123e-02	8.41900865e-04
6.47500000e-02	2.22015878e-02	8.03445929e-04
6.50000000e-02	2.26328430e-02	8.11237426e-04
6.52500000e-02	2.23121170e-02	8.04716224e-04
6.55000000e-02	2.24728842e-02	8.05668776e-04
6.57500000e-02	2.21003383e-02	7.86849081e-04
6.60000000e-02	2.26505148e-02	8.01279779e-04
6.62500000e-02	2.25377032e-02	8.02782750e-04
6.65000000e-02	2.24118527e-02	7.90250214e-04
6.67500000e-02	2.23967573e-02	7.90048946e-04
6.70000000e-02	2.27244728e-02	8.05281768e-04
6.72500000e-02	2.21414784e-02	7.86989913e-04
6.75000000e-02	2.22996870e-02	7.84306716e-04
6.77500000e-02	2.23327812e-02	7.85117089e-04
6.80000000e-02	2.21088048e-02	7.81088998e-04
6.82500000e-02	2.23024429e-02	7.91436875e-04
6.85000000e-02	2.22808683e-02	7.91119325e-04
6.87500000e-02	2.27541089e-02	7.94231932e-04
6.90000000e-02	2.21295021e-02	7.75756798e-04
6.92500000e-02	2.24484403e-02	7.86535529e-04
6.95000000e-02	2.19972574e-02	7.65809917e-04
6.97500000e-02	2.19683988e-02	7.69542166e-04
7.00000000e-02	2.17151162e-02	7.54926650e-04
7.02500000e-02	2.18477983e-02	7.62282059e-04
7.05000000e-02	2.21148085e-02	7.67975185e-04
7.07500000e-02	2.21780985e-02	7.67381726e-04
7.10000000e-02	2.19251347e-02	7.55631178e-04
7.12500000e-02	2.24491218e-02	7.76636816e-04
7.15000000e-02	2.27126784e-02	7.76192431e-04
7.17500000e-02	2.28722374e-02	7.83718833e-04
7.20000000e-02	2.17930867e-02	7.55135881e-04
7.22500000e-02	2.18778773e-02	7.57090088e-04
7.25000000e-02	2.19098274e-02	7.52028288e-04
7.27500000e-02	2.21204840e-02	7.56938728e-04
7.30000000e-02	2.13663950e-02	7.32233031e-04
7.32500000e-02	2.22696596e-02	7.58410757e-04
7.35000000e-02	2.22252203e-02	7.56898737e-04
7.37500000e-02	2.16731031e-02	7.37636656e-04
7.40000000e-02	2.14359139e-02	7.29567671e-04
7.42500000e-02	2.18546179e-02	7.47114064e-04
7.45000000e-02	2.16218942e-02	7.31087759e-04
7.47500000e-02	2.15511347e-02	7.33773490e-04
7.50000000e-02	2.24320164e-02	7.58714550e-04
7.52500000e-02	2.18222768e-02	7.37637914e-04
7.55000000e-02	2.21989993e-02	7.43495659e-04
7.57500000e-02	2.16498021e-02	7.31584921e-04
7.60000000e-02	2.18959094e-02	7.35616892e-04
7.62500000e-02	2.24301898e-02	7.53430262e-04
7.65000000e-02	2.17548103e-02	7.30190880e-04
7.67500000e-02	2.13955713e-02	7.16020492e-04
7.70000000e-02	2.20261259e-02	7.29222079e-04
7.72500000e-02	2.08319614e-02	7.08165295e-04
7.75000000e-02	2.18014477e-02	7.45708573e-04
7.77500000e-02	2.14849177e-02	7.42034528e-04
7.80000000e-02	2.16490457e-02	7.51143212e-04
7.82500000e-02	2.15260985e-02	7.50617126e-04
7.85000000e-02	2.20342933e-02	7.69638312e-04
7.87500000e-02	2.18654358e-02	7.64450628e-04
7.90000000e-02	2.12874275e-02	7.49984124e-04
7.92500000e-02	2.14024042e-02	7.57616545e-04
7.95000000e-02	2.21064023e-02	7.84631048e-04
7.97500000e-02	2.19477927e-02	7.74431278e-04
8.00000000e-02	2.14950411e-02	7.59429415e-04
8.02500000e-02	2.12363189e-02	7.58079883e-04
8.05000000e-02	2.20340020e-02	7.81003773e-04
8.07500000e-02	2.15208776e-02	7.75721829e-04
8.10000000e-02	2.20080453e-02	7.91198817e-04
8.12500000e-02	2.21212902e-02	7.89604910e-04
8.15000000e-02	2.19653828e-02	7.88268684e-04
8.17500000e-02	2.14352198e-02	7.78444339e-04
8.20000000e-02	2.22662218e-02	8.02768302e-04
8.22500000e-02	2.10831922e-02	7.67514831e-04
8.25000000e-02	2.13792629e-02	7.76788557e-04
8.27500000e-02	2.15606187e-02	7.76978164e-04
8.30000000e-02	2.14488067e-02	7.89618763e-04
8.32500000e-02	2.13568355e-02	7.82960502e-04
8.35000000e-02	2.12088122e-02	7.83030062e-04
8.37500000e-02	2.16170564e-02	7.86442985e-04
8.40000000e-02	2.05505966e-02	7.50322641e-04
8.42500000e-02	2.05779646e-02	7.52943608e-04
8.45000000e-02	2.15565003e-02	7.85856886e-04
8.47500000e-02	2.17914543e-02	7.95692457e-04
8.50000000e-02	2.10012985e-02	7.67882003e-04
8.52500000e-02	2.12914758e-02	7.84108701e-04
8.55000000e-02	2.13938721e-02	7.84821191e-04
8.57500000e-02	2.13175862e-02	7.91755432e-04
8.60000000e-02	2.13150666e-02	7.90761940e-04
8.62500000e-02	2.20136680e-02	8.01728363e-04
8.65000000e-02	2.13048581e-02	7.84434451e-04
8.67500000e-02	2.15988895e-02	7.89383266e-04
8.70000000e-02	2.16121568e-02	7.81179765e-04
8.72500000e-02	2.18242581e-02	7.81311520e-04
8.75000000e-02	2.14770005e-02	7.50961012e-04
8.77500000e-02	2.14626684e-02	7.46994709e-04
8.80000000e-02	2.16157545e-02	7.58660282e-04
8.82500000e-02	2.15166457e-02	7.44194956e-04
8.85000000e-02	2.11547232e-02	7.33053683e-04
8.87500000e-02	2.09559102e-02	7.17110404e-04
8.90000000e-02	2.17653826e-02	7.45344697e-04
8.92500000e-02	2.11901331e-02	7.25671016e-04
8.95000000e-02	2.16564948e-02	7.38162646e-04
8.97500000e-02	2.11432060e-02	7.14228986e-04
9.00000000e-02	2.05963381e-02	6.99529587e-04
9.02500000e-02	2.12084887e-02	7.16839388e-04
9.05000000e-02	2.12857745e-02	7.18239115e-04
9.07500000e-02	2.11722095e-02	7.10197288e-04
9.10000000e-02	2.08830044e-02	6.97363673e-04
9.12500000e-02	2.17277696e-02	7.23354207e-04
9.15000000e-02	2.15077400e-02	7.13910822e-04
9.17500000e-02	2.15778487e-02	7.19827496e-04
9.20000000e-02	2.12582494e-02	7.04083533e-04
9.22500000e-02	2.08956425e-02	6.97421582e-04
9.25000000e-02	2.08584925e-02	6.84562231e-04
9.27500000e-02	2.14140015e-02	7.09673476e-04
9.30000000e-02	2.13070645e-02	6.98314522e-04
9.32500000e-02	2.12458927e-02	6.98138131e-04
9.35000000e-02	2.12034605e-02	6.97465489e-04
9.37500000e-02	2.11369880e-02	6.92479500e-04
9.40000000e-02	2.08731980e-02	6.90548537e-04
9.42500000e-02	2.11632668e-02	6.81706385e-04
9.45000000e-02	2.16498890e-02	7.01057282e-04
9.47500000e-02	2.08723080e-02	6.76329349e-04
9.50000000e-02	2.13933534e-02	6.91724084e-04
9.52500000e-02	2.07028670e-02	6.73822723e-04
9.55000000e-02	2.11257363e-02	6.81739890e-04
9.57500000e-02	2.12222049e-02	6.88603713e-04
9.60000000e-02	2.12118341e-02	6.82367506e-04
9.62500000e-02	2.10256588e-02	6.73628319e-04
9.65000000e-02	2.10222077e-02	6.69517986e-04
9.67500000e-02	2.12543401e-02	6.77142911e-04
9.70000000e-02	2.06945559e-02	6.65266704e-04
9.72500000e-02	2.10111431e-02	6.70053980e-04
9.75000000e-02	2.05694324e-02	6.57372795e-04
9.77500000e-02	2.15100387e-02	6.82068113e-04
9.80000000e-02	2.10150275e-02	6.74825531e-04
9.82500000e-02	2.02948739e-02	6.46182529e-04
9.85000000e-02	2.09332583e-02	6.61122456e-04
9.87500000e-02	2.14018377e-02	6.75214767e-04
9.90000000e-02	2.04469496e-02	6.51213703e-04
9.92500000e-02	2.09527438e-02	6.62176685e-04
9.95000000e-02	2.06280320e-02	6.49218850e-04
9.97500000e-02	2.12517961e-02	6.69310347e-04
1.00000000e-01	2.06369473e-02	5.27637832e-04
1.00500000e-01	2.10276121e-02	4.67298596e-04
1.01000000e-01	2.04642224e-02	4.52450573e-04
1.01500000e-01	2.11028608e-02	4.65288171e-04
1.02000000e-01	2.08754951e-02	4.57609416e-04
1.02500000e-01	2.07177492e-02	4.51428757e-04
1.03000000e-01	2.08040815e-02	4.53279706e-04
1.03500000e-01	2.09176248e-02	4.54954712e-04
1.04000000e-01	2.07872478e-02	4.54703229e-04
1.04500000e-01	2.06124267e-02	4.48838214e-04
1.05000000e-01	2.10097727e-02	4.53605740e-04
1.05500000e-01	2.09755179e-02	4.50823642e-04
1.06000000e-01	2.05971641e-02	4.45084150e-04
1.06500000e-01	2.09882147e-02	4.46556773e-04
1.07000000e-01	2.08132744e-02	4.53229281e-04
1.07500000e-01	2.08127768e-02	4.60132119e-04
1.08000000e-01	2.07612982e-02	4.63228759e-04
1.08500000e-01	2.08811232e-02	4.67930041e-04
1.09000000e-01	2.08911824e-02	4.71334346e-04
1.09500000e-01	2.06407654e-02	4.69522171e-04
1.10000000e-01	2.08956825e-02	4.67556464e-04
1.10500000e-01	2.12134190e-02	4.65410220e-04
1.11000000e-01	2.07490429e-02	4.50014261e-04
1.11500000e-01	2.06174591e-02	4.42925711e-04
1.12000000e-01	2.05340102e-02	4.36878390e-04
1.12500000e-01	2.09662213e-02	4.42010599e-04
1.13000000e-01	2.06113702e-02	4.35945078e-04
1.13500000e-01	2.09000121e-02	4.40407616e-04
1.14000000e-01	2.03417632e-02	4.29061155e-04
1.14500000e-01	2.09692545e-02	4.38781827e-04
1.15000000e-01	2.09500370e-02	4.32948812e-04
1.15500000e-01	2.09375813e-02	4.34114582e-04
1.16000000e-01	2.08359580e-02	4.30851003e-04
1.16500000e-01	2.05579664e-02	4.25541858e-04
1.17000000e-01	2.06071518e-02	4.26292345e-04
1.17500000e-01	2.08143431e-02	4.27036102e-04
1.18000000e-01	2.12295426e-02	4.35615776e-04
1.18500000e-01	2.06627595e-02	4.21941231e-04
1.19000000e-01	2.07132879e-02	4.24071207e-04
1.19500000e-01	2.06548292e-02	4.20286503e-04
1.20000000e-01	2.04194966e-02	4.14068363e-04
1.20500000e-01	2.05699355e-02	4.15935861e-04
1.21000000e-01	2.03741238e-02	4.12234205e-04
1.21500000e-01	2.07892824e-02	4.19496328e-04
1.22000000e-01	2.06086251e-02	4.15567918e-04
1.22500000e-01	2.06404314e-02	4.13796027e-04
1.23000000e-01	2.07404237e-02	4.16459137e-04
1.23500000e-01	2.06182372e-02	4.12116016e-04
1.24000000e-01	2.06965727e-02	4.11443996e-04
1.24500000e-01	2.06848560e-02	4.10837767e-04
1.25000000e-01	2.08075338e-02	4.11513360e-04
1.25500000e-01	2.03581260e-02	4.05395096e-04
1.26000000e-01	2.05207161e-02	4.06402412e-04
1.26500000e-01	2.04317428e-02	4.04697458e-04
1.27000000e-01	2.05431849e-02	4.03724037e-04
1.27500000e-01	2.07214836e-02	4.05747482e-04
1.28000000e-01	2.06301820e-02	4.06245770e-04
1.28500000e-01	2.07383495e-02	4.04174332e-04
1.29000000e-01	2.04493916e-02	3.99575370e-04
1.29500000e-01	2.06413723e-02	4.01155058e-04
1.30000000e-01	2.05509964e-02	4.01171232e-04
1.30500000e-01	2.04175717e-02	3.97893914e-04
1.31000000e-01	2.06834732e-02	3.99440751e-04
1.31500000e-01	2.06509474e-02	3.99579962e-04
1.32000000e-01	2.01392558e-02	3.91570504e-04
1.32500000e-01	2.01739112e-02	3.87537372e-04
1.33000000e-01	2.06383454e-02	3.96283406e-04
1.33500000e-01	2.02962055e-02	3.87367637e-04
1.34000000e-01	2.03415330e-02	3.88645077e-04
1.34500000e-01	2.05071837e-02	3.89897176e-04
1.35000000e-01	2.03640702e-02	3.86322760e-04
1.35500000e-01	2.08104567e-02	3.95271270e-04
1.36000000e-01	2.06821688e-02	3.90775093e-04
1.36500000e-01	2.04105226e-02	3.86589802e-04
1.37000000e-01	2.04226148e-02	3.83896986e-04
1.37500000e-01	2.04008543e-02	3.83428127e-04
1.38000000e-01	2.00938410e-02	3.79627323e-04
1.38500000e-01	2.03624915e-02	3.82462937e-04
1.39000000e-01	2.04495262e-02	3.84421266e-04
1.39500000e-01	2.04813628e-02	3.82766137e-04
1.40000000e-01	2.01065088e-02	3.78758359e-04
1.40500000e-01	2.04169364e-02	3.81070432e-04
1.41000000e-01	2.01152047e-02	3.76699867e-04
1.41500000e-01	2.04965973e-02	3.83921787e-04
1.42000000e-01	2.01334483e-02	3.76009089e-04
1.42500000e-01	2.02356987e-02	3.76788171e-04
1.43000000e-01	2.00742853e-02	3.73651686e-04
1.43500000e-01	2.02412970e-02	3.77156670e-04
1.44000000e-01	2.02313673e-02	3.75558781e-04
1.44500000e-01	2.02399137e-02	3.71894531e-04
1.45000000e-01	2.00201155e-02	3.69780199e-04
1.45500000e-01	2.00769001e-02	3.68552351e-04
1.46000000e-01	2.00617942e-02	3.69207397e-04
1.46500000e-01	2.01132036e-02	3.70495919e-04
1.47000000e-01	2.04500996e-02	3.75611263e-04
1.47500000e-01	1.99409956e-02	3.66455803e-04
1.48000000e-01	1.99665305e-02	3.66839568e-04
1.48500000e-01	2.03216796e-02	3.70262957e-04
1.49000000e-01	2.00898308e-02	3.64038779e-04
1.49500000e-01	2.01928104e-02	3.66620874e-04
1.50000000e-01	1.98254495e-02	3.58580858e-04
1.50500000e-01	1.96660825e-02	3.58224942e-04
1.51000000e-01	2.00198037e-02	3.62003165e-04
1.51500000e-01	2.00041453e-02	3.60207806e-04
1.52000000e-01	2.00157314e-02	3.58918730e-04
1.52500000e-01	1.99510570e-02	3.58936460e-04
1.53000000e-01	1.98012929e-02	3.56063958e-04
1.53500000e-01	2.00710610e-02	3.59581284e-04
1.54000000e-01	1.98468681e-02	3.55219018e-04
1.54500000e-01	2.01166393e-02	3.65980668e-04
1.55000000e-01	1.98885607e-02	3.65246927e-04
1.55500000e-01	1.97512060e-02	3.65875621e-04
1.56000000e-01	2.00565865e-02	3.73231369e-04
1.56500000e-01	1.96087614e-02	3.65487077e-04
1.57000000e-01	1.96527901e-02	3.67022158e-04
1.57500000e-01	1.96391753e-02	3.62385498e-04
1.58000000e-01	1.97822435e-02	3.58199532e-04
1.58500000e-01	1.98785990e-02	3.57853692e-04
1.59000000e-01	1.98186646e-02	3.53612807e-04
1.59500000e-01	1.96445625e-02	3.51201582e-04
1.60000000e-01	1.95629538e-02	3.50421482e-04
1.60500000e-01	1.99010634e-02	3.53230547e-04
1.61000000e-01	2.01255474e-02	3.56573727e-04
1.61500000e-01	1.96113573e-02	3.46957823e-04
1.62000000e-01	1.97231796e-02	3.48785786e-04
1.62500000e-01	1.98211602e-02	3.49501755e-04
1.63000000e-01	1.96451519e-02	3.46069193e-04
1.63500000e-01	1.97594499e-02	3.48656610e-04
1.64000000e-01	1.95549842e-02	3.43377163e-04
1.64500000e-01	1.96909930e-02	3.45697623e-04
1.65000000e-01	1.96985039e-02	3.45859724e-04
1.65500000e-01	1.94273912e-02	3.39371255e-04
1.66000000e-01	1.95700798e-02	3.40418172e-04
1.66500000e-01	1.97832917e-02	3.43043198e-04
1.67000000e-01	1.95609627e-02	3.39152765e-04
1.67500000e-01	1.99904742e-02	3.46312349e-04
1.68000000e-01	1.95860069e-02	3.38919876e-04
1.68500000e-01	1.94482428e-02	3.36180759e-04
1.69000000e-01	1.92904709e-02	3.34979751e-04
1.69500000e-01	1.96748750e-02	3.39061229e-04
1.70000000e-01	1.95627594e-02	3.37311986e-04
1.70500000e-01	1.99158643e-02	3.41416245e-04
1.71000000e-01	1.94954630e-02	3.34053842e-04
1.71500000e-01	1.93701654e-02	3.32326232e-04
1.72000000e-01	1.95658739e-02	3.34005598e-04
1.72500000e-01	1.93892438e-02	3.32583632e-04
1.73000000e-01	1.92595462e-02	3.28850245e-04
1.73500000e-01	1.96525596e-02	3.33419688e-04
1.74000000e-01	1.94144381e-02	3.28889119e-04
1.74500000e-01	1.97785980e-02	3.32602683e-04
1.75000000e-01	1.93468674e-02	3.25803199e-04
1.75500000e-01	1.94013233e-02	3.26177333e-04
1.76000000e-01	1.95415700e-02	3.28005294e-04
1.76500000e-01	1.95734261e-02	3.29180206e-04
1.77000000e-01	1.92408623e-02	3.23941357e-04
1.77500000e-01	1.93001409e-02	3.23873584e-04
1.78000000e-01	1.95276811e-02	3.27212544e-04
1.78500000e-01	1.92023445e-02	3.22576668e-04
1.79000000e-01	1.92306913e-02	3.21976566e-04
1.79500000e-01	1.91807541e-02	3.21232275e-04
1.80000000e-01	1.93897011e-02	3.24773765e-04
1.80500000e-01	1.93613950e-02	3.23328441e-04
1.81000000e-01	1.90570398e-02	3.19091885e-04
1.81500000e-01	1.94659777e-02	3.24007149e-04
1.82000000e-01	1.91737390e-02	3.21169931e-04
1.82500000e-01	1.93263165e-02	3.20878838e-04
1.83000000e-01	1.89789697e-02	3.16400967e-04
1.83500000e-01	1.87633168e-02	3.10994799e-04
1.84000000e-01	1.90104076e-02	3.15489333e-04
1.84500000e-01	1.92358743e-02	3.17988194e-04
1.85000000e-01	1.90511450e-02	3.15166542e-04
1.85500000e-01	1.91618455e-02	3.15657257e-04
1.86000000e-01	1.89384115e-02	3.12109144e-04
1.86500000e-01	1.89841602e-02	3.11558495e-04
1.87000000e-01	1.91140250e-02	3.13405065e-04
1.87500000e-01	1.89842533e-02	3.10606250e-04
1.88000000e-01	1.90874928e-02	3.13465594e-04
1.88500000e-01	1.90987743e-02	3.11654862e-04
1.89000000e-01	1.89629164e-02	3.10050159e-04
1.89500000e-01	1.90769740e-02	3.12525753e-04
1.90000000e-01	1.88837769e-02	3.08403416e-04
1.90500000e-01	1.89180097e-02	3.08966995e-04
1.91000000e-01	1.93160014e-02	3.13267025e-04
1.91500000e-01	1.87410857e-02	3.04417136e-04
1.92000000e-01	1.89623294e-02	3.06750993e-04
1.92500000e-01	1.89268672e-02	3.07520426e-04
1.93000000e-01	1.88843774e-02	3.05727702e-04
1.93500000e-01	1.88483277e-02	3.03740157e-04
1.94000000e-01	1.90011853e-02	3.07163514e-04
1.94500000e-01	1.88223533e-02	3.03774822e-04
1.95000000e-01	1.91181065e-02	3.07824028e-04
1.95500000e-01	1.91049857e-02	3.06316952e-04
1.96000000e-01	1.85156779e-02	2.97701590e-04
1.96500000e-01	1.88654817e-02	3.02783687e-04
1.97000000e-01	1.89187569e-02	3.03421595e-04
1.97500000e-01	1.87864681e-02	2.99996656e-04
1.98000000e-01	1.88188774e-02	3.00222207e-04
1.98500000e-01	1.90733753e-02	3.04306267e-04
1.99000000e-01	1.87090826e-02	2.99101522e-04
1.99500000e-01	1.88102577e-02	2.99758358e-04
2.00000000e-01	1.87468392e-02	2.98861076e-04
2.00500000e-01	1.86139286e-02	2.97031507e-04
2.01000000e-01	1.85036868e-02	2.93787131e-04
2.01500000e-01	1.87668645e-02	2.97905076e-04
2.02000000e-01	1.89293644e-02	2.99970720e-04
2.02500000e-01	1.88047639e-02	2.96389204e-04
2.03000000e-01	1.88802776e-02	2.97683905e-04
2.03500000e-01	1.88018298e-02	2.96273516e-04
2.04000000e-01	1.87301976e-02	2.95594658e-04
2.04500000e-01	1.85191146e-02	2.92617908e-04
2.05000000e-01	1.85021125e-02	2.90350136e-04
2.05500000e-01	1.88109364e-02	2.95801609e-04
2.06000000e-01	1.87084349e-02	2.93142636e-04
2.06500000e-01	1.87094081e-02	2.92536609e-04
2.07000000e-01	1.85466915e-02	2.90239651e-04
2.07500000e-01	1.87191574e-02	2.91781340e-04
2.08000000e-01	1.86557781e-02	2.91880679e-04
2.08500000e-01	1.87021691e-02	2.91638638e-04
2.09000000e-01	1.83239945e-02	2.85544047e-04
2.09500000e-01	1.88000541e-02	2.91738961e-04
2.10000000e-01	1.87866015e-02	2.91840272e-04
2.10500000e-01	1.84999137e-02	2.88796286e-04
2.11000000e-01	1.85198812e-02	2.86746287e-04
2.11500000e-01	1.86899319e-02	2.89652782e-04
2.12000000e-01	1.86389903e-02	2.88247696e-04
2.12500000e-01	1.85924233e-02	2.88202755e-04
2.13000000e-01	1.84873249e-02	2.85529130e-04
2.13500000e-01	1.84559097e-02	2.84728472e-04
2.14000000e-01	1.86465820e-02	2.87195589e-04
2.14500000e-01	1.83786661e-02	2.81769065e-04
2.15000000e-01	1.86769978e-02	2.88590765e-04
2.15500000e-01	1.87457888e-02	2.87220163e-04
2.16000000e-01	1.85308026e-02	2.83970324e-04
2.16500000e-01	1.84390120e-02	2.83007561e-04
2.17000000e-01	1.86522736e-02	2.89539775e-04
2.17500000e-01	1.84436859e-02	2.90614640e-04
2.18000000e-01	1.82002103e-02	2.87956266e-04
2.18500000e-01	1.83480740e-02	2.92182261e-04
2.19000000e-01	1.84585024e-02	2.95222838e-04
2.19500000e-01	1.84356244e-02	2.96316848e-04
2.20000000e-01	1.85121444e-02	2.97537078e-04
2.20500000e-01	1.85246975e-02	2.98571151e-04
2.21000000e-01	1.84553483e-02	2.99029961e-04
2.21500000e-01	1.82472994e-02	2.97436664e-04
2.22000000e-01	1.83822825e-02	2.99136206e-04
2.22500000e-01	1.86475986e-02	3.02641888e-04
2.23000000e-01	1.87158966e-02	3.04873201e-04
2.23500000e-01	1.82388895e-02	2.99345135e-04
2.24000000e-01	1.82380874e-02	2.99969765e-04
2.24500000e-01	1.81811067e-02	2.99674009e-04
2.25000000e-01	1.85987439e-02	3.06952423e-04
2.25500000e-01	1.83605664e-02	3.03248016e-04
2.26000000e-01	1.83226312e-02	3.04743485e-04
2.26500000e-01	1.82828010e-02	2.97928800e-04
2.27000000e-01	1.82965539e-02	2.95124657e-04
2.27500000e-01	1.86154190e-02	2.97818743e-04
2.28000000e-01	1.81758619e-02	2.90036835e-04
2.28500000e-01	1.84557680e-02	2.92216554e-04
2.29000000e-01	1.81168592e-02	2.86789602e-04
2.29500000e-01	1.83965891e-02	2.89690679e-04
2.30000000e-01	1.83475903e-02	2.87983096e-04
2.30500000e-01	1.82137689e-02	2.84786709e-04
2.31000000e-01	1.84136460e-02	2.86500957e-04
2.31500000e-01	1.79912258e-02	2.79952157e-04
2.32000000e-01	1.81666595e-02	2.81930700e-04
2.32500000e-01	1.81067081e-02	2.81478086e-04
2.33000000e-01	1.83594097e-02	2.83950259e-04
2.33500000e-01	1.82600027e-02	2.81673071e-04
2.34000000e-01	1.82872494e-02	2.80719048e-04
2.34500000e-01	1.83475295e-02	2.81327686e-04
2.35000000e-01	1.81723015e-02	2.80145910e-04
2.35500000e-01	1.79954174e-02	2.76765505e-04
2.36000000e-01	1.83754668e-02	2.81305973e-04
2.36500000e-01	1.81925579e-02	2.77787273e-04
2.37000000e-01	1.79274898e-02	2.72723757e-04
2.37500000e-01	1.83552237e-02	2.79484376e-04
2.38000000e-01	1.82392350e-02	2.77107642e-04
2.38500000e-01	1.80999639e-02	2.75481218e-04
2.39000000e-01	1.81715861e-02	2.73964455e-04
2.39500000e-01	1.81490761e-02	2.73880138e-04
2.40000000e-01	1.80832199e-02	2.72215606e-04
2.40500000e-01	1.78164100e-02	2.67998854e-04
2.41000000e-01	1.81511745e-02	2.73220664e-04
2.41500000e-01	1.80992149e-02	2.71296537e-04
2.42000000e-01	1.81587967e-02	2.71513205e-04
2.42500000e-01	1.79633556e-02	2.69638684e-04
2.43000000e-01	1.80621245e-02	2.69394701e-04
2.43500000e-01	1.81180502e-02	2.71032753e-04
2.44000000e-01	1.79068113e-02	2.67721258e-04
2.44500000e-01	1.80550518e-02	2.68465663e-04
2.45000000e-01	1.81034954e-02	2.67650551e-04
2.45500000e-01	1.78877819e-02	2.65399889e-04
2.46000000e-01	1.79070079e-02	2.65722580e-04
2.46500000e-01	1.80843223e-02	2.67714441e-04
2.47000000e-01	1.79161081e-02	2.66295413e-04
2.47500000e-01	1.79148218e-02	2.63362508e-04
2.48000000e-01	1.78337062e-02	2.63018595e-04
2.48500000e-01	1.75982230e-02	2.58452648e-04
2.49000000e-01	1.78715816e-02	2.63080300e-04
2.49500000e-01	1.78279388e-02	2.62887137e-04
2.50000000e-01	1.78587541e-02	2.61555895e-04
2.50500000e-01	1.77412378e-02	2.60450791e-04
2.51000000e-01	1.79546805e-02	2.62814528e-04
2.51500000e-01	1.77411276e-02	2.60163527e-04
2.52000000e-01	1.78043293e-02	2.60435252e-04
2.52500000e-01	1.75604045e-02	2.57037251e-04
2.53000000e-01	1.77540070e-02	2.59165969e-04
2.53500000e-01	1.77928277e-02	2.58363395e-04
2.54000000e-01	1.75686741e-02	2.56209852e-04
2.54500000e-01	1.78518133e-02	2.60604557e-04
2.55000000e-01	1.78731457e-02	2.58606794e-04
2.55500000e-01	1.77313128e-02	2.58292338e-04
2.56000000e-01	1.77448544e-02	2.56902684e-04
2.56500000e-01	1.77192052e-02	2.56025686e-04
2.57000000e-01	1.78851388e-02	2.57983702e-04
2.57500000e-01	1.78969055e-02	2.57836279e-04
2.58000000e-01	1.79274064e-02	2.59111450e-04
2.58500000e-01	1.77782003e-02	2.56604261e-04
2.59000000e-01	1.77660872e-02	2.55415810e-04
2.59500000e-01	1.75718709e-02	2.53155361e-04
2.60000000e-01	1.76547634e-02	2.53548913e-04
2.60500000e-01	1.77697860e-02	2.54924066e-04
2.61000000e-01	1.77367135e-02	2.54602038e-04
2.61500000e-01	1.74709268e-02	2.51404096e-04
2.62000000e-01	1.75140844e-02	2.50571020e-04
2.62500000e-01	1.74566076e-02	2.50739519e-04
2.63000000e-01	1.75976964e-02	2.51424586e-04
2.63500000e-01	1.76436441e-02	2.51429779e-04
2.64000000e-01	1.77420123e-02	2.53452212e-04
2.64500000e-01	1.76519861e-02	2.50616393e-04
2.65000000e-01	1.74916807e-02	2.48921319e-04
2.65500000e-01	1.73824233e-02	2.46503272e-04
2.66000000e-01	1.77369197e-02	2.51318821e-04
2.66500000e-01	1.73812111e-02	2.46971956e-04
2.67000000e-01	1.76887351e-02	2.50274310e-04
2.67500000e-01	1.74279305e-02	2.46417550e-04
2.68000000e-01	1.77316042e-02	2.50186680e-04
2.68500000e-01	1.73877668e-02	2.44695670e-04
2.69000000e-01	1.74293896e-02	2.45535338e-04
2.69500000e-01	1.74716654e-02	2.46246602e-04
2.70000000e-01	1.74811288e-02	2.45361863e-04
2.70500000e-01	1.73690529e-02	2.44220488e-04
2.71000000e-01	1.75628185e-02	2.45989372e-04
2.71500000e-01	1.74829057e-02	2.45307189e-04
2.72000000e-01	1.74147303e-02	2.44230059e-04
2.72500000e-01	1.74122500e-02	2.43342628e-04
2.73000000e-01	1.74546894e-02	2.44534135e-04
2.73500000e-01	1.74952796e-02	2.44221371e-04
2.74000000e-01	1.73032598e-02	2.41788193e-04
2.74500000e-01	1.75104132e-02	2.45266788e-04
2.75000000e-01	1.73212579e-02	2.41823122e-04
2.75500000e-01	1.76730181e-02	2.45996593e-04
2.76000000e-01	1.73851404e-02	2.42648922e-04
2.76500000e-01	1.73546250e-02	2.41624789e-04
2.77000000e-01	1.74647817e-02	2.42714427e-04
2.77500000e-01	1.75339472e-02	2.43429676e-04
2.78000000e-01	1.75030160e-02	2.42697771e-04
2.78500000e-01	1.72741726e-02	2.39307374e-04
2.79000000e-01	1.75492025e-02	2.42654809e-04
2.79500000e-01	1.73658369e-02	2.40013216e-04
2.80000000e-01	1.73717637e-02	2.40107321e-04
2.80500000e-01	1.72817397e-02	2.37871905e-04
2.81000000e-01	1.73358536e-02	2.39745849e-04
2.81500000e-01	1.72567184e-02	2.38662416e-04
2.82000000e-01	1.74521984e-02	2.40049743e-04
2.82500000e-01	1.74976436e-02	2.40899622e-04
2.83000000e-01	1.69289541e-02	2.32609975e-04
2.83500000e-01	1.73187013e-02	2.37609583e-04
2.84000000e-01	1.72017150e-02	2.36455452e-04
2.84500000e-01	1.72920616e-02	2.37137139e-04
2.85000000e-01	1.73131131e-02	2.37962074e-04
2.85500000e-01	1.72715140e-02	2.35818087e-04
2.86000000e-01	1.73199050e-02	2.37440446e-04
2.86500000e-01	1.72736494e-02	2.34921702e-04
2.87000000e-01	1.71906448e-02	2.35548798e-04
2.87500000e-01	1.74054671e-02	2.37397186e-04
2.88000000e-01	1.74588401e-02	2.36247258e-04
2.88500000e-01	1.71845104e-02	2.34026223e-04
2.89000000e-01	1.70863053e-02	2.32300743e-04
2.89500000e-01	1.72089703e-02	2.34242256e-04
2.90000000e-01	1.72378193e-02	2.33657803e-04
2.90500000e-01	1.68831821e-02	2.30020948e-04
2.91000000e-01	1.70867638e-02	2.31430389e-04
2.91500000e-01	1.71376658e-02	2.31548747e-04
2.92000000e-01	1.70488819e-02	2.30368869e-04
2.92500000e-01	1.71409920e-02	2.31354030e-04
2.93000000e-01	1.71883215e-02	2.31291775e-04
2.93500000e-01	1.70839218e-02	2.30914735e-04
2.94000000e-01	1.71452611e-02	2.30836580e-04
2.94500000e-01	1.70314828e-02	2.30035152e-04
2.95000000e-01	1.69123940e-02	2.26469040e-04
2.95500000e-01	1.72342427e-02	2.32379669e-04
2.96000000e-01	1.70876580e-02	2.29485448e-04
2.96500000e-01	1.70599315e-02	2.28104641e-04
2.97000000e-01	1.71559667e-02	2.30441176e-04
2.97500000e-01	1.71565330e-02	2.28905946e-04
2.98000000e-01	1.70478229e-02	2.28156803e-04
2.98500000e-01	1.71782798e-02	2.29788362e-04
2.99000000e-01	1.72501367e-02	2.29870710e-04
2.99500000e-01	1.69006838e-02	2.26644963e-04
3.00000000e-01	1.71286846e-02	2.28271864e-04
3.00500000e-01	1.71141511e-02	2.28813016e-04
3.01000000e-01	1.70759166e-02	2.27609650e-04
3.01500000e-01	1.69914145e-02	2.25656232e-04
3.02000000e-01	1.69046810e-02	2.24724252e-04
3.02500000e-01	1.70042663e-02	2.25608726e-04
3.03000000e-01	1.68615843e-02	2.24529788e-04
3.03500000e-01	1.70765747e-02	2.26516636e-04
3.04000000e-01	1.68605995e-02	2.24213210e-04
3.04500000e-01	1.68971157e-02	2.24091897e-04
3.05000000e-01	1.69716376e-02	2.24454152e-04
3.05500000e-01	1.69327566e-02	2.24154924e-04
3.06000000e-01	1.70101340e-02	2.23723131e-04
3.06500000e-01	1.69330651e-02	2.22762172e-04
3.07000000e-01	1.67383093e-02	2.21398087e-04
3.07500000e-01	1.69292467e-02	2.23408792e-04
3.08000000e-01	1.68730986e-02	2.21857251e-04
3.08500000e-01	1.68321442e-02	2.21363019e-04
3.09000000e-01	1.69377759e-02	2.23000216e-04
3.09500000e-01	1.68350091e-02	2.20761280e-04
3.10000000e-01	1.68195247e-02	2.20161323e-04
3.10500000e-01	1.66219556e-02	2.18610892e-04
3.11000000e-01	1.69245887e-02	2.21643877e-04
3.11500000e-01	1.68486008e-02	2.20584084e-04
3.12000000e-01	1.69073354e-02	2.20253712e-04
3.12500000e-01	1.67622038e-02	2.19954463e-04
3.13000000e-01	1.68165472e-02	2.19360965e-04
3.13500000e-01	1.68889166e-02	2.20626362e-04
3.14000000e-01	1.67717657e-02	2.18796721e-04
3.14500000e-01	1.65585618e-02	2.15897504e-04
3.15000000e-01	1.67321651e-02	2.17955850e-04
3.15500000e-01	1.67770778e-02	2.18326475e-04
3.16000000e-01	1.66558793e-02	2.17065105e-04
3.16500000e-01	1.69231993e-02	2.19480498e-04
3.17000000e-01	1.67110915e-02	2.17437153e-04
3.17500000e-01	1.66026648e-02	2.15887512e-04
3.18000000e-01	1.68675233e-02	2.18567638e-04
3.18500000e-01	1.67411919e-02	2.16847894e-04
3.19000000e-01	1.65261321e-02	2.13404850e-04
3.19500000e-01	1.66311609e-02	2.15239960e-04
3.20000000e-01	1.65194311e-02	2.14387055e-04
3.20500000e-01	1.67231021e-02	2.15598720e-04
3.21000000e-01	1.66509426e-02	2.14708139e-04
3.21500000e-01	1.65441722e-02	2.13352884e-04
3.22000000e-01	1.66912897e-02	2.14918361e-04
3.22500000e-01	1.66092718e-02	2.14366361e-04
3.23000000e-01	1.66109313e-02	2.13278102e-04
3.23500000e-01	1.66125864e-02	2.13956396e-04
3.24000000e-01	1.65143528e-02	2.11959495e-04
3.24500000e-01	1.65378949e-02	2.12866359e-04
3.25000000e-01	1.65610099e-02	2.12445501e-04
3.25500000e-01	1.65045533e-02	2.11247154e-04
3.26000000e-01	1.66083139e-02	2.13373613e-04
3.26500000e-01	1.66896831e-02	2.13412477e-04
3.27000000e-01	1.66526160e-02	2.13490905e-04
3.27500000e-01	1.65380770e-02	2.11695202e-04
3.28000000e-01	1.65068879e-02	2.11104068e-04
3.28500000e-01	1.65740386e-02	2.11514263e-04
3.29000000e-01	1.64357945e-02	2.09971275e-04
3.29500000e-01	1.64789352e-02	2.11036176e-04
3.30000000e-01	1.64854066e-02	2.09488958e-04
3.30500000e-01	1.64784935e-02	2.09832807e-04
3.31000000e-01	1.65820016e-02	2.11089980e-04
3.31500000e-01	1.63391095e-02	2.07714166e-04
3.32000000e-01	1.65841558e-02	2.10388630e-04
3.32500000e-01	1.63792028e-02	2.08192277e-04
3.33000000e-01	1.64737915e-02	2.08668080e-04
3.33500000e-01	1.62538910e-02	2.06819517e-04
3.34000000e-01	1.64615159e-02	2.09061009e-04
3.34500000e-01	1.64867325e-02	2.08083486e-04
3.35000000e-01	1.64560348e-02	2.07110742e-04
3.35500000e-01	1.63954558e-02	2.07608329e-04
3.36000000e-01	1.64767065e-02	2.07719662e-04
3.36500000e-01	1.62493405e-02	2.06034561e-04
3.37000000e-01	1.63698743e-02	2.06503209e-04
3.37500000e-01	1.62176779e-02	2.04843873e-04
3.38000000e-01	1.63176978e-02	2.05690371e-04
3.38500000e-01	1.63536049e-02	2.06043480e-04
3.39000000e-01	1.62629752e-02	2.04773670e-04
3.39500000e-01	1.63557540e-02	2.04741045e-04
3.40000000e-01	1.62197743e-02	2.03826325e-04
3.40500000e-01	1.62493421e-02	2.04050937e-04
3.41000000e-01	1.63290454e-02	2.04357133e-04
3.41500000e-01	1.62601300e-02	2.04265870e-04
3.42000000e-01	1.62178021e-02	2.03336428e-04
3.42500000e-01	1.61863824e-02	2.02961709e-04
3.43000000e-01	1.61843351e-02	2.02109649e-04
3.43500000e-01	1.62645297e-02	2.03429042e-04
3.44000000e-01	1.62510943e-02	2.03447068e-04
3.44500000e-01	1.60156297e-02	1.99922931e-04
3.45000000e-01	1.61316968e-02	2.01230782e-04
3.45500000e-01	1.61853354e-02	2.01458121e-04
3.46000000e-01	1.62452256e-02	2.02785089e-04
3.46500000e-01	1.65155481e-02	2.04685509e-04
3.47000000e-01	1.60443220e-02	2.00211398e-04
3.47500000e-01	1.61820933e-02	2.01735306e-04
3.48000000e-01	1.63050417e-02	2.02806910e-04
3.48500000e-01	1.61914006e-02	2.01258073e-04
3.49000000e-01	1.60209167e-02	1.99258621e-04
3.49500000e-01	1.62561938e-02	2.01517110e-04
3.50000000e-01	1.60125063e-02	1.61883689e-04
3.51000000e-01	1.60284138e-02	1.40338672e-04
3.52000000e-01	1.60095822e-02	1.39781068e-04
3.53000000e-01	1.58885661e-02	1.38643643e-04
3.54000000e-01	1.60605839e-02	1.39745227e-04
3.55000000e-01	1.60808699e-02	1.39734635e-04
3.56000000e-01	1.59646370e-02	1.39381936e-04
3.57000000e-01	1.60819564e-02	1.42743651e-04
3.58000000e-01	1.59089602e-02	1.42970421e-04
3.59000000e-01	1.59621926e-02	1.44089698e-04
3.60000000e-01	1.58659779e-02	1.44063145e-04
3.61000000e-01	1.59699036e-02	1.45884945e-04
3.62000000e-01	1.58558255e-02	1.45377663e-04
3.63000000e-01	1.58753434e-02	1.46553552e-04
3.64000000e-01	1.58928766e-02	1.46996409e-04
3.65000000e-01	1.58045544e-02	1.46780561e-04
3.66000000e-01	1.58164505e-02	1.45388679e-04
3.67000000e-01	1.58643442e-02	1.43429979e-04
3.68000000e-01	1.57376395e-02	1.41498731e-04
3.69000000e-01	1.57476397e-02	1.40569842e-04
3.70000000e-01	1.57581116e-02	1.40244339e-04
3.71000000e-01	1.58732476e-02	1.42939070e-04
3.72000000e-01	1.58264184e-02	1.43394144e-04
3.73000000e-01	1.59266296e-02	1.44496393e-04
3.74000000e-01	1.56155401e-02	1.42058425e-04
3.75000000e-01	1.57236388e-02	1.43144099e-04
3.76000000e-01	1.57883103e-02	1.43247080e-04
3.77000000e-01	1.56596844e-02	1.42432822e-04
3.78000000e-01	1.57599518e-02	1.43212607e-04
3.79000000e-01	1.57339541e-02	1.43216340e-04
3.80000000e-01	1.57873898e-02	1.42952319e-04
3.81000000e-01	1.56121275e-02	1.41508210e-04
3.82000000e-01	1.56338168e-02	1.41474207e-04
3.83000000e-01	1.57209259e-02	1.42865682e-04
3.84000000e-01	1.55155889e-02	1.40984182e-04
3.85000000e-01	1.56463583e-02	1.42243954e-04
3.86000000e-01	1.56143830e-02	1.41703298e-04
3.87000000e-01	1.55201950e-02	1.40765182e-04
3.88000000e-01	1.54527816e-02	1.39943928e-04
3.89000000e-01	1.55738560e-02	1.41195010e-04
3.90000000e-01	1.54142968e-02	1.39614434e-04
3.91000000e-01	1.55695822e-02	1.40982222e-04
3.92000000e-01	1.54331557e-02	1.39845257e-04
3.93000000e-01	1.54835572e-02	1.40131112e-04
3.94000000e-01	1.54805775e-02	1.40345446e-04
3.95000000e-01	1.54875095e-02	1.40126975e-04
3.96000000e-01	1.52969904e-02	1.38664952e-04
3.97000000e-01	1.53520219e-02	1.38980664e-04
3.98000000e-01	1.55254591e-02	1.40761047e-04
3.99000000e-01	1.53311929e-02	1.38729446e-04
4.00000000e-01	1.53220563e-02	1.38749620e-04
4.01000000e-01	1.54427395e-02	1.39717189e-04
4.02000000e-01	1.52844779e-02	1.38409762e-04
4.03000000e-01	1.53115632e-02	1.38440220e-04
4.04000000e-01	1.54204395e-02	1.39222828e-04
4.05000000e-01	1.52222343e-02	1.37500951e-04
4.06000000e-01	1.53958108e-02	1.39074232e-04
4.07000000e-01	1.52477917e-02	1.38210400e-04
4.08000000e-01	1.52288334e-02	1.37892611e-04
4.09000000e-01	1.51509828e-02	1.36476853e-04
4.10000000e-01	1.53552285e-02	1.38639510e-04
4.11000000e-01	1.52303273e-02	1.37986515e-04
4.12000000e-01	1.51968580e-02	1.37190894e-04
4.13000000e-01	1.51002221e-02	1.36417524e-04
4.14000000e-01	1.52614210e-02	1.37508820e-04
4.15000000e-01	1.51838743e-02	1.36692916e-04
4.16000000e-01	1.51227931e-02	1.36316874e-04
4.17000000e-01	1.51229143e-02	1.36192679e-04
4.18000000e-01	1.51077458e-02	1.37415007e-04
4.19000000e-01	1.52827880e-02	1.41052744e-04
4.20000000e-01	1.51243620e-02	1.40219434e-04
4.21000000e-01	1.52342452e-02	1.41485816e-04
4.22000000e-01	1.51684144e-02	1.41390168e-04
4.23000000e-01	1.52365547e-02	1.42939749e-04
4.24000000e-01	1.52119174e-02	1.42735573e-04
4.25000000e-01	1.50404167e-02	1.41852141e-04
4.26000000e-01	1.52485893e-02	1.43717124e-04
4.27000000e-01	1.51670095e-02	1.42742603e-04
4.28000000e-01	1.51263568e-02	1.42543954e-04
4.29000000e-01	1.51641170e-02	1.43325761e-04
4.30000000e-01	1.53602896e-02	1.44555159e-04
4.31000000e-01	1.51894601e-02	1.43138167e-04
4.32000000e-01	1.51304198e-02	1.42915523e-04
4.33000000e-01	1.51828481e-02	1.43758571e-04
4.34000000e-01	1.50503366e-02	1.42367845e-04
4.35000000e-01	1.51041907e-02	1.42858576e-04
4.36000000e-01	1.51121602e-02	1.42713425e-04
4.37000000e-01	1.50858447e-02	1.43293016e-04
4.38000000e-01	1.50798380e-02	1.43295259e-04
4.39000000e-01	1.49854883e-02	1.43055047e-04
4.40000000e-01	1.49314274e-02	1.42349763e-04
4.41000000e-01	1.49277965e-02	1.42217726e-04
4.42000000e-01	1.50013776e-02	1.43099667e-04
4.43000000e-01	1.49799400e-02	1.43108637e-04
4.44000000e-01	1.49286964e-02	1.43230529e-04
4.45000000e-01	1.49533310e-02	1.43529694e-04
4.46000000e-01	1.49398994e-02	1.43197541e-04
4.47000000e-01	1.49089880e-02	1.43588091e-04
4.48000000e-01	1.50014853e-02	1.44058736e-04
4.49000000e-01	1.50285880e-02	1.44518103e-04
4.50000000e-01	1.49039122e-02	1.43814638e-04
4.51000000e-01	1.48874671e-02	1.43636588e-04
4.52000000e-01	1.48655761e-02	1.43746682e-04
4.53000000e-01	1.49002060e-02	1.44325927e-04
4.54000000e-01	1.49030177e-02	1.44142628e-04
4.55000000e-01	1.48674098e-02	1.43861489e-04
4.56000000e-01	1.48383266e-02	1.43520798e-04
4.57000000e-01	1.47944621e-02	1.43585504e-04
4.58000000e-01	1.48881522e-02	1.44516972e-04
4.59000000e-01	1.47900369e-02	1.44026703e-04
4.60000000e-01	1.47513480e-02	1.43624706e-04
4.61000000e-01	1.46868249e-02	1.43009298e-04
4.62000000e-01	1.47950030e-02	1.43728672e-04
4.63000000e-01	1.47573115e-02	1.43922949e-04
4.64000000e-01	1.47866814e-02	1.44398274e-04
4.65000000e-01	1.48342371e-02	1.45076210e-04
4.66000000e-01	1.48989676e-02	1.45164762e-04
4.67000000e-01	1.47488016e-02	1.43900334e-04
4.68000000e-01	1.48659059e-02	1.45240456e-04
4.69000000e-01	1.47924230e-02	1.44716958e-04
4.70000000e-01	1.48098102e-02	1.44867818e-04
4.71000000e-01	1.46215140e-02	1.43182981e-04
4.72000000e-01	1.47274314e-02	1.43939746e-04
4.73000000e-01	1.47167319e-02	1.43879229e-04
4.74000000e-01	1.45880031e-02	1.43161246e-04
4.75000000e-01	1.46347939e-02	1.43219462e-04
4.76000000e-01	1.45753285e-02	1.42559085e-04
4.77000000e-01	1.45519234e-02	1.42534839e-04
4.78000000e-01	1.45837628e-02	1.42917751e-04
4.79000000e-01	1.46255595e-02	1.43086906e-04
4.80000000e-01	1.47294428e-02	1.44131233e-04
4.81000000e-01	1.47012176e-02	1.44199903e-04
4.82000000e-01	1.47140372e-02	1.44046600e-04
4.83000000e-01	1.45244002e-02	1.42748356e-04
4.84000000e-01	1.44283402e-02	1.42273725e-04
4.85000000e-01	1.46271073e-02	1.43881241e-04
4.86000000e-01	1.44880784e-02	1.42687413e-04
4.87000000e-01	1.44299830e-02	1.42108907e-04
4.88000000e-01	1.44819752e-02	1.42497102e-04
4.89000000e-01	1.45734097e-02	1.43464303e-04
4.90000000e-01	1.46245932e-02	1.44277855e-04
4.91000000e-01	1.45669575e-02	1.43758230e-04
4.92000000e-01	1.44915295e-02	1.43197701e-04
4.93000000e-01	1.44539670e-02	1.42804725e-04
4.94000000e-01	1.44839841e-02	1.43560032e-04
4.95000000e-01	1.45373859e-02	1.45032180e-04
4.96000000e-01	1.45152885e-02	1.48924280e-04
4.97000000e-01	1.44647151e-02	1.51313088e-04
4.98000000e-01	1.43970985e-02	1.52774236e-04
4.99000000e-01	1.44480887e-02	1.54571070e-04
5.00000000e-01	1.44475410e-02	1.56034734e-04
5.01000000e-01	1.43413945e-02	1.56856630e-04
5.02000000e-01	1.45124487e-02	1.60255106e-04
5.03000000e-01	1.45355701e-02	1.61771079e-04
5.04000000e-01	1.42698228e-02	1.61191873e-04
5.05000000e-01	1.45525374e-02	1.60983775e-04
5.06000000e-01	1.44988649e-02	1.56617334e-04
5.07000000e-01	1.44436403e-02	1.54386223e-04
5.08000000e-01	1.45531905e-02	1.54636950e-04
5.09000000e-01	1.44574466e-02	1.52864169e-04
5.10000000e-01	1.45104575e-02	1.53313446e-04
5.11000000e-01	1.44222114e-02	1.51553426e-04
5.12000000e-01	1.44318978e-02	1.51475968e-04
5.13000000e-01	1.43875074e-02	1.51156080e-04
5.14000000e-01	1.44355349e-02	1.50599225e-04
5.15000000e-01	1.44039019e-02	1.50348052e-04
5.16000000e-01	1.44878626e-02	1.50949877e-04
5.17000000e-01	1.44130318e-02	1.49946306e-04
5.18000000e-01	1.43856880e-02	1.49385264e-04
5.19000000e-01	1.42125965e-02	1.47708586e-04
5.20000000e-01	1.41339210e-02	1.46344628e-04
5.21000000e-01	1.43397732e-02	1.48016472e-04
5.22000000e-01	1.42253548e-02	1.46450359e-04
5.23000000e-01	1.44446479e-02	1.49122047e-04
5.24000000e-01	1.43592346e-02	1.48106361e-04
5.25000000e-01	1.42498953e-02	1.47244492e-04
5.26000000e-01	1.41952856e-02	1.46350568e-04
5.27000000e-01	1.43562762e-02	1.47854305e-04
5.28000000e-01	1.41911510e-02	1.46182841e-04
5.29000000e-01	1.40853828e-02	1.45647415e-04
5.30000000e-01	1.41626574e-02	1.45743267e-04
5.31000000e-01	1.41019165e-02	1.45980603e-04
5.32000000e-01	1.41707151e-02	1.46607878e-04
5.33000000e-01	1.41800735e-02	1.46647027e-04
5.34000000e-01	1.39982705e-02	1.44829716e-04
5.35000000e-01	1.40559970e-02	1.45086077e-04
5.36000000e-01	1.41181299e-02	1.45546792e-04
5.37000000e-01	1.41642322e-02	1.46065994e-04
5.38000000e-01	1.41356430e-02	1.45952968e-04
5.39000000e-01	1.41810486e-02	1.46059425e-04
5.40000000e-01	1.41783616e-02	1.46132076e-04
5.41000000e-01	1.41998308e-02	1.45858177e-04
5.42000000e-01	1.40818990e-02	1.45305251e-04
5.43000000e-01	1.41667391e-02	1.46180052e-04
5.44000000e-01	1.41099134e-02	1.45633712e-04
5.45000000e-01	1.40124418e-02	1.44457248e-04
5.46000000e-01	1.39174377e-02	1.43647964e-04
5.47000000e-01	1.39213196e-02	1.43778981e-04
5.48000000e-01	1.40492938e-02	1.44884222e-04
5.49000000e-01	1.40094526e-02	1.44205843e-04
5.50000000e-01	1.40307686e-02	1.44429117e-04
5.51000000e-01	1.40707729e-02	1.44258372e-04
5.52000000e-01	1.39504769e-02	1.43107840e-04
5.53000000e-01	1.39800305e-02	1.43817668e-04
5.54000000e-01	1.39987756e-02	1.43263928e-04
5.55000000e-01	1.39055741e-02	1.42837394e-04
5.56000000e-01	1.39427757e-02	1.42944676e-04
5.57000000e-01	1.39181063e-02	1.43057142e-04
5.58000000e-01	1.39162539e-02	1.42810402e-04
5.59000000e-01	1.37795022e-02	1.40876686e-04
5.60000000e-01	1.38760830e-02	1.42468483e-04
5.61000000e-01	1.38443771e-02	1.41796289e-04
5.62000000e-01	1.38755514e-02	1.42410836e-04
5.63000000e-01	1.38650454e-02	1.42205849e-04
5.64000000e-01	1.39319384e-02	1.42699733e-04
5.65000000e-01	1.38710571e-02	1.42132227e-04
5.66000000e-01	1.37747872e-02	1.41397867e-04
5.67000000e-01	1.36655809e-02	1.40263812e-04
5.68000000e-01	1.38302910e-02	1.41763297e-04
5.69000000e-01	1.37927106e-02	1.41614037e-04
5.70000000e-01	1.37886136e-02	1.41793976e-04
5.71000000e-01	1.38299764e-02	1.41634615e-04
5.72000000e-01	1.37397582e-02	1.41300929e-04
5.73000000e-01	1.37519839e-02	1.41082876e-04
5.74000000e-01	1.37523868e-02	1.41438059e-04
5.75000000e-01	1.36886965e-02	1.40654405e-04
5.76000000e-01	1.37047657e-02	1.41071883e-04
5.77000000e-01	1.36247765e-02	1.39612197e-04
5.78000000e-01	1.36702260e-02	1.40906077e-04
5.79000000e-01	1.36809316e-02	1.40753526e-04
5.80000000e-01	1.36773923e-02	1.40412915e-04
5.81000000e-01	1.36923545e-02	1.40731839e-04
5.82000000e-01	1.35983828e-02	1.39968705e-04
5.83000000e-01	1.37177499e-02	1.41125748e-04
5.84000000e-01	1.35393105e-02	1.39495633e-04
5.85000000e-01	1.35680044e-02	1.39409987e-04
5.86000000e-01	1.35928635e-02	1.40213756e-04
5.87000000e-01	1.35652677e-02	1.39812744e-04
5.88000000e-01	1.35102779e-02	1.39813854e-04
5.89000000e-01	1.35615558e-02	1.39995075e-04
5.90000000e-01	1.35251504e-02	1.39374894e-04
5.91000000e-01	1.34455286e-02	1.39104267e-04
5.92000000e-01	1.35439205e-02	1.40126377e-04
5.93000000e-01	1.34996177e-02	1.39537385e-04
5.94000000e-01	1.36022830e-02	1.40136561e-04
5.95000000e-01	1.35628719e-02	1.40042497e-04
5.96000000e-01	1.37059370e-02	1.41269824e-04
5.97000000e-01	1.35008051e-02	1.39054478e-04
5.98000000e-01	1.36634990e-02	1.40917660e-04
5.99000000e-01	1.36533090e-02	1.40760796e-04
6.00000000e-01	1.34924914e-02	1.39791218e-04
6.01000000e-01	1.34241581e-02	1.38664418e-04
6.02000000e-01	1.34931690e-02	1.39275439e-04
6.03000000e-01	1.35303513e-02	1.40070416e-04
6.04000000e-01	1.34891520e-02	1.39257316e-04
6.05000000e-01	1.34479765e-02	1.39137700e-04
6.06000000e-01	1.33995343e-02	1.38557497e-04
6.07000000e-01	1.34474565e-02	1.39221129e-04
6.08000000e-01	1.34656017e-02	1.39295023e-04
6.09000000e-01	1.34044060e-02	1.38892874e-04
6.10000000e-01	1.34321517e-02	1.39154686e-04
6.11000000e-01	1.34297655e-02	1.39074458e-04
6.12000000e-01	1.33768500e-02	1.38736381e-04
6.13000000e-01	1.32110577e-02	1.37061968e-04
6.14000000e-01	1.34211512e-02	1.38661486e-04
6.15000000e-01	1.35096358e-02	1.39757930e-04
6.16000000e-01	1.33033934e-02	1.38121248e-04
6.17000000e-01	1.31888199e-02	1.37089250e-04
6.18000000e-01	1.34931588e-02	1.40049116e-04
6.19000000e-01	1.32803473e-02	1.37464932e-04
6.20000000e-01	1.34655501e-02	1.39209359e-04
6.21000000e-01	1.33010441e-02	1.37043670e-04
6.22000000e-01	1.32149721e-02	1.36426840e-04
6.23000000e-01	1.32429252e-02	1.36500451e-04
6.24000000e-01	1.32257313e-02	1.36293075e-04
6.25000000e-01	1.32546237e-02	1.36194270e-04
6.26000000e-01	1.32758007e-02	1.36181026e-04
6.27000000e-01	1.33957415e-02	1.37730192e-04
6.28000000e-01	1.33283252e-02	1.37367163e-04
6.29000000e-01	1.32343318e-02	1.35873616e-04
6.30000000e-01	1.32560554e-02	1.36666939e-04
6.31000000e-01	1.32024230e-02	1.34965268e-04
6.32000000e-01	1.32742599e-02	1.36561568e-04
6.33000000e-01	1.31981918e-02	1.35834627e-04
6.34000000e-01	1.33045739e-02	1.40613053e-04
6.35000000e-01	1.33063302e-02	1.44375955e-04
6.36000000e-01	1.32207060e-02	1.46535988e-04
6.37000000e-01	1.32523985e-02	1.48699490e-04
6.38000000e-01	1.32453014e-02	1.50684141e-04
6.39000000e-01	1.32316238e-02	1.52526470e-04
6.40000000e-01	1.32413143e-02	1.53966349e-04
6.41000000e-01	1.33569308e-02	1.57182750e-04
6.42000000e-01	1.33066229e-02	1.57907097e-04
6.43000000e-01	1.34084952e-02	1.59583373e-04
6.44000000e-01	1.34015649e-02	1.53666665e-04
6.45000000e-01	1.33547179e-02	1.51581373e-04
6.46000000e-01	1.33550719e-02	1.49841011e-04
6.47000000e-01	1.32287149e-02	1.47219001e-04
6.48000000e-01	1.33164357e-02	1.47142062e-04
6.49000000e-01	1.32771464e-02	1.46753910e-04
6.50000000e-01	1.34021715e-02	1.46475874e-04
6.51000000e-01	1.33146810e-02	1.44924657e-04
6.52000000e-01	1.32478588e-02	1.43966221e-04
6.53000000e-01	1.32285673e-02	1.43405427e-04
6.54000000e-01	1.31931314e-02	1.42304220e-04
6.55000000e-01	1.32289387e-02	1.42662008e-04
6.56000000e-01	1.31464450e-02	1.41734806e-04
6.57000000e-01	1.31859253e-02	1.42166378e-04
6.58000000e-01	1.30908447e-02	1.40695149e-04
6.59000000e-01	1.31844643e-02	1.41117068e-04
6.60000000e-01	1.31493600e-02	1.40812343e-04
6.61000000e-01	1.30869920e-02	1.40098482e-04
6.62000000e-01	1.31213530e-02	1.41148983e-04
6.63000000e-01	1.31920506e-02	1.41014345e-04
6.64000000e-01	1.31143894e-02	1.40311398e-04
6.65000000e-01	1.31443338e-02	1.40597859e-04
6.66000000e-01	1.30263703e-02	1.39052485e-04
6.67000000e-01	1.31433516e-02	1.40900314e-04
6.68000000e-01	1.31017539e-02	1.40141234e-04
6.69000000e-01	1.31151691e-02	1.39711642e-04
6.70000000e-01	1.30856181e-02	1.39970674e-04
6.71000000e-01	1.32762665e-02	1.41233750e-04
6.72000000e-01	1.30711602e-02	1.39558736e-04
6.73000000e-01	1.30261641e-02	1.39259021e-04
6.74000000e-01	1.31034576e-02	1.39728098e-04
6.75000000e-01	1.30486379e-02	1.39169665e-04
6.76000000e-01	1.30096299e-02	1.38586600e-04
6.77000000e-01	1.29363631e-02	1.38026247e-04
6.78000000e-01	1.31457119e-02	1.40026967e-04
6.79000000e-01	1.30986255e-02	1.39718060e-04
6.80000000e-01	1.29686471e-02	1.38604892e-04
6.81000000e-01	1.29360225e-02	1.37894060e-04
6.82000000e-01	1.29477325e-02	1.37942452e-04
6.83000000e-01	1.29781448e-02	1.38321333e-04
6.84000000e-01	1.29930236e-02	1.38122522e-04
6.85000000e-01	1.28868790e-02	1.37010780e-04
6.86000000e-01	1.30305993e-02	1.38588107e-04
6.87000000e-01	1.30981335e-02	1.39008037e-04
6.88000000e-01	1.29639170e-02	1.37827207e-04
6.89000000e-01	1.29128935e-02	1.37355230e-04
6.90000000e-01	1.29583092e-02	1.37813088e-04
6.91000000e-01	1.28690543e-02	1.36994284e-04
6.92000000e-01	1.30485643e-02	1.38178821e-04
6.93000000e-01	1.29293967e-02	1.37486401e-04
6.94000000e-01	1.29991195e-02	1.37987676e-04
6.95000000e-01	1.28441041e-02	1.36429968e-04
6.96000000e-01	1.28873344e-02	1.36878457e-04
6.97000000e-01	1.29480632e-02	1.37651271e-04
6.98000000e-01	1.28701785e-02	1.36898541e-04
6.99000000e-01	1.28875274e-02	1.37057826e-04
7.00000000e-01	1.28783757e-02	1.36676615e-04
7.01000000e-01	1.29542569e-02	1.37889129e-04
7.02000000e-01	1.28034120e-02	1.35633013e-04
7.03000000e-01	1.28124119e-02	1.36396769e-04
7.04000000e-01	1.28723012e-02	1.36720268e-04
7.05000000e-01	1.28701549e-02	1.36593310e-04
7.06000000e-01	1.27882423e-02	1.36294721e-04
7.07000000e-01	1.27241094e-02	1.34724896e-04
7.08000000e-01	1.26904097e-02	1.34772218e-04
7.09000000e-01	1.27074565e-02	1.34662227e-04
7.10000000e-01	1.27262822e-02	1.35181921e-04
7.11000000e-01	1.27713764e-02	1.35471214e-04
7.12000000e-01	1.27379260e-02	1.35116385e-04
7.13000000e-01	1.28178830e-02	1.35847352e-04
7.14000000e-01	1.25162223e-02	1.32984639e-04
7.15000000e-01	1.27098031e-02	1.34927749e-04
7.16000000e-01	1.25399263e-02	1.33549940e-04
7.17000000e-01	1.25711339e-02	1.33797942e-04
7.18000000e-01	1.25579684e-02	1.33509636e-04
7.19000000e-01	1.25161048e-02	1.33001646e-04
7.20000000e-01	1.24763995e-02	1.32949568e-04
7.21000000e-01	1.25354028e-02	1.33195014e-04
7.22000000e-01	1.25825263e-02	1.33295400e-04
7.23000000e-01	1.23558176e-02	1.31547960e-04
7.24000000e-01	1.25201580e-02	1.33434301e-04
7.25000000e-01	1.25532227e-02	1.33415947e-04
7.26000000e-01	1.24980183e-02	1.33220171e-04
7.27000000e-01	1.26111826e-02	1.34105132e-04
7.28000000e-01	1.24407734e-02	1.32349928e-04
7.29000000e-01	1.25344807e-02	1.32980513e-04
7.30000000e-01	1.23815063e-02	1.32062453e-04
7.31000000e-01	1.25536792e-02	1.33201993e-04
7.32000000e-01	1.24367157e-02	1.32638831e-04
7.33000000e-01	1.25320497e-02	1.33348332e-04
7.34000000e-01	1.24746960e-02	1.32713719e-04
7.35000000e-01	1.24368894e-02	1.31905493e-04
7.36000000e-01	1.23990414e-02	1.31825616e-04
7.37000000e-01	1.23690362e-02	1.30935276e-04
7.38000000e-01	1.23883860e-02	1.31204138e-04
7.39000000e-01	1.25364250e-02	1.31848147e-04
7.40000000e-01	1.24649596e-02	1.31463112e-04
7.41000000e-01	1.23912368e-02	1.30426454e-04
7.42000000e-01	1.23009645e-02	1.29566896e-04
7.43000000e-01	1.23098234e-02	1.29507809e-04
7.44000000e-01	1.22545229e-02	1.29895125e-04
7.45000000e-01	1.24018725e-02	1.30811673e-04
7.46000000e-01	1.23520433e-02	1.30099328e-04
7.47000000e-01	1.23813909e-02	1.30267619e-04
7.48000000e-01	1.24680388e-02	1.31416312e-04
7.49000000e-01	1.23348070e-02	1.30203475e-04
7.50000000e-01	1.22514298e-02	1.29689097e-04
7.51000000e-01	1.23677059e-02	1.30048747e-04
7.52000000e-01	1.23449617e-02	1.30079633e-04
7.53000000e-01	1.22440262e-02	1.29368800e-04
7.54000000e-01	1.22886177e-02	1.29764243e-04
7.55000000e-01	1.24408525e-02	1.31233559e-04
7.56000000e-01	1.23246970e-02	1.29962685e-04
7.57000000e-01	1.21835820e-02	1.28799261e-04
7.58000000e-01	1.24235375e-02	1.30769183e-04
7.59000000e-01	1.22900954e-02	1.29509130e-04
7.60000000e-01	1.22096958e-02	1.28639058e-04
7.61000000e-01	1.23366293e-02	1.29209891e-04
7.62000000e-01	1.23300032e-02	1.28916109e-04
7.63000000e-01	1.21507359e-02	1.27501532e-04
7.64000000e-01	1.22142671e-02	1.27606706e-04
7.65000000e-01	1.20113680e-02	1.26224512e-04
7.66000000e-01	1.20989145e-02	1.26593052e-04
7.67000000e-01	1.21596375e-02	1.26901277e-04
7.68000000e-01	1.21261292e-02	1.26443105e-04
7.69000000e-01	1.20996466e-02	1.26404504e-04
7.70000000e-01	1.19442992e-02	1.25188886e-04
7.71000000e-01	1.21308314e-02	1.26834369e-04
7.72000000e-01	1.20536342e-02	1.30099918e-04
7.73000000e-01	1.21092287e-02	1.34300299e-04
7.74000000e-01	1.21164565e-02	1.37934207e-04
7.75000000e-01	1.20448248e-02	1.39261435e-04
7.76000000e-01	1.20876683e-02	1.41655333e-04
7.77000000e-01	1.19672560e-02	1.42705694e-04
7.78000000e-01	1.21424153e-02	1.46188740e-04
7.79000000e-01	1.20722105e-02	1.47186176e-04
7.80000000e-01	1.20446085e-02	1.48165629e-04
7.81000000e-01	1.20092400e-02	1.49686452e-04
7.82000000e-01	1.19737242e-02	1.50946369e-04
7.83000000e-01	1.19159466e-02	1.52583524e-04
7.84000000e-01	1.19373065e-02	1.54093071e-04
7.85000000e-01	1.20293442e-02	1.56506935e-04
7.86000000e-01	1.18266900e-02	1.56615308e-04
7.87000000e-01	1.18733920e-02	1.58420906e-04
7.88000000e-01	1.19446289e-02	1.60625253e-04
7.89000000e-01	1.18605377e-02	1.60616764e-04
7.90000000e-01	1.20277978e-02	1.64754433e-04
7.91000000e-01	1.15807766e-02	1.61331995e-04
7.92000000e-01	1.19014923e-02	1.67286005e-04
7.93000000e-01	1.18694305e-02	1.67494881e-04
7.94000000e-01	1.17442550e-02	1.68432259e-04
7.95000000e-01	1.17943976e-02	1.70297369e-04
7.96000000e-01	1.15969439e-02	1.68491151e-04
7.97000000e-01	1.17022388e-02	1.72247489e-04
7.98000000e-01	1.18289050e-02	1.76506492e-04
7.99000000e-01	1.17762334e-02	1.76952753e-04
8.00000000e-01	1.17572062e-02	1.78181052e-04
8.01000000e-01	1.19756741e-02	1.83499052e-04
8.02000000e-01	1.14950123e-02	1.79295044e-04
8.03000000e-01	1.17762174e-02	1.83850851e-04
8.04000000e-01	1.17271631e-02	1.85564459e-04
8.05000000e-01	1.17074312e-02	1.87545555e-04
8.06000000e-01	1.18323648e-02	1.92125032e-04
8.07000000e-01	1.15364696e-02	1.89567754e-04
8.08000000e-01	1.17352068e-02	1.94025557e-04
8.09000000e-01	1.17569278e-02	1.96136411e-04
8.10000000e-01	1.15008618e-02	1.94810388e-04
8.11000000e-01	1.14805690e-02	1.96652270e-04
8.12000000e-01	1.14479168e-02	1.98760300e-04
8.13000000e-01	1.16002961e-02	2.03804945e-04
8.14000000e-01	1.15322260e-02	2.03038202e-04
8.15000000e-01	1.14604272e-02	2.05460425e-04
8.16000000e-01	1.16287633e-02	2.10622219e-04
8.17000000e-01	1.15669358e-02	2.12986805e-04
8.18000000e-01	1.15987803e-02	2.15242592e-04
8.19000000e-01	1.15814782e-02	2.19033368e-04
8.20000000e-01	1.14238305e-02	2.17966541e-04
8.21000000e-01	1.14571887e-02	2.21059896e-04
8.22000000e-01	1.17031246e-02	2.29035405e-04
8.23000000e-01	1.16956388e-02	2.31953795e-04
8.24000000e-01	1.14557541e-02	2.30244481e-04
8.25000000e-01	1.14780543e-02	2.34837716e-04
8.26000000e-01	1.13709411e-02	2.34434304e-04
8.27000000e-01	1.12276257e-02	2.35669893e-04
8.28000000e-01	1.16439921e-02	2.47875580e-04
8.29000000e-01	1.13783960e-02	2.46004545e-04
8.30000000e-01	1.12783159e-02	2.48327273e-04
8.31000000e-01	1.12845507e-02	2.52014295e-04
8.32000000e-01	1.14431147e-02	2.60545730e-04
8.33000000e-01	1.11660243e-02	2.58741840e-04
8.34000000e-01	1.10743501e-02	2.63114523e-04
8.35000000e-01	1.12447811e-02	2.70505120e-04
8.36000000e-01	1.12665218e-02	2.74558944e-04
8.37000000e-01	1.12822701e-02	2.78926802e-04
8.38000000e-01	1.11226180e-02	2.82955540e-04
8.39000000e-01	1.11520309e-02	2.88945222e-04
8.40000000e-01	1.10060692e-02	2.91019663e-04
8.41000000e-01	1.11998727e-02	3.01978195e-04
8.42000000e-01	1.11415749e-02	3.09115692e-04
8.43000000e-01	1.13369721e-02	3.20815660e-04
8.44000000e-01	1.12314998e-02	3.25941397e-04
8.45000000e-01	1.13703401e-02	3.35923793e-04
8.46000000e-01	1.09842430e-02	3.35943832e-04
8.47000000e-01	1.12545645e-02	3.52709306e-04
8.48000000e-01	1.13129091e-02	3.64882305e-04
8.49000000e-01	1.12708947e-02	3.77999937e-04
8.50000000e-01	1.11298446e-02	3.85820011e-04
8.51000000e-01	1.12745716e-02	4.00534266e-04
8.52000000e-01	1.09324799e-02	4.14207043e-04
8.53000000e-01	1.14098651e-02	4.37321778e-04
8.54000000e-01	1.08346129e-02	4.40666362e-04
8.55000000e-01	1.08014796e-02	4.56359548e-04
8.56000000e-01	1.07985774e-02	4.65892162e-04
8.57000000e-01	1.10759732e-02	4.95915213e-04
8.58000000e-01	1.06466995e-02	4.93674636e-04
8.59000000e-01	1.01696973e-02	4.92190780e-04
8.60000000e-01	1.11406404e-02	5.47723384e-04
8.61000000e-01	1.13649576e-02	5.79698585e-04
8.62000000e-01	1.06422467e-02	5.52877726e-04
8.63000000e-01	1.11368767e-02	6.06417737e-04
8.64000000e-01	1.08767618e-02	6.21852497e-04
8.65000000e-01	1.07492456e-02	6.52513047e-04
8.66000000e-01	1.06113048e-02	6.67971380e-04
8.67000000e-01	1.09240225e-02	7.16505839e-04
8.68000000e-01	1.05036502e-02	7.38644215e-04
8.69000000e-01	1.12991153e-02	8.59036400e-04
8.70000000e-01	1.15493697e-02	9.55865822e-04
8.71000000e-01	9.87832405e-03	9.24346190e-04
8.72000000e-01	1.15107393e-02	1.21068301e-03
8.73000000e-01	1.07260181e-02	1.33231194e-03
8.74000000e-01	1.22328851e-02	1.91778702e-03
8.75000000e-01	1.23756941e-02	3.74470030e-03
