% Filename : SSW21_00035_00031.h5
% Date & Time : 30-Oct-2025 17:33:13
% X-ray Energy (keV) : 13.30001
% Exposure Time (s) : 0.500
% Beam Center : 1461.24000, 208.98300
% Sample to Detector Distance (SDD) (mm) : 1990.750
% Detector Pixel Size (mm) : 0.075
% Photodiode Value : 140727.000
% I0 of Sample : 0
% I0 of Standard : 1
% 
% q(A^-1)   I(q)    I(q)_SE
0.00000000e+00	8.98670475e-03	5.29330443e-03
2.50000000e-04	0.00000000e+00	0.00000000e+00
5.00000000e-04	0.00000000e+00	0.00000000e+00
7.50000000e-04	0.00000000e+00	0.00000000e+00
1.00000000e-03	0.00000000e+00	0.00000000e+00
1.25000000e-03	0.00000000e+00	0.00000000e+00
1.50000000e-03	0.00000000e+00	0.00000000e+00
1.75000000e-03	0.00000000e+00	0.00000000e+00
2.00000000e-03	0.00000000e+00	0.00000000e+00
2.25000000e-03	0.00000000e+00	0.00000000e+00
2.50000000e-03	0.00000000e+00	0.00000000e+00
2.75000000e-03	0.00000000e+00	0.00000000e+00
3.00000000e-03	0.00000000e+00	0.00000000e+00
3.25000000e-03	1.19186253e+03	7.34581432e+02
3.50000000e-03	3.41836332e+02	1.07599822e+02
3.75000000e-03	2.19479129e+02	7.14283304e+01
4.00000000e-03	1.69206487e+02	5.16396461e+01
4.25000000e-03	9.02462357e+01	2.57956623e+01
4.50000000e-03	9.04611503e+01	1.94909639e+01
4.75000000e-03	8.46951315e+01	1.57856434e+01
5.00000000e-03	6.49606474e+01	1.16018621e+01
5.25000000e-03	5.36821103e+01	9.49368762e+00
5.50000000e-03	4.40507033e+01	7.63030224e+00
5.75000000e-03	3.81095768e+01	6.38708534e+00
6.00000000e-03	3.04808274e+01	5.10116764e+00
6.25000000e-03	2.63195653e+01	4.33707194e+00
6.50000000e-03	2.24303741e+01	3.67331515e+00
6.75000000e-03	1.95433973e+01	3.10153513e+00
7.00000000e-03	1.66526258e+01	2.51693862e+00
7.25000000e-03	1.40211986e+01	2.09096641e+00
7.50000000e-03	1.22271732e+01	1.84731793e+00
7.75000000e-03	1.04289550e+01	1.50289147e+00
8.00000000e-03	9.37202817e+00	1.31291170e+00
8.25000000e-03	8.19500258e+00	1.12044264e+00
8.50000000e-03	7.26417722e+00	9.77696757e-01
8.75000000e-03	6.72514731e+00	9.01956510e-01
9.00000000e-03	5.92630010e+00	7.87176757e-01
9.25000000e-03	5.20557397e+00	6.65804149e-01
9.50000000e-03	4.65345598e+00	5.74955246e-01
9.75000000e-03	4.26597665e+00	5.21869519e-01
1.00000000e-02	3.71127819e+00	4.52047933e-01
1.02500000e-02	3.38778225e+00	4.09811904e-01
1.05000000e-02	3.04154744e+00	3.51318739e-01
1.07500000e-02	2.79424854e+00	3.21515297e-01
1.10000000e-02	2.50731993e+00	2.80703785e-01
1.12500000e-02	2.33050094e+00	2.64586685e-01
1.15000000e-02	2.18023958e+00	2.41401282e-01
1.17500000e-02	1.91690384e+00	2.09414900e-01
1.20000000e-02	1.79589802e+00	1.94560327e-01
1.22500000e-02	1.67412936e+00	1.76716740e-01
1.25000000e-02	1.57772761e+00	1.63504974e-01
1.27500000e-02	1.45908937e+00	1.50087171e-01
1.30000000e-02	1.34466348e+00	1.36499530e-01
1.32500000e-02	1.22070563e+00	1.20935155e-01
1.35000000e-02	1.15288890e+00	1.12540293e-01
1.37500000e-02	1.08020158e+00	1.04535132e-01
1.40000000e-02	1.00607664e+00	9.51250020e-02
1.42500000e-02	9.30759919e-01	8.73641180e-02
1.45000000e-02	8.75497563e-01	8.10671785e-02
1.47500000e-02	8.03911653e-01	7.27591766e-02
1.50000000e-02	7.69278039e-01	6.83770974e-02
1.52500000e-02	7.22013158e-01	6.31884591e-02
1.55000000e-02	6.67801745e-01	5.77091024e-02
1.57500000e-02	6.26342123e-01	5.34493898e-02
1.60000000e-02	6.09235099e-01	5.16263901e-02
1.62500000e-02	5.84246249e-01	5.00751938e-02
1.65000000e-02	5.39673273e-01	4.48977460e-02
1.67500000e-02	5.22769193e-01	4.26591720e-02
1.70000000e-02	4.86115964e-01	3.96205556e-02
1.72500000e-02	4.67615932e-01	3.75479048e-02
1.75000000e-02	4.33596523e-01	3.44267415e-02
1.77500000e-02	4.16321657e-01	3.23899707e-02
1.80000000e-02	4.00330125e-01	3.11869788e-02
1.82500000e-02	3.76198078e-01	2.83040577e-02
1.85000000e-02	3.59159660e-01	2.72345452e-02
1.87500000e-02	3.43786910e-01	2.52779536e-02
1.90000000e-02	3.32662577e-01	2.44557158e-02
1.92500000e-02	3.14640897e-01	2.25297337e-02
1.95000000e-02	2.98327246e-01	2.11109228e-02
1.97500000e-02	2.94148986e-01	2.09186397e-02
2.00000000e-02	2.72227538e-01	1.88961134e-02
2.02500000e-02	2.63084553e-01	1.81668455e-02
2.05000000e-02	2.60126168e-01	1.74658332e-02
2.07500000e-02	2.46990428e-01	1.66841951e-02
2.10000000e-02	2.45238561e-01	1.67806403e-02
2.12500000e-02	2.40586933e-01	1.60674639e-02
2.15000000e-02	2.28883429e-01	1.52309166e-02
2.17500000e-02	2.25295641e-01	1.48333460e-02
2.20000000e-02	2.18556920e-01	1.43011058e-02
2.22500000e-02	2.07199128e-01	1.35213009e-02
2.25000000e-02	2.05896737e-01	1.35369523e-02
2.27500000e-02	1.97564068e-01	1.26495163e-02
2.30000000e-02	1.96481822e-01	1.25962225e-02
2.32500000e-02	1.87198545e-01	1.17312939e-02
2.35000000e-02	1.84469245e-01	1.17330278e-02
2.37500000e-02	1.75605964e-01	1.09442925e-02
2.40000000e-02	1.72369633e-01	1.07444954e-02
2.42500000e-02	1.70141095e-01	1.03571362e-02
2.45000000e-02	1.63673798e-01	1.00591762e-02
2.47500000e-02	1.59181102e-01	9.55390868e-03
2.50000000e-02	1.56177095e-01	9.44782946e-03
2.52500000e-02	1.54371809e-01	9.35806955e-03
2.55000000e-02	1.49859555e-01	8.71545034e-03
2.57500000e-02	1.42612583e-01	8.37195010e-03
2.60000000e-02	1.40929926e-01	8.19329785e-03
2.62500000e-02	1.37232080e-01	8.17948267e-03
2.65000000e-02	1.34492980e-01	7.83011707e-03
2.67500000e-02	1.32056700e-01	7.60473270e-03
2.70000000e-02	1.27225679e-01	7.31020961e-03
2.72500000e-02	1.24555270e-01	7.07979954e-03
2.75000000e-02	1.20852487e-01	6.79392138e-03
2.77500000e-02	1.19109561e-01	6.85598935e-03
2.80000000e-02	1.18445615e-01	6.53466551e-03
2.82500000e-02	1.15371677e-01	6.43151129e-03
2.85000000e-02	1.13349241e-01	6.25683966e-03
2.87500000e-02	1.12847656e-01	6.24365731e-03
2.90000000e-02	1.11840573e-01	6.19338108e-03
2.92500000e-02	1.11678010e-01	5.96069864e-03
2.95000000e-02	1.07332728e-01	5.83981922e-03
2.97500000e-02	1.03228110e-01	5.50184977e-03
3.00000000e-02	1.02711699e-01	5.50746639e-03
3.02500000e-02	1.00688105e-01	5.38568927e-03
3.05000000e-02	9.74453192e-02	5.05116450e-03
3.07500000e-02	9.72469911e-02	5.08084580e-03
3.10000000e-02	9.52365982e-02	4.99667870e-03
3.12500000e-02	9.38536890e-02	4.89861108e-03
3.15000000e-02	9.08037706e-02	4.69843079e-03
3.17500000e-02	8.89495751e-02	4.49727764e-03
3.20000000e-02	8.79379700e-02	4.49911073e-03
3.22500000e-02	8.72151772e-02	4.43958623e-03
3.25000000e-02	8.43980875e-02	4.29778396e-03
3.27500000e-02	8.32911562e-02	4.16505907e-03
3.30000000e-02	8.33921015e-02	4.13638762e-03
3.32500000e-02	7.99764081e-02	3.96667544e-03
3.35000000e-02	8.02585518e-02	3.99197193e-03
3.37500000e-02	7.92376633e-02	3.88899769e-03
3.40000000e-02	7.76340574e-02	3.82161068e-03
3.42500000e-02	7.53897854e-02	3.69154372e-03
3.45000000e-02	7.50310294e-02	3.69523204e-03
3.47500000e-02	7.43985764e-02	3.59799986e-03
3.50000000e-02	7.23671659e-02	3.52692055e-03
3.52500000e-02	7.07943544e-02	3.45832909e-03
3.55000000e-02	6.95237299e-02	3.33971154e-03
3.57500000e-02	6.94923589e-02	3.35449909e-03
3.60000000e-02	6.86573948e-02	3.27554315e-03
3.62500000e-02	6.72787032e-02	3.22262570e-03
3.65000000e-02	6.64761585e-02	3.12960307e-03
3.67500000e-02	6.57121042e-02	3.11533832e-03
3.70000000e-02	6.55544075e-02	3.13069482e-03
3.72500000e-02	6.24861607e-02	2.93618217e-03
3.75000000e-02	6.24281032e-02	2.91981202e-03
3.77500000e-02	6.17388502e-02	2.87418741e-03
3.80000000e-02	6.19854107e-02	2.86093230e-03
3.82500000e-02	6.15282457e-02	2.82728967e-03
3.85000000e-02	6.01858198e-02	2.74568915e-03
3.87500000e-02	5.94353550e-02	2.71992181e-03
3.90000000e-02	5.88552660e-02	2.70514508e-03
3.92500000e-02	5.64947279e-02	2.55775409e-03
3.95000000e-02	5.86605844e-02	2.67323524e-03
3.97500000e-02	5.54817163e-02	2.49911488e-03
4.00000000e-02	5.64037508e-02	2.51425557e-03
4.02500000e-02	5.56565347e-02	2.48571959e-03
4.05000000e-02	5.42424737e-02	2.40537316e-03
4.07500000e-02	5.50442205e-02	2.40581274e-03
4.10000000e-02	5.32363419e-02	2.39603017e-03
4.12500000e-02	5.26852514e-02	2.30980308e-03
4.15000000e-02	5.19537234e-02	2.28745205e-03
4.17500000e-02	5.30598372e-02	2.30923974e-03
4.20000000e-02	5.22823710e-02	2.25080359e-03
4.22500000e-02	5.18354035e-02	2.23038039e-03
4.25000000e-02	5.01644724e-02	2.18132882e-03
4.27500000e-02	5.02367884e-02	2.18186053e-03
4.30000000e-02	5.00753037e-02	2.14884027e-03
4.32500000e-02	4.86073893e-02	2.07731628e-03
4.35000000e-02	4.88643436e-02	2.11896207e-03
4.37500000e-02	4.92538491e-02	2.10459153e-03
4.40000000e-02	4.83604233e-02	2.06694879e-03
4.42500000e-02	4.73450216e-02	1.99254199e-03
4.45000000e-02	4.74796779e-02	1.99453966e-03
4.47500000e-02	4.70443037e-02	1.97269370e-03
4.50000000e-02	4.63167098e-02	1.95561046e-03
4.52500000e-02	4.64186590e-02	1.94625650e-03
4.55000000e-02	4.53901651e-02	1.90351509e-03
4.57500000e-02	4.42224424e-02	1.83462541e-03
4.60000000e-02	4.45943602e-02	1.85181934e-03
4.62500000e-02	4.48526981e-02	1.85482222e-03
4.65000000e-02	4.50547732e-02	1.85079837e-03
4.67500000e-02	4.31281355e-02	1.76644816e-03
4.70000000e-02	4.29149453e-02	1.76534660e-03
4.72500000e-02	4.26811003e-02	1.74659510e-03
4.75000000e-02	4.32598604e-02	1.78262885e-03
4.77500000e-02	4.17172285e-02	1.69824634e-03
4.80000000e-02	4.18531762e-02	1.69954251e-03
4.82500000e-02	4.16750801e-02	1.67833664e-03
4.85000000e-02	4.16537081e-02	1.70897243e-03
4.87500000e-02	4.18884891e-02	1.70573798e-03
4.90000000e-02	4.11808403e-02	1.63992530e-03
4.92500000e-02	4.11808738e-02	1.64224975e-03
4.95000000e-02	4.07301874e-02	1.63261829e-03
4.97500000e-02	4.06570930e-02	1.62067924e-03
5.00000000e-02	3.92447220e-02	1.56890646e-03
5.02500000e-02	3.96583053e-02	1.56710506e-03
5.05000000e-02	3.83028866e-02	1.50693533e-03
5.07500000e-02	3.91121012e-02	1.54454174e-03
5.10000000e-02	3.90218935e-02	1.53717736e-03
5.12500000e-02	3.91081507e-02	1.54947807e-03
5.15000000e-02	3.86499867e-02	1.50416955e-03
5.17500000e-02	3.70959622e-02	1.46564040e-03
5.20000000e-02	3.79823725e-02	1.46996165e-03
5.22500000e-02	3.85922692e-02	1.50344024e-03
5.25000000e-02	3.72504437e-02	1.43135391e-03
5.27500000e-02	3.77252169e-02	1.45442167e-03
5.30000000e-02	3.77466754e-02	1.46672962e-03
5.32500000e-02	3.73572467e-02	1.43266019e-03
5.35000000e-02	3.69387587e-02	1.42693278e-03
5.37500000e-02	3.61906178e-02	1.39273060e-03
5.40000000e-02	3.67911689e-02	1.41093917e-03
5.42500000e-02	3.65745525e-02	1.38708902e-03
5.45000000e-02	3.63994864e-02	1.39178569e-03
5.47500000e-02	3.67520076e-02	1.40162876e-03
5.50000000e-02	3.61071827e-02	1.37215686e-03
5.52500000e-02	3.61377112e-02	1.36830062e-03
5.55000000e-02	3.58805363e-02	1.35604195e-03
5.57500000e-02	3.59998877e-02	1.37158407e-03
5.60000000e-02	3.55037162e-02	1.33186568e-03
5.62500000e-02	3.50849098e-02	1.31832464e-03
5.65000000e-02	3.50491353e-02	1.31444995e-03
5.67500000e-02	3.42738488e-02	1.30481754e-03
5.70000000e-02	3.42748581e-02	1.28516104e-03
5.72500000e-02	3.36820861e-02	1.26310479e-03
5.75000000e-02	3.35208027e-02	1.26905028e-03
5.77500000e-02	3.32985463e-02	1.22702622e-03
5.80000000e-02	3.38671145e-02	1.26069117e-03
5.82500000e-02	3.42759673e-02	1.27030373e-03
5.85000000e-02	3.34570306e-02	1.23935998e-03
5.87500000e-02	3.35223383e-02	1.23940774e-03
5.90000000e-02	3.34032325e-02	1.24331282e-03
5.92500000e-02	3.24302462e-02	1.19167319e-03
5.95000000e-02	3.29693305e-02	1.20968971e-03
5.97500000e-02	3.25545570e-02	1.20117708e-03
6.00000000e-02	3.19545210e-02	1.17845256e-03
6.02500000e-02	3.31908220e-02	1.21724359e-03
6.05000000e-02	3.20654251e-02	1.17842871e-03
6.07500000e-02	3.24513717e-02	1.17973433e-03
6.10000000e-02	3.17799126e-02	1.15348806e-03
6.12500000e-02	3.09395491e-02	1.13097789e-03
6.15000000e-02	3.18195969e-02	1.15846184e-03
6.17500000e-02	3.15552430e-02	1.14454806e-03
6.20000000e-02	3.17682281e-02	1.15077122e-03
6.22500000e-02	3.16102432e-02	1.13828378e-03
6.25000000e-02	3.10692330e-02	1.11887632e-03
6.27500000e-02	3.08773792e-02	1.10811095e-03
6.30000000e-02	3.07244600e-02	1.09954869e-03
6.32500000e-02	3.08318264e-02	1.10383731e-03
6.35000000e-02	3.09747630e-02	1.10201094e-03
6.37500000e-02	3.12343961e-02	1.11978435e-03
6.40000000e-02	3.10764073e-02	1.11162541e-03
6.42500000e-02	3.08278679e-02	1.09215556e-03
6.45000000e-02	3.04839604e-02	1.08022073e-03
6.47500000e-02	3.03019188e-02	1.07706816e-03
6.50000000e-02	3.04323553e-02	1.07852399e-03
6.52500000e-02	3.01055681e-02	1.05134427e-03
6.55000000e-02	3.01939934e-02	1.06801816e-03
6.57500000e-02	3.00069165e-02	1.06456729e-03
6.60000000e-02	3.00639192e-02	1.05022521e-03
6.62500000e-02	2.97680105e-02	1.05350284e-03
6.65000000e-02	2.98748977e-02	1.04673494e-03
6.67500000e-02	3.00892142e-02	1.04550025e-03
6.70000000e-02	2.94670307e-02	1.04428168e-03
6.72500000e-02	3.04168052e-02	1.06923036e-03
6.75000000e-02	2.90762751e-02	1.01821706e-03
6.77500000e-02	2.88783256e-02	1.00694648e-03
6.80000000e-02	2.94043127e-02	1.01929823e-03
6.82500000e-02	2.93490961e-02	1.02035419e-03
6.85000000e-02	2.91760838e-02	1.01465653e-03
6.87500000e-02	2.90262242e-02	1.01103767e-03
6.90000000e-02	2.91215399e-02	1.00893797e-03
6.92500000e-02	2.87312135e-02	9.89160545e-04
6.95000000e-02	2.89993063e-02	1.00832745e-03
6.97500000e-02	2.90810247e-02	1.00156688e-03
7.00000000e-02	2.87441675e-02	9.86473868e-04
7.02500000e-02	2.85748395e-02	9.72942606e-04
7.05000000e-02	2.87034160e-02	9.80126164e-04
7.07500000e-02	2.86921855e-02	9.93644491e-04
7.10000000e-02	2.78792745e-02	9.44470427e-04
7.12500000e-02	2.81341227e-02	9.67629811e-04
7.15000000e-02	2.82580867e-02	9.55800832e-04
7.17500000e-02	2.84151039e-02	9.66836716e-04
7.20000000e-02	2.88926438e-02	9.83701253e-04
7.22500000e-02	2.82071383e-02	9.62555144e-04
7.25000000e-02	2.84656528e-02	9.60471763e-04
7.27500000e-02	2.79207318e-02	9.47555518e-04
7.30000000e-02	2.80050772e-02	9.45512128e-04
7.32500000e-02	2.79398577e-02	9.40667730e-04
7.35000000e-02	2.74410373e-02	9.29122685e-04
7.37500000e-02	2.75266101e-02	9.27239224e-04
7.40000000e-02	2.81701307e-02	9.44568665e-04
7.42500000e-02	2.76088928e-02	9.23706701e-04
7.45000000e-02	2.79584236e-02	9.37363897e-04
7.47500000e-02	2.78189743e-02	9.26997724e-04
7.50000000e-02	2.74458584e-02	9.16276902e-04
7.52500000e-02	2.74088345e-02	9.09838857e-04
7.55000000e-02	2.67262038e-02	8.91112141e-04
7.57500000e-02	2.72325591e-02	9.07868783e-04
7.60000000e-02	2.69178993e-02	8.96048718e-04
7.62500000e-02	2.69621474e-02	8.95121673e-04
7.65000000e-02	2.71473859e-02	8.97096591e-04
7.67500000e-02	2.67125521e-02	8.86717720e-04
7.70000000e-02	2.72884659e-02	8.94988730e-04
7.72500000e-02	2.69680413e-02	9.07458665e-04
7.75000000e-02	2.66444094e-02	9.03069092e-04
7.77500000e-02	2.72436539e-02	9.29114836e-04
7.80000000e-02	2.70375665e-02	9.27806836e-04
7.82500000e-02	2.72400308e-02	9.37301473e-04
7.85000000e-02	2.73533377e-02	9.46756663e-04
7.87500000e-02	2.68788022e-02	9.28782721e-04
7.90000000e-02	2.74329581e-02	9.58799698e-04
7.92500000e-02	2.73239160e-02	9.47177724e-04
7.95000000e-02	2.71750457e-02	9.50614435e-04
7.97500000e-02	2.68408431e-02	9.41045237e-04
8.00000000e-02	2.69712048e-02	9.49883367e-04
8.02500000e-02	2.70046672e-02	9.50910495e-04
8.05000000e-02	2.71178799e-02	9.51387601e-04
8.07500000e-02	2.72027158e-02	9.72713197e-04
8.10000000e-02	2.66321519e-02	9.42433069e-04
8.12500000e-02	2.62556923e-02	9.37096772e-04
8.15000000e-02	2.70493221e-02	9.56960937e-04
8.17500000e-02	2.68415664e-02	9.61358475e-04
8.20000000e-02	2.60967065e-02	9.30563744e-04
8.22500000e-02	2.64733527e-02	9.44323020e-04
8.25000000e-02	2.62486587e-02	9.38049296e-04
8.27500000e-02	2.65377563e-02	9.46919235e-04
8.30000000e-02	2.67682572e-02	9.60669723e-04
8.32500000e-02	2.63103106e-02	9.49054193e-04
8.35000000e-02	2.67183822e-02	9.69974188e-04
8.37500000e-02	2.58507384e-02	9.24243397e-04
8.40000000e-02	2.70489011e-02	9.67868790e-04
8.42500000e-02	2.64916375e-02	9.57230113e-04
8.45000000e-02	2.64378848e-02	9.53623874e-04
8.47500000e-02	2.61792468e-02	9.49388274e-04
8.50000000e-02	2.69169897e-02	9.70520679e-04
8.52500000e-02	2.64297983e-02	9.61649335e-04
8.55000000e-02	2.65533442e-02	9.57906539e-04
8.57500000e-02	2.56286517e-02	9.37615002e-04
8.60000000e-02	2.59505730e-02	9.44194454e-04
8.62500000e-02	2.62877984e-02	9.61357039e-04
8.65000000e-02	2.62946892e-02	9.56705269e-04
8.67500000e-02	2.60749502e-02	9.43257054e-04
8.70000000e-02	2.62494948e-02	9.41566256e-04
8.72500000e-02	2.54893461e-02	8.93593981e-04
8.75000000e-02	2.56409226e-02	8.89494946e-04
8.77500000e-02	2.59254606e-02	8.86401643e-04
8.80000000e-02	2.51978368e-02	8.72790713e-04
8.82500000e-02	2.54558023e-02	8.78352641e-04
8.85000000e-02	2.58776509e-02	8.86586708e-04
8.87500000e-02	2.51948725e-02	8.55261023e-04
8.90000000e-02	2.57654020e-02	8.74438992e-04
8.92500000e-02	2.56240005e-02	8.61434903e-04
8.95000000e-02	2.57463449e-02	8.68096484e-04
8.97500000e-02	2.53002324e-02	8.47112658e-04
9.00000000e-02	2.59559508e-02	8.67662229e-04
9.02500000e-02	2.59370849e-02	8.63773297e-04
9.05000000e-02	2.53536642e-02	8.52444528e-04
9.07500000e-02	2.53093422e-02	8.43377822e-04
9.10000000e-02	2.51840657e-02	8.32246316e-04
9.12500000e-02	2.47556222e-02	8.16968759e-04
9.15000000e-02	2.47826809e-02	8.17739230e-04
9.17500000e-02	2.46413197e-02	8.14729679e-04
9.20000000e-02	2.51197954e-02	8.28599848e-04
9.22500000e-02	2.49464261e-02	8.17694358e-04
9.25000000e-02	2.51583481e-02	8.19803849e-04
9.27500000e-02	2.51145119e-02	8.19874773e-04
9.30000000e-02	2.50966656e-02	8.14144662e-04
9.32500000e-02	2.49559608e-02	8.11626067e-04
9.35000000e-02	2.46931150e-02	8.01267557e-04
9.37500000e-02	2.47897576e-02	7.98295642e-04
9.40000000e-02	2.49659247e-02	8.08597967e-04
9.42500000e-02	2.45604069e-02	7.86435965e-04
9.45000000e-02	2.53258883e-02	8.18873159e-04
9.47500000e-02	2.48517064e-02	7.99439182e-04
9.50000000e-02	2.48236553e-02	8.01839555e-04
9.52500000e-02	2.49468258e-02	7.97198710e-04
9.55000000e-02	2.41527705e-02	7.71430269e-04
9.57500000e-02	2.48164280e-02	7.91090793e-04
9.60000000e-02	2.49522172e-02	7.94372392e-04
9.62500000e-02	2.42805665e-02	7.67874227e-04
9.65000000e-02	2.43288830e-02	7.73542957e-04
9.67500000e-02	2.48666510e-02	7.83150760e-04
9.70000000e-02	2.41841957e-02	7.63841646e-04
9.72500000e-02	2.47275311e-02	7.79208029e-04
9.75000000e-02	2.41203843e-02	7.66154940e-04
9.77500000e-02	2.45063793e-02	7.65811294e-04
9.80000000e-02	2.41710248e-02	7.59631664e-04
9.82500000e-02	2.45339113e-02	7.72877827e-04
9.85000000e-02	2.43730032e-02	7.57986074e-04
9.87500000e-02	2.39589958e-02	7.47729968e-04
9.90000000e-02	2.41186497e-02	7.54740746e-04
9.92500000e-02	2.39249915e-02	7.50704348e-04
9.95000000e-02	2.45962767e-02	7.60732386e-04
9.97500000e-02	2.40542330e-02	7.50045371e-04
1.00000000e-01	2.36226869e-02	6.00297909e-04
1.00500000e-01	2.36227269e-02	5.20588360e-04
1.01000000e-01	2.38687228e-02	5.20945994e-04
1.01500000e-01	2.42344044e-02	5.28798005e-04
1.02000000e-01	2.40359240e-02	5.20642744e-04
1.02500000e-01	2.42875066e-02	5.21994780e-04
1.03000000e-01	2.39351367e-02	5.18632315e-04
1.03500000e-01	2.39517304e-02	5.16224883e-04
1.04000000e-01	2.39104983e-02	5.15177752e-04
1.04500000e-01	2.39053885e-02	5.13689130e-04
1.05000000e-01	2.36328091e-02	5.02940078e-04
1.05500000e-01	2.34656897e-02	4.99287174e-04
1.06000000e-01	2.40345025e-02	5.10772165e-04
1.06500000e-01	2.37148957e-02	5.02419765e-04
1.07000000e-01	2.41095109e-02	5.17324902e-04
1.07500000e-01	2.35630602e-02	5.15640974e-04
1.08000000e-01	2.34460555e-02	5.17802056e-04
1.08500000e-01	2.34288571e-02	5.19026106e-04
1.09000000e-01	2.34172513e-02	5.24343596e-04
1.09500000e-01	2.32850482e-02	5.24553704e-04
1.10000000e-01	2.27012508e-02	5.02956535e-04
1.10500000e-01	2.28234696e-02	4.97822234e-04
1.11000000e-01	2.31345445e-02	4.95093123e-04
1.11500000e-01	2.30177277e-02	4.89734768e-04
1.12000000e-01	2.34900825e-02	4.95610341e-04
1.12500000e-01	2.32756101e-02	4.88118881e-04
1.13000000e-01	2.32130521e-02	4.88019815e-04
1.13500000e-01	2.30093584e-02	4.82669421e-04
1.14000000e-01	2.34995039e-02	4.86786010e-04
1.14500000e-01	2.28645477e-02	4.75021535e-04
1.15000000e-01	2.33159021e-02	4.79369205e-04
1.15500000e-01	2.34684803e-02	4.83009315e-04
1.16000000e-01	2.30359499e-02	4.72197850e-04
1.16500000e-01	2.28997823e-02	4.70240540e-04
1.17000000e-01	2.32284879e-02	4.75302832e-04
1.17500000e-01	2.29791351e-02	4.67836064e-04
1.18000000e-01	2.34521203e-02	4.75531801e-04
1.18500000e-01	2.31596798e-02	4.70909942e-04
1.19000000e-01	2.28721054e-02	4.62967153e-04
1.19500000e-01	2.29730728e-02	4.62516447e-04
1.20000000e-01	2.31699692e-02	4.65864136e-04
1.20500000e-01	2.30610545e-02	4.63070263e-04
1.21000000e-01	2.32597786e-02	4.66624748e-04
1.21500000e-01	2.30351808e-02	4.61070338e-04
1.22000000e-01	2.32904924e-02	4.63806226e-04
1.22500000e-01	2.27682075e-02	4.52773127e-04
1.23000000e-01	2.30038472e-02	4.56788800e-04
1.23500000e-01	2.30729404e-02	4.56916904e-04
1.24000000e-01	2.33331212e-02	4.59442260e-04
1.24500000e-01	2.28753727e-02	4.51298743e-04
1.25000000e-01	2.30283859e-02	4.55134092e-04
1.25500000e-01	2.28928508e-02	4.50101975e-04
1.26000000e-01	2.32744145e-02	4.56802029e-04
1.26500000e-01	2.30555217e-02	4.51187110e-04
1.27000000e-01	2.30327677e-02	4.50993841e-04
1.27500000e-01	2.30033360e-02	4.48228525e-04
1.28000000e-01	2.30559843e-02	4.47963307e-04
1.28500000e-01	2.30812869e-02	4.48934658e-04
1.29000000e-01	2.30582028e-02	4.47983606e-04
1.29500000e-01	2.27376535e-02	4.40987714e-04
1.30000000e-01	2.26005326e-02	4.37728565e-04
1.30500000e-01	2.25214112e-02	4.34047854e-04
1.31000000e-01	2.29970334e-02	4.39736929e-04
1.31500000e-01	2.28464998e-02	4.36829356e-04
1.32000000e-01	2.31141858e-02	4.42121560e-04
1.32500000e-01	2.26777863e-02	4.33681324e-04
1.33000000e-01	2.26136415e-02	4.32673064e-04
1.33500000e-01	2.25717356e-02	4.25011637e-04
1.34000000e-01	2.24926269e-02	4.26801415e-04
1.34500000e-01	2.26923191e-02	4.27540318e-04
1.35000000e-01	2.24334315e-02	4.21160200e-04
1.35500000e-01	2.27066844e-02	4.26424193e-04
1.36000000e-01	2.23877250e-02	4.20555472e-04
1.36500000e-01	2.29681194e-02	4.30088124e-04
1.37000000e-01	2.24948462e-02	4.20403686e-04
1.37500000e-01	2.24941407e-02	4.20263479e-04
1.38000000e-01	2.25277566e-02	4.20946637e-04
1.38500000e-01	2.24371105e-02	4.19171750e-04
1.39000000e-01	2.23213009e-02	4.16089459e-04
1.39500000e-01	2.27742289e-02	4.23388222e-04
1.40000000e-01	2.26379352e-02	4.20629405e-04
1.40500000e-01	2.22430931e-02	4.14060400e-04
1.41000000e-01	2.21335309e-02	4.12637174e-04
1.41500000e-01	2.23538056e-02	4.14777914e-04
1.42000000e-01	2.21669560e-02	4.09579442e-04
1.42500000e-01	2.21297409e-02	4.09758932e-04
1.43000000e-01	2.22659504e-02	4.11107110e-04
1.43500000e-01	2.21105118e-02	4.04816442e-04
1.44000000e-01	2.21663554e-02	4.05821830e-04
1.44500000e-01	2.21592664e-02	4.05006578e-04
1.45000000e-01	2.18777307e-02	4.01796883e-04
1.45500000e-01	2.20135227e-02	4.02128829e-04
1.46000000e-01	2.19100228e-02	3.98210662e-04
1.46500000e-01	2.16501482e-02	3.95977837e-04
1.47000000e-01	2.21739536e-02	4.03218552e-04
1.47500000e-01	2.20071242e-02	3.99306376e-04
1.48000000e-01	2.16663354e-02	3.94688022e-04
1.48500000e-01	2.17030467e-02	3.93300942e-04
1.49000000e-01	2.20486953e-02	3.96700910e-04
1.49500000e-01	2.22002711e-02	4.00857929e-04
1.50000000e-01	2.15863033e-02	3.89311367e-04
1.50500000e-01	2.19838584e-02	3.96179736e-04
1.51000000e-01	2.15293121e-02	3.86688004e-04
1.51500000e-01	2.19694908e-02	3.92522178e-04
1.52000000e-01	2.14875801e-02	3.83789304e-04
1.52500000e-01	2.16242496e-02	3.86456598e-04
1.53000000e-01	2.17504742e-02	3.87127284e-04
1.53500000e-01	2.13833239e-02	3.80933309e-04
1.54000000e-01	2.15834211e-02	3.82684120e-04
1.54500000e-01	2.17900203e-02	3.93392759e-04
1.55000000e-01	2.12873081e-02	3.91173694e-04
1.55500000e-01	2.12227720e-02	3.90762320e-04
1.56000000e-01	2.10159068e-02	3.91489619e-04
1.56500000e-01	2.12787736e-02	3.94399006e-04
1.57000000e-01	2.11571366e-02	3.94367453e-04
1.57500000e-01	2.11986695e-02	3.88441297e-04
1.58000000e-01	2.13910430e-02	3.83974597e-04
1.58500000e-01	2.13160187e-02	3.83096411e-04
1.59000000e-01	2.10363650e-02	3.73684702e-04
1.59500000e-01	2.14530562e-02	3.81584964e-04
1.60000000e-01	2.12271642e-02	3.76313697e-04
1.60500000e-01	2.13571189e-02	3.76517549e-04
1.61000000e-01	2.10804842e-02	3.73826874e-04
1.61500000e-01	2.13112429e-02	3.73733968e-04
1.62000000e-01	2.13203565e-02	3.73613037e-04
1.62500000e-01	2.17033080e-02	3.79645431e-04
1.63000000e-01	2.09401518e-02	3.66430396e-04
1.63500000e-01	2.11890759e-02	3.72536855e-04
1.64000000e-01	2.10417855e-02	3.66412531e-04
1.64500000e-01	2.11381768e-02	3.69195788e-04
1.65000000e-01	2.09561805e-02	3.65428180e-04
1.65500000e-01	2.10144344e-02	3.65787451e-04
1.66000000e-01	2.10096410e-02	3.63640524e-04
1.66500000e-01	2.10108082e-02	3.62244199e-04
1.67000000e-01	2.13156401e-02	3.69094596e-04
1.67500000e-01	2.10886157e-02	3.65421365e-04
1.68000000e-01	2.10144647e-02	3.62348750e-04
1.68500000e-01	2.11720005e-02	3.63061536e-04
1.69000000e-01	2.07399711e-02	3.56643708e-04
1.69500000e-01	2.09152626e-02	3.58402845e-04
1.70000000e-01	2.10956097e-02	3.62768738e-04
1.70500000e-01	2.09260106e-02	3.58872076e-04
1.71000000e-01	2.08668242e-02	3.58158895e-04
1.71500000e-01	2.09257058e-02	3.58446192e-04
1.72000000e-01	2.09561723e-02	3.56040590e-04
1.72500000e-01	2.10600640e-02	3.57519178e-04
1.73000000e-01	2.05781126e-02	3.51178272e-04
1.73500000e-01	2.07055005e-02	3.50166648e-04
1.74000000e-01	2.07927842e-02	3.51600807e-04
1.74500000e-01	2.05992839e-02	3.46213535e-04
1.75000000e-01	2.09032472e-02	3.49338809e-04
1.75500000e-01	2.06185176e-02	3.46437593e-04
1.76000000e-01	2.05900003e-02	3.45276398e-04
1.76500000e-01	2.05209746e-02	3.44980418e-04
1.77000000e-01	2.09541369e-02	3.49199909e-04
1.77500000e-01	2.07333944e-02	3.45283316e-04
1.78000000e-01	2.07571411e-02	3.45377317e-04
1.78500000e-01	2.08308369e-02	3.46737353e-04
1.79000000e-01	2.05739029e-02	3.41798319e-04
1.79500000e-01	2.06920634e-02	3.45505774e-04
1.80000000e-01	2.06213075e-02	3.42972016e-04
1.80500000e-01	2.04863434e-02	3.39681403e-04
1.81000000e-01	2.04377067e-02	3.40683791e-04
1.81500000e-01	2.05977890e-02	3.40492504e-04
1.82000000e-01	2.07308833e-02	3.43526538e-04
1.82500000e-01	2.07611888e-02	3.41874039e-04
1.83000000e-01	2.03833609e-02	3.37110446e-04
1.83500000e-01	2.05106476e-02	3.38498667e-04
1.84000000e-01	2.05596077e-02	3.37596470e-04
1.84500000e-01	2.06020040e-02	3.38475718e-04
1.85000000e-01	2.04182738e-02	3.36442586e-04
1.85500000e-01	2.01870041e-02	3.31908253e-04
1.86000000e-01	2.01869195e-02	3.31673482e-04
1.86500000e-01	2.01479590e-02	3.29622580e-04
1.87000000e-01	2.03764612e-02	3.34442202e-04
1.87500000e-01	2.03109005e-02	3.32009033e-04
1.88000000e-01	2.01882301e-02	3.30288277e-04
1.88500000e-01	2.01344893e-02	3.28292267e-04
1.89000000e-01	2.01969042e-02	3.28198818e-04
1.89500000e-01	2.02352190e-02	3.29012080e-04
1.90000000e-01	1.99665260e-02	3.23586511e-04
1.90500000e-01	2.00362755e-02	3.24892753e-04
1.91000000e-01	2.02315625e-02	3.27503047e-04
1.91500000e-01	2.02804678e-02	3.28859430e-04
1.92000000e-01	2.02595670e-02	3.26689928e-04
1.92500000e-01	2.00286048e-02	3.23631477e-04
1.93000000e-01	2.02892649e-02	3.25800810e-04
1.93500000e-01	1.98756065e-02	3.20588638e-04
1.94000000e-01	2.01170750e-02	3.22259371e-04
1.94500000e-01	1.99808791e-02	3.21290180e-04
1.95000000e-01	2.02110692e-02	3.23937102e-04
1.95500000e-01	2.01443936e-02	3.21411065e-04
1.96000000e-01	2.00769504e-02	3.21348967e-04
1.96500000e-01	1.97821312e-02	3.17015980e-04
1.97000000e-01	2.00261885e-02	3.18514383e-04
1.97500000e-01	1.97918430e-02	3.17199506e-04
1.98000000e-01	1.97731307e-02	3.15092648e-04
1.98500000e-01	1.98462773e-02	3.15645870e-04
1.99000000e-01	2.00764069e-02	3.18929936e-04
1.99500000e-01	2.00713710e-02	3.17909374e-04
2.00000000e-01	1.99359952e-02	3.15143986e-04
2.00500000e-01	1.99432410e-02	3.16072170e-04
2.01000000e-01	1.99789080e-02	3.15115246e-04
2.01500000e-01	1.96837061e-02	3.10813538e-04
2.02000000e-01	1.98958097e-02	3.12624276e-04
2.02500000e-01	1.97660976e-02	3.10826274e-04
2.03000000e-01	1.97930777e-02	3.09875056e-04
2.03500000e-01	1.97505220e-02	3.10371542e-04
2.04000000e-01	1.98361782e-02	3.12137997e-04
2.04500000e-01	2.00418254e-02	3.13846300e-04
2.05000000e-01	1.94717063e-02	3.04560438e-04
2.05500000e-01	1.96487669e-02	3.06894271e-04
2.06000000e-01	1.94027331e-02	3.02797865e-04
2.06500000e-01	1.98360824e-02	3.08468780e-04
2.07000000e-01	1.97649888e-02	3.08403554e-04
2.07500000e-01	1.95892939e-02	3.04502276e-04
2.08000000e-01	1.92961042e-02	3.01361434e-04
2.08500000e-01	1.96827878e-02	3.04126052e-04
2.09000000e-01	1.96309663e-02	3.05562569e-04
2.09500000e-01	1.95424528e-02	3.02410045e-04
2.10000000e-01	1.97223062e-02	3.05407500e-04
2.10500000e-01	1.95551554e-02	3.02884091e-04
2.11000000e-01	1.95874864e-02	3.01098261e-04
2.11500000e-01	1.93838153e-02	2.99884277e-04
2.12000000e-01	1.94897931e-02	3.00594842e-04
2.12500000e-01	1.91655334e-02	2.94313377e-04
2.13000000e-01	1.96511859e-02	3.01809686e-04
2.13500000e-01	1.95319045e-02	3.00420982e-04
2.14000000e-01	1.97007507e-02	3.02316089e-04
2.14500000e-01	1.94367630e-02	2.97468506e-04
2.15000000e-01	1.92371970e-02	2.96303357e-04
2.15500000e-01	1.94280813e-02	2.97193024e-04
2.16000000e-01	1.92897176e-02	2.94622597e-04
2.16500000e-01	1.93264640e-02	2.95416842e-04
2.17000000e-01	1.94062523e-02	3.00071510e-04
2.17500000e-01	1.93974224e-02	3.05945797e-04
2.18000000e-01	1.92447116e-02	3.02706151e-04
2.18500000e-01	1.94014705e-02	3.06786197e-04
2.19000000e-01	1.92543130e-02	3.06881109e-04
2.19500000e-01	1.93834395e-02	3.10824553e-04
2.20000000e-01	1.92582326e-02	3.09680607e-04
2.20500000e-01	1.93535427e-02	3.10062887e-04
2.21000000e-01	1.96509267e-02	3.17166362e-04
2.21500000e-01	1.90991989e-02	3.09284642e-04
2.22000000e-01	1.94054611e-02	3.15372404e-04
2.22500000e-01	1.92977867e-02	3.12907189e-04
2.23000000e-01	1.94206668e-02	3.16254071e-04
2.23500000e-01	1.94797526e-02	3.17753516e-04
2.24000000e-01	1.94860011e-02	3.16906811e-04
2.24500000e-01	1.95011720e-02	3.19604258e-04
2.25000000e-01	1.92747296e-02	3.17516157e-04
2.25500000e-01	1.91434224e-02	3.15115803e-04
2.26000000e-01	1.94023475e-02	3.19288177e-04
2.26500000e-01	1.95330300e-02	3.16909258e-04
2.27000000e-01	1.93398144e-02	3.11249980e-04
2.27500000e-01	1.93113655e-02	3.08305915e-04
2.28000000e-01	1.92196698e-02	3.04383220e-04
2.28500000e-01	1.92960838e-02	3.04043837e-04
2.29000000e-01	1.90379423e-02	2.99086455e-04
2.29500000e-01	1.91524451e-02	2.99729941e-04
2.30000000e-01	1.90940866e-02	2.98829628e-04
2.30500000e-01	1.90195406e-02	2.98070849e-04
2.31000000e-01	1.91850058e-02	2.98595363e-04
2.31500000e-01	1.89933503e-02	2.93904338e-04
2.32000000e-01	1.91411412e-02	2.96694794e-04
2.32500000e-01	1.89853891e-02	2.93407042e-04
2.33000000e-01	1.91348575e-02	2.93949990e-04
2.33500000e-01	1.91689133e-02	2.94941181e-04
2.34000000e-01	1.90441755e-02	2.91740420e-04
2.34500000e-01	1.89879333e-02	2.90373891e-04
2.35000000e-01	1.89832381e-02	2.90062848e-04
2.35500000e-01	1.89732029e-02	2.88573715e-04
2.36000000e-01	1.90086469e-02	2.90211684e-04
2.36500000e-01	1.89898335e-02	2.89485849e-04
2.37000000e-01	1.90205553e-02	2.88777545e-04
2.37500000e-01	1.91283723e-02	2.89520450e-04
2.38000000e-01	1.88275833e-02	2.83970698e-04
2.38500000e-01	1.86880628e-02	2.82454032e-04
2.39000000e-01	1.87056925e-02	2.81731506e-04
2.39500000e-01	1.87324004e-02	2.80955973e-04
2.40000000e-01	1.89287032e-02	2.83996792e-04
2.40500000e-01	1.85809633e-02	2.79093976e-04
2.41000000e-01	1.88592703e-02	2.82639252e-04
2.41500000e-01	1.88313350e-02	2.81067156e-04
2.42000000e-01	1.89458076e-02	2.83620714e-04
2.42500000e-01	1.87371553e-02	2.79156664e-04
2.43000000e-01	1.87408388e-02	2.78655597e-04
2.43500000e-01	1.89323969e-02	2.80577397e-04
2.44000000e-01	1.87222966e-02	2.76771220e-04
2.44500000e-01	1.85776954e-02	2.75850531e-04
2.45000000e-01	1.87050591e-02	2.75829969e-04
2.45500000e-01	1.86037813e-02	2.74529874e-04
2.46000000e-01	1.88084489e-02	2.77587978e-04
2.46500000e-01	1.86531462e-02	2.74735774e-04
2.47000000e-01	1.88091983e-02	2.77515051e-04
2.47500000e-01	1.86769905e-02	2.73512188e-04
2.48000000e-01	1.87185449e-02	2.74658694e-04
2.48500000e-01	1.86537798e-02	2.73582965e-04
2.49000000e-01	1.85803224e-02	2.72466794e-04
2.49500000e-01	1.87790196e-02	2.74652113e-04
2.50000000e-01	1.85221505e-02	2.70032951e-04
2.50500000e-01	1.83791025e-02	2.69593257e-04
2.51000000e-01	1.86702670e-02	2.71612837e-04
2.51500000e-01	1.84665654e-02	2.70106789e-04
2.52000000e-01	1.87020334e-02	2.71562837e-04
2.52500000e-01	1.85269830e-02	2.69703259e-04
2.53000000e-01	1.83876138e-02	2.67150417e-04
2.53500000e-01	1.84602086e-02	2.67345288e-04
2.54000000e-01	1.84972239e-02	2.69088085e-04
2.54500000e-01	1.84890231e-02	2.68021261e-04
2.55000000e-01	1.83020707e-02	2.65126520e-04
2.55500000e-01	1.82157481e-02	2.63795713e-04
2.56000000e-01	1.83999272e-02	2.65994026e-04
2.56500000e-01	1.84280647e-02	2.65445655e-04
2.57000000e-01	1.84485128e-02	2.65158158e-04
2.57500000e-01	1.84137259e-02	2.64882409e-04
2.58000000e-01	1.84351813e-02	2.65221697e-04
2.58500000e-01	1.84601365e-02	2.64335850e-04
2.59000000e-01	1.85870097e-02	2.66568671e-04
2.59500000e-01	1.84584707e-02	2.64634426e-04
2.60000000e-01	1.81795887e-02	2.61560870e-04
2.60500000e-01	1.84707580e-02	2.64133374e-04
2.61000000e-01	1.82770654e-02	2.60861734e-04
2.61500000e-01	1.82946638e-02	2.60861908e-04
2.62000000e-01	1.83003700e-02	2.61329442e-04
2.62500000e-01	1.82167736e-02	2.60397457e-04
2.63000000e-01	1.82203224e-02	2.58939694e-04
2.63500000e-01	1.83571912e-02	2.61093741e-04
2.64000000e-01	1.83872244e-02	2.61307942e-04
2.64500000e-01	1.83879814e-02	2.60132628e-04
2.65000000e-01	1.82438841e-02	2.58686624e-04
2.65500000e-01	1.81824461e-02	2.58175189e-04
2.66000000e-01	1.81074664e-02	2.57546397e-04
2.66500000e-01	1.83398107e-02	2.59174803e-04
2.67000000e-01	1.82031727e-02	2.56789779e-04
2.67500000e-01	1.79554894e-02	2.52898876e-04
2.68000000e-01	1.82310959e-02	2.57122268e-04
2.68500000e-01	1.81176519e-02	2.54708913e-04
2.69000000e-01	1.81456135e-02	2.54762680e-04
2.69500000e-01	1.81091914e-02	2.53522645e-04
2.70000000e-01	1.80853529e-02	2.53874425e-04
2.70500000e-01	1.80854434e-02	2.52693375e-04
2.71000000e-01	1.80053926e-02	2.52606944e-04
2.71500000e-01	1.82230422e-02	2.54429994e-04
2.72000000e-01	1.81808140e-02	2.53378781e-04
2.72500000e-01	1.81784466e-02	2.53284531e-04
2.73000000e-01	1.80586347e-02	2.51251875e-04
2.73500000e-01	1.82081609e-02	2.53764943e-04
2.74000000e-01	1.81531134e-02	2.51712989e-04
2.74500000e-01	1.81411320e-02	2.52371387e-04
2.75000000e-01	1.78738427e-02	2.47992247e-04
2.75500000e-01	1.82939602e-02	2.54587244e-04
2.76000000e-01	1.78500710e-02	2.47260789e-04
2.76500000e-01	1.79854808e-02	2.49748951e-04
2.77000000e-01	1.79731758e-02	2.49246230e-04
2.77500000e-01	1.80682206e-02	2.49321069e-04
2.78000000e-01	1.80610466e-02	2.48215896e-04
2.78500000e-01	1.79665042e-02	2.47123370e-04
2.79000000e-01	1.79061953e-02	2.46744248e-04
2.79500000e-01	1.80118518e-02	2.47254509e-04
2.80000000e-01	1.81228960e-02	2.49959811e-04
2.80500000e-01	1.79480499e-02	2.46914291e-04
2.81000000e-01	1.79494319e-02	2.46720459e-04
2.81500000e-01	1.80993278e-02	2.47582425e-04
2.82000000e-01	1.78692828e-02	2.45447990e-04
2.82500000e-01	1.81556955e-02	2.48814097e-04
2.83000000e-01	1.81199097e-02	2.47843602e-04
2.83500000e-01	1.79681568e-02	2.46166256e-04
2.84000000e-01	1.79505619e-02	2.45327680e-04
2.84500000e-01	1.77891638e-02	2.43350604e-04
2.85000000e-01	1.78422653e-02	2.43476260e-04
2.85500000e-01	1.78235813e-02	2.42859864e-04
2.86000000e-01	1.79426894e-02	2.44447885e-04
2.86500000e-01	1.78025071e-02	2.42487322e-04
2.87000000e-01	1.77849682e-02	2.42153059e-04
2.87500000e-01	1.78061779e-02	2.41231839e-04
2.88000000e-01	1.77712473e-02	2.41136375e-04
2.88500000e-01	1.78115249e-02	2.40992838e-04
2.89000000e-01	1.77548735e-02	2.40549189e-04
2.89500000e-01	1.77509593e-02	2.41151507e-04
2.90000000e-01	1.74933385e-02	2.36310318e-04
2.90500000e-01	1.78096678e-02	2.40580490e-04
2.91000000e-01	1.78629648e-02	2.41070384e-04
2.91500000e-01	1.77948661e-02	2.38874760e-04
2.92000000e-01	1.76907338e-02	2.38566890e-04
2.92500000e-01	1.77548908e-02	2.39120729e-04
2.93000000e-01	1.77340773e-02	2.37798703e-04
2.93500000e-01	1.78853912e-02	2.39888936e-04
2.94000000e-01	1.76570347e-02	2.36933187e-04
2.94500000e-01	1.76799597e-02	2.38170222e-04
2.95000000e-01	1.76899418e-02	2.36196026e-04
2.95500000e-01	1.77676445e-02	2.38307061e-04
2.96000000e-01	1.76022386e-02	2.35514864e-04
2.96500000e-01	1.77292151e-02	2.37029240e-04
2.97000000e-01	1.76001420e-02	2.35693171e-04
2.97500000e-01	1.78016312e-02	2.36802982e-04
2.98000000e-01	1.76979368e-02	2.36346198e-04
2.98500000e-01	1.75670617e-02	2.34416687e-04
2.99000000e-01	1.75347189e-02	2.33482293e-04
2.99500000e-01	1.74510646e-02	2.32142680e-04
3.00000000e-01	1.76170635e-02	2.33474961e-04
3.00500000e-01	1.76608359e-02	2.34810023e-04
3.01000000e-01	1.75216495e-02	2.32318885e-04
3.01500000e-01	1.75430191e-02	2.33446293e-04
3.02000000e-01	1.75546863e-02	2.32857499e-04
3.02500000e-01	1.75274662e-02	2.32070152e-04
3.03000000e-01	1.75262174e-02	2.32048475e-04
3.03500000e-01	1.76792538e-02	2.32242885e-04
3.04000000e-01	1.74608441e-02	2.31459298e-04
3.04500000e-01	1.75011274e-02	2.30618270e-04
3.05000000e-01	1.76558961e-02	2.33442678e-04
3.05500000e-01	1.74290458e-02	2.30580362e-04
3.06000000e-01	1.74163010e-02	2.28902512e-04
3.06500000e-01	1.76148365e-02	2.31996330e-04
3.07000000e-01	1.73544137e-02	2.27986726e-04
3.07500000e-01	1.75593566e-02	2.30142026e-04
3.08000000e-01	1.73653495e-02	2.27521159e-04
3.08500000e-01	1.75360201e-02	2.29355712e-04
3.09000000e-01	1.73932246e-02	2.28250676e-04
3.09500000e-01	1.75010699e-02	2.29125559e-04
3.10000000e-01	1.74687337e-02	2.29239080e-04
3.10500000e-01	1.74541428e-02	2.28829651e-04
3.11000000e-01	1.74939272e-02	2.28053536e-04
3.11500000e-01	1.74713263e-02	2.28352147e-04
3.12000000e-01	1.73440483e-02	2.25837296e-04
3.12500000e-01	1.73582135e-02	2.26433325e-04
3.13000000e-01	1.75055649e-02	2.28192476e-04
3.13500000e-01	1.72135814e-02	2.24276718e-04
3.14000000e-01	1.75162723e-02	2.27222343e-04
3.14500000e-01	1.72532936e-02	2.24193298e-04
3.15000000e-01	1.72410285e-02	2.24163926e-04
3.15500000e-01	1.73241780e-02	2.25340265e-04
3.16000000e-01	1.74337354e-02	2.25878548e-04
3.16500000e-01	1.70914266e-02	2.21864112e-04
3.17000000e-01	1.72133404e-02	2.22749943e-04
3.17500000e-01	1.73635425e-02	2.24599147e-04
3.18000000e-01	1.71818125e-02	2.21743004e-04
3.18500000e-01	1.72654745e-02	2.22882989e-04
3.19000000e-01	1.72595544e-02	2.22346803e-04
3.19500000e-01	1.72811846e-02	2.21884156e-04
3.20000000e-01	1.71510559e-02	2.21642405e-04
3.20500000e-01	1.75232746e-02	2.25182484e-04
3.21000000e-01	1.73049660e-02	2.22312318e-04
3.21500000e-01	1.73072884e-02	2.22258748e-04
3.22000000e-01	1.70529742e-02	2.19824369e-04
3.22500000e-01	1.69954379e-02	2.17936240e-04
3.23000000e-01	1.71177970e-02	2.19795064e-04
3.23500000e-01	1.70917945e-02	2.19718792e-04
3.24000000e-01	1.72949566e-02	2.20963207e-04
3.24500000e-01	1.71477299e-02	2.20541169e-04
3.25000000e-01	1.71234686e-02	2.18975381e-04
3.25500000e-01	1.71445678e-02	2.18891530e-04
3.26000000e-01	1.70828310e-02	2.17880624e-04
3.26500000e-01	1.70806125e-02	2.17482986e-04
3.27000000e-01	1.72706014e-02	2.20346841e-04
3.27500000e-01	1.70164065e-02	2.17299976e-04
3.28000000e-01	1.69227230e-02	2.15608689e-04
3.28500000e-01	1.70033930e-02	2.16153316e-04
3.29000000e-01	1.70026176e-02	2.16190832e-04
3.29500000e-01	1.70535126e-02	2.16802241e-04
3.30000000e-01	1.72302865e-02	2.19506062e-04
3.30500000e-01	1.72485516e-02	2.18990294e-04
3.31000000e-01	1.69054989e-02	2.14270422e-04
3.31500000e-01	1.69027407e-02	2.14322732e-04
3.32000000e-01	1.69257926e-02	2.14065175e-04
3.32500000e-01	1.69090293e-02	2.13818591e-04
3.33000000e-01	1.67926223e-02	2.12971090e-04
3.33500000e-01	1.69776791e-02	2.14465534e-04
3.34000000e-01	1.67779711e-02	2.12546721e-04
3.34500000e-01	1.69468810e-02	2.14701703e-04
3.35000000e-01	1.70628031e-02	2.14549465e-04
3.35500000e-01	1.68628244e-02	2.12981867e-04
3.36000000e-01	1.70533855e-02	2.14177686e-04
3.36500000e-01	1.69554745e-02	2.14392723e-04
3.37000000e-01	1.67514496e-02	2.10993431e-04
3.37500000e-01	1.66757268e-02	2.09936862e-04
3.38000000e-01	1.68712877e-02	2.11858395e-04
3.38500000e-01	1.68087807e-02	2.10670369e-04
3.39000000e-01	1.69682190e-02	2.13054913e-04
3.39500000e-01	1.70051283e-02	2.13195257e-04
3.40000000e-01	1.69965535e-02	2.12232973e-04
3.40500000e-01	1.67274784e-02	2.09753769e-04
3.41000000e-01	1.69169697e-02	2.10623248e-04
3.41500000e-01	1.67974581e-02	2.11086533e-04
3.42000000e-01	1.68096940e-02	2.09326742e-04
3.42500000e-01	1.67488819e-02	2.09548138e-04
3.43000000e-01	1.68184538e-02	2.10148983e-04
3.43500000e-01	1.68475651e-02	2.08911204e-04
3.44000000e-01	1.68323340e-02	2.09716664e-04
3.44500000e-01	1.68282764e-02	2.09040155e-04
3.45000000e-01	1.67047334e-02	2.08256615e-04
3.45500000e-01	1.66787752e-02	2.06801566e-04
3.46000000e-01	1.67638159e-02	2.08830456e-04
3.46500000e-01	1.68611772e-02	2.08334849e-04
3.47000000e-01	1.67247659e-02	2.06716487e-04
3.47500000e-01	1.66563943e-02	2.05732027e-04
3.48000000e-01	1.67755591e-02	2.07549199e-04
3.48500000e-01	1.67439269e-02	2.07609347e-04
3.49000000e-01	1.65507031e-02	2.04305450e-04
3.49500000e-01	1.66712467e-02	2.06346794e-04
3.50000000e-01	1.65431710e-02	1.66824429e-04
3.51000000e-01	1.67084667e-02	1.45319848e-04
3.52000000e-01	1.66161411e-02	1.44871445e-04
3.53000000e-01	1.66305461e-02	1.44336969e-04
3.54000000e-01	1.65860500e-02	1.43662268e-04
3.55000000e-01	1.66184459e-02	1.44083844e-04
3.56000000e-01	1.65892573e-02	1.44359301e-04
3.57000000e-01	1.66061844e-02	1.47284293e-04
3.58000000e-01	1.65228833e-02	1.47590057e-04
3.59000000e-01	1.64786352e-02	1.48212411e-04
3.60000000e-01	1.63818712e-02	1.48901350e-04
3.61000000e-01	1.64463580e-02	1.49803428e-04
3.62000000e-01	1.63503217e-02	1.49291754e-04
3.63000000e-01	1.63923467e-02	1.50734839e-04
3.64000000e-01	1.64850203e-02	1.51743259e-04
3.65000000e-01	1.64283358e-02	1.51636573e-04
3.66000000e-01	1.62734140e-02	1.48988472e-04
3.67000000e-01	1.64007965e-02	1.47523695e-04
3.68000000e-01	1.64344798e-02	1.46349349e-04
3.69000000e-01	1.63065567e-02	1.45555953e-04
3.70000000e-01	1.62440187e-02	1.43617769e-04
3.71000000e-01	1.63293950e-02	1.46491249e-04
3.72000000e-01	1.64374749e-02	1.48189262e-04
3.73000000e-01	1.61982392e-02	1.46602165e-04
3.74000000e-01	1.63182475e-02	1.47299051e-04
3.75000000e-01	1.62199376e-02	1.46796508e-04
3.76000000e-01	1.63127227e-02	1.48114947e-04
3.77000000e-01	1.61494403e-02	1.46776671e-04
3.78000000e-01	1.62745040e-02	1.47642682e-04
3.79000000e-01	1.61027362e-02	1.45877350e-04
3.80000000e-01	1.61402917e-02	1.45609646e-04
3.81000000e-01	1.61131218e-02	1.45575877e-04
3.82000000e-01	1.60823888e-02	1.45628150e-04
3.83000000e-01	1.60622508e-02	1.45191706e-04
3.84000000e-01	1.60492312e-02	1.45284492e-04
3.85000000e-01	1.61800469e-02	1.46041755e-04
3.86000000e-01	1.60439564e-02	1.44718859e-04
3.87000000e-01	1.60180960e-02	1.45080915e-04
3.88000000e-01	1.60117523e-02	1.44637951e-04
3.89000000e-01	1.60361793e-02	1.44544295e-04
3.90000000e-01	1.59430811e-02	1.43788773e-04
3.91000000e-01	1.60182875e-02	1.44655850e-04
3.92000000e-01	1.60103902e-02	1.44155087e-04
3.93000000e-01	1.59806536e-02	1.44272468e-04
3.94000000e-01	1.59110879e-02	1.43133476e-04
3.95000000e-01	1.59346032e-02	1.43671755e-04
3.96000000e-01	1.58150190e-02	1.42916096e-04
3.97000000e-01	1.59701502e-02	1.44100977e-04
3.98000000e-01	1.59468619e-02	1.43669659e-04
3.99000000e-01	1.58336559e-02	1.42955703e-04
4.00000000e-01	1.58707336e-02	1.43203582e-04
4.01000000e-01	1.59331862e-02	1.43502742e-04
4.02000000e-01	1.58596081e-02	1.42779718e-04
4.03000000e-01	1.58126290e-02	1.42851788e-04
4.04000000e-01	1.57382428e-02	1.42135899e-04
4.05000000e-01	1.58460545e-02	1.42553877e-04
4.06000000e-01	1.57845250e-02	1.42206959e-04
4.07000000e-01	1.58598710e-02	1.42796464e-04
4.08000000e-01	1.57989955e-02	1.42274046e-04
4.09000000e-01	1.57623060e-02	1.41952807e-04
4.10000000e-01	1.57357272e-02	1.41791975e-04
4.11000000e-01	1.56567757e-02	1.40826707e-04
4.12000000e-01	1.56852244e-02	1.41123865e-04
4.13000000e-01	1.56255730e-02	1.40362547e-04
4.14000000e-01	1.56966151e-02	1.41084774e-04
4.15000000e-01	1.56939599e-02	1.40865349e-04
4.16000000e-01	1.56025728e-02	1.40450077e-04
4.17000000e-01	1.56888044e-02	1.40482358e-04
4.18000000e-01	1.56035646e-02	1.41767179e-04
4.19000000e-01	1.56588723e-02	1.43791458e-04
4.20000000e-01	1.57236766e-02	1.45297035e-04
4.21000000e-01	1.55854711e-02	1.44484509e-04
4.22000000e-01	1.55641027e-02	1.45070490e-04
4.23000000e-01	1.57032816e-02	1.46830991e-04
4.24000000e-01	1.55395913e-02	1.45438536e-04
4.25000000e-01	1.56507029e-02	1.46919079e-04
4.26000000e-01	1.57137459e-02	1.46917986e-04
4.27000000e-01	1.56504616e-02	1.46868615e-04
4.28000000e-01	1.57029870e-02	1.47423851e-04
4.29000000e-01	1.56262367e-02	1.46995919e-04
4.30000000e-01	1.55275980e-02	1.45995698e-04
4.31000000e-01	1.55723073e-02	1.46003432e-04
4.32000000e-01	1.54673726e-02	1.45478065e-04
4.33000000e-01	1.55976232e-02	1.46702551e-04
4.34000000e-01	1.55348923e-02	1.46493041e-04
4.35000000e-01	1.54876155e-02	1.45828872e-04
4.36000000e-01	1.54273641e-02	1.45822763e-04
4.37000000e-01	1.55420786e-02	1.46676919e-04
4.38000000e-01	1.54586661e-02	1.46521588e-04
4.39000000e-01	1.55303826e-02	1.47442460e-04
4.40000000e-01	1.53981673e-02	1.46133367e-04
4.41000000e-01	1.55031157e-02	1.46971355e-04
4.42000000e-01	1.53796949e-02	1.46518220e-04
4.43000000e-01	1.53826912e-02	1.46482712e-04
4.44000000e-01	1.54016298e-02	1.47186854e-04
4.45000000e-01	1.55618201e-02	1.48749970e-04
4.46000000e-01	1.54708217e-02	1.47614731e-04
4.47000000e-01	1.54876481e-02	1.48033363e-04
4.48000000e-01	1.52525365e-02	1.46511718e-04
4.49000000e-01	1.54321817e-02	1.48072539e-04
4.50000000e-01	1.53503711e-02	1.47718541e-04
4.51000000e-01	1.51745541e-02	1.45956760e-04
4.52000000e-01	1.53724794e-02	1.48099178e-04
4.53000000e-01	1.53814059e-02	1.48357542e-04
4.54000000e-01	1.52806836e-02	1.47219507e-04
4.55000000e-01	1.53685693e-02	1.48166808e-04
4.56000000e-01	1.53048007e-02	1.47951928e-04
4.57000000e-01	1.54173724e-02	1.48982973e-04
4.58000000e-01	1.52451231e-02	1.47214284e-04
4.59000000e-01	1.51635796e-02	1.46910562e-04
4.60000000e-01	1.52490274e-02	1.47620916e-04
4.61000000e-01	1.52996859e-02	1.48475058e-04
4.62000000e-01	1.52918556e-02	1.48281383e-04
4.63000000e-01	1.51993798e-02	1.47660271e-04
4.64000000e-01	1.53502555e-02	1.49236266e-04
4.65000000e-01	1.52605754e-02	1.48554126e-04
4.66000000e-01	1.52333079e-02	1.48336207e-04
4.67000000e-01	1.52279251e-02	1.48564660e-04
4.68000000e-01	1.50594306e-02	1.46688956e-04
4.69000000e-01	1.53454161e-02	1.49201885e-04
4.70000000e-01	1.52239427e-02	1.48634742e-04
4.71000000e-01	1.51931892e-02	1.48051470e-04
4.72000000e-01	1.51780976e-02	1.47747443e-04
4.73000000e-01	1.51821304e-02	1.47755900e-04
4.74000000e-01	1.51505115e-02	1.47558964e-04
4.75000000e-01	1.50437580e-02	1.46729680e-04
4.76000000e-01	1.51795138e-02	1.48068277e-04
4.77000000e-01	1.50341070e-02	1.46718184e-04
4.78000000e-01	1.50719970e-02	1.46941600e-04
4.79000000e-01	1.50728763e-02	1.47327634e-04
4.80000000e-01	1.51321499e-02	1.47942548e-04
4.81000000e-01	1.51340746e-02	1.48055607e-04
4.82000000e-01	1.49681485e-02	1.46438760e-04
4.83000000e-01	1.48867638e-02	1.45983158e-04
4.84000000e-01	1.49543581e-02	1.46597220e-04
4.85000000e-01	1.49782779e-02	1.46877064e-04
4.86000000e-01	1.49155358e-02	1.46558394e-04
4.87000000e-01	1.50194917e-02	1.46856205e-04
4.88000000e-01	1.51218100e-02	1.47841919e-04
4.89000000e-01	1.50094468e-02	1.47382037e-04
4.90000000e-01	1.48635890e-02	1.46381421e-04
4.91000000e-01	1.50516594e-02	1.47604419e-04
4.92000000e-01	1.51017606e-02	1.48521870e-04
4.93000000e-01	1.49199542e-02	1.46738670e-04
4.94000000e-01	1.49350763e-02	1.46959713e-04
4.95000000e-01	1.50249521e-02	1.49247049e-04
4.96000000e-01	1.49634000e-02	1.52822127e-04
4.97000000e-01	1.49043820e-02	1.54955248e-04
4.98000000e-01	1.50399710e-02	1.58268671e-04
4.99000000e-01	1.50378126e-02	1.60634173e-04
5.00000000e-01	1.48597629e-02	1.60195506e-04
5.01000000e-01	1.48476112e-02	1.61412349e-04
5.02000000e-01	1.49092107e-02	1.64468388e-04
5.03000000e-01	1.48998087e-02	1.65345965e-04
5.04000000e-01	1.49410676e-02	1.67330533e-04
5.05000000e-01	1.48814163e-02	1.63821227e-04
5.06000000e-01	1.48742593e-02	1.60403091e-04
5.07000000e-01	1.49833691e-02	1.59647858e-04
5.08000000e-01	1.47956158e-02	1.57243739e-04
5.09000000e-01	1.49496901e-02	1.57710868e-04
5.10000000e-01	1.49504963e-02	1.57358887e-04
5.11000000e-01	1.47828386e-02	1.55778987e-04
5.12000000e-01	1.48711666e-02	1.55989563e-04
5.13000000e-01	1.48837288e-02	1.55711130e-04
5.14000000e-01	1.47721126e-02	1.54207923e-04
5.15000000e-01	1.48256706e-02	1.53814955e-04
5.16000000e-01	1.48006738e-02	1.54146696e-04
5.17000000e-01	1.47746426e-02	1.53166803e-04
5.18000000e-01	1.47536271e-02	1.53069681e-04
5.19000000e-01	1.46485256e-02	1.51758305e-04
5.20000000e-01	1.46888367e-02	1.51219537e-04
5.21000000e-01	1.47230522e-02	1.51307721e-04
5.22000000e-01	1.47440939e-02	1.51804072e-04
5.23000000e-01	1.47025326e-02	1.51008020e-04
5.24000000e-01	1.47555835e-02	1.52198071e-04
5.25000000e-01	1.46070898e-02	1.49910970e-04
5.26000000e-01	1.47231948e-02	1.50969952e-04
5.27000000e-01	1.46818956e-02	1.50604968e-04
5.28000000e-01	1.47686191e-02	1.52208721e-04
5.29000000e-01	1.45949700e-02	1.49918178e-04
5.30000000e-01	1.46192942e-02	1.50677611e-04
5.31000000e-01	1.47957212e-02	1.51981195e-04
5.32000000e-01	1.46922563e-02	1.50986253e-04
5.33000000e-01	1.45734548e-02	1.49706562e-04
5.34000000e-01	1.46313797e-02	1.50179627e-04
5.35000000e-01	1.45732484e-02	1.50011338e-04
5.36000000e-01	1.46330383e-02	1.50217349e-04
5.37000000e-01	1.45547940e-02	1.49996233e-04
5.38000000e-01	1.46247584e-02	1.49899460e-04
5.39000000e-01	1.45213518e-02	1.49135459e-04
5.40000000e-01	1.45066724e-02	1.48927850e-04
5.41000000e-01	1.46333131e-02	1.50543572e-04
5.42000000e-01	1.46065593e-02	1.50458555e-04
5.43000000e-01	1.45235061e-02	1.48770351e-04
5.44000000e-01	1.47173151e-02	1.51058012e-04
5.45000000e-01	1.45531159e-02	1.49678716e-04
5.46000000e-01	1.44923233e-02	1.48957368e-04
5.47000000e-01	1.45259797e-02	1.49524990e-04
5.48000000e-01	1.44791919e-02	1.48073294e-04
5.49000000e-01	1.44865286e-02	1.48790521e-04
5.50000000e-01	1.44822587e-02	1.48238873e-04
5.51000000e-01	1.44158422e-02	1.48013178e-04
5.52000000e-01	1.44926012e-02	1.48052088e-04
5.53000000e-01	1.44229028e-02	1.47416350e-04
5.54000000e-01	1.43292006e-02	1.46451625e-04
5.55000000e-01	1.45080269e-02	1.48291947e-04
5.56000000e-01	1.44504317e-02	1.47062129e-04
5.57000000e-01	1.44573877e-02	1.47533323e-04
5.58000000e-01	1.44607064e-02	1.47695834e-04
5.59000000e-01	1.43576331e-02	1.46636793e-04
5.60000000e-01	1.44367258e-02	1.47260030e-04
5.61000000e-01	1.43412997e-02	1.46580904e-04
5.62000000e-01	1.44250993e-02	1.47618260e-04
5.63000000e-01	1.43958415e-02	1.47611259e-04
5.64000000e-01	1.42710520e-02	1.45813269e-04
5.65000000e-01	1.43506941e-02	1.46683640e-04
5.66000000e-01	1.43036214e-02	1.46174500e-04
5.67000000e-01	1.44062223e-02	1.47421375e-04
5.68000000e-01	1.44001655e-02	1.47242943e-04
5.69000000e-01	1.43783277e-02	1.46527717e-04
5.70000000e-01	1.43027138e-02	1.45855627e-04
5.71000000e-01	1.43782773e-02	1.46609495e-04
5.72000000e-01	1.43973439e-02	1.46885256e-04
5.73000000e-01	1.43467641e-02	1.46489324e-04
5.74000000e-01	1.42841452e-02	1.45671714e-04
5.75000000e-01	1.42209485e-02	1.45850390e-04
5.76000000e-01	1.43484585e-02	1.46754237e-04
5.77000000e-01	1.42977290e-02	1.45939707e-04
5.78000000e-01	1.41751343e-02	1.45216801e-04
5.79000000e-01	1.40903111e-02	1.44399616e-04
5.80000000e-01	1.40854454e-02	1.44562493e-04
5.81000000e-01	1.40595521e-02	1.44041599e-04
5.82000000e-01	1.42129530e-02	1.45609363e-04
5.83000000e-01	1.41265516e-02	1.44776714e-04
5.84000000e-01	1.41056829e-02	1.44467438e-04
5.85000000e-01	1.40461735e-02	1.44137808e-04
5.86000000e-01	1.40976428e-02	1.44748704e-04
5.87000000e-01	1.40260002e-02	1.44247264e-04
5.88000000e-01	1.42859560e-02	1.46050610e-04
5.89000000e-01	1.41109021e-02	1.44722761e-04
5.90000000e-01	1.39642687e-02	1.43398772e-04
5.91000000e-01	1.40960827e-02	1.44436282e-04
5.92000000e-01	1.41039014e-02	1.44632724e-04
5.93000000e-01	1.38272336e-02	1.42610081e-04
5.94000000e-01	1.39703722e-02	1.43830153e-04
5.95000000e-01	1.39225688e-02	1.43348105e-04
5.96000000e-01	1.39383966e-02	1.43481066e-04
5.97000000e-01	1.42112136e-02	1.45497415e-04
5.98000000e-01	1.40691002e-02	1.44805173e-04
5.99000000e-01	1.39441856e-02	1.43193647e-04
6.00000000e-01	1.41107737e-02	1.44843506e-04
6.01000000e-01	1.39524155e-02	1.44037649e-04
6.02000000e-01	1.40502798e-02	1.44136509e-04
6.03000000e-01	1.40031667e-02	1.44042541e-04
6.04000000e-01	1.38992348e-02	1.43143983e-04
6.05000000e-01	1.40195670e-02	1.44202576e-04
6.06000000e-01	1.38322909e-02	1.42980211e-04
6.07000000e-01	1.40468494e-02	1.44370181e-04
6.08000000e-01	1.39965185e-02	1.44436906e-04
6.09000000e-01	1.39460372e-02	1.43818383e-04
6.10000000e-01	1.40101046e-02	1.44008050e-04
6.11000000e-01	1.39136624e-02	1.43581227e-04
6.12000000e-01	1.39276750e-02	1.43171191e-04
6.13000000e-01	1.39442552e-02	1.43815264e-04
6.14000000e-01	1.38248076e-02	1.42432749e-04
6.15000000e-01	1.40183443e-02	1.44207112e-04
6.16000000e-01	1.40451787e-02	1.44474730e-04
6.17000000e-01	1.38885233e-02	1.43608137e-04
6.18000000e-01	1.38830838e-02	1.42979011e-04
6.19000000e-01	1.38354786e-02	1.42311784e-04
6.20000000e-01	1.38926049e-02	1.42680166e-04
6.21000000e-01	1.38824274e-02	1.42564099e-04
6.22000000e-01	1.38610089e-02	1.41989678e-04
6.23000000e-01	1.39847885e-02	1.43173511e-04
6.24000000e-01	1.37860341e-02	1.41092800e-04
6.25000000e-01	1.38573279e-02	1.41942001e-04
6.26000000e-01	1.37665757e-02	1.40934337e-04
6.27000000e-01	1.38106589e-02	1.41147036e-04
6.28000000e-01	1.37356419e-02	1.40555820e-04
6.29000000e-01	1.38328381e-02	1.41529587e-04
6.30000000e-01	1.37030160e-02	1.40817980e-04
6.31000000e-01	1.38649449e-02	1.42023984e-04
6.32000000e-01	1.37433943e-02	1.40837030e-04
6.33000000e-01	1.38899380e-02	1.42707673e-04
6.34000000e-01	1.37615117e-02	1.44555682e-04
6.35000000e-01	1.38589971e-02	1.49810226e-04
6.36000000e-01	1.39005609e-02	1.52376168e-04
6.37000000e-01	1.38373402e-02	1.54693879e-04
6.38000000e-01	1.38688136e-02	1.57246111e-04
6.39000000e-01	1.38506254e-02	1.58804835e-04
6.40000000e-01	1.36733368e-02	1.58490014e-04
6.41000000e-01	1.36908794e-02	1.60906759e-04
6.42000000e-01	1.38926595e-02	1.64709204e-04
6.43000000e-01	1.38115719e-02	1.64197816e-04
6.44000000e-01	1.38301366e-02	1.58162374e-04
6.45000000e-01	1.37425736e-02	1.55019711e-04
6.46000000e-01	1.38858036e-02	1.55080414e-04
6.47000000e-01	1.38132201e-02	1.53310375e-04
6.48000000e-01	1.36622944e-02	1.50845647e-04
6.49000000e-01	1.37153647e-02	1.50189779e-04
6.50000000e-01	1.37370361e-02	1.49451306e-04
6.51000000e-01	1.37544669e-02	1.49755500e-04
6.52000000e-01	1.38234093e-02	1.49799714e-04
6.53000000e-01	1.37082252e-02	1.47733026e-04
6.54000000e-01	1.36556562e-02	1.46817375e-04
6.55000000e-01	1.36163540e-02	1.46493092e-04
6.56000000e-01	1.38103725e-02	1.47535180e-04
6.57000000e-01	1.38540540e-02	1.47557104e-04
6.58000000e-01	1.38356162e-02	1.47304370e-04
6.59000000e-01	1.37107324e-02	1.46535441e-04
6.60000000e-01	1.37490771e-02	1.46417591e-04
6.61000000e-01	1.38847843e-02	1.47705857e-04
6.62000000e-01	1.36465714e-02	1.45195866e-04
6.63000000e-01	1.35280029e-02	1.44859098e-04
6.64000000e-01	1.36399437e-02	1.45318021e-04
6.65000000e-01	1.36310636e-02	1.45390652e-04
6.66000000e-01	1.37051067e-02	1.45680612e-04
6.67000000e-01	1.36362656e-02	1.45033116e-04
6.68000000e-01	1.36774197e-02	1.45214393e-04
6.69000000e-01	1.36067259e-02	1.44708727e-04
6.70000000e-01	1.36605703e-02	1.45226617e-04
6.71000000e-01	1.36597187e-02	1.44891679e-04
6.72000000e-01	1.36608975e-02	1.45056036e-04
6.73000000e-01	1.36367581e-02	1.44511626e-04
6.74000000e-01	1.36857043e-02	1.45390296e-04
6.75000000e-01	1.37175297e-02	1.45540469e-04
6.76000000e-01	1.35606618e-02	1.43827023e-04
6.77000000e-01	1.35332501e-02	1.43518153e-04
6.78000000e-01	1.35166903e-02	1.43248681e-04
6.79000000e-01	1.35684333e-02	1.43855281e-04
6.80000000e-01	1.34562332e-02	1.42309629e-04
6.81000000e-01	1.35246720e-02	1.43413062e-04
6.82000000e-01	1.35143268e-02	1.42937244e-04
6.83000000e-01	1.34907122e-02	1.42617514e-04
6.84000000e-01	1.36060114e-02	1.44046725e-04
6.85000000e-01	1.34927789e-02	1.43125745e-04
6.86000000e-01	1.35453520e-02	1.43810942e-04
6.87000000e-01	1.35416797e-02	1.43469912e-04
6.88000000e-01	1.35013860e-02	1.43296482e-04
6.89000000e-01	1.34907619e-02	1.42534996e-04
6.90000000e-01	1.34139621e-02	1.42227517e-04
6.91000000e-01	1.35976815e-02	1.43505915e-04
6.92000000e-01	1.34989301e-02	1.42587411e-04
6.93000000e-01	1.34018155e-02	1.41666549e-04
6.94000000e-01	1.34446717e-02	1.42414871e-04
6.95000000e-01	1.34294882e-02	1.42065112e-04
6.96000000e-01	1.34114906e-02	1.42014489e-04
6.97000000e-01	1.34868499e-02	1.42443870e-04
6.98000000e-01	1.33983197e-02	1.41694335e-04
6.99000000e-01	1.34702984e-02	1.42472040e-04
7.00000000e-01	1.33879175e-02	1.42114751e-04
7.01000000e-01	1.34038028e-02	1.41651869e-04
7.02000000e-01	1.31719607e-02	1.39738024e-04
7.03000000e-01	1.34764913e-02	1.41672790e-04
7.04000000e-01	1.33046665e-02	1.41116800e-04
7.05000000e-01	1.32574324e-02	1.40550130e-04
7.06000000e-01	1.33085493e-02	1.40448248e-04
7.07000000e-01	1.32799008e-02	1.39843507e-04
7.08000000e-01	1.33178503e-02	1.40423229e-04
7.09000000e-01	1.33921454e-02	1.41150543e-04
7.10000000e-01	1.32133318e-02	1.39051382e-04
7.11000000e-01	1.33341719e-02	1.40879231e-04
7.12000000e-01	1.32465958e-02	1.39842736e-04
7.13000000e-01	1.31791820e-02	1.39136384e-04
7.14000000e-01	1.33248481e-02	1.40726931e-04
7.15000000e-01	1.31580454e-02	1.39255700e-04
7.16000000e-01	1.29962669e-02	1.37808756e-04
7.17000000e-01	1.32015548e-02	1.39595384e-04
7.18000000e-01	1.31508998e-02	1.39140212e-04
7.19000000e-01	1.33076821e-02	1.40107547e-04
7.20000000e-01	1.31519553e-02	1.38798344e-04
7.21000000e-01	1.31260133e-02	1.39049067e-04
7.22000000e-01	1.30686582e-02	1.38091017e-04
7.23000000e-01	1.31120866e-02	1.38854919e-04
7.24000000e-01	1.30924898e-02	1.38511601e-04
7.25000000e-01	1.30588642e-02	1.38267495e-04
7.26000000e-01	1.29858538e-02	1.37591092e-04
7.27000000e-01	1.30362774e-02	1.37539402e-04
7.28000000e-01	1.30358936e-02	1.37941526e-04
7.29000000e-01	1.30468577e-02	1.37671911e-04
7.30000000e-01	1.30257728e-02	1.37783961e-04
7.31000000e-01	1.28811269e-02	1.36210807e-04
7.32000000e-01	1.28074047e-02	1.35857308e-04
7.33000000e-01	1.30351545e-02	1.37914474e-04
7.34000000e-01	1.30001488e-02	1.37464693e-04
7.35000000e-01	1.29950941e-02	1.37233439e-04
7.36000000e-01	1.29634417e-02	1.36701983e-04
7.37000000e-01	1.29654008e-02	1.37156891e-04
7.38000000e-01	1.31116301e-02	1.37189933e-04
7.39000000e-01	1.29957663e-02	1.35768996e-04
7.40000000e-01	1.28674273e-02	1.35078937e-04
7.41000000e-01	1.30695661e-02	1.36767168e-04
7.42000000e-01	1.28464776e-02	1.34984321e-04
7.43000000e-01	1.28404703e-02	1.34313849e-04
7.44000000e-01	1.29446371e-02	1.35420033e-04
7.45000000e-01	1.29835517e-02	1.35582762e-04
7.46000000e-01	1.29035013e-02	1.34964955e-04
7.47000000e-01	1.28117785e-02	1.34146913e-04
7.48000000e-01	1.29828874e-02	1.35940301e-04
7.49000000e-01	1.29146547e-02	1.35226654e-04
7.50000000e-01	1.29259404e-02	1.35418104e-04
7.51000000e-01	1.28932627e-02	1.35011519e-04
7.52000000e-01	1.28415477e-02	1.34858583e-04
7.53000000e-01	1.28150294e-02	1.34630668e-04
7.54000000e-01	1.29273437e-02	1.35221770e-04
7.55000000e-01	1.27896112e-02	1.34373561e-04
7.56000000e-01	1.27797587e-02	1.34014439e-04
7.57000000e-01	1.27323319e-02	1.33661570e-04
7.58000000e-01	1.27792086e-02	1.33776250e-04
7.59000000e-01	1.27339205e-02	1.33134071e-04
7.60000000e-01	1.27542055e-02	1.33247210e-04
7.61000000e-01	1.28574208e-02	1.34247272e-04
7.62000000e-01	1.26978947e-02	1.32673889e-04
7.63000000e-01	1.27904866e-02	1.33301542e-04
7.64000000e-01	1.27542643e-02	1.32306805e-04
7.65000000e-01	1.26623523e-02	1.31780452e-04
7.66000000e-01	1.26559124e-02	1.31555581e-04
7.67000000e-01	1.27988308e-02	1.32939015e-04
7.68000000e-01	1.27065329e-02	1.31853439e-04
7.69000000e-01	1.26326374e-02	1.31266369e-04
7.70000000e-01	1.24539600e-02	1.29699862e-04
7.71000000e-01	1.26172190e-02	1.31460171e-04
7.72000000e-01	1.25020209e-02	1.33946864e-04
7.73000000e-01	1.25107445e-02	1.39048989e-04
7.74000000e-01	1.26637441e-02	1.43365918e-04
7.75000000e-01	1.25410876e-02	1.44323918e-04
7.76000000e-01	1.25701557e-02	1.46927076e-04
7.77000000e-01	1.25301908e-02	1.48604400e-04
7.78000000e-01	1.26636669e-02	1.51644941e-04
7.79000000e-01	1.24879288e-02	1.51814850e-04
7.80000000e-01	1.24517566e-02	1.52952140e-04
7.81000000e-01	1.24695197e-02	1.54595737e-04
7.82000000e-01	1.24249778e-02	1.55984120e-04
7.83000000e-01	1.24954013e-02	1.58678034e-04
7.84000000e-01	1.23900032e-02	1.59047463e-04
7.85000000e-01	1.23341058e-02	1.60424884e-04
7.86000000e-01	1.26318260e-02	1.65162188e-04
7.87000000e-01	1.23574946e-02	1.63629302e-04
7.88000000e-01	1.24820145e-02	1.65979231e-04
7.89000000e-01	1.25130977e-02	1.68736027e-04
7.90000000e-01	1.24415230e-02	1.70371944e-04
7.91000000e-01	1.23522284e-02	1.69990515e-04
7.92000000e-01	1.24558743e-02	1.72849567e-04
7.93000000e-01	1.25693224e-02	1.75776542e-04
7.94000000e-01	1.25229148e-02	1.77216736e-04
7.95000000e-01	1.24055839e-02	1.77249385e-04
7.96000000e-01	1.22120486e-02	1.76720265e-04
7.97000000e-01	1.24881173e-02	1.82520145e-04
7.98000000e-01	1.21814818e-02	1.79796783e-04
7.99000000e-01	1.23203796e-02	1.83904869e-04
8.00000000e-01	1.23632259e-02	1.87185260e-04
8.01000000e-01	1.22644816e-02	1.88168283e-04
8.02000000e-01	1.22260274e-02	1.88620035e-04
8.03000000e-01	1.23323549e-02	1.92529431e-04
8.04000000e-01	1.22330458e-02	1.92036168e-04
8.05000000e-01	1.22121274e-02	1.93566195e-04
8.06000000e-01	1.22091642e-02	1.96900693e-04
8.07000000e-01	1.23304189e-02	1.98755214e-04
8.08000000e-01	1.23177068e-02	2.01641359e-04
8.09000000e-01	1.21990829e-02	2.02391922e-04
8.10000000e-01	1.24845910e-02	2.10583080e-04
8.11000000e-01	1.22371661e-02	2.08340924e-04
8.12000000e-01	1.20857168e-02	2.07599835e-04
8.13000000e-01	1.21492351e-02	2.11435858e-04
8.14000000e-01	1.20152351e-02	2.11829709e-04
8.15000000e-01	1.20709517e-02	2.15524863e-04
8.16000000e-01	1.21201318e-02	2.18197400e-04
8.17000000e-01	1.21903363e-02	2.21141049e-04
8.18000000e-01	1.21347078e-02	2.24836808e-04
8.19000000e-01	1.20694396e-02	2.24917191e-04
8.20000000e-01	1.18058333e-02	2.23415132e-04
8.21000000e-01	1.19111765e-02	2.27908509e-04
8.22000000e-01	1.19468154e-02	2.33637040e-04
8.23000000e-01	1.20845026e-02	2.36582455e-04
8.24000000e-01	1.22088098e-02	2.43629182e-04
8.25000000e-01	1.20383963e-02	2.42861670e-04
8.26000000e-01	1.20925031e-02	2.47798610e-04
8.27000000e-01	1.19318952e-02	2.47894008e-04
8.28000000e-01	1.20009143e-02	2.53443125e-04
8.29000000e-01	1.21005524e-02	2.60139825e-04
8.30000000e-01	1.21294380e-02	2.63191692e-04
8.31000000e-01	1.18405713e-02	2.63132336e-04
8.32000000e-01	1.19126311e-02	2.68758159e-04
8.33000000e-01	1.19124751e-02	2.73484536e-04
8.34000000e-01	1.16811752e-02	2.72930121e-04
8.35000000e-01	1.18727611e-02	2.81309835e-04
8.36000000e-01	1.21330500e-02	2.91283442e-04
8.37000000e-01	1.15704301e-02	2.86774370e-04
8.38000000e-01	1.17913564e-02	2.97824860e-04
8.39000000e-01	1.15734051e-02	2.99635363e-04
8.40000000e-01	1.19417646e-02	3.12750668e-04
8.41000000e-01	1.17847031e-02	3.16920517e-04
8.42000000e-01	1.15881780e-02	3.20524786e-04
8.43000000e-01	1.15956216e-02	3.28236280e-04
8.44000000e-01	1.15516417e-02	3.34405139e-04
8.45000000e-01	1.17878997e-02	3.48626829e-04
8.46000000e-01	1.17989981e-02	3.56201699e-04
8.47000000e-01	1.21384137e-02	3.79337454e-04
8.48000000e-01	1.14897133e-02	3.70373328e-04
8.49000000e-01	1.12782481e-02	3.73990695e-04
8.50000000e-01	1.15472211e-02	3.92559990e-04
8.51000000e-01	1.16677694e-02	4.17007970e-04
8.52000000e-01	1.11650696e-02	4.15087840e-04
8.53000000e-01	1.18127491e-02	4.61601345e-04
8.54000000e-01	1.08763338e-02	4.48040611e-04
8.55000000e-01	1.18383099e-02	4.89569517e-04
8.56000000e-01	1.16822519e-02	5.00893635e-04
8.57000000e-01	1.13865434e-02	4.98958564e-04
8.58000000e-01	1.15373431e-02	5.27490408e-04
8.59000000e-01	1.19895363e-02	5.62846648e-04
8.60000000e-01	1.20560468e-02	5.77767296e-04
8.61000000e-01	1.15854111e-02	5.80254710e-04
8.62000000e-01	1.09053631e-02	5.80634861e-04
8.63000000e-01	1.14200341e-02	6.13885527e-04
8.64000000e-01	1.09871866e-02	6.31030050e-04
8.65000000e-01	1.10926691e-02	6.57078736e-04
8.66000000e-01	1.12526352e-02	7.08829358e-04
8.67000000e-01	1.10794095e-02	7.38654150e-04
8.68000000e-01	1.09412103e-02	7.57740165e-04
8.69000000e-01	1.06758873e-02	8.10885716e-04
8.70000000e-01	1.09730406e-02	9.15228087e-04
8.71000000e-01	1.12646506e-02	1.04572725e-03
8.72000000e-01	1.09635074e-02	1.10409866e-03
8.73000000e-01	1.09178194e-02	1.34797084e-03
8.74000000e-01	1.16961959e-02	1.94646653e-03
8.75000000e-01	1.19820108e-02	4.27929571e-03
