% Filename : SSW20_00038_00014.h5
% Date & Time : 30-Oct-2025 17:43:52
% X-ray Energy (keV) : 13.30001
% Exposure Time (s) : 0.500
% Beam Center : 1461.24000, 208.98300
% Sample to Detector Distance (SDD) (mm) : 1990.750
% Detector Pixel Size (mm) : 0.075
% Photodiode Value : 141592.000
% I0 of Sample : 0
% I0 of Standard : 1
% 
% q(A^-1)   I(q)    I(q)_SE
0.00000000e+00	1.78635303e-02	9.88358235e-03
2.50000000e-04	0.00000000e+00	0.00000000e+00
5.00000000e-04	0.00000000e+00	0.00000000e+00
7.50000000e-04	0.00000000e+00	0.00000000e+00
1.00000000e-03	0.00000000e+00	0.00000000e+00
1.25000000e-03	0.00000000e+00	0.00000000e+00
1.50000000e-03	0.00000000e+00	0.00000000e+00
1.75000000e-03	0.00000000e+00	0.00000000e+00
2.00000000e-03	0.00000000e+00	0.00000000e+00
2.25000000e-03	0.00000000e+00	0.00000000e+00
2.50000000e-03	0.00000000e+00	0.00000000e+00
2.75000000e-03	0.00000000e+00	0.00000000e+00
3.00000000e-03	0.00000000e+00	0.00000000e+00
3.25000000e-03	1.67527554e+03	9.99191045e+02
3.50000000e-03	4.04913423e+02	1.52169353e+02
3.75000000e-03	2.42201666e+02	8.47754428e+01
4.00000000e-03	2.11254761e+02	7.18847751e+01
4.25000000e-03	1.03611475e+02	3.34330414e+01
4.50000000e-03	1.26448957e+02	2.98591230e+01
4.75000000e-03	1.37038406e+02	2.93837081e+01
5.00000000e-03	1.03919630e+02	2.14683569e+01
5.25000000e-03	8.45379282e+01	1.68050175e+01
5.50000000e-03	6.86377633e+01	1.30878051e+01
5.75000000e-03	5.84743079e+01	1.09810602e+01
6.00000000e-03	4.86393204e+01	9.20933693e+00
6.25000000e-03	4.29138457e+01	7.88698594e+00
6.50000000e-03	3.48170923e+01	6.30153225e+00
6.75000000e-03	3.01734343e+01	5.35894079e+00
7.00000000e-03	2.61413868e+01	4.48529221e+00
7.25000000e-03	2.20997897e+01	3.70924615e+00
7.50000000e-03	1.91496579e+01	3.30706820e+00
7.75000000e-03	1.64053911e+01	2.70141019e+00
8.00000000e-03	1.50012743e+01	2.41056744e+00
8.25000000e-03	1.28055372e+01	1.99604876e+00
8.50000000e-03	1.14950932e+01	1.79719793e+00
8.75000000e-03	1.06697738e+01	1.65074961e+00
9.00000000e-03	9.21159682e+00	1.40925114e+00
9.25000000e-03	7.97772750e+00	1.17141525e+00
9.50000000e-03	7.27892832e+00	1.05196552e+00
9.75000000e-03	6.53422257e+00	9.32448264e-01
1.00000000e-02	5.71338975e+00	8.12041324e-01
1.02500000e-02	5.48269391e+00	7.96076365e-01
1.05000000e-02	5.00606680e+00	7.10253889e-01
1.07500000e-02	4.37196231e+00	5.87838092e-01
1.10000000e-02	3.91769317e+00	5.21083547e-01
1.12500000e-02	3.64166790e+00	4.98389268e-01
1.15000000e-02	3.31234808e+00	4.29753441e-01
1.17500000e-02	2.89002328e+00	3.71122328e-01
1.20000000e-02	2.71733519e+00	3.44770764e-01
1.22500000e-02	2.56939785e+00	3.20567726e-01
1.25000000e-02	2.40815701e+00	2.94696658e-01
1.27500000e-02	2.23668192e+00	2.77007499e-01
1.30000000e-02	2.07295406e+00	2.51606222e-01
1.32500000e-02	1.90656718e+00	2.30789447e-01
1.35000000e-02	1.74567083e+00	2.06038713e-01
1.37500000e-02	1.65833116e+00	1.95317161e-01
1.40000000e-02	1.52229512e+00	1.78428946e-01
1.42500000e-02	1.41913502e+00	1.64956823e-01
1.45000000e-02	1.33626362e+00	1.51172641e-01
1.47500000e-02	1.24803126e+00	1.41700939e-01
1.50000000e-02	1.16343958e+00	1.29109550e-01
1.52500000e-02	1.08322050e+00	1.18516529e-01
1.55000000e-02	9.89964439e-01	1.06021071e-01
1.57500000e-02	9.24893876e-01	9.82951883e-02
1.60000000e-02	8.96267843e-01	9.60684411e-02
1.62500000e-02	8.58500896e-01	9.01113004e-02
1.65000000e-02	7.89669160e-01	8.18013866e-02
1.67500000e-02	7.52495705e-01	7.69117051e-02
1.70000000e-02	7.08915971e-01	7.17677568e-02
1.72500000e-02	6.78401052e-01	6.90212613e-02
1.75000000e-02	6.23148623e-01	6.24085083e-02
1.77500000e-02	5.96400736e-01	5.86608489e-02
1.80000000e-02	5.69663253e-01	5.54988793e-02
1.82500000e-02	5.29922868e-01	5.02165747e-02
1.85000000e-02	5.08899842e-01	4.91692626e-02
1.87500000e-02	4.79370243e-01	4.50586643e-02
1.90000000e-02	4.58139432e-01	4.23541027e-02
1.92500000e-02	4.26968689e-01	3.89135131e-02
1.95000000e-02	4.00337344e-01	3.61576182e-02
1.97500000e-02	3.97418573e-01	3.58993251e-02
2.00000000e-02	3.65268457e-01	3.23070226e-02
2.02500000e-02	3.48137795e-01	3.05315352e-02
2.05000000e-02	3.41887160e-01	2.97605659e-02
2.07500000e-02	3.28404312e-01	2.86622347e-02
2.10000000e-02	3.21301636e-01	2.79220716e-02
2.12500000e-02	3.15720254e-01	2.67059367e-02
2.15000000e-02	3.00970300e-01	2.54504310e-02
2.17500000e-02	2.91266479e-01	2.45520784e-02
2.20000000e-02	2.85709776e-01	2.38496699e-02
2.22500000e-02	2.66692211e-01	2.18182064e-02
2.25000000e-02	2.69876125e-01	2.21408768e-02
2.27500000e-02	2.56017833e-01	2.11611620e-02
2.30000000e-02	2.47739383e-01	2.01573522e-02
2.32500000e-02	2.34025993e-01	1.89252327e-02
2.35000000e-02	2.32606785e-01	1.83711386e-02
2.37500000e-02	2.21048396e-01	1.72755705e-02
2.40000000e-02	2.13790334e-01	1.68484483e-02
2.42500000e-02	2.09579360e-01	1.61024632e-02
2.45000000e-02	2.02803307e-01	1.57693178e-02
2.47500000e-02	1.94530461e-01	1.47756330e-02
2.50000000e-02	1.91784958e-01	1.44335743e-02
2.52500000e-02	1.87722867e-01	1.44414120e-02
2.55000000e-02	1.80135638e-01	1.33375398e-02
2.57500000e-02	1.75602283e-01	1.29349751e-02
2.60000000e-02	1.70369363e-01	1.24918714e-02
2.62500000e-02	1.67529382e-01	1.24001523e-02
2.65000000e-02	1.61483757e-01	1.18315094e-02
2.67500000e-02	1.58549786e-01	1.14680098e-02
2.70000000e-02	1.48924651e-01	1.06856783e-02
2.72500000e-02	1.47028648e-01	1.05460374e-02
2.75000000e-02	1.41766914e-01	1.00758309e-02
2.77500000e-02	1.38693259e-01	9.85380481e-03
2.80000000e-02	1.35128680e-01	9.34848790e-03
2.82500000e-02	1.31983469e-01	8.99271222e-03
2.85000000e-02	1.29815536e-01	8.83593230e-03
2.87500000e-02	1.29367471e-01	8.90843766e-03
2.90000000e-02	1.24247116e-01	8.49169306e-03
2.92500000e-02	1.18600317e-01	7.78339876e-03
2.95000000e-02	1.17595895e-01	7.91945104e-03
2.97500000e-02	1.15375831e-01	7.63904180e-03
3.00000000e-02	1.13641813e-01	7.44581882e-03
3.02500000e-02	1.11923864e-01	7.27619777e-03
3.05000000e-02	1.04086296e-01	6.55429521e-03
3.07500000e-02	1.03855817e-01	6.66605943e-03
3.10000000e-02	1.02516057e-01	6.52720315e-03
3.12500000e-02	9.97724672e-02	6.37533875e-03
3.15000000e-02	9.68838006e-02	6.09013751e-03
3.17500000e-02	9.57172385e-02	5.88254109e-03
3.20000000e-02	9.43924477e-02	5.74103118e-03
3.22500000e-02	9.09411755e-02	5.51248605e-03
3.25000000e-02	8.89485542e-02	5.44402319e-03
3.27500000e-02	8.65627380e-02	5.26763846e-03
3.30000000e-02	8.42460807e-02	5.05259474e-03
3.32500000e-02	8.28138554e-02	4.78643466e-03
3.35000000e-02	8.22695951e-02	4.85975251e-03
3.37500000e-02	8.10515800e-02	4.74442042e-03
3.40000000e-02	7.96002340e-02	4.66296774e-03
3.42500000e-02	7.84074135e-02	4.51856373e-03
3.45000000e-02	7.52527821e-02	4.33243327e-03
3.47500000e-02	7.58409421e-02	4.33340340e-03
3.50000000e-02	7.21450996e-02	4.14114823e-03
3.52500000e-02	7.17884629e-02	4.05239781e-03
3.55000000e-02	6.98544520e-02	3.87273046e-03
3.57500000e-02	6.93035784e-02	3.85632576e-03
3.60000000e-02	6.72611040e-02	3.68635574e-03
3.62500000e-02	6.60634690e-02	3.63808750e-03
3.65000000e-02	6.52351836e-02	3.58787712e-03
3.67500000e-02	6.66670449e-02	3.65025313e-03
3.70000000e-02	6.46082643e-02	3.51356752e-03
3.72500000e-02	6.23232465e-02	3.35344218e-03
3.75000000e-02	6.16959466e-02	3.31980339e-03
3.77500000e-02	6.00754411e-02	3.13571463e-03
3.80000000e-02	5.93542913e-02	3.09014952e-03
3.82500000e-02	5.68444198e-02	2.91481382e-03
3.85000000e-02	5.88068563e-02	3.09140421e-03
3.87500000e-02	5.75230784e-02	2.95858040e-03
3.90000000e-02	5.62106621e-02	2.90447158e-03
3.92500000e-02	5.52932337e-02	2.75843574e-03
3.95000000e-02	5.42776129e-02	2.77891241e-03
3.97500000e-02	5.40135959e-02	2.70901753e-03
4.00000000e-02	5.32079224e-02	2.66214058e-03
4.02500000e-02	5.29403045e-02	2.61944290e-03
4.05000000e-02	5.17643664e-02	2.53214779e-03
4.07500000e-02	5.06624588e-02	2.48310076e-03
4.10000000e-02	4.87146113e-02	2.37060920e-03
4.12500000e-02	5.04349308e-02	2.46177206e-03
4.15000000e-02	4.90850135e-02	2.37520233e-03
4.17500000e-02	4.80434234e-02	2.28753064e-03
4.20000000e-02	4.74210894e-02	2.25820873e-03
4.22500000e-02	4.76597922e-02	2.24257336e-03
4.25000000e-02	4.70376719e-02	2.23904937e-03
4.27500000e-02	4.64786465e-02	2.16544803e-03
4.30000000e-02	4.46620335e-02	2.11243349e-03
4.32500000e-02	4.47353676e-02	2.08029368e-03
4.35000000e-02	4.42721874e-02	2.08717084e-03
4.37500000e-02	4.31745730e-02	1.98688815e-03
4.40000000e-02	4.29443121e-02	1.97893399e-03
4.42500000e-02	4.26666809e-02	1.94089928e-03
4.45000000e-02	4.29675760e-02	1.93775710e-03
4.47500000e-02	4.22240967e-02	1.92048508e-03
4.50000000e-02	4.18656242e-02	1.89790837e-03
4.52500000e-02	4.16970009e-02	1.89604514e-03
4.55000000e-02	4.10748842e-02	1.82600309e-03
4.57500000e-02	4.05819417e-02	1.77500825e-03
4.60000000e-02	4.00318157e-02	1.78643153e-03
4.62500000e-02	3.98031422e-02	1.73997432e-03
4.65000000e-02	3.89431727e-02	1.71246537e-03
4.67500000e-02	3.85424578e-02	1.66679429e-03
4.70000000e-02	3.84664951e-02	1.65505413e-03
4.72500000e-02	3.89288303e-02	1.70311311e-03
4.75000000e-02	3.84157661e-02	1.67357833e-03
4.77500000e-02	3.79590723e-02	1.62504344e-03
4.80000000e-02	3.71593621e-02	1.59347111e-03
4.82500000e-02	3.69875436e-02	1.58874523e-03
4.85000000e-02	3.62201107e-02	1.54392477e-03
4.87500000e-02	3.62918487e-02	1.52933852e-03
4.90000000e-02	3.58618918e-02	1.50644456e-03
4.92500000e-02	3.60440604e-02	1.51596599e-03
4.95000000e-02	3.55897290e-02	1.48867175e-03
4.97500000e-02	3.58333991e-02	1.49538982e-03
5.00000000e-02	3.57177444e-02	1.49139554e-03
5.02500000e-02	3.46497055e-02	1.43451857e-03
5.05000000e-02	3.49108377e-02	1.44214070e-03
5.07500000e-02	3.47123076e-02	1.43153878e-03
5.10000000e-02	3.49938352e-02	1.43882297e-03
5.12500000e-02	3.44757113e-02	1.42147906e-03
5.15000000e-02	3.37618006e-02	1.37158373e-03
5.17500000e-02	3.31418340e-02	1.35518648e-03
5.20000000e-02	3.33858815e-02	1.35321738e-03
5.22500000e-02	3.29501727e-02	1.33912983e-03
5.25000000e-02	3.29861530e-02	1.33773058e-03
5.27500000e-02	3.24262311e-02	1.30924812e-03
5.30000000e-02	3.25958335e-02	1.32839574e-03
5.32500000e-02	3.25094284e-02	1.30498155e-03
5.35000000e-02	3.21308874e-02	1.28626298e-03
5.37500000e-02	3.15939510e-02	1.27041575e-03
5.40000000e-02	3.21429541e-02	1.28786198e-03
5.42500000e-02	3.19704473e-02	1.24986776e-03
5.45000000e-02	3.07472243e-02	1.22943463e-03
5.47500000e-02	3.07495996e-02	1.20944042e-03
5.50000000e-02	3.03512532e-02	1.21059383e-03
5.52500000e-02	3.13923945e-02	1.22581761e-03
5.55000000e-02	3.07439581e-02	1.20060477e-03
5.57500000e-02	3.00798099e-02	1.19030291e-03
5.60000000e-02	3.07270568e-02	1.18835181e-03
5.62500000e-02	2.98763519e-02	1.15880672e-03
5.65000000e-02	3.04711593e-02	1.17446798e-03
5.67500000e-02	3.02115520e-02	1.17307510e-03
5.70000000e-02	2.96792582e-02	1.12956526e-03
5.72500000e-02	2.98064083e-02	1.14703443e-03
5.75000000e-02	3.00333103e-02	1.16759784e-03
5.77500000e-02	2.90992220e-02	1.10246966e-03
5.80000000e-02	2.93288545e-02	1.11647866e-03
5.82500000e-02	2.85947390e-02	1.08528082e-03
5.85000000e-02	2.85904127e-02	1.08895996e-03
5.87500000e-02	2.90350715e-02	1.10066024e-03
5.90000000e-02	2.85850276e-02	1.07704422e-03
5.92500000e-02	2.85460506e-02	1.07117299e-03
5.95000000e-02	2.86273456e-02	1.06833165e-03
5.97500000e-02	2.88195998e-02	1.08769126e-03
6.00000000e-02	2.72955060e-02	1.02505942e-03
6.02500000e-02	2.76342929e-02	1.03894726e-03
6.05000000e-02	2.79093164e-02	1.03830998e-03
6.07500000e-02	2.86010940e-02	1.07145575e-03
6.10000000e-02	2.76980330e-02	1.03088150e-03
6.12500000e-02	2.75568114e-02	1.02349582e-03
6.15000000e-02	2.74335867e-02	1.01736322e-03
6.17500000e-02	2.80682970e-02	1.02909463e-03
6.20000000e-02	2.72434253e-02	1.00462127e-03
6.22500000e-02	2.67921936e-02	9.87561421e-04
6.25000000e-02	2.73980032e-02	1.00223216e-03
6.27500000e-02	2.80196970e-02	1.00753588e-03
6.30000000e-02	2.69950303e-02	9.81371035e-04
6.32500000e-02	2.74911145e-02	9.99028153e-04
6.35000000e-02	2.66233135e-02	9.76304155e-04
6.37500000e-02	2.67284174e-02	9.77423379e-04
6.40000000e-02	2.63282230e-02	9.58080739e-04
6.42500000e-02	2.65261849e-02	9.56764870e-04
6.45000000e-02	2.71208509e-02	9.73344756e-04
6.47500000e-02	2.64735977e-02	9.54773123e-04
6.50000000e-02	2.65662655e-02	9.55879196e-04
6.52500000e-02	2.64850530e-02	9.52127017e-04
6.55000000e-02	2.63713895e-02	9.51707205e-04
6.57500000e-02	2.64456902e-02	9.38793423e-04
6.60000000e-02	2.58681746e-02	9.22955195e-04
6.62500000e-02	2.61427826e-02	9.34251421e-04
6.65000000e-02	2.58571854e-02	9.17852274e-04
6.67500000e-02	2.63007505e-02	9.26862181e-04
6.70000000e-02	2.57629561e-02	9.07012666e-04
6.72500000e-02	2.59660124e-02	9.21316483e-04
6.75000000e-02	2.58345478e-02	9.06778733e-04
6.77500000e-02	2.56570073e-02	9.08450273e-04
6.80000000e-02	2.52715821e-02	8.96408852e-04
6.82500000e-02	2.50334098e-02	8.78432332e-04
6.85000000e-02	2.54178633e-02	8.98096821e-04
6.87500000e-02	2.58946139e-02	9.05979790e-04
6.90000000e-02	2.50756128e-02	8.71149615e-04
6.92500000e-02	2.54938680e-02	8.87301792e-04
6.95000000e-02	2.51715730e-02	8.84447114e-04
6.97500000e-02	2.46714396e-02	8.57031424e-04
7.00000000e-02	2.55464696e-02	8.83414629e-04
7.02500000e-02	2.45100903e-02	8.47884615e-04
7.05000000e-02	2.48836157e-02	8.52373295e-04
7.07500000e-02	2.50454496e-02	8.80008332e-04
7.10000000e-02	2.51628328e-02	8.62120966e-04
7.12500000e-02	2.49511514e-02	8.54292644e-04
7.15000000e-02	2.47119559e-02	8.48413953e-04
7.17500000e-02	2.50657800e-02	8.59004157e-04
7.20000000e-02	2.43548606e-02	8.36879644e-04
7.22500000e-02	2.42498079e-02	8.36648570e-04
7.25000000e-02	2.44477908e-02	8.38016880e-04
7.27500000e-02	2.41471086e-02	8.27249900e-04
7.30000000e-02	2.46897638e-02	8.41282645e-04
7.32500000e-02	2.45384599e-02	8.31178260e-04
7.35000000e-02	2.42524457e-02	8.24416116e-04
7.37500000e-02	2.45863231e-02	8.28073061e-04
7.40000000e-02	2.46225857e-02	8.31233747e-04
7.42500000e-02	2.37017766e-02	8.16677125e-04
7.45000000e-02	2.49814948e-02	8.42295014e-04
7.47500000e-02	2.38749334e-02	8.05929443e-04
7.50000000e-02	2.44928211e-02	8.24884650e-04
7.52500000e-02	2.44145850e-02	8.21602949e-04
7.55000000e-02	2.46333205e-02	8.30033592e-04
7.57500000e-02	2.37177976e-02	8.01314160e-04
7.60000000e-02	2.46466318e-02	8.22912681e-04
7.62500000e-02	2.36378106e-02	7.93670764e-04
7.65000000e-02	2.46614278e-02	8.15456755e-04
7.67500000e-02	2.45224172e-02	8.16380926e-04
7.70000000e-02	2.41132108e-02	7.98270669e-04
7.72500000e-02	2.39086663e-02	8.11221262e-04
7.75000000e-02	2.43520768e-02	8.36706958e-04
7.77500000e-02	2.42353377e-02	8.34066659e-04
7.80000000e-02	2.41348507e-02	8.30777104e-04
7.82500000e-02	2.44231922e-02	8.49501144e-04
7.85000000e-02	2.42170201e-02	8.50505471e-04
7.87500000e-02	2.48353020e-02	8.66933845e-04
7.90000000e-02	2.40426410e-02	8.42928121e-04
7.92500000e-02	2.43316991e-02	8.49553963e-04
7.95000000e-02	2.46368891e-02	8.63623116e-04
7.97500000e-02	2.43573645e-02	8.60990682e-04
8.00000000e-02	2.44679253e-02	8.58154751e-04
8.02500000e-02	2.45974933e-02	8.66862540e-04
8.05000000e-02	2.43795025e-02	8.62750532e-04
8.07500000e-02	2.40963025e-02	8.63835138e-04
8.10000000e-02	2.35030044e-02	8.43733428e-04
8.12500000e-02	2.36589677e-02	8.43263443e-04
8.15000000e-02	2.38336571e-02	8.50425415e-04
8.17500000e-02	2.39149292e-02	8.60233581e-04
8.20000000e-02	2.36644789e-02	8.46008949e-04
8.22500000e-02	2.36170604e-02	8.53012722e-04
8.25000000e-02	2.42649838e-02	8.71419432e-04
8.27500000e-02	2.37686180e-02	8.52798955e-04
8.30000000e-02	2.38171586e-02	8.65535983e-04
8.32500000e-02	2.33851485e-02	8.50481309e-04
8.35000000e-02	2.29488335e-02	8.37650113e-04
8.37500000e-02	2.37241571e-02	8.55035967e-04
8.40000000e-02	2.37763386e-02	8.59765519e-04
8.42500000e-02	2.33651934e-02	8.53918895e-04
8.45000000e-02	2.32933853e-02	8.53923196e-04
8.47500000e-02	2.39805086e-02	8.77024516e-04
8.50000000e-02	2.43312620e-02	8.74747392e-04
8.52500000e-02	2.40020270e-02	8.78160566e-04
8.55000000e-02	2.32066444e-02	8.43803141e-04
8.57500000e-02	2.36138876e-02	8.62272027e-04
8.60000000e-02	2.43802056e-02	8.95863616e-04
8.62500000e-02	2.31376592e-02	8.51771397e-04
8.65000000e-02	2.35282790e-02	8.58107798e-04
8.67500000e-02	2.35699811e-02	8.56807618e-04
8.70000000e-02	2.38037617e-02	8.49117839e-04
8.72500000e-02	2.31503975e-02	8.20137853e-04
8.75000000e-02	2.39532277e-02	8.37171134e-04
8.77500000e-02	2.34187994e-02	8.13728961e-04
8.80000000e-02	2.30589540e-02	7.95410648e-04
8.82500000e-02	2.28141345e-02	7.93592340e-04
8.85000000e-02	2.31749045e-02	7.95178977e-04
8.87500000e-02	2.28059095e-02	7.67835373e-04
8.90000000e-02	2.31648158e-02	7.95071522e-04
8.92500000e-02	2.32931789e-02	7.91605883e-04
8.95000000e-02	2.31688534e-02	7.83614720e-04
8.97500000e-02	2.29629190e-02	7.68692086e-04
9.00000000e-02	2.29630598e-02	7.72284035e-04
9.02500000e-02	2.30186076e-02	7.72368740e-04
9.05000000e-02	2.29606212e-02	7.72039840e-04
9.07500000e-02	2.27752853e-02	7.58241991e-04
9.10000000e-02	2.31553080e-02	7.64773017e-04
9.12500000e-02	2.24424962e-02	7.43899717e-04
9.15000000e-02	2.34943837e-02	7.74524463e-04
9.17500000e-02	2.31059551e-02	7.63652255e-04
9.20000000e-02	2.23889656e-02	7.38912627e-04
9.22500000e-02	2.22304937e-02	7.36269449e-04
9.25000000e-02	2.28309062e-02	7.45411028e-04
9.27500000e-02	2.30025798e-02	7.53531908e-04
9.30000000e-02	2.26749776e-02	7.45600356e-04
9.32500000e-02	2.31794113e-02	7.60935311e-04
9.35000000e-02	2.24109602e-02	7.25538836e-04
9.37500000e-02	2.24194954e-02	7.31151004e-04
9.40000000e-02	2.27369875e-02	7.37731294e-04
9.42500000e-02	2.25087559e-02	7.30118323e-04
9.45000000e-02	2.24724402e-02	7.21982278e-04
9.47500000e-02	2.25873669e-02	7.28741338e-04
9.50000000e-02	2.28471030e-02	7.35062385e-04
9.52500000e-02	2.29136990e-02	7.34098198e-04
9.55000000e-02	2.25048925e-02	7.25121112e-04
9.57500000e-02	2.26814048e-02	7.31302200e-04
9.60000000e-02	2.22216688e-02	7.11558465e-04
9.62500000e-02	2.19794962e-02	7.05147956e-04
9.65000000e-02	2.25142198e-02	7.18165418e-04
9.67500000e-02	2.25052781e-02	7.16492886e-04
9.70000000e-02	2.22608455e-02	7.06356807e-04
9.72500000e-02	2.23883484e-02	7.14980082e-04
9.75000000e-02	2.20173036e-02	7.02726241e-04
9.77500000e-02	2.24227684e-02	7.08181340e-04
9.80000000e-02	2.25426919e-02	7.11692894e-04
9.82500000e-02	2.19602438e-02	6.94345600e-04
9.85000000e-02	2.26801963e-02	7.15542308e-04
9.87500000e-02	2.20277836e-02	6.93454159e-04
9.90000000e-02	2.29870066e-02	7.15927657e-04
9.92500000e-02	2.24209592e-02	7.08141063e-04
9.95000000e-02	2.20467728e-02	6.86474502e-04
9.97500000e-02	2.22600105e-02	6.98263945e-04
1.00000000e-01	2.26816497e-02	5.78072845e-04
1.00500000e-01	2.25169953e-02	4.95944662e-04
1.01000000e-01	2.21390417e-02	4.85919890e-04
1.01500000e-01	2.21046764e-02	4.85768844e-04
1.02000000e-01	2.21938809e-02	4.81993684e-04
1.02500000e-01	2.17315239e-02	4.73828212e-04
1.03000000e-01	2.19100863e-02	4.76161694e-04
1.03500000e-01	2.20309254e-02	4.77280426e-04
1.04000000e-01	2.17714637e-02	4.68110692e-04
1.04500000e-01	2.12864941e-02	4.61456412e-04
1.05000000e-01	2.21198869e-02	4.74670759e-04
1.05500000e-01	2.22985463e-02	4.77144646e-04
1.06000000e-01	2.20277117e-02	4.70772361e-04
1.06500000e-01	2.17681023e-02	4.62523890e-04
1.07000000e-01	2.17891694e-02	4.69873599e-04
1.07500000e-01	2.18886800e-02	4.81618287e-04
1.08000000e-01	2.14796753e-02	4.78872658e-04
1.08500000e-01	2.15108086e-02	4.81021199e-04
1.09000000e-01	2.13674753e-02	4.80904763e-04
1.09500000e-01	2.15941705e-02	4.89822610e-04
1.10000000e-01	2.13226215e-02	4.75550991e-04
1.10500000e-01	2.17167026e-02	4.72777204e-04
1.11000000e-01	2.15198648e-02	4.61507487e-04
1.11500000e-01	2.19392354e-02	4.70226206e-04
1.12000000e-01	2.16654951e-02	4.58678217e-04
1.12500000e-01	2.16237436e-02	4.55342367e-04
1.13000000e-01	2.15719496e-02	4.52935382e-04
1.13500000e-01	2.18023260e-02	4.56655110e-04
1.14000000e-01	2.15078078e-02	4.47407953e-04
1.14500000e-01	2.16124112e-02	4.52098493e-04
1.15000000e-01	2.15601643e-02	4.45516297e-04
1.15500000e-01	2.15279428e-02	4.45620530e-04
1.16000000e-01	2.18082436e-02	4.49515490e-04
1.16500000e-01	2.15457057e-02	4.42668137e-04
1.17000000e-01	2.18923024e-02	4.48692817e-04
1.17500000e-01	2.11433003e-02	4.31448322e-04
1.18000000e-01	2.14390645e-02	4.39871129e-04
1.18500000e-01	2.17857326e-02	4.42360890e-04
1.19000000e-01	2.17447385e-02	4.43337207e-04
1.19500000e-01	2.16188023e-02	4.37324775e-04
1.20000000e-01	2.14584142e-02	4.31988711e-04
1.20500000e-01	2.18696919e-02	4.41801554e-04
1.21000000e-01	2.11835793e-02	4.29814481e-04
1.21500000e-01	2.14177625e-02	4.29984501e-04
1.22000000e-01	2.16230008e-02	4.31603025e-04
1.22500000e-01	2.15057970e-02	4.30233875e-04
1.23000000e-01	2.10645342e-02	4.20425183e-04
1.23500000e-01	2.14379832e-02	4.26305391e-04
1.24000000e-01	2.16233218e-02	4.30147950e-04
1.24500000e-01	2.15111559e-02	4.25173675e-04
1.25000000e-01	2.18158052e-02	4.30282416e-04
1.25500000e-01	2.15142671e-02	4.24571421e-04
1.26000000e-01	2.17684666e-02	4.27502573e-04
1.26500000e-01	2.12936087e-02	4.19473978e-04
1.27000000e-01	2.14543252e-02	4.20485492e-04
1.27500000e-01	2.16398081e-02	4.23693785e-04
1.28000000e-01	2.09125853e-02	4.09015278e-04
1.28500000e-01	2.14457752e-02	4.18613205e-04
1.29000000e-01	2.18002760e-02	4.24065881e-04
1.29500000e-01	2.13586458e-02	4.16342206e-04
1.30000000e-01	2.12750407e-02	4.11079012e-04
1.30500000e-01	2.13799448e-02	4.12154389e-04
1.31000000e-01	2.15679835e-02	4.15738216e-04
1.31500000e-01	2.14472627e-02	4.12960805e-04
1.32000000e-01	2.17286588e-02	4.17392707e-04
1.32500000e-01	2.11761464e-02	4.05714878e-04
1.33000000e-01	2.09039349e-02	4.01086801e-04
1.33500000e-01	2.13287273e-02	4.07687514e-04
1.34000000e-01	2.11360540e-02	4.03086648e-04
1.34500000e-01	2.13826133e-02	4.05337199e-04
1.35000000e-01	2.12643304e-02	4.01692018e-04
1.35500000e-01	2.13759518e-02	4.03690919e-04
1.36000000e-01	2.13848666e-02	4.02583953e-04
1.36500000e-01	2.11050334e-02	3.98913258e-04
1.37000000e-01	2.10717019e-02	3.96896257e-04
1.37500000e-01	2.11675343e-02	3.97163556e-04
1.38000000e-01	2.11714965e-02	3.95201663e-04
1.38500000e-01	2.08847013e-02	3.90964907e-04
1.39000000e-01	2.12659187e-02	3.98000576e-04
1.39500000e-01	2.11131997e-02	3.95814976e-04
1.40000000e-01	2.10462779e-02	3.94139050e-04
1.40500000e-01	2.11655837e-02	3.94730494e-04
1.41000000e-01	2.09888350e-02	3.91896831e-04
1.41500000e-01	2.10390990e-02	3.92832921e-04
1.42000000e-01	2.08818488e-02	3.88146317e-04
1.42500000e-01	2.07299996e-02	3.84132758e-04
1.43000000e-01	2.08419696e-02	3.86164732e-04
1.43500000e-01	2.06183192e-02	3.81344731e-04
1.44000000e-01	2.07362077e-02	3.83245766e-04
1.44500000e-01	2.07296448e-02	3.80140610e-04
1.45000000e-01	2.06369477e-02	3.81546585e-04
1.45500000e-01	2.05592186e-02	3.77658161e-04
1.46000000e-01	2.05030582e-02	3.76447554e-04
1.46500000e-01	2.07292510e-02	3.81021103e-04
1.47000000e-01	2.05514858e-02	3.75891447e-04
1.47500000e-01	2.09439411e-02	3.82094681e-04
1.48000000e-01	2.09381349e-02	3.81300975e-04
1.48500000e-01	2.05475230e-02	3.74370099e-04
1.49000000e-01	2.07837171e-02	3.76895888e-04
1.49500000e-01	2.04854987e-02	3.70980784e-04
1.50000000e-01	2.06877336e-02	3.73558131e-04
1.50500000e-01	2.05450863e-02	3.73296185e-04
1.51000000e-01	2.05910857e-02	3.70796779e-04
1.51500000e-01	2.05121233e-02	3.69173350e-04
1.52000000e-01	2.04288955e-02	3.67067943e-04
1.52500000e-01	2.04584202e-02	3.67661287e-04
1.53000000e-01	2.04963805e-02	3.67559987e-04
1.53500000e-01	2.04694412e-02	3.65558357e-04
1.54000000e-01	2.02471237e-02	3.60842800e-04
1.54500000e-01	2.03322124e-02	3.70448260e-04
1.55000000e-01	2.04297601e-02	3.75826543e-04
1.55500000e-01	2.04315144e-02	3.79512648e-04
1.56000000e-01	2.03576819e-02	3.80978914e-04
1.56500000e-01	2.02107117e-02	3.74272407e-04
1.57000000e-01	2.03365726e-02	3.81199393e-04
1.57500000e-01	2.01712887e-02	3.71185502e-04
1.58000000e-01	2.04405549e-02	3.68481469e-04
1.58500000e-01	2.02749408e-02	3.63673194e-04
1.59000000e-01	2.05140856e-02	3.65320362e-04
1.59500000e-01	1.99915170e-02	3.57188398e-04
1.60000000e-01	2.00208753e-02	3.58714334e-04
1.60500000e-01	2.01948041e-02	3.58342933e-04
1.61000000e-01	2.01888142e-02	3.59061743e-04
1.61500000e-01	2.00376067e-02	3.53701799e-04
1.62000000e-01	2.01762158e-02	3.54728866e-04
1.62500000e-01	2.00626083e-02	3.54710129e-04
1.63000000e-01	2.02214089e-02	3.52455301e-04
1.63500000e-01	1.97984327e-02	3.49538624e-04
1.64000000e-01	2.01099603e-02	3.49986608e-04
1.64500000e-01	2.01850858e-02	3.52916616e-04
1.65000000e-01	2.01171950e-02	3.49900373e-04
1.65500000e-01	2.00352401e-02	3.48513535e-04
1.66000000e-01	2.02278812e-02	3.52418833e-04
1.66500000e-01	2.01952837e-02	3.49324209e-04
1.67000000e-01	2.03258865e-02	3.53275545e-04
1.67500000e-01	1.99770689e-02	3.45874099e-04
1.68000000e-01	1.99532023e-02	3.46135073e-04
1.68500000e-01	1.98985852e-02	3.42602694e-04
1.69000000e-01	1.97707257e-02	3.41981974e-04
1.69500000e-01	1.98837362e-02	3.42262743e-04
1.70000000e-01	1.98944122e-02	3.41656304e-04
1.70500000e-01	1.98184410e-02	3.40800833e-04
1.71000000e-01	2.01085803e-02	3.44842294e-04
1.71500000e-01	2.00152472e-02	3.43563875e-04
1.72000000e-01	1.99323517e-02	3.38917813e-04
1.72500000e-01	1.98501863e-02	3.38600632e-04
1.73000000e-01	1.99844015e-02	3.39256984e-04
1.73500000e-01	1.97189798e-02	3.33896609e-04
1.74000000e-01	1.99166852e-02	3.37088943e-04
1.74500000e-01	1.97460442e-02	3.31866523e-04
1.75000000e-01	1.97037703e-02	3.30901046e-04
1.75500000e-01	1.98182384e-02	3.31865797e-04
1.76000000e-01	1.99498290e-02	3.35261480e-04
1.76500000e-01	1.96771382e-02	3.29944729e-04
1.77000000e-01	1.96644733e-02	3.29256091e-04
1.77500000e-01	1.96976277e-02	3.29538393e-04
1.78000000e-01	1.99944939e-02	3.33161751e-04
1.78500000e-01	1.97465228e-02	3.30415270e-04
1.79000000e-01	1.97350341e-02	3.28477655e-04
1.79500000e-01	1.94250294e-02	3.24549140e-04
1.80000000e-01	1.97614874e-02	3.30487317e-04
1.80500000e-01	1.99173045e-02	3.32591191e-04
1.81000000e-01	1.96402105e-02	3.27487372e-04
1.81500000e-01	1.97620579e-02	3.28387024e-04
1.82000000e-01	1.95684222e-02	3.25791499e-04
1.82500000e-01	1.97567623e-02	3.26638963e-04
1.83000000e-01	1.98448122e-02	3.29047321e-04
1.83500000e-01	1.95172603e-02	3.23098740e-04
1.84000000e-01	1.95304515e-02	3.22909539e-04
1.84500000e-01	1.97657393e-02	3.26551306e-04
1.85000000e-01	1.97672877e-02	3.24910077e-04
1.85500000e-01	1.98715027e-02	3.26351859e-04
1.86000000e-01	1.95779785e-02	3.22312796e-04
1.86500000e-01	1.94154015e-02	3.18327120e-04
1.87000000e-01	1.94945971e-02	3.19588427e-04
1.87500000e-01	1.94501279e-02	3.18027650e-04
1.88000000e-01	1.95159756e-02	3.18699303e-04
1.88500000e-01	1.92721973e-02	3.15288712e-04
1.89000000e-01	1.96701324e-02	3.19366856e-04
1.89500000e-01	1.93920875e-02	3.16241540e-04
1.90000000e-01	1.93717353e-02	3.14391428e-04
1.90500000e-01	1.95376640e-02	3.16968143e-04
1.91000000e-01	1.93740755e-02	3.14333404e-04
1.91500000e-01	1.91973822e-02	3.12006766e-04
1.92000000e-01	1.92865064e-02	3.11536218e-04
1.92500000e-01	1.91294293e-02	3.09213470e-04
1.93000000e-01	1.93284176e-02	3.12943442e-04
1.93500000e-01	1.92587595e-02	3.11135516e-04
1.94000000e-01	1.88437521e-02	3.04755393e-04
1.94500000e-01	1.91803182e-02	3.09426846e-04
1.95000000e-01	1.93973977e-02	3.12180838e-04
1.95500000e-01	1.94038958e-02	3.10324324e-04
1.96000000e-01	1.92053892e-02	3.07145463e-04
1.96500000e-01	1.93579063e-02	3.09611073e-04
1.97000000e-01	1.94118932e-02	3.10351222e-04
1.97500000e-01	1.92077185e-02	3.06027834e-04
1.98000000e-01	1.91546038e-02	3.04926110e-04
1.98500000e-01	1.92889506e-02	3.06062334e-04
1.99000000e-01	1.93566709e-02	3.09287373e-04
1.99500000e-01	1.94949877e-02	3.07792262e-04
2.00000000e-01	1.91577217e-02	3.04065992e-04
2.00500000e-01	1.90607699e-02	3.02322815e-04
2.01000000e-01	1.92145845e-02	3.02379477e-04
2.01500000e-01	1.92451653e-02	3.04928117e-04
2.02000000e-01	1.93086275e-02	3.04789995e-04
2.02500000e-01	1.91610967e-02	3.01382603e-04
2.03000000e-01	1.91442007e-02	3.00642982e-04
2.03500000e-01	1.91847334e-02	3.02051255e-04
2.04000000e-01	1.89379694e-02	2.98535608e-04
2.04500000e-01	1.92683954e-02	3.03244257e-04
2.05000000e-01	1.90358741e-02	2.98509182e-04
2.05500000e-01	1.88683057e-02	2.95921800e-04
2.06000000e-01	1.90632745e-02	2.98658521e-04
2.06500000e-01	1.92881264e-02	3.00918923e-04
2.07000000e-01	1.89325287e-02	2.95862493e-04
2.07500000e-01	1.87559838e-02	2.92308852e-04
2.08000000e-01	1.92138915e-02	2.99909542e-04
2.08500000e-01	1.90518515e-02	2.96044299e-04
2.09000000e-01	1.87794707e-02	2.92339883e-04
2.09500000e-01	1.92462851e-02	2.97420496e-04
2.10000000e-01	1.89268789e-02	2.93118479e-04
2.10500000e-01	1.90650164e-02	2.95185335e-04
2.11000000e-01	1.88069094e-02	2.91702404e-04
2.11500000e-01	1.90447401e-02	2.94868197e-04
2.12000000e-01	1.87772769e-02	2.90243602e-04
2.12500000e-01	1.90174502e-02	2.93125618e-04
2.13000000e-01	1.89145293e-02	2.91362578e-04
2.13500000e-01	1.89391725e-02	2.91509790e-04
2.14000000e-01	1.88998602e-02	2.89819287e-04
2.14500000e-01	1.88818175e-02	2.89644476e-04
2.15000000e-01	1.88220123e-02	2.89772377e-04
2.15500000e-01	1.89367318e-02	2.89024473e-04
2.16000000e-01	1.90094169e-02	2.91080431e-04
2.16500000e-01	1.89127975e-02	2.89526567e-04
2.17000000e-01	1.86995999e-02	2.88719152e-04
2.17500000e-01	1.89084934e-02	2.97044706e-04
2.18000000e-01	1.86438675e-02	2.93564402e-04
2.18500000e-01	1.86557442e-02	2.95244372e-04
2.19000000e-01	1.87007798e-02	2.98169193e-04
2.19500000e-01	1.87986418e-02	3.02114618e-04
2.20000000e-01	1.86849030e-02	3.00582147e-04
2.20500000e-01	1.88089946e-02	3.02798822e-04
2.21000000e-01	1.87457785e-02	3.02108739e-04
2.21500000e-01	1.84674018e-02	3.01818315e-04
2.22000000e-01	1.86211280e-02	3.01198419e-04
2.22500000e-01	1.89389673e-02	3.08306016e-04
2.23000000e-01	1.86508742e-02	3.04492211e-04
2.23500000e-01	1.84733687e-02	3.03376147e-04
2.24000000e-01	1.87655133e-02	3.07750629e-04
2.24500000e-01	1.85093761e-02	3.05167275e-04
2.25000000e-01	1.85554512e-02	3.05449990e-04
2.25500000e-01	1.90157730e-02	3.13610873e-04
2.26000000e-01	1.86217624e-02	3.08297013e-04
2.26500000e-01	1.88055234e-02	3.05671461e-04
2.27000000e-01	1.88729638e-02	3.03634446e-04
2.27500000e-01	1.86797397e-02	2.98640279e-04
2.28000000e-01	1.85645295e-02	2.95784907e-04
2.28500000e-01	1.86723420e-02	2.95076820e-04
2.29000000e-01	1.84809619e-02	2.91710244e-04
2.29500000e-01	1.85475765e-02	2.91854891e-04
2.30000000e-01	1.85186733e-02	2.90515055e-04
2.30500000e-01	1.82818239e-02	2.85798420e-04
2.31000000e-01	1.85362557e-02	2.89000975e-04
2.31500000e-01	1.84762592e-02	2.86675044e-04
2.32000000e-01	1.84376522e-02	2.86176342e-04
2.32500000e-01	1.85477134e-02	2.87754387e-04
2.33000000e-01	1.85268670e-02	2.85509102e-04
2.33500000e-01	1.85576101e-02	2.86132884e-04
2.34000000e-01	1.85744837e-02	2.85276542e-04
2.34500000e-01	1.85101308e-02	2.83417423e-04
2.35000000e-01	1.85690909e-02	2.84845658e-04
2.35500000e-01	1.86354103e-02	2.83897188e-04
2.36000000e-01	1.84364189e-02	2.81575366e-04
2.36500000e-01	1.85578581e-02	2.82330978e-04
2.37000000e-01	1.84751663e-02	2.80118985e-04
2.37500000e-01	1.83497247e-02	2.78181669e-04
2.38000000e-01	1.85391410e-02	2.80097935e-04
2.38500000e-01	1.85387246e-02	2.80147033e-04
2.39000000e-01	1.84126365e-02	2.77435912e-04
2.39500000e-01	1.83883097e-02	2.77790321e-04
2.40000000e-01	1.85447658e-02	2.79576349e-04
2.40500000e-01	1.84044334e-02	2.77057910e-04
2.41000000e-01	1.84734451e-02	2.75903550e-04
2.41500000e-01	1.81148663e-02	2.71538638e-04
2.42000000e-01	1.82137962e-02	2.72855951e-04
2.42500000e-01	1.81495783e-02	2.71512440e-04
2.43000000e-01	1.83666087e-02	2.74116097e-04
2.43500000e-01	1.83103399e-02	2.72141808e-04
2.44000000e-01	1.81848754e-02	2.70054061e-04
2.44500000e-01	1.81951002e-02	2.70319224e-04
2.45000000e-01	1.84052066e-02	2.71718847e-04
2.45500000e-01	1.82750382e-02	2.70676453e-04
2.46000000e-01	1.83677447e-02	2.72253557e-04
2.46500000e-01	1.81396370e-02	2.68193187e-04
2.47000000e-01	1.81881603e-02	2.68660364e-04
2.47500000e-01	1.84393414e-02	2.70798740e-04
2.48000000e-01	1.81550076e-02	2.67094747e-04
2.48500000e-01	1.80871575e-02	2.64783339e-04
2.49000000e-01	1.81598199e-02	2.66513116e-04
2.49500000e-01	1.81958961e-02	2.67823118e-04
2.50000000e-01	1.79655384e-02	2.62199348e-04
2.50500000e-01	1.83132022e-02	2.69070498e-04
2.51000000e-01	1.80403876e-02	2.64172879e-04
2.51500000e-01	1.81134765e-02	2.64703495e-04
2.52000000e-01	1.81410791e-02	2.64907324e-04
2.52500000e-01	1.80783846e-02	2.62828317e-04
2.53000000e-01	1.82719530e-02	2.66863855e-04
2.53500000e-01	1.80381557e-02	2.62699291e-04
2.54000000e-01	1.82606993e-02	2.65656097e-04
2.54500000e-01	1.82248393e-02	2.65293348e-04
2.55000000e-01	1.80226166e-02	2.60472860e-04
2.55500000e-01	1.81793360e-02	2.63203287e-04
2.56000000e-01	1.80059478e-02	2.59921063e-04
2.56500000e-01	1.80349917e-02	2.62108710e-04
2.57000000e-01	1.80088343e-02	2.59475364e-04
2.57500000e-01	1.79902181e-02	2.60011647e-04
2.58000000e-01	1.83681014e-02	2.64145335e-04
2.58500000e-01	1.81004853e-02	2.60123313e-04
2.59000000e-01	1.79863372e-02	2.58087442e-04
2.59500000e-01	1.78974647e-02	2.56739227e-04
2.60000000e-01	1.78890981e-02	2.56370656e-04
2.60500000e-01	1.80191308e-02	2.58182611e-04
2.61000000e-01	1.77538114e-02	2.54751038e-04
2.61500000e-01	1.80867619e-02	2.58507155e-04
2.62000000e-01	1.78712042e-02	2.54860614e-04
2.62500000e-01	1.80328951e-02	2.57617620e-04
2.63000000e-01	1.79199132e-02	2.55350817e-04
2.63500000e-01	1.79229763e-02	2.54949215e-04
2.64000000e-01	1.78415900e-02	2.53867643e-04
2.64500000e-01	1.80881564e-02	2.56502299e-04
2.65000000e-01	1.78858539e-02	2.53695883e-04
2.65500000e-01	1.77102379e-02	2.52051701e-04
2.66000000e-01	1.77720616e-02	2.51457767e-04
2.66500000e-01	1.79032214e-02	2.53513930e-04
2.67000000e-01	1.77655865e-02	2.51324407e-04
2.67500000e-01	1.78550944e-02	2.51625965e-04
2.68000000e-01	1.77680465e-02	2.50780508e-04
2.68500000e-01	1.76445738e-02	2.49064404e-04
2.69000000e-01	1.78762703e-02	2.50815215e-04
2.69500000e-01	1.76980599e-02	2.48818826e-04
2.70000000e-01	1.78689707e-02	2.49688944e-04
2.70500000e-01	1.78411809e-02	2.49228533e-04
2.71000000e-01	1.76289722e-02	2.46806580e-04
2.71500000e-01	1.79680866e-02	2.50410088e-04
2.72000000e-01	1.79308291e-02	2.49235249e-04
2.72500000e-01	1.76446699e-02	2.46604587e-04
2.73000000e-01	1.76873351e-02	2.46293843e-04
2.73500000e-01	1.77478036e-02	2.47395863e-04
2.74000000e-01	1.77294089e-02	2.47479452e-04
2.74500000e-01	1.78564528e-02	2.47939410e-04
2.75000000e-01	1.78083345e-02	2.47675752e-04
2.75500000e-01	1.78782964e-02	2.48961684e-04
2.76000000e-01	1.73822395e-02	2.41719008e-04
2.76500000e-01	1.76396685e-02	2.45800379e-04
2.77000000e-01	1.76601290e-02	2.44618451e-04
2.77500000e-01	1.76546623e-02	2.44830106e-04
2.78000000e-01	1.76870135e-02	2.44385458e-04
2.78500000e-01	1.78962731e-02	2.46600208e-04
2.79000000e-01	1.75941374e-02	2.43714099e-04
2.79500000e-01	1.77560022e-02	2.45234080e-04
2.80000000e-01	1.77454015e-02	2.44473149e-04
2.80500000e-01	1.77138303e-02	2.44248512e-04
2.81000000e-01	1.75538738e-02	2.41468775e-04
2.81500000e-01	1.75988805e-02	2.41745892e-04
2.82000000e-01	1.73972015e-02	2.39103976e-04
2.82500000e-01	1.76081654e-02	2.42813222e-04
2.83000000e-01	1.75461647e-02	2.40302815e-04
2.83500000e-01	1.75466576e-02	2.40641841e-04
2.84000000e-01	1.75507210e-02	2.40711066e-04
2.84500000e-01	1.75226651e-02	2.39928369e-04
2.85000000e-01	1.76511159e-02	2.41427984e-04
2.85500000e-01	1.75789112e-02	2.40280162e-04
2.86000000e-01	1.75266856e-02	2.39202350e-04
2.86500000e-01	1.77161080e-02	2.40849430e-04
2.87000000e-01	1.78020665e-02	2.42013279e-04
2.87500000e-01	1.76535925e-02	2.39602129e-04
2.88000000e-01	1.75146035e-02	2.37827431e-04
2.88500000e-01	1.73999856e-02	2.36368637e-04
2.89000000e-01	1.75334771e-02	2.37620040e-04
2.89500000e-01	1.74161024e-02	2.35979251e-04
2.90000000e-01	1.75310907e-02	2.37393292e-04
2.90500000e-01	1.75756416e-02	2.37376849e-04
2.91000000e-01	1.73051921e-02	2.34128572e-04
2.91500000e-01	1.73529762e-02	2.33178184e-04
2.92000000e-01	1.76661910e-02	2.37517012e-04
2.92500000e-01	1.73046439e-02	2.34325616e-04
2.93000000e-01	1.74320256e-02	2.34365252e-04
2.93500000e-01	1.70918899e-02	2.30881821e-04
2.94000000e-01	1.72998342e-02	2.31940863e-04
2.94500000e-01	1.74198798e-02	2.33833190e-04
2.95000000e-01	1.74034252e-02	2.32092809e-04
2.95500000e-01	1.73547294e-02	2.32624620e-04
2.96000000e-01	1.72551470e-02	2.31595432e-04
2.96500000e-01	1.73138276e-02	2.32072012e-04
2.97000000e-01	1.72097638e-02	2.30447133e-04
2.97500000e-01	1.72584140e-02	2.29771186e-04
2.98000000e-01	1.74034447e-02	2.32275021e-04
2.98500000e-01	1.74334366e-02	2.32397650e-04
2.99000000e-01	1.73346552e-02	2.30410983e-04
2.99500000e-01	1.72443363e-02	2.30146230e-04
3.00000000e-01	1.71851522e-02	2.29267481e-04
3.00500000e-01	1.72456613e-02	2.29121926e-04
3.01000000e-01	1.73108031e-02	2.29895586e-04
3.01500000e-01	1.73508839e-02	2.30519971e-04
3.02000000e-01	1.72811930e-02	2.28505813e-04
3.02500000e-01	1.71003239e-02	2.26828750e-04
3.03000000e-01	1.72384858e-02	2.28025571e-04
3.03500000e-01	1.71517749e-02	2.25757156e-04
3.04000000e-01	1.72813061e-02	2.28916584e-04
3.04500000e-01	1.71870897e-02	2.26662325e-04
3.05000000e-01	1.72492236e-02	2.26976160e-04
3.05500000e-01	1.71980250e-02	2.26854947e-04
3.06000000e-01	1.71833289e-02	2.25471381e-04
3.06500000e-01	1.72267430e-02	2.27700363e-04
3.07000000e-01	1.70823705e-02	2.24705156e-04
3.07500000e-01	1.74306615e-02	2.28594936e-04
3.08000000e-01	1.72753199e-02	2.26785425e-04
3.08500000e-01	1.72091160e-02	2.25342058e-04
3.09000000e-01	1.70235481e-02	2.23449930e-04
3.09500000e-01	1.70999008e-02	2.23660668e-04
3.10000000e-01	1.70694788e-02	2.23669993e-04
3.10500000e-01	1.71279416e-02	2.24889619e-04
3.11000000e-01	1.71058710e-02	2.23978441e-04
3.11500000e-01	1.72014539e-02	2.24464905e-04
3.12000000e-01	1.70073806e-02	2.21830833e-04
3.12500000e-01	1.70314034e-02	2.22680364e-04
3.13000000e-01	1.70855528e-02	2.22310507e-04
3.13500000e-01	1.69279529e-02	2.21212508e-04
3.14000000e-01	1.71321049e-02	2.22552986e-04
3.14500000e-01	1.70525777e-02	2.22201182e-04
3.15000000e-01	1.72246506e-02	2.24247030e-04
3.15500000e-01	1.70502823e-02	2.21218611e-04
3.16000000e-01	1.68892592e-02	2.20302511e-04
3.16500000e-01	1.72634672e-02	2.22994704e-04
3.17000000e-01	1.71120726e-02	2.21142078e-04
3.17500000e-01	1.71405467e-02	2.22061590e-04
3.18000000e-01	1.67197749e-02	2.16349259e-04
3.18500000e-01	1.67327434e-02	2.15956443e-04
3.19000000e-01	1.69320604e-02	2.19048174e-04
3.19500000e-01	1.68957008e-02	2.18200370e-04
3.20000000e-01	1.68935970e-02	2.18102429e-04
3.20500000e-01	1.69373888e-02	2.18307666e-04
3.21000000e-01	1.68248624e-02	2.17878460e-04
3.21500000e-01	1.69291439e-02	2.18168431e-04
3.22000000e-01	1.69641250e-02	2.17684484e-04
3.22500000e-01	1.68362037e-02	2.16792959e-04
3.23000000e-01	1.68759726e-02	2.16698682e-04
3.23500000e-01	1.68421340e-02	2.16852920e-04
3.24000000e-01	1.67469773e-02	2.14601749e-04
3.24500000e-01	1.69627851e-02	2.17777604e-04
3.25000000e-01	1.66832397e-02	2.13313740e-04
3.25500000e-01	1.68003670e-02	2.14522900e-04
3.26000000e-01	1.67572835e-02	2.14077280e-04
3.26500000e-01	1.68344196e-02	2.14698801e-04
3.27000000e-01	1.67777362e-02	2.14511168e-04
3.27500000e-01	1.68040185e-02	2.13819867e-04
3.28000000e-01	1.69430343e-02	2.15876120e-04
3.28500000e-01	1.66508029e-02	2.12221185e-04
3.29000000e-01	1.67989716e-02	2.13828752e-04
3.29500000e-01	1.67515318e-02	2.13337884e-04
3.30000000e-01	1.67604255e-02	2.12765775e-04
3.30500000e-01	1.69863411e-02	2.15169927e-04
3.31000000e-01	1.65355393e-02	2.09865641e-04
3.31500000e-01	1.65990519e-02	2.10208615e-04
3.32000000e-01	1.67746336e-02	2.13074504e-04
3.32500000e-01	1.66232068e-02	2.10628874e-04
3.33000000e-01	1.67400384e-02	2.11845500e-04
3.33500000e-01	1.69551477e-02	2.13355798e-04
3.34000000e-01	1.66705539e-02	2.09606310e-04
3.34500000e-01	1.66662339e-02	2.10750598e-04
3.35000000e-01	1.68045906e-02	2.12127636e-04
3.35500000e-01	1.66177389e-02	2.09698004e-04
3.36000000e-01	1.66367431e-02	2.09769125e-04
3.36500000e-01	1.64367997e-02	2.07962372e-04
3.37000000e-01	1.66874027e-02	2.09638390e-04
3.37500000e-01	1.66553841e-02	2.09807946e-04
3.38000000e-01	1.65502370e-02	2.08237690e-04
3.38500000e-01	1.66589389e-02	2.08951771e-04
3.39000000e-01	1.64805270e-02	2.06808034e-04
3.39500000e-01	1.65141910e-02	2.07048210e-04
3.40000000e-01	1.65292858e-02	2.06858575e-04
3.40500000e-01	1.65480989e-02	2.07224864e-04
3.41000000e-01	1.64877793e-02	2.05887554e-04
3.41500000e-01	1.65500191e-02	2.07709103e-04
3.42000000e-01	1.65120052e-02	2.06610469e-04
3.42500000e-01	1.64940449e-02	2.06272765e-04
3.43000000e-01	1.64766143e-02	2.04790068e-04
3.43500000e-01	1.65874203e-02	2.06669322e-04
3.44000000e-01	1.64878095e-02	2.06388936e-04
3.44500000e-01	1.63144857e-02	2.03968126e-04
3.45000000e-01	1.65181239e-02	2.06136313e-04
3.45500000e-01	1.65010768e-02	2.04924668e-04
3.46000000e-01	1.64795074e-02	2.04797132e-04
3.46500000e-01	1.65493515e-02	2.04859289e-04
3.47000000e-01	1.65376693e-02	2.04853492e-04
3.47500000e-01	1.64223620e-02	2.03495636e-04
3.48000000e-01	1.64180712e-02	2.03402021e-04
3.48500000e-01	1.64716425e-02	2.04105194e-04
3.49000000e-01	1.62308985e-02	2.00823059e-04
3.49500000e-01	1.63255341e-02	2.02115648e-04
3.50000000e-01	1.64155964e-02	1.65834612e-04
3.51000000e-01	1.63802897e-02	1.42861957e-04
3.52000000e-01	1.64543161e-02	1.43509484e-04
3.53000000e-01	1.63124816e-02	1.41596072e-04
3.54000000e-01	1.61787764e-02	1.40839137e-04
3.55000000e-01	1.62455999e-02	1.41181610e-04
3.56000000e-01	1.62983157e-02	1.42090604e-04
3.57000000e-01	1.62859067e-02	1.44478526e-04
3.58000000e-01	1.61068320e-02	1.44526028e-04
3.59000000e-01	1.62623172e-02	1.46510279e-04
3.60000000e-01	1.61079856e-02	1.46063855e-04
3.61000000e-01	1.62341844e-02	1.47763307e-04
3.62000000e-01	1.62574798e-02	1.48836359e-04
3.63000000e-01	1.60675774e-02	1.47855828e-04
3.64000000e-01	1.60432846e-02	1.47953383e-04
3.65000000e-01	1.59385973e-02	1.47503469e-04
3.66000000e-01	1.60790700e-02	1.46990805e-04
3.67000000e-01	1.61253936e-02	1.45254272e-04
3.68000000e-01	1.61929441e-02	1.44638171e-04
3.69000000e-01	1.61141345e-02	1.43469022e-04
3.70000000e-01	1.60298452e-02	1.42054519e-04
3.71000000e-01	1.60827914e-02	1.44203496e-04
3.72000000e-01	1.59599130e-02	1.44252848e-04
3.73000000e-01	1.60569885e-02	1.45295409e-04
3.74000000e-01	1.59853190e-02	1.45082214e-04
3.75000000e-01	1.59680014e-02	1.44800813e-04
3.76000000e-01	1.61173764e-02	1.46403161e-04
3.77000000e-01	1.59134481e-02	1.44601963e-04
3.78000000e-01	1.58080631e-02	1.43731063e-04
3.79000000e-01	1.58969074e-02	1.44462292e-04
3.80000000e-01	1.58488396e-02	1.43518075e-04
3.81000000e-01	1.58057208e-02	1.43107419e-04
3.82000000e-01	1.57628830e-02	1.42701235e-04
3.83000000e-01	1.58793615e-02	1.43725463e-04
3.84000000e-01	1.57305555e-02	1.42645295e-04
3.85000000e-01	1.58637268e-02	1.43891659e-04
3.86000000e-01	1.56632027e-02	1.41936268e-04
3.87000000e-01	1.57956621e-02	1.42791270e-04
3.88000000e-01	1.58420991e-02	1.43450274e-04
3.89000000e-01	1.57464817e-02	1.42451987e-04
3.90000000e-01	1.58515727e-02	1.43112888e-04
3.91000000e-01	1.57572928e-02	1.42031428e-04
3.92000000e-01	1.57148125e-02	1.41850912e-04
3.93000000e-01	1.57039633e-02	1.41384369e-04
3.94000000e-01	1.56696497e-02	1.41149628e-04
3.95000000e-01	1.56994039e-02	1.41475303e-04
3.96000000e-01	1.57422167e-02	1.42139611e-04
3.97000000e-01	1.56927784e-02	1.41539994e-04
3.98000000e-01	1.56379778e-02	1.41395863e-04
3.99000000e-01	1.55460348e-02	1.40642467e-04
4.00000000e-01	1.56589568e-02	1.41652470e-04
4.01000000e-01	1.55980503e-02	1.40522845e-04
4.02000000e-01	1.56953978e-02	1.41824772e-04
4.03000000e-01	1.54791114e-02	1.40017079e-04
4.04000000e-01	1.55286267e-02	1.39985064e-04
4.05000000e-01	1.55546699e-02	1.40443676e-04
4.06000000e-01	1.55262477e-02	1.40059200e-04
4.07000000e-01	1.55253174e-02	1.40078369e-04
4.08000000e-01	1.54728024e-02	1.39333646e-04
4.09000000e-01	1.55856432e-02	1.40528936e-04
4.10000000e-01	1.53459508e-02	1.38417833e-04
4.11000000e-01	1.54374753e-02	1.38842981e-04
4.12000000e-01	1.53525527e-02	1.38407371e-04
4.13000000e-01	1.54499043e-02	1.38990821e-04
4.14000000e-01	1.54557374e-02	1.38706741e-04
4.15000000e-01	1.53991687e-02	1.38247981e-04
4.16000000e-01	1.53955297e-02	1.38426994e-04
4.17000000e-01	1.53361806e-02	1.38033008e-04
4.18000000e-01	1.54429683e-02	1.40545194e-04
4.19000000e-01	1.54325403e-02	1.42313176e-04
4.20000000e-01	1.54116678e-02	1.42578394e-04
4.21000000e-01	1.54209378e-02	1.43037605e-04
4.22000000e-01	1.53766160e-02	1.43266869e-04
4.23000000e-01	1.54376179e-02	1.44486193e-04
4.24000000e-01	1.53789185e-02	1.44128455e-04
4.25000000e-01	1.55421315e-02	1.45535629e-04
4.26000000e-01	1.54366180e-02	1.44810023e-04
4.27000000e-01	1.53311147e-02	1.43550030e-04
4.28000000e-01	1.53915617e-02	1.44569500e-04
4.29000000e-01	1.54018573e-02	1.44837301e-04
4.30000000e-01	1.52040160e-02	1.43525583e-04
4.31000000e-01	1.53148281e-02	1.43827271e-04
4.32000000e-01	1.54148808e-02	1.45143028e-04
4.33000000e-01	1.53342186e-02	1.44280169e-04
4.34000000e-01	1.52121234e-02	1.43385963e-04
4.35000000e-01	1.52783435e-02	1.44568752e-04
4.36000000e-01	1.53615100e-02	1.45338123e-04
4.37000000e-01	1.52857205e-02	1.44766121e-04
4.38000000e-01	1.52917670e-02	1.44935432e-04
4.39000000e-01	1.52612037e-02	1.45204527e-04
4.40000000e-01	1.51689435e-02	1.44386359e-04
4.41000000e-01	1.50814474e-02	1.43669064e-04
4.42000000e-01	1.51425505e-02	1.44342657e-04
4.43000000e-01	1.52842446e-02	1.45902452e-04
4.44000000e-01	1.51707324e-02	1.45032582e-04
4.45000000e-01	1.51774758e-02	1.45295735e-04
4.46000000e-01	1.52387513e-02	1.45828482e-04
4.47000000e-01	1.51230027e-02	1.45065907e-04
4.48000000e-01	1.51031162e-02	1.44833210e-04
4.49000000e-01	1.50421606e-02	1.44602336e-04
4.50000000e-01	1.51819012e-02	1.46206623e-04
4.51000000e-01	1.51471495e-02	1.46061491e-04
4.52000000e-01	1.51041675e-02	1.45552216e-04
4.53000000e-01	1.51573305e-02	1.46206052e-04
4.54000000e-01	1.51617169e-02	1.45509575e-04
4.55000000e-01	1.50777100e-02	1.45478201e-04
4.56000000e-01	1.51648256e-02	1.46400030e-04
4.57000000e-01	1.51037945e-02	1.46042413e-04
4.58000000e-01	1.50435935e-02	1.45650109e-04
4.59000000e-01	1.51501522e-02	1.46840539e-04
4.60000000e-01	1.50534195e-02	1.46099789e-04
4.61000000e-01	1.49988785e-02	1.45891124e-04
4.62000000e-01	1.50359054e-02	1.46301774e-04
4.63000000e-01	1.49163712e-02	1.45213837e-04
4.64000000e-01	1.50999490e-02	1.46617175e-04
4.65000000e-01	1.49144092e-02	1.45383422e-04
4.66000000e-01	1.50477662e-02	1.46445618e-04
4.67000000e-01	1.49516043e-02	1.45769372e-04
4.68000000e-01	1.51260966e-02	1.47508594e-04
4.69000000e-01	1.51242445e-02	1.47474482e-04
4.70000000e-01	1.48847399e-02	1.45973107e-04
4.71000000e-01	1.48126930e-02	1.45141433e-04
4.72000000e-01	1.49108543e-02	1.46092146e-04
4.73000000e-01	1.48663263e-02	1.44803781e-04
4.74000000e-01	1.48906763e-02	1.45367775e-04
4.75000000e-01	1.48112884e-02	1.44691491e-04
4.76000000e-01	1.49252213e-02	1.46064885e-04
4.77000000e-01	1.48763367e-02	1.44919391e-04
4.78000000e-01	1.49383079e-02	1.46124960e-04
4.79000000e-01	1.48657131e-02	1.45997298e-04
4.80000000e-01	1.47431202e-02	1.44204750e-04
4.81000000e-01	1.48614536e-02	1.45359255e-04
4.82000000e-01	1.49256054e-02	1.45609871e-04
4.83000000e-01	1.47691613e-02	1.44468383e-04
4.84000000e-01	1.46392796e-02	1.44416283e-04
4.85000000e-01	1.48824385e-02	1.45950271e-04
4.86000000e-01	1.48366945e-02	1.45509790e-04
4.87000000e-01	1.47889110e-02	1.45193220e-04
4.88000000e-01	1.46381568e-02	1.44236866e-04
4.89000000e-01	1.48328446e-02	1.45845713e-04
4.90000000e-01	1.47354180e-02	1.45043650e-04
4.91000000e-01	1.48805824e-02	1.46445643e-04
4.92000000e-01	1.47401522e-02	1.45401833e-04
4.93000000e-01	1.47327711e-02	1.45647017e-04
4.94000000e-01	1.46335507e-02	1.44375792e-04
4.95000000e-01	1.48557194e-02	1.47686390e-04
4.96000000e-01	1.47582599e-02	1.51174025e-04
4.97000000e-01	1.47987071e-02	1.54111420e-04
4.98000000e-01	1.47671890e-02	1.55606056e-04
4.99000000e-01	1.47620925e-02	1.57833286e-04
5.00000000e-01	1.47322853e-02	1.58912056e-04
5.01000000e-01	1.46533122e-02	1.59583084e-04
5.02000000e-01	1.47017907e-02	1.61456379e-04
5.03000000e-01	1.47939765e-02	1.64102437e-04
5.04000000e-01	1.47445882e-02	1.64750530e-04
5.05000000e-01	1.46582358e-02	1.61872209e-04
5.06000000e-01	1.47816429e-02	1.59496131e-04
5.07000000e-01	1.47845327e-02	1.57960903e-04
5.08000000e-01	1.46782078e-02	1.55821668e-04
5.09000000e-01	1.46041244e-02	1.54074183e-04
5.10000000e-01	1.46728945e-02	1.54796611e-04
5.11000000e-01	1.47094606e-02	1.53780182e-04
5.12000000e-01	1.47121056e-02	1.53820798e-04
5.13000000e-01	1.46032980e-02	1.52998419e-04
5.14000000e-01	1.44697959e-02	1.51373497e-04
5.15000000e-01	1.46755424e-02	1.52266898e-04
5.16000000e-01	1.45538998e-02	1.51967817e-04
5.17000000e-01	1.44984693e-02	1.50780293e-04
5.18000000e-01	1.46024382e-02	1.51263434e-04
5.19000000e-01	1.46339741e-02	1.51036473e-04
5.20000000e-01	1.45879907e-02	1.50344961e-04
5.21000000e-01	1.45121224e-02	1.49441333e-04
5.22000000e-01	1.45689336e-02	1.50358301e-04
5.23000000e-01	1.45542090e-02	1.49377944e-04
5.24000000e-01	1.44416626e-02	1.49080420e-04
5.25000000e-01	1.44460823e-02	1.48618919e-04
5.26000000e-01	1.42512451e-02	1.46805389e-04
5.27000000e-01	1.44382667e-02	1.47988146e-04
5.28000000e-01	1.42900197e-02	1.47221352e-04
5.29000000e-01	1.43950903e-02	1.48473537e-04
5.30000000e-01	1.45050875e-02	1.48939942e-04
5.31000000e-01	1.42959945e-02	1.47414955e-04
5.32000000e-01	1.45044825e-02	1.49115686e-04
5.33000000e-01	1.44107085e-02	1.48203377e-04
5.34000000e-01	1.43554739e-02	1.47672866e-04
5.35000000e-01	1.43107466e-02	1.47407909e-04
5.36000000e-01	1.42417293e-02	1.46741999e-04
5.37000000e-01	1.43611774e-02	1.48349849e-04
5.38000000e-01	1.43405105e-02	1.47668285e-04
5.39000000e-01	1.42826132e-02	1.47487494e-04
5.40000000e-01	1.42639255e-02	1.47154194e-04
5.41000000e-01	1.43401219e-02	1.47279827e-04
5.42000000e-01	1.42065252e-02	1.46084183e-04
5.43000000e-01	1.42160610e-02	1.46401131e-04
5.44000000e-01	1.42949115e-02	1.47316662e-04
5.45000000e-01	1.41964342e-02	1.46447861e-04
5.46000000e-01	1.42315936e-02	1.47081993e-04
5.47000000e-01	1.42875755e-02	1.47097527e-04
5.48000000e-01	1.42064408e-02	1.46330696e-04
5.49000000e-01	1.42110315e-02	1.46553312e-04
5.50000000e-01	1.42715926e-02	1.46393023e-04
5.51000000e-01	1.41724930e-02	1.45729204e-04
5.52000000e-01	1.42254034e-02	1.45464780e-04
5.53000000e-01	1.42034699e-02	1.45088412e-04
5.54000000e-01	1.42109571e-02	1.45469219e-04
5.55000000e-01	1.40324745e-02	1.44169577e-04
5.56000000e-01	1.42402516e-02	1.45549925e-04
5.57000000e-01	1.42458908e-02	1.45626190e-04
5.58000000e-01	1.40978108e-02	1.44013469e-04
5.59000000e-01	1.41343774e-02	1.44752858e-04
5.60000000e-01	1.40786632e-02	1.44100266e-04
5.61000000e-01	1.40465188e-02	1.43564488e-04
5.62000000e-01	1.40796332e-02	1.44307641e-04
5.63000000e-01	1.40272056e-02	1.43257881e-04
5.64000000e-01	1.40373982e-02	1.43807380e-04
5.65000000e-01	1.39846219e-02	1.43350835e-04
5.66000000e-01	1.40906032e-02	1.44232679e-04
5.67000000e-01	1.40953574e-02	1.44476994e-04
5.68000000e-01	1.39708160e-02	1.43397567e-04
5.69000000e-01	1.40549521e-02	1.43314373e-04
5.70000000e-01	1.40282892e-02	1.43678799e-04
5.71000000e-01	1.40686704e-02	1.43733865e-04
5.72000000e-01	1.39098634e-02	1.42340516e-04
5.73000000e-01	1.41151175e-02	1.44579916e-04
5.74000000e-01	1.39948394e-02	1.43088957e-04
5.75000000e-01	1.39685825e-02	1.43325476e-04
5.76000000e-01	1.39400674e-02	1.43370241e-04
5.77000000e-01	1.39556371e-02	1.42954553e-04
5.78000000e-01	1.39491417e-02	1.43338053e-04
5.79000000e-01	1.39430721e-02	1.43100772e-04
5.80000000e-01	1.38542316e-02	1.42598483e-04
5.81000000e-01	1.39568847e-02	1.43170671e-04
5.82000000e-01	1.37262645e-02	1.40866559e-04
5.83000000e-01	1.38161152e-02	1.41803361e-04
5.84000000e-01	1.38048541e-02	1.42008298e-04
5.85000000e-01	1.38927709e-02	1.42750730e-04
5.86000000e-01	1.37525469e-02	1.41833228e-04
5.87000000e-01	1.38810014e-02	1.42244346e-04
5.88000000e-01	1.38167180e-02	1.42029466e-04
5.89000000e-01	1.38217516e-02	1.42231362e-04
5.90000000e-01	1.37902746e-02	1.41594959e-04
5.91000000e-01	1.39238268e-02	1.43058578e-04
5.92000000e-01	1.37330360e-02	1.41117332e-04
5.93000000e-01	1.36499792e-02	1.40903261e-04
5.94000000e-01	1.37503487e-02	1.41402310e-04
5.95000000e-01	1.38277287e-02	1.42212374e-04
5.96000000e-01	1.37795014e-02	1.41776713e-04
5.97000000e-01	1.38814532e-02	1.42402515e-04
5.98000000e-01	1.37170947e-02	1.41185406e-04
5.99000000e-01	1.36951907e-02	1.41125789e-04
6.00000000e-01	1.36641612e-02	1.41098821e-04
6.01000000e-01	1.38887621e-02	1.43380731e-04
6.02000000e-01	1.37544995e-02	1.41637162e-04
6.03000000e-01	1.38250270e-02	1.42509491e-04
6.04000000e-01	1.36896418e-02	1.40883996e-04
6.05000000e-01	1.36424543e-02	1.40770877e-04
6.06000000e-01	1.37740852e-02	1.41880472e-04
6.07000000e-01	1.36971514e-02	1.41749606e-04
6.08000000e-01	1.36750940e-02	1.41152040e-04
6.09000000e-01	1.34842270e-02	1.39478148e-04
6.10000000e-01	1.38082947e-02	1.41902672e-04
6.11000000e-01	1.37178490e-02	1.40968709e-04
6.12000000e-01	1.36237699e-02	1.40525763e-04
6.13000000e-01	1.35042017e-02	1.39748927e-04
6.14000000e-01	1.36432768e-02	1.40741362e-04
6.15000000e-01	1.34422109e-02	1.39183817e-04
6.16000000e-01	1.34988002e-02	1.39829322e-04
6.17000000e-01	1.35868298e-02	1.40474905e-04
6.18000000e-01	1.35606881e-02	1.40243480e-04
6.19000000e-01	1.36158793e-02	1.40463049e-04
6.20000000e-01	1.34965973e-02	1.39234501e-04
6.21000000e-01	1.34889225e-02	1.39406170e-04
6.22000000e-01	1.35003361e-02	1.38872086e-04
6.23000000e-01	1.35265508e-02	1.38936732e-04
6.24000000e-01	1.35162915e-02	1.39090650e-04
6.25000000e-01	1.35633412e-02	1.39284305e-04
6.26000000e-01	1.34653246e-02	1.37913296e-04
6.27000000e-01	1.34665999e-02	1.37959862e-04
6.28000000e-01	1.33237419e-02	1.37537646e-04
6.29000000e-01	1.35348369e-02	1.39245568e-04
6.30000000e-01	1.34318546e-02	1.37952123e-04
6.31000000e-01	1.33361419e-02	1.36964417e-04
6.32000000e-01	1.32738162e-02	1.36459573e-04
6.33000000e-01	1.35079242e-02	1.38398750e-04
6.34000000e-01	1.35139101e-02	1.42325252e-04
6.35000000e-01	1.36340620e-02	1.47631729e-04
6.36000000e-01	1.33732685e-02	1.47355282e-04
6.37000000e-01	1.35643797e-02	1.51750701e-04
6.38000000e-01	1.35819183e-02	1.53717675e-04
6.39000000e-01	1.36547078e-02	1.56639526e-04
6.40000000e-01	1.36610346e-02	1.58857306e-04
6.41000000e-01	1.35599883e-02	1.58652277e-04
6.42000000e-01	1.35106399e-02	1.60529875e-04
6.43000000e-01	1.33936034e-02	1.59546748e-04
6.44000000e-01	1.34519815e-02	1.54255549e-04
6.45000000e-01	1.35998602e-02	1.53465540e-04
6.46000000e-01	1.35858163e-02	1.51746711e-04
6.47000000e-01	1.34753862e-02	1.49927905e-04
6.48000000e-01	1.34402728e-02	1.48496387e-04
6.49000000e-01	1.35241506e-02	1.48196457e-04
6.50000000e-01	1.35141043e-02	1.47554350e-04
6.51000000e-01	1.34317868e-02	1.46211663e-04
6.52000000e-01	1.34609817e-02	1.45860554e-04
6.53000000e-01	1.35721638e-02	1.46449295e-04
6.54000000e-01	1.35419248e-02	1.45999715e-04
6.55000000e-01	1.34630892e-02	1.44723877e-04
6.56000000e-01	1.34631020e-02	1.44926850e-04
6.57000000e-01	1.34800102e-02	1.44550108e-04
6.58000000e-01	1.35501771e-02	1.44886067e-04
6.59000000e-01	1.35116804e-02	1.44783094e-04
6.60000000e-01	1.32521730e-02	1.41940406e-04
6.61000000e-01	1.33951012e-02	1.43068200e-04
6.62000000e-01	1.34233361e-02	1.43411789e-04
6.63000000e-01	1.34037960e-02	1.42945185e-04
6.64000000e-01	1.33777988e-02	1.42411134e-04
6.65000000e-01	1.31508171e-02	1.40434642e-04
6.66000000e-01	1.33272235e-02	1.42013549e-04
6.67000000e-01	1.34591145e-02	1.43833565e-04
6.68000000e-01	1.34305591e-02	1.43068797e-04
6.69000000e-01	1.33803908e-02	1.42623082e-04
6.70000000e-01	1.33756328e-02	1.42258893e-04
6.71000000e-01	1.32653071e-02	1.41687168e-04
6.72000000e-01	1.32979717e-02	1.41838372e-04
6.73000000e-01	1.32983499e-02	1.41082030e-04
6.74000000e-01	1.32157072e-02	1.40724997e-04
6.75000000e-01	1.33235973e-02	1.41371969e-04
6.76000000e-01	1.33560489e-02	1.42201179e-04
6.77000000e-01	1.33009173e-02	1.40957562e-04
6.78000000e-01	1.33246279e-02	1.41748125e-04
6.79000000e-01	1.33991878e-02	1.41942866e-04
6.80000000e-01	1.32440383e-02	1.40801291e-04
6.81000000e-01	1.32939436e-02	1.41064849e-04
6.82000000e-01	1.33207230e-02	1.41464824e-04
6.83000000e-01	1.32698668e-02	1.40929586e-04
6.84000000e-01	1.32493014e-02	1.40248327e-04
6.85000000e-01	1.31990380e-02	1.39548514e-04
6.86000000e-01	1.32926114e-02	1.40944484e-04
6.87000000e-01	1.31875410e-02	1.39870123e-04
6.88000000e-01	1.31255302e-02	1.39156666e-04
6.89000000e-01	1.32116124e-02	1.39793703e-04
6.90000000e-01	1.32044450e-02	1.39848290e-04
6.91000000e-01	1.30859492e-02	1.38683694e-04
6.92000000e-01	1.30951057e-02	1.38724719e-04
6.93000000e-01	1.31785621e-02	1.40095137e-04
6.94000000e-01	1.30762011e-02	1.38940108e-04
6.95000000e-01	1.31660926e-02	1.39527693e-04
6.96000000e-01	1.30986974e-02	1.39142133e-04
6.97000000e-01	1.31794916e-02	1.39447112e-04
6.98000000e-01	1.31030833e-02	1.38887850e-04
6.99000000e-01	1.32178112e-02	1.39780400e-04
7.00000000e-01	1.31011490e-02	1.38784630e-04
7.01000000e-01	1.29927033e-02	1.37951690e-04
7.02000000e-01	1.30587067e-02	1.38335480e-04
7.03000000e-01	1.30598305e-02	1.38382959e-04
7.04000000e-01	1.30573626e-02	1.38622281e-04
7.05000000e-01	1.30592420e-02	1.38576277e-04
7.06000000e-01	1.30446037e-02	1.37923588e-04
7.07000000e-01	1.30071889e-02	1.37467679e-04
7.08000000e-01	1.29241010e-02	1.36468927e-04
7.09000000e-01	1.29406011e-02	1.37232060e-04
7.10000000e-01	1.29837259e-02	1.37356780e-04
7.11000000e-01	1.29350344e-02	1.36985125e-04
7.12000000e-01	1.28598624e-02	1.36525338e-04
7.13000000e-01	1.27792976e-02	1.35404950e-04
7.14000000e-01	1.27519940e-02	1.35160326e-04
7.15000000e-01	1.30047939e-02	1.37644926e-04
7.16000000e-01	1.28518593e-02	1.36186511e-04
7.17000000e-01	1.29108667e-02	1.36283183e-04
7.18000000e-01	1.28219780e-02	1.35166549e-04
7.19000000e-01	1.29562232e-02	1.37308035e-04
7.20000000e-01	1.29248877e-02	1.36872819e-04
7.21000000e-01	1.28968378e-02	1.36226511e-04
7.22000000e-01	1.28735026e-02	1.36999845e-04
7.23000000e-01	1.28179813e-02	1.35445468e-04
7.24000000e-01	1.27503986e-02	1.35018354e-04
7.25000000e-01	1.27926801e-02	1.35441015e-04
7.26000000e-01	1.27741820e-02	1.35458551e-04
7.27000000e-01	1.28118079e-02	1.36147062e-04
7.28000000e-01	1.27101090e-02	1.34774366e-04
7.29000000e-01	1.27790291e-02	1.35829783e-04
7.30000000e-01	1.26786333e-02	1.34577516e-04
7.31000000e-01	1.27407282e-02	1.34826783e-04
7.32000000e-01	1.27295713e-02	1.35086197e-04
7.33000000e-01	1.27431409e-02	1.34971205e-04
7.34000000e-01	1.26270495e-02	1.34033798e-04
7.35000000e-01	1.26756979e-02	1.34044181e-04
7.36000000e-01	1.26388264e-02	1.33294200e-04
7.37000000e-01	1.26322592e-02	1.33294630e-04
7.38000000e-01	1.25818433e-02	1.32956974e-04
7.39000000e-01	1.27005119e-02	1.33611173e-04
7.40000000e-01	1.27179067e-02	1.33863975e-04
7.41000000e-01	1.24949386e-02	1.30966966e-04
7.42000000e-01	1.26137220e-02	1.32356782e-04
7.43000000e-01	1.25673891e-02	1.32364344e-04
7.44000000e-01	1.26973037e-02	1.33020072e-04
7.45000000e-01	1.25571099e-02	1.31863266e-04
7.46000000e-01	1.26418416e-02	1.32499296e-04
7.47000000e-01	1.25965360e-02	1.32482037e-04
7.48000000e-01	1.24752671e-02	1.31230812e-04
7.49000000e-01	1.24756089e-02	1.31007038e-04
7.50000000e-01	1.26075509e-02	1.32188782e-04
7.51000000e-01	1.25225907e-02	1.31468200e-04
7.52000000e-01	1.26755651e-02	1.33143224e-04
7.53000000e-01	1.24254461e-02	1.30942595e-04
7.54000000e-01	1.24937189e-02	1.31002423e-04
7.55000000e-01	1.24666404e-02	1.31050948e-04
7.56000000e-01	1.25678090e-02	1.31978540e-04
7.57000000e-01	1.25397645e-02	1.31761145e-04
7.58000000e-01	1.25083207e-02	1.31701053e-04
7.59000000e-01	1.25697198e-02	1.31781021e-04
7.60000000e-01	1.23843359e-02	1.29876195e-04
7.61000000e-01	1.23034691e-02	1.28591031e-04
7.62000000e-01	1.23940079e-02	1.29348537e-04
7.63000000e-01	1.24052027e-02	1.29857944e-04
7.64000000e-01	1.24811393e-02	1.30186828e-04
7.65000000e-01	1.24280604e-02	1.29691581e-04
7.66000000e-01	1.24912842e-02	1.29884336e-04
7.67000000e-01	1.22991282e-02	1.27950349e-04
7.68000000e-01	1.23766875e-02	1.28893162e-04
7.69000000e-01	1.23546715e-02	1.28969354e-04
7.70000000e-01	1.23139552e-02	1.28811440e-04
7.71000000e-01	1.23750783e-02	1.29110835e-04
7.72000000e-01	1.22917481e-02	1.31712800e-04
7.73000000e-01	1.23069071e-02	1.36304936e-04
7.74000000e-01	1.23264315e-02	1.39800817e-04
7.75000000e-01	1.22771670e-02	1.41118652e-04
7.76000000e-01	1.22835010e-02	1.43869629e-04
7.77000000e-01	1.23049911e-02	1.45667149e-04
7.78000000e-01	1.23473350e-02	1.49010250e-04
7.79000000e-01	1.23147714e-02	1.49347599e-04
7.80000000e-01	1.20983691e-02	1.49110751e-04
7.81000000e-01	1.21791528e-02	1.51183412e-04
7.82000000e-01	1.21737237e-02	1.53091451e-04
7.83000000e-01	1.23048349e-02	1.56766803e-04
7.84000000e-01	1.20539003e-02	1.55609101e-04
7.85000000e-01	1.22016246e-02	1.58673817e-04
7.86000000e-01	1.21878860e-02	1.59958642e-04
7.87000000e-01	1.21278638e-02	1.60734109e-04
7.88000000e-01	1.19212482e-02	1.59726059e-04
7.89000000e-01	1.21726618e-02	1.63892018e-04
7.90000000e-01	1.21855069e-02	1.66067869e-04
7.91000000e-01	1.21535967e-02	1.67965286e-04
7.92000000e-01	1.21356302e-02	1.69009349e-04
7.93000000e-01	1.20116419e-02	1.68650953e-04
7.94000000e-01	1.21017683e-02	1.71794530e-04
7.95000000e-01	1.20122204e-02	1.71937351e-04
7.96000000e-01	1.21329060e-02	1.76271689e-04
7.97000000e-01	1.21011263e-02	1.77752763e-04
7.98000000e-01	1.19918854e-02	1.77615449e-04
7.99000000e-01	1.17181402e-02	1.76711734e-04
8.00000000e-01	1.19579867e-02	1.81076023e-04
8.01000000e-01	1.20142565e-02	1.83051307e-04
8.02000000e-01	1.19739696e-02	1.84909690e-04
8.03000000e-01	1.17811584e-02	1.83911773e-04
8.04000000e-01	1.20317599e-02	1.90083238e-04
8.05000000e-01	1.20137933e-02	1.91118987e-04
8.06000000e-01	1.18857739e-02	1.92356973e-04
8.07000000e-01	1.16590383e-02	1.90832907e-04
8.08000000e-01	1.17774707e-02	1.95824164e-04
8.09000000e-01	1.20017207e-02	1.99539094e-04
8.10000000e-01	1.19510118e-02	2.00398249e-04
8.11000000e-01	1.20162485e-02	2.05293589e-04
8.12000000e-01	1.19800646e-02	2.05468307e-04
8.13000000e-01	1.19794367e-02	2.09733943e-04
8.14000000e-01	1.19262904e-02	2.09703044e-04
8.15000000e-01	1.17272114e-02	2.09958177e-04
8.16000000e-01	1.18935601e-02	2.14643162e-04
8.17000000e-01	1.17550465e-02	2.16036577e-04
8.18000000e-01	1.15916224e-02	2.15077352e-04
8.19000000e-01	1.17597098e-02	2.20755502e-04
8.20000000e-01	1.15563564e-02	2.19205485e-04
8.21000000e-01	1.18502912e-02	2.28328050e-04
8.22000000e-01	1.16515878e-02	2.26662939e-04
8.23000000e-01	1.18717160e-02	2.34512226e-04
8.24000000e-01	1.19004942e-02	2.38905211e-04
8.25000000e-01	1.17094947e-02	2.36547065e-04
8.26000000e-01	1.15527556e-02	2.39722345e-04
8.27000000e-01	1.16427033e-02	2.45310871e-04
8.28000000e-01	1.15181331e-02	2.45891385e-04
8.29000000e-01	1.15590278e-02	2.50052378e-04
8.30000000e-01	1.16649160e-02	2.56347746e-04
8.31000000e-01	1.17224204e-02	2.62485081e-04
8.32000000e-01	1.15048003e-02	2.61267600e-04
8.33000000e-01	1.14605106e-02	2.64305824e-04
8.34000000e-01	1.13565817e-02	2.68224348e-04
8.35000000e-01	1.14378000e-02	2.73670835e-04
8.36000000e-01	1.13081207e-02	2.76150015e-04
8.37000000e-01	1.10828019e-02	2.76700450e-04
8.38000000e-01	1.14385084e-02	2.88494769e-04
8.39000000e-01	1.11074391e-02	2.88294567e-04
8.40000000e-01	1.12370217e-02	2.96480987e-04
8.41000000e-01	1.13457208e-02	3.07581709e-04
8.42000000e-01	1.13553206e-02	3.13720340e-04
8.43000000e-01	1.12932172e-02	3.21850497e-04
8.44000000e-01	1.11611658e-02	3.25129307e-04
8.45000000e-01	1.12104377e-02	3.31125294e-04
8.46000000e-01	1.16381114e-02	3.57266410e-04
8.47000000e-01	1.12411427e-02	3.56522933e-04
8.48000000e-01	1.17310624e-02	3.73894460e-04
8.49000000e-01	1.15680078e-02	3.86075799e-04
8.50000000e-01	1.12317736e-02	3.92303616e-04
8.51000000e-01	1.14461916e-02	4.13784552e-04
8.52000000e-01	1.11459212e-02	4.12960230e-04
8.53000000e-01	1.10987237e-02	4.30535476e-04
8.54000000e-01	1.09562018e-02	4.45418760e-04
8.55000000e-01	1.07901793e-02	4.63178754e-04
8.56000000e-01	1.13674865e-02	4.91843626e-04
8.57000000e-01	1.10804901e-02	4.87448124e-04
8.58000000e-01	1.20497942e-02	5.50361300e-04
8.59000000e-01	1.14848340e-02	5.36899036e-04
8.60000000e-01	1.09608374e-02	5.30707301e-04
8.61000000e-01	1.10762320e-02	5.57585333e-04
8.62000000e-01	1.13322887e-02	5.81694279e-04
8.63000000e-01	1.11830438e-02	6.21135618e-04
8.64000000e-01	1.18329268e-02	6.68964783e-04
8.65000000e-01	1.09251216e-02	6.49959918e-04
8.66000000e-01	1.06447395e-02	6.58073542e-04
8.67000000e-01	1.11517164e-02	7.30343690e-04
8.68000000e-01	1.08390570e-02	7.63794339e-04
8.69000000e-01	1.16473576e-02	8.79714653e-04
8.70000000e-01	1.05190742e-02	9.08346846e-04
8.71000000e-01	1.18862003e-02	1.10039283e-03
8.72000000e-01	1.01675429e-02	1.08724806e-03
8.73000000e-01	1.13883046e-02	1.39874528e-03
8.74000000e-01	1.12467054e-02	1.84476539e-03
8.75000000e-01	1.02075352e-02	3.40251259e-03
