% Filename : SSW20_00038_00023.h5
% Date & Time : 30-Oct-2025 17:44:18
% X-ray Energy (keV) : 13.30001
% Exposure Time (s) : 0.500
% Beam Center : 1461.24000, 208.98300
% Sample to Detector Distance (SDD) (mm) : 1990.750
% Detector Pixel Size (mm) : 0.075
% Photodiode Value : 141054.000
% I0 of Sample : 0
% I0 of Standard : 1
% 
% q(A^-1)   I(q)    I(q)_SE
0.00000000e+00	6.40419318e-03	3.38878698e-03
2.50000000e-04	0.00000000e+00	0.00000000e+00
5.00000000e-04	0.00000000e+00	0.00000000e+00
7.50000000e-04	0.00000000e+00	0.00000000e+00
1.00000000e-03	0.00000000e+00	0.00000000e+00
1.25000000e-03	0.00000000e+00	0.00000000e+00
1.50000000e-03	0.00000000e+00	0.00000000e+00
1.75000000e-03	0.00000000e+00	0.00000000e+00
2.00000000e-03	0.00000000e+00	0.00000000e+00
2.25000000e-03	0.00000000e+00	0.00000000e+00
2.50000000e-03	0.00000000e+00	0.00000000e+00
2.75000000e-03	0.00000000e+00	0.00000000e+00
3.00000000e-03	0.00000000e+00	0.00000000e+00
3.25000000e-03	2.80270859e+03	2.20457290e+03
3.50000000e-03	1.00721284e+03	3.91574497e+02
3.75000000e-03	7.91698093e+02	2.67427868e+02
4.00000000e-03	5.61418807e+02	1.78890122e+02
4.25000000e-03	3.48927070e+02	1.00027631e+02
4.50000000e-03	4.10657411e+02	9.38649765e+01
4.75000000e-03	4.08596252e+02	8.33703111e+01
5.00000000e-03	3.00770214e+02	6.03822681e+01
5.25000000e-03	2.52379873e+02	4.95607132e+01
5.50000000e-03	2.28418244e+02	4.40307786e+01
5.75000000e-03	1.88720142e+02	3.49013495e+01
6.00000000e-03	1.54912934e+02	3.02111345e+01
6.25000000e-03	1.27487669e+02	2.28161609e+01
6.50000000e-03	1.06129723e+02	1.91514833e+01
6.75000000e-03	9.63089055e+01	1.70045641e+01
7.00000000e-03	8.57306299e+01	1.46280401e+01
7.25000000e-03	7.22119830e+01	1.21463284e+01
7.50000000e-03	6.35341949e+01	1.11773147e+01
7.75000000e-03	5.36593651e+01	9.02757351e+00
8.00000000e-03	4.95688291e+01	7.73951945e+00
8.25000000e-03	4.16495836e+01	6.43663061e+00
8.50000000e-03	3.59946524e+01	5.36258345e+00
8.75000000e-03	3.28502907e+01	4.98650335e+00
9.00000000e-03	2.81595152e+01	4.10701757e+00
9.25000000e-03	2.65920356e+01	3.79589389e+00
9.50000000e-03	2.21782733e+01	3.08166335e+00
9.75000000e-03	1.99227529e+01	2.75155354e+00
1.00000000e-02	1.76164685e+01	2.39632400e+00
1.02500000e-02	1.63714482e+01	2.24943052e+00
1.05000000e-02	1.52577240e+01	1.97078615e+00
1.07500000e-02	1.39662234e+01	1.81566136e+00
1.10000000e-02	1.25385246e+01	1.62019431e+00
1.12500000e-02	1.13491199e+01	1.47497077e+00
1.15000000e-02	1.04070825e+01	1.31939201e+00
1.17500000e-02	8.78261492e+00	1.05903646e+00
1.20000000e-02	8.39268191e+00	1.02114723e+00
1.22500000e-02	7.81402292e+00	9.21095962e-01
1.25000000e-02	7.32007742e+00	8.59764667e-01
1.27500000e-02	6.85332928e+00	8.18132044e-01
1.30000000e-02	6.52786365e+00	7.59285710e-01
1.32500000e-02	5.85260998e+00	6.82334078e-01
1.35000000e-02	5.42994018e+00	6.20779787e-01
1.37500000e-02	5.00482593e+00	5.60966968e-01
1.40000000e-02	4.74481266e+00	5.36039374e-01
1.42500000e-02	4.31835622e+00	4.65319751e-01
1.45000000e-02	4.00353300e+00	4.27311161e-01
1.47500000e-02	3.69229906e+00	3.91473491e-01
1.50000000e-02	3.49514580e+00	3.73510242e-01
1.52500000e-02	3.17922605e+00	3.30886052e-01
1.55000000e-02	3.05268996e+00	3.08156638e-01
1.57500000e-02	2.88223798e+00	2.96069305e-01
1.60000000e-02	2.71903873e+00	2.77849360e-01
1.62500000e-02	2.53866575e+00	2.59371069e-01
1.65000000e-02	2.31261354e+00	2.32837914e-01
1.67500000e-02	2.30891664e+00	2.24729809e-01
1.70000000e-02	2.11237612e+00	2.06848608e-01
1.72500000e-02	1.96856748e+00	1.83609202e-01
1.75000000e-02	1.90104018e+00	1.83663828e-01
1.77500000e-02	1.82451435e+00	1.76348203e-01
1.80000000e-02	1.71060967e+00	1.57096647e-01
1.82500000e-02	1.56031011e+00	1.39055105e-01
1.85000000e-02	1.52008325e+00	1.40879372e-01
1.87500000e-02	1.43109707e+00	1.30164749e-01
1.90000000e-02	1.36056621e+00	1.23694368e-01
1.92500000e-02	1.32787460e+00	1.18490768e-01
1.95000000e-02	1.21342338e+00	1.06960564e-01
1.97500000e-02	1.15675535e+00	9.99091790e-02
2.00000000e-02	1.05797363e+00	9.00521117e-02
2.02500000e-02	1.01573270e+00	8.54071856e-02
2.05000000e-02	1.03390450e+00	8.72432389e-02
2.07500000e-02	9.72994993e-01	8.08740245e-02
2.10000000e-02	9.65747131e-01	8.11590683e-02
2.12500000e-02	9.10146301e-01	7.43582567e-02
2.15000000e-02	8.90846754e-01	7.35438208e-02
2.17500000e-02	8.56787398e-01	6.91107592e-02
2.20000000e-02	8.49544500e-01	6.87025213e-02
2.22500000e-02	7.90287011e-01	6.40604852e-02
2.25000000e-02	7.78833340e-01	6.24852163e-02
2.27500000e-02	7.27549326e-01	5.73327054e-02
2.30000000e-02	7.35620347e-01	5.75507596e-02
2.32500000e-02	6.82949230e-01	5.22271677e-02
2.35000000e-02	6.78480760e-01	5.26852603e-02
2.37500000e-02	6.52978943e-01	5.00677590e-02
2.40000000e-02	6.20238030e-01	4.79238017e-02
2.42500000e-02	6.24558929e-01	4.74857804e-02
2.45000000e-02	5.85922061e-01	4.47083804e-02
2.47500000e-02	5.70160900e-01	4.25775450e-02
2.50000000e-02	5.49234211e-01	4.10967348e-02
2.52500000e-02	5.35575125e-01	4.09741057e-02
2.55000000e-02	5.27622151e-01	3.85147053e-02
2.57500000e-02	5.08946740e-01	3.72174400e-02
2.60000000e-02	4.86516653e-01	3.60945018e-02
2.62500000e-02	4.67766361e-01	3.40362511e-02
2.65000000e-02	4.55367690e-01	3.32788831e-02
2.67500000e-02	4.50588475e-01	3.15314951e-02
2.70000000e-02	4.23165351e-01	3.02885739e-02
2.72500000e-02	4.10672728e-01	2.86100446e-02
2.75000000e-02	3.98377123e-01	2.85041209e-02
2.77500000e-02	3.86550135e-01	2.71631445e-02
2.80000000e-02	3.76003036e-01	2.57045026e-02
2.82500000e-02	3.61667757e-01	2.45890518e-02
2.85000000e-02	3.63162770e-01	2.48775428e-02
2.87500000e-02	3.42946388e-01	2.34187604e-02
2.90000000e-02	3.41709871e-01	2.33480779e-02
2.92500000e-02	3.30117556e-01	2.17436980e-02
2.95000000e-02	3.20167071e-01	2.15672425e-02
2.97500000e-02	3.07673457e-01	2.02296333e-02
3.00000000e-02	3.06129590e-01	2.04489794e-02
3.02500000e-02	3.02434415e-01	2.01918694e-02
3.05000000e-02	2.88053208e-01	1.86582141e-02
3.07500000e-02	2.74616880e-01	1.78088442e-02
3.10000000e-02	2.72573582e-01	1.74247160e-02
3.12500000e-02	2.64429350e-01	1.72045010e-02
3.15000000e-02	2.55002250e-01	1.63787132e-02
3.17500000e-02	2.50112501e-01	1.56094089e-02
3.20000000e-02	2.43890521e-01	1.53912634e-02
3.22500000e-02	2.36855694e-01	1.50686632e-02
3.25000000e-02	2.28264282e-01	1.44197400e-02
3.27500000e-02	2.24857223e-01	1.39547816e-02
3.30000000e-02	2.20672029e-01	1.34012242e-02
3.32500000e-02	2.16262147e-01	1.33500924e-02
3.35000000e-02	2.12722329e-01	1.30661508e-02
3.37500000e-02	2.03514542e-01	1.23247609e-02
3.40000000e-02	1.98109055e-01	1.19399317e-02
3.42500000e-02	1.94221915e-01	1.15112699e-02
3.45000000e-02	1.88741493e-01	1.12404746e-02
3.47500000e-02	1.83238484e-01	1.08296727e-02
3.50000000e-02	1.77826808e-01	1.05355190e-02
3.52500000e-02	1.75936284e-01	1.02829380e-02
3.55000000e-02	1.73122015e-01	9.97510071e-03
3.57500000e-02	1.71329261e-01	1.00180014e-02
3.60000000e-02	1.64301882e-01	9.48930502e-03
3.62500000e-02	1.58993927e-01	9.23754711e-03
3.65000000e-02	1.53114071e-01	8.77257043e-03
3.67500000e-02	1.54036331e-01	8.75904855e-03
3.70000000e-02	1.49845153e-01	8.47544862e-03
3.72500000e-02	1.49129373e-01	8.38308574e-03
3.75000000e-02	1.42401781e-01	8.08250785e-03
3.77500000e-02	1.37805602e-01	7.69927275e-03
3.80000000e-02	1.42004221e-01	7.82767240e-03
3.82500000e-02	1.35531277e-01	7.51964640e-03
3.85000000e-02	1.32910734e-01	7.36246119e-03
3.87500000e-02	1.29575004e-01	7.12977243e-03
3.90000000e-02	1.28722659e-01	7.17517782e-03
3.92500000e-02	1.25079838e-01	6.74761443e-03
3.95000000e-02	1.22678510e-01	6.63102945e-03
3.97500000e-02	1.18632759e-01	6.45599310e-03
4.00000000e-02	1.18402098e-01	6.35149422e-03
4.02500000e-02	1.15113094e-01	6.11986779e-03
4.05000000e-02	1.13061087e-01	5.99123671e-03
4.07500000e-02	1.10187334e-01	5.78289659e-03
4.10000000e-02	1.08865385e-01	5.79287119e-03
4.12500000e-02	1.08709386e-01	5.71434087e-03
4.15000000e-02	1.05219620e-01	5.48281856e-03
4.17500000e-02	1.05476147e-01	5.43236804e-03
4.20000000e-02	9.91276465e-02	5.14474059e-03
4.22500000e-02	9.94166198e-02	5.07814361e-03
4.25000000e-02	9.63833197e-02	4.97465014e-03
4.27500000e-02	9.68348440e-02	4.88246605e-03
4.30000000e-02	9.42211367e-02	4.71832785e-03
4.32500000e-02	9.15592205e-02	4.66131429e-03
4.35000000e-02	9.14460026e-02	4.64353106e-03
4.37500000e-02	9.03197885e-02	4.47192287e-03
4.40000000e-02	8.76952023e-02	4.39650971e-03
4.42500000e-02	8.51485334e-02	4.17232306e-03
4.45000000e-02	8.57605694e-02	4.21658255e-03
4.47500000e-02	8.28697062e-02	4.08891976e-03
4.50000000e-02	8.22147610e-02	3.99357345e-03
4.52500000e-02	8.09268203e-02	3.93900544e-03
4.55000000e-02	8.09073232e-02	3.91505138e-03
4.57500000e-02	7.93771175e-02	3.82881316e-03
4.60000000e-02	7.96385041e-02	3.81955172e-03
4.62500000e-02	7.51439422e-02	3.58644763e-03
4.65000000e-02	7.42160003e-02	3.55765606e-03
4.67500000e-02	7.40623016e-02	3.44794875e-03
4.70000000e-02	7.23260636e-02	3.39747059e-03
4.72500000e-02	7.19684004e-02	3.38974459e-03
4.75000000e-02	7.11412481e-02	3.34465662e-03
4.77500000e-02	6.95007362e-02	3.21066796e-03
4.80000000e-02	6.88132812e-02	3.16635409e-03
4.82500000e-02	6.81644736e-02	3.17669777e-03
4.85000000e-02	6.76873101e-02	3.14253890e-03
4.87500000e-02	6.62023893e-02	3.04242739e-03
4.90000000e-02	6.65906912e-02	2.99405880e-03
4.92500000e-02	6.37111103e-02	2.87245968e-03
4.95000000e-02	6.27876501e-02	2.87585022e-03
4.97500000e-02	6.20155463e-02	2.82143377e-03
5.00000000e-02	6.09021990e-02	2.76005655e-03
5.02500000e-02	6.15214212e-02	2.71244710e-03
5.05000000e-02	6.01870324e-02	2.66174511e-03
5.07500000e-02	5.96407801e-02	2.64083235e-03
5.10000000e-02	5.84771988e-02	2.58616712e-03
5.12500000e-02	5.81887102e-02	2.58990619e-03
5.15000000e-02	5.72834567e-02	2.45929010e-03
5.17500000e-02	5.70358164e-02	2.49945233e-03
5.20000000e-02	5.56944963e-02	2.40818774e-03
5.22500000e-02	5.54437814e-02	2.41972536e-03
5.25000000e-02	5.32050232e-02	2.27147828e-03
5.27500000e-02	5.34378480e-02	2.26715064e-03
5.30000000e-02	5.36029688e-02	2.30777459e-03
5.32500000e-02	5.32570065e-02	2.28203510e-03
5.35000000e-02	5.19257496e-02	2.21160507e-03
5.37500000e-02	5.16837179e-02	2.18829144e-03
5.40000000e-02	5.17712670e-02	2.18754969e-03
5.42500000e-02	4.99657868e-02	2.11004610e-03
5.45000000e-02	4.94803131e-02	2.06880233e-03
5.47500000e-02	4.84347689e-02	2.00369325e-03
5.50000000e-02	4.94048319e-02	2.06693278e-03
5.52500000e-02	4.81335842e-02	1.98556583e-03
5.55000000e-02	4.84310193e-02	1.99510740e-03
5.57500000e-02	4.78105210e-02	1.97004417e-03
5.60000000e-02	4.73443985e-02	1.93837917e-03
5.62500000e-02	4.72152305e-02	1.94474490e-03
5.65000000e-02	4.72368011e-02	1.92127235e-03
5.67500000e-02	4.50355097e-02	1.82632421e-03
5.70000000e-02	4.65852060e-02	1.87261413e-03
5.72500000e-02	4.45449755e-02	1.81452327e-03
5.75000000e-02	4.45615773e-02	1.80479879e-03
5.77500000e-02	4.40144505e-02	1.75001897e-03
5.80000000e-02	4.26809477e-02	1.72964500e-03
5.82500000e-02	4.31757331e-02	1.72372853e-03
5.85000000e-02	4.34965446e-02	1.73809045e-03
5.87500000e-02	4.27162337e-02	1.68801570e-03
5.90000000e-02	4.22028231e-02	1.67158998e-03
5.92500000e-02	4.26332182e-02	1.66547115e-03
5.95000000e-02	4.25034432e-02	1.65036223e-03
5.97500000e-02	4.12169141e-02	1.61959328e-03
6.00000000e-02	4.14350648e-02	1.59649865e-03
6.02500000e-02	4.06377325e-02	1.57644919e-03
6.05000000e-02	3.98031240e-02	1.53707449e-03
6.07500000e-02	4.00418318e-02	1.55036634e-03
6.10000000e-02	4.05711790e-02	1.54976208e-03
6.12500000e-02	4.04361341e-02	1.55009988e-03
6.15000000e-02	3.90886271e-02	1.48652581e-03
6.17500000e-02	3.92613635e-02	1.49559151e-03
6.20000000e-02	3.85150722e-02	1.45798385e-03
6.22500000e-02	3.85524163e-02	1.46162654e-03
6.25000000e-02	3.80462127e-02	1.43192864e-03
6.27500000e-02	3.89555635e-02	1.46169587e-03
6.30000000e-02	3.77155229e-02	1.41666908e-03
6.32500000e-02	3.77691056e-02	1.41855133e-03
6.35000000e-02	3.77417837e-02	1.40476931e-03
6.37500000e-02	3.72337552e-02	1.38795012e-03
6.40000000e-02	3.67652020e-02	1.38179176e-03
6.42500000e-02	3.59242281e-02	1.33164934e-03
6.45000000e-02	3.65818265e-02	1.35534006e-03
6.47500000e-02	3.63496719e-02	1.34243406e-03
6.50000000e-02	3.58349063e-02	1.32168307e-03
6.52500000e-02	3.54152402e-02	1.29579168e-03
6.55000000e-02	3.50365887e-02	1.27199292e-03
6.57500000e-02	3.50882546e-02	1.27243670e-03
6.60000000e-02	3.46190192e-02	1.26495687e-03
6.62500000e-02	3.53371983e-02	1.29218979e-03
6.65000000e-02	3.49489333e-02	1.25765037e-03
6.67500000e-02	3.47660611e-02	1.25113583e-03
6.70000000e-02	3.43275990e-02	1.23196339e-03
6.72500000e-02	3.46020178e-02	1.23966291e-03
6.75000000e-02	3.33461271e-02	1.19610673e-03
6.77500000e-02	3.34713054e-02	1.20502294e-03
6.80000000e-02	3.32030910e-02	1.18080419e-03
6.82500000e-02	3.41260878e-02	1.21766564e-03
6.85000000e-02	3.30057688e-02	1.17988442e-03
6.87500000e-02	3.28300762e-02	1.16437078e-03
6.90000000e-02	3.34957237e-02	1.18562587e-03
6.92500000e-02	3.27955521e-02	1.16326939e-03
6.95000000e-02	3.31499894e-02	1.18537299e-03
6.97500000e-02	3.24843477e-02	1.14617265e-03
7.00000000e-02	3.22493784e-02	1.12462111e-03
7.02500000e-02	3.16686431e-02	1.10224695e-03
7.05000000e-02	3.16749988e-02	1.09669934e-03
7.07500000e-02	3.28830979e-02	1.15595105e-03
7.10000000e-02	3.22547436e-02	1.11628396e-03
7.12500000e-02	3.25084679e-02	1.11801459e-03
7.15000000e-02	3.20387611e-02	1.10923219e-03
7.17500000e-02	3.20467471e-02	1.10650579e-03
7.20000000e-02	3.13838682e-02	1.07962954e-03
7.22500000e-02	3.18933419e-02	1.08767236e-03
7.25000000e-02	3.19157200e-02	1.08756380e-03
7.27500000e-02	3.08429620e-02	1.06195578e-03
7.30000000e-02	3.14576284e-02	1.06845608e-03
7.32500000e-02	3.13618148e-02	1.05984560e-03
7.35000000e-02	3.06700928e-02	1.04682257e-03
7.37500000e-02	3.11699468e-02	1.05704162e-03
7.40000000e-02	2.98622555e-02	1.02219011e-03
7.42500000e-02	3.08425818e-02	1.04442576e-03
7.45000000e-02	3.08640850e-02	1.04530301e-03
7.47500000e-02	3.03680296e-02	1.02247846e-03
7.50000000e-02	3.02752742e-02	1.01732273e-03
7.52500000e-02	3.04324421e-02	1.02633268e-03
7.55000000e-02	3.01855928e-02	1.01893509e-03
7.57500000e-02	2.97637697e-02	9.99590828e-04
7.60000000e-02	3.04842454e-02	1.01235205e-03
7.62500000e-02	2.96267313e-02	9.88770678e-04
7.65000000e-02	2.97193740e-02	9.89402279e-04
7.67500000e-02	2.95073471e-02	9.84583071e-04
7.70000000e-02	2.94710918e-02	9.72813688e-04
7.72500000e-02	3.03313956e-02	1.02439599e-03
7.75000000e-02	3.03044965e-02	1.03631859e-03
7.77500000e-02	3.02793910e-02	1.03799401e-03
7.80000000e-02	2.92373587e-02	1.00656238e-03
7.82500000e-02	2.94974600e-02	1.02132294e-03
7.85000000e-02	2.96953591e-02	1.03173841e-03
7.87500000e-02	2.92872117e-02	1.01702865e-03
7.90000000e-02	2.91101331e-02	1.00941622e-03
7.92500000e-02	2.95263987e-02	1.02798962e-03
7.95000000e-02	2.97775572e-02	1.04262468e-03
7.97500000e-02	2.99858854e-02	1.05678618e-03
8.00000000e-02	2.89601273e-02	1.01864185e-03
8.02500000e-02	2.93627803e-02	1.03997241e-03
8.05000000e-02	2.93300941e-02	1.02859593e-03
8.07500000e-02	2.94829844e-02	1.05424718e-03
8.10000000e-02	2.89328057e-02	1.02779119e-03
8.12500000e-02	2.93683679e-02	1.04191345e-03
8.15000000e-02	2.90401141e-02	1.02940136e-03
8.17500000e-02	2.88645307e-02	1.02933340e-03
8.20000000e-02	2.86081414e-02	1.01948625e-03
8.22500000e-02	2.83955310e-02	1.01308680e-03
8.25000000e-02	2.89970642e-02	1.03585759e-03
8.27500000e-02	2.85063615e-02	1.02230680e-03
8.30000000e-02	2.84859003e-02	1.01332607e-03
8.32500000e-02	2.89221110e-02	1.04138962e-03
8.35000000e-02	2.85947945e-02	1.04597111e-03
8.37500000e-02	2.87312161e-02	1.02613690e-03
8.40000000e-02	2.79595907e-02	1.00609458e-03
8.42500000e-02	2.81299684e-02	1.01336603e-03
8.45000000e-02	2.84982854e-02	1.03648786e-03
8.47500000e-02	2.87342423e-02	1.04124756e-03
8.50000000e-02	2.78754089e-02	1.00280000e-03
8.52500000e-02	2.86710225e-02	1.04474614e-03
8.55000000e-02	2.77476047e-02	1.00813407e-03
8.57500000e-02	2.76160972e-02	1.01163239e-03
8.60000000e-02	2.80961985e-02	1.02109962e-03
8.62500000e-02	2.76152725e-02	1.00319399e-03
8.65000000e-02	2.81325848e-02	1.02110447e-03
8.67500000e-02	2.78278300e-02	1.00162453e-03
8.70000000e-02	2.76668192e-02	9.85394651e-04
8.72500000e-02	2.76269218e-02	9.68709534e-04
8.75000000e-02	2.74838208e-02	9.48796182e-04
8.77500000e-02	2.73726062e-02	9.37027536e-04
8.80000000e-02	2.70823738e-02	9.37632421e-04
8.82500000e-02	2.74373408e-02	9.45568090e-04
8.85000000e-02	2.75058881e-02	9.38094664e-04
8.87500000e-02	2.68474216e-02	9.04035930e-04
8.90000000e-02	2.72654813e-02	9.16638169e-04
8.92500000e-02	2.73438705e-02	9.20171561e-04
8.95000000e-02	2.70316084e-02	9.13642113e-04
8.97500000e-02	2.67860331e-02	8.96153112e-04
9.00000000e-02	2.67552941e-02	8.90445206e-04
9.02500000e-02	2.65465064e-02	8.76697235e-04
9.05000000e-02	2.66835001e-02	8.81302997e-04
9.07500000e-02	2.63284690e-02	8.74985269e-04
9.10000000e-02	2.62359608e-02	8.65017417e-04
9.12500000e-02	2.65448714e-02	8.76499573e-04
9.15000000e-02	2.67560844e-02	8.77893205e-04
9.17500000e-02	2.61954594e-02	8.63524680e-04
9.20000000e-02	2.61525496e-02	8.56149072e-04
9.22500000e-02	2.63300011e-02	8.56663897e-04
9.25000000e-02	2.65752051e-02	8.64020591e-04
9.27500000e-02	2.56764301e-02	8.35580041e-04
9.30000000e-02	2.58660953e-02	8.41487515e-04
9.32500000e-02	2.60362305e-02	8.45431909e-04
9.35000000e-02	2.58763075e-02	8.30661061e-04
9.37500000e-02	2.64048996e-02	8.57252036e-04
9.40000000e-02	2.56923819e-02	8.31516188e-04
9.42500000e-02	2.65105505e-02	8.51853515e-04
9.45000000e-02	2.56036744e-02	8.22342511e-04
9.47500000e-02	2.58650481e-02	8.31458403e-04
9.50000000e-02	2.55318520e-02	8.18416434e-04
9.52500000e-02	2.61349205e-02	8.36591098e-04
9.55000000e-02	2.59426315e-02	8.19886036e-04
9.57500000e-02	2.54239610e-02	8.11788173e-04
9.60000000e-02	2.48067153e-02	7.89193195e-04
9.62500000e-02	2.53068341e-02	8.00812839e-04
9.65000000e-02	2.53099451e-02	7.95484446e-04
9.67500000e-02	2.52418626e-02	7.95080494e-04
9.70000000e-02	2.57784816e-02	8.12305516e-04
9.72500000e-02	2.48139003e-02	7.84599199e-04
9.75000000e-02	2.57683649e-02	8.13461627e-04
9.77500000e-02	2.51114571e-02	7.81405496e-04
9.80000000e-02	2.54750727e-02	7.95947602e-04
9.82500000e-02	2.51454057e-02	7.93171317e-04
9.85000000e-02	2.51922977e-02	7.82721439e-04
9.87500000e-02	2.54937952e-02	7.97672251e-04
9.90000000e-02	2.50307086e-02	7.82276025e-04
9.92500000e-02	2.54422787e-02	7.90068844e-04
9.95000000e-02	2.50385085e-02	7.77398737e-04
9.97500000e-02	2.48750527e-02	7.68569247e-04
1.00000000e-01	2.48322347e-02	6.27630559e-04
1.00500000e-01	2.50086250e-02	5.48438013e-04
1.01000000e-01	2.45506511e-02	5.35371334e-04
1.01500000e-01	2.46070048e-02	5.36081158e-04
1.02000000e-01	2.47274663e-02	5.36269942e-04
1.02500000e-01	2.44038294e-02	5.25965382e-04
1.03000000e-01	2.41680272e-02	5.23085053e-04
1.03500000e-01	2.41345939e-02	5.16765972e-04
1.04000000e-01	2.42343208e-02	5.22524549e-04
1.04500000e-01	2.40218788e-02	5.16296665e-04
1.05000000e-01	2.42574394e-02	5.15365456e-04
1.05500000e-01	2.39484518e-02	5.10484214e-04
1.06000000e-01	2.41234025e-02	5.10740305e-04
1.06500000e-01	2.40047125e-02	5.07895016e-04
1.07000000e-01	2.37574576e-02	5.12495570e-04
1.07500000e-01	2.37239829e-02	5.17689595e-04
1.08000000e-01	2.38592155e-02	5.25336406e-04
1.08500000e-01	2.31255109e-02	5.13661995e-04
1.09000000e-01	2.33793403e-02	5.22839573e-04
1.09500000e-01	2.27425594e-02	5.12224184e-04
1.10000000e-01	2.31456848e-02	5.13627583e-04
1.10500000e-01	2.30036048e-02	5.02698924e-04
1.11000000e-01	2.32669578e-02	4.99734873e-04
1.11500000e-01	2.35901444e-02	5.02711018e-04
1.12000000e-01	2.33209420e-02	4.91507100e-04
1.12500000e-01	2.34496837e-02	4.89703915e-04
1.13000000e-01	2.34423233e-02	4.90560164e-04
1.13500000e-01	2.35890904e-02	4.90329327e-04
1.14000000e-01	2.36333609e-02	4.88332591e-04
1.14500000e-01	2.33909603e-02	4.83024523e-04
1.15000000e-01	2.31248724e-02	4.74715144e-04
1.15500000e-01	2.33203139e-02	4.81351255e-04
1.16000000e-01	2.33203985e-02	4.77760510e-04
1.16500000e-01	2.34046010e-02	4.78168343e-04
1.17000000e-01	2.28753568e-02	4.66756743e-04
1.17500000e-01	2.33093470e-02	4.76470812e-04
1.18000000e-01	2.29187561e-02	4.67624299e-04
1.18500000e-01	2.29988468e-02	4.62677158e-04
1.19000000e-01	2.31741119e-02	4.66485596e-04
1.19500000e-01	2.32522996e-02	4.67057811e-04
1.20000000e-01	2.29361886e-02	4.59490041e-04
1.20500000e-01	2.31871851e-02	4.67089618e-04
1.21000000e-01	2.27496167e-02	4.55223083e-04
1.21500000e-01	2.30505719e-02	4.61788451e-04
1.22000000e-01	2.23532779e-02	4.46578481e-04
1.22500000e-01	2.31425219e-02	4.58994282e-04
1.23000000e-01	2.27827019e-02	4.54992224e-04
1.23500000e-01	2.29409416e-02	4.52899950e-04
1.24000000e-01	2.31040473e-02	4.58441816e-04
1.24500000e-01	2.29872845e-02	4.54029939e-04
1.25000000e-01	2.33971420e-02	4.61353233e-04
1.25500000e-01	2.31159267e-02	4.54999525e-04
1.26000000e-01	2.35524713e-02	4.62101263e-04
1.26500000e-01	2.32164314e-02	4.54274577e-04
1.27000000e-01	2.33530200e-02	4.53762252e-04
1.27500000e-01	2.30074339e-02	4.47897208e-04
1.28000000e-01	2.31635971e-02	4.51032749e-04
1.28500000e-01	2.30016207e-02	4.45229822e-04
1.29000000e-01	2.30170194e-02	4.48175299e-04
1.29500000e-01	2.31171953e-02	4.46128861e-04
1.30000000e-01	2.31342199e-02	4.45931828e-04
1.30500000e-01	2.30865365e-02	4.46252706e-04
1.31000000e-01	2.27765775e-02	4.37825077e-04
1.31500000e-01	2.33994580e-02	4.47135648e-04
1.32000000e-01	2.31219325e-02	4.43487117e-04
1.32500000e-01	2.31942236e-02	4.44926690e-04
1.33000000e-01	2.29507913e-02	4.36961977e-04
1.33500000e-01	2.29879545e-02	4.35295020e-04
1.34000000e-01	2.30150158e-02	4.36198564e-04
1.34500000e-01	2.29788949e-02	4.33671343e-04
1.35000000e-01	2.26313923e-02	4.27124787e-04
1.35500000e-01	2.27994752e-02	4.27062696e-04
1.36000000e-01	2.28797299e-02	4.27960423e-04
1.36500000e-01	2.34217254e-02	4.39809878e-04
1.37000000e-01	2.30497169e-02	4.31125949e-04
1.37500000e-01	2.29038506e-02	4.27396522e-04
1.38000000e-01	2.30453575e-02	4.30194658e-04
1.38500000e-01	2.29086736e-02	4.26910074e-04
1.39000000e-01	2.25175451e-02	4.22891282e-04
1.39500000e-01	2.26539096e-02	4.21482795e-04
1.40000000e-01	2.25557959e-02	4.18361854e-04
1.40500000e-01	2.23850586e-02	4.15066823e-04
1.41000000e-01	2.16014127e-02	4.00037010e-04
1.41500000e-01	2.23608356e-02	4.14939341e-04
1.42000000e-01	2.20366918e-02	4.06734737e-04
1.42500000e-01	2.20575833e-02	4.07983053e-04
1.43000000e-01	2.18249471e-02	4.03191878e-04
1.43500000e-01	2.19080405e-02	4.01395194e-04
1.44000000e-01	2.19722376e-02	4.03870285e-04
1.44500000e-01	2.20657677e-02	4.03076945e-04
1.45000000e-01	2.18693365e-02	4.01225623e-04
1.45500000e-01	2.18946875e-02	4.00177772e-04
1.46000000e-01	2.15201486e-02	3.93871240e-04
1.46500000e-01	2.14000207e-02	3.89996720e-04
1.47000000e-01	2.18038417e-02	3.96668243e-04
1.47500000e-01	2.15735627e-02	3.91330504e-04
1.48000000e-01	2.12089109e-02	3.86225183e-04
1.48500000e-01	2.15436646e-02	3.91264870e-04
1.49000000e-01	2.16114490e-02	3.90187996e-04
1.49500000e-01	2.14922796e-02	3.87773403e-04
1.50000000e-01	2.11632704e-02	3.81409117e-04
1.50500000e-01	2.11083791e-02	3.80818312e-04
1.51000000e-01	2.14100667e-02	3.84994459e-04
1.51500000e-01	2.15197086e-02	3.84581747e-04
1.52000000e-01	2.17532562e-02	3.87081418e-04
1.52500000e-01	2.14182736e-02	3.82446564e-04
1.53000000e-01	2.13507598e-02	3.81078045e-04
1.53500000e-01	2.16073931e-02	3.83006955e-04
1.54000000e-01	2.16640224e-02	3.84285041e-04
1.54500000e-01	2.14299848e-02	3.88188123e-04
1.55000000e-01	2.12079846e-02	3.88670174e-04
1.55500000e-01	2.11432588e-02	3.90829146e-04
1.56000000e-01	2.10188367e-02	3.89920428e-04
1.56500000e-01	2.12683897e-02	3.93268307e-04
1.57000000e-01	2.11276763e-02	3.92651411e-04
1.57500000e-01	2.12034957e-02	3.87385742e-04
1.58000000e-01	2.13871714e-02	3.83940885e-04
1.58500000e-01	2.09700285e-02	3.75244254e-04
1.59000000e-01	2.11769171e-02	3.76765212e-04
1.59500000e-01	2.08739478e-02	3.70025677e-04
1.60000000e-01	2.07186177e-02	3.68729501e-04
1.60500000e-01	2.08462847e-02	3.69420365e-04
1.61000000e-01	2.12489687e-02	3.76106873e-04
1.61500000e-01	2.08538679e-02	3.66477987e-04
1.62000000e-01	2.08814941e-02	3.67840984e-04
1.62500000e-01	2.10993237e-02	3.70941530e-04
1.63000000e-01	2.10257248e-02	3.67911254e-04
1.63500000e-01	2.09009439e-02	3.68427797e-04
1.64000000e-01	2.11897046e-02	3.67093112e-04
1.64500000e-01	2.08820927e-02	3.64284164e-04
1.65000000e-01	2.12516260e-02	3.68676941e-04
1.65500000e-01	2.08844362e-02	3.61615375e-04
1.66000000e-01	2.09548622e-02	3.64337499e-04
1.66500000e-01	2.09909910e-02	3.63112587e-04
1.67000000e-01	2.10695279e-02	3.63768933e-04
1.67500000e-01	2.08273137e-02	3.59668513e-04
1.68000000e-01	2.06819414e-02	3.57514021e-04
1.68500000e-01	2.05588156e-02	3.53949441e-04
1.69000000e-01	2.04777754e-02	3.52585082e-04
1.69500000e-01	2.07747581e-02	3.55166327e-04
1.70000000e-01	2.10431639e-02	3.60170276e-04
1.70500000e-01	2.06645710e-02	3.53674781e-04
1.71000000e-01	2.03834373e-02	3.49149292e-04
1.71500000e-01	2.06649634e-02	3.52899553e-04
1.72000000e-01	2.06865671e-02	3.51892935e-04
1.72500000e-01	2.08565249e-02	3.53873698e-04
1.73000000e-01	2.05917329e-02	3.50327826e-04
1.73500000e-01	2.05474360e-02	3.46673201e-04
1.74000000e-01	2.06482974e-02	3.47761312e-04
1.74500000e-01	2.04515989e-02	3.43681806e-04
1.75000000e-01	2.04652113e-02	3.41874821e-04
1.75500000e-01	2.08132718e-02	3.48522215e-04
1.76000000e-01	2.07429433e-02	3.45838453e-04
1.76500000e-01	2.05849641e-02	3.45041107e-04
1.77000000e-01	2.04098066e-02	3.40906801e-04
1.77500000e-01	2.05205281e-02	3.43531107e-04
1.78000000e-01	2.03943518e-02	3.40384826e-04
1.78500000e-01	2.07579696e-02	3.46373352e-04
1.79000000e-01	2.07410895e-02	3.44058549e-04
1.79500000e-01	2.05560182e-02	3.41580613e-04
1.80000000e-01	2.05846637e-02	3.42653521e-04
1.80500000e-01	2.05310777e-02	3.42263639e-04
1.81000000e-01	2.05233727e-02	3.39821677e-04
1.81500000e-01	2.02553184e-02	3.37115869e-04
1.82000000e-01	2.03862210e-02	3.38168168e-04
1.82500000e-01	2.03425386e-02	3.35300815e-04
1.83000000e-01	2.06650822e-02	3.39584646e-04
1.83500000e-01	2.04532829e-02	3.37708647e-04
1.84000000e-01	2.02422373e-02	3.31929022e-04
1.84500000e-01	2.05368505e-02	3.37925433e-04
1.85000000e-01	2.03980568e-02	3.34488043e-04
1.85500000e-01	2.00852413e-02	3.29576024e-04
1.86000000e-01	2.04091439e-02	3.35474749e-04
1.86500000e-01	2.03459691e-02	3.32128098e-04
1.87000000e-01	2.02531964e-02	3.30318466e-04
1.87500000e-01	2.03032405e-02	3.30534189e-04
1.88000000e-01	2.00774815e-02	3.26342755e-04
1.88500000e-01	2.03698136e-02	3.30927946e-04
1.89000000e-01	2.01638271e-02	3.26437950e-04
1.89500000e-01	2.02750217e-02	3.30436005e-04
1.90000000e-01	2.01601781e-02	3.26930378e-04
1.90500000e-01	2.01991599e-02	3.29440558e-04
1.91000000e-01	2.03447649e-02	3.28410194e-04
1.91500000e-01	2.03121164e-02	3.28065188e-04
1.92000000e-01	2.00215330e-02	3.22710888e-04
1.92500000e-01	2.00871843e-02	3.22222682e-04
1.93000000e-01	2.00436435e-02	3.23527114e-04
1.93500000e-01	2.02575722e-02	3.25467733e-04
1.94000000e-01	2.01612549e-02	3.24378145e-04
1.94500000e-01	1.99973169e-02	3.20867149e-04
1.95000000e-01	2.00087647e-02	3.20090452e-04
1.95500000e-01	2.00497034e-02	3.20036203e-04
1.96000000e-01	2.01375100e-02	3.21166556e-04
1.96500000e-01	2.00908762e-02	3.19600164e-04
1.97000000e-01	2.01392911e-02	3.19685563e-04
1.97500000e-01	1.98391580e-02	3.16165654e-04
1.98000000e-01	1.97616794e-02	3.14628901e-04
1.98500000e-01	2.00317216e-02	3.19006866e-04
1.99000000e-01	1.99956152e-02	3.16758658e-04
1.99500000e-01	2.00348517e-02	3.16653759e-04
2.00000000e-01	1.99338444e-02	3.15610592e-04
2.00500000e-01	1.97428990e-02	3.12067412e-04
2.01000000e-01	1.99485108e-02	3.13511324e-04
2.01500000e-01	1.99137836e-02	3.14078529e-04
2.02000000e-01	1.98288465e-02	3.12975986e-04
2.02500000e-01	1.99662732e-02	3.13564654e-04
2.03000000e-01	1.97392978e-02	3.10012473e-04
2.03500000e-01	1.99124018e-02	3.13143741e-04
2.04000000e-01	1.98971344e-02	3.10877602e-04
2.04500000e-01	1.97978465e-02	3.10783181e-04
2.05000000e-01	2.00111813e-02	3.12271857e-04
2.05500000e-01	1.96793715e-02	3.06696090e-04
2.06000000e-01	1.99949728e-02	3.11321128e-04
2.06500000e-01	1.96123241e-02	3.06812384e-04
2.07000000e-01	1.98736386e-02	3.08722861e-04
2.07500000e-01	1.98683601e-02	3.07745437e-04
2.08000000e-01	1.95890973e-02	3.04941386e-04
2.08500000e-01	1.98188768e-02	3.07344924e-04
2.09000000e-01	1.98151842e-02	3.07712357e-04
2.09500000e-01	1.95973242e-02	3.02917835e-04
2.10000000e-01	1.96078784e-02	3.03672695e-04
2.10500000e-01	1.96825087e-02	3.03625880e-04
2.11000000e-01	1.97849596e-02	3.04441870e-04
2.11500000e-01	1.97524072e-02	3.04611668e-04
2.12000000e-01	1.97792290e-02	3.04375083e-04
2.12500000e-01	1.97255330e-02	3.03320215e-04
2.13000000e-01	1.93726983e-02	2.98266473e-04
2.13500000e-01	1.94097649e-02	2.98152212e-04
2.14000000e-01	1.95040018e-02	2.99622003e-04
2.14500000e-01	1.96678114e-02	3.00119244e-04
2.15000000e-01	1.95975750e-02	3.01297573e-04
2.15500000e-01	1.93968971e-02	2.96252183e-04
2.16000000e-01	1.95109268e-02	2.98402316e-04
2.16500000e-01	1.96052771e-02	2.98640084e-04
2.17000000e-01	1.97240370e-02	3.04470098e-04
2.17500000e-01	1.93308702e-02	3.03741260e-04
2.18000000e-01	1.94333080e-02	3.05344394e-04
2.18500000e-01	1.93874725e-02	3.06871733e-04
2.19000000e-01	1.91602734e-02	3.05023755e-04
2.19500000e-01	1.96485846e-02	3.12426448e-04
2.20000000e-01	1.95869059e-02	3.14047988e-04
2.20500000e-01	1.96740169e-02	3.15849774e-04
2.21000000e-01	1.97002724e-02	3.17692959e-04
2.21500000e-01	1.91800225e-02	3.10834615e-04
2.22000000e-01	1.95599266e-02	3.18007567e-04
2.22500000e-01	1.94896384e-02	3.16792712e-04
2.23000000e-01	1.94495610e-02	3.16071715e-04
2.23500000e-01	1.93423357e-02	3.15571651e-04
2.24000000e-01	1.95375530e-02	3.18115437e-04
2.24500000e-01	1.95234295e-02	3.19436469e-04
2.25000000e-01	1.94370397e-02	3.18455048e-04
2.25500000e-01	1.91634908e-02	3.14818029e-04
2.26000000e-01	1.92185974e-02	3.16864697e-04
2.26500000e-01	1.93872196e-02	3.13058666e-04
2.27000000e-01	1.91827640e-02	3.07753087e-04
2.27500000e-01	1.93626415e-02	3.08269983e-04
2.28000000e-01	1.92353121e-02	3.04974203e-04
2.28500000e-01	1.94675570e-02	3.07195894e-04
2.29000000e-01	1.91265141e-02	3.00900415e-04
2.29500000e-01	1.90260985e-02	2.97743360e-04
2.30000000e-01	1.91613149e-02	3.00515564e-04
2.30500000e-01	1.92225066e-02	2.98909492e-04
2.31000000e-01	1.92537704e-02	2.98175064e-04
2.31500000e-01	1.90523505e-02	2.96049374e-04
2.32000000e-01	1.92382664e-02	2.97085082e-04
2.32500000e-01	1.88760342e-02	2.92194835e-04
2.33000000e-01	1.91261793e-02	2.94121124e-04
2.33500000e-01	1.93200996e-02	2.96238128e-04
2.34000000e-01	1.91508425e-02	2.92797901e-04
2.34500000e-01	1.91699777e-02	2.93398651e-04
2.35000000e-01	1.91134435e-02	2.91436559e-04
2.35500000e-01	1.89641917e-02	2.88806575e-04
2.36000000e-01	1.89866443e-02	2.89337396e-04
2.36500000e-01	1.90044770e-02	2.88948546e-04
2.37000000e-01	1.92123685e-02	2.91034709e-04
2.37500000e-01	1.90403467e-02	2.88740299e-04
2.38000000e-01	1.89526073e-02	2.86367162e-04
2.38500000e-01	1.90919376e-02	2.87912597e-04
2.39000000e-01	1.90499673e-02	2.86699766e-04
2.39500000e-01	1.89607644e-02	2.84813767e-04
2.40000000e-01	1.90673529e-02	2.86407337e-04
2.40500000e-01	1.89878152e-02	2.83516498e-04
2.41000000e-01	1.90248485e-02	2.83903003e-04
2.41500000e-01	1.89509655e-02	2.83090668e-04
2.42000000e-01	1.91631010e-02	2.85104586e-04
2.42500000e-01	1.91370294e-02	2.84137271e-04
2.43000000e-01	1.89572488e-02	2.81113428e-04
2.43500000e-01	1.89339247e-02	2.80843845e-04
2.44000000e-01	1.90097619e-02	2.81323220e-04
2.44500000e-01	1.88568701e-02	2.79542429e-04
2.45000000e-01	1.88169366e-02	2.78102381e-04
2.45500000e-01	1.89907505e-02	2.80706780e-04
2.46000000e-01	1.87959100e-02	2.77929428e-04
2.46500000e-01	1.86767497e-02	2.75256662e-04
2.47000000e-01	1.89951241e-02	2.79595551e-04
2.47500000e-01	1.88095294e-02	2.76640161e-04
2.48000000e-01	1.88311318e-02	2.76443820e-04
2.48500000e-01	1.89080941e-02	2.77182651e-04
2.49000000e-01	1.87649852e-02	2.74091998e-04
2.49500000e-01	1.87617477e-02	2.74699485e-04
2.50000000e-01	1.84951999e-02	2.70750656e-04
2.50500000e-01	1.87741260e-02	2.75213443e-04
2.51000000e-01	1.89973124e-02	2.76783423e-04
2.51500000e-01	1.88952108e-02	2.74465079e-04
2.52000000e-01	1.88816223e-02	2.75060708e-04
2.52500000e-01	1.88840656e-02	2.73900473e-04
2.53000000e-01	1.87593928e-02	2.71441080e-04
2.53500000e-01	1.87926178e-02	2.72233332e-04
2.54000000e-01	1.88013606e-02	2.72401471e-04
2.54500000e-01	1.86718019e-02	2.70757942e-04
2.55000000e-01	1.87215974e-02	2.71037932e-04
2.55500000e-01	1.88028410e-02	2.71481413e-04
2.56000000e-01	1.87554347e-02	2.69381280e-04
2.56500000e-01	1.87596665e-02	2.70183160e-04
2.57000000e-01	1.87560118e-02	2.68789480e-04
2.57500000e-01	1.87476379e-02	2.69334048e-04
2.58000000e-01	1.87981714e-02	2.68989399e-04
2.58500000e-01	1.88414756e-02	2.69279490e-04
2.59000000e-01	1.85203644e-02	2.65785669e-04
2.59500000e-01	1.85740097e-02	2.65433384e-04
2.60000000e-01	1.87771328e-02	2.68016178e-04
2.60500000e-01	1.87196641e-02	2.67706925e-04
2.61000000e-01	1.85475780e-02	2.65806708e-04
2.61500000e-01	1.85538288e-02	2.64764484e-04
2.62000000e-01	1.83809053e-02	2.62133113e-04
2.62500000e-01	1.83899434e-02	2.61676302e-04
2.63000000e-01	1.85537353e-02	2.64200877e-04
2.63500000e-01	1.85190725e-02	2.62852015e-04
2.64000000e-01	1.85386204e-02	2.62445039e-04
2.64500000e-01	1.84426195e-02	2.60814267e-04
2.65000000e-01	1.82688077e-02	2.59388443e-04
2.65500000e-01	1.83672542e-02	2.59806877e-04
2.66000000e-01	1.84232132e-02	2.60441429e-04
2.66500000e-01	1.84319944e-02	2.59525717e-04
2.67000000e-01	1.84979822e-02	2.60540399e-04
2.67500000e-01	1.85640056e-02	2.59646242e-04
2.68000000e-01	1.85651735e-02	2.60207196e-04
2.68500000e-01	1.84223647e-02	2.58161934e-04
2.69000000e-01	1.84688463e-02	2.59275243e-04
2.69500000e-01	1.84406051e-02	2.58870350e-04
2.70000000e-01	1.84039247e-02	2.58204498e-04
2.70500000e-01	1.85852670e-02	2.58760395e-04
2.71000000e-01	1.84992956e-02	2.58061778e-04
2.71500000e-01	1.83633174e-02	2.56284334e-04
2.72000000e-01	1.83482163e-02	2.55963082e-04
2.72500000e-01	1.83924335e-02	2.56641942e-04
2.73000000e-01	1.83693686e-02	2.55019496e-04
2.73500000e-01	1.83889664e-02	2.55511390e-04
2.74000000e-01	1.83431157e-02	2.53645722e-04
2.74500000e-01	1.82834132e-02	2.53437939e-04
2.75000000e-01	1.84296929e-02	2.54970157e-04
2.75500000e-01	1.83075666e-02	2.52895980e-04
2.76000000e-01	1.85252271e-02	2.56012174e-04
2.76500000e-01	1.83684326e-02	2.54021334e-04
2.77000000e-01	1.84085624e-02	2.53929751e-04
2.77500000e-01	1.82930956e-02	2.53132129e-04
2.78000000e-01	1.85620391e-02	2.55466519e-04
2.78500000e-01	1.82827057e-02	2.51167399e-04
2.79000000e-01	1.83922853e-02	2.52855758e-04
2.79500000e-01	1.80406798e-02	2.47823330e-04
2.80000000e-01	1.82274288e-02	2.51095279e-04
2.80500000e-01	1.81343416e-02	2.49717021e-04
2.81000000e-01	1.84432456e-02	2.53806682e-04
2.81500000e-01	1.83217237e-02	2.51334769e-04
2.82000000e-01	1.82703270e-02	2.50905416e-04
2.82500000e-01	1.83678527e-02	2.52238601e-04
2.83000000e-01	1.83337710e-02	2.50069278e-04
2.83500000e-01	1.80943199e-02	2.46657102e-04
2.84000000e-01	1.82046240e-02	2.48091118e-04
2.84500000e-01	1.79333605e-02	2.45354577e-04
2.85000000e-01	1.83182979e-02	2.49808521e-04
2.85500000e-01	1.82288665e-02	2.47144672e-04
2.86000000e-01	1.81569068e-02	2.46544475e-04
2.86500000e-01	1.80348984e-02	2.45104252e-04
2.87000000e-01	1.80564065e-02	2.45604679e-04
2.87500000e-01	1.80864017e-02	2.44309130e-04
2.88000000e-01	1.81544334e-02	2.45422860e-04
2.88500000e-01	1.78337525e-02	2.41769624e-04
2.89000000e-01	1.79655462e-02	2.43410879e-04
2.89500000e-01	1.80675742e-02	2.45209078e-04
2.90000000e-01	1.78511131e-02	2.41004631e-04
2.90500000e-01	1.80904943e-02	2.43693711e-04
2.91000000e-01	1.81191749e-02	2.43938342e-04
2.91500000e-01	1.80652922e-02	2.42428820e-04
2.92000000e-01	1.79872539e-02	2.41379114e-04
2.92500000e-01	1.80469102e-02	2.42158612e-04
2.93000000e-01	1.77445838e-02	2.38127769e-04
2.93500000e-01	1.79392262e-02	2.39697948e-04
2.94000000e-01	1.77651459e-02	2.38212704e-04
2.94500000e-01	1.78262531e-02	2.39457482e-04
2.95000000e-01	1.76741214e-02	2.36047030e-04
2.95500000e-01	1.79189041e-02	2.39575639e-04
2.96000000e-01	1.78410510e-02	2.37965352e-04
2.96500000e-01	1.78031851e-02	2.38247034e-04
2.97000000e-01	1.77663490e-02	2.37196998e-04
2.97500000e-01	1.78033503e-02	2.37413069e-04
2.98000000e-01	1.76659490e-02	2.35403068e-04
2.98500000e-01	1.78307075e-02	2.37204817e-04
2.99000000e-01	1.79764444e-02	2.39170544e-04
2.99500000e-01	1.77571563e-02	2.36048266e-04
3.00000000e-01	1.77265709e-02	2.34689315e-04
3.00500000e-01	1.77903373e-02	2.36135350e-04
3.01000000e-01	1.77860907e-02	2.35929106e-04
3.01500000e-01	1.77946632e-02	2.35836883e-04
3.02000000e-01	1.77766282e-02	2.35731795e-04
3.02500000e-01	1.77698381e-02	2.35333618e-04
3.03000000e-01	1.78092793e-02	2.36092534e-04
3.03500000e-01	1.77815699e-02	2.34444375e-04
3.04000000e-01	1.77457624e-02	2.34303855e-04
3.04500000e-01	1.77395786e-02	2.33728648e-04
3.05000000e-01	1.76007139e-02	2.31760740e-04
3.05500000e-01	1.79206542e-02	2.35353814e-04
3.06000000e-01	1.79809601e-02	2.34154339e-04
3.06500000e-01	1.78020847e-02	2.33422291e-04
3.07000000e-01	1.76401042e-02	2.30367044e-04
3.07500000e-01	1.76631316e-02	2.31302557e-04
3.08000000e-01	1.73203915e-02	2.27605827e-04
3.08500000e-01	1.76370945e-02	2.30012341e-04
3.09000000e-01	1.76052765e-02	2.30472754e-04
3.09500000e-01	1.75851822e-02	2.30203880e-04
3.10000000e-01	1.75630487e-02	2.29908033e-04
3.10500000e-01	1.76767062e-02	2.30732440e-04
3.11000000e-01	1.75237689e-02	2.28049574e-04
3.11500000e-01	1.76058542e-02	2.29311271e-04
3.12000000e-01	1.75493275e-02	2.28944550e-04
3.12500000e-01	1.74945997e-02	2.27799835e-04
3.13000000e-01	1.75361358e-02	2.28065385e-04
3.13500000e-01	1.75867131e-02	2.28890628e-04
3.14000000e-01	1.74243629e-02	2.26179770e-04
3.14500000e-01	1.75304710e-02	2.26974578e-04
3.15000000e-01	1.75660899e-02	2.28043436e-04
3.15500000e-01	1.75828388e-02	2.27760656e-04
3.16000000e-01	1.73135027e-02	2.24620563e-04
3.16500000e-01	1.74159524e-02	2.25549677e-04
3.17000000e-01	1.75347007e-02	2.26255335e-04
3.17500000e-01	1.75723668e-02	2.26814776e-04
3.18000000e-01	1.76041209e-02	2.26966463e-04
3.18500000e-01	1.75180762e-02	2.26058711e-04
3.19000000e-01	1.74314592e-02	2.24377780e-04
3.19500000e-01	1.74923883e-02	2.24997377e-04
3.20000000e-01	1.74333447e-02	2.24122906e-04
3.20500000e-01	1.72722411e-02	2.22405360e-04
3.21000000e-01	1.73460715e-02	2.22823138e-04
3.21500000e-01	1.75059530e-02	2.24979126e-04
3.22000000e-01	1.73481324e-02	2.22641101e-04
3.22500000e-01	1.73332223e-02	2.22155911e-04
3.23000000e-01	1.73638646e-02	2.22957920e-04
3.23500000e-01	1.73226680e-02	2.22465636e-04
3.24000000e-01	1.73240015e-02	2.21255263e-04
3.24500000e-01	1.72517144e-02	2.21544674e-04
3.25000000e-01	1.72509565e-02	2.19557256e-04
3.25500000e-01	1.71961523e-02	2.19911260e-04
3.26000000e-01	1.72772778e-02	2.20173892e-04
3.26500000e-01	1.71777311e-02	2.18458292e-04
3.27000000e-01	1.72981052e-02	2.20566145e-04
3.27500000e-01	1.72374360e-02	2.19642455e-04
3.28000000e-01	1.72295194e-02	2.19504555e-04
3.28500000e-01	1.71069986e-02	2.17203116e-04
3.29000000e-01	1.72436357e-02	2.18175074e-04
3.29500000e-01	1.71434152e-02	2.18249366e-04
3.30000000e-01	1.73106763e-02	2.19705199e-04
3.30500000e-01	1.73191441e-02	2.19396235e-04
3.31000000e-01	1.73035701e-02	2.18167880e-04
3.31500000e-01	1.70777887e-02	2.16554038e-04
3.32000000e-01	1.70957443e-02	2.17048873e-04
3.32500000e-01	1.72071770e-02	2.17193349e-04
3.33000000e-01	1.70195352e-02	2.15562559e-04
3.33500000e-01	1.71352705e-02	2.15868766e-04
3.34000000e-01	1.71686302e-02	2.16397785e-04
3.34500000e-01	1.71724309e-02	2.16450831e-04
3.35000000e-01	1.70993021e-02	2.14296248e-04
3.35500000e-01	1.71771842e-02	2.16224254e-04
3.36000000e-01	1.70303915e-02	2.13887426e-04
3.36500000e-01	1.69529867e-02	2.13562688e-04
3.37000000e-01	1.71311327e-02	2.15118097e-04
3.37500000e-01	1.70334512e-02	2.13081300e-04
3.38000000e-01	1.69917018e-02	2.12814251e-04
3.38500000e-01	1.71861153e-02	2.15261430e-04
3.39000000e-01	1.70771026e-02	2.13924504e-04
3.39500000e-01	1.71496827e-02	2.13867006e-04
3.40000000e-01	1.69632210e-02	2.12621418e-04
3.40500000e-01	1.71487603e-02	2.14148566e-04
3.41000000e-01	1.68928111e-02	2.10322238e-04
3.41500000e-01	1.71813108e-02	2.14221092e-04
3.42000000e-01	1.69940865e-02	2.11755836e-04
3.42500000e-01	1.69879224e-02	2.12139092e-04
3.43000000e-01	1.70596726e-02	2.11782926e-04
3.43500000e-01	1.69471990e-02	2.10574520e-04
3.44000000e-01	1.68143307e-02	2.10328141e-04
3.44500000e-01	1.68650869e-02	2.09959999e-04
3.45000000e-01	1.69373886e-02	2.10205044e-04
3.45500000e-01	1.69272544e-02	2.09559201e-04
3.46000000e-01	1.68078945e-02	2.09167574e-04
3.46500000e-01	1.68862200e-02	2.08901022e-04
3.47000000e-01	1.68926002e-02	2.09229274e-04
3.47500000e-01	1.68827488e-02	2.08740882e-04
3.48000000e-01	1.69104739e-02	2.09322461e-04
3.48500000e-01	1.68556057e-02	2.08172853e-04
3.49000000e-01	1.68283857e-02	2.07445831e-04
3.49500000e-01	1.69127881e-02	2.09084188e-04
3.50000000e-01	1.67568494e-02	1.69060740e-04
3.51000000e-01	1.67533060e-02	1.45812417e-04
3.52000000e-01	1.68206829e-02	1.46339450e-04
3.53000000e-01	1.67227752e-02	1.45364841e-04
3.54000000e-01	1.67189907e-02	1.44472099e-04
3.55000000e-01	1.67650654e-02	1.44851412e-04
3.56000000e-01	1.68045581e-02	1.45882537e-04
3.57000000e-01	1.66197290e-02	1.47141460e-04
3.58000000e-01	1.67365827e-02	1.49035785e-04
3.59000000e-01	1.66788542e-02	1.49708707e-04
3.60000000e-01	1.66002250e-02	1.50083879e-04
3.61000000e-01	1.65713257e-02	1.50609945e-04
3.62000000e-01	1.66203074e-02	1.51775220e-04
3.63000000e-01	1.65853358e-02	1.52059802e-04
3.64000000e-01	1.65394859e-02	1.52368264e-04
3.65000000e-01	1.64863269e-02	1.51923696e-04
3.66000000e-01	1.65122563e-02	1.50222685e-04
3.67000000e-01	1.65215010e-02	1.48736369e-04
3.68000000e-01	1.64412487e-02	1.47043290e-04
3.69000000e-01	1.64051400e-02	1.45855315e-04
3.70000000e-01	1.65241757e-02	1.45864979e-04
3.71000000e-01	1.64200933e-02	1.47174554e-04
3.72000000e-01	1.64767761e-02	1.48814093e-04
3.73000000e-01	1.63138411e-02	1.47749442e-04
3.74000000e-01	1.64182520e-02	1.48486045e-04
3.75000000e-01	1.64989628e-02	1.49344323e-04
3.76000000e-01	1.64238738e-02	1.48576547e-04
3.77000000e-01	1.63621642e-02	1.48062139e-04
3.78000000e-01	1.63048486e-02	1.47882513e-04
3.79000000e-01	1.63084915e-02	1.47559187e-04
3.80000000e-01	1.63074218e-02	1.47057421e-04
3.81000000e-01	1.63224698e-02	1.47428002e-04
3.82000000e-01	1.60949144e-02	1.45827527e-04
3.83000000e-01	1.62095760e-02	1.46407271e-04
3.84000000e-01	1.61091338e-02	1.45835881e-04
3.85000000e-01	1.61670025e-02	1.46155550e-04
3.86000000e-01	1.62308137e-02	1.46817880e-04
3.87000000e-01	1.61710451e-02	1.46161128e-04
3.88000000e-01	1.61759727e-02	1.46010714e-04
3.89000000e-01	1.60164701e-02	1.44428300e-04
3.90000000e-01	1.61419556e-02	1.45625963e-04
3.91000000e-01	1.61589219e-02	1.45584624e-04
3.92000000e-01	1.60006566e-02	1.43985743e-04
3.93000000e-01	1.60516386e-02	1.44551995e-04
3.94000000e-01	1.61628416e-02	1.45626111e-04
3.95000000e-01	1.60316955e-02	1.44177036e-04
3.96000000e-01	1.59428822e-02	1.43999742e-04
3.97000000e-01	1.58800940e-02	1.43035499e-04
3.98000000e-01	1.59251207e-02	1.43577954e-04
3.99000000e-01	1.59214848e-02	1.43484925e-04
4.00000000e-01	1.59519953e-02	1.43698090e-04
4.01000000e-01	1.59418193e-02	1.43768570e-04
4.02000000e-01	1.60575078e-02	1.44500597e-04
4.03000000e-01	1.57973381e-02	1.42186847e-04
4.04000000e-01	1.59289425e-02	1.43655537e-04
4.05000000e-01	1.59718298e-02	1.43886832e-04
4.06000000e-01	1.59317490e-02	1.43371224e-04
4.07000000e-01	1.58506065e-02	1.43116481e-04
4.08000000e-01	1.59176132e-02	1.43201298e-04
4.09000000e-01	1.57208378e-02	1.41337552e-04
4.10000000e-01	1.57660869e-02	1.41911566e-04
4.11000000e-01	1.57640060e-02	1.41785961e-04
4.12000000e-01	1.57421762e-02	1.41317462e-04
4.13000000e-01	1.57608328e-02	1.41513776e-04
4.14000000e-01	1.57772117e-02	1.41679335e-04
4.15000000e-01	1.59497392e-02	1.42609019e-04
4.16000000e-01	1.55706931e-02	1.40046738e-04
4.17000000e-01	1.56273010e-02	1.40105726e-04
4.18000000e-01	1.59244667e-02	1.44489799e-04
4.19000000e-01	1.58048565e-02	1.45157354e-04
4.20000000e-01	1.58339023e-02	1.45698545e-04
4.21000000e-01	1.58093909e-02	1.46053195e-04
4.22000000e-01	1.58030042e-02	1.46585194e-04
4.23000000e-01	1.57192509e-02	1.46678001e-04
4.24000000e-01	1.58761826e-02	1.48413568e-04
4.25000000e-01	1.57775316e-02	1.47421279e-04
4.26000000e-01	1.57697294e-02	1.48153999e-04
4.27000000e-01	1.58047320e-02	1.47787802e-04
4.28000000e-01	1.57202426e-02	1.47672781e-04
4.29000000e-01	1.56921233e-02	1.47251402e-04
4.30000000e-01	1.56417469e-02	1.46904608e-04
4.31000000e-01	1.56449631e-02	1.46748610e-04
4.32000000e-01	1.58490665e-02	1.48969192e-04
4.33000000e-01	1.58105497e-02	1.48474355e-04
4.34000000e-01	1.55951705e-02	1.46989500e-04
4.35000000e-01	1.55356622e-02	1.46480609e-04
4.36000000e-01	1.57451481e-02	1.48528677e-04
4.37000000e-01	1.56922400e-02	1.48267519e-04
4.38000000e-01	1.56437700e-02	1.48373965e-04
4.39000000e-01	1.54587683e-02	1.46930781e-04
4.40000000e-01	1.56927345e-02	1.48919351e-04
4.41000000e-01	1.55842445e-02	1.47895588e-04
4.42000000e-01	1.54433096e-02	1.47031078e-04
4.43000000e-01	1.56332931e-02	1.48667381e-04
4.44000000e-01	1.55817755e-02	1.48440588e-04
4.45000000e-01	1.55500287e-02	1.48121002e-04
4.46000000e-01	1.56042623e-02	1.48839945e-04
4.47000000e-01	1.54694898e-02	1.48323754e-04
4.48000000e-01	1.54876134e-02	1.48450878e-04
4.49000000e-01	1.54513031e-02	1.48308713e-04
4.50000000e-01	1.54240980e-02	1.48394574e-04
4.51000000e-01	1.53198953e-02	1.47212383e-04
4.52000000e-01	1.55720195e-02	1.49533711e-04
4.53000000e-01	1.54031306e-02	1.48392004e-04
4.54000000e-01	1.55326931e-02	1.49770938e-04
4.55000000e-01	1.54017905e-02	1.48642027e-04
4.56000000e-01	1.54732498e-02	1.49301450e-04
4.57000000e-01	1.53841106e-02	1.48326499e-04
4.58000000e-01	1.52774762e-02	1.47531371e-04
4.59000000e-01	1.53662504e-02	1.48390577e-04
4.60000000e-01	1.54193570e-02	1.49242264e-04
4.61000000e-01	1.53811139e-02	1.48758899e-04
4.62000000e-01	1.53269380e-02	1.48911434e-04
4.63000000e-01	1.53414406e-02	1.49101661e-04
4.64000000e-01	1.55408758e-02	1.50704191e-04
4.65000000e-01	1.53528674e-02	1.49143983e-04
4.66000000e-01	1.53926170e-02	1.49327030e-04
4.67000000e-01	1.53528977e-02	1.49445431e-04
4.68000000e-01	1.52441897e-02	1.48842627e-04
4.69000000e-01	1.53001121e-02	1.49255308e-04
4.70000000e-01	1.53419824e-02	1.49678874e-04
4.71000000e-01	1.52263813e-02	1.48490906e-04
4.72000000e-01	1.52421946e-02	1.48627109e-04
4.73000000e-01	1.51699362e-02	1.48103101e-04
4.74000000e-01	1.51412211e-02	1.47777199e-04
4.75000000e-01	1.52095849e-02	1.48068419e-04
4.76000000e-01	1.52275628e-02	1.48478600e-04
4.77000000e-01	1.52657539e-02	1.48491076e-04
4.78000000e-01	1.52405146e-02	1.48864250e-04
4.79000000e-01	1.51746870e-02	1.48160327e-04
4.80000000e-01	1.51691566e-02	1.48094297e-04
4.81000000e-01	1.51264254e-02	1.47767072e-04
4.82000000e-01	1.50168211e-02	1.46533301e-04
4.83000000e-01	1.51791444e-02	1.48482834e-04
4.84000000e-01	1.50910177e-02	1.47710986e-04
4.85000000e-01	1.50954799e-02	1.47591013e-04
4.86000000e-01	1.50684096e-02	1.47869460e-04
4.87000000e-01	1.51831807e-02	1.48947257e-04
4.88000000e-01	1.50028237e-02	1.47207577e-04
4.89000000e-01	1.50671696e-02	1.47843938e-04
4.90000000e-01	1.51259321e-02	1.48476828e-04
4.91000000e-01	1.51275254e-02	1.48395460e-04
4.92000000e-01	1.47894409e-02	1.46314020e-04
4.93000000e-01	1.51314838e-02	1.48801523e-04
4.94000000e-01	1.50193475e-02	1.47776877e-04
4.95000000e-01	1.50555849e-02	1.49452885e-04
4.96000000e-01	1.50519270e-02	1.53714449e-04
4.97000000e-01	1.50895956e-02	1.57170974e-04
4.98000000e-01	1.51025942e-02	1.58828684e-04
4.99000000e-01	1.50737688e-02	1.60325563e-04
5.00000000e-01	1.50379918e-02	1.62125431e-04
5.01000000e-01	1.50403571e-02	1.63218221e-04
5.02000000e-01	1.51050175e-02	1.65854997e-04
5.03000000e-01	1.49056837e-02	1.65548336e-04
5.04000000e-01	1.49328328e-02	1.66443946e-04
5.05000000e-01	1.50758395e-02	1.65798442e-04
5.06000000e-01	1.50195405e-02	1.61586488e-04
5.07000000e-01	1.50177235e-02	1.59843855e-04
5.08000000e-01	1.50914538e-02	1.59633019e-04
5.09000000e-01	1.50191324e-02	1.58258604e-04
5.10000000e-01	1.51453895e-02	1.59081747e-04
5.11000000e-01	1.49997732e-02	1.57296036e-04
5.12000000e-01	1.49171226e-02	1.56089130e-04
5.13000000e-01	1.50316264e-02	1.56984493e-04
5.14000000e-01	1.49458330e-02	1.56139513e-04
5.15000000e-01	1.48795520e-02	1.54468707e-04
5.16000000e-01	1.49062783e-02	1.54322615e-04
5.17000000e-01	1.48638619e-02	1.54224558e-04
5.18000000e-01	1.49593364e-02	1.54788968e-04
5.19000000e-01	1.50374988e-02	1.54553961e-04
5.20000000e-01	1.48216858e-02	1.52740435e-04
5.21000000e-01	1.48079803e-02	1.52176208e-04
5.22000000e-01	1.48366392e-02	1.51946798e-04
5.23000000e-01	1.49093104e-02	1.52452706e-04
5.24000000e-01	1.47098472e-02	1.51113251e-04
5.25000000e-01	1.48174582e-02	1.52261368e-04
5.26000000e-01	1.48204462e-02	1.51743886e-04
5.27000000e-01	1.47833626e-02	1.51882079e-04
5.28000000e-01	1.48244074e-02	1.51709191e-04
5.29000000e-01	1.47310189e-02	1.51161142e-04
5.30000000e-01	1.47238484e-02	1.52069001e-04
5.31000000e-01	1.47995710e-02	1.51637195e-04
5.32000000e-01	1.47796018e-02	1.51717024e-04
5.33000000e-01	1.46829127e-02	1.50591454e-04
5.34000000e-01	1.46418887e-02	1.50198596e-04
5.35000000e-01	1.46649203e-02	1.50353212e-04
5.36000000e-01	1.46351220e-02	1.50408716e-04
5.37000000e-01	1.46602580e-02	1.50693283e-04
5.38000000e-01	1.45841348e-02	1.49790444e-04
5.39000000e-01	1.45923160e-02	1.49731534e-04
5.40000000e-01	1.44437608e-02	1.48507743e-04
5.41000000e-01	1.45954333e-02	1.50241502e-04
5.42000000e-01	1.47275024e-02	1.51258740e-04
5.43000000e-01	1.45325615e-02	1.49474025e-04
5.44000000e-01	1.44823058e-02	1.48899738e-04
5.45000000e-01	1.46139908e-02	1.50126644e-04
5.46000000e-01	1.45587992e-02	1.49247098e-04
5.47000000e-01	1.44819996e-02	1.49184686e-04
5.48000000e-01	1.46341794e-02	1.50620492e-04
5.49000000e-01	1.44395369e-02	1.48304094e-04
5.50000000e-01	1.45662155e-02	1.48859680e-04
5.51000000e-01	1.44597730e-02	1.47767662e-04
5.52000000e-01	1.45271386e-02	1.47910124e-04
5.53000000e-01	1.45275500e-02	1.48339987e-04
5.54000000e-01	1.44953499e-02	1.48080875e-04
5.55000000e-01	1.44888213e-02	1.48181801e-04
5.56000000e-01	1.43678298e-02	1.46914633e-04
5.57000000e-01	1.44737959e-02	1.47664941e-04
5.58000000e-01	1.45246379e-02	1.48547957e-04
5.59000000e-01	1.44588517e-02	1.47181947e-04
5.60000000e-01	1.44396113e-02	1.47886358e-04
5.61000000e-01	1.46063636e-02	1.48502071e-04
5.62000000e-01	1.42568309e-02	1.45732617e-04
5.63000000e-01	1.42738825e-02	1.46160982e-04
5.64000000e-01	1.44700177e-02	1.47811540e-04
5.65000000e-01	1.43096186e-02	1.46411225e-04
5.66000000e-01	1.44235192e-02	1.47458432e-04
5.67000000e-01	1.44596497e-02	1.47860646e-04
5.68000000e-01	1.44011282e-02	1.47044625e-04
5.69000000e-01	1.43972757e-02	1.46889202e-04
5.70000000e-01	1.43916016e-02	1.46742605e-04
5.71000000e-01	1.43355708e-02	1.46755794e-04
5.72000000e-01	1.42565777e-02	1.45484162e-04
5.73000000e-01	1.42351576e-02	1.45767033e-04
5.74000000e-01	1.42709220e-02	1.45548948e-04
5.75000000e-01	1.44073858e-02	1.47758780e-04
5.76000000e-01	1.42443881e-02	1.45765065e-04
5.77000000e-01	1.41750418e-02	1.45293878e-04
5.78000000e-01	1.42081227e-02	1.45139737e-04
5.79000000e-01	1.42488596e-02	1.45851191e-04
5.80000000e-01	1.41718758e-02	1.45182799e-04
5.81000000e-01	1.41918387e-02	1.45157765e-04
5.82000000e-01	1.42070229e-02	1.45933719e-04
5.83000000e-01	1.41392716e-02	1.44951816e-04
5.84000000e-01	1.41658337e-02	1.45249029e-04
5.85000000e-01	1.41010669e-02	1.44396557e-04
5.86000000e-01	1.42338157e-02	1.46031384e-04
5.87000000e-01	1.40984596e-02	1.44250426e-04
5.88000000e-01	1.42096683e-02	1.45800774e-04
5.89000000e-01	1.41967307e-02	1.45468426e-04
5.90000000e-01	1.41154312e-02	1.44826038e-04
5.91000000e-01	1.41526232e-02	1.45020974e-04
5.92000000e-01	1.41740574e-02	1.45034588e-04
5.93000000e-01	1.40816604e-02	1.45150215e-04
5.94000000e-01	1.41136536e-02	1.45104831e-04
5.95000000e-01	1.40808878e-02	1.44539414e-04
5.96000000e-01	1.40797343e-02	1.44612414e-04
5.97000000e-01	1.40973695e-02	1.44417694e-04
5.98000000e-01	1.40990256e-02	1.45050367e-04
5.99000000e-01	1.40058771e-02	1.43590455e-04
6.00000000e-01	1.39766045e-02	1.43917952e-04
6.01000000e-01	1.39094366e-02	1.42846602e-04
6.02000000e-01	1.39139062e-02	1.43096452e-04
6.03000000e-01	1.40569546e-02	1.44325207e-04
6.04000000e-01	1.39724957e-02	1.43967052e-04
6.05000000e-01	1.39413875e-02	1.43793878e-04
6.06000000e-01	1.39570394e-02	1.43751270e-04
6.07000000e-01	1.39421488e-02	1.43536757e-04
6.08000000e-01	1.39404283e-02	1.43665012e-04
6.09000000e-01	1.38845358e-02	1.42907634e-04
6.10000000e-01	1.40580297e-02	1.44662279e-04
6.11000000e-01	1.38916638e-02	1.43095150e-04
6.12000000e-01	1.39395548e-02	1.43375032e-04
6.13000000e-01	1.39601090e-02	1.44374752e-04
6.14000000e-01	1.38787585e-02	1.43476953e-04
6.15000000e-01	1.39771684e-02	1.43683386e-04
6.16000000e-01	1.39509733e-02	1.43960925e-04
6.17000000e-01	1.39815542e-02	1.44029692e-04
6.18000000e-01	1.40202899e-02	1.44079223e-04
6.19000000e-01	1.38572490e-02	1.42545944e-04
6.20000000e-01	1.40489676e-02	1.44052225e-04
6.21000000e-01	1.39599324e-02	1.43092012e-04
6.22000000e-01	1.37791784e-02	1.41666437e-04
6.23000000e-01	1.38502332e-02	1.42690416e-04
6.24000000e-01	1.37669051e-02	1.40985134e-04
6.25000000e-01	1.36946957e-02	1.40219008e-04
6.26000000e-01	1.38137864e-02	1.41634211e-04
6.27000000e-01	1.37751421e-02	1.41266865e-04
6.28000000e-01	1.37694163e-02	1.40951074e-04
6.29000000e-01	1.38112505e-02	1.41319360e-04
6.30000000e-01	1.37762162e-02	1.40956590e-04
6.31000000e-01	1.38483489e-02	1.41664873e-04
6.32000000e-01	1.37516067e-02	1.40851072e-04
6.33000000e-01	1.37752884e-02	1.40857068e-04
6.34000000e-01	1.38057524e-02	1.45107925e-04
6.35000000e-01	1.37527833e-02	1.48059229e-04
6.36000000e-01	1.37141733e-02	1.50676883e-04
6.37000000e-01	1.37602919e-02	1.53568141e-04
6.38000000e-01	1.38580513e-02	1.56599864e-04
6.39000000e-01	1.38546190e-02	1.58846288e-04
6.40000000e-01	1.37431415e-02	1.59375419e-04
6.41000000e-01	1.39253864e-02	1.62777093e-04
6.42000000e-01	1.37554532e-02	1.62672527e-04
6.43000000e-01	1.39341844e-02	1.64841814e-04
6.44000000e-01	1.39089838e-02	1.58280799e-04
6.45000000e-01	1.39225859e-02	1.56958992e-04
6.46000000e-01	1.38753971e-02	1.54925569e-04
6.47000000e-01	1.37182812e-02	1.51951442e-04
6.48000000e-01	1.39331049e-02	1.52961019e-04
6.49000000e-01	1.38381851e-02	1.51663690e-04
6.50000000e-01	1.37351214e-02	1.49487685e-04
6.51000000e-01	1.37523617e-02	1.49530255e-04
6.52000000e-01	1.38803233e-02	1.49845659e-04
6.53000000e-01	1.37491906e-02	1.48064672e-04
6.54000000e-01	1.38193904e-02	1.48518478e-04
6.55000000e-01	1.38435807e-02	1.48200593e-04
6.56000000e-01	1.38226246e-02	1.48523908e-04
6.57000000e-01	1.38906418e-02	1.48373594e-04
6.58000000e-01	1.39257348e-02	1.48459404e-04
6.59000000e-01	1.37355436e-02	1.45980765e-04
6.60000000e-01	1.38280974e-02	1.47213529e-04
6.61000000e-01	1.38093058e-02	1.46970335e-04
6.62000000e-01	1.35694014e-02	1.44924309e-04
6.63000000e-01	1.38076526e-02	1.46866129e-04
6.64000000e-01	1.37530124e-02	1.46408700e-04
6.65000000e-01	1.36377143e-02	1.45067576e-04
6.66000000e-01	1.36946975e-02	1.45261420e-04
6.67000000e-01	1.36013034e-02	1.44436170e-04
6.68000000e-01	1.37916592e-02	1.46605037e-04
6.69000000e-01	1.37369061e-02	1.45881596e-04
6.70000000e-01	1.36547581e-02	1.45132209e-04
6.71000000e-01	1.37219444e-02	1.46129555e-04
6.72000000e-01	1.36563223e-02	1.44549743e-04
6.73000000e-01	1.36878690e-02	1.45123377e-04
6.74000000e-01	1.36980949e-02	1.45214417e-04
6.75000000e-01	1.36283700e-02	1.44575886e-04
6.76000000e-01	1.35703841e-02	1.44077250e-04
6.77000000e-01	1.36533516e-02	1.44437520e-04
6.78000000e-01	1.35782575e-02	1.43703963e-04
6.79000000e-01	1.37626098e-02	1.45730628e-04
6.80000000e-01	1.36565968e-02	1.44273792e-04
6.81000000e-01	1.37094890e-02	1.45558227e-04
6.82000000e-01	1.35654583e-02	1.43357064e-04
6.83000000e-01	1.35686119e-02	1.43677915e-04
6.84000000e-01	1.35128429e-02	1.43020141e-04
6.85000000e-01	1.35334471e-02	1.42906465e-04
6.86000000e-01	1.35982374e-02	1.44084253e-04
6.87000000e-01	1.35293034e-02	1.43275741e-04
6.88000000e-01	1.35776248e-02	1.44055029e-04
6.89000000e-01	1.36021387e-02	1.43409147e-04
6.90000000e-01	1.36637557e-02	1.44337108e-04
6.91000000e-01	1.34671442e-02	1.42145978e-04
6.92000000e-01	1.35233245e-02	1.42506044e-04
6.93000000e-01	1.34742999e-02	1.42198360e-04
6.94000000e-01	1.33965953e-02	1.41077547e-04
6.95000000e-01	1.35000827e-02	1.42526412e-04
6.96000000e-01	1.34525609e-02	1.42283435e-04
6.97000000e-01	1.35761046e-02	1.42957029e-04
6.98000000e-01	1.34673533e-02	1.42114609e-04
6.99000000e-01	1.35214044e-02	1.42591703e-04
7.00000000e-01	1.33457686e-02	1.40992931e-04
7.01000000e-01	1.34015375e-02	1.41649058e-04
7.02000000e-01	1.33804238e-02	1.41362503e-04
7.03000000e-01	1.34995371e-02	1.42488566e-04
7.04000000e-01	1.33787576e-02	1.41308903e-04
7.05000000e-01	1.35401509e-02	1.42582922e-04
7.06000000e-01	1.33241480e-02	1.40866556e-04
7.07000000e-01	1.34327985e-02	1.41509978e-04
7.08000000e-01	1.34472582e-02	1.41124735e-04
7.09000000e-01	1.33623347e-02	1.40611002e-04
7.10000000e-01	1.34068804e-02	1.41296048e-04
7.11000000e-01	1.33658047e-02	1.41165668e-04
7.12000000e-01	1.32520014e-02	1.39691064e-04
7.13000000e-01	1.31671242e-02	1.39273666e-04
7.14000000e-01	1.32697247e-02	1.40273882e-04
7.15000000e-01	1.32713592e-02	1.40218778e-04
7.16000000e-01	1.32394908e-02	1.39977337e-04
7.17000000e-01	1.31993082e-02	1.39509893e-04
7.18000000e-01	1.33408027e-02	1.40734290e-04
7.19000000e-01	1.31527423e-02	1.39076823e-04
7.20000000e-01	1.33302823e-02	1.40907292e-04
7.21000000e-01	1.31383119e-02	1.38788719e-04
7.22000000e-01	1.30026522e-02	1.37689574e-04
7.23000000e-01	1.31868388e-02	1.39555865e-04
7.24000000e-01	1.32279626e-02	1.39440572e-04
7.25000000e-01	1.32124281e-02	1.38955237e-04
7.26000000e-01	1.31644393e-02	1.38980195e-04
7.27000000e-01	1.32458975e-02	1.40069654e-04
7.28000000e-01	1.32047358e-02	1.39137966e-04
7.29000000e-01	1.31676874e-02	1.38899910e-04
7.30000000e-01	1.32140593e-02	1.39589132e-04
7.31000000e-01	1.31211797e-02	1.38940357e-04
7.32000000e-01	1.30939443e-02	1.38199185e-04
7.33000000e-01	1.31107105e-02	1.38642559e-04
7.34000000e-01	1.29262616e-02	1.37084460e-04
7.35000000e-01	1.30501656e-02	1.38131508e-04
7.36000000e-01	1.30053445e-02	1.37109582e-04
7.37000000e-01	1.29770865e-02	1.36333334e-04
7.38000000e-01	1.30577933e-02	1.37020919e-04
7.39000000e-01	1.29334161e-02	1.35555983e-04
7.40000000e-01	1.29228497e-02	1.35364430e-04
7.41000000e-01	1.30168163e-02	1.36215495e-04
7.42000000e-01	1.30048586e-02	1.35561859e-04
7.43000000e-01	1.29519194e-02	1.35465811e-04
7.44000000e-01	1.30073001e-02	1.36055143e-04
7.45000000e-01	1.29133538e-02	1.35084051e-04
7.46000000e-01	1.29284821e-02	1.35379237e-04
7.47000000e-01	1.30113653e-02	1.36287889e-04
7.48000000e-01	1.28489137e-02	1.34393815e-04
7.49000000e-01	1.29172142e-02	1.35286727e-04
7.50000000e-01	1.28899567e-02	1.35054722e-04
7.51000000e-01	1.30084753e-02	1.35773728e-04
7.52000000e-01	1.31419710e-02	1.37502600e-04
7.53000000e-01	1.28731684e-02	1.34916814e-04
7.54000000e-01	1.29663298e-02	1.35814241e-04
7.55000000e-01	1.27852609e-02	1.34628040e-04
7.56000000e-01	1.28520268e-02	1.34695477e-04
7.57000000e-01	1.29079655e-02	1.35073202e-04
7.58000000e-01	1.28994550e-02	1.35461688e-04
7.59000000e-01	1.27855416e-02	1.33726343e-04
7.60000000e-01	1.28781503e-02	1.34477549e-04
7.61000000e-01	1.28220483e-02	1.33501505e-04
7.62000000e-01	1.27537017e-02	1.33384303e-04
7.63000000e-01	1.28004140e-02	1.33080843e-04
7.64000000e-01	1.28027615e-02	1.32820708e-04
7.65000000e-01	1.28527556e-02	1.33102326e-04
7.66000000e-01	1.28490294e-02	1.33036831e-04
7.67000000e-01	1.26317926e-02	1.31324902e-04
7.68000000e-01	1.26605879e-02	1.31177095e-04
7.69000000e-01	1.28804980e-02	1.33303175e-04
7.70000000e-01	1.26793925e-02	1.32161321e-04
7.71000000e-01	1.25765538e-02	1.30913648e-04
7.72000000e-01	1.26652274e-02	1.35684960e-04
7.73000000e-01	1.26836030e-02	1.40249129e-04
7.74000000e-01	1.24374100e-02	1.41001484e-04
7.75000000e-01	1.25527835e-02	1.44060410e-04
7.76000000e-01	1.26725580e-02	1.47197453e-04
7.77000000e-01	1.26798971e-02	1.49542744e-04
7.78000000e-01	1.27090436e-02	1.52599297e-04
7.79000000e-01	1.26924496e-02	1.53301363e-04
7.80000000e-01	1.25656320e-02	1.54210989e-04
7.81000000e-01	1.25346742e-02	1.55722050e-04
7.82000000e-01	1.24664686e-02	1.56942263e-04
7.83000000e-01	1.25483387e-02	1.58963912e-04
7.84000000e-01	1.24647610e-02	1.59872691e-04
7.85000000e-01	1.26770580e-02	1.63860006e-04
7.86000000e-01	1.25070662e-02	1.63863359e-04
7.87000000e-01	1.25000632e-02	1.64738370e-04
7.88000000e-01	1.25392116e-02	1.66666133e-04
7.89000000e-01	1.26225228e-02	1.70078342e-04
7.90000000e-01	1.24369514e-02	1.68704501e-04
7.91000000e-01	1.25289755e-02	1.72014901e-04
7.92000000e-01	1.24410020e-02	1.73381757e-04
7.93000000e-01	1.25744608e-02	1.75735057e-04
7.94000000e-01	1.24880475e-02	1.76205411e-04
7.95000000e-01	1.24192793e-02	1.77522633e-04
7.96000000e-01	1.23940922e-02	1.79444034e-04
7.97000000e-01	1.23877928e-02	1.80996371e-04
7.98000000e-01	1.23147871e-02	1.81776101e-04
7.99000000e-01	1.23289678e-02	1.85021901e-04
8.00000000e-01	1.25288553e-02	1.89084877e-04
8.01000000e-01	1.23396079e-02	1.88656718e-04
8.02000000e-01	1.23269376e-02	1.90194724e-04
8.03000000e-01	1.22082323e-02	1.90543260e-04
8.04000000e-01	1.22368912e-02	1.93010224e-04
8.05000000e-01	1.23399865e-02	1.95668235e-04
8.06000000e-01	1.24446441e-02	2.00211870e-04
8.07000000e-01	1.22265640e-02	1.98040147e-04
8.08000000e-01	1.22969665e-02	2.01543394e-04
8.09000000e-01	1.24512314e-02	2.05822535e-04
8.10000000e-01	1.24342273e-02	2.08800650e-04
8.11000000e-01	1.22420959e-02	2.08990416e-04
8.12000000e-01	1.22269860e-02	2.09261125e-04
8.13000000e-01	1.22518925e-02	2.14405000e-04
8.14000000e-01	1.20386267e-02	2.10343742e-04
8.15000000e-01	1.20944309e-02	2.15411094e-04
8.16000000e-01	1.21668364e-02	2.18399474e-04
8.17000000e-01	1.22052478e-02	2.22827378e-04
8.18000000e-01	1.22012179e-02	2.26310297e-04
8.19000000e-01	1.21221062e-02	2.26599788e-04
8.20000000e-01	1.19874577e-02	2.26026232e-04
8.21000000e-01	1.20929111e-02	2.31564965e-04
8.22000000e-01	1.21571794e-02	2.35123029e-04
8.23000000e-01	1.23215279e-02	2.42972443e-04
8.24000000e-01	1.20034614e-02	2.40696000e-04
8.25000000e-01	1.19913362e-02	2.42159693e-04
8.26000000e-01	1.22046146e-02	2.49112985e-04
8.27000000e-01	1.22150739e-02	2.53982393e-04
8.28000000e-01	1.23083715e-02	2.60398442e-04
8.29000000e-01	1.20508639e-02	2.59808865e-04
8.30000000e-01	1.20345814e-02	2.61267922e-04
8.31000000e-01	1.18060470e-02	2.61901889e-04
8.32000000e-01	1.20038260e-02	2.70979773e-04
8.33000000e-01	1.21745883e-02	2.78656932e-04
8.34000000e-01	1.19200284e-02	2.79435349e-04
8.35000000e-01	1.20200305e-02	2.83920976e-04
8.36000000e-01	1.19663653e-02	2.88919824e-04
8.37000000e-01	1.19358505e-02	2.96243291e-04
8.38000000e-01	1.16776318e-02	2.94039786e-04
8.39000000e-01	1.16249699e-02	3.00587906e-04
8.40000000e-01	1.19042213e-02	3.11283639e-04
8.41000000e-01	1.17392224e-02	3.16600622e-04
8.42000000e-01	1.21496837e-02	3.31443028e-04
8.43000000e-01	1.18833980e-02	3.33397095e-04
8.44000000e-01	1.16735281e-02	3.36899684e-04
8.45000000e-01	1.17073345e-02	3.45683082e-04
8.46000000e-01	1.21315695e-02	3.64897932e-04
8.47000000e-01	1.17671689e-02	3.68480489e-04
8.48000000e-01	1.18949477e-02	3.84334386e-04
8.49000000e-01	1.14855376e-02	3.76444338e-04
8.50000000e-01	1.14695889e-02	4.03355640e-04
8.51000000e-01	1.17687512e-02	4.24251502e-04
8.52000000e-01	1.16020936e-02	4.32402472e-04
8.53000000e-01	1.14632047e-02	4.42526189e-04
8.54000000e-01	1.12094948e-02	4.54240168e-04
8.55000000e-01	1.15471523e-02	4.84056507e-04
8.56000000e-01	1.12259316e-02	4.81194399e-04
8.57000000e-01	1.14160016e-02	5.10851842e-04
8.58000000e-01	1.24809337e-02	5.65223984e-04
8.59000000e-01	1.22845968e-02	5.72965513e-04
8.60000000e-01	1.20449133e-02	5.89756067e-04
8.61000000e-01	1.17471456e-02	5.96273022e-04
8.62000000e-01	1.09092067e-02	5.66688274e-04
8.63000000e-01	1.13515867e-02	6.16224432e-04
8.64000000e-01	1.17291546e-02	6.63358431e-04
8.65000000e-01	1.12797854e-02	6.73597729e-04
8.66000000e-01	1.07685985e-02	6.78983618e-04
8.67000000e-01	1.08819863e-02	7.32129366e-04
8.68000000e-01	1.09335558e-02	7.80708863e-04
8.69000000e-01	1.14265109e-02	8.60867045e-04
8.70000000e-01	1.17243437e-02	9.58437671e-04
8.71000000e-01	1.07865927e-02	1.00021351e-03
8.72000000e-01	1.07455157e-02	1.11824534e-03
8.73000000e-01	1.18092156e-02	1.39055485e-03
8.74000000e-01	1.12895963e-02	1.81249865e-03
8.75000000e-01	1.19541810e-02	3.86605825e-03
