% Filename : Stest_00003_00001.h5
% Date & Time : 30-Oct-2025 14:19:41
% X-ray Energy (keV) : 13.30001
% Exposure Time (s) : 1.000
% Beam Center : 1461.24000, 208.98300
% Sample to Detector Distance (SDD) (mm) : 1990.750
% Detector Pixel Size (mm) : 0.075
% Photodiode Value : 268613.000
% I0 of Sample : 0
% I0 of Standard : 1
% 
% q(A^-1)   I(q)    I(q)_SE
0.00000000e+00	1.41244399e-02	7.27519739e-03
2.50000000e-04	0.00000000e+00	0.00000000e+00
5.00000000e-04	0.00000000e+00	0.00000000e+00
7.50000000e-04	0.00000000e+00	0.00000000e+00
1.00000000e-03	0.00000000e+00	0.00000000e+00
1.25000000e-03	0.00000000e+00	0.00000000e+00
1.50000000e-03	0.00000000e+00	0.00000000e+00
1.75000000e-03	0.00000000e+00	0.00000000e+00
2.00000000e-03	0.00000000e+00	0.00000000e+00
2.25000000e-03	0.00000000e+00	0.00000000e+00
2.50000000e-03	0.00000000e+00	0.00000000e+00
2.75000000e-03	0.00000000e+00	0.00000000e+00
3.00000000e-03	0.00000000e+00	0.00000000e+00
3.25000000e-03	9.24140046e-01	5.36202585e-01
3.50000000e-03	1.09959713e+00	2.37367021e-01
3.75000000e-03	9.22610095e-01	1.56419107e-01
4.00000000e-03	7.64666989e-01	1.17375825e-01
4.25000000e-03	6.42733305e-01	8.07733469e-02
4.50000000e-03	6.69254098e-01	8.52521460e-02
4.75000000e-03	5.97604957e-01	6.96666179e-02
5.00000000e-03	4.85859279e-01	5.24868997e-02
5.25000000e-03	3.98214771e-01	4.18193412e-02
5.50000000e-03	3.43427093e-01	3.43245818e-02
5.75000000e-03	2.98018245e-01	2.90901830e-02
6.00000000e-03	2.59786145e-01	2.44073747e-02
6.25000000e-03	2.29023035e-01	2.12463448e-02
6.50000000e-03	1.95930045e-01	1.77028107e-02
6.75000000e-03	1.72416646e-01	1.53169321e-02
7.00000000e-03	1.59827636e-01	1.38976588e-02
7.25000000e-03	1.43920461e-01	1.21259735e-02
7.50000000e-03	1.29024895e-01	1.08439670e-02
7.75000000e-03	1.14960964e-01	9.27712501e-03
8.00000000e-03	1.06665356e-01	8.58594364e-03
8.25000000e-03	9.59258962e-02	7.46788427e-03
8.50000000e-03	8.94374712e-02	6.83065491e-03
8.75000000e-03	8.38796263e-02	6.36918232e-03
9.00000000e-03	7.52909206e-02	5.60429396e-03
9.25000000e-03	7.04941100e-02	5.06645528e-03
9.50000000e-03	6.39607678e-02	4.52930963e-03
9.75000000e-03	6.13286688e-02	4.30858006e-03
1.00000000e-02	5.68030096e-02	3.95002502e-03
1.02500000e-02	5.45218085e-02	3.78988468e-03
1.05000000e-02	5.10984180e-02	3.41405397e-03
1.07500000e-02	4.79543434e-02	3.20450606e-03
1.10000000e-02	4.63074579e-02	3.01149027e-03
1.12500000e-02	4.39794770e-02	2.92826963e-03
1.15000000e-02	4.23124487e-02	2.73639812e-03
1.17500000e-02	4.12602556e-02	2.58826703e-03
1.20000000e-02	3.85695874e-02	2.43878071e-03
1.22500000e-02	3.71395166e-02	2.28972854e-03
1.25000000e-02	3.69441999e-02	2.27294880e-03
1.27500000e-02	3.51200897e-02	2.13951550e-03
1.30000000e-02	3.41863739e-02	2.06520883e-03
1.32500000e-02	3.38450518e-02	2.00177459e-03
1.35000000e-02	3.24650903e-02	1.92203943e-03
1.37500000e-02	3.15594917e-02	1.86325254e-03
1.40000000e-02	3.05899215e-02	1.77891993e-03
1.42500000e-02	2.92642987e-02	1.67846639e-03
1.45000000e-02	2.92920169e-02	1.67257862e-03
1.47500000e-02	2.85954060e-02	1.63120317e-03
1.50000000e-02	2.80393023e-02	1.58624861e-03
1.52500000e-02	2.71136351e-02	1.52360680e-03
1.55000000e-02	2.77010960e-02	1.52650177e-03
1.57500000e-02	2.62873108e-02	1.44902642e-03
1.60000000e-02	2.55928534e-02	1.39562503e-03
1.62500000e-02	2.65303519e-02	1.44830522e-03
1.65000000e-02	2.53322261e-02	1.35343831e-03
1.67500000e-02	2.52883197e-02	1.33624567e-03
1.70000000e-02	2.55587057e-02	1.35474525e-03
1.72500000e-02	2.50658290e-02	1.32469446e-03
1.75000000e-02	2.44306218e-02	1.28308611e-03
1.77500000e-02	2.38762871e-02	1.23269362e-03
1.80000000e-02	2.44934550e-02	1.27309438e-03
1.82500000e-02	2.44847744e-02	1.23249209e-03
1.85000000e-02	2.44261540e-02	1.25714650e-03
1.87500000e-02	2.42020682e-02	1.22221044e-03
1.90000000e-02	2.37912972e-02	1.20111161e-03
1.92500000e-02	2.33234131e-02	1.16212183e-03
1.95000000e-02	2.36466027e-02	1.16209244e-03
1.97500000e-02	2.32649016e-02	1.14879067e-03
2.00000000e-02	2.32342399e-02	1.14123075e-03
2.02500000e-02	2.40819115e-02	1.16718830e-03
2.05000000e-02	2.24801251e-02	1.07656924e-03
2.07500000e-02	2.26732333e-02	1.08805362e-03
2.10000000e-02	2.28773590e-02	1.10104860e-03
2.12500000e-02	2.23635420e-02	1.08538750e-03
2.15000000e-02	2.26424944e-02	1.07907156e-03
2.17500000e-02	2.24675999e-02	1.09308260e-03
2.20000000e-02	2.22840500e-02	1.08373597e-03
2.22500000e-02	2.30984056e-02	1.12248424e-03
2.25000000e-02	2.26487595e-02	1.10383900e-03
2.27500000e-02	2.25272144e-02	1.08056627e-03
2.30000000e-02	2.24390258e-02	1.09170459e-03
2.32500000e-02	2.25336099e-02	1.08063840e-03
2.35000000e-02	2.21617967e-02	1.07699232e-03
2.37500000e-02	2.23716792e-02	1.08059098e-03
2.40000000e-02	2.16835276e-02	1.04827081e-03
2.42500000e-02	2.26563265e-02	1.08882535e-03
2.45000000e-02	2.23498479e-02	1.07349471e-03
2.47500000e-02	2.21803569e-02	1.06327719e-03
2.50000000e-02	2.18956075e-02	1.04264860e-03
2.52500000e-02	2.26796777e-02	1.09825272e-03
2.55000000e-02	2.25637941e-02	1.06946119e-03
2.57500000e-02	2.19442883e-02	1.04363253e-03
2.60000000e-02	2.15770641e-02	1.02216652e-03
2.62500000e-02	2.21667962e-02	1.06699515e-03
2.65000000e-02	2.15510611e-02	1.01997901e-03
2.67500000e-02	2.16112570e-02	1.01377564e-03
2.70000000e-02	2.21153918e-02	1.04500366e-03
2.72500000e-02	2.26479129e-02	1.05327708e-03
2.75000000e-02	2.16948769e-02	1.02852744e-03
2.77500000e-02	2.17534545e-02	1.02370870e-03
2.80000000e-02	2.18166189e-02	1.00983165e-03
2.82500000e-02	2.23378156e-02	1.03567564e-03
2.85000000e-02	2.19084437e-02	1.01986343e-03
2.87500000e-02	2.20137918e-02	1.02913961e-03
2.90000000e-02	2.25515902e-02	1.05814465e-03
2.92500000e-02	2.25701116e-02	1.02192581e-03
2.95000000e-02	2.23728424e-02	1.04272801e-03
2.97500000e-02	2.22392406e-02	1.01897084e-03
3.00000000e-02	2.20331244e-02	1.01743396e-03
3.02500000e-02	2.26701477e-02	1.04243470e-03
3.05000000e-02	2.26321496e-02	1.02026639e-03
3.07500000e-02	2.23993143e-02	1.01810318e-03
3.10000000e-02	2.22978751e-02	1.00983603e-03
3.12500000e-02	2.20871111e-02	1.01936969e-03
3.15000000e-02	2.22978803e-02	1.01526334e-03
3.17500000e-02	2.25375198e-02	9.95544547e-04
3.20000000e-02	2.21650764e-02	1.00342410e-03
3.22500000e-02	2.22600808e-02	9.98098170e-04
3.25000000e-02	2.23500856e-02	1.00179829e-03
3.27500000e-02	2.19201733e-02	9.71057122e-04
3.30000000e-02	2.15333799e-02	9.58757798e-04
3.32500000e-02	2.20041296e-02	9.81137415e-04
3.35000000e-02	2.22651958e-02	9.98084039e-04
3.37500000e-02	2.23138149e-02	9.82849030e-04
3.40000000e-02	2.11802611e-02	9.38227033e-04
3.42500000e-02	2.19432128e-02	9.67379835e-04
3.45000000e-02	2.17056856e-02	9.60757753e-04
3.47500000e-02	2.12711038e-02	9.38237923e-04
3.50000000e-02	2.19254068e-02	9.54563263e-04
3.52500000e-02	2.15213027e-02	9.42204490e-04
3.55000000e-02	2.16810533e-02	9.36110159e-04
3.57500000e-02	2.14191417e-02	9.40852656e-04
3.60000000e-02	2.18996208e-02	9.51380212e-04
3.62500000e-02	2.19027159e-02	9.47613224e-04
3.65000000e-02	2.14548040e-02	9.29828859e-04
3.67500000e-02	2.13245017e-02	9.20684431e-04
3.70000000e-02	2.10314760e-02	9.01318282e-04
3.72500000e-02	2.11807797e-02	9.08630100e-04
3.75000000e-02	2.16851880e-02	9.33944287e-04
3.77500000e-02	2.09970044e-02	8.96186850e-04
3.80000000e-02	2.09043085e-02	8.90731964e-04
3.82500000e-02	2.07771271e-02	8.77727777e-04
3.85000000e-02	2.16866297e-02	9.23129332e-04
3.87500000e-02	2.13720273e-02	8.99187979e-04
3.90000000e-02	2.10221301e-02	8.91546336e-04
3.92500000e-02	2.08257690e-02	8.74292079e-04
3.95000000e-02	2.13297398e-02	8.98856687e-04
3.97500000e-02	2.10213436e-02	8.83494877e-04
4.00000000e-02	2.12125044e-02	8.91377205e-04
4.02500000e-02	2.10576282e-02	8.83524106e-04
4.05000000e-02	2.12883312e-02	8.78537320e-04
4.07500000e-02	2.09884112e-02	8.63942957e-04
4.10000000e-02	2.05976586e-02	8.62415662e-04
4.12500000e-02	2.11000893e-02	8.72387334e-04
4.15000000e-02	2.10393898e-02	8.63660125e-04
4.17500000e-02	2.13429187e-02	8.75143793e-04
4.20000000e-02	2.06353020e-02	8.46238055e-04
4.22500000e-02	2.10891540e-02	8.55292321e-04
4.25000000e-02	2.07160222e-02	8.45899244e-04
4.27500000e-02	2.13422622e-02	8.61459355e-04
4.30000000e-02	2.09922667e-02	8.54789039e-04
4.32500000e-02	2.07295266e-02	8.43015838e-04
4.35000000e-02	2.09111074e-02	8.54033851e-04
4.37500000e-02	2.04981824e-02	8.26157444e-04
4.40000000e-02	2.09465750e-02	8.47381937e-04
4.42500000e-02	2.07921758e-02	8.35348290e-04
4.45000000e-02	2.11555856e-02	8.43162348e-04
4.47500000e-02	2.12777949e-02	8.47291489e-04
4.50000000e-02	2.07156727e-02	8.29792951e-04
4.52500000e-02	2.00931670e-02	8.02646983e-04
4.55000000e-02	2.06696746e-02	8.24629499e-04
4.57500000e-02	2.06977402e-02	8.21119580e-04
4.60000000e-02	2.08167171e-02	8.25395590e-04
4.62500000e-02	2.08826352e-02	8.26328678e-04
4.65000000e-02	2.05854004e-02	8.12073852e-04
4.67500000e-02	2.08995147e-02	8.12599999e-04
4.70000000e-02	2.10239860e-02	8.19821739e-04
4.72500000e-02	2.06060377e-02	8.04681156e-04
4.75000000e-02	2.03939477e-02	8.07608792e-04
4.77500000e-02	2.08274976e-02	8.08825971e-04
4.80000000e-02	2.07887804e-02	8.05160140e-04
4.82500000e-02	2.11246309e-02	8.22796686e-04
4.85000000e-02	2.06713009e-02	8.12439636e-04
4.87500000e-02	2.06496389e-02	8.03321612e-04
4.90000000e-02	2.11049802e-02	8.08780995e-04
4.92500000e-02	2.06078041e-02	7.92458752e-04
4.95000000e-02	2.09850025e-02	8.10110185e-04
4.97500000e-02	2.05102924e-02	7.94701442e-04
5.00000000e-02	2.05364337e-02	7.88241418e-04
5.02500000e-02	2.02873414e-02	7.74173677e-04
5.05000000e-02	2.11431324e-02	8.03783297e-04
5.07500000e-02	2.07549302e-02	7.94054759e-04
5.10000000e-02	2.02654254e-02	7.74818956e-04
5.12500000e-02	2.08703409e-02	7.91133891e-04
5.15000000e-02	2.02422472e-02	7.58953614e-04
5.17500000e-02	2.07880066e-02	7.87317657e-04
5.20000000e-02	2.05869338e-02	7.74163901e-04
5.22500000e-02	2.02885782e-02	7.68227073e-04
5.25000000e-02	2.08190270e-02	7.77215924e-04
5.27500000e-02	2.10273324e-02	7.81972853e-04
5.30000000e-02	2.02324904e-02	7.59249345e-04
5.32500000e-02	2.07031742e-02	7.75208177e-04
5.35000000e-02	2.04755891e-02	7.65145236e-04
5.37500000e-02	2.12348266e-02	7.88481961e-04
5.40000000e-02	2.02902980e-02	7.51874212e-04
5.42500000e-02	2.06681527e-02	7.61997679e-04
5.45000000e-02	2.06475058e-02	7.62644221e-04
5.47500000e-02	2.02066270e-02	7.44507079e-04
5.50000000e-02	2.02060514e-02	7.53538391e-04
5.52500000e-02	2.02269859e-02	7.46187170e-04
5.55000000e-02	2.07520598e-02	7.59724989e-04
5.57500000e-02	2.05535158e-02	7.54575769e-04
5.60000000e-02	2.08431818e-02	7.60694325e-04
5.62500000e-02	2.06697140e-02	7.60205230e-04
5.65000000e-02	2.02505312e-02	7.38553526e-04
5.67500000e-02	2.03529931e-02	7.46888999e-04
5.70000000e-02	2.07720396e-02	7.53671299e-04
5.72500000e-02	2.06121446e-02	7.47187288e-04
5.75000000e-02	2.04609553e-02	7.41883054e-04
5.77500000e-02	2.05045951e-02	7.38482204e-04
5.80000000e-02	2.00383670e-02	7.26273015e-04
5.82500000e-02	1.99111610e-02	7.18967007e-04
5.85000000e-02	2.04164603e-02	7.38056145e-04
5.87500000e-02	2.05931064e-02	7.39257581e-04
5.90000000e-02	1.98516759e-02	7.12158313e-04
5.92500000e-02	2.02552581e-02	7.24732889e-04
5.95000000e-02	1.99194318e-02	7.11181047e-04
5.97500000e-02	2.03843128e-02	7.27327351e-04
6.00000000e-02	1.97373433e-02	7.03325044e-04
6.02500000e-02	2.06114906e-02	7.31380327e-04
6.05000000e-02	2.07034285e-02	7.31936773e-04
6.07500000e-02	2.01708483e-02	7.14260443e-04
6.10000000e-02	1.96728155e-02	6.94981897e-04
6.12500000e-02	1.99683180e-02	7.05608944e-04
6.15000000e-02	2.04630008e-02	7.15215760e-04
6.17500000e-02	1.99160523e-02	7.02970941e-04
6.20000000e-02	1.97186855e-02	6.95428366e-04
6.22500000e-02	2.01705012e-02	7.07263060e-04
6.25000000e-02	1.97568953e-02	6.96260309e-04
6.27500000e-02	2.01256279e-02	7.02027416e-04
6.30000000e-02	1.99513725e-02	6.94957826e-04
6.32500000e-02	2.01510197e-02	7.02555503e-04
6.35000000e-02	2.02594408e-02	7.03977888e-04
6.37500000e-02	2.02775859e-02	7.03675676e-04
6.40000000e-02	2.02493950e-02	7.01151770e-04
6.42500000e-02	2.02679862e-02	6.97295482e-04
6.45000000e-02	1.99990226e-02	6.91930073e-04
6.47500000e-02	2.03359250e-02	7.03824422e-04
6.50000000e-02	2.00658801e-02	6.96319242e-04
6.52500000e-02	1.99538313e-02	6.87476256e-04
6.55000000e-02	2.02017437e-02	6.90089563e-04
6.57500000e-02	1.99043640e-02	6.80086443e-04
6.60000000e-02	1.98612829e-02	6.80300829e-04
6.62500000e-02	2.03359650e-02	6.96126445e-04
6.65000000e-02	2.01333296e-02	6.85786490e-04
6.67500000e-02	1.99135882e-02	6.75968495e-04
6.70000000e-02	2.02261160e-02	6.90821792e-04
6.72500000e-02	2.02977872e-02	6.91699174e-04
6.75000000e-02	2.00310921e-02	6.78593305e-04
6.77500000e-02	2.01076629e-02	6.75825208e-04
6.80000000e-02	1.98675473e-02	6.74380763e-04
6.82500000e-02	1.98739297e-02	6.71029147e-04
6.85000000e-02	1.96629356e-02	6.68284328e-04
6.87500000e-02	2.00720747e-02	6.72153118e-04
6.90000000e-02	2.02645396e-02	6.76688681e-04
6.92500000e-02	1.98345428e-02	6.62702410e-04
6.95000000e-02	2.02902381e-02	6.82344133e-04
6.97500000e-02	2.00740981e-02	6.76697704e-04
7.00000000e-02	1.96043728e-02	6.55166819e-04
7.02500000e-02	2.00943792e-02	6.65722640e-04
7.05000000e-02	2.01776087e-02	6.66407036e-04
7.07500000e-02	1.99581108e-02	6.67982155e-04
7.10000000e-02	1.97207901e-02	6.54357414e-04
7.12500000e-02	2.00192545e-02	6.62967889e-04
7.15000000e-02	2.01291629e-02	6.62740259e-04
7.17500000e-02	2.01587085e-02	6.64616606e-04
7.20000000e-02	2.01910167e-02	6.67965470e-04
7.22500000e-02	1.98260070e-02	6.57720799e-04
7.25000000e-02	1.96877547e-02	6.51198765e-04
7.27500000e-02	2.00473687e-02	6.59365367e-04
7.30000000e-02	1.97339673e-02	6.50915815e-04
7.32500000e-02	1.98992803e-02	6.47553851e-04
7.35000000e-02	1.97573380e-02	6.50075009e-04
7.37500000e-02	1.97219646e-02	6.44416794e-04
7.40000000e-02	2.00839252e-02	6.56090349e-04
7.42500000e-02	1.97333161e-02	6.45486816e-04
7.45000000e-02	1.97695825e-02	6.44808951e-04
7.47500000e-02	1.97920730e-02	6.40989529e-04
7.50000000e-02	1.97325325e-02	6.39196084e-04
7.52500000e-02	2.01257035e-02	6.50693804e-04
7.55000000e-02	1.97897689e-02	6.39448942e-04
7.57500000e-02	1.98853521e-02	6.46149157e-04
7.60000000e-02	1.99972030e-02	6.46041861e-04
7.62500000e-02	1.97141336e-02	6.37512424e-04
7.65000000e-02	1.99370324e-02	6.40362238e-04
7.67500000e-02	1.99499414e-02	6.40010595e-04
7.70000000e-02	1.97844180e-02	6.32578803e-04
7.72500000e-02	1.97052565e-02	6.46129477e-04
7.75000000e-02	2.00678865e-02	6.60864610e-04
7.77500000e-02	1.95173546e-02	6.44916008e-04
7.80000000e-02	2.02711093e-02	6.72996720e-04
7.82500000e-02	2.00897811e-02	6.72941442e-04
7.85000000e-02	2.00763271e-02	6.77857528e-04
7.87500000e-02	1.99683821e-02	6.66941904e-04
7.90000000e-02	1.94817191e-02	6.58242633e-04
7.92500000e-02	1.98826246e-02	6.74053335e-04
7.95000000e-02	1.96972827e-02	6.70824216e-04
7.97500000e-02	2.00700389e-02	6.88640654e-04
8.00000000e-02	2.01489799e-02	6.85170772e-04
8.02500000e-02	1.97761021e-02	6.76098192e-04
8.05000000e-02	2.00460350e-02	6.86070868e-04
8.07500000e-02	2.00188154e-02	6.89150942e-04
8.10000000e-02	2.00321148e-02	6.89552554e-04
8.12500000e-02	1.98466356e-02	6.85684157e-04
8.15000000e-02	2.01416205e-02	6.91827256e-04
8.17500000e-02	1.98207039e-02	6.87415897e-04
8.20000000e-02	1.95430999e-02	6.73591779e-04
8.22500000e-02	1.98823353e-02	6.91624723e-04
8.25000000e-02	1.98033936e-02	6.88986249e-04
8.27500000e-02	1.99553044e-02	6.90453103e-04
8.30000000e-02	1.94905384e-02	6.80397047e-04
8.32500000e-02	1.95337374e-02	6.82776242e-04
8.35000000e-02	1.98527120e-02	6.98110557e-04
8.37500000e-02	1.93439433e-02	6.72583891e-04
8.40000000e-02	1.95422906e-02	6.86373034e-04
8.42500000e-02	2.01213184e-02	7.06717261e-04
8.45000000e-02	2.01290173e-02	7.09480687e-04
8.47500000e-02	1.99164540e-02	7.02865122e-04
8.50000000e-02	1.90369654e-02	6.69501148e-04
8.52500000e-02	1.93627275e-02	6.83082814e-04
8.55000000e-02	1.98407470e-02	6.96789500e-04
8.57500000e-02	1.99077746e-02	7.03323294e-04
8.60000000e-02	1.96505907e-02	6.94208471e-04
8.62500000e-02	1.99091840e-02	7.03702093e-04
8.65000000e-02	1.95430881e-02	6.86432303e-04
8.67500000e-02	1.93939152e-02	6.82852568e-04
8.70000000e-02	1.99035103e-02	6.90063254e-04
8.72500000e-02	1.95989980e-02	6.70872642e-04
8.75000000e-02	1.95769257e-02	6.58243401e-04
8.77500000e-02	1.97897343e-02	6.60404455e-04
8.80000000e-02	1.94426304e-02	6.53899542e-04
8.82500000e-02	2.00456486e-02	6.69203697e-04
8.85000000e-02	1.96653725e-02	6.55738971e-04
8.87500000e-02	1.92413489e-02	6.30948914e-04
8.90000000e-02	2.01772670e-02	6.63773758e-04
8.92500000e-02	1.99697799e-02	6.51725119e-04
8.95000000e-02	2.00189908e-02	6.55363762e-04
8.97500000e-02	1.96599806e-02	6.38913717e-04
9.00000000e-02	1.96614215e-02	6.35183501e-04
9.02500000e-02	1.97595823e-02	6.40350172e-04
9.05000000e-02	2.02016510e-02	6.53608514e-04
9.07500000e-02	1.94661567e-02	6.30150804e-04
9.10000000e-02	2.01832304e-02	6.44100741e-04
9.12500000e-02	1.96748981e-02	6.27875322e-04
9.15000000e-02	1.98896320e-02	6.35862446e-04
9.17500000e-02	1.95434091e-02	6.26948042e-04
9.20000000e-02	1.94388332e-02	6.17536631e-04
9.22500000e-02	1.96959509e-02	6.23012480e-04
9.25000000e-02	1.97534879e-02	6.23217768e-04
9.27500000e-02	1.95388632e-02	6.19202871e-04
9.30000000e-02	2.00120357e-02	6.30369875e-04
9.32500000e-02	1.97963350e-02	6.26456201e-04
9.35000000e-02	2.00111600e-02	6.25412706e-04
9.37500000e-02	1.93885471e-02	6.07784988e-04
9.40000000e-02	1.96286644e-02	6.15334497e-04
9.42500000e-02	1.95856778e-02	6.09958368e-04
9.45000000e-02	1.97458699e-02	6.11916890e-04
9.47500000e-02	1.95466076e-02	6.07880541e-04
9.50000000e-02	1.98765431e-02	6.18762959e-04
9.52500000e-02	1.97875249e-02	6.12475954e-04
9.55000000e-02	1.96326129e-02	6.05820875e-04
9.57500000e-02	1.96678575e-02	6.09292348e-04
9.60000000e-02	1.95452251e-02	6.00994063e-04
9.62500000e-02	1.95160708e-02	5.98930084e-04
9.65000000e-02	1.97824981e-02	6.07273117e-04
9.67500000e-02	1.95545366e-02	6.00567959e-04
9.70000000e-02	1.95577158e-02	6.00807071e-04
9.72500000e-02	1.96402642e-02	6.00317004e-04
9.75000000e-02	1.94770294e-02	5.96907287e-04
9.77500000e-02	1.95890438e-02	5.92645965e-04
9.80000000e-02	1.98117342e-02	6.01945985e-04
9.82500000e-02	1.96952403e-02	6.00503823e-04
9.85000000e-02	1.99621443e-02	6.03553117e-04
9.87500000e-02	1.93557638e-02	5.85198493e-04
9.90000000e-02	1.96782159e-02	5.96717079e-04
9.92500000e-02	1.96390715e-02	5.94693594e-04
9.95000000e-02	1.95450990e-02	5.90068257e-04
9.97500000e-02	1.96908666e-02	5.91713683e-04
1.00000000e-01	1.96083579e-02	4.79332652e-04
1.00500000e-01	1.96245966e-02	4.16874959e-04
1.01000000e-01	1.98535661e-02	4.19990255e-04
1.01500000e-01	1.95315173e-02	4.11608040e-04
1.02000000e-01	1.98549850e-02	4.16775146e-04
1.02500000e-01	1.97859431e-02	4.12743863e-04
1.03000000e-01	1.95187263e-02	4.09020347e-04
1.03500000e-01	1.95716506e-02	4.09161075e-04
1.04000000e-01	1.97440979e-02	4.09768116e-04
1.04500000e-01	1.97895517e-02	4.09170206e-04
1.05000000e-01	1.95912869e-02	4.03289547e-04
1.05500000e-01	1.97402933e-02	4.06678081e-04
1.06000000e-01	1.94897806e-02	3.99838483e-04
1.06500000e-01	1.97198827e-02	4.04291363e-04
1.07000000e-01	1.97281355e-02	4.09765004e-04
1.07500000e-01	1.97678490e-02	4.18314113e-04
1.08000000e-01	1.97156217e-02	4.19693983e-04
1.08500000e-01	1.97528561e-02	4.23641628e-04
1.09000000e-01	1.93898693e-02	4.18445281e-04
1.09500000e-01	1.97165954e-02	4.27191284e-04
1.10000000e-01	1.96388601e-02	4.21464184e-04
1.10500000e-01	1.97414798e-02	4.14534843e-04
1.11000000e-01	1.98135688e-02	4.09585492e-04
1.11500000e-01	1.95868037e-02	4.03270141e-04
1.12000000e-01	1.97005503e-02	4.00000737e-04
1.12500000e-01	2.00303480e-02	4.04415760e-04
1.13000000e-01	1.94886822e-02	3.93568338e-04
1.13500000e-01	1.95765639e-02	3.94115515e-04
1.14000000e-01	1.99173701e-02	3.97369592e-04
1.14500000e-01	1.95217796e-02	3.91334482e-04
1.15000000e-01	1.98862130e-02	3.94649671e-04
1.15500000e-01	1.98765458e-02	3.95948904e-04
1.16000000e-01	1.96502677e-02	3.88662469e-04
1.16500000e-01	1.95053363e-02	3.85761112e-04
1.17000000e-01	1.98405949e-02	3.91404097e-04
1.17500000e-01	1.95681020e-02	3.84017029e-04
1.18000000e-01	1.97237084e-02	3.88258927e-04
1.18500000e-01	1.95864675e-02	3.81479056e-04
1.19000000e-01	1.95860734e-02	3.82136976e-04
1.19500000e-01	1.97317587e-02	3.82812371e-04
1.20000000e-01	1.97831346e-02	3.83104148e-04
1.20500000e-01	1.97163233e-02	3.81917819e-04
1.21000000e-01	1.96783448e-02	3.79540545e-04
1.21500000e-01	1.94341585e-02	3.75582047e-04
1.22000000e-01	1.95007748e-02	3.75264312e-04
1.22500000e-01	1.98646734e-02	3.80385811e-04
1.23000000e-01	1.97083699e-02	3.77111794e-04
1.23500000e-01	1.96847036e-02	3.76558176e-04
1.24000000e-01	1.97092364e-02	3.76687928e-04
1.24500000e-01	1.94591370e-02	3.69067086e-04
1.25000000e-01	1.95190781e-02	3.70790363e-04
1.25500000e-01	1.96228352e-02	3.71009762e-04
1.26000000e-01	1.96276289e-02	3.71118005e-04
1.26500000e-01	1.95902229e-02	3.68935693e-04
1.27000000e-01	1.97428265e-02	3.71323492e-04
1.27500000e-01	1.96041702e-02	3.67680931e-04
1.28000000e-01	1.98244044e-02	3.71753089e-04
1.28500000e-01	1.95945065e-02	3.65938096e-04
1.29000000e-01	1.94796717e-02	3.63262220e-04
1.29500000e-01	1.96097566e-02	3.65449956e-04
1.30000000e-01	1.96944200e-02	3.65337662e-04
1.30500000e-01	1.94314397e-02	3.60347841e-04
1.31000000e-01	1.93497102e-02	3.59638565e-04
1.31500000e-01	1.97778282e-02	3.65650604e-04
1.32000000e-01	1.98304549e-02	3.65925078e-04
1.32500000e-01	1.95615520e-02	3.60310693e-04
1.33000000e-01	1.97222341e-02	3.61980041e-04
1.33500000e-01	1.95600236e-02	3.56491380e-04
1.34000000e-01	1.94803309e-02	3.56585434e-04
1.34500000e-01	1.96691405e-02	3.57284249e-04
1.35000000e-01	1.98267137e-02	3.58830908e-04
1.35500000e-01	1.95903969e-02	3.55201713e-04
1.36000000e-01	1.96954860e-02	3.54960214e-04
1.36500000e-01	1.96026712e-02	3.54700753e-04
1.37000000e-01	1.95939280e-02	3.52640401e-04
1.37500000e-01	1.95979422e-02	3.51491118e-04
1.38000000e-01	1.95234445e-02	3.51286246e-04
1.38500000e-01	1.95052293e-02	3.50635973e-04
1.39000000e-01	1.96892398e-02	3.53592516e-04
1.39500000e-01	1.95024045e-02	3.49251765e-04
1.40000000e-01	1.97205533e-02	3.52417101e-04
1.40500000e-01	1.94372367e-02	3.47480874e-04
1.41000000e-01	1.95269664e-02	3.48336590e-04
1.41500000e-01	1.94777277e-02	3.47809629e-04
1.42000000e-01	1.94596897e-02	3.45986184e-04
1.42500000e-01	1.96284620e-02	3.49258468e-04
1.43000000e-01	1.95850824e-02	3.47429753e-04
1.43500000e-01	1.96274801e-02	3.46923023e-04
1.44000000e-01	1.93862414e-02	3.42803486e-04
1.44500000e-01	1.92807899e-02	3.39472271e-04
1.45000000e-01	1.95431972e-02	3.44019198e-04
1.45500000e-01	1.94499051e-02	3.42196939e-04
1.46000000e-01	1.93373875e-02	3.39577794e-04
1.46500000e-01	1.92764728e-02	3.37693588e-04
1.47000000e-01	1.92498387e-02	3.36686576e-04
1.47500000e-01	1.94376940e-02	3.39198428e-04
1.48000000e-01	1.93741052e-02	3.39206227e-04
1.48500000e-01	1.92517344e-02	3.34986358e-04
1.49000000e-01	1.91939446e-02	3.34180186e-04
1.49500000e-01	1.93860129e-02	3.35748760e-04
1.50000000e-01	1.94416392e-02	3.36761084e-04
1.50500000e-01	1.93719019e-02	3.35846590e-04
1.51000000e-01	1.93503964e-02	3.33728684e-04
1.51500000e-01	1.94824523e-02	3.34257340e-04
1.52000000e-01	1.94220625e-02	3.33175854e-04
1.52500000e-01	1.92583391e-02	3.31336101e-04
1.53000000e-01	1.91925065e-02	3.29271082e-04
1.53500000e-01	1.92368499e-02	3.29138860e-04
1.54000000e-01	1.92558189e-02	3.28292583e-04
1.54500000e-01	1.92614902e-02	3.34781625e-04
1.55000000e-01	1.90868396e-02	3.36565428e-04
1.55500000e-01	1.93395394e-02	3.42215216e-04
1.56000000e-01	1.90678774e-02	3.39870520e-04
1.56500000e-01	1.92232351e-02	3.42578064e-04
1.57000000e-01	1.90968089e-02	3.40629466e-04
1.57500000e-01	1.91718138e-02	3.35855164e-04
1.58000000e-01	1.90600980e-02	3.29062639e-04
1.58500000e-01	1.91230330e-02	3.27648747e-04
1.59000000e-01	1.89890122e-02	3.24610332e-04
1.59500000e-01	1.91923626e-02	3.26999018e-04
1.60000000e-01	1.90633585e-02	3.25014784e-04
1.60500000e-01	1.90948461e-02	3.23165149e-04
1.61000000e-01	1.89408293e-02	3.22517371e-04
1.61500000e-01	1.90411862e-02	3.21815141e-04
1.62000000e-01	1.92126072e-02	3.23767085e-04
1.62500000e-01	1.89467633e-02	3.19619956e-04
1.63000000e-01	1.89451003e-02	3.17934718e-04
1.63500000e-01	1.91780340e-02	3.22949292e-04
1.64000000e-01	1.92120110e-02	3.20335889e-04
1.64500000e-01	1.91064733e-02	3.19604030e-04
1.65000000e-01	1.90553255e-02	3.17053929e-04
1.65500000e-01	1.90554657e-02	3.16124907e-04
1.66000000e-01	1.90276919e-02	3.16415529e-04
1.66500000e-01	1.89284415e-02	3.13461197e-04
1.67000000e-01	1.90604145e-02	3.15470700e-04
1.67500000e-01	1.90069637e-02	3.14483021e-04
1.68000000e-01	1.89918775e-02	3.13935959e-04
1.68500000e-01	1.89138128e-02	3.11095293e-04
1.69000000e-01	1.88655651e-02	3.10384431e-04
1.69500000e-01	1.89266887e-02	3.10141717e-04
1.70000000e-01	1.88179718e-02	3.09337656e-04
1.70500000e-01	1.88573994e-02	3.08218881e-04
1.71000000e-01	1.89532163e-02	3.09987534e-04
1.71500000e-01	1.89797997e-02	3.10822869e-04
1.72000000e-01	1.90502841e-02	3.10182237e-04
1.72500000e-01	1.89208895e-02	3.08507287e-04
1.73000000e-01	1.89247943e-02	3.07208412e-04
1.73500000e-01	1.87952684e-02	3.04022407e-04
1.74000000e-01	1.88964017e-02	3.05272857e-04
1.74500000e-01	1.89286618e-02	3.04006311e-04
1.75000000e-01	1.89457123e-02	3.03799967e-04
1.75500000e-01	1.87546675e-02	3.01098276e-04
1.76000000e-01	1.86953205e-02	2.99932095e-04
1.76500000e-01	1.86438041e-02	2.99614622e-04
1.77000000e-01	1.85780234e-02	2.96801968e-04
1.77500000e-01	1.85820205e-02	2.97834545e-04
1.78000000e-01	1.88858766e-02	3.00292596e-04
1.78500000e-01	1.85298933e-02	2.95982706e-04
1.79000000e-01	1.87446551e-02	2.98792385e-04
1.79500000e-01	1.86627067e-02	2.98091535e-04
1.80000000e-01	1.88342740e-02	3.00179125e-04
1.80500000e-01	1.88177793e-02	2.99507382e-04
1.81000000e-01	1.85368802e-02	2.94926077e-04
1.81500000e-01	1.85986609e-02	2.94704033e-04
1.82000000e-01	1.85785062e-02	2.94901883e-04
1.82500000e-01	1.85476157e-02	2.92538733e-04
1.83000000e-01	1.86571104e-02	2.95696516e-04
1.83500000e-01	1.85199858e-02	2.92248964e-04
1.84000000e-01	1.87652715e-02	2.95921619e-04
1.84500000e-01	1.85979626e-02	2.92810248e-04
1.85000000e-01	1.86995641e-02	2.93950973e-04
1.85500000e-01	1.85521772e-02	2.91379760e-04
1.86000000e-01	1.83440854e-02	2.87693980e-04
1.86500000e-01	1.85911623e-02	2.91180244e-04
1.87000000e-01	1.86222718e-02	2.90663191e-04
1.87500000e-01	1.85809198e-02	2.89251822e-04
1.88000000e-01	1.84753001e-02	2.88140364e-04
1.88500000e-01	1.84320534e-02	2.86519843e-04
1.89000000e-01	1.84092681e-02	2.86171772e-04
1.89500000e-01	1.83521929e-02	2.85799590e-04
1.90000000e-01	1.85121597e-02	2.87126012e-04
1.90500000e-01	1.83989815e-02	2.85066043e-04
1.91000000e-01	1.83149368e-02	2.83145014e-04
1.91500000e-01	1.83925556e-02	2.84439580e-04
1.92000000e-01	1.83876656e-02	2.83379444e-04
1.92500000e-01	1.84014383e-02	2.82686958e-04
1.93000000e-01	1.83698884e-02	2.83104961e-04
1.93500000e-01	1.85568474e-02	2.85448143e-04
1.94000000e-01	1.85290050e-02	2.84058874e-04
1.94500000e-01	1.84438536e-02	2.83418013e-04
1.95000000e-01	1.85164487e-02	2.83847722e-04
1.95500000e-01	1.83744661e-02	2.80699519e-04
1.96000000e-01	1.86022413e-02	2.84053374e-04
1.96500000e-01	1.83972352e-02	2.80738785e-04
1.97000000e-01	1.84090169e-02	2.80588103e-04
1.97500000e-01	1.82324494e-02	2.77695125e-04
1.98000000e-01	1.83613415e-02	2.78444627e-04
1.98500000e-01	1.84751900e-02	2.80608132e-04
1.99000000e-01	1.81030068e-02	2.74510955e-04
1.99500000e-01	1.83188293e-02	2.76860679e-04
2.00000000e-01	1.84130611e-02	2.78245139e-04
2.00500000e-01	1.84494190e-02	2.79260589e-04
2.01000000e-01	1.83849055e-02	2.77183054e-04
2.01500000e-01	1.81885028e-02	2.74176317e-04
2.02000000e-01	1.83017711e-02	2.76243315e-04
2.02500000e-01	1.82622948e-02	2.74159130e-04
2.03000000e-01	1.81863890e-02	2.73976762e-04
2.03500000e-01	1.82961094e-02	2.74698502e-04
2.04000000e-01	1.83413362e-02	2.74967566e-04
2.04500000e-01	1.81050532e-02	2.71941680e-04
2.05000000e-01	1.83491142e-02	2.73570907e-04
2.05500000e-01	1.82337443e-02	2.74086255e-04
2.06000000e-01	1.79701589e-02	2.67373742e-04
2.06500000e-01	1.82322109e-02	2.71665301e-04
2.07000000e-01	1.83118677e-02	2.71803773e-04
2.07500000e-01	1.80962987e-02	2.68652317e-04
2.08000000e-01	1.81828742e-02	2.70688901e-04
2.08500000e-01	1.81672953e-02	2.68770056e-04
2.09000000e-01	1.82829205e-02	2.70488451e-04
2.09500000e-01	1.81360264e-02	2.68338005e-04
2.10000000e-01	1.81000258e-02	2.67958020e-04
2.10500000e-01	1.82344745e-02	2.69193453e-04
2.11000000e-01	1.81586264e-02	2.66678250e-04
2.11500000e-01	1.81389347e-02	2.67508841e-04
2.12000000e-01	1.80966225e-02	2.65516130e-04
2.12500000e-01	1.81189213e-02	2.66585076e-04
2.13000000e-01	1.78739965e-02	2.61773307e-04
2.13500000e-01	1.78574622e-02	2.62214452e-04
2.14000000e-01	1.81230796e-02	2.65607465e-04
2.14500000e-01	1.80856407e-02	2.63839579e-04
2.15000000e-01	1.80484826e-02	2.64888212e-04
2.15500000e-01	1.79534987e-02	2.61032064e-04
2.16000000e-01	1.79512842e-02	2.61840040e-04
2.16500000e-01	1.81424506e-02	2.64230574e-04
2.17000000e-01	1.80984684e-02	2.66602701e-04
2.17500000e-01	1.80006378e-02	2.69958396e-04
2.18000000e-01	1.80590444e-02	2.71260290e-04
2.18500000e-01	1.80199192e-02	2.72560800e-04
2.19000000e-01	1.79024148e-02	2.71464890e-04
2.19500000e-01	1.79144454e-02	2.73165113e-04
2.20000000e-01	1.78641270e-02	2.74031617e-04
2.20500000e-01	1.78757889e-02	2.74400753e-04
2.21000000e-01	1.79924393e-02	2.76457412e-04
2.21500000e-01	1.78739306e-02	2.76449297e-04
2.22000000e-01	1.80733499e-02	2.79236214e-04
2.22500000e-01	1.78675353e-02	2.76317500e-04
2.23000000e-01	1.78271994e-02	2.77464338e-04
2.23500000e-01	1.79301881e-02	2.79396630e-04
2.24000000e-01	1.78555675e-02	2.79176445e-04
2.24500000e-01	1.77403448e-02	2.77573110e-04
2.25000000e-01	1.77265467e-02	2.77603474e-04
2.25500000e-01	1.79219683e-02	2.81357313e-04
2.26000000e-01	1.78374572e-02	2.81299941e-04
2.26500000e-01	1.79307233e-02	2.77330768e-04
2.27000000e-01	1.78526752e-02	2.73485720e-04
2.27500000e-01	1.79405433e-02	2.72470318e-04
2.28000000e-01	1.79088177e-02	2.71629851e-04
2.28500000e-01	1.79316931e-02	2.69808506e-04
2.29000000e-01	1.80499792e-02	2.71257783e-04
2.29500000e-01	1.78390978e-02	2.66518625e-04
2.30000000e-01	1.79399027e-02	2.67147656e-04
2.30500000e-01	1.79458848e-02	2.66181182e-04
2.31000000e-01	1.77175005e-02	2.62347763e-04
2.31500000e-01	1.77752302e-02	2.63479823e-04
2.32000000e-01	1.77303056e-02	2.61167116e-04
2.32500000e-01	1.80500814e-02	2.65538238e-04
2.33000000e-01	1.78258075e-02	2.61681668e-04
2.33500000e-01	1.78410206e-02	2.61402020e-04
2.34000000e-01	1.78402287e-02	2.60653304e-04
2.34500000e-01	1.77423222e-02	2.58481427e-04
2.35000000e-01	1.77603437e-02	2.58976960e-04
2.35500000e-01	1.78793360e-02	2.59414792e-04
2.36000000e-01	1.76999677e-02	2.57652908e-04
2.36500000e-01	1.77396869e-02	2.57230551e-04
2.37000000e-01	1.79367515e-02	2.58746491e-04
2.37500000e-01	1.76864269e-02	2.55584232e-04
2.38000000e-01	1.76302982e-02	2.53922871e-04
2.38500000e-01	1.76490628e-02	2.54747327e-04
2.39000000e-01	1.76251277e-02	2.53305589e-04
2.39500000e-01	1.77475406e-02	2.54430496e-04
2.40000000e-01	1.75538419e-02	2.51530863e-04
2.40500000e-01	1.76722009e-02	2.53153289e-04
2.41000000e-01	1.77432203e-02	2.53543160e-04
2.41500000e-01	1.75953525e-02	2.50613576e-04
2.42000000e-01	1.77953638e-02	2.53173545e-04
2.42500000e-01	1.77004789e-02	2.51568498e-04
2.43000000e-01	1.77157962e-02	2.51197920e-04
2.43500000e-01	1.76364039e-02	2.49730117e-04
2.44000000e-01	1.75537967e-02	2.47738657e-04
2.44500000e-01	1.76504871e-02	2.48688331e-04
2.45000000e-01	1.74996550e-02	2.46346143e-04
2.45500000e-01	1.77516221e-02	2.50199232e-04
2.46000000e-01	1.76340547e-02	2.47699118e-04
2.46500000e-01	1.75899213e-02	2.46812497e-04
2.47000000e-01	1.74304718e-02	2.44957732e-04
2.47500000e-01	1.74670819e-02	2.44074751e-04
2.48000000e-01	1.74380957e-02	2.44189627e-04
2.48500000e-01	1.74821698e-02	2.44111326e-04
2.49000000e-01	1.75253424e-02	2.44251159e-04
2.49500000e-01	1.74132323e-02	2.43525798e-04
2.50000000e-01	1.75454947e-02	2.43926245e-04
2.50500000e-01	1.74885843e-02	2.44472617e-04
2.51000000e-01	1.73519500e-02	2.40906001e-04
2.51500000e-01	1.74217464e-02	2.42354325e-04
2.52000000e-01	1.74293503e-02	2.42482757e-04
2.52500000e-01	1.75225123e-02	2.42261142e-04
2.53000000e-01	1.74454397e-02	2.41830036e-04
2.53500000e-01	1.73131379e-02	2.39318289e-04
2.54000000e-01	1.75456764e-02	2.42990886e-04
2.54500000e-01	1.73167621e-02	2.38982677e-04
2.55000000e-01	1.73545985e-02	2.38965740e-04
2.55500000e-01	1.72685344e-02	2.37985314e-04
2.56000000e-01	1.74296199e-02	2.39952025e-04
2.56500000e-01	1.73196611e-02	2.37473200e-04
2.57000000e-01	1.72853230e-02	2.36917754e-04
2.57500000e-01	1.74028597e-02	2.37710805e-04
2.58000000e-01	1.74242642e-02	2.38817044e-04
2.58500000e-01	1.74383958e-02	2.38503490e-04
2.59000000e-01	1.73390486e-02	2.36983897e-04
2.59500000e-01	1.72177644e-02	2.35289097e-04
2.60000000e-01	1.73181986e-02	2.35996380e-04
2.60500000e-01	1.73635302e-02	2.36214866e-04
2.61000000e-01	1.72373182e-02	2.34396839e-04
2.61500000e-01	1.74348332e-02	2.36690538e-04
2.62000000e-01	1.72335447e-02	2.33120688e-04
2.62500000e-01	1.72324317e-02	2.33911444e-04
2.63000000e-01	1.72347272e-02	2.33634050e-04
2.63500000e-01	1.73964128e-02	2.34579969e-04
2.64000000e-01	1.72097394e-02	2.32604209e-04
2.64500000e-01	1.72526123e-02	2.33086247e-04
2.65000000e-01	1.74354774e-02	2.34619841e-04
2.65500000e-01	1.71521999e-02	2.30912611e-04
2.66000000e-01	1.71569487e-02	2.30876609e-04
2.66500000e-01	1.71372994e-02	2.30026154e-04
2.67000000e-01	1.71324477e-02	2.29930483e-04
2.67500000e-01	1.73106194e-02	2.32019338e-04
2.68000000e-01	1.71541489e-02	2.29206486e-04
2.68500000e-01	1.71166686e-02	2.28839119e-04
2.69000000e-01	1.71548250e-02	2.28415832e-04
2.69500000e-01	1.72839375e-02	2.30030470e-04
2.70000000e-01	1.71353424e-02	2.28519509e-04
2.70500000e-01	1.72503648e-02	2.29246618e-04
2.71000000e-01	1.73820846e-02	2.30987603e-04
2.71500000e-01	1.73625294e-02	2.30612371e-04
2.72000000e-01	1.70536373e-02	2.26058075e-04
2.72500000e-01	1.70488489e-02	2.26408737e-04
2.73000000e-01	1.73211037e-02	2.29359270e-04
2.73500000e-01	1.70510800e-02	2.25634255e-04
2.74000000e-01	1.72756696e-02	2.28422275e-04
2.74500000e-01	1.70838844e-02	2.25299378e-04
2.75000000e-01	1.72112799e-02	2.27355407e-04
2.75500000e-01	1.70744418e-02	2.25882353e-04
2.76000000e-01	1.71203760e-02	2.25438842e-04
2.76500000e-01	1.69805500e-02	2.24070254e-04
2.77000000e-01	1.69570995e-02	2.23284285e-04
2.77500000e-01	1.70564501e-02	2.24537414e-04
2.78000000e-01	1.71237309e-02	2.24687801e-04
2.78500000e-01	1.70885446e-02	2.24129907e-04
2.79000000e-01	1.70274794e-02	2.23635160e-04
2.79500000e-01	1.70789418e-02	2.23668555e-04
2.80000000e-01	1.71216612e-02	2.24449946e-04
2.80500000e-01	1.69988852e-02	2.21766796e-04
2.81000000e-01	1.69180283e-02	2.21570235e-04
2.81500000e-01	1.71071930e-02	2.23284413e-04
2.82000000e-01	1.68445857e-02	2.20267116e-04
2.82500000e-01	1.70628910e-02	2.22976843e-04
2.83000000e-01	1.68709984e-02	2.19674071e-04
2.83500000e-01	1.70011319e-02	2.21314518e-04
2.84000000e-01	1.70023748e-02	2.20929606e-04
2.84500000e-01	1.68680071e-02	2.19129166e-04
2.85000000e-01	1.69872513e-02	2.20173569e-04
2.85500000e-01	1.69886826e-02	2.19624202e-04
2.86000000e-01	1.69324104e-02	2.19895356e-04
2.86500000e-01	1.68036328e-02	2.17142178e-04
2.87000000e-01	1.67334874e-02	2.16950693e-04
2.87500000e-01	1.70122709e-02	2.19225676e-04
2.88000000e-01	1.69179205e-02	2.17562435e-04
2.88500000e-01	1.68985862e-02	2.17699327e-04
2.89000000e-01	1.68637662e-02	2.17064632e-04
2.89500000e-01	1.68356679e-02	2.16746271e-04
2.90000000e-01	1.68135918e-02	2.16150875e-04
2.90500000e-01	1.68356810e-02	2.16117148e-04
2.91000000e-01	1.67856194e-02	2.15285799e-04
2.91500000e-01	1.68511681e-02	2.15044321e-04
2.92000000e-01	1.68714554e-02	2.15481808e-04
2.92500000e-01	1.69160992e-02	2.16243422e-04
2.93000000e-01	1.68162714e-02	2.14670976e-04
2.93500000e-01	1.69321936e-02	2.15956316e-04
2.94000000e-01	1.67471483e-02	2.13263507e-04
2.94500000e-01	1.68855761e-02	2.15483237e-04
2.95000000e-01	1.68082962e-02	2.13554122e-04
2.95500000e-01	1.66836216e-02	2.12687552e-04
2.96000000e-01	1.69445444e-02	2.15171304e-04
2.96500000e-01	1.67687410e-02	2.12863214e-04
2.97000000e-01	1.69501374e-02	2.14985096e-04
2.97500000e-01	1.65186687e-02	2.09099825e-04
2.98000000e-01	1.68486714e-02	2.13451095e-04
2.98500000e-01	1.66771728e-02	2.11622713e-04
2.99000000e-01	1.67899884e-02	2.12565356e-04
2.99500000e-01	1.66868007e-02	2.11335902e-04
3.00000000e-01	1.66955301e-02	2.11062589e-04
3.00500000e-01	1.67237371e-02	2.11320199e-04
3.01000000e-01	1.68563290e-02	2.12208728e-04
3.01500000e-01	1.66476566e-02	2.09914988e-04
3.02000000e-01	1.68613611e-02	2.11452207e-04
3.02500000e-01	1.66391016e-02	2.09225445e-04
3.03000000e-01	1.66682315e-02	2.09546789e-04
3.03500000e-01	1.66934360e-02	2.08675864e-04
3.04000000e-01	1.67630898e-02	2.10647808e-04
3.04500000e-01	1.66033533e-02	2.08017498e-04
3.05000000e-01	1.66511525e-02	2.08758496e-04
3.05500000e-01	1.67151719e-02	2.09384148e-04
3.06000000e-01	1.66987850e-02	2.07965042e-04
3.06500000e-01	1.66656673e-02	2.07814590e-04
3.07000000e-01	1.66878167e-02	2.07838545e-04
3.07500000e-01	1.67455068e-02	2.08701956e-04
3.08000000e-01	1.66639244e-02	2.07870176e-04
3.08500000e-01	1.65474259e-02	2.05570814e-04
3.09000000e-01	1.66319235e-02	2.07590399e-04
3.09500000e-01	1.66441273e-02	2.06746623e-04
3.10000000e-01	1.65676445e-02	2.05943468e-04
3.10500000e-01	1.65314343e-02	2.05307981e-04
3.11000000e-01	1.65784578e-02	2.05374382e-04
3.11500000e-01	1.65487200e-02	2.05223561e-04
3.12000000e-01	1.64983908e-02	2.04398162e-04
3.12500000e-01	1.64601617e-02	2.03747813e-04
3.13000000e-01	1.65772984e-02	2.04611222e-04
3.13500000e-01	1.63794980e-02	2.02423144e-04
3.14000000e-01	1.65220707e-02	2.03846883e-04
3.14500000e-01	1.64686278e-02	2.03029707e-04
3.15000000e-01	1.65117612e-02	2.03024907e-04
3.15500000e-01	1.66535671e-02	2.04801576e-04
3.16000000e-01	1.65600602e-02	2.03405274e-04
3.16500000e-01	1.65860047e-02	2.04063929e-04
3.17000000e-01	1.64399441e-02	2.01371220e-04
3.17500000e-01	1.63761612e-02	2.01476676e-04
3.18000000e-01	1.64620208e-02	2.01955190e-04
3.18500000e-01	1.63494304e-02	2.00592435e-04
3.19000000e-01	1.63390816e-02	1.99850638e-04
3.19500000e-01	1.64347640e-02	2.01093796e-04
3.20000000e-01	1.63219244e-02	1.99701601e-04
3.20500000e-01	1.63785681e-02	1.99568638e-04
3.21000000e-01	1.63879233e-02	1.99961615e-04
3.21500000e-01	1.63087219e-02	1.98940498e-04
3.22000000e-01	1.64143571e-02	2.00249331e-04
3.22500000e-01	1.63217278e-02	1.98322592e-04
3.23000000e-01	1.63082953e-02	1.98160212e-04
3.23500000e-01	1.64095200e-02	1.99386098e-04
3.24000000e-01	1.62038448e-02	1.96833452e-04
3.24500000e-01	1.64619097e-02	2.00002071e-04
3.25000000e-01	1.62823290e-02	1.97364241e-04
3.25500000e-01	1.63418644e-02	1.98324868e-04
3.26000000e-01	1.61887820e-02	1.95859844e-04
3.26500000e-01	1.61913341e-02	1.96004498e-04
3.27000000e-01	1.63633002e-02	1.97880077e-04
3.27500000e-01	1.61980729e-02	1.95593903e-04
3.28000000e-01	1.62860074e-02	1.96816960e-04
3.28500000e-01	1.62637482e-02	1.96454265e-04
3.29000000e-01	1.62336721e-02	1.95605928e-04
3.29500000e-01	1.63249184e-02	1.97003142e-04
3.30000000e-01	1.62578123e-02	1.95645872e-04
3.30500000e-01	1.62871283e-02	1.96185774e-04
3.31000000e-01	1.60342735e-02	1.92709392e-04
3.31500000e-01	1.60438466e-02	1.92593390e-04
3.32000000e-01	1.61865622e-02	1.95008562e-04
3.32500000e-01	1.61925925e-02	1.94332687e-04
3.33000000e-01	1.62381196e-02	1.94762639e-04
3.33500000e-01	1.61711718e-02	1.93730228e-04
3.34000000e-01	1.62340857e-02	1.94457013e-04
3.34500000e-01	1.60359777e-02	1.92181803e-04
3.35000000e-01	1.61476468e-02	1.92662291e-04
3.35500000e-01	1.62702942e-02	1.93966403e-04
3.36000000e-01	1.61330990e-02	1.92417429e-04
3.36500000e-01	1.60407261e-02	1.91823387e-04
3.37000000e-01	1.61202114e-02	1.91934147e-04
3.37500000e-01	1.61226698e-02	1.91663769e-04
3.38000000e-01	1.60223068e-02	1.91085061e-04
3.38500000e-01	1.58867162e-02	1.88774168e-04
3.39000000e-01	1.60250818e-02	1.90617452e-04
3.39500000e-01	1.60282420e-02	1.90194143e-04
3.40000000e-01	1.61186917e-02	1.90980339e-04
3.40500000e-01	1.61030412e-02	1.91230763e-04
3.41000000e-01	1.59919583e-02	1.89148420e-04
3.41500000e-01	1.60142092e-02	1.89777758e-04
3.42000000e-01	1.60270058e-02	1.89128659e-04
3.42500000e-01	1.60040112e-02	1.89221399e-04
3.43000000e-01	1.60376020e-02	1.89258817e-04
3.43500000e-01	1.61122425e-02	1.89804896e-04
3.44000000e-01	1.59350466e-02	1.88286208e-04
3.44500000e-01	1.59588891e-02	1.87864974e-04
3.45000000e-01	1.60782268e-02	1.89063670e-04
3.45500000e-01	1.58486837e-02	1.86128368e-04
3.46000000e-01	1.59913013e-02	1.88307889e-04
3.46500000e-01	1.59936727e-02	1.88346544e-04
3.47000000e-01	1.59665276e-02	1.87426502e-04
3.47500000e-01	1.59828024e-02	1.87492346e-04
3.48000000e-01	1.58368971e-02	1.86008218e-04
3.48500000e-01	1.58390278e-02	1.86131698e-04
3.49000000e-01	1.58995298e-02	1.86170670e-04
3.49500000e-01	1.58819678e-02	1.85785475e-04
3.50000000e-01	1.59178729e-02	1.51876392e-04
3.51000000e-01	1.58588000e-02	1.30917003e-04
3.52000000e-01	1.58393620e-02	1.30575067e-04
3.53000000e-01	1.58414106e-02	1.30257171e-04
3.54000000e-01	1.57567860e-02	1.29469553e-04
3.55000000e-01	1.58880475e-02	1.30444657e-04
3.56000000e-01	1.58230147e-02	1.30415793e-04
3.57000000e-01	1.56689972e-02	1.31383748e-04
3.58000000e-01	1.57364013e-02	1.33244913e-04
3.59000000e-01	1.56723925e-02	1.33551663e-04
3.60000000e-01	1.57323186e-02	1.34920622e-04
3.61000000e-01	1.55998124e-02	1.34306914e-04
3.62000000e-01	1.55914351e-02	1.34732659e-04
3.63000000e-01	1.55693375e-02	1.35464889e-04
3.64000000e-01	1.54797323e-02	1.34889169e-04
3.65000000e-01	1.55906407e-02	1.36453103e-04
3.66000000e-01	1.54863354e-02	1.34002512e-04
3.67000000e-01	1.55419053e-02	1.32415572e-04
3.68000000e-01	1.56147273e-02	1.32216737e-04
3.69000000e-01	1.55438678e-02	1.30910596e-04
3.70000000e-01	1.54823268e-02	1.29594020e-04
3.71000000e-01	1.55862500e-02	1.32462846e-04
3.72000000e-01	1.55663722e-02	1.32983164e-04
3.73000000e-01	1.55642652e-02	1.33257090e-04
3.74000000e-01	1.55496232e-02	1.33200732e-04
3.75000000e-01	1.55278757e-02	1.33026999e-04
3.76000000e-01	1.54795803e-02	1.32722760e-04
3.77000000e-01	1.55716944e-02	1.33490836e-04
3.78000000e-01	1.54369506e-02	1.32422516e-04
3.79000000e-01	1.54026549e-02	1.31936814e-04
3.80000000e-01	1.54658436e-02	1.32327993e-04
3.81000000e-01	1.53937620e-02	1.31580096e-04
3.82000000e-01	1.53282797e-02	1.31271081e-04
3.83000000e-01	1.53612314e-02	1.31161960e-04
3.84000000e-01	1.53568864e-02	1.31306939e-04
3.85000000e-01	1.52170341e-02	1.30459414e-04
3.86000000e-01	1.54104351e-02	1.31733822e-04
3.87000000e-01	1.54036554e-02	1.31470078e-04
3.88000000e-01	1.53509249e-02	1.30997553e-04
3.89000000e-01	1.52342204e-02	1.30093674e-04
3.90000000e-01	1.52657003e-02	1.30093166e-04
3.91000000e-01	1.52121288e-02	1.29741398e-04
3.92000000e-01	1.52682528e-02	1.30278469e-04
3.93000000e-01	1.51933219e-02	1.29375065e-04
3.94000000e-01	1.51326849e-02	1.29003140e-04
3.95000000e-01	1.52854124e-02	1.30098195e-04
3.96000000e-01	1.51994786e-02	1.29467535e-04
3.97000000e-01	1.52429944e-02	1.29847328e-04
3.98000000e-01	1.52524642e-02	1.29804834e-04
3.99000000e-01	1.51694628e-02	1.29355066e-04
4.00000000e-01	1.51582419e-02	1.29329161e-04
4.01000000e-01	1.51740748e-02	1.29264455e-04
4.02000000e-01	1.52080530e-02	1.29614311e-04
4.03000000e-01	1.50811655e-02	1.28364175e-04
4.04000000e-01	1.50601537e-02	1.28178852e-04
4.05000000e-01	1.50436051e-02	1.28221721e-04
4.06000000e-01	1.51419120e-02	1.28834061e-04
4.07000000e-01	1.50699347e-02	1.28138970e-04
4.08000000e-01	1.50576995e-02	1.27924704e-04
4.09000000e-01	1.49955359e-02	1.27393893e-04
4.10000000e-01	1.50848600e-02	1.28076011e-04
4.11000000e-01	1.50131806e-02	1.27491887e-04
4.12000000e-01	1.49721259e-02	1.27371650e-04
4.13000000e-01	1.49393438e-02	1.26903160e-04
4.14000000e-01	1.49562059e-02	1.26987268e-04
4.15000000e-01	1.49929922e-02	1.27174421e-04
4.16000000e-01	1.49482136e-02	1.26792353e-04
4.17000000e-01	1.49243234e-02	1.26439810e-04
4.18000000e-01	1.49003031e-02	1.27799832e-04
4.19000000e-01	1.50639585e-02	1.30584847e-04
4.20000000e-01	1.50008068e-02	1.30769013e-04
4.21000000e-01	1.49203620e-02	1.30546564e-04
4.22000000e-01	1.49375583e-02	1.31304962e-04
4.23000000e-01	1.49855655e-02	1.32166927e-04
4.24000000e-01	1.50200660e-02	1.32677867e-04
4.25000000e-01	1.50571506e-02	1.32902179e-04
4.26000000e-01	1.50077193e-02	1.32592536e-04
4.27000000e-01	1.50300041e-02	1.32740055e-04
4.28000000e-01	1.49394659e-02	1.32422321e-04
4.29000000e-01	1.48662041e-02	1.32026582e-04
4.30000000e-01	1.49682513e-02	1.32812897e-04
4.31000000e-01	1.49063252e-02	1.32215269e-04
4.32000000e-01	1.48568426e-02	1.32007796e-04
4.33000000e-01	1.48649416e-02	1.32215160e-04
4.34000000e-01	1.47781626e-02	1.31484173e-04
4.35000000e-01	1.48667178e-02	1.32263881e-04
4.36000000e-01	1.48250105e-02	1.32253118e-04
4.37000000e-01	1.47782479e-02	1.32104976e-04
4.38000000e-01	1.48773281e-02	1.32711373e-04
4.39000000e-01	1.48406861e-02	1.32884220e-04
4.40000000e-01	1.47626752e-02	1.32238897e-04
4.41000000e-01	1.48587928e-02	1.33413802e-04
4.42000000e-01	1.46553236e-02	1.31921116e-04
4.43000000e-01	1.48614415e-02	1.33575829e-04
4.44000000e-01	1.47486634e-02	1.32660180e-04
4.45000000e-01	1.47344561e-02	1.32871713e-04
4.46000000e-01	1.47030071e-02	1.32656739e-04
4.47000000e-01	1.47178583e-02	1.32961549e-04
4.48000000e-01	1.47414688e-02	1.33439816e-04
4.49000000e-01	1.46879195e-02	1.33009721e-04
4.50000000e-01	1.46180288e-02	1.32341070e-04
4.51000000e-01	1.46816397e-02	1.32932080e-04
4.52000000e-01	1.47236064e-02	1.33576399e-04
4.53000000e-01	1.46659092e-02	1.33391837e-04
4.54000000e-01	1.46087173e-02	1.32830751e-04
4.55000000e-01	1.46350297e-02	1.33133059e-04
4.56000000e-01	1.46764094e-02	1.33508851e-04
4.57000000e-01	1.45967057e-02	1.33117282e-04
4.58000000e-01	1.45130940e-02	1.32521622e-04
4.59000000e-01	1.46015881e-02	1.33301289e-04
4.60000000e-01	1.45398979e-02	1.32926212e-04
4.61000000e-01	1.46372083e-02	1.33886990e-04
4.62000000e-01	1.45430423e-02	1.33323972e-04
4.63000000e-01	1.45769507e-02	1.33511280e-04
4.64000000e-01	1.45079174e-02	1.33195691e-04
4.65000000e-01	1.45291322e-02	1.33403535e-04
4.66000000e-01	1.44661510e-02	1.32796087e-04
4.67000000e-01	1.46213618e-02	1.34153777e-04
4.68000000e-01	1.44417439e-02	1.32808402e-04
4.69000000e-01	1.44811662e-02	1.33166701e-04
4.70000000e-01	1.44963295e-02	1.33286326e-04
4.71000000e-01	1.45475248e-02	1.33798654e-04
4.72000000e-01	1.45122632e-02	1.33377108e-04
4.73000000e-01	1.44915035e-02	1.33184567e-04
4.74000000e-01	1.43804902e-02	1.32047818e-04
4.75000000e-01	1.44252442e-02	1.32608568e-04
4.76000000e-01	1.44613840e-02	1.32774555e-04
4.77000000e-01	1.44625181e-02	1.33028491e-04
4.78000000e-01	1.45372950e-02	1.33946735e-04
4.79000000e-01	1.44074535e-02	1.32384739e-04
4.80000000e-01	1.43593587e-02	1.32431093e-04
4.81000000e-01	1.43605914e-02	1.32420567e-04
4.82000000e-01	1.43300993e-02	1.32077802e-04
4.83000000e-01	1.43789722e-02	1.32566408e-04
4.84000000e-01	1.43159266e-02	1.32191650e-04
4.85000000e-01	1.44258335e-02	1.33089039e-04
4.86000000e-01	1.43530981e-02	1.32503229e-04
4.87000000e-01	1.43400603e-02	1.32454712e-04
4.88000000e-01	1.43567011e-02	1.32941488e-04
4.89000000e-01	1.42524722e-02	1.32093808e-04
4.90000000e-01	1.43351316e-02	1.32746102e-04
4.91000000e-01	1.43047048e-02	1.32669344e-04
4.92000000e-01	1.42818343e-02	1.32510690e-04
4.93000000e-01	1.42470206e-02	1.32101340e-04
4.94000000e-01	1.43096745e-02	1.32938128e-04
4.95000000e-01	1.42130777e-02	1.33017378e-04
4.96000000e-01	1.42110273e-02	1.36633488e-04
4.97000000e-01	1.42870720e-02	1.40056183e-04
4.98000000e-01	1.43272813e-02	1.42133393e-04
4.99000000e-01	1.42761777e-02	1.43576986e-04
5.00000000e-01	1.42683980e-02	1.44986174e-04
5.01000000e-01	1.41456034e-02	1.45087127e-04
5.02000000e-01	1.42064487e-02	1.47285580e-04
5.03000000e-01	1.42521768e-02	1.48962582e-04
5.04000000e-01	1.43149803e-02	1.50813288e-04
5.05000000e-01	1.42123154e-02	1.47328373e-04
5.06000000e-01	1.42556909e-02	1.44998667e-04
5.07000000e-01	1.42430298e-02	1.43120309e-04
5.08000000e-01	1.42259546e-02	1.42184704e-04
5.09000000e-01	1.42428720e-02	1.41686451e-04
5.10000000e-01	1.41689474e-02	1.40592192e-04
5.11000000e-01	1.42198133e-02	1.40615756e-04
5.12000000e-01	1.40422814e-02	1.38931017e-04
5.13000000e-01	1.40681067e-02	1.38522711e-04
5.14000000e-01	1.41643540e-02	1.39204371e-04
5.15000000e-01	1.42002945e-02	1.39204420e-04
5.16000000e-01	1.40741007e-02	1.37766082e-04
5.17000000e-01	1.40938572e-02	1.37517734e-04
5.18000000e-01	1.40800885e-02	1.37410638e-04
5.19000000e-01	1.40450403e-02	1.36531944e-04
5.20000000e-01	1.40782570e-02	1.36561090e-04
5.21000000e-01	1.38964925e-02	1.34949055e-04
5.22000000e-01	1.40687589e-02	1.36335230e-04
5.23000000e-01	1.41005573e-02	1.36467191e-04
5.24000000e-01	1.40901606e-02	1.36585151e-04
5.25000000e-01	1.40845993e-02	1.35875586e-04
5.26000000e-01	1.40276757e-02	1.35744614e-04
5.27000000e-01	1.40112073e-02	1.35651014e-04
5.28000000e-01	1.39707754e-02	1.35465601e-04
5.29000000e-01	1.38959745e-02	1.34568048e-04
5.30000000e-01	1.39381248e-02	1.35032228e-04
5.31000000e-01	1.39519329e-02	1.35318761e-04
5.32000000e-01	1.39456186e-02	1.35128831e-04
5.33000000e-01	1.38987154e-02	1.34399092e-04
5.34000000e-01	1.38589480e-02	1.34185937e-04
5.35000000e-01	1.38602634e-02	1.34251143e-04
5.36000000e-01	1.39108411e-02	1.34421728e-04
5.37000000e-01	1.38920931e-02	1.34506236e-04
5.38000000e-01	1.39083960e-02	1.34449374e-04
5.39000000e-01	1.38536535e-02	1.33743211e-04
5.40000000e-01	1.38113757e-02	1.33422823e-04
5.41000000e-01	1.38411682e-02	1.33551321e-04
5.42000000e-01	1.37821170e-02	1.33398500e-04
5.43000000e-01	1.37212813e-02	1.32759759e-04
5.44000000e-01	1.37710107e-02	1.32982067e-04
5.45000000e-01	1.37595727e-02	1.33156786e-04
5.46000000e-01	1.37351180e-02	1.32583736e-04
5.47000000e-01	1.37347813e-02	1.32991067e-04
5.48000000e-01	1.37853767e-02	1.33206524e-04
5.49000000e-01	1.36640489e-02	1.31963899e-04
5.50000000e-01	1.36376555e-02	1.31823745e-04
5.51000000e-01	1.38151416e-02	1.33100743e-04
5.52000000e-01	1.36310979e-02	1.31072939e-04
5.53000000e-01	1.36714398e-02	1.31458702e-04
5.54000000e-01	1.37095486e-02	1.31856439e-04
5.55000000e-01	1.37300767e-02	1.31714867e-04
5.56000000e-01	1.36095111e-02	1.30690593e-04
5.57000000e-01	1.37526701e-02	1.32070460e-04
5.58000000e-01	1.35757987e-02	1.30412963e-04
5.59000000e-01	1.35382483e-02	1.30030572e-04
5.60000000e-01	1.36027307e-02	1.30675148e-04
5.61000000e-01	1.35986343e-02	1.30560735e-04
5.62000000e-01	1.35826994e-02	1.30772291e-04
5.63000000e-01	1.36124350e-02	1.30748327e-04
5.64000000e-01	1.36499653e-02	1.31024977e-04
5.65000000e-01	1.35792521e-02	1.30566633e-04
5.66000000e-01	1.35339357e-02	1.30432227e-04
5.67000000e-01	1.35850090e-02	1.30794994e-04
5.68000000e-01	1.34659575e-02	1.29543403e-04
5.69000000e-01	1.35770196e-02	1.30174738e-04
5.70000000e-01	1.36685298e-02	1.31265227e-04
5.71000000e-01	1.35598862e-02	1.30161699e-04
5.72000000e-01	1.35105227e-02	1.29954915e-04
5.73000000e-01	1.34176078e-02	1.29381764e-04
5.74000000e-01	1.34847970e-02	1.29470898e-04
5.75000000e-01	1.33966267e-02	1.29161972e-04
5.76000000e-01	1.33901462e-02	1.28961080e-04
5.77000000e-01	1.34166630e-02	1.29073583e-04
5.78000000e-01	1.34091155e-02	1.29124259e-04
5.79000000e-01	1.34137891e-02	1.29211607e-04
5.80000000e-01	1.32720169e-02	1.27995114e-04
5.81000000e-01	1.33743258e-02	1.28929439e-04
5.82000000e-01	1.34206805e-02	1.29463491e-04
5.83000000e-01	1.33892366e-02	1.28879627e-04
5.84000000e-01	1.33639703e-02	1.28691049e-04
5.85000000e-01	1.33936266e-02	1.29075538e-04
5.86000000e-01	1.33980200e-02	1.29066272e-04
5.87000000e-01	1.32916509e-02	1.28115283e-04
5.88000000e-01	1.32711989e-02	1.28115050e-04
5.89000000e-01	1.33461273e-02	1.28914623e-04
5.90000000e-01	1.32654355e-02	1.27904159e-04
5.91000000e-01	1.32124961e-02	1.27483463e-04
5.92000000e-01	1.33864505e-02	1.29145819e-04
5.93000000e-01	1.32818518e-02	1.28066346e-04
5.94000000e-01	1.31560754e-02	1.27122798e-04
5.95000000e-01	1.32773241e-02	1.28544740e-04
5.96000000e-01	1.32298939e-02	1.27908340e-04
5.97000000e-01	1.32556826e-02	1.28132488e-04
5.98000000e-01	1.32076462e-02	1.27687632e-04
5.99000000e-01	1.32467952e-02	1.28241495e-04
6.00000000e-01	1.32083027e-02	1.27626980e-04
6.01000000e-01	1.32651931e-02	1.28238222e-04
6.02000000e-01	1.31160473e-02	1.26479101e-04
6.03000000e-01	1.31016304e-02	1.26733268e-04
6.04000000e-01	1.32111932e-02	1.27697811e-04
6.05000000e-01	1.31533817e-02	1.27138270e-04
6.06000000e-01	1.31385332e-02	1.27053293e-04
6.07000000e-01	1.31870308e-02	1.27493150e-04
6.08000000e-01	1.30582714e-02	1.26508849e-04
6.09000000e-01	1.30589214e-02	1.26678355e-04
6.10000000e-01	1.30822656e-02	1.26917205e-04
6.11000000e-01	1.30702154e-02	1.26581461e-04
6.12000000e-01	1.30583861e-02	1.26470520e-04
6.13000000e-01	1.31722524e-02	1.27438438e-04
6.14000000e-01	1.31066112e-02	1.26987144e-04
6.15000000e-01	1.29842930e-02	1.25978583e-04
6.16000000e-01	1.30437077e-02	1.26489024e-04
6.17000000e-01	1.30613255e-02	1.26817620e-04
6.18000000e-01	1.30814714e-02	1.26788969e-04
6.19000000e-01	1.30707619e-02	1.26681938e-04
6.20000000e-01	1.29703123e-02	1.25433737e-04
6.21000000e-01	1.30182309e-02	1.25658553e-04
6.22000000e-01	1.29358537e-02	1.25110580e-04
6.23000000e-01	1.29586080e-02	1.25013446e-04
6.24000000e-01	1.31145668e-02	1.26144040e-04
6.25000000e-01	1.30002442e-02	1.24996026e-04
6.26000000e-01	1.29490571e-02	1.24398177e-04
6.27000000e-01	1.28709233e-02	1.23914544e-04
6.28000000e-01	1.29096595e-02	1.23969883e-04
6.29000000e-01	1.29675142e-02	1.24724309e-04
6.30000000e-01	1.30239854e-02	1.25237844e-04
6.31000000e-01	1.30156292e-02	1.24952484e-04
6.32000000e-01	1.28708776e-02	1.23838283e-04
6.33000000e-01	1.28728029e-02	1.23758653e-04
6.34000000e-01	1.28677655e-02	1.27015005e-04
6.35000000e-01	1.29988461e-02	1.31971236e-04
6.36000000e-01	1.29370317e-02	1.34091690e-04
6.37000000e-01	1.29965608e-02	1.36573192e-04
6.38000000e-01	1.29035762e-02	1.37047877e-04
6.39000000e-01	1.29606877e-02	1.39543640e-04
6.40000000e-01	1.28290689e-02	1.39728413e-04
6.41000000e-01	1.29901116e-02	1.43298230e-04
6.42000000e-01	1.29937504e-02	1.44784255e-04
6.43000000e-01	1.29515121e-02	1.44128851e-04
6.44000000e-01	1.29141796e-02	1.38726056e-04
6.45000000e-01	1.29472424e-02	1.36981354e-04
6.46000000e-01	1.28226031e-02	1.34844482e-04
6.47000000e-01	1.29999151e-02	1.35374438e-04
6.48000000e-01	1.30224822e-02	1.34491338e-04
6.49000000e-01	1.29390235e-02	1.33478568e-04
6.50000000e-01	1.28947218e-02	1.31745359e-04
6.51000000e-01	1.29971529e-02	1.32570491e-04
6.52000000e-01	1.30073250e-02	1.31989024e-04
6.53000000e-01	1.29426961e-02	1.31219199e-04
6.54000000e-01	1.27939117e-02	1.29216988e-04
6.55000000e-01	1.28771798e-02	1.29660986e-04
6.56000000e-01	1.29716625e-02	1.30693069e-04
6.57000000e-01	1.29652054e-02	1.30084199e-04
6.58000000e-01	1.28968759e-02	1.29366618e-04
6.59000000e-01	1.27501658e-02	1.28060269e-04
6.60000000e-01	1.28455740e-02	1.28707577e-04
6.61000000e-01	1.28796603e-02	1.28884498e-04
6.62000000e-01	1.29063323e-02	1.29296102e-04
6.63000000e-01	1.28650523e-02	1.28725837e-04
6.64000000e-01	1.28213087e-02	1.28209398e-04
6.65000000e-01	1.27115223e-02	1.27241692e-04
6.66000000e-01	1.27874909e-02	1.27873655e-04
6.67000000e-01	1.27856345e-02	1.27730242e-04
6.68000000e-01	1.27659869e-02	1.27152644e-04
6.69000000e-01	1.28459572e-02	1.27996076e-04
6.70000000e-01	1.27551087e-02	1.27425763e-04
6.71000000e-01	1.26573551e-02	1.26430470e-04
6.72000000e-01	1.27652749e-02	1.27351685e-04
6.73000000e-01	1.27505613e-02	1.26833967e-04
6.74000000e-01	1.27363272e-02	1.26773980e-04
6.75000000e-01	1.26138993e-02	1.25670943e-04
6.76000000e-01	1.27343721e-02	1.26724337e-04
6.77000000e-01	1.27371232e-02	1.26632545e-04
6.78000000e-01	1.26376747e-02	1.25521443e-04
6.79000000e-01	1.26530533e-02	1.25926264e-04
6.80000000e-01	1.26416570e-02	1.25857465e-04
6.81000000e-01	1.28159853e-02	1.27118082e-04
6.82000000e-01	1.25756150e-02	1.25043270e-04
6.83000000e-01	1.27149436e-02	1.26325910e-04
6.84000000e-01	1.26409768e-02	1.25577620e-04
6.85000000e-01	1.26825908e-02	1.25737840e-04
6.86000000e-01	1.25754230e-02	1.25052895e-04
6.87000000e-01	1.25666702e-02	1.24613208e-04
6.88000000e-01	1.27033353e-02	1.25941989e-04
6.89000000e-01	1.26407573e-02	1.25163117e-04
6.90000000e-01	1.26129450e-02	1.25400948e-04
6.91000000e-01	1.25990671e-02	1.25058903e-04
6.92000000e-01	1.26283560e-02	1.25298087e-04
6.93000000e-01	1.25866341e-02	1.24759236e-04
6.94000000e-01	1.25295391e-02	1.24402982e-04
6.95000000e-01	1.25038976e-02	1.24195568e-04
6.96000000e-01	1.24875170e-02	1.24321088e-04
6.97000000e-01	1.24757313e-02	1.23880139e-04
6.98000000e-01	1.25819893e-02	1.24536894e-04
6.99000000e-01	1.24881551e-02	1.23778693e-04
7.00000000e-01	1.25385626e-02	1.24270178e-04
7.01000000e-01	1.24933305e-02	1.23712096e-04
7.02000000e-01	1.24292980e-02	1.23390810e-04
7.03000000e-01	1.24650845e-02	1.23476740e-04
7.04000000e-01	1.25512504e-02	1.24370947e-04
7.05000000e-01	1.23324701e-02	1.22302377e-04
7.06000000e-01	1.25280533e-02	1.24063154e-04
7.07000000e-01	1.24066165e-02	1.22960732e-04
7.08000000e-01	1.24217986e-02	1.22635677e-04
7.09000000e-01	1.23377305e-02	1.22241533e-04
7.10000000e-01	1.24125013e-02	1.22600655e-04
7.11000000e-01	1.23169348e-02	1.22041143e-04
7.12000000e-01	1.23456625e-02	1.22170311e-04
7.13000000e-01	1.22276098e-02	1.21271654e-04
7.14000000e-01	1.22977150e-02	1.22017502e-04
7.15000000e-01	1.23119872e-02	1.22089654e-04
7.16000000e-01	1.23454989e-02	1.22031263e-04
7.17000000e-01	1.23214909e-02	1.21931712e-04
7.18000000e-01	1.22920954e-02	1.21698453e-04
7.19000000e-01	1.21961243e-02	1.20912263e-04
7.20000000e-01	1.23144594e-02	1.21887432e-04
7.21000000e-01	1.21907876e-02	1.20754989e-04
7.22000000e-01	1.22903517e-02	1.22033787e-04
7.23000000e-01	1.21799125e-02	1.20898960e-04
7.24000000e-01	1.21817745e-02	1.20867440e-04
7.25000000e-01	1.21506297e-02	1.20650218e-04
7.26000000e-01	1.22366733e-02	1.21359327e-04
7.27000000e-01	1.22102399e-02	1.20961633e-04
7.28000000e-01	1.22300992e-02	1.21370251e-04
7.29000000e-01	1.21776967e-02	1.20623642e-04
7.30000000e-01	1.20748247e-02	1.19918811e-04
7.31000000e-01	1.20028508e-02	1.19072546e-04
7.32000000e-01	1.21080176e-02	1.19919403e-04
7.33000000e-01	1.20793761e-02	1.19904759e-04
7.34000000e-01	1.20915981e-02	1.19998778e-04
7.35000000e-01	1.21095102e-02	1.19485575e-04
7.36000000e-01	1.21910679e-02	1.20212929e-04
7.37000000e-01	1.21408860e-02	1.19939498e-04
7.38000000e-01	1.20067995e-02	1.18409341e-04
7.39000000e-01	1.20895945e-02	1.18699039e-04
7.40000000e-01	1.20607218e-02	1.18347137e-04
7.41000000e-01	1.20402369e-02	1.18192158e-04
7.42000000e-01	1.20029251e-02	1.17621991e-04
7.43000000e-01	1.20630308e-02	1.18391557e-04
7.44000000e-01	1.19845190e-02	1.17667458e-04
7.45000000e-01	1.20134519e-02	1.17884724e-04
7.46000000e-01	1.19842790e-02	1.17532121e-04
7.47000000e-01	1.19913874e-02	1.17438320e-04
7.48000000e-01	1.19932316e-02	1.17709964e-04
7.49000000e-01	1.19762218e-02	1.17567149e-04
7.50000000e-01	1.19577546e-02	1.17476107e-04
7.51000000e-01	1.19966227e-02	1.17753234e-04
7.52000000e-01	1.19707569e-02	1.17569211e-04
7.53000000e-01	1.19577822e-02	1.17263273e-04
7.54000000e-01	1.19466363e-02	1.17309038e-04
7.55000000e-01	1.19305475e-02	1.17108413e-04
7.56000000e-01	1.20285780e-02	1.18015557e-04
7.57000000e-01	1.18916236e-02	1.16691076e-04
7.58000000e-01	1.17586494e-02	1.15499545e-04
7.59000000e-01	1.18948010e-02	1.16273605e-04
7.60000000e-01	1.18415135e-02	1.16112577e-04
7.61000000e-01	1.18464280e-02	1.15834362e-04
7.62000000e-01	1.18036230e-02	1.15148483e-04
7.63000000e-01	1.17924716e-02	1.15204641e-04
7.64000000e-01	1.17515560e-02	1.14668050e-04
7.65000000e-01	1.17610624e-02	1.14689558e-04
7.66000000e-01	1.18415864e-02	1.14934002e-04
7.67000000e-01	1.17743353e-02	1.14473410e-04
7.68000000e-01	1.17445368e-02	1.14390502e-04
7.69000000e-01	1.16931392e-02	1.13996652e-04
7.70000000e-01	1.17889564e-02	1.14834193e-04
7.71000000e-01	1.17815749e-02	1.14773848e-04
7.72000000e-01	1.16722534e-02	1.17279450e-04
7.73000000e-01	1.16647875e-02	1.20715994e-04
7.74000000e-01	1.17433781e-02	1.24264792e-04
7.75000000e-01	1.17233346e-02	1.25787042e-04
7.76000000e-01	1.16342738e-02	1.27212392e-04
7.77000000e-01	1.17118155e-02	1.29381790e-04
7.78000000e-01	1.17648600e-02	1.31908535e-04
7.79000000e-01	1.17593044e-02	1.33417637e-04
7.80000000e-01	1.17144523e-02	1.34105421e-04
7.81000000e-01	1.17501794e-02	1.36629371e-04
7.82000000e-01	1.16252875e-02	1.36310985e-04
7.83000000e-01	1.16764974e-02	1.38695726e-04
7.84000000e-01	1.16818754e-02	1.40477173e-04
7.85000000e-01	1.14586823e-02	1.39082391e-04
7.86000000e-01	1.16038361e-02	1.42531009e-04
7.87000000e-01	1.14887189e-02	1.42253530e-04
7.88000000e-01	1.15021156e-02	1.43582978e-04
7.89000000e-01	1.13970833e-02	1.43776619e-04
7.90000000e-01	1.15209343e-02	1.46792226e-04
7.91000000e-01	1.14245296e-02	1.47172371e-04
7.92000000e-01	1.15235089e-02	1.49907803e-04
7.93000000e-01	1.15375154e-02	1.51263302e-04
7.94000000e-01	1.14332765e-02	1.50976106e-04
7.95000000e-01	1.14763727e-02	1.54007675e-04
7.96000000e-01	1.14324383e-02	1.55305264e-04
7.97000000e-01	1.14599622e-02	1.56865592e-04
7.98000000e-01	1.13786480e-02	1.57336765e-04
7.99000000e-01	1.15234217e-02	1.60836499e-04
8.00000000e-01	1.14341844e-02	1.61380195e-04
8.01000000e-01	1.13104219e-02	1.61098321e-04
8.02000000e-01	1.12948105e-02	1.62739350e-04
8.03000000e-01	1.12907842e-02	1.64665623e-04
8.04000000e-01	1.14859815e-02	1.68685970e-04
8.05000000e-01	1.12315660e-02	1.66744772e-04
8.06000000e-01	1.13020307e-02	1.69278993e-04
8.07000000e-01	1.11447896e-02	1.69348553e-04
8.08000000e-01	1.13061830e-02	1.72837226e-04
8.09000000e-01	1.11994922e-02	1.74052019e-04
8.10000000e-01	1.13731182e-02	1.78497140e-04
8.11000000e-01	1.13326360e-02	1.79614985e-04
8.12000000e-01	1.12176570e-02	1.80163578e-04
8.13000000e-01	1.11877192e-02	1.82417051e-04
8.14000000e-01	1.11884993e-02	1.83970782e-04
8.15000000e-01	1.11833501e-02	1.85373730e-04
8.16000000e-01	1.10958251e-02	1.87096416e-04
8.17000000e-01	1.11923577e-02	1.91532331e-04
8.18000000e-01	1.12225881e-02	1.92897863e-04
8.19000000e-01	1.13243448e-02	1.97300028e-04
8.20000000e-01	1.10749275e-02	1.95579731e-04
8.21000000e-01	1.11168968e-02	1.99464408e-04
8.22000000e-01	1.10749832e-02	2.01033002e-04
8.23000000e-01	1.11612858e-02	2.04706678e-04
8.24000000e-01	1.10879513e-02	2.07340356e-04
8.25000000e-01	1.09375554e-02	2.06558591e-04
8.26000000e-01	1.10835612e-02	2.14325305e-04
8.27000000e-01	1.11833278e-02	2.17792198e-04
8.28000000e-01	1.09570839e-02	2.16344502e-04
8.29000000e-01	1.09151776e-02	2.19138273e-04
8.30000000e-01	1.10188485e-02	2.24904406e-04
8.31000000e-01	1.09454226e-02	2.28952948e-04
8.32000000e-01	1.09136887e-02	2.29518654e-04
8.33000000e-01	1.09067877e-02	2.34092237e-04
8.34000000e-01	1.09981777e-02	2.40065332e-04
8.35000000e-01	1.11083552e-02	2.47178451e-04
8.36000000e-01	1.09051048e-02	2.45480244e-04
8.37000000e-01	1.11385712e-02	2.56469729e-04
8.38000000e-01	1.11338511e-02	2.60518788e-04
8.39000000e-01	1.08491231e-02	2.61401110e-04
8.40000000e-01	1.08410068e-02	2.65441947e-04
8.41000000e-01	1.08835786e-02	2.73052719e-04
8.42000000e-01	1.07354349e-02	2.75665679e-04
8.43000000e-01	1.07194014e-02	2.81085138e-04
8.44000000e-01	1.08719307e-02	2.90245694e-04
8.45000000e-01	1.07380056e-02	2.95733099e-04
8.46000000e-01	1.06481781e-02	3.03599467e-04
8.47000000e-01	1.04812475e-02	3.07765045e-04
8.48000000e-01	1.04006726e-02	3.13314947e-04
8.49000000e-01	1.09240418e-02	3.36494931e-04
8.50000000e-01	1.04877856e-02	3.37817455e-04
8.51000000e-01	1.07009567e-02	3.53296035e-04
8.52000000e-01	1.06282363e-02	3.66109978e-04
8.53000000e-01	1.04658487e-02	3.78585679e-04
8.54000000e-01	1.03195863e-02	3.92241912e-04
8.55000000e-01	1.09039958e-02	4.28248862e-04
8.56000000e-01	1.07149578e-02	4.29117558e-04
8.57000000e-01	1.05192627e-02	4.32230391e-04
8.58000000e-01	1.08908888e-02	4.64705831e-04
8.59000000e-01	1.03214156e-02	4.51511798e-04
8.60000000e-01	1.02489190e-02	4.65110071e-04
8.61000000e-01	1.00688799e-02	4.77539024e-04
8.62000000e-01	9.87081570e-03	4.82245225e-04
8.63000000e-01	1.00597832e-02	5.10425887e-04
8.64000000e-01	1.04598296e-02	5.58928282e-04
8.65000000e-01	1.07091565e-02	5.88185890e-04
8.66000000e-01	1.02894149e-02	6.00822646e-04
8.67000000e-01	1.05268697e-02	6.42628717e-04
8.68000000e-01	1.05895342e-02	6.95605089e-04
8.69000000e-01	1.04255070e-02	7.36365773e-04
8.70000000e-01	1.05798220e-02	7.95831529e-04
8.71000000e-01	1.03633480e-02	8.86167484e-04
8.72000000e-01	1.06381625e-02	1.03363474e-03
8.73000000e-01	1.01371783e-02	1.17093263e-03
8.74000000e-01	8.91747449e-03	1.30196440e-03
8.75000000e-01	1.23305795e-02	3.71781004e-03
