3997.70460,0.01408
3995.64498,0.01415
3993.58537,0.01414
3991.52576,0.01414
3989.46615,0.01419
3987.40654,0.01420
3985.34693,0.01409
3983.28732,0.01402
3981.22771,0.01404
3979.16810,0.01409
3977.10849,0.01415
3975.04888,0.01424
3972.98927,0.01427
3970.92965,0.01423
3968.87004,0.01418
3966.81043,0.01420
3964.75082,0.01427
3962.69121,0.01427
3960.63160,0.01416
3958.57199,0.01402
3956.51238,0.01399
3954.45277,0.01405
3952.39316,0.01412
3950.33355,0.01416
3948.27394,0.01410
3946.21432,0.01402
3944.15471,0.01407
3942.09510,0.01415
3940.03549,0.01411
3937.97588,0.01406
3935.91627,0.01414
3933.85666,0.01424
3931.79705,0.01421
3929.73744,0.01409
3927.67783,0.01403
3925.61822,0.01399
3923.55861,0.01394
3921.49900,0.01395
3919.43938,0.01400
3917.37977,0.01403
3915.32016,0.01404
3913.26055,0.01408
3911.20094,0.01408
3909.14133,0.01405
3907.08172,0.01418
3905.02211,0.01441
3902.96250,0.01449
3900.90289,0.01436
3898.84328,0.01414
3896.78367,0.01392
3894.72405,0.01383
3892.66444,0.01388
3890.60483,0.01395
3888.54522,0.01395
3886.48561,0.01393
3884.42600,0.01391
3882.36639,0.01396
3880.30678,0.01407
3878.24717,0.01409
3876.18756,0.01398
3874.12795,0.01382
3872.06834,0.01369
3870.00872,0.01372
3867.94911,0.01384
3865.88950,0.01385
3863.82989,0.01377
3861.77028,0.01376
3859.71067,0.01377
3857.65106,0.01377
3855.59145,0.01384
3853.53184,0.01404
3851.47223,0.01414
3849.41262,0.01400
3847.35301,0.01383
3845.29339,0.01382
3843.23378,0.01390
3841.17417,0.01397
3839.11456,0.01404
3837.05495,0.01405
3834.99534,0.01392
3832.93573,0.01381
3830.87612,0.01376
3828.81651,0.01369
3826.75690,0.01354
3824.69729,0.01342
3822.63768,0.01346
3820.57807,0.01359
3818.51845,0.01363
3816.45884,0.01364
3814.39923,0.01368
3812.33962,0.01370
3810.28001,0.01369
3808.22040,0.01366
3806.16079,0.01363
3804.10118,0.01357
3802.04157,0.01351
3799.98196,0.01357
3797.92235,0.01370
3795.86274,0.01373
3793.80312,0.01363
3791.74351,0.01348
3789.68390,0.01336
3787.62429,0.01327
3785.56468,0.01323
3783.50507,0.01328
3781.44546,0.01345
3779.38585,0.01365
3777.32624,0.01365
3775.26663,0.01346
3773.20702,0.01323
3771.14741,0.01316
3769.08779,0.01331
3767.02818,0.01356
3764.96857,0.01368
3762.90896,0.01363
3760.84935,0.01354
3758.78974,0.01350
3756.73013,0.01352
3754.67052,0.01363
3752.61091,0.01374
3750.55130,0.01372
3748.49169,0.01360
3746.43208,0.01359
3744.37246,0.01363
3742.31285,0.01351
3740.25324,0.01328
3738.19363,0.01309
3736.13402,0.01296
3734.07441,0.01283
3732.01480,0.01272
3729.95519,0.01271
3727.89558,0.01277
3725.83597,0.01283
3723.77636,0.01296
3721.71675,0.01317
3719.65714,0.01327
3717.59752,0.01316
3715.53791,0.01297
3713.47830,0.01288
3711.41869,0.01291
3709.35908,0.01302
3707.29947,0.01311
3705.23986,0.01306
3703.18025,0.01290
3701.12064,0.01277
3699.06103,0.01268
3697.00142,0.01257
3694.94181,0.01258
3692.88219,0.01271
3690.82258,0.01271
3688.76297,0.01252
3686.70336,0.01251
3684.64375,0.01272
3682.58414,0.01290
3680.52453,0.01300
3678.46492,0.01324
3676.40531,0.01359
3674.34570,0.01367
3672.28609,0.01333
3670.22648,0.01291
3668.16686,0.01276
3666.10725,0.01287
3664.04764,0.01299
3661.98803,0.01296
3659.92842,0.01271
3657.86881,0.01236
3655.80920,0.01225
3653.74959,0.01247
3651.68998,0.01277
3649.63037,0.01298
3647.57076,0.01308
3645.51115,0.01316
3643.45153,0.01319
3641.39192,0.01315
3639.33231,0.01311
3637.27270,0.01313
3635.21309,0.01322
3633.15348,0.01337
3631.09387,0.01358
3629.03426,0.01382
3626.97465,0.01399
3624.91504,0.01401
3622.85543,0.01383
3620.79582,0.01356
3618.73621,0.01346
3616.67659,0.01367
3614.61698,0.01392
3612.55737,0.01409
3610.49776,0.01432
3608.43815,0.01451
3606.37854,0.01439
3604.31893,0.01419
3602.25932,0.01421
3600.19971,0.01440
3598.14010,0.01460
3596.08049,0.01479
3594.02088,0.01494
3591.96126,0.01495
3589.90165,0.01491
3587.84204,0.01501
3585.78243,0.01513
3583.72282,0.01509
3581.66321,0.01498
3579.60360,0.01492
3577.54399,0.01493
3575.48438,0.01499
3573.42477,0.01514
3571.36516,0.01531
3569.30555,0.01553
3567.24593,0.01588
3565.18632,0.01614
3563.12671,0.01607
3561.06710,0.01588
3559.00749,0.01589
3556.94788,0.01613
3554.88827,0.01636
3552.82866,0.01639
3550.76905,0.01644
3548.70944,0.01675
3546.64983,0.01708
3544.59022,0.01707
3542.53060,0.01687
3540.47099,0.01681
3538.41138,0.01697
3536.35177,0.01726
3534.29216,0.01753
3532.23255,0.01761
3530.17294,0.01752
3528.11333,0.01747
3526.05372,0.01758
3523.99411,0.01773
3521.93450,0.01784
3519.87489,0.01796
3517.81528,0.01814
3515.75566,0.01832
3513.69605,0.01841
3511.63644,0.01846
3509.57683,0.01863
3507.51722,0.01885
3505.45761,0.01908
3503.39800,0.01938
3501.33839,0.01961
3499.27878,0.01966
3497.21917,0.01964
3495.15956,0.01964
3493.09995,0.01969
3491.04033,0.01974
3488.98072,0.01984
3486.92111,0.02006
3484.86150,0.02027
3482.80189,0.02032
3480.74228,0.02035
3478.68267,0.02046
3476.62306,0.02053
3474.56345,0.02056
3472.50384,0.02069
3470.44423,0.02091
3468.38462,0.02115
3466.32500,0.02143
3464.26539,0.02166
3462.20578,0.02174
3460.14617,0.02177
3458.08656,0.02191
3456.02695,0.02205
3453.96734,0.02217
3451.90773,0.02235
3449.84812,0.02252
3447.78851,0.02258
3445.72890,0.02257
3443.66929,0.02263
3441.60967,0.02272
3439.55006,0.02281
3437.49045,0.02297
3435.43084,0.02304
3433.37123,0.02302
3431.31162,0.02313
3429.25201,0.02335
3427.19240,0.02360
3425.13279,0.02391
3423.07318,0.02422
3421.01357,0.02441
3418.95396,0.02438
3416.89435,0.02425
3414.83473,0.02424
3412.77512,0.02435
3410.71551,0.02456
3408.65590,0.02481
3406.59629,0.02498
3404.53668,0.02508
3402.47707,0.02516
3400.41746,0.02525
3398.35785,0.02540
3396.29824,0.02564
3394.23863,0.02588
3392.17902,0.02600
3390.11940,0.02600
3388.05979,0.02609
3386.00018,0.02633
3383.94057,0.02657
3381.88096,0.02670
3379.82135,0.02686
3377.76174,0.02714
3375.70213,0.02739
3373.64252,0.02755
3371.58291,0.02771
3369.52330,0.02778
3367.46369,0.02780
3365.40407,0.02791
3363.34446,0.02811
3361.28485,0.02826
3359.22524,0.02844
3357.16563,0.02880
3355.10602,0.02919
3353.04641,0.02932
3350.98680,0.02941
3348.92719,0.02966
3346.86758,0.02991
3344.80797,0.03018
3342.74836,0.03053
3340.68874,0.03083
3338.62913,0.03101
3336.56952,0.03111
3334.50991,0.03128
3332.45030,0.03154
3330.39069,0.03188
3328.33108,0.03226
3326.27147,0.03263
3324.21186,0.03283
3322.15225,0.03298
3320.09264,0.03330
3318.03303,0.03366
3315.97342,0.03398
3313.91380,0.03428
3311.85419,0.03455
3309.79458,0.03489
3307.73497,0.03530
3305.67536,0.03572
3303.61575,0.03615
3301.55614,0.03659
3299.49653,0.03703
3297.43692,0.03748
3295.37731,0.03784
3293.31770,0.03807
3291.25809,0.03836
3289.19847,0.03877
3287.13886,0.03918
3285.07925,0.03950
3283.01964,0.03974
3280.96003,0.03991
3278.90042,0.04016
3276.84081,0.04050
3274.78120,0.04071
3272.72159,0.04079
3270.66198,0.04089
3268.60237,0.04104
3266.54276,0.04115
3264.48314,0.04122
3262.42353,0.04134
3260.36392,0.04135
3258.30431,0.04117
3256.24470,0.04096
3254.18509,0.04076
3252.12548,0.04055
3250.06587,0.04040
3248.00626,0.04024
3245.94665,0.03996
3243.88704,0.03957
3241.82743,0.03925
3239.76781,0.03907
3237.70820,0.03892
3235.64859,0.03886
3233.58898,0.03885
3231.52937,0.03870
3229.46976,0.03844
3227.41015,0.03827
3225.35054,0.03820
3223.29093,0.03806
3221.23132,0.03783
3219.17171,0.03763
3217.11210,0.03756
3215.05248,0.03756
3212.99287,0.03754
3210.93326,0.03747
3208.87365,0.03730
3206.81404,0.03705
3204.75443,0.03685
3202.69482,0.03682
3200.63521,0.03682
3198.57560,0.03673
3196.51599,0.03661
3194.45638,0.03650
3192.39677,0.03638
3190.33716,0.03623
3188.27754,0.03607
3186.21793,0.03589
3184.15832,0.03582
3182.09871,0.03585
3180.03910,0.03571
3177.97949,0.03538
3175.91988,0.03513
3173.86027,0.03499
3171.80066,0.03480
3169.74105,0.03456
3167.68144,0.03443
3165.62183,0.03431
3163.56221,0.03404
3161.50260,0.03377
3159.44299,0.03369
3157.38338,0.03363
3155.32377,0.03338
3153.26416,0.03297
3151.20455,0.03264
3149.14494,0.03253
3147.08533,0.03248
3145.02572,0.03238
3142.96611,0.03224
3140.90650,0.03205
3138.84688,0.03181
3136.78727,0.03157
3134.72766,0.03141
3132.66805,0.03128
3130.60844,0.03116
3128.54883,0.03101
3126.48922,0.03077
3124.42961,0.03057
3122.37000,0.03052
3120.31039,0.03049
3118.25078,0.03042
3116.19117,0.03030
3114.13155,0.03012
3112.07194,0.02993
3110.01233,0.02978
3107.95272,0.02970
3105.89311,0.02971
3103.83350,0.02969
3101.77389,0.02958
3099.71428,0.02954
3097.65467,0.02965
3095.59506,0.02983
3093.53545,0.02989
3091.47584,0.02984
3089.41623,0.02982
3087.35661,0.02984
3085.29700,0.02987
3083.23739,0.02989
3081.17778,0.02986
3079.11817,0.02983
3077.05856,0.02986
3074.99895,0.02989
3072.93934,0.02987
3070.87973,0.02982
3068.82012,0.02986
3066.76051,0.02997
3064.70090,0.03007
3062.64128,0.03003
3060.58167,0.02991
3058.52206,0.02986
3056.46245,0.02987
3054.40284,0.02979
3052.34323,0.02962
3050.28362,0.02951
3048.22401,0.02948
3046.16440,0.02941
3044.10479,0.02924
3042.04518,0.02910
3039.98557,0.02908
3037.92595,0.02907
3035.86634,0.02895
3033.80673,0.02877
3031.74712,0.02855
3029.68751,0.02832
3027.62790,0.02826
3025.56829,0.02836
3023.50868,0.02840
3021.44907,0.02821
3019.38946,0.02780
3017.32985,0.02742
3015.27024,0.02729
3013.21062,0.02727
3011.15101,0.02716
3009.09140,0.02699
3007.03179,0.02690
3004.97218,0.02686
3002.91257,0.02677
3000.85296,0.02660
2998.79335,0.02642
2996.73374,0.02637
2994.67413,0.02647
2992.61452,0.02660
2990.55491,0.02665
2988.49530,0.02671
2986.43568,0.02686
2984.37607,0.02705
2982.31646,0.02728
2980.25685,0.02748
2978.19724,0.02757
2976.13763,0.02767
2974.07802,0.02777
2972.01841,0.02780
2969.95880,0.02782
2967.89919,0.02784
2965.83958,0.02780
2963.77997,0.02770
2961.72035,0.02755
2959.66074,0.02733
2957.60113,0.02709
2955.54152,0.02700
2953.48191,0.02712
2951.42230,0.02726
2949.36269,0.02732
2947.30308,0.02737
2945.24347,0.02738
2943.18386,0.02735
2941.12425,0.02734
2939.06464,0.02737
2937.00502,0.02727
2934.94541,0.02693
2932.88580,0.02644
2930.82619,0.02575
2928.76658,0.02464
2926.70697,0.02318
2924.64736,0.02135
2922.58775,0.01884
2920.52814,0.01566
2918.46853,0.01256
2916.40892,0.01113
2914.34931,0.01277
2912.28969,0.01648
2910.23008,0.01982
2908.17047,0.02180
2906.11086,0.02285
2904.05125,0.02336
2901.99164,0.02362
2899.93203,0.02390
2897.87242,0.02418
2895.81281,0.02436
2893.75320,0.02450
2891.69359,0.02463
2889.63398,0.02470
2887.57437,0.02481
2885.51475,0.02498
2883.45514,0.02525
2881.39553,0.02562
2879.33592,0.02597
2877.27631,0.02623
2875.21670,0.02634
2873.15709,0.02630
2871.09748,0.02622
2869.03787,0.02614
2866.97826,0.02601
2864.91865,0.02571
2862.85904,0.02522
2860.79942,0.02466
2858.73981,0.02402
2856.68020,0.02305
2854.62059,0.02143
2852.56098,0.01871
2850.50137,0.01549
2848.44176,0.01428
2846.38215,0.01646
2844.32254,0.01992
2842.26293,0.02236
2840.20332,0.02359
2838.14371,0.02418
2836.08409,0.02449
2834.02448,0.02459
2831.96487,0.02454
2829.90526,0.02451
2827.84565,0.02462
2825.78604,0.02480
2823.72643,0.02490
2821.66682,0.02480
2819.60721,0.02463
2817.54760,0.02456
2815.48799,0.02454
2813.42838,0.02453
2811.36876,0.02451
2809.30915,0.02441
2807.24954,0.02426
2805.18993,0.02419
2803.13032,0.02427
2801.07071,0.02437
2799.01110,0.02436
2796.95149,0.02428
2794.89188,0.02417
2792.83227,0.02407
2790.77266,0.02403
2788.71305,0.02406
2786.65344,0.02410
2784.59382,0.02405
2782.53421,0.02391
2780.47460,0.02384
2778.41499,0.02386
2776.35538,0.02389
2774.29577,0.02395
2772.23616,0.02395
2770.17655,0.02383
2768.11694,0.02370
2766.05733,0.02361
2763.99772,0.02355
2761.93811,0.02354
2759.87849,0.02357
2757.81888,0.02361
2755.75927,0.02361
2753.69966,0.02356
2751.64005,0.02344
2749.58044,0.02329
2747.52083,0.02320
2745.46122,0.02316
2743.40161,0.02317
2741.34200,0.02323
2739.28239,0.02329
2737.22278,0.02329
2735.16316,0.02320
2733.10355,0.02316
2731.04394,0.02320
2728.98433,0.02313
2726.92472,0.02300
2724.86511,0.02299
2722.80550,0.02303
2720.74589,0.02298
2718.68628,0.02291
2716.62667,0.02282
2714.56706,0.02270
2712.50745,0.02268
2710.44783,0.02273
2708.38822,0.02271
2706.32861,0.02270
2704.26900,0.02273
2702.20939,0.02270
2700.14978,0.02259
2698.09017,0.02249
2696.03056,0.02244
2693.97095,0.02248
2691.91134,0.02253
2689.85173,0.02247
2687.79212,0.02237
2685.73251,0.02234
2683.67289,0.02228
2681.61328,0.02216
2679.55367,0.02213
2677.49406,0.02218
2675.43445,0.02221
2673.37484,0.02222
2671.31523,0.02215
2669.25562,0.02206
2667.19601,0.02208
2665.13640,0.02214
2663.07679,0.02225
2661.01718,0.02234
2658.95756,0.02231
2656.89795,0.02223
2654.83834,0.02215
2652.77873,0.02214
2650.71912,0.02215
2648.65951,0.02207
2646.59990,0.02197
2644.54029,0.02192
2642.48068,0.02182
2640.42107,0.02170
2638.36146,0.02162
2636.30185,0.02160
2634.24223,0.02169
2632.18262,0.02173
2630.12301,0.02159
2628.06340,0.02149
2626.00379,0.02147
2623.94418,0.02134
2621.88457,0.02120
2619.82496,0.02119
2617.76535,0.02118
2615.70574,0.02111
2613.64613,0.02112
2611.58652,0.02111
2609.52690,0.02104
2607.46729,0.02101
2605.40768,0.02098
2603.34807,0.02084
2601.28846,0.02069
2599.22885,0.02067
2597.16924,0.02075
2595.10963,0.02072
2593.05002,0.02056
2590.99041,0.02046
2588.93080,0.02057
2586.87119,0.02065
2584.81158,0.02051
2582.75196,0.02030
2580.69235,0.02018
2578.63274,0.02021
2576.57313,0.02034
2574.51352,0.02047
2572.45391,0.02054
2570.39430,0.02052
2568.33469,0.02036
2566.27508,0.02015
2564.21547,0.02008
2562.15586,0.02013
2560.09625,0.02012
2558.03663,0.02008
2555.97702,0.02008
2553.91741,0.01996
2551.85780,0.01986
2549.79819,0.01994
2547.73858,0.02003
2545.67897,0.02001
2543.61936,0.01992
2541.55975,0.01988
2539.50014,0.01999
2537.44053,0.02009
2535.38092,0.02009
2533.32130,0.02001
2531.26169,0.01990
2529.20208,0.01977
2527.14247,0.01958
2525.08286,0.01946
2523.02325,0.01947
2520.96364,0.01956
2518.90403,0.01966
2516.84442,0.01967
2514.78481,0.01957
2512.72520,0.01951
2510.66559,0.01952
2508.60597,0.01952
2506.54636,0.01950
2504.48675,0.01945
2502.42714,0.01943
2500.36753,0.01939
2498.30792,0.01927
2496.24831,0.01931
2494.18870,0.01945
2492.12909,0.01949
2490.06948,0.01953
2488.00987,0.01962
2485.95026,0.01959
2483.89065,0.01952
2481.83103,0.01955
2479.77142,0.01957
2477.71181,0.01947
2475.65220,0.01933
2473.59259,0.01914
2471.53298,0.01902
2469.47337,0.01898
2467.41376,0.01894
2465.35415,0.01901
2463.29454,0.01912
2461.23493,0.01914
2459.17532,0.01919
2457.11570,0.01933
2455.05609,0.01952
2452.99648,0.01953
2450.93687,0.01932
2448.87726,0.01913
2446.81765,0.01922
2444.75804,0.01946
2442.69843,0.01946
2440.63882,0.01924
2438.57921,0.01909
2436.51960,0.01897
2434.45999,0.01888
2432.40037,0.01895
2430.34076,0.01913
2428.28115,0.01924
2426.22154,0.01918
2424.16193,0.01905
2422.10232,0.01897
2420.04271,0.01894
2417.98310,0.01895
2415.92349,0.01893
2413.86388,0.01886
2411.80427,0.01878
2409.74466,0.01878
2407.68504,0.01884
2405.62543,0.01885
2403.56582,0.01882
2401.50621,0.01883
2399.44660,0.01872
2397.38699,0.01864
2395.32738,0.01866
2393.26777,0.01878
2391.20816,0.01891
2389.14855,0.01901
2387.08894,0.01912
2385.02933,0.01923
2382.96972,0.01936
2380.91010,0.01955
2378.85049,0.01976
2376.79088,0.01981
2374.73127,0.01974
2372.67166,0.01978
2370.61205,0.01992
2368.55244,0.01996
2366.49283,0.01992
2364.43322,0.02009
2362.37361,0.02052
2360.31400,0.02095
2358.25439,0.02111
2356.19477,0.02105
2354.13516,0.02090
2352.07555,0.02072
2350.01594,0.02055
2347.95633,0.02053
2345.89672,0.02065
2343.83711,0.02071
2341.77750,0.02048
2339.71789,0.02013
2337.65828,0.01992
2335.59867,0.01989
2333.53906,0.01999
2331.47944,0.02018
2329.41983,0.02046
2327.36022,0.02073
2325.30061,0.02085
2323.24100,0.02079
2321.18139,0.02055
2319.12178,0.02021
2317.06217,0.01991
2315.00256,0.01970
2312.94295,0.01956
2310.88334,0.01945
2308.82373,0.01941
2306.76411,0.01944
2304.70450,0.01937
2302.64489,0.01925
2300.58528,0.01925
2298.52567,0.01929
2296.46606,0.01915
2294.40645,0.01892
2292.34684,0.01893
2290.28723,0.01910
2288.22762,0.01903
2286.16801,0.01873
2284.10840,0.01846
2282.04878,0.01825
2279.98917,0.01808
2277.92956,0.01798
2275.86995,0.01807
2273.81034,0.01826
2271.75073,0.01799
2269.69112,0.01741
2267.63151,0.01722
2265.57190,0.01739
2263.51229,0.01738
2261.45268,0.01707
2259.39307,0.01683
2257.33346,0.01677
2255.27384,0.01676
2253.21423,0.01676
2251.15462,0.01675
2249.09501,0.01671
2247.03540,0.01680
2244.97579,0.01679
2242.91618,0.01660
2240.85657,0.01654
2238.79696,0.01663
2236.73735,0.01667
2234.67774,0.01664
2232.61813,0.01670
2230.55851,0.01690
2228.49890,0.01700
2226.43929,0.01691
2224.37968,0.01679
2222.32007,0.01652
2220.26046,0.01598
2218.20085,0.01557
2216.14124,0.01574
2214.08163,0.01605
2212.02202,0.01595
2209.96241,0.01570
2207.90280,0.01570
2205.84318,0.01574
2203.78357,0.01548
2201.72396,0.01522
2199.66435,0.01517
2197.60474,0.01528
2195.54513,0.01524
2193.48552,0.01482
2191.42591,0.01464
2189.36630,0.01515
2187.30669,0.01551
2185.24708,0.01519
2183.18747,0.01496
2181.12785,0.01503
2179.06824,0.01489
2177.00863,0.01461
2174.94902,0.01420
2172.88941,0.01380
2170.82980,0.01390
2168.77019,0.01432
2166.71058,0.01460
2164.65097,0.01449
2162.59136,0.01386
2160.53175,0.01262
2158.47214,0.01144
2156.41253,0.01158
2154.35291,0.01242
2152.29330,0.01330
2150.23369,0.01415
2148.17408,0.01447
2146.11447,0.01434
2144.05486,0.01410
2141.99525,0.01382
2139.93564,0.01373
2137.87603,0.01393
2135.81642,0.01389
2133.75681,0.01363
2131.69720,0.01398
2129.63758,0.01489
2127.57797,0.01543
2125.51836,0.01530
2123.45875,0.01505
2121.39914,0.01522
2119.33953,0.01571
2117.27992,0.01597
2115.22031,0.01600
2113.16070,0.01615
2111.10109,0.01631
2109.04148,0.01623
2106.98187,0.01609
2104.92225,0.01611
2102.86264,0.01605
2100.80303,0.01569
2098.74342,0.01531
2096.68381,0.01520
2094.62420,0.01526
2092.56459,0.01546
2090.50498,0.01588
2088.44537,0.01624
2086.38576,0.01608
2084.32615,0.01557
2082.26654,0.01526
2080.20692,0.01527
2078.14731,0.01546
2076.08770,0.01557
2074.02809,0.01548
2071.96848,0.01530
2069.90887,0.01510
2067.84926,0.01483
2065.78965,0.01463
2063.73004,0.01468
2061.67043,0.01509
2059.61082,0.01557
2057.55121,0.01563
2055.49160,0.01536
2053.43198,0.01522
2051.37237,0.01531
2049.31276,0.01499
2047.25315,0.01420
2045.19354,0.01400
2043.13393,0.01420
2041.07432,0.01389
2039.01471,0.01347
2036.95510,0.01358
2034.89549,0.01375
2032.83588,0.01343
2030.77627,0.01293
2028.71665,0.01271
2026.65704,0.01276
2024.59743,0.01292
2022.53782,0.01300
2020.47821,0.01292
2018.41860,0.01268
2016.35899,0.01229
2014.29938,0.01206
2012.23977,0.01239
2010.18016,0.01299
2008.12055,0.01313
2006.06094,0.01282
2004.00132,0.01267
2001.94171,0.01280
1999.88210,0.01298
1997.82249,0.01322
1995.76288,0.01337
1993.70327,0.01340
1991.64366,0.01353
1989.58405,0.01379
1987.52444,0.01403
1985.46483,0.01425
1983.40522,0.01411
1981.34561,0.01341
1979.28599,0.01255
1977.22638,0.01182
1975.16677,0.01156
1973.10716,0.01161
1971.04755,0.01153
1968.98794,0.01165
1966.92833,0.01210
1964.86872,0.01236
1962.80911,0.01229
1960.74950,0.01217
1958.68989,0.01226
1956.63028,0.01268
1954.57067,0.01303
1952.51105,0.01295
1950.45144,0.01282
1948.39183,0.01293
1946.33222,0.01303
1944.27261,0.01312
1942.21300,0.01340
1940.15339,0.01342
1938.09378,0.01298
1936.03417,0.01258
1933.97456,0.01258
1931.91495,0.01275
1929.85534,0.01286
1927.79572,0.01306
1925.73611,0.01346
1923.67650,0.01381
1921.61689,0.01403
1919.55728,0.01406
1917.49767,0.01384
1915.43806,0.01372
1913.37845,0.01386
1911.31884,0.01383
1909.25923,0.01352
1907.19962,0.01334
1905.14001,0.01333
1903.08039,0.01332
1901.02078,0.01333
1898.96117,0.01346
1896.90156,0.01356
1894.84195,0.01359
1892.78234,0.01363
1890.72273,0.01377
1888.66312,0.01397
1886.60351,0.01399
1884.54390,0.01375
1882.48429,0.01346
1880.42468,0.01336
1878.36506,0.01334
1876.30545,0.01328
1874.24584,0.01328
1872.18623,0.01345
1870.12662,0.01362
1868.06701,0.01362
1866.00740,0.01339
1863.94779,0.01310
1861.88818,0.01306
1859.82857,0.01321
1857.76896,0.01324
1855.70935,0.01312
1853.64974,0.01303
1851.59012,0.01292
1849.53051,0.01280
1847.47090,0.01269
1845.41129,0.01259
1843.35168,0.01261
1841.29207,0.01276
1839.23246,0.01290
1837.17285,0.01292
1835.11324,0.01285
1833.05363,0.01282
1830.99402,0.01291
1828.93441,0.01294
1826.87479,0.01279
1824.81518,0.01259
1822.75557,0.01248
1820.69596,0.01240
1818.63635,0.01229
1816.57674,0.01218
1814.51713,0.01215
1812.45752,0.01220
1810.39791,0.01225
1808.33830,0.01227
1806.27869,0.01224
1804.21908,0.01222
1802.15946,0.01224
1800.09985,0.01219
1798.04024,0.01204
1795.98063,0.01191
1793.92102,0.01189
1791.86141,0.01192
1789.80180,0.01186
1787.74219,0.01172
1785.68258,0.01158
1783.62297,0.01145
1781.56336,0.01132
1779.50375,0.01120
1777.44413,0.01115
1775.38452,0.01115
1773.32491,0.01116
1771.26530,0.01116
1769.20569,0.01115
1767.14608,0.01105
1765.08647,0.01092
1763.02686,0.01086
1760.96725,0.01080
1758.90764,0.01066
1756.84803,0.01054
1754.78842,0.01054
1752.72881,0.01065
1750.66919,0.01076
1748.60958,0.01073
1746.54997,0.01059
1744.49036,0.01044
1742.43075,0.01034
1740.37114,0.01030
1738.31153,0.01027
1736.25192,0.01020
1734.19231,0.01009
1732.13270,0.00990
1730.07309,0.00970
1728.01348,0.00960
1725.95386,0.00953
1723.89425,0.00945
1721.83464,0.00944
1719.77503,0.00954
1717.71542,0.00970
1715.65581,0.00989
1713.59620,0.01014
1711.53659,0.01049
1709.47698,0.01094
1707.41737,0.01162
1705.35776,0.01265
1703.29815,0.01396
1701.23853,0.01577
1699.17892,0.01824
1697.11931,0.02072
1695.05970,0.02277
1693.00009,0.02426
1690.94048,0.02553
1688.88087,0.02696
1686.82126,0.02860
1684.76165,0.03079
1682.70204,0.03328
1680.64243,0.03512
1678.58282,0.03655
1676.52320,0.03820
1674.46359,0.04024
1672.40398,0.04238
1670.34437,0.04470
1668.28476,0.04715
1666.22515,0.04920
1664.16554,0.05121
1662.10593,0.05355
1660.04632,0.05573
1657.98671,0.05737
1655.92710,0.05882
1653.86749,0.06076
1651.80788,0.06292
1649.74826,0.06411
1647.68865,0.06496
1645.62904,0.06606
1643.56943,0.06692
1641.50982,0.06740
1639.45021,0.06770
1637.39060,0.06796
1635.33099,0.06826
1633.27138,0.06852
1631.21177,0.06866
1629.15216,0.06883
1627.09255,0.06911
1625.03293,0.06946
1622.97332,0.06987
1620.91371,0.07013
1618.85410,0.07020
1616.79449,0.07027
1614.73488,0.07038
1612.67527,0.07032
1610.61566,0.06993
1608.55605,0.06920
1606.49644,0.06824
1604.43683,0.06710
1602.37722,0.06577
1600.31760,0.06430
1598.25799,0.06276
1596.19838,0.06110
1594.13877,0.05926
1592.07916,0.05734
1590.01955,0.05535
1587.95994,0.05331
1585.90033,0.05138
1583.84072,0.04968
1581.78111,0.04821
1579.72150,0.04694
1577.66189,0.04588
1575.60227,0.04512
1573.54266,0.04476
1571.48305,0.04476
1569.42344,0.04505
1567.36383,0.04553
1565.30422,0.04613
1563.24461,0.04684
1561.18500,0.04778
1559.12539,0.04952
1557.06578,0.05169
1555.00617,0.05333
1552.94656,0.05483
1550.88695,0.05648
1548.82733,0.05814
1546.76772,0.05960
1544.70811,0.06099
1542.64850,0.06264
1540.58889,0.06479
1538.52928,0.06689
1536.46967,0.06814
1534.41006,0.06913
1532.35045,0.07032
1530.29084,0.07135
1528.23123,0.07221
1526.17162,0.07316
1524.11200,0.07415
1522.05239,0.07526
1519.99278,0.07651
1517.93317,0.07768
1515.87356,0.07865
1513.81395,0.07920
1511.75434,0.07936
1509.69473,0.07930
1507.63512,0.07886
1505.57551,0.07797
1503.51590,0.07697
1501.45629,0.07596
1499.39667,0.07471
1497.33706,0.07304
1495.27745,0.07117
1493.21784,0.06947
1491.15823,0.06759
1489.09862,0.06515
1487.03901,0.06259
1484.97940,0.06037
1482.91979,0.05842
1480.86018,0.05659
1478.80057,0.05493
1476.74096,0.05343
1474.68134,0.05206
1472.62173,0.05111
1470.56212,0.05074
1468.50251,0.05054
1466.44290,0.05016
1464.38329,0.04978
1462.32368,0.04979
1460.26407,0.05030
1458.20446,0.05131
1456.14485,0.05252
1454.08524,0.05326
1452.02563,0.05353
1449.96602,0.05360
1447.90640,0.05355
1445.84679,0.05337
1443.78718,0.05304
1441.72757,0.05254
1439.66796,0.05190
1437.60835,0.05114
1435.54874,0.05038
1433.48913,0.04975
1431.42952,0.04927
1429.36991,0.04891
1427.31030,0.04869
1425.25069,0.04856
1423.19107,0.04850
1421.13146,0.04862
1419.07185,0.04900
1417.01224,0.04942
1414.95263,0.04970
1412.89302,0.04992
1410.83341,0.05016
1408.77380,0.05042
1406.71419,0.05069
1404.65458,0.05084
1402.59497,0.05081
1400.53536,0.05071
1398.47574,0.05071
1396.41613,0.05084
1394.35652,0.05104
1392.29691,0.05126
1390.23730,0.05154
1388.17769,0.05188
1386.11808,0.05210
1384.05847,0.05211
1381.99886,0.05201
1379.93925,0.05192
1377.87964,0.05182
1375.82003,0.05173
1373.76041,0.05169
1371.70080,0.05167
1369.64119,0.05161
1367.58158,0.05145
1365.52197,0.05119
1363.46236,0.05084
1361.40275,0.05040
1359.34314,0.04991
1357.28353,0.04942
1355.22392,0.04902
1353.16431,0.04878
1351.10470,0.04864
1349.04508,0.04851
1346.98547,0.04844
1344.92586,0.04849
1342.86625,0.04867
1340.80664,0.04890
1338.74703,0.04913
1336.68742,0.04932
1334.62781,0.04948
1332.56820,0.04958
1330.50859,0.04962
1328.44898,0.04961
1326.38937,0.04956
1324.32976,0.04948
1322.27014,0.04938
1320.21053,0.04931
1318.15092,0.04929
1316.09131,0.04933
1314.03170,0.04932
1311.97209,0.04922
1309.91248,0.04910
1307.85287,0.04906
1305.79326,0.04903
1303.73365,0.04894
1301.67404,0.04883
1299.61443,0.04871
1297.55481,0.04855
1295.49520,0.04840
1293.43559,0.04828
1291.37598,0.04818
1289.31637,0.04805
1287.25676,0.04792
1285.19715,0.04784
1283.13754,0.04783
1281.07793,0.04783
1279.01832,0.04781
1276.95871,0.04780
1274.89910,0.04779
1272.83948,0.04780
1270.77987,0.04790
1268.72026,0.04808
1266.66065,0.04831
1264.60104,0.04855
1262.54143,0.04875
1260.48182,0.04896
1258.42221,0.04927
1256.36260,0.04969
1254.30299,0.05018
1252.24338,0.05067
1250.18377,0.05118
1248.12415,0.05169
1246.06454,0.05208
1244.00493,0.05239
1241.94532,0.05277
1239.88571,0.05325
1237.82610,0.05364
1235.76649,0.05384
1233.70688,0.05398
1231.64727,0.05408
1229.58766,0.05404
1227.52805,0.05389
1225.46844,0.05368
1223.40883,0.05343
1221.34921,0.05314
1219.28960,0.05280
1217.22999,0.05244
1215.17038,0.05198
1213.11077,0.05140
1211.05116,0.05073
1208.99155,0.05005
1206.93194,0.04937
1204.87233,0.04864
1202.81272,0.04790
1200.75311,0.04720
1198.69350,0.04652
1196.63388,0.04584
1194.57427,0.04523
1192.51466,0.04473
1190.45505,0.04427
1188.39544,0.04384
1186.33583,0.04349
1184.27622,0.04324
1182.21661,0.04309
1180.15700,0.04303
1178.09739,0.04307
1176.03778,0.04323
1173.97817,0.04353
1171.91855,0.04394
1169.85894,0.04435
1167.79933,0.04465
1165.73972,0.04478
1163.68011,0.04488
1161.62050,0.04502
1159.56089,0.04510
1157.50128,0.04504
1155.44167,0.04486
1153.38206,0.04466
1151.32245,0.04441
1149.26284,0.04404
1147.20322,0.04363
1145.14361,0.04331
1143.08400,0.04307
1141.02439,0.04284
1138.96478,0.04268
1136.90517,0.04254
1134.84556,0.04234
1132.78595,0.04216
1130.72634,0.04215
1128.66673,0.04226
1126.60712,0.04228
1124.54751,0.04222
1122.48790,0.04219
1120.42828,0.04210
1118.36867,0.04188
1116.30906,0.04164
1114.24945,0.04153
1112.18984,0.04157
1110.13023,0.04159
1108.07062,0.04156
1106.01101,0.04157
1103.95140,0.04162
1101.89179,0.04160
1099.83218,0.04154
1097.77257,0.04151
1095.71295,0.04148
1093.65334,0.04141
1091.59373,0.04152
1089.53412,0.04192
1087.47451,0.04248
1085.41490,0.04304
1083.35529,0.04367
1081.29568,0.04443
1079.23607,0.04525
1077.17646,0.04598
1075.11685,0.04661
1073.05724,0.04723
1070.99762,0.04783
1068.93801,0.04830
1066.87840,0.04864
1064.81879,0.04896
1062.75918,0.04933
1060.69957,0.04964
1058.63996,0.04979
1056.58035,0.04978
1054.52074,0.04978
1052.46113,0.04983
1050.40152,0.04991
1048.34191,0.04998
1046.28229,0.05000
1044.22268,0.04986
1042.16307,0.04954
1040.10346,0.04903
1038.04385,0.04845
1035.98424,0.04792
1033.92463,0.04745
1031.86502,0.04698
1029.80541,0.04652
1027.74580,0.04612
1025.68619,0.04564
1023.62658,0.04500
1021.56697,0.04421
1019.50735,0.04341
1017.44774,0.04280
1015.38813,0.04225
1013.32852,0.04164
1011.26891,0.04103
1009.20930,0.04042
1007.14969,0.03977
1005.09008,0.03915
1003.03047,0.03868
1000.97086,0.03841
998.91125,0.03812
996.85164,0.03770
994.79202,0.03730
992.73241,0.03701
990.67280,0.03669
988.61319,0.03630
986.55358,0.03600
984.49397,0.03581
982.43436,0.03566
980.37475,0.03560
978.31514,0.03557
976.25553,0.03552
974.19592,0.03550
972.13631,0.03546
970.07669,0.03542
968.01708,0.03551
965.95747,0.03569
963.89786,0.03579
961.83825,0.03575
959.77864,0.03564
957.71903,0.03558
955.65942,0.03554
953.59981,0.03540
951.54020,0.03521
949.48059,0.03509
947.42098,0.03499
945.36136,0.03485
943.30175,0.03478
941.24214,0.03478
939.18253,0.03478
937.12292,0.03477
935.06331,0.03473
933.00370,0.03471
930.94409,0.03467
928.88448,0.03459
926.82487,0.03454
924.76526,0.03448
922.70565,0.03436
920.64604,0.03417
918.58642,0.03403
916.52681,0.03393
914.46720,0.03377
912.40759,0.03356
910.34798,0.03339
908.28837,0.03340
906.22876,0.03355
904.16915,0.03367
902.10954,0.03368
900.04993,0.03368
897.99032,0.03371
895.93071,0.03382
893.87109,0.03388
891.81148,0.03379
889.75187,0.03360
887.69226,0.03342
885.63265,0.03333
883.57304,0.03330
881.51343,0.03322
879.45382,0.03307
877.39421,0.03286
875.33460,0.03260
873.27499,0.03234
871.21538,0.03216
869.15576,0.03215
867.09615,0.03221
865.03654,0.03227
862.97693,0.03234
860.91732,0.03234
858.85771,0.03219
856.79810,0.03199
854.73849,0.03185
852.67888,0.03176
850.61927,0.03173
848.55966,0.03185
846.50005,0.03198
844.44043,0.03197
842.38082,0.03189
840.32121,0.03187
838.26160,0.03199
836.20199,0.03225
834.14238,0.03250
832.08277,0.03259
830.02316,0.03272
827.96355,0.03289
825.90394,0.03299
823.84433,0.03309
821.78472,0.03311
819.72511,0.03313
817.66549,0.03340
815.60588,0.03379
813.54627,0.03407
811.48666,0.03425
809.42705,0.03425
807.36744,0.03430
805.30783,0.03459
803.24822,0.03488
801.18861,0.03497
799.12900,0.03500
797.06939,0.03515
795.00978,0.03543
792.95016,0.03573
790.89055,0.03597
788.83094,0.03618
786.77133,0.03646
784.71172,0.03679
782.65211,0.03706
780.59250,0.03734
778.53289,0.03776
776.47328,0.03827
774.41367,0.03873
772.35406,0.03910
770.29445,0.03937
768.23483,0.03955
766.17522,0.03981
764.11561,0.04021
762.05600,0.04060
759.99639,0.04084
757.93678,0.04097
755.87717,0.04114
753.81756,0.04153
751.75795,0.04210
749.69834,0.04258
747.63873,0.04282
745.57912,0.04290
743.51950,0.04301
741.45989,0.04324
739.40028,0.04344
737.34067,0.04356
735.28106,0.04372
733.22145,0.04395
731.16184,0.04410
729.10223,0.04425
727.04262,0.04460
724.98301,0.04526
722.92340,0.04607
720.86379,0.04696
718.80418,0.04797
716.74456,0.04909
714.68495,0.05014
712.62534,0.05107
710.56573,0.05206
708.50612,0.05324
706.44651,0.05448
704.38690,0.05563
702.32729,0.05667
700.26768,0.05760
698.20807,0.05836
696.14846,0.05887
694.08885,0.05915
692.02923,0.05933
689.96962,0.05957
687.91001,0.05989
685.85040,0.06030
683.79079,0.06089
681.73118,0.06154
679.67157,0.06196
677.61196,0.06223
675.55235,0.06258
673.49274,0.06302
671.43313,0.06333
669.37352,0.06356
667.31390,0.06403
665.25429,0.06443
663.19468,0.06482
661.13507,0.06513
659.07546,0.06548
657.01585,0.06593
654.95624,0.06633
652.89663,0.06670
650.83702,0.06703
648.77741,0.06715
646.71780,0.06726
644.65819,0.06757
642.59857,0.06798
640.53896,0.06847
638.47935,0.06902
636.41974,0.06953
634.36013,0.06984
632.30052,0.06999
630.24091,0.07022
628.18130,0.07055
626.12169,0.07091
624.06208,0.07151
622.00247,0.07217
619.94286,0.07252
617.88325,0.07273
615.82363,0.07282
613.76402,0.07272
611.70441,0.07265
609.64480,0.07264
607.58519,0.07275
605.52558,0.07312
603.46597,0.07353
601.40636,0.07365
599.34675,0.07349
597.28714,0.07342
595.22753,0.07354
593.16792,0.07380
591.10830,0.07427
589.04869,0.07468
586.98908,0.07487
584.92947,0.07495
582.86986,0.07504
580.81025,0.07534
578.75064,0.07595
576.69103,0.07661
574.63142,0.07686
572.57181,0.07681
570.51220,0.07703
568.45259,0.07739
566.39297,0.07753
564.33336,0.07775
562.27375,0.07816
560.21414,0.07843
558.15453,0.07853
556.09492,0.07885
554.03531,0.07952
551.97570,0.08006
549.91609,0.08028
547.85648,0.08047
545.79687,0.08062
543.73726,0.08071
541.67764,0.08084
539.61803,0.08097
537.55842,0.08082
535.49881,0.08071
533.43920,0.08119
531.37959,0.08188
529.31998,0.08216
527.26037,0.08206
525.20076,0.08216
523.14115,0.08275
521.08154,0.08346
519.02193,0.08383
516.96232,0.08370
514.90270,0.08349
512.84309,0.08361
510.78348,0.08386
508.72387,0.08387
506.66426,0.08344
504.60465,0.08297
502.54504,0.08282
500.48543,0.08274
498.42582,0.08285
496.36621,0.08330
494.30660,0.08336
492.24699,0.08275
490.18737,0.08225
488.12776,0.08211
486.06815,0.08206
484.00854,0.08215
481.94893,0.08244
479.88932,0.08269
477.82971,0.08248
475.77010,0.08208
473.71049,0.08241
471.65088,0.08323
469.59127,0.08343
467.53166,0.08334
465.47204,0.08375
463.41243,0.08425
461.35282,0.08427
459.29321,0.08391
457.23360,0.08354
455.17399,0.08347
453.11438,0.08367
451.05477,0.08377
448.99516,0.08319
446.93555,0.08224
444.87594,0.08193
442.81633,0.08227
440.75671,0.08237
438.69710,0.08177
436.63749,0.08069
434.57788,0.07989
432.51827,0.08010
430.45866,0.08085
428.39905,0.08125
426.33944,0.08122
424.27983,0.08089
422.22022,0.08036
420.16061,0.08009
418.10100,0.07964
416.04138,0.07827
413.98177,0.07722
411.92216,0.07746
409.86255,0.07811
407.80294,0.07812
405.74333,0.07770
403.68372,0.07752
401.62411,0.07698
399.56450,0.07541
