3997.70460,0.02307
3995.64498,0.02300
3993.58537,0.02292
3991.52576,0.02293
3989.46615,0.02295
3987.40654,0.02291
3985.34693,0.02288
3983.28732,0.02288
3981.22771,0.02285
3979.16810,0.02280
3977.10849,0.02286
3975.04888,0.02301
3972.98927,0.02308
3970.92965,0.02301
3968.87004,0.02282
3966.81043,0.02269
3964.75082,0.02269
3962.69121,0.02273
3960.63160,0.02268
3958.57199,0.02262
3956.51238,0.02263
3954.45277,0.02274
3952.39316,0.02284
3950.33355,0.02285
3948.27394,0.02277
3946.21432,0.02276
3944.15471,0.02289
3942.09510,0.02301
3940.03549,0.02301
3937.97588,0.02296
3935.91627,0.02293
3933.85666,0.02294
3931.79705,0.02299
3929.73744,0.02293
3927.67783,0.02287
3925.61822,0.02287
3923.55861,0.02283
3921.49900,0.02272
3919.43938,0.02271
3917.37977,0.02280
3915.32016,0.02288
3913.26055,0.02288
3911.20094,0.02283
3909.14133,0.02282
3907.08172,0.02295
3905.02211,0.02316
3902.96250,0.02315
3900.90289,0.02293
3898.84328,0.02276
3896.78367,0.02267
3894.72405,0.02264
3892.66444,0.02263
3890.60483,0.02264
3888.54522,0.02265
3886.48561,0.02269
3884.42600,0.02265
3882.36639,0.02255
3880.30678,0.02246
3878.24717,0.02241
3876.18756,0.02241
3874.12795,0.02246
3872.06834,0.02256
3870.00872,0.02272
3867.94911,0.02281
3865.88950,0.02270
3863.82989,0.02251
3861.77028,0.02240
3859.71067,0.02233
3857.65106,0.02233
3855.59145,0.02245
3853.53184,0.02258
3851.47223,0.02257
3849.41262,0.02244
3847.35301,0.02238
3845.29339,0.02244
3843.23378,0.02250
3841.17417,0.02254
3839.11456,0.02261
3837.05495,0.02258
3834.99534,0.02243
3832.93573,0.02226
3830.87612,0.02207
3828.81651,0.02193
3826.75690,0.02190
3824.69729,0.02185
3822.63768,0.02177
3820.57807,0.02193
3818.51845,0.02229
3816.45884,0.02249
3814.39923,0.02244
3812.33962,0.02235
3810.28001,0.02221
3808.22040,0.02199
3806.16079,0.02180
3804.10118,0.02178
3802.04157,0.02189
3799.98196,0.02206
3797.92235,0.02210
3795.86274,0.02198
3793.80312,0.02185
3791.74351,0.02182
3789.68390,0.02182
3787.62429,0.02173
3785.56468,0.02161
3783.50507,0.02156
3781.44546,0.02164
3779.38585,0.02181
3777.32624,0.02188
3775.26663,0.02175
3773.20702,0.02153
3771.14741,0.02146
3769.08779,0.02161
3767.02818,0.02177
3764.96857,0.02182
3762.90896,0.02181
3760.84935,0.02179
3758.78974,0.02183
3756.73013,0.02189
3754.67052,0.02183
3752.61091,0.02154
3750.55130,0.02125
3748.49169,0.02143
3746.43208,0.02190
3744.37246,0.02205
3742.31285,0.02177
3740.25324,0.02156
3738.19363,0.02154
3736.13402,0.02147
3734.07441,0.02131
3732.01480,0.02123
3729.95519,0.02123
3727.89558,0.02126
3725.83597,0.02124
3723.77636,0.02113
3721.71675,0.02106
3719.65714,0.02103
3717.59752,0.02093
3715.53791,0.02087
3713.47830,0.02100
3711.41869,0.02112
3709.35908,0.02101
3707.29947,0.02085
3705.23986,0.02074
3703.18025,0.02061
3701.12064,0.02050
3699.06103,0.02037
3697.00142,0.02026
3694.94181,0.02036
3692.88219,0.02068
3690.82258,0.02083
3688.76297,0.02064
3686.70336,0.02034
3684.64375,0.02022
3682.58414,0.02026
3680.52453,0.02035
3678.46492,0.02051
3676.40531,0.02066
3674.34570,0.02055
3672.28609,0.02014
3670.22648,0.01987
3668.16686,0.02001
3666.10725,0.02026
3664.04764,0.02035
3661.98803,0.02029
3659.92842,0.02014
3657.86881,0.02000
3655.80920,0.02003
3653.74959,0.02022
3651.68998,0.02045
3649.63037,0.02066
3647.57076,0.02075
3645.51115,0.02068
3643.45153,0.02057
3641.39192,0.02056
3639.33231,0.02068
3637.27270,0.02084
3635.21309,0.02103
3633.15348,0.02119
3631.09387,0.02126
3629.03426,0.02134
3626.97465,0.02155
3624.91504,0.02168
3622.85543,0.02160
3620.79582,0.02145
3618.73621,0.02144
3616.67659,0.02166
3614.61698,0.02185
3612.55737,0.02183
3610.49776,0.02186
3608.43815,0.02199
3606.37854,0.02200
3604.31893,0.02194
3602.25932,0.02209
3600.19971,0.02239
3598.14010,0.02264
3596.08049,0.02285
3594.02088,0.02301
3591.96126,0.02307
3589.90165,0.02315
3587.84204,0.02328
3585.78243,0.02329
3583.72282,0.02323
3581.66321,0.02327
3579.60360,0.02331
3577.54399,0.02328
3575.48438,0.02330
3573.42477,0.02338
3571.36516,0.02347
3569.30555,0.02369
3567.24593,0.02408
3565.18632,0.02437
3563.12671,0.02438
3561.06710,0.02436
3559.00749,0.02454
3556.94788,0.02490
3554.88827,0.02514
3552.82866,0.02510
3550.76905,0.02508
3548.70944,0.02540
3546.64983,0.02577
3544.59022,0.02578
3542.53060,0.02553
3540.47099,0.02538
3538.41138,0.02546
3536.35177,0.02570
3534.29216,0.02602
3532.23255,0.02630
3530.17294,0.02650
3528.11333,0.02672
3526.05372,0.02695
3523.99411,0.02710
3521.93450,0.02717
3519.87489,0.02728
3517.81528,0.02752
3515.75566,0.02779
3513.69605,0.02792
3511.63644,0.02797
3509.57683,0.02809
3507.51722,0.02826
3505.45761,0.02845
3503.39800,0.02870
3501.33839,0.02889
3499.27878,0.02902
3497.21917,0.02921
3495.15956,0.02941
3493.09995,0.02954
3491.04033,0.02961
3488.98072,0.02971
3486.92111,0.02988
3484.86150,0.03008
3482.80189,0.03022
3480.74228,0.03032
3478.68267,0.03039
3476.62306,0.03041
3474.56345,0.03052
3472.50384,0.03080
3470.44423,0.03115
3468.38462,0.03141
3466.32500,0.03161
3464.26539,0.03184
3462.20578,0.03209
3460.14617,0.03231
3458.08656,0.03248
3456.02695,0.03254
3453.96734,0.03249
3451.90773,0.03258
3449.84812,0.03293
3447.78851,0.03320
3445.72890,0.03325
3443.66929,0.03338
3441.60967,0.03367
3439.55006,0.03390
3437.49045,0.03401
3435.43084,0.03404
3433.37123,0.03410
3431.31162,0.03427
3429.25201,0.03448
3427.19240,0.03471
3425.13279,0.03496
3423.07318,0.03532
3421.01357,0.03570
3418.95396,0.03587
3416.89435,0.03584
3414.83473,0.03590
3412.77512,0.03619
3410.71551,0.03653
3408.65590,0.03672
3406.59629,0.03680
3404.53668,0.03696
3402.47707,0.03712
3400.41746,0.03722
3398.35785,0.03744
3396.29824,0.03770
3394.23863,0.03789
3392.17902,0.03812
3390.11940,0.03844
3388.05979,0.03870
3386.00018,0.03883
3383.94057,0.03893
3381.88096,0.03912
3379.82135,0.03943
3377.76174,0.03979
3375.70213,0.04008
3373.64252,0.04039
3371.58291,0.04069
3369.52330,0.04086
3367.46369,0.04096
3365.40407,0.04112
3363.34446,0.04132
3361.28485,0.04162
3359.22524,0.04208
3357.16563,0.04257
3355.10602,0.04302
3353.04641,0.04341
3350.98680,0.04364
3348.92719,0.04380
3346.86758,0.04399
3344.80797,0.04425
3342.74836,0.04466
3340.68874,0.04514
3338.62913,0.04553
3336.56952,0.04574
3334.50991,0.04588
3332.45030,0.04618
3330.39069,0.04664
3328.33108,0.04717
3326.27147,0.04767
3324.21186,0.04795
3322.15225,0.04820
3320.09264,0.04875
3318.03303,0.04937
3315.97342,0.04972
3313.91380,0.05005
3311.85419,0.05056
3309.79458,0.05108
3307.73497,0.05149
3305.67536,0.05190
3303.61575,0.05235
3301.55614,0.05280
3299.49653,0.05341
3297.43692,0.05410
3295.37731,0.05458
3293.31770,0.05488
3291.25809,0.05522
3289.19847,0.05563
3287.13886,0.05608
3285.07925,0.05652
3283.01964,0.05684
3280.96003,0.05711
3278.90042,0.05740
3276.84081,0.05774
3274.78120,0.05802
3272.72159,0.05815
3270.66198,0.05825
3268.60237,0.05843
3266.54276,0.05855
3264.48314,0.05850
3262.42353,0.05836
3260.36392,0.05819
3258.30431,0.05801
3256.24470,0.05789
3254.18509,0.05780
3252.12548,0.05769
3250.06587,0.05751
3248.00626,0.05726
3245.94665,0.05688
3243.88704,0.05640
3241.82743,0.05605
3239.76781,0.05592
3237.70820,0.05577
3235.64859,0.05553
3233.58898,0.05532
3231.52937,0.05509
3229.46976,0.05492
3227.41015,0.05482
3225.35054,0.05467
3223.29093,0.05451
3221.23132,0.05435
3219.17171,0.05411
3217.11210,0.05383
3215.05248,0.05377
3212.99287,0.05385
3210.93326,0.05382
3208.87365,0.05367
3206.81404,0.05349
3204.75443,0.05336
3202.69482,0.05327
3200.63521,0.05311
3198.57560,0.05279
3196.51599,0.05253
3194.45638,0.05246
3192.39677,0.05240
3190.33716,0.05230
3188.27754,0.05219
3186.21793,0.05195
3184.15832,0.05167
3182.09871,0.05154
3180.03910,0.05141
3177.97949,0.05112
3175.91988,0.05081
3173.86027,0.05067
3171.80066,0.05057
3169.74105,0.05034
3167.68144,0.05001
3165.62183,0.04965
3163.56221,0.04936
3161.50260,0.04915
3159.44299,0.04901
3157.38338,0.04888
3155.32377,0.04861
3153.26416,0.04819
3151.20455,0.04786
3149.14494,0.04775
3147.08533,0.04772
3145.02572,0.04762
3142.96611,0.04736
3140.90650,0.04699
3138.84688,0.04669
3136.78727,0.04644
3134.72766,0.04610
3132.66805,0.04576
3130.60844,0.04561
3128.54883,0.04549
3126.48922,0.04521
3124.42961,0.04491
3122.37000,0.04476
3120.31039,0.04474
3118.25078,0.04479
3116.19117,0.04475
3114.13155,0.04449
3112.07194,0.04421
3110.01233,0.04403
3107.95272,0.04385
3105.89311,0.04376
3103.83350,0.04380
3101.77389,0.04374
3099.71428,0.04362
3097.65467,0.04372
3095.59506,0.04386
3093.53545,0.04375
3091.47584,0.04358
3089.41623,0.04362
3087.35661,0.04378
3085.29700,0.04385
3083.23739,0.04379
3081.17778,0.04370
3079.11817,0.04367
3077.05856,0.04379
3074.99895,0.04393
3072.93934,0.04393
3070.87973,0.04387
3068.82012,0.04387
3066.76051,0.04398
3064.70090,0.04406
3062.64128,0.04397
3060.58167,0.04388
3058.52206,0.04389
3056.46245,0.04389
3054.40284,0.04379
3052.34323,0.04364
3050.28362,0.04354
3048.22401,0.04361
3046.16440,0.04368
3044.10479,0.04349
3042.04518,0.04314
3039.98557,0.04286
3037.92595,0.04273
3035.86634,0.04269
3033.80673,0.04261
3031.74712,0.04242
3029.68751,0.04215
3027.62790,0.04196
3025.56829,0.04187
3023.50868,0.04175
3021.44907,0.04146
3019.38946,0.04114
3017.32985,0.04099
3015.27024,0.04096
3013.21062,0.04094
3011.15101,0.04078
3009.09140,0.04051
3007.03179,0.04029
3004.97218,0.04009
3002.91257,0.03984
3000.85296,0.03963
2998.79335,0.03953
2996.73374,0.03952
2994.67413,0.03963
2992.61452,0.03974
2990.55491,0.03974
2988.49530,0.03985
2986.43568,0.04014
2984.37607,0.04039
2982.31646,0.04060
2980.25685,0.04082
2978.19724,0.04098
2976.13763,0.04113
2974.07802,0.04126
2972.01841,0.04126
2969.95880,0.04120
2967.89919,0.04126
2965.83958,0.04137
2963.77997,0.04134
2961.72035,0.04116
2959.66074,0.04088
2957.60113,0.04056
2955.54152,0.04037
2953.48191,0.04041
2951.42230,0.04060
2949.36269,0.04086
2947.30308,0.04113
2945.24347,0.04126
2943.18386,0.04126
2941.12425,0.04122
2939.06464,0.04115
2937.00502,0.04088
2934.94541,0.04035
2932.88580,0.03966
2930.82619,0.03872
2928.76658,0.03737
2926.70697,0.03555
2924.64736,0.03316
2922.58775,0.03000
2920.52814,0.02606
2918.46853,0.02207
2916.40892,0.02019
2914.34931,0.02233
2912.28969,0.02704
2910.23008,0.03129
2908.17047,0.03387
2906.11086,0.03515
2904.05125,0.03578
2901.99164,0.03621
2899.93203,0.03659
2897.87242,0.03685
2895.81281,0.03699
2893.75320,0.03718
2891.69359,0.03738
2889.63398,0.03752
2887.57437,0.03774
2885.51475,0.03805
2883.45514,0.03835
2881.39553,0.03863
2879.33592,0.03896
2877.27631,0.03929
2875.21670,0.03943
2873.15709,0.03941
2871.09748,0.03934
2869.03787,0.03922
2866.97826,0.03901
2864.91865,0.03868
2862.85904,0.03815
2860.79942,0.03747
2858.73981,0.03662
2856.68020,0.03532
2854.62059,0.03313
2852.56098,0.02963
2850.50137,0.02566
2848.44176,0.02421
2846.38215,0.02701
2844.32254,0.03152
2842.26293,0.03471
2840.20332,0.03620
2838.14371,0.03678
2836.08409,0.03703
2834.02448,0.03714
2831.96487,0.03716
2829.90526,0.03718
2827.84565,0.03726
2825.78604,0.03740
2823.72643,0.03752
2821.66682,0.03747
2819.60721,0.03735
2817.54760,0.03731
2815.48799,0.03728
2813.42838,0.03722
2811.36876,0.03715
2809.30915,0.03702
2807.24954,0.03688
2805.18993,0.03683
2803.13032,0.03682
2801.07071,0.03684
2799.01110,0.03691
2796.95149,0.03694
2794.89188,0.03680
2792.83227,0.03659
2790.77266,0.03649
2788.71305,0.03653
2786.65344,0.03659
2784.59382,0.03658
2782.53421,0.03650
2780.47460,0.03641
2778.41499,0.03637
2776.35538,0.03639
2774.29577,0.03643
2772.23616,0.03635
2770.17655,0.03614
2768.11694,0.03600
2766.05733,0.03598
2763.99772,0.03600
2761.93811,0.03602
2759.87849,0.03605
2757.81888,0.03602
2755.75927,0.03589
2753.69966,0.03578
2751.64005,0.03572
2749.58044,0.03564
2747.52083,0.03564
2745.46122,0.03565
2743.40161,0.03561
2741.34200,0.03556
2739.28239,0.03555
2737.22278,0.03547
2735.16316,0.03529
2733.10355,0.03521
2731.04394,0.03527
2728.98433,0.03528
2726.92472,0.03523
2724.86511,0.03518
2722.80550,0.03516
2720.74589,0.03512
2718.68628,0.03504
2716.62667,0.03490
2714.56706,0.03477
2712.50745,0.03475
2710.44783,0.03479
2708.38822,0.03477
2706.32861,0.03479
2704.26900,0.03484
2702.20939,0.03477
2700.14978,0.03463
2698.09017,0.03451
2696.03056,0.03438
2693.97095,0.03431
2691.91134,0.03435
2689.85173,0.03435
2687.79212,0.03427
2685.73251,0.03420
2683.67289,0.03415
2681.61328,0.03408
2679.55367,0.03402
2677.49406,0.03402
2675.43445,0.03403
2673.37484,0.03396
2671.31523,0.03383
2669.25562,0.03376
2667.19601,0.03380
2665.13640,0.03390
2663.07679,0.03399
2661.01718,0.03403
2658.95756,0.03396
2656.89795,0.03384
2654.83834,0.03375
2652.77873,0.03368
2650.71912,0.03363
2648.65951,0.03351
2646.59990,0.03335
2644.54029,0.03327
2642.48068,0.03325
2640.42107,0.03322
2638.36146,0.03317
2636.30185,0.03311
2634.24223,0.03303
2632.18262,0.03294
2630.12301,0.03285
2628.06340,0.03284
2626.00379,0.03282
2623.94418,0.03266
2621.88457,0.03256
2619.82496,0.03253
2617.76535,0.03240
2615.70574,0.03222
2613.64613,0.03216
2611.58652,0.03224
2609.52690,0.03232
2607.46729,0.03224
2605.40768,0.03203
2603.34807,0.03185
2601.28846,0.03175
2599.22885,0.03182
2597.16924,0.03197
2595.10963,0.03189
2593.05002,0.03153
2590.99041,0.03128
2588.93080,0.03130
2586.87119,0.03132
2584.81158,0.03117
2582.75196,0.03102
2580.69235,0.03094
2578.63274,0.03099
2576.57313,0.03117
2574.51352,0.03135
2572.45391,0.03140
2570.39430,0.03123
2568.33469,0.03089
2566.27508,0.03067
2564.21547,0.03082
2562.15586,0.03106
2560.09625,0.03108
2558.03663,0.03092
2555.97702,0.03065
2553.91741,0.03038
2551.85780,0.03031
2549.79819,0.03032
2547.73858,0.03028
2545.67897,0.03024
2543.61936,0.03023
2541.55975,0.03037
2539.50014,0.03055
2537.44053,0.03055
2535.38092,0.03047
2533.32130,0.03040
2531.26169,0.03030
2529.20208,0.03022
2527.14247,0.03016
2525.08286,0.03023
2523.02325,0.03042
2520.96364,0.03047
2518.90403,0.03038
2516.84442,0.03020
2514.78481,0.02996
2512.72520,0.02986
2510.66559,0.02998
2508.60597,0.03008
2506.54636,0.03003
2504.48675,0.02998
2502.42714,0.02995
2500.36753,0.02981
2498.30792,0.02967
2496.24831,0.02967
2494.18870,0.02971
2492.12909,0.02972
2490.06948,0.02978
2488.00987,0.02982
2485.95026,0.02975
2483.89065,0.02965
2481.83103,0.02962
2479.77142,0.02972
2477.71181,0.02981
2475.65220,0.02976
2473.59259,0.02964
2471.53298,0.02955
2469.47337,0.02946
2467.41376,0.02935
2465.35415,0.02930
2463.29454,0.02927
2461.23493,0.02929
2459.17532,0.02942
2457.11570,0.02953
2455.05609,0.02958
2452.99648,0.02958
2450.93687,0.02953
2448.87726,0.02949
2446.81765,0.02947
2444.75804,0.02944
2442.69843,0.02938
2440.63882,0.02930
2438.57921,0.02926
2436.51960,0.02923
2434.45999,0.02923
2432.40037,0.02935
2430.34076,0.02946
2428.28115,0.02941
2426.22154,0.02923
2424.16193,0.02902
2422.10232,0.02901
2420.04271,0.02914
2417.98310,0.02919
2415.92349,0.02912
2413.86388,0.02903
2411.80427,0.02898
2409.74466,0.02904
2407.68504,0.02916
2405.62543,0.02917
2403.56582,0.02904
2401.50621,0.02892
2399.44660,0.02863
2397.38699,0.02863
2395.32738,0.02878
2393.26777,0.02889
2391.20816,0.02896
2389.14855,0.02910
2387.08894,0.02932
2385.02933,0.02943
2382.96972,0.02946
2380.91010,0.02952
2378.85049,0.02955
2376.79088,0.02925
2374.73127,0.02908
2372.67166,0.02877
2370.61205,0.02833
2368.55244,0.02845
2366.49283,0.02797
2364.43322,0.02822
2362.37361,0.02910
2360.31400,0.02916
2358.25439,0.02979
2356.19477,0.02999
2354.13516,0.03015
2352.07555,0.03039
2350.01594,0.02919
2347.95633,0.02952
2345.89672,0.03035
2343.83711,0.02971
2341.77750,0.02984
2339.71789,0.02902
2337.65828,0.02860
2335.59867,0.02905
2333.53906,0.02882
2331.47944,0.02952
2329.41983,0.02939
2327.36022,0.03011
2325.30061,0.02986
2323.24100,0.02977
2321.18139,0.02946
2319.12178,0.02925
2317.06217,0.02926
2315.00256,0.02920
2312.94295,0.02910
2310.88334,0.02908
2308.82373,0.02919
2306.76411,0.02942
2304.70450,0.02942
2302.64489,0.02921
2300.58528,0.02897
2298.52567,0.02868
2296.46606,0.02830
2294.40645,0.02813
2292.34684,0.02828
2290.28723,0.02848
2288.22762,0.02840
2286.16801,0.02816
2284.10840,0.02784
2282.04878,0.02751
2279.98917,0.02727
2277.92956,0.02700
2275.86995,0.02686
2273.81034,0.02708
2271.75073,0.02720
2269.69112,0.02685
2267.63151,0.02643
2265.57190,0.02634
2263.51229,0.02633
2261.45268,0.02613
2259.39307,0.02607
2257.33346,0.02614
2255.27384,0.02611
2253.21423,0.02616
2251.15462,0.02631
2249.09501,0.02620
2247.03540,0.02598
2244.97579,0.02538
2242.91618,0.02484
2240.85657,0.02472
2238.79696,0.02481
2236.73735,0.02484
2234.67774,0.02473
2232.61813,0.02469
2230.55851,0.02483
2228.49890,0.02492
2226.43929,0.02474
2224.37968,0.02461
2222.32007,0.02473
2220.26046,0.02463
2218.20085,0.02442
2216.14124,0.02435
2214.08163,0.02416
2212.02202,0.02392
2209.96241,0.02376
2207.90280,0.02354
2205.84318,0.02324
2203.78357,0.02311
2201.72396,0.02325
2199.66435,0.02348
2197.60474,0.02352
2195.54513,0.02308
2193.48552,0.02238
2191.42591,0.02222
2189.36630,0.02279
2187.30669,0.02324
2185.24708,0.02304
2183.18747,0.02271
2181.12785,0.02235
2179.06824,0.02183
2177.00863,0.02168
2174.94902,0.02196
2172.88941,0.02224
2170.82980,0.02240
2168.77019,0.02229
2166.71058,0.02188
2164.65097,0.02142
2162.59136,0.02094
2160.53175,0.02009
2158.47214,0.01954
2156.41253,0.02012
2154.35291,0.02110
2152.29330,0.02187
2150.23369,0.02241
2148.17408,0.02265
2146.11447,0.02272
2144.05486,0.02245
2141.99525,0.02195
2139.93564,0.02187
2137.87603,0.02225
2135.81642,0.02239
2133.75681,0.02239
2131.69720,0.02274
2129.63758,0.02317
2127.57797,0.02321
2125.51836,0.02312
2123.45875,0.02332
2121.39914,0.02373
2119.33953,0.02418
2117.27992,0.02439
2115.22031,0.02413
2113.16070,0.02380
2111.10109,0.02388
2109.04148,0.02407
2106.98187,0.02417
2104.92225,0.02430
2102.86264,0.02425
2100.80303,0.02398
2098.74342,0.02364
2096.68381,0.02324
2094.62420,0.02289
2092.56459,0.02299
2090.50498,0.02350
2088.44537,0.02395
2086.38576,0.02398
2084.32615,0.02384
2082.26654,0.02394
2080.20692,0.02412
2078.14731,0.02401
2076.08770,0.02364
2074.02809,0.02327
2071.96848,0.02309
2069.90887,0.02316
2067.84926,0.02329
2065.78965,0.02303
2063.73004,0.02241
2061.67043,0.02216
2059.61082,0.02242
2057.55121,0.02240
2055.49160,0.02195
2053.43198,0.02190
2051.37237,0.02255
2049.31276,0.02270
2047.25315,0.02174
2045.19354,0.02080
2043.13393,0.02031
2041.07432,0.01989
2039.01471,0.01964
2036.95510,0.01956
2034.89549,0.01948
2032.83588,0.01973
2030.77627,0.02017
2028.71665,0.02003
2026.65704,0.01958
2024.59743,0.01954
2022.53782,0.01981
2020.47821,0.01996
2018.41860,0.01985
2016.35899,0.01961
2014.29938,0.01935
2012.23977,0.01916
2010.18016,0.01923
2008.12055,0.01964
2006.06094,0.02016
2004.00132,0.02031
2001.94171,0.02001
1999.88210,0.01974
1997.82249,0.01980
1995.76288,0.02004
1993.70327,0.02015
1991.64366,0.02009
1989.58405,0.02001
1987.52444,0.01998
1985.46483,0.01996
1983.40522,0.01970
1981.34561,0.01909
1979.28599,0.01830
1977.22638,0.01773
1975.16677,0.01787
1973.10716,0.01844
1971.04755,0.01852
1968.98794,0.01818
1966.92833,0.01810
1964.86872,0.01815
1962.80911,0.01822
1960.74950,0.01855
1958.68989,0.01903
1956.63028,0.01946
1954.57067,0.01966
1952.51105,0.01963
1950.45144,0.01981
1948.39183,0.02021
1946.33222,0.02022
1944.27261,0.01989
1942.21300,0.01973
1940.15339,0.01981
1938.09378,0.01998
1936.03417,0.02003
1933.97456,0.02003
1931.91495,0.02024
1929.85534,0.02049
1927.79572,0.02051
1925.73611,0.02050
1923.67650,0.02063
1921.61689,0.02072
1919.55728,0.02067
1917.49767,0.02065
1915.43806,0.02070
1913.37845,0.02077
1911.31884,0.02083
1909.25923,0.02083
1907.19962,0.02073
1905.14001,0.02052
1903.08039,0.02028
1901.02078,0.02009
1898.96117,0.02008
1896.90156,0.02025
1894.84195,0.02041
1892.78234,0.02053
1890.72273,0.02075
1888.66312,0.02101
1886.60351,0.02098
1884.54390,0.02062
1882.48429,0.02033
1880.42468,0.02031
1878.36506,0.02032
1876.30545,0.02028
1874.24584,0.02030
1872.18623,0.02040
1870.12662,0.02052
1868.06701,0.02054
1866.00740,0.02038
1863.94779,0.02010
1861.88818,0.01990
1859.82857,0.01988
1857.76896,0.01992
1855.70935,0.01992
1853.64974,0.01988
1851.59012,0.01971
1849.53051,0.01949
1847.47090,0.01938
1845.41129,0.01936
1843.35168,0.01942
1841.29207,0.01948
1839.23246,0.01952
1837.17285,0.01952
1835.11324,0.01942
1833.05363,0.01930
1830.99402,0.01930
1828.93441,0.01933
1826.87479,0.01920
1824.81518,0.01898
1822.75557,0.01882
1820.69596,0.01870
1818.63635,0.01861
1816.57674,0.01853
1814.51713,0.01848
1812.45752,0.01848
1810.39791,0.01851
1808.33830,0.01849
1806.27869,0.01842
1804.21908,0.01841
1802.15946,0.01845
1800.09985,0.01844
1798.04024,0.01834
1795.98063,0.01825
1793.92102,0.01822
1791.86141,0.01815
1789.80180,0.01792
1787.74219,0.01766
1785.68258,0.01751
1783.62297,0.01744
1781.56336,0.01735
1779.50375,0.01715
1777.44413,0.01691
1775.38452,0.01676
1773.32491,0.01676
1771.26530,0.01685
1769.20569,0.01681
1767.14608,0.01656
1765.08647,0.01631
1763.02686,0.01623
1760.96725,0.01618
1758.90764,0.01603
1756.84803,0.01587
1754.78842,0.01577
1752.72881,0.01571
1750.66919,0.01562
1748.60958,0.01555
1746.54997,0.01552
1744.49036,0.01545
1742.43075,0.01528
1740.37114,0.01510
1738.31153,0.01502
1736.25192,0.01501
1734.19231,0.01493
1732.13270,0.01470
1730.07309,0.01443
1728.01348,0.01425
1725.95386,0.01411
1723.89425,0.01399
1721.83464,0.01393
1719.77503,0.01397
1717.71542,0.01418
1715.65581,0.01444
1713.59620,0.01465
1711.53659,0.01497
1709.47698,0.01552
1707.41737,0.01634
1705.35776,0.01754
1703.29815,0.01913
1701.23853,0.02149
1699.17892,0.02470
1697.11931,0.02784
1695.05970,0.03064
1693.00009,0.03296
1690.94048,0.03506
1688.88087,0.03724
1686.82126,0.03960
1684.76165,0.04291
1682.70204,0.04690
1680.64243,0.04990
1678.58282,0.05224
1676.52320,0.05492
1674.46359,0.05811
1672.40398,0.06131
1670.34437,0.06484
1668.28476,0.06879
1666.22515,0.07227
1664.16554,0.07575
1662.10593,0.07987
1660.04632,0.08375
1657.98671,0.08668
1655.92710,0.08910
1653.86749,0.09212
1651.80788,0.09538
1649.74826,0.09708
1647.68865,0.09800
1645.62904,0.09897
1643.56943,0.09957
1641.50982,0.09968
1639.45021,0.09950
1637.39060,0.09918
1635.33099,0.09883
1633.27138,0.09845
1631.21177,0.09793
1629.15216,0.09731
1627.09255,0.09669
1625.03293,0.09621
1622.97332,0.09588
1620.91371,0.09554
1618.85410,0.09514
1616.79449,0.09466
1614.73488,0.09405
1612.67527,0.09325
1610.61566,0.09218
1608.55605,0.09084
1606.49644,0.08933
1604.43683,0.08760
1602.37722,0.08559
1600.31760,0.08344
1598.25799,0.08124
1596.19838,0.07896
1594.13877,0.07656
1592.07916,0.07412
1590.01955,0.07168
1587.95994,0.06927
1585.90033,0.06694
1583.84072,0.06481
1581.78111,0.06293
1579.72150,0.06136
1577.66189,0.06004
1575.60227,0.05905
1573.54266,0.05864
1571.48305,0.05879
1569.42344,0.05938
1567.36383,0.06020
1565.30422,0.06112
1563.24461,0.06211
1561.18500,0.06349
1559.12539,0.06629
1557.06578,0.06994
1555.00617,0.07272
1552.94656,0.07519
1550.88695,0.07792
1548.82733,0.08066
1546.76772,0.08300
1544.70811,0.08511
1542.64850,0.08750
1540.58889,0.09057
1538.52928,0.09357
1536.46967,0.09536
1534.41006,0.09670
1532.35045,0.09826
1530.29084,0.09953
1528.23123,0.10048
1526.17162,0.10148
1524.11200,0.10259
1522.05239,0.10389
1519.99278,0.10527
1517.93317,0.10653
1515.87356,0.10760
1513.81395,0.10818
1511.75434,0.10823
1509.69473,0.10791
1507.63512,0.10698
1505.57551,0.10529
1503.51590,0.10360
1501.45629,0.10205
1499.39667,0.10013
1497.33706,0.09756
1495.27745,0.09485
1493.21784,0.09247
1491.15823,0.08985
1489.09862,0.08639
1487.03901,0.08280
1484.97940,0.07980
1482.91979,0.07722
1480.86018,0.07475
1478.80057,0.07248
1476.74096,0.07048
1474.68134,0.06875
1472.62173,0.06767
1470.56212,0.06736
1468.50251,0.06721
1466.44290,0.06680
1464.38329,0.06638
1462.32368,0.06639
1460.26407,0.06703
1458.20446,0.06839
1456.14485,0.07001
1454.08524,0.07089
1452.02563,0.07110
1449.96602,0.07111
1447.90640,0.07096
1445.84679,0.07060
1443.78718,0.07003
1441.72757,0.06930
1439.66796,0.06846
1437.60835,0.06754
1435.54874,0.06660
1433.48913,0.06579
1431.42952,0.06516
1429.36991,0.06466
1427.31030,0.06429
1425.25069,0.06407
1423.19107,0.06401
1421.13146,0.06422
1419.07185,0.06475
1417.01224,0.06529
1414.95263,0.06559
1412.89302,0.06583
1410.83341,0.06611
1408.77380,0.06641
1406.71419,0.06666
1404.65458,0.06677
1402.59497,0.06673
1400.53536,0.06670
1398.47574,0.06676
1396.41613,0.06691
1394.35652,0.06711
1392.29691,0.06732
1390.23730,0.06758
1388.17769,0.06798
1386.11808,0.06834
1384.05847,0.06844
1381.99886,0.06834
1379.93925,0.06817
1377.87964,0.06797
1375.82003,0.06788
1373.76041,0.06789
1371.70080,0.06781
1369.64119,0.06756
1367.58158,0.06719
1365.52197,0.06670
1363.46236,0.06610
1361.40275,0.06543
1359.34314,0.06480
1357.28353,0.06428
1355.22392,0.06392
1353.16431,0.06373
1351.10470,0.06362
1349.04508,0.06348
1346.98547,0.06334
1344.92586,0.06334
1342.86625,0.06359
1340.80664,0.06400
1338.74703,0.06438
1336.68742,0.06462
1334.62781,0.06474
1332.56820,0.06485
1330.50859,0.06491
1328.44898,0.06491
1326.38937,0.06490
1324.32976,0.06493
1322.27014,0.06494
1320.21053,0.06492
1318.15092,0.06491
1316.09131,0.06497
1314.03170,0.06504
1311.97209,0.06503
1309.91248,0.06497
1307.85287,0.06500
1305.79326,0.06506
1303.73365,0.06505
1301.67404,0.06502
1299.61443,0.06496
1297.55481,0.06483
1295.49520,0.06466
1293.43559,0.06448
1291.37598,0.06427
1289.31637,0.06409
1287.25676,0.06395
1285.19715,0.06384
1283.13754,0.06374
1281.07793,0.06367
1279.01832,0.06366
1276.95871,0.06365
1274.89910,0.06358
1272.83948,0.06358
1270.77987,0.06376
1268.72026,0.06401
1266.66065,0.06426
1264.60104,0.06451
1262.54143,0.06474
1260.48182,0.06501
1258.42221,0.06545
1256.36260,0.06597
1254.30299,0.06649
1252.24338,0.06707
1250.18377,0.06771
1248.12415,0.06829
1246.06454,0.06878
1244.00493,0.06924
1241.94532,0.06968
1239.88571,0.07015
1237.82610,0.07058
1235.76649,0.07084
1233.70688,0.07097
1231.64727,0.07100
1229.58766,0.07089
1227.52805,0.07066
1225.46844,0.07028
1223.40883,0.06977
1221.34921,0.06923
1219.28960,0.06870
1217.22999,0.06813
1215.17038,0.06742
1213.11077,0.06658
1211.05116,0.06571
1208.99155,0.06492
1206.93194,0.06407
1204.87233,0.06308
1202.81272,0.06216
1200.75311,0.06134
1198.69350,0.06046
1196.63388,0.05960
1194.57427,0.05888
1192.51466,0.05824
1190.45505,0.05762
1188.39544,0.05706
1186.33583,0.05665
1184.27622,0.05640
1182.21661,0.05624
1180.15700,0.05619
1178.09739,0.05627
1176.03778,0.05652
1173.97817,0.05696
1171.91855,0.05750
1169.85894,0.05801
1167.79933,0.05838
1165.73972,0.05854
1163.68011,0.05865
1161.62050,0.05875
1159.56089,0.05876
1157.50128,0.05864
1155.44167,0.05838
1153.38206,0.05797
1151.32245,0.05751
1149.26284,0.05709
1147.20322,0.05673
1145.14361,0.05640
1143.08400,0.05604
1141.02439,0.05568
1138.96478,0.05545
1136.90517,0.05535
1134.84556,0.05528
1132.78595,0.05524
1130.72634,0.05526
1128.66673,0.05530
1126.60712,0.05531
1124.54751,0.05523
1122.48790,0.05513
1120.42828,0.05507
1118.36867,0.05492
1116.30906,0.05464
1114.24945,0.05445
1112.18984,0.05448
1110.13023,0.05454
1108.07062,0.05447
1106.01101,0.05451
1103.95140,0.05469
1101.89179,0.05475
1099.83218,0.05464
1097.77257,0.05456
1095.71295,0.05459
1093.65334,0.05471
1091.59373,0.05496
1089.53412,0.05545
1087.47451,0.05614
1085.41490,0.05691
1083.35529,0.05775
1081.29568,0.05866
1079.23607,0.05950
1077.17646,0.06024
1075.11685,0.06091
1073.05724,0.06152
1070.99762,0.06207
1068.93801,0.06251
1066.87840,0.06286
1064.81879,0.06321
1062.75918,0.06362
1060.69957,0.06402
1058.63996,0.06423
1056.58035,0.06424
1054.52074,0.06425
1052.46113,0.06434
1050.40152,0.06443
1048.34191,0.06442
1046.28229,0.06437
1044.22268,0.06422
1042.16307,0.06383
1040.10346,0.06318
1038.04385,0.06240
1035.98424,0.06161
1033.92463,0.06097
1031.86502,0.06045
1029.80541,0.05986
1027.74580,0.05916
1025.68619,0.05844
1023.62658,0.05767
1021.56697,0.05680
1019.50735,0.05593
1017.44774,0.05519
1015.38813,0.05450
1013.32852,0.05371
1011.26891,0.05282
1009.20930,0.05198
1007.14969,0.05133
1005.09008,0.05077
1003.03047,0.05021
1000.97086,0.04969
998.91125,0.04919
996.85164,0.04873
994.79202,0.04836
992.73241,0.04796
990.67280,0.04747
988.61319,0.04706
986.55358,0.04678
984.49397,0.04652
982.43436,0.04626
980.37475,0.04611
978.31514,0.04600
976.25553,0.04591
974.19592,0.04584
972.13631,0.04571
970.07669,0.04563
968.01708,0.04576
965.95747,0.04603
963.89786,0.04622
961.83825,0.04616
959.77864,0.04592
957.71903,0.04573
955.65942,0.04557
953.59981,0.04534
951.54020,0.04510
949.48059,0.04493
947.42098,0.04482
945.36136,0.04472
943.30175,0.04464
941.24214,0.04460
939.18253,0.04458
937.12292,0.04452
935.06331,0.04446
933.00370,0.04451
930.94409,0.04457
928.88448,0.04441
926.82487,0.04420
924.76526,0.04413
922.70565,0.04405
920.64604,0.04384
918.58642,0.04362
916.52681,0.04345
914.46720,0.04327
912.40759,0.04309
910.34798,0.04299
908.28837,0.04302
906.22876,0.04312
904.16915,0.04323
902.10954,0.04326
900.04993,0.04324
897.99032,0.04326
895.93071,0.04331
893.87109,0.04328
891.81148,0.04316
889.75187,0.04302
887.69226,0.04289
885.63265,0.04267
883.57304,0.04244
881.51343,0.04227
879.45382,0.04213
877.39421,0.04192
875.33460,0.04162
873.27499,0.04142
871.21538,0.04133
869.15576,0.04122
867.09615,0.04114
865.03654,0.04113
862.97693,0.04114
860.91732,0.04106
858.85771,0.04091
856.79810,0.04084
854.73849,0.04084
852.67888,0.04083
850.61927,0.04076
848.55966,0.04067
846.50005,0.04060
844.44043,0.04064
842.38082,0.04081
840.32121,0.04090
838.26160,0.04085
836.20199,0.04095
834.14238,0.04125
832.08277,0.04156
830.02316,0.04185
827.96355,0.04207
825.90394,0.04217
823.84433,0.04219
821.78472,0.04208
819.72511,0.04197
817.66549,0.04216
815.60588,0.04256
813.54627,0.04299
811.48666,0.04345
809.42705,0.04388
807.36744,0.04409
805.30783,0.04418
803.24822,0.04430
801.18861,0.04433
799.12900,0.04434
797.06939,0.04450
795.00978,0.04476
792.95016,0.04505
790.89055,0.04543
788.83094,0.04586
786.77133,0.04618
784.71172,0.04637
782.65211,0.04661
780.59250,0.04706
778.53289,0.04761
776.47328,0.04812
774.41367,0.04858
772.35406,0.04898
770.29445,0.04935
768.23483,0.04976
766.17522,0.05014
764.11561,0.05051
762.05600,0.05091
759.99639,0.05129
757.93678,0.05153
755.87717,0.05174
753.81756,0.05220
751.75795,0.05283
749.69834,0.05333
747.63873,0.05375
745.57912,0.05413
743.51950,0.05440
741.45989,0.05468
739.40028,0.05491
737.34067,0.05499
735.28106,0.05504
733.22145,0.05523
731.16184,0.05548
729.10223,0.05583
727.04262,0.05651
724.98301,0.05745
722.92340,0.05820
720.86379,0.05903
718.80418,0.05973
716.74456,0.06118
714.68495,0.06255
712.62534,0.06359
710.56573,0.06472
708.50612,0.06627
706.44651,0.06799
704.38690,0.06952
702.32729,0.07076
700.26768,0.07167
698.20807,0.07231
696.14846,0.07270
694.08885,0.07291
692.02923,0.07316
689.96962,0.07353
687.91001,0.07407
685.85040,0.07476
683.79079,0.07545
681.73118,0.07598
679.67157,0.07630
677.61196,0.07659
675.55235,0.07711
673.49274,0.07784
671.43313,0.07602
669.37352,0.07295
667.31390,0.08118
665.25429,0.07772
663.19468,0.08004
661.13507,0.08130
659.07546,0.08161
657.01585,0.08197
654.95624,0.08229
652.89663,0.08260
650.83702,0.08299
648.77741,0.08362
646.71780,0.08403
644.65819,0.08449
642.59857,0.08499
640.53896,0.08558
638.47935,0.08613
636.41974,0.08657
634.36013,0.08691
632.30052,0.08731
630.24091,0.08784
628.18130,0.08842
626.12169,0.08897
624.06208,0.08963
622.00247,0.09023
619.94286,0.09077
617.88325,0.09124
615.82363,0.09134
613.76402,0.09111
611.70441,0.09103
609.64480,0.09128
607.58519,0.09166
605.52558,0.09200
603.46597,0.09222
601.40636,0.09236
599.34675,0.09252
597.28714,0.09274
595.22753,0.09293
593.16792,0.09304
591.10830,0.09322
589.04869,0.09355
586.98908,0.09408
584.92947,0.09468
582.86986,0.09515
580.81025,0.09561
578.75064,0.09625
576.69103,0.09684
574.63142,0.09710
572.57181,0.09713
570.51220,0.09710
568.45259,0.09694
566.39297,0.09687
564.33336,0.09715
562.27375,0.09772
560.21414,0.09831
558.15453,0.09880
556.09492,0.09929
554.03531,0.09961
551.97570,0.09980
549.91609,0.10032
547.85648,0.10096
545.79687,0.10123
543.73726,0.10126
541.67764,0.10134
539.61803,0.10147
537.55842,0.10158
535.49881,0.10177
533.43920,0.10206
531.37959,0.10237
529.31998,0.10260
527.26037,0.10266
525.20076,0.10282
523.14115,0.10339
521.08154,0.10404
519.02193,0.10447
516.96232,0.10465
514.90270,0.10450
512.84309,0.10414
510.78348,0.10386
508.72387,0.10375
506.66426,0.10351
504.60465,0.10318
502.54504,0.10280
500.48543,0.10219
498.42582,0.10168
496.36621,0.10163
494.30660,0.10174
492.24699,0.10170
490.18737,0.10162
488.12776,0.10158
486.06815,0.10149
484.00854,0.10158
481.94893,0.10198
479.88932,0.10214
477.82971,0.10159
475.77010,0.10093
473.71049,0.10096
471.65088,0.10112
469.59127,0.10091
467.53166,0.10131
465.47204,0.10257
463.41243,0.10336
461.35282,0.10282
459.29321,0.10154
457.23360,0.10083
455.17399,0.10119
453.11438,0.10163
451.05477,0.10155
448.99516,0.10120
446.93555,0.10055
444.87594,0.09961
442.81633,0.09877
440.75671,0.09809
438.69710,0.09759
436.63749,0.09720
434.57788,0.09689
432.51827,0.09671
430.45866,0.09669
428.39905,0.09707
426.33944,0.09775
424.27983,0.09793
422.22022,0.09718
420.16061,0.09565
418.10100,0.09370
416.04138,0.09249
413.98177,0.09292
411.92216,0.09440
409.86255,0.09542
407.80294,0.09504
405.74333,0.09360
403.68372,0.09206
401.62411,0.09087
399.56450,0.08989
