3997.70460,0.01462
3995.64498,0.01467
3993.58537,0.01471
3991.52576,0.01476
3989.46615,0.01485
3987.40654,0.01496
3985.34693,0.01502
3983.28732,0.01500
3981.22771,0.01491
3979.16810,0.01479
3977.10849,0.01479
3975.04888,0.01489
3972.98927,0.01501
3970.92965,0.01509
3968.87004,0.01501
3966.81043,0.01487
3964.75082,0.01484
3962.69121,0.01480
3960.63160,0.01460
3958.57199,0.01444
3956.51238,0.01446
3954.45277,0.01453
3952.39316,0.01454
3950.33355,0.01447
3948.27394,0.01433
3946.21432,0.01424
3944.15471,0.01435
3942.09510,0.01454
3940.03549,0.01462
3937.97588,0.01457
3935.91627,0.01448
3933.85666,0.01445
3931.79705,0.01447
3929.73744,0.01454
3927.67783,0.01464
3925.61822,0.01465
3923.55861,0.01453
3921.49900,0.01449
3919.43938,0.01467
3917.37977,0.01485
3915.32016,0.01483
3913.26055,0.01463
3911.20094,0.01441
3909.14133,0.01429
3907.08172,0.01437
3905.02211,0.01463
3902.96250,0.01488
3900.90289,0.01493
3898.84328,0.01477
3896.78367,0.01458
3894.72405,0.01458
3892.66444,0.01474
3890.60483,0.01480
3888.54522,0.01466
3886.48561,0.01449
3884.42600,0.01444
3882.36639,0.01445
3880.30678,0.01440
3878.24717,0.01427
3876.18756,0.01412
3874.12795,0.01408
3872.06834,0.01422
3870.00872,0.01448
3867.94911,0.01468
3865.88950,0.01469
3863.82989,0.01453
3861.77028,0.01429
3859.71067,0.01407
3857.65106,0.01394
3855.59145,0.01390
3853.53184,0.01403
3851.47223,0.01434
3849.41262,0.01458
3847.35301,0.01459
3845.29339,0.01450
3843.23378,0.01438
3841.17417,0.01428
3839.11456,0.01432
3837.05495,0.01441
3834.99534,0.01438
3832.93573,0.01434
3830.87612,0.01437
3828.81651,0.01430
3826.75690,0.01406
3824.69729,0.01382
3822.63768,0.01381
3820.57807,0.01405
3818.51845,0.01418
3816.45884,0.01412
3814.39923,0.01414
3812.33962,0.01423
3810.28001,0.01422
3808.22040,0.01409
3806.16079,0.01397
3804.10118,0.01392
3802.04157,0.01394
3799.98196,0.01401
3797.92235,0.01396
3795.86274,0.01381
3793.80312,0.01375
3791.74351,0.01382
3789.68390,0.01386
3787.62429,0.01377
3785.56468,0.01363
3783.50507,0.01355
3781.44546,0.01360
3779.38585,0.01377
3777.32624,0.01391
3775.26663,0.01385
3773.20702,0.01369
3771.14741,0.01369
3769.08779,0.01390
3767.02818,0.01403
3764.96857,0.01397
3762.90896,0.01389
3760.84935,0.01398
3758.78974,0.01413
3756.73013,0.01412
3754.67052,0.01398
3752.61091,0.01383
3750.55130,0.01376
3748.49169,0.01389
3746.43208,0.01407
3744.37246,0.01395
3742.31285,0.01346
3740.25324,0.01308
3738.19363,0.01307
3736.13402,0.01330
3734.07441,0.01346
3732.01480,0.01344
3729.95519,0.01346
3727.89558,0.01360
3725.83597,0.01371
3723.77636,0.01368
3721.71675,0.01361
3719.65714,0.01361
3717.59752,0.01360
3715.53791,0.01352
3713.47830,0.01349
3711.41869,0.01361
3709.35908,0.01376
3707.29947,0.01385
3705.23986,0.01375
3703.18025,0.01356
3701.12064,0.01345
3699.06103,0.01331
3697.00142,0.01305
3694.94181,0.01287
3692.88219,0.01293
3690.82258,0.01316
3688.76297,0.01308
3686.70336,0.01288
3684.64375,0.01291
3682.58414,0.01305
3680.52453,0.01315
3678.46492,0.01329
3676.40531,0.01342
3674.34570,0.01331
3672.28609,0.01309
3670.22648,0.01310
3668.16686,0.01332
3666.10725,0.01345
3664.04764,0.01346
3661.98803,0.01345
3659.92842,0.01343
3657.86881,0.01338
3655.80920,0.01333
3653.74959,0.01339
3651.68998,0.01366
3649.63037,0.01411
3647.57076,0.01441
3645.51115,0.01438
3643.45153,0.01421
3641.39192,0.01410
3639.33231,0.01417
3637.27270,0.01438
3635.21309,0.01467
3633.15348,0.01489
3631.09387,0.01496
3629.03426,0.01509
3626.97465,0.01528
3624.91504,0.01535
3622.85543,0.01534
3620.79582,0.01533
3618.73621,0.01535
3616.67659,0.01546
3614.61698,0.01569
3612.55737,0.01596
3610.49776,0.01613
3608.43815,0.01623
3606.37854,0.01626
3604.31893,0.01636
3602.25932,0.01649
3600.19971,0.01658
3598.14010,0.01670
3596.08049,0.01693
3594.02088,0.01725
3591.96126,0.01760
3589.90165,0.01779
3587.84204,0.01790
3585.78243,0.01793
3583.72282,0.01796
3581.66321,0.01801
3579.60360,0.01805
3577.54399,0.01809
3575.48438,0.01822
3573.42477,0.01841
3571.36516,0.01863
3569.30555,0.01893
3567.24593,0.01937
3565.18632,0.01974
3563.12671,0.01980
3561.06710,0.01979
3559.00749,0.01997
3556.94788,0.02029
3554.88827,0.02050
3552.82866,0.02052
3550.76905,0.02058
3548.70944,0.02084
3546.64983,0.02120
3544.59022,0.02145
3542.53060,0.02148
3540.47099,0.02137
3538.41138,0.02128
3536.35177,0.02141
3534.29216,0.02179
3532.23255,0.02221
3530.17294,0.02247
3528.11333,0.02263
3526.05372,0.02277
3523.99411,0.02290
3521.93450,0.02300
3519.87489,0.02309
3517.81528,0.02321
3515.75566,0.02338
3513.69605,0.02363
3511.63644,0.02387
3509.57683,0.02406
3507.51722,0.02428
3505.45761,0.02462
3503.39800,0.02500
3501.33839,0.02514
3499.27878,0.02514
3497.21917,0.02533
3495.15956,0.02565
3493.09995,0.02586
3491.04033,0.02595
3488.98072,0.02606
3486.92111,0.02625
3484.86150,0.02646
3482.80189,0.02658
3480.74228,0.02671
3478.68267,0.02688
3476.62306,0.02700
3474.56345,0.02709
3472.50384,0.02733
3470.44423,0.02767
3468.38462,0.02790
3466.32500,0.02806
3464.26539,0.02837
3462.20578,0.02873
3460.14617,0.02890
3458.08656,0.02895
3456.02695,0.02914
3453.96734,0.02945
3451.90773,0.02963
3449.84812,0.02975
3447.78851,0.02998
3445.72890,0.03020
3443.66929,0.03041
3441.60967,0.03062
3439.55006,0.03074
3437.49045,0.03080
3435.43084,0.03091
3433.37123,0.03116
3431.31162,0.03150
3429.25201,0.03175
3427.19240,0.03190
3425.13279,0.03210
3423.07318,0.03250
3421.01357,0.03294
3418.95396,0.03317
3416.89435,0.03315
3414.83473,0.03315
3412.77512,0.03332
3410.71551,0.03357
3408.65590,0.03373
3406.59629,0.03385
3404.53668,0.03415
3402.47707,0.03444
3400.41746,0.03456
3398.35785,0.03476
3396.29824,0.03506
3394.23863,0.03533
3392.17902,0.03550
3390.11940,0.03560
3388.05979,0.03575
3386.00018,0.03602
3383.94057,0.03633
3381.88096,0.03657
3379.82135,0.03675
3377.76174,0.03698
3375.70213,0.03732
3373.64252,0.03763
3371.58291,0.03781
3369.52330,0.03796
3367.46369,0.03816
3365.40407,0.03836
3363.34446,0.03855
3361.28485,0.03882
3359.22524,0.03918
3357.16563,0.03956
3355.10602,0.03994
3353.04641,0.04035
3350.98680,0.04068
3348.92719,0.04099
3346.86758,0.04135
3344.80797,0.04176
3342.74836,0.04216
3340.68874,0.04254
3338.62913,0.04287
3336.56952,0.04312
3334.50991,0.04332
3332.45030,0.04366
3330.39069,0.04414
3328.33108,0.04453
3326.27147,0.04490
3324.21186,0.04527
3322.15225,0.04563
3320.09264,0.04610
3318.03303,0.04665
3315.97342,0.04712
3313.91380,0.04759
3311.85419,0.04812
3309.79458,0.04864
3307.73497,0.04911
3305.67536,0.04959
3303.61575,0.05012
3301.55614,0.05059
3299.49653,0.05103
3297.43692,0.05161
3295.37731,0.05225
3293.31770,0.05277
3291.25809,0.05320
3289.19847,0.05361
3287.13886,0.05395
3285.07925,0.05422
3283.01964,0.05452
3280.96003,0.05481
3278.90042,0.05504
3276.84081,0.05533
3274.78120,0.05563
3272.72159,0.05581
3270.66198,0.05581
3268.60237,0.05577
3266.54276,0.05574
3264.48314,0.05562
3262.42353,0.05547
3260.36392,0.05536
3258.30431,0.05515
3256.24470,0.05478
3254.18509,0.05433
3252.12548,0.05387
3250.06587,0.05357
3248.00626,0.05337
3245.94665,0.05296
3243.88704,0.05233
3241.82743,0.05196
3239.76781,0.05192
3237.70820,0.05183
3235.64859,0.05154
3233.58898,0.05122
3231.52937,0.05094
3229.46976,0.05069
3227.41015,0.05045
3225.35054,0.05019
3223.29093,0.04989
3221.23132,0.04958
3219.17171,0.04926
3217.11210,0.04899
3215.05248,0.04889
3212.99287,0.04890
3210.93326,0.04886
3208.87365,0.04868
3206.81404,0.04841
3204.75443,0.04817
3202.69482,0.04804
3200.63521,0.04794
3198.57560,0.04776
3196.51599,0.04749
3194.45638,0.04721
3192.39677,0.04700
3190.33716,0.04687
3188.27754,0.04668
3186.21793,0.04632
3184.15832,0.04587
3182.09871,0.04548
3180.03910,0.04520
3177.97949,0.04498
3175.91988,0.04469
3173.86027,0.04428
3171.80066,0.04381
3169.74105,0.04338
3167.68144,0.04309
3165.62183,0.04282
3163.56221,0.04251
3161.50260,0.04227
3159.44299,0.04211
3157.38338,0.04184
3155.32377,0.04141
3153.26416,0.04089
3151.20455,0.04039
3149.14494,0.04012
3147.08533,0.04004
3145.02572,0.03990
3142.96611,0.03960
3140.90650,0.03925
3138.84688,0.03892
3136.78727,0.03862
3134.72766,0.03838
3132.66805,0.03818
3130.60844,0.03795
3128.54883,0.03763
3126.48922,0.03726
3124.42961,0.03702
3122.37000,0.03696
3120.31039,0.03694
3118.25078,0.03693
3116.19117,0.03694
3114.13155,0.03674
3112.07194,0.03640
3110.01233,0.03614
3107.95272,0.03600
3105.89311,0.03599
3103.83350,0.03606
3101.77389,0.03606
3099.71428,0.03610
3097.65467,0.03619
3095.59506,0.03620
3093.53545,0.03609
3091.47584,0.03601
3089.41623,0.03608
3087.35661,0.03621
3085.29700,0.03635
3083.23739,0.03649
3081.17778,0.03652
3079.11817,0.03638
3077.05856,0.03627
3074.99895,0.03631
3072.93934,0.03636
3070.87973,0.03630
3068.82012,0.03628
3066.76051,0.03642
3064.70090,0.03659
3062.64128,0.03657
3060.58167,0.03634
3058.52206,0.03605
3056.46245,0.03588
3054.40284,0.03586
3052.34323,0.03580
3050.28362,0.03569
3048.22401,0.03555
3046.16440,0.03539
3044.10479,0.03519
3042.04518,0.03498
3039.98557,0.03477
3037.92595,0.03458
3035.86634,0.03445
3033.80673,0.03435
3031.74712,0.03413
3029.68751,0.03381
3027.62790,0.03356
3025.56829,0.03340
3023.50868,0.03319
3021.44907,0.03293
3019.38946,0.03268
3017.32985,0.03241
3015.27024,0.03224
3013.21062,0.03220
3011.15101,0.03209
3009.09140,0.03185
3007.03179,0.03164
3004.97218,0.03151
3002.91257,0.03139
3000.85296,0.03125
2998.79335,0.03113
2996.73374,0.03110
2994.67413,0.03124
2992.61452,0.03145
2990.55491,0.03161
2988.49530,0.03180
2986.43568,0.03208
2984.37607,0.03235
2982.31646,0.03265
2980.25685,0.03301
2978.19724,0.03332
2976.13763,0.03351
2974.07802,0.03368
2972.01841,0.03385
2969.95880,0.03395
2967.89919,0.03405
2965.83958,0.03423
2963.77997,0.03440
2961.72035,0.03448
2959.66074,0.03445
2957.60113,0.03434
2955.54152,0.03426
2953.48191,0.03423
2951.42230,0.03418
2949.36269,0.03421
2947.30308,0.03435
2945.24347,0.03448
2943.18386,0.03456
2941.12425,0.03469
2939.06464,0.03493
2937.00502,0.03514
2934.94541,0.03515
2932.88580,0.03503
2930.82619,0.03488
2928.76658,0.03454
2926.70697,0.03395
2924.64736,0.03313
2922.58775,0.03192
2920.52814,0.03018
2918.46853,0.02810
2916.40892,0.02664
2914.34931,0.02700
2912.28969,0.02874
2910.23008,0.03031
2908.17047,0.03111
2906.11086,0.03133
2904.05125,0.03122
2901.99164,0.03108
2899.93203,0.03108
2897.87242,0.03112
2895.81281,0.03109
2893.75320,0.03108
2891.69359,0.03107
2889.63398,0.03101
2887.57437,0.03105
2885.51475,0.03118
2883.45514,0.03131
2881.39553,0.03154
2879.33592,0.03183
2877.27631,0.03200
2875.21670,0.03204
2873.15709,0.03208
2871.09748,0.03208
2869.03787,0.03193
2866.97826,0.03163
2864.91865,0.03123
2862.85904,0.03083
2860.79942,0.03047
2858.73981,0.03007
2856.68020,0.02953
2854.62059,0.02875
2852.56098,0.02748
2850.50137,0.02586
2848.44176,0.02496
2846.38215,0.02562
2844.32254,0.02702
2842.26293,0.02799
2840.20332,0.02835
2838.14371,0.02841
2836.08409,0.02840
2834.02448,0.02836
2831.96487,0.02824
2829.90526,0.02810
2827.84565,0.02800
2825.78604,0.02799
2823.72643,0.02800
2821.66682,0.02787
2819.60721,0.02764
2817.54760,0.02751
2815.48799,0.02749
2813.42838,0.02750
2811.36876,0.02744
2809.30915,0.02727
2807.24954,0.02706
2805.18993,0.02694
2803.13032,0.02696
2801.07071,0.02699
2799.01110,0.02695
2796.95149,0.02688
2794.89188,0.02677
2792.83227,0.02662
2790.77266,0.02657
2788.71305,0.02659
2786.65344,0.02655
2784.59382,0.02642
2782.53421,0.02629
2780.47460,0.02625
2778.41499,0.02630
2776.35538,0.02634
2774.29577,0.02632
2772.23616,0.02627
2770.17655,0.02614
2768.11694,0.02599
2766.05733,0.02584
2763.99772,0.02573
2761.93811,0.02571
2759.87849,0.02576
2757.81888,0.02575
2755.75927,0.02560
2753.69966,0.02548
2751.64005,0.02541
2749.58044,0.02541
2747.52083,0.02545
2745.46122,0.02542
2743.40161,0.02532
2741.34200,0.02523
2739.28239,0.02514
2737.22278,0.02505
2735.16316,0.02500
2733.10355,0.02496
2731.04394,0.02487
2728.98433,0.02481
2726.92472,0.02480
2724.86511,0.02480
2722.80550,0.02479
2720.74589,0.02473
2718.68628,0.02462
2716.62667,0.02449
2714.56706,0.02439
2712.50745,0.02439
2710.44783,0.02441
2708.38822,0.02433
2706.32861,0.02422
2704.26900,0.02417
2702.20939,0.02410
2700.14978,0.02407
2698.09017,0.02406
2696.03056,0.02400
2693.97095,0.02394
2691.91134,0.02389
2689.85173,0.02377
2687.79212,0.02374
2685.73251,0.02372
2683.67289,0.02360
2681.61328,0.02357
2679.55367,0.02365
2677.49406,0.02364
2675.43445,0.02351
2673.37484,0.02342
2671.31523,0.02340
2669.25562,0.02343
2667.19601,0.02347
2665.13640,0.02354
2663.07679,0.02356
2661.01718,0.02348
2658.95756,0.02340
2656.89795,0.02340
2654.83834,0.02343
2652.77873,0.02344
2650.71912,0.02339
2648.65951,0.02327
2646.59990,0.02315
2644.54029,0.02302
2642.48068,0.02291
2640.42107,0.02291
2638.36146,0.02295
2636.30185,0.02295
2634.24223,0.02298
2632.18262,0.02297
2630.12301,0.02281
2628.06340,0.02265
2626.00379,0.02254
2623.94418,0.02241
2621.88457,0.02231
2619.82496,0.02226
2617.76535,0.02219
2615.70574,0.02214
2613.64613,0.02214
2611.58652,0.02208
2609.52690,0.02196
2607.46729,0.02190
2605.40768,0.02183
2603.34807,0.02172
2601.28846,0.02163
2599.22885,0.02162
2597.16924,0.02172
2595.10963,0.02173
2593.05002,0.02154
2590.99041,0.02139
2588.93080,0.02141
2586.87119,0.02145
2584.81158,0.02136
2582.75196,0.02119
2580.69235,0.02103
2578.63274,0.02096
2576.57313,0.02097
2574.51352,0.02106
2572.45391,0.02123
2570.39430,0.02129
2568.33469,0.02109
2566.27508,0.02088
2564.21547,0.02089
2562.15586,0.02090
2560.09625,0.02073
2558.03663,0.02056
2555.97702,0.02052
2553.91741,0.02054
2551.85780,0.02059
2549.79819,0.02059
2547.73858,0.02054
2545.67897,0.02056
2543.61936,0.02065
2541.55975,0.02078
2539.50014,0.02082
2537.44053,0.02072
2535.38092,0.02060
2533.32130,0.02050
2531.26169,0.02048
2529.20208,0.02052
2527.14247,0.02042
2525.08286,0.02023
2523.02325,0.02016
2520.96364,0.02018
2518.90403,0.02024
2516.84442,0.02027
2514.78481,0.02014
2512.72520,0.02000
2510.66559,0.01999
2508.60597,0.01990
2506.54636,0.01981
2504.48675,0.01988
2502.42714,0.02002
2500.36753,0.02013
2498.30792,0.02013
2496.24831,0.02002
2494.18870,0.01990
2492.12909,0.01983
2490.06948,0.01985
2488.00987,0.01986
2485.95026,0.01986
2483.89065,0.01991
2481.83103,0.01994
2479.77142,0.01987
2477.71181,0.01982
2475.65220,0.01977
2473.59259,0.01966
2471.53298,0.01965
2469.47337,0.01975
2467.41376,0.01980
2465.35415,0.01972
2463.29454,0.01952
2461.23493,0.01937
2459.17532,0.01941
2457.11570,0.01958
2455.05609,0.01973
2452.99648,0.01964
2450.93687,0.01939
2448.87726,0.01940
2446.81765,0.01962
2444.75804,0.01973
2442.69843,0.01967
2440.63882,0.01944
2438.57921,0.01924
2436.51960,0.01924
2434.45999,0.01938
2432.40037,0.01961
2430.34076,0.01975
2428.28115,0.01976
2426.22154,0.01968
2424.16193,0.01952
2422.10232,0.01943
2420.04271,0.01950
2417.98310,0.01950
2415.92349,0.01937
2413.86388,0.01931
2411.80427,0.01933
2409.74466,0.01935
2407.68504,0.01934
2405.62543,0.01930
2403.56582,0.01927
2401.50621,0.01933
2399.44660,0.01923
2397.38699,0.01915
2395.32738,0.01916
2393.26777,0.01924
2391.20816,0.01928
2389.14855,0.01933
2387.08894,0.01946
2385.02933,0.01966
2382.96972,0.01984
2380.91010,0.02000
2378.85049,0.02018
2376.79088,0.02041
2374.73127,0.01952
2372.67166,0.01907
2370.61205,0.01984
2368.55244,0.01981
2366.49283,0.02006
2364.43322,0.01960
2362.37361,0.01934
2360.31400,0.02088
2358.25439,0.02067
2356.19477,0.02070
2354.13516,0.02065
2352.07555,0.02031
2350.01594,0.02149
2347.95633,0.02028
2345.89672,0.01996
2343.83711,0.02153
2341.77750,0.01971
2339.71789,0.01815
2337.65828,0.01729
2335.59867,0.01948
2333.53906,0.02421
2331.47944,0.02557
2329.41983,0.02527
2327.36022,0.02047
2325.30061,0.01766
2323.24100,0.01504
2321.18139,0.01451
2319.12178,0.01506
2317.06217,0.01583
2315.00256,0.01672
2312.94295,0.01732
2310.88334,0.01725
2308.82373,0.01712
2306.76411,0.01746
2304.70450,0.01790
2302.64489,0.01831
2300.58528,0.01867
2298.52567,0.01894
2296.46606,0.01911
2294.40645,0.01913
2292.34684,0.01926
2290.28723,0.01952
2288.22762,0.01945
2286.16801,0.01907
2284.10840,0.01882
2282.04878,0.01867
2279.98917,0.01855
2277.92956,0.01837
2275.86995,0.01812
2273.81034,0.01806
2271.75073,0.01798
2269.69112,0.01784
2267.63151,0.01784
2265.57190,0.01788
2263.51229,0.01764
2261.45268,0.01734
2259.39307,0.01731
2257.33346,0.01725
2255.27384,0.01700
2253.21423,0.01692
2251.15462,0.01704
2249.09501,0.01711
2247.03540,0.01720
2244.97579,0.01707
2242.91618,0.01679
2240.85657,0.01684
2238.79696,0.01694
2236.73735,0.01664
2234.67774,0.01644
2232.61813,0.01645
2230.55851,0.01632
2228.49890,0.01642
2226.43929,0.01679
2224.37968,0.01687
2222.32007,0.01667
2220.26046,0.01630
2218.20085,0.01588
2216.14124,0.01590
2214.08163,0.01617
2212.02202,0.01620
2209.96241,0.01608
2207.90280,0.01600
2205.84318,0.01584
2203.78357,0.01554
2201.72396,0.01542
2199.66435,0.01560
2197.60474,0.01570
2195.54513,0.01549
2193.48552,0.01510
2191.42591,0.01513
2189.36630,0.01566
2187.30669,0.01586
2185.24708,0.01571
2183.18747,0.01570
2181.12785,0.01549
2179.06824,0.01498
2177.00863,0.01463
2174.94902,0.01427
2172.88941,0.01399
2170.82980,0.01455
2168.77019,0.01538
2166.71058,0.01542
2164.65097,0.01485
2162.59136,0.01391
2160.53175,0.01277
2158.47214,0.01208
2156.41253,0.01208
2154.35291,0.01249
2152.29330,0.01327
2150.23369,0.01417
2148.17408,0.01461
2146.11447,0.01455
2144.05486,0.01438
2141.99525,0.01443
2139.93564,0.01466
2137.87603,0.01448
2135.81642,0.01374
2133.75681,0.01337
2131.69720,0.01381
2129.63758,0.01453
2127.57797,0.01499
2125.51836,0.01509
2123.45875,0.01519
2121.39914,0.01558
2119.33953,0.01606
2117.27992,0.01644
2115.22031,0.01656
2113.16070,0.01646
2111.10109,0.01638
2109.04148,0.01618
2106.98187,0.01602
2104.92225,0.01618
2102.86264,0.01635
2100.80303,0.01626
2098.74342,0.01597
2096.68381,0.01563
2094.62420,0.01548
2092.56459,0.01560
2090.50498,0.01571
2088.44537,0.01571
2086.38576,0.01568
2084.32615,0.01571
2082.26654,0.01591
2080.20692,0.01620
2078.14731,0.01615
2076.08770,0.01565
2074.02809,0.01517
2071.96848,0.01508
2069.90887,0.01525
2067.84926,0.01521
2065.78965,0.01486
2063.73004,0.01464
2061.67043,0.01471
2059.61082,0.01476
2057.55121,0.01454
2055.49160,0.01444
2053.43198,0.01483
2051.37237,0.01523
2049.31276,0.01485
2047.25315,0.01411
2045.19354,0.01413
2043.13393,0.01456
2041.07432,0.01448
2039.01471,0.01404
2036.95510,0.01357
2034.89549,0.01295
2032.83588,0.01236
2030.77627,0.01203
2028.71665,0.01196
2026.65704,0.01209
2024.59743,0.01231
2022.53782,0.01263
2020.47821,0.01328
2018.41860,0.01377
2016.35899,0.01333
2014.29938,0.01261
2012.23977,0.01247
2010.18016,0.01268
2008.12055,0.01316
2006.06094,0.01392
2004.00132,0.01429
2001.94171,0.01397
1999.88210,0.01364
1997.82249,0.01373
1995.76288,0.01395
1993.70327,0.01387
1991.64366,0.01334
1989.58405,0.01280
1987.52444,0.01286
1985.46483,0.01336
1983.40522,0.01353
1981.34561,0.01329
1979.28599,0.01321
1977.22638,0.01310
1975.16677,0.01261
1973.10716,0.01203
1971.04755,0.01169
1968.98794,0.01166
1966.92833,0.01168
1964.86872,0.01156
1962.80911,0.01164
1960.74950,0.01208
1958.68989,0.01252
1956.63028,0.01273
1954.57067,0.01284
1952.51105,0.01282
1950.45144,0.01297
1948.39183,0.01337
1946.33222,0.01344
1944.27261,0.01321
1942.21300,0.01306
1940.15339,0.01292
1938.09378,0.01287
1936.03417,0.01295
1933.97456,0.01306
1931.91495,0.01316
1929.85534,0.01327
1927.79572,0.01342
1925.73611,0.01363
1923.67650,0.01381
1921.61689,0.01404
1919.55728,0.01430
1917.49767,0.01431
1915.43806,0.01406
1913.37845,0.01388
1911.31884,0.01384
1909.25923,0.01375
1907.19962,0.01367
1905.14001,0.01365
1903.08039,0.01368
1901.02078,0.01375
1898.96117,0.01378
1896.90156,0.01371
1894.84195,0.01366
1892.78234,0.01377
1890.72273,0.01398
1888.66312,0.01421
1886.60351,0.01432
1884.54390,0.01417
1882.48429,0.01389
1880.42468,0.01372
1878.36506,0.01364
1876.30545,0.01359
1874.24584,0.01364
1872.18623,0.01380
1870.12662,0.01394
1868.06701,0.01400
1866.00740,0.01395
1863.94779,0.01382
1861.88818,0.01371
1859.82857,0.01358
1857.76896,0.01339
1855.70935,0.01329
1853.64974,0.01332
1851.59012,0.01332
1849.53051,0.01326
1847.47090,0.01323
1845.41129,0.01317
1843.35168,0.01303
1841.29207,0.01294
1839.23246,0.01295
1837.17285,0.01297
1835.11324,0.01293
1833.05363,0.01295
1830.99402,0.01317
1828.93441,0.01332
1826.87479,0.01319
1824.81518,0.01296
1822.75557,0.01285
1820.69596,0.01281
1818.63635,0.01275
1816.57674,0.01268
1814.51713,0.01265
1812.45752,0.01263
1810.39791,0.01263
1808.33830,0.01265
1806.27869,0.01263
1804.21908,0.01260
1802.15946,0.01263
1800.09985,0.01270
1798.04024,0.01274
1795.98063,0.01275
1793.92102,0.01274
1791.86141,0.01270
1789.80180,0.01258
1787.74219,0.01243
1785.68258,0.01232
1783.62297,0.01224
1781.56336,0.01217
1779.50375,0.01209
1777.44413,0.01198
1775.38452,0.01184
1773.32491,0.01173
1771.26530,0.01174
1769.20569,0.01185
1767.14608,0.01193
1765.08647,0.01194
1763.02686,0.01192
1760.96725,0.01183
1758.90764,0.01168
1756.84803,0.01159
1754.78842,0.01157
1752.72881,0.01155
1750.66919,0.01158
1748.60958,0.01168
1746.54997,0.01175
1744.49036,0.01172
1742.43075,0.01161
1740.37114,0.01150
1738.31153,0.01148
1736.25192,0.01154
1734.19231,0.01158
1732.13270,0.01150
1730.07309,0.01134
1728.01348,0.01127
1725.95386,0.01131
1723.89425,0.01138
1721.83464,0.01144
1719.77503,0.01155
1717.71542,0.01180
1715.65581,0.01225
1713.59620,0.01278
1711.53659,0.01340
1709.47698,0.01419
1707.41737,0.01528
1705.35776,0.01674
1703.29815,0.01848
1701.23853,0.02099
1699.17892,0.02448
1697.11931,0.02784
1695.05970,0.03067
1693.00009,0.03289
1690.94048,0.03477
1688.88087,0.03665
1686.82126,0.03863
1684.76165,0.04142
1682.70204,0.04481
1680.64243,0.04735
1678.58282,0.04928
1676.52320,0.05145
1674.46359,0.05401
1672.40398,0.05657
1670.34437,0.05940
1668.28476,0.06257
1666.22515,0.06525
1664.16554,0.06778
1662.10593,0.07075
1660.04632,0.07355
1657.98671,0.07564
1655.92710,0.07746
1653.86749,0.08003
1651.80788,0.08306
1649.74826,0.08479
1647.68865,0.08608
1645.62904,0.08783
1643.56943,0.08922
1641.50982,0.08994
1639.45021,0.09033
1637.39060,0.09085
1635.33099,0.09176
1633.27138,0.09248
1631.21177,0.09264
1629.15216,0.09266
1627.09255,0.09278
1625.03293,0.09292
1622.97332,0.09302
1620.91371,0.09295
1618.85410,0.09275
1616.79449,0.09261
1614.73488,0.09250
1612.67527,0.09209
1610.61566,0.09127
1608.55605,0.09011
1606.49644,0.08871
1604.43683,0.08705
1602.37722,0.08512
1600.31760,0.08302
1598.25799,0.08076
1596.19838,0.07832
1594.13877,0.07578
1592.07916,0.07324
1590.01955,0.07067
1587.95994,0.06816
1585.90033,0.06586
1583.84072,0.06386
1581.78111,0.06214
1579.72150,0.06071
1577.66189,0.05958
1575.60227,0.05878
1573.54266,0.05842
1571.48305,0.05849
1569.42344,0.05897
1567.36383,0.05966
1565.30422,0.06037
1563.24461,0.06108
1561.18500,0.06211
1559.12539,0.06436
1557.06578,0.06731
1555.00617,0.06952
1552.94656,0.07146
1550.88695,0.07358
1548.82733,0.07566
1546.76772,0.07746
1544.70811,0.07924
1542.64850,0.08146
1540.58889,0.08433
1538.52928,0.08686
1536.46967,0.08811
1534.41006,0.08904
1532.35045,0.09040
1530.29084,0.09165
1528.23123,0.09265
1526.17162,0.09367
1524.11200,0.09476
1522.05239,0.09608
1519.99278,0.09758
1517.93317,0.09890
1515.87356,0.09998
1513.81395,0.10060
1511.75434,0.10070
1509.69473,0.10052
1507.63512,0.10007
1505.57551,0.09918
1503.51590,0.09798
1501.45629,0.09660
1499.39667,0.09495
1497.33706,0.09282
1495.27745,0.09042
1493.21784,0.08818
1491.15823,0.08570
1489.09862,0.08252
1487.03901,0.07921
1484.97940,0.07641
1482.91979,0.07398
1480.86018,0.07171
1478.80057,0.06975
1476.74096,0.06811
1474.68134,0.06676
1472.62173,0.06587
1470.56212,0.06545
1468.50251,0.06510
1466.44290,0.06468
1464.38329,0.06440
1462.32368,0.06441
1460.26407,0.06475
1458.20446,0.06570
1456.14485,0.06712
1454.08524,0.06807
1452.02563,0.06848
1449.96602,0.06869
1447.90640,0.06873
1445.84679,0.06852
1443.78718,0.06809
1441.72757,0.06747
1439.66796,0.06661
1437.60835,0.06554
1435.54874,0.06448
1433.48913,0.06361
1431.42952,0.06293
1429.36991,0.06244
1427.31030,0.06214
1425.25069,0.06196
1423.19107,0.06190
1421.13146,0.06203
1419.07185,0.06242
1417.01224,0.06293
1414.95263,0.06335
1412.89302,0.06367
1410.83341,0.06392
1408.77380,0.06411
1406.71419,0.06427
1404.65458,0.06436
1402.59497,0.06430
1400.53536,0.06414
1398.47574,0.06400
1396.41613,0.06398
1394.35652,0.06411
1392.29691,0.06435
1390.23730,0.06466
1388.17769,0.06503
1386.11808,0.06526
1384.05847,0.06519
1381.99886,0.06498
1379.93925,0.06480
1377.87964,0.06471
1375.82003,0.06471
1373.76041,0.06474
1371.70080,0.06467
1369.64119,0.06446
1367.58158,0.06405
1365.52197,0.06344
1363.46236,0.06276
1361.40275,0.06214
1359.34314,0.06158
1357.28353,0.06104
1355.22392,0.06065
1353.16431,0.06041
1351.10470,0.06020
1349.04508,0.05996
1346.98547,0.05982
1344.92586,0.05987
1342.86625,0.06006
1340.80664,0.06030
1338.74703,0.06053
1336.68742,0.06072
1334.62781,0.06082
1332.56820,0.06086
1330.50859,0.06081
1328.44898,0.06068
1326.38937,0.06056
1324.32976,0.06051
1322.27014,0.06046
1320.21053,0.06034
1318.15092,0.06022
1316.09131,0.06017
1314.03170,0.06015
1311.97209,0.06006
1309.91248,0.05991
1307.85287,0.05980
1305.79326,0.05972
1303.73365,0.05961
1301.67404,0.05945
1299.61443,0.05925
1297.55481,0.05905
1295.49520,0.05882
1293.43559,0.05859
1291.37598,0.05842
1289.31637,0.05834
1287.25676,0.05827
1285.19715,0.05821
1283.13754,0.05819
1281.07793,0.05824
1279.01832,0.05829
1276.95871,0.05829
1274.89910,0.05831
1272.83948,0.05841
1270.77987,0.05862
1268.72026,0.05888
1266.66065,0.05913
1264.60104,0.05939
1262.54143,0.05970
1260.48182,0.06012
1258.42221,0.06068
1256.36260,0.06133
1254.30299,0.06199
1252.24338,0.06267
1250.18377,0.06337
1248.12415,0.06403
1246.06454,0.06467
1244.00493,0.06526
1241.94532,0.06589
1239.88571,0.06657
1237.82610,0.06713
1235.76649,0.06751
1233.70688,0.06780
1231.64727,0.06796
1229.58766,0.06795
1227.52805,0.06782
1225.46844,0.06758
1223.40883,0.06719
1221.34921,0.06666
1219.28960,0.06609
1217.22999,0.06546
1215.17038,0.06474
1213.11077,0.06394
1211.05116,0.06307
1208.99155,0.06211
1206.93194,0.06105
1204.87233,0.05991
1202.81272,0.05875
1200.75311,0.05761
1198.69350,0.05652
1196.63388,0.05561
1194.57427,0.05485
1192.51466,0.05415
1190.45505,0.05353
1188.39544,0.05297
1186.33583,0.05255
1184.27622,0.05230
1182.21661,0.05221
1180.15700,0.05223
1178.09739,0.05227
1176.03778,0.05245
1173.97817,0.05293
1171.91855,0.05351
1169.85894,0.05397
1167.79933,0.05424
1165.73972,0.05444
1163.68011,0.05463
1161.62050,0.05471
1159.56089,0.05467
1157.50128,0.05451
1155.44167,0.05419
1153.38206,0.05381
1151.32245,0.05343
1149.26284,0.05297
1147.20322,0.05249
1145.14361,0.05212
1143.08400,0.05188
1141.02439,0.05172
1138.96478,0.05157
1136.90517,0.05143
1134.84556,0.05139
1132.78595,0.05153
1130.72634,0.05176
1128.66673,0.05198
1126.60712,0.05217
1124.54751,0.05228
1122.48790,0.05235
1120.42828,0.05230
1118.36867,0.05195
1116.30906,0.05149
1114.24945,0.05118
1112.18984,0.05101
1110.13023,0.05085
1108.07062,0.05067
1106.01101,0.05048
1103.95140,0.05035
1101.89179,0.05031
1099.83218,0.05025
1097.77257,0.05012
1095.71295,0.05006
1093.65334,0.05019
1091.59373,0.05061
1089.53412,0.05132
1087.47451,0.05222
1085.41490,0.05313
1083.35529,0.05411
1081.29568,0.05523
1079.23607,0.05639
1077.17646,0.05736
1075.11685,0.05812
1073.05724,0.05884
1070.99762,0.05952
1068.93801,0.06002
1066.87840,0.06043
1064.81879,0.06084
1062.75918,0.06129
1060.69957,0.06178
1058.63996,0.06215
1056.58035,0.06225
1054.52074,0.06224
1052.46113,0.06231
1050.40152,0.06240
1048.34191,0.06232
1046.28229,0.06201
1044.22268,0.06142
1042.16307,0.06061
1040.10346,0.05978
1038.04385,0.05901
1035.98424,0.05827
1033.92463,0.05758
1031.86502,0.05701
1029.80541,0.05647
1027.74580,0.05586
1025.68619,0.05510
1023.62658,0.05426
1021.56697,0.05338
1019.50735,0.05249
1017.44774,0.05169
1015.38813,0.05085
1013.32852,0.04993
1011.26891,0.04898
1009.20930,0.04808
1007.14969,0.04730
1005.09008,0.04659
1003.03047,0.04593
1000.97086,0.04537
998.91125,0.04480
996.85164,0.04424
994.79202,0.04373
992.73241,0.04322
990.67280,0.04272
988.61319,0.04224
986.55358,0.04176
984.49397,0.04137
982.43436,0.04119
980.37475,0.04118
978.31514,0.04116
976.25553,0.04114
974.19592,0.04118
972.13631,0.04121
970.07669,0.04128
968.01708,0.04141
965.95747,0.04163
963.89786,0.04195
961.83825,0.04217
959.77864,0.04220
957.71903,0.04210
955.65942,0.04184
953.59981,0.04149
951.54020,0.04124
949.48059,0.04109
947.42098,0.04091
945.36136,0.04071
943.30175,0.04065
941.24214,0.04066
939.18253,0.04062
937.12292,0.04061
935.06331,0.04067
933.00370,0.04072
930.94409,0.04068
928.88448,0.04056
926.82487,0.04047
924.76526,0.04044
922.70565,0.04042
920.64604,0.04032
918.58642,0.04012
916.52681,0.03984
914.46720,0.03957
912.40759,0.03941
910.34798,0.03941
908.28837,0.03952
906.22876,0.03965
904.16915,0.03976
902.10954,0.03988
900.04993,0.04004
897.99032,0.04014
895.93071,0.04013
893.87109,0.04005
891.81148,0.03995
889.75187,0.03980
887.69226,0.03959
885.63265,0.03938
883.57304,0.03925
881.51343,0.03910
879.45382,0.03883
877.39421,0.03853
875.33460,0.03833
873.27499,0.03816
871.21538,0.03800
869.15576,0.03793
867.09615,0.03796
865.03654,0.03797
862.97693,0.03793
860.91732,0.03772
858.85771,0.03750
856.79810,0.03755
854.73849,0.03771
852.67888,0.03768
850.61927,0.03752
848.55966,0.03744
846.50005,0.03741
844.44043,0.03741
842.38082,0.03756
840.32121,0.03783
838.26160,0.03804
836.20199,0.03823
834.14238,0.03858
832.08277,0.03899
830.02316,0.03935
827.96355,0.03961
825.90394,0.03967
823.84433,0.03962
821.78472,0.03960
819.72511,0.03975
817.66549,0.04009
815.60588,0.04053
813.54627,0.04093
811.48666,0.04129
809.42705,0.04164
807.36744,0.04190
805.30783,0.04206
803.24822,0.04210
801.18861,0.04199
799.12900,0.04205
797.06939,0.04251
795.00978,0.04304
792.95016,0.04331
790.89055,0.04349
788.83094,0.04389
786.77133,0.04438
784.71172,0.04475
782.65211,0.04500
780.59250,0.04537
778.53289,0.04595
776.47328,0.04659
774.41367,0.04718
772.35406,0.04757
770.29445,0.04780
768.23483,0.04807
766.17522,0.04852
764.11561,0.04909
762.05600,0.04956
759.99639,0.04979
757.93678,0.04990
755.87717,0.05019
753.81756,0.05082
751.75795,0.05159
749.69834,0.05225
747.63873,0.05273
745.57912,0.05306
743.51950,0.05328
741.45989,0.05353
739.40028,0.05379
737.34067,0.05399
735.28106,0.05421
733.22145,0.05449
731.16184,0.05484
729.10223,0.05536
727.04262,0.05610
724.98301,0.05702
722.92340,0.05793
720.86379,0.05851
718.80418,0.05981
716.74456,0.06053
714.68495,0.06152
712.62534,0.06267
710.56573,0.06394
708.50612,0.06542
706.44651,0.06695
704.38690,0.06839
702.32729,0.06961
700.26768,0.07065
698.20807,0.07157
696.14846,0.07231
694.08885,0.07280
692.02923,0.07325
689.96962,0.07384
687.91001,0.07437
685.85040,0.07478
683.79079,0.07550
681.73118,0.07628
679.67157,0.07662
677.61196,0.07683
675.55235,0.07721
673.49274,0.07725
671.43313,0.08107
669.37352,0.08882
667.31390,0.07313
665.25429,0.07938
663.19468,0.08073
661.13507,0.08068
659.07546,0.08131
657.01585,0.08175
654.95624,0.08190
652.89663,0.08231
650.83702,0.08284
648.77741,0.08270
646.71780,0.08269
644.65819,0.08271
642.59857,0.08307
640.53896,0.08371
638.47935,0.08419
636.41974,0.08436
634.36013,0.08458
632.30052,0.08515
630.24091,0.08593
628.18130,0.08651
626.12169,0.08688
624.06208,0.08753
622.00247,0.08839
619.94286,0.08889
617.88325,0.08914
615.82363,0.08934
613.76402,0.08943
611.70441,0.08951
609.64480,0.08966
607.58519,0.08974
605.52558,0.08986
603.46597,0.09020
601.40636,0.09057
599.34675,0.09080
597.28714,0.09087
595.22753,0.09077
593.16792,0.09072
591.10830,0.09114
589.04869,0.09193
586.98908,0.09259
584.92947,0.09278
582.86986,0.09266
580.81025,0.09295
578.75064,0.09385
576.69103,0.09485
574.63142,0.09558
572.57181,0.09582
570.51220,0.09563
568.45259,0.09535
566.39297,0.09533
564.33336,0.09589
562.27375,0.09690
560.21414,0.09756
558.15453,0.09776
556.09492,0.09820
554.03531,0.09883
551.97570,0.09901
549.91609,0.09882
547.85648,0.09896
545.79687,0.09955
543.73726,0.10005
541.67764,0.10022
539.61803,0.10008
537.55842,0.09976
535.49881,0.09980
533.43920,0.10047
531.37959,0.10129
529.31998,0.10174
527.26037,0.10184
525.20076,0.10184
523.14115,0.10194
521.08154,0.10219
519.02193,0.10226
516.96232,0.10197
514.90270,0.10201
512.84309,0.10250
510.78348,0.10266
508.72387,0.10232
506.66426,0.10187
504.60465,0.10154
502.54504,0.10139
500.48543,0.10133
498.42582,0.10127
496.36621,0.10136
494.30660,0.10153
492.24699,0.10158
490.18737,0.10171
488.12776,0.10207
486.06815,0.10239
484.00854,0.10254
481.94893,0.10265
479.88932,0.10256
477.82971,0.10202
475.77010,0.10137
473.71049,0.10131
471.65088,0.10146
469.59127,0.10137
467.53166,0.10178
465.47204,0.10281
463.41243,0.10335
461.35282,0.10271
459.29321,0.10173
457.23360,0.10170
455.17399,0.10231
453.11438,0.10266
451.05477,0.10277
448.99516,0.10258
446.93555,0.10183
444.87594,0.10095
442.81633,0.10066
440.75671,0.10088
438.69710,0.10116
436.63749,0.10141
434.57788,0.10143
432.51827,0.10113
430.45866,0.10062
428.39905,0.10016
426.33944,0.10037
424.27983,0.10149
422.22022,0.10258
420.16061,0.10239
418.10100,0.10053
416.04138,0.09842
413.98177,0.09748
411.92216,0.09744
409.86255,0.09791
407.80294,0.09853
405.74333,0.09859
403.68372,0.09829
401.62411,0.09804
399.56450,0.09741
