3997.70460,0.01532
3995.64498,0.01532
3993.58537,0.01543
3991.52576,0.01550
3989.46615,0.01547
3987.40654,0.01550
3985.34693,0.01556
3983.28732,0.01553
3981.22771,0.01546
3979.16810,0.01543
3977.10849,0.01539
3975.04888,0.01541
3972.98927,0.01551
3970.92965,0.01560
3968.87004,0.01564
3966.81043,0.01567
3964.75082,0.01563
3962.69121,0.01552
3960.63160,0.01553
3958.57199,0.01552
3956.51238,0.01547
3954.45277,0.01557
3952.39316,0.01564
3950.33355,0.01552
3948.27394,0.01554
3946.21432,0.01579
3944.15471,0.01578
3942.09510,0.01582
3940.03549,0.01599
3937.97588,0.01590
3935.91627,0.01579
3933.85666,0.01558
3931.79705,0.01548
3929.73744,0.01578
3927.67783,0.01595
3925.61822,0.01564
3923.55861,0.01562
3921.49900,0.01572
3919.43938,0.01545
3917.37977,0.01532
3915.32016,0.01566
3913.26055,0.01592
3911.20094,0.01592
3909.14133,0.01613
3907.08172,0.01615
3905.02211,0.01584
3902.96250,0.01587
3900.90289,0.01577
3898.84328,0.01567
3896.78367,0.01621
3894.72405,0.01624
3892.66444,0.01556
3890.60483,0.01576
3888.54522,0.01618
3886.48561,0.01533
3884.42600,0.01528
3882.36639,0.01540
3880.30678,0.01513
3878.24717,0.01593
3876.18756,0.01603
3874.12795,0.01558
3872.06834,0.01546
3870.00872,0.01540
3867.94911,0.01636
3865.88950,0.01615
3863.82989,0.01536
3861.77028,0.01572
3859.71067,0.01648
3857.65106,0.01658
3855.59145,0.01492
3853.53184,0.01344
3851.47223,0.01516
3849.41262,0.01658
3847.35301,0.01640
3845.29339,0.01580
3843.23378,0.01574
3841.17417,0.01589
3839.11456,0.01546
3837.05495,0.01552
3834.99534,0.01601
3832.93573,0.01589
3830.87612,0.01576
3828.81651,0.01564
3826.75690,0.01543
3824.69729,0.01551
3822.63768,0.01455
3820.57807,0.01442
3818.51845,0.01536
3816.45884,0.01476
3814.39923,0.01514
3812.33962,0.01607
3810.28001,0.01584
3808.22040,0.01486
3806.16079,0.01509
3804.10118,0.01554
3802.04157,0.01457
3799.98196,0.01523
3797.92235,0.01584
3795.86274,0.01539
3793.80312,0.01532
3791.74351,0.01516
3789.68390,0.01492
3787.62429,0.01465
3785.56468,0.01446
3783.50507,0.01483
3781.44546,0.01481
3779.38585,0.01433
3777.32624,0.01478
3775.26663,0.01532
3773.20702,0.01512
3771.14741,0.01444
3769.08779,0.01460
3767.02818,0.01510
3764.96857,0.01522
3762.90896,0.01532
3760.84935,0.01471
3758.78974,0.01463
3756.73013,0.01579
3754.67052,0.01632
3752.61091,0.01521
3750.55130,0.01469
3748.49169,0.01605
3746.43208,0.01558
3744.37246,0.01408
3742.31285,0.01527
3740.25324,0.01615
3738.19363,0.01531
3736.13402,0.01406
3734.07441,0.01377
3732.01480,0.01438
3729.95519,0.01522
3727.89558,0.01508
3725.83597,0.01457
3723.77636,0.01455
3721.71675,0.01467
3719.65714,0.01491
3717.59752,0.01520
3715.53791,0.01520
3713.47830,0.01433
3711.41869,0.01381
3709.35908,0.01456
3707.29947,0.01537
3705.23986,0.01530
3703.18025,0.01433
3701.12064,0.01391
3699.06103,0.01433
3697.00142,0.01434
3694.94181,0.01444
3692.88219,0.01460
3690.82258,0.01405
3688.76297,0.01355
3686.70336,0.01425
3684.64375,0.01488
3682.58414,0.01493
3680.52453,0.01501
3678.46492,0.01485
3676.40531,0.01400
3674.34570,0.01470
3672.28609,0.01503
3670.22648,0.01347
3668.16686,0.01380
3666.10725,0.01475
3664.04764,0.01472
3661.98803,0.01466
3659.92842,0.01467
3657.86881,0.01419
3655.80920,0.01451
3653.74959,0.01560
3651.68998,0.01479
3649.63037,0.01367
3647.57076,0.01447
3645.51115,0.01560
3643.45153,0.01556
3641.39192,0.01506
3639.33231,0.01509
3637.27270,0.01536
3635.21309,0.01563
3633.15348,0.01609
3631.09387,0.01560
3629.03426,0.01457
3626.97465,0.01586
3624.91504,0.01713
3622.85543,0.01674
3620.79582,0.01553
3618.73621,0.01531
3616.67659,0.01635
3614.61698,0.01671
3612.55737,0.01675
3610.49776,0.01692
3608.43815,0.01678
3606.37854,0.01703
3604.31893,0.01730
3602.25932,0.01711
3600.19971,0.01711
3598.14010,0.01732
3596.08049,0.01724
3594.02088,0.01743
3591.96126,0.01807
3589.90165,0.01792
3587.84204,0.01733
3585.78243,0.01787
3583.72282,0.01844
3581.66321,0.01825
3579.60360,0.01806
3577.54399,0.01817
3575.48438,0.01841
3573.42477,0.01880
3571.36516,0.01910
3569.30555,0.01885
3567.24593,0.01882
3565.18632,0.01974
3563.12671,0.02017
3561.06710,0.01978
3559.00749,0.01963
3556.94788,0.01997
3554.88827,0.02021
3552.82866,0.02014
3550.76905,0.02040
3548.70944,0.02081
3546.64983,0.02086
3544.59022,0.02083
3542.53060,0.02085
3540.47099,0.02084
3538.41138,0.02077
3536.35177,0.02084
3534.29216,0.02126
3532.23255,0.02164
3530.17294,0.02168
3528.11333,0.02167
3526.05372,0.02187
3523.99411,0.02210
3521.93450,0.02236
3519.87489,0.02247
3517.81528,0.02245
3515.75566,0.02259
3513.69605,0.02282
3511.63644,0.02302
3509.57683,0.02333
3507.51722,0.02383
3505.45761,0.02395
3503.39800,0.02381
3501.33839,0.02407
3499.27878,0.02436
3497.21917,0.02442
3495.15956,0.02452
3493.09995,0.02474
3491.04033,0.02485
3488.98072,0.02484
3486.92111,0.02501
3484.86150,0.02526
3482.80189,0.02527
3480.74228,0.02545
3478.68267,0.02579
3476.62306,0.02576
3474.56345,0.02563
3472.50384,0.02585
3470.44423,0.02630
3468.38462,0.02665
3466.32500,0.02693
3464.26539,0.02712
3462.20578,0.02712
3460.14617,0.02724
3458.08656,0.02755
3456.02695,0.02783
3453.96734,0.02797
3451.90773,0.02816
3449.84812,0.02844
3447.78851,0.02851
3445.72890,0.02865
3443.66929,0.02885
3441.60967,0.02901
3439.55006,0.02920
3437.49045,0.02924
3435.43084,0.02924
3433.37123,0.02932
3431.31162,0.02951
3429.25201,0.02975
3427.19240,0.02997
3425.13279,0.03021
3423.07318,0.03050
3421.01357,0.03079
3418.95396,0.03107
3416.89435,0.03116
3414.83473,0.03114
3412.77512,0.03121
3410.71551,0.03146
3408.65590,0.03175
3406.59629,0.03188
3404.53668,0.03202
3402.47707,0.03220
3400.41746,0.03232
3398.35785,0.03244
3396.29824,0.03266
3394.23863,0.03289
3392.17902,0.03307
3390.11940,0.03329
3388.05979,0.03346
3386.00018,0.03369
3383.94057,0.03398
3381.88096,0.03415
3379.82135,0.03422
3377.76174,0.03446
3375.70213,0.03478
3373.64252,0.03505
3371.58291,0.03526
3369.52330,0.03544
3367.46369,0.03562
3365.40407,0.03585
3363.34446,0.03607
3361.28485,0.03616
3359.22524,0.03627
3357.16563,0.03661
3355.10602,0.03718
3353.04641,0.03759
3350.98680,0.03767
3348.92719,0.03767
3346.86758,0.03783
3344.80797,0.03816
3342.74836,0.03860
3340.68874,0.03909
3338.62913,0.03946
3336.56952,0.03976
3334.50991,0.04004
3332.45030,0.04029
3330.39069,0.04060
3328.33108,0.04105
3326.27147,0.04149
3324.21186,0.04186
3322.15225,0.04224
3320.09264,0.04272
3318.03303,0.04318
3315.97342,0.04344
3313.91380,0.04369
3311.85419,0.04417
3309.79458,0.04464
3307.73497,0.04506
3305.67536,0.04558
3303.61575,0.04609
3301.55614,0.04650
3299.49653,0.04690
3297.43692,0.04741
3295.37731,0.04794
3293.31770,0.04847
3291.25809,0.04902
3289.19847,0.04952
3287.13886,0.04986
3285.07925,0.05010
3283.01964,0.05044
3280.96003,0.05091
3278.90042,0.05132
3276.84081,0.05158
3274.78120,0.05178
3272.72159,0.05195
3270.66198,0.05204
3268.60237,0.05201
3266.54276,0.05190
3264.48314,0.05176
3262.42353,0.05166
3260.36392,0.05158
3258.30431,0.05143
3256.24470,0.05113
3254.18509,0.05081
3252.12548,0.05059
3250.06587,0.05043
3248.00626,0.05024
3245.94665,0.04989
3243.88704,0.04946
3241.82743,0.04919
3239.76781,0.04900
3237.70820,0.04868
3235.64859,0.04834
3233.58898,0.04813
3231.52937,0.04801
3229.46976,0.04788
3227.41015,0.04772
3225.35054,0.04754
3223.29093,0.04736
3221.23132,0.04715
3219.17171,0.04691
3217.11210,0.04664
3215.05248,0.04644
3212.99287,0.04647
3210.93326,0.04646
3208.87365,0.04617
3206.81404,0.04586
3204.75443,0.04571
3202.69482,0.04565
3200.63521,0.04551
3198.57560,0.04528
3196.51599,0.04505
3194.45638,0.04483
3192.39677,0.04465
3190.33716,0.04458
3188.27754,0.04447
3186.21793,0.04417
3184.15832,0.04380
3182.09871,0.04360
3180.03910,0.04347
3177.97949,0.04328
3175.91988,0.04309
3173.86027,0.04287
3171.80066,0.04255
3169.74105,0.04215
3167.68144,0.04183
3165.62183,0.04159
3163.56221,0.04132
3161.50260,0.04100
3159.44299,0.04072
3157.38338,0.04048
3155.32377,0.04022
3153.26416,0.03985
3151.20455,0.03953
3149.14494,0.03942
3147.08533,0.03931
3145.02572,0.03901
3142.96611,0.03865
3140.90650,0.03834
3138.84688,0.03807
3136.78727,0.03781
3134.72766,0.03757
3132.66805,0.03740
3130.60844,0.03727
3128.54883,0.03701
3126.48922,0.03669
3124.42961,0.03648
3122.37000,0.03638
3120.31039,0.03628
3118.25078,0.03617
3116.19117,0.03608
3114.13155,0.03588
3112.07194,0.03559
3110.01233,0.03546
3107.95272,0.03547
3105.89311,0.03547
3103.83350,0.03538
3101.77389,0.03522
3099.71428,0.03518
3097.65467,0.03526
3095.59506,0.03535
3093.53545,0.03541
3091.47584,0.03538
3089.41623,0.03537
3087.35661,0.03540
3085.29700,0.03543
3083.23739,0.03546
3081.17778,0.03548
3079.11817,0.03548
3077.05856,0.03555
3074.99895,0.03567
3072.93934,0.03567
3070.87973,0.03561
3068.82012,0.03567
3066.76051,0.03582
3064.70090,0.03596
3062.64128,0.03593
3060.58167,0.03578
3058.52206,0.03565
3056.46245,0.03560
3054.40284,0.03555
3052.34323,0.03540
3050.28362,0.03525
3048.22401,0.03514
3046.16440,0.03498
3044.10479,0.03480
3042.04518,0.03468
3039.98557,0.03457
3037.92595,0.03440
3035.86634,0.03425
3033.80673,0.03410
3031.74712,0.03375
3029.68751,0.03338
3027.62790,0.03321
3025.56829,0.03318
3023.50868,0.03314
3021.44907,0.03297
3019.38946,0.03270
3017.32985,0.03244
3015.27024,0.03219
3013.21062,0.03201
3011.15101,0.03187
3009.09140,0.03178
3007.03179,0.03168
3004.97218,0.03147
3002.91257,0.03125
3000.85296,0.03110
2998.79335,0.03103
2996.73374,0.03103
2994.67413,0.03113
2992.61452,0.03122
2990.55491,0.03128
2988.49530,0.03142
2986.43568,0.03164
2984.37607,0.03189
2982.31646,0.03220
2980.25685,0.03247
2978.19724,0.03263
2976.13763,0.03277
2974.07802,0.03295
2972.01841,0.03311
2969.95880,0.03324
2967.89919,0.03341
2965.83958,0.03372
2963.77997,0.03405
2961.72035,0.03415
2959.66074,0.03401
2957.60113,0.03381
2955.54152,0.03375
2953.48191,0.03383
2951.42230,0.03388
2949.36269,0.03390
2947.30308,0.03398
2945.24347,0.03411
2943.18386,0.03421
2941.12425,0.03428
2939.06464,0.03442
2937.00502,0.03459
2934.94541,0.03463
2932.88580,0.03465
2930.82619,0.03461
2928.76658,0.03433
2926.70697,0.03381
2924.64736,0.03311
2922.58775,0.03209
2920.52814,0.03065
2918.46853,0.02907
2916.40892,0.02821
2914.34931,0.02886
2912.28969,0.03045
2910.23008,0.03170
2908.17047,0.03217
2906.11086,0.03221
2904.05125,0.03214
2901.99164,0.03208
2899.93203,0.03206
2897.87242,0.03197
2895.81281,0.03181
2893.75320,0.03174
2891.69359,0.03170
2889.63398,0.03166
2887.57437,0.03172
2885.51475,0.03186
2883.45514,0.03203
2881.39553,0.03218
2879.33592,0.03235
2877.27631,0.03252
2875.21670,0.03263
2873.15709,0.03272
2871.09748,0.03277
2869.03787,0.03260
2866.97826,0.03223
2864.91865,0.03188
2862.85904,0.03154
2860.79942,0.03116
2858.73981,0.03076
2856.68020,0.03031
2854.62059,0.02968
2852.56098,0.02867
2850.50137,0.02741
2848.44176,0.02681
2846.38215,0.02756
2844.32254,0.02884
2842.26293,0.02961
2840.20332,0.02982
2838.14371,0.02987
2836.08409,0.02986
2834.02448,0.02973
2831.96487,0.02953
2829.90526,0.02937
2827.84565,0.02929
2825.78604,0.02929
2823.72643,0.02927
2821.66682,0.02914
2819.60721,0.02901
2817.54760,0.02895
2815.48799,0.02887
2813.42838,0.02874
2811.36876,0.02860
2809.30915,0.02845
2807.24954,0.02835
2805.18993,0.02830
2803.13032,0.02822
2801.07071,0.02812
2799.01110,0.02810
2796.95149,0.02812
2794.89188,0.02799
2792.83227,0.02782
2790.77266,0.02780
2788.71305,0.02789
2786.65344,0.02788
2784.59382,0.02772
2782.53421,0.02754
2780.47460,0.02751
2778.41499,0.02759
2776.35538,0.02766
2774.29577,0.02769
2772.23616,0.02759
2770.17655,0.02733
2768.11694,0.02713
2766.05733,0.02707
2763.99772,0.02703
2761.93811,0.02701
2759.87849,0.02709
2757.81888,0.02717
2755.75927,0.02707
2753.69966,0.02688
2751.64005,0.02678
2749.58044,0.02674
2747.52083,0.02671
2745.46122,0.02668
2743.40161,0.02666
2741.34200,0.02661
2739.28239,0.02648
2737.22278,0.02638
2735.16316,0.02637
2733.10355,0.02644
2731.04394,0.02645
2728.98433,0.02637
2726.92472,0.02626
2724.86511,0.02620
2722.80550,0.02613
2720.74589,0.02604
2718.68628,0.02595
2716.62667,0.02585
2714.56706,0.02577
2712.50745,0.02577
2710.44783,0.02580
2708.38822,0.02581
2706.32861,0.02579
2704.26900,0.02572
2702.20939,0.02566
2700.14978,0.02565
2698.09017,0.02563
2696.03056,0.02552
2693.97095,0.02537
2691.91134,0.02528
2689.85173,0.02521
2687.79212,0.02517
2685.73251,0.02517
2683.67289,0.02514
2681.61328,0.02510
2679.55367,0.02509
2677.49406,0.02503
2675.43445,0.02493
2673.37484,0.02490
2671.31523,0.02495
2669.25562,0.02500
2667.19601,0.02503
2665.13640,0.02505
2663.07679,0.02505
2661.01718,0.02502
2658.95756,0.02496
2656.89795,0.02490
2654.83834,0.02483
2652.77873,0.02482
2650.71912,0.02485
2648.65951,0.02476
2646.59990,0.02459
2644.54029,0.02452
2642.48068,0.02463
2640.42107,0.02476
2638.36146,0.02466
2636.30185,0.02445
2634.24223,0.02436
2632.18262,0.02429
2630.12301,0.02415
2628.06340,0.02402
2626.00379,0.02393
2623.94418,0.02389
2621.88457,0.02387
2619.82496,0.02383
2617.76535,0.02371
2615.70574,0.02363
2613.64613,0.02368
2611.58652,0.02373
2609.52690,0.02371
2607.46729,0.02363
2605.40768,0.02355
2603.34807,0.02352
2601.28846,0.02346
2599.22885,0.02337
2597.16924,0.02340
2595.10963,0.02339
2593.05002,0.02323
2590.99041,0.02309
2588.93080,0.02314
2586.87119,0.02322
2584.81158,0.02315
2582.75196,0.02301
2580.69235,0.02286
2578.63274,0.02273
2576.57313,0.02271
2574.51352,0.02276
2572.45391,0.02282
2570.39430,0.02287
2568.33469,0.02276
2566.27508,0.02261
2564.21547,0.02267
2562.15586,0.02277
2560.09625,0.02267
2558.03663,0.02240
2555.97702,0.02215
2553.91741,0.02201
2551.85780,0.02205
2549.79819,0.02212
2547.73858,0.02205
2545.67897,0.02200
2543.61936,0.02210
2541.55975,0.02228
2539.50014,0.02238
2537.44053,0.02235
2535.38092,0.02229
2533.32130,0.02221
2531.26169,0.02215
2529.20208,0.02217
2527.14247,0.02210
2525.08286,0.02199
2523.02325,0.02206
2520.96364,0.02211
2518.90403,0.02204
2516.84442,0.02198
2514.78481,0.02191
2512.72520,0.02187
2510.66559,0.02184
2508.60597,0.02175
2506.54636,0.02166
2504.48675,0.02168
2502.42714,0.02176
2500.36753,0.02179
2498.30792,0.02177
2496.24831,0.02174
2494.18870,0.02169
2492.12909,0.02163
2490.06948,0.02166
2488.00987,0.02163
2485.95026,0.02153
2483.89065,0.02154
2481.83103,0.02158
2479.77142,0.02149
2477.71181,0.02147
2475.65220,0.02158
2473.59259,0.02157
2471.53298,0.02144
2469.47337,0.02133
2467.41376,0.02128
2465.35415,0.02129
2463.29454,0.02121
2461.23493,0.02117
2459.17532,0.02132
2457.11570,0.02154
2455.05609,0.02166
2452.99648,0.02156
2450.93687,0.02135
2448.87726,0.02117
2446.81765,0.02116
2444.75804,0.02139
2442.69843,0.02157
2440.63882,0.02146
2438.57921,0.02128
2436.51960,0.02122
2434.45999,0.02125
2432.40037,0.02129
2430.34076,0.02132
2428.28115,0.02133
2426.22154,0.02122
2424.16193,0.02106
2422.10232,0.02103
2420.04271,0.02109
2417.98310,0.02107
2415.92349,0.02092
2413.86388,0.02078
2411.80427,0.02076
2409.74466,0.02089
2407.68504,0.02104
2405.62543,0.02100
2403.56582,0.02091
2401.50621,0.02096
2399.44660,0.02095
2397.38699,0.02095
2395.32738,0.02102
2393.26777,0.02112
2391.20816,0.02118
2389.14855,0.02121
2387.08894,0.02127
2385.02933,0.02137
2382.96972,0.02152
2380.91010,0.02177
2378.85049,0.02202
2376.79088,0.02201
2374.73127,0.02171
2372.67166,0.02154
2370.61205,0.02174
2368.55244,0.02213
2366.49283,0.02253
2364.43322,0.02299
2362.37361,0.02343
2360.31400,0.02373
2358.25439,0.02374
2356.19477,0.02347
2354.13516,0.02310
2352.07555,0.02274
2350.01594,0.02247
2347.95633,0.02244
2345.89672,0.02253
2343.83711,0.02253
2341.77750,0.02252
2339.71789,0.02258
2337.65828,0.02252
2335.59867,0.02231
2333.53906,0.02223
2331.47944,0.02239
2329.41983,0.02262
2327.36022,0.02275
2325.30061,0.02283
2323.24100,0.02286
2321.18139,0.02273
2319.12178,0.02248
2317.06217,0.02230
2315.00256,0.02221
2312.94295,0.02209
2310.88334,0.02188
2308.82373,0.02171
2306.76411,0.02161
2304.70450,0.02154
2302.64489,0.02151
2300.58528,0.02140
2298.52567,0.02114
2296.46606,0.02083
2294.40645,0.02061
2292.34684,0.02070
2290.28723,0.02095
2288.22762,0.02090
2286.16801,0.02056
2284.10840,0.02035
2282.04878,0.02022
2279.98917,0.01996
2277.92956,0.01970
2275.86995,0.01971
2273.81034,0.01987
2271.75073,0.01971
2269.69112,0.01942
2267.63151,0.01942
2265.57190,0.01952
2263.51229,0.01940
2261.45268,0.01920
2259.39307,0.01908
2257.33346,0.01897
2255.27384,0.01885
2253.21423,0.01882
2251.15462,0.01874
2249.09501,0.01856
2247.03540,0.01861
2244.97579,0.01869
2242.91618,0.01855
2240.85657,0.01852
2238.79696,0.01870
2236.73735,0.01876
2234.67774,0.01859
2232.61813,0.01852
2230.55851,0.01863
2228.49890,0.01873
2226.43929,0.01878
2224.37968,0.01878
2222.32007,0.01869
2220.26046,0.01842
2218.20085,0.01801
2216.14124,0.01775
2214.08163,0.01772
2212.02202,0.01775
2209.96241,0.01771
2207.90280,0.01749
2205.84318,0.01714
2203.78357,0.01689
2201.72396,0.01693
2199.66435,0.01714
2197.60474,0.01721
2195.54513,0.01688
2193.48552,0.01647
2191.42591,0.01653
2189.36630,0.01697
2187.30669,0.01705
2185.24708,0.01652
2183.18747,0.01600
2181.12785,0.01570
2179.06824,0.01559
2177.00863,0.01571
2174.94902,0.01575
2172.88941,0.01582
2170.82980,0.01623
2168.77019,0.01649
2166.71058,0.01618
2164.65097,0.01575
2162.59136,0.01540
2160.53175,0.01462
2158.47214,0.01391
2156.41253,0.01444
2154.35291,0.01546
2152.29330,0.01602
2150.23369,0.01644
2148.17408,0.01665
2146.11447,0.01644
2144.05486,0.01610
2141.99525,0.01574
2139.93564,0.01582
2137.87603,0.01646
2135.81642,0.01666
2133.75681,0.01607
2131.69720,0.01583
2129.63758,0.01634
2127.57797,0.01685
2125.51836,0.01706
2123.45875,0.01723
2121.39914,0.01760
2119.33953,0.01803
2117.27992,0.01815
2115.22031,0.01806
2113.16070,0.01795
2111.10109,0.01786
2109.04148,0.01781
2106.98187,0.01795
2104.92225,0.01815
2102.86264,0.01809
2100.80303,0.01777
2098.74342,0.01750
2096.68381,0.01725
2094.62420,0.01705
2092.56459,0.01717
2090.50498,0.01758
2088.44537,0.01800
2086.38576,0.01808
2084.32615,0.01787
2082.26654,0.01761
2080.20692,0.01748
2078.14731,0.01748
2076.08770,0.01738
2074.02809,0.01718
2071.96848,0.01707
2069.90887,0.01714
2067.84926,0.01715
2065.78965,0.01674
2063.73004,0.01637
2061.67043,0.01637
2059.61082,0.01648
2057.55121,0.01644
2055.49160,0.01625
2053.43198,0.01633
2051.37237,0.01677
2049.31276,0.01678
2047.25315,0.01621
2045.19354,0.01594
2043.13393,0.01586
2041.07432,0.01553
2039.01471,0.01521
2036.95510,0.01479
2034.89549,0.01413
2032.83588,0.01379
2030.77627,0.01405
2028.71665,0.01450
2026.65704,0.01473
2024.59743,0.01466
2022.53782,0.01440
2020.47821,0.01437
2018.41860,0.01453
2016.35899,0.01449
2014.29938,0.01458
2012.23977,0.01505
2010.18016,0.01531
2008.12055,0.01509
2006.06094,0.01495
2004.00132,0.01491
2001.94171,0.01454
1999.88210,0.01399
1997.82249,0.01390
1995.76288,0.01439
1993.70327,0.01471
1991.64366,0.01487
1989.58405,0.01513
1987.52444,0.01524
1985.46483,0.01528
1983.40522,0.01486
1981.34561,0.01409
1979.28599,0.01344
1977.22638,0.01296
1975.16677,0.01301
1973.10716,0.01354
1971.04755,0.01378
1968.98794,0.01355
1966.92833,0.01356
1964.86872,0.01383
1962.80911,0.01374
1960.74950,0.01369
1958.68989,0.01394
1956.63028,0.01417
1954.57067,0.01436
1952.51105,0.01460
1950.45144,0.01486
1948.39183,0.01504
1946.33222,0.01512
1944.27261,0.01495
1942.21300,0.01482
1940.15339,0.01512
1938.09378,0.01529
1936.03417,0.01519
1933.97456,0.01493
1931.91495,0.01474
1929.85534,0.01475
1927.79572,0.01499
1925.73611,0.01528
1923.67650,0.01539
1921.61689,0.01585
1919.55728,0.01583
1917.49767,0.01535
1915.43806,0.01552
1913.37845,0.01564
1911.31884,0.01549
1909.25923,0.01534
1907.19962,0.01539
1905.14001,0.01537
1903.08039,0.01517
1901.02078,0.01503
1898.96117,0.01511
1896.90156,0.01528
1894.84195,0.01555
1892.78234,0.01588
1890.72273,0.01575
1888.66312,0.01571
1886.60351,0.01580
1884.54390,0.01540
1882.48429,0.01507
1880.42468,0.01502
1878.36506,0.01510
1876.30545,0.01519
1874.24584,0.01536
1872.18623,0.01549
1870.12662,0.01519
1868.06701,0.01508
1866.00740,0.01536
1863.94779,0.01525
1861.88818,0.01494
1859.82857,0.01480
1857.76896,0.01476
1855.70935,0.01480
1853.64974,0.01496
1851.59012,0.01507
1849.53051,0.01506
1847.47090,0.01498
1845.41129,0.01454
1843.35168,0.01452
1841.29207,0.01518
1839.23246,0.01508
1837.17285,0.01466
1835.11324,0.01473
1833.05363,0.01486
1830.99402,0.01443
1828.93441,0.01446
1826.87479,0.01468
1824.81518,0.01435
1822.75557,0.01442
1820.69596,0.01445
1818.63635,0.01415
1816.57674,0.01401
1814.51713,0.01410
1812.45752,0.01397
1810.39791,0.01390
1808.33830,0.01417
1806.27869,0.01436
1804.21908,0.01428
1802.15946,0.01402
1800.09985,0.01404
1798.04024,0.01446
1795.98063,0.01459
1793.92102,0.01387
1791.86141,0.01336
1789.80180,0.01397
1787.74219,0.01412
1785.68258,0.01356
1783.62297,0.01337
1781.56336,0.01324
1779.50375,0.01332
1777.44413,0.01377
1775.38452,0.01365
1773.32491,0.01278
1771.26530,0.01273
1769.20569,0.01333
1767.14608,0.01354
1765.08647,0.01353
1763.02686,0.01285
1760.96725,0.01268
1758.90764,0.01293
1756.84803,0.01288
1754.78842,0.01340
1752.72881,0.01324
1750.66919,0.01257
1748.60958,0.01285
1746.54997,0.01339
1744.49036,0.01333
1742.43075,0.01290
1740.37114,0.01272
1738.31153,0.01350
1736.25192,0.01322
1734.19231,0.01168
1732.13270,0.01221
1730.07309,0.01264
1728.01348,0.01237
1725.95386,0.01214
1723.89425,0.01219
1721.83464,0.01272
1719.77503,0.01220
1717.71542,0.01129
1715.65581,0.01225
1713.59620,0.01365
1711.53659,0.01443
1709.47698,0.01481
1707.41737,0.01525
1705.35776,0.01676
1703.29815,0.01904
1701.23853,0.02041
1699.17892,0.02358
1697.11931,0.02697
1695.05970,0.02950
1693.00009,0.03240
1690.94048,0.03410
1688.88087,0.03593
1686.82126,0.03751
1684.76165,0.03848
1682.70204,0.04252
1680.64243,0.04666
1678.58282,0.04863
1676.52320,0.04990
1674.46359,0.05257
1672.40398,0.05576
1670.34437,0.05766
1668.28476,0.06089
1666.22515,0.06446
1664.16554,0.06629
1662.10593,0.06867
1660.04632,0.07250
1657.98671,0.07560
1655.92710,0.07635
1653.86749,0.07638
1651.80788,0.08131
1649.74826,0.08535
1647.68865,0.08480
1645.62904,0.08562
1643.56943,0.08811
1641.50982,0.08938
1639.45021,0.08966
1637.39060,0.08886
1635.33099,0.08889
1633.27138,0.09113
1631.21177,0.09197
1629.15216,0.09124
1627.09255,0.09114
1625.03293,0.09117
1622.97332,0.09124
1620.91371,0.09224
1618.85410,0.09168
1616.79449,0.09022
1614.73488,0.09082
1612.67527,0.09114
1610.61566,0.08994
1608.55605,0.08850
1606.49644,0.08733
1604.43683,0.08589
1602.37722,0.08400
1600.31760,0.08196
1598.25799,0.07972
1596.19838,0.07716
1594.13877,0.07458
1592.07916,0.07214
1590.01955,0.06964
1587.95994,0.06715
1585.90033,0.06488
1583.84072,0.06299
1581.78111,0.06170
1579.72150,0.06058
1577.66189,0.05861
1575.60227,0.05774
1573.54266,0.05901
1571.48305,0.05870
1569.42344,0.05793
1567.36383,0.05916
1565.30422,0.06070
1563.24461,0.06218
1561.18500,0.06188
1559.12539,0.06164
1557.06578,0.06662
1555.00617,0.07036
1552.94656,0.07202
1550.88695,0.07365
1548.82733,0.07598
1546.76772,0.07841
1544.70811,0.08019
1542.64850,0.08181
1540.58889,0.08338
1538.52928,0.08737
1536.46967,0.09047
1534.41006,0.09028
1532.35045,0.09104
1530.29084,0.09308
1528.23123,0.09385
1526.17162,0.09478
1524.11200,0.09603
1522.05239,0.09673
1519.99278,0.09877
1517.93317,0.10044
1515.87356,0.10141
1513.81395,0.10269
1511.75434,0.10334
1509.69473,0.10243
1507.63512,0.09957
1505.57551,0.09892
1503.51590,0.09983
1501.45629,0.09851
1499.39667,0.09546
1497.33706,0.09240
1495.27745,0.09073
1493.21784,0.08925
1491.15823,0.08572
1489.09862,0.08166
1487.03901,0.07874
1484.97940,0.07635
1482.91979,0.07375
1480.86018,0.07146
1478.80057,0.06989
1476.74096,0.06828
1474.68134,0.06638
1472.62173,0.06506
1470.56212,0.06572
1468.50251,0.06608
1466.44290,0.06473
1464.38329,0.06420
1462.32368,0.06549
1460.26407,0.06578
1458.20446,0.06491
1456.14485,0.06632
1454.08524,0.06883
1452.02563,0.06936
1449.96602,0.06870
1447.90640,0.06815
1445.84679,0.06827
1443.78718,0.06821
1441.72757,0.06776
1439.66796,0.06680
1437.60835,0.06491
1435.54874,0.06420
1433.48913,0.06445
1431.42952,0.06352
1429.36991,0.06262
1427.31030,0.06254
1425.25069,0.06241
1423.19107,0.06266
1421.13146,0.06266
1419.07185,0.06229
1417.01224,0.06334
1414.95263,0.06435
1412.89302,0.06444
1410.83341,0.06451
1408.77380,0.06485
1406.71419,0.06488
1404.65458,0.06494
1402.59497,0.06537
1400.53536,0.06512
1398.47574,0.06472
1396.41613,0.06462
1394.35652,0.06470
1392.29691,0.06547
1390.23730,0.06578
1388.17769,0.06541
1386.11808,0.06560
1384.05847,0.06605
1381.99886,0.06598
1379.93925,0.06578
1377.87964,0.06563
1375.82003,0.06527
1373.76041,0.06511
1371.70080,0.06542
1369.64119,0.06527
1367.58158,0.06495
1365.52197,0.06446
1363.46236,0.06343
1361.40275,0.06283
1359.34314,0.06262
1357.28353,0.06208
1355.22392,0.06151
1353.16431,0.06126
1351.10470,0.06107
1349.04508,0.06082
1346.98547,0.06070
1344.92586,0.06086
1342.86625,0.06110
1340.80664,0.06104
1338.74703,0.06115
1336.68742,0.06165
1334.62781,0.06193
1332.56820,0.06187
1330.50859,0.06167
1328.44898,0.06144
1326.38937,0.06131
1324.32976,0.06132
1322.27014,0.06133
1320.21053,0.06119
1318.15092,0.06117
1316.09131,0.06129
1314.03170,0.06117
1311.97209,0.06096
1309.91248,0.06080
1307.85287,0.06068
1305.79326,0.06062
1303.73365,0.06049
1301.67404,0.06031
1299.61443,0.06012
1297.55481,0.05988
1295.49520,0.05966
1293.43559,0.05951
1291.37598,0.05938
1289.31637,0.05923
1287.25676,0.05911
1285.19715,0.05908
1283.13754,0.05907
1281.07793,0.05909
1279.01832,0.05914
1276.95871,0.05917
1274.89910,0.05919
1272.83948,0.05920
1270.77987,0.05936
1268.72026,0.05971
1266.66065,0.06009
1264.60104,0.06045
1262.54143,0.06077
1260.48182,0.06113
1258.42221,0.06169
1256.36260,0.06233
1254.30299,0.06298
1252.24338,0.06368
1250.18377,0.06439
1248.12415,0.06504
1246.06454,0.06566
1244.00493,0.06627
1241.94532,0.06691
1239.88571,0.06761
1237.82610,0.06827
1235.76649,0.06879
1233.70688,0.06910
1231.64727,0.06919
1229.58766,0.06910
1227.52805,0.06896
1225.46844,0.06874
1223.40883,0.06836
1221.34921,0.06787
1219.28960,0.06733
1217.22999,0.06669
1215.17038,0.06591
1213.11077,0.06510
1211.05116,0.06429
1208.99155,0.06333
1206.93194,0.06218
1204.87233,0.06097
1202.81272,0.05989
1200.75311,0.05886
1198.69350,0.05781
1196.63388,0.05688
1194.57427,0.05607
1192.51466,0.05528
1190.45505,0.05456
1188.39544,0.05401
1186.33583,0.05370
1184.27622,0.05354
1182.21661,0.05340
1180.15700,0.05333
1178.09739,0.05340
1176.03778,0.05370
1173.97817,0.05428
1171.91855,0.05488
1169.85894,0.05531
1167.79933,0.05562
1165.73972,0.05587
1163.68011,0.05607
1161.62050,0.05611
1159.56089,0.05603
1157.50128,0.05586
1155.44167,0.05556
1153.38206,0.05522
1151.32245,0.05485
1149.26284,0.05436
1147.20322,0.05388
1145.14361,0.05353
1143.08400,0.05325
1141.02439,0.05304
1138.96478,0.05295
1136.90517,0.05296
1134.84556,0.05302
1132.78595,0.05319
1130.72634,0.05351
1128.66673,0.05383
1126.60712,0.05404
1124.54751,0.05405
1122.48790,0.05393
1120.42828,0.05380
1118.36867,0.05360
1116.30906,0.05329
1114.24945,0.05297
1112.18984,0.05279
1110.13023,0.05267
1108.07062,0.05247
1106.01101,0.05224
1103.95140,0.05210
1101.89179,0.05205
1099.83218,0.05200
1097.77257,0.05193
1095.71295,0.05189
1093.65334,0.05198
1091.59373,0.05231
1089.53412,0.05280
1087.47451,0.05353
1085.41490,0.05453
1083.35529,0.05561
1081.29568,0.05666
1079.23607,0.05775
1077.17646,0.05877
1075.11685,0.05960
1073.05724,0.06033
1070.99762,0.06101
1068.93801,0.06162
1066.87840,0.06215
1064.81879,0.06264
1062.75918,0.06317
1060.69957,0.06369
1058.63996,0.06399
1056.58035,0.06413
1054.52074,0.06424
1052.46113,0.06433
1050.40152,0.06432
1048.34191,0.06429
1046.28229,0.06415
1044.22268,0.06369
1042.16307,0.06293
1040.10346,0.06201
1038.04385,0.06115
1035.98424,0.06036
1033.92463,0.05963
1031.86502,0.05907
1029.80541,0.05864
1027.74580,0.05812
1025.68619,0.05737
1023.62658,0.05644
1021.56697,0.05547
1019.50735,0.05449
1017.44774,0.05355
1015.38813,0.05266
1013.32852,0.05182
1011.26891,0.05096
1009.20930,0.05005
1007.14969,0.04923
1005.09008,0.04853
1003.03047,0.04785
1000.97086,0.04725
998.91125,0.04673
996.85164,0.04621
994.79202,0.04564
992.73241,0.04514
990.67280,0.04473
988.61319,0.04432
986.55358,0.04392
984.49397,0.04359
982.43436,0.04331
980.37475,0.04316
978.31514,0.04310
976.25553,0.04306
974.19592,0.04297
972.13631,0.04287
970.07669,0.04296
968.01708,0.04324
965.95747,0.04356
963.89786,0.04381
961.83825,0.04389
959.77864,0.04383
957.71903,0.04372
955.65942,0.04349
953.59981,0.04315
951.54020,0.04285
949.48059,0.04267
947.42098,0.04253
945.36136,0.04231
943.30175,0.04210
941.24214,0.04203
939.18253,0.04206
937.12292,0.04209
935.06331,0.04206
933.00370,0.04204
930.94409,0.04202
928.88448,0.04197
926.82487,0.04200
924.76526,0.04209
922.70565,0.04205
920.64604,0.04181
918.58642,0.04147
916.52681,0.04115
914.46720,0.04093
912.40759,0.04087
910.34798,0.04097
908.28837,0.04108
906.22876,0.04110
904.16915,0.04122
902.10954,0.04148
900.04993,0.04166
897.99032,0.04173
895.93071,0.04181
893.87109,0.04182
891.81148,0.04165
889.75187,0.04139
887.69226,0.04109
885.63265,0.04082
883.57304,0.04065
881.51343,0.04053
879.45382,0.04036
877.39421,0.04017
875.33460,0.03999
873.27499,0.03985
871.21538,0.03973
869.15576,0.03960
867.09615,0.03948
865.03654,0.03936
862.97693,0.03925
860.91732,0.03910
858.85771,0.03885
856.79810,0.03868
854.73849,0.03872
852.67888,0.03884
850.61927,0.03888
848.55966,0.03889
846.50005,0.03886
844.44043,0.03875
842.38082,0.03867
840.32121,0.03874
838.26160,0.03900
836.20199,0.03937
834.14238,0.03962
832.08277,0.03981
830.02316,0.04018
827.96355,0.04059
825.90394,0.04087
823.84433,0.04100
821.78472,0.04090
819.72511,0.04089
817.66549,0.04123
815.60588,0.04168
813.54627,0.04205
811.48666,0.04233
809.42705,0.04252
807.36744,0.04271
805.30783,0.04302
803.24822,0.04328
801.18861,0.04334
799.12900,0.04336
797.06939,0.04357
795.00978,0.04394
792.95016,0.04428
790.89055,0.04462
788.83094,0.04506
786.77133,0.04550
784.71172,0.04581
782.65211,0.04614
780.59250,0.04661
778.53289,0.04719
776.47328,0.04784
774.41367,0.04843
772.35406,0.04890
770.29445,0.04924
768.23483,0.04950
766.17522,0.04987
764.11561,0.05046
762.05600,0.05098
759.99639,0.05119
757.93678,0.05127
755.87717,0.05157
753.81756,0.05212
751.75795,0.05284
749.69834,0.05352
747.63873,0.05391
745.57912,0.05411
743.51950,0.05441
741.45989,0.05485
739.40028,0.05517
737.34067,0.05532
735.28106,0.05552
733.22145,0.05589
731.16184,0.05629
729.10223,0.05689
727.04262,0.05765
724.98301,0.05829
722.92340,0.05912
720.86379,0.06035
718.80418,0.06161
716.74456,0.06268
714.68495,0.06365
712.62534,0.06464
710.56573,0.06586
708.50612,0.06736
706.44651,0.06903
704.38690,0.07068
702.32729,0.07212
700.26768,0.07323
698.20807,0.07408
696.14846,0.07471
694.08885,0.07519
692.02923,0.07561
689.96962,0.07596
687.91001,0.07627
685.85040,0.07675
683.79079,0.07741
681.73118,0.07814
679.67157,0.07877
677.61196,0.07910
675.55235,0.07935
673.49274,0.07990
671.43313,0.08061
669.37352,0.08120
667.31390,0.08164
665.25429,0.08192
663.19468,0.08232
661.13507,0.08278
659.07546,0.08315
657.01585,0.08341
654.95624,0.08366
652.89663,0.08418
650.83702,0.08498
648.77741,0.08551
646.71780,0.08566
644.65819,0.08595
642.59857,0.08655
640.53896,0.08715
638.47935,0.08749
636.41974,0.08768
634.36013,0.08802
632.30052,0.08858
630.24091,0.08933
628.18130,0.09009
626.12169,0.09075
624.06208,0.09139
622.00247,0.09177
619.94286,0.09210
617.88325,0.09258
615.82363,0.09289
613.76402,0.09302
611.70441,0.09316
609.64480,0.09339
607.58519,0.09354
605.52558,0.09350
603.46597,0.09351
601.40636,0.09365
599.34675,0.09384
597.28714,0.09402
595.22753,0.09409
593.16792,0.09411
591.10830,0.09445
589.04869,0.09500
586.98908,0.09534
584.92947,0.09568
582.86986,0.09603
580.81025,0.09648
578.75064,0.09716
576.69103,0.09776
574.63142,0.09830
572.57181,0.09854
570.51220,0.09857
568.45259,0.09872
566.39297,0.09883
564.33336,0.09897
562.27375,0.09952
560.21414,0.10025
558.15453,0.10096
556.09492,0.10174
554.03531,0.10207
551.97570,0.10178
549.91609,0.10183
547.85648,0.10266
545.79687,0.10372
543.73726,0.10439
541.67764,0.10435
539.61803,0.10393
537.55842,0.10349
535.49881,0.10324
533.43920,0.10346
531.37959,0.10408
529.31998,0.10470
527.26037,0.10477
525.20076,0.10482
523.14115,0.10538
521.08154,0.10587
519.02193,0.10601
516.96232,0.10587
514.90270,0.10570
512.84309,0.10563
510.78348,0.10578
508.72387,0.10593
506.66426,0.10591
504.60465,0.10560
502.54504,0.10504
500.48543,0.10489
498.42582,0.10486
496.36621,0.10495
494.30660,0.10521
492.24699,0.10533
490.18737,0.10541
488.12776,0.10513
486.06815,0.10433
484.00854,0.10391
481.94893,0.10434
479.88932,0.10473
477.82971,0.10470
475.77010,0.10488
473.71049,0.10517
471.65088,0.10531
469.59127,0.10523
467.53166,0.10523
465.47204,0.10575
463.41243,0.10609
461.35282,0.10581
459.29321,0.10511
457.23360,0.10525
455.17399,0.10599
453.11438,0.10601
451.05477,0.10611
448.99516,0.10594
446.93555,0.10499
444.87594,0.10393
442.81633,0.10362
440.75671,0.10407
438.69710,0.10388
436.63749,0.10299
434.57788,0.10231
432.51827,0.10146
430.45866,0.10066
428.39905,0.10086
426.33944,0.10177
424.27983,0.10295
422.22022,0.10341
420.16061,0.10130
418.10100,0.09846
416.04138,0.09767
413.98177,0.09817
411.92216,0.09919
409.86255,0.09948
407.80294,0.09867
405.74333,0.09783
403.68372,0.09759
401.62411,0.09656
399.56450,0.09372
