3997.70460,0.01724
3995.64498,0.01729
3993.58537,0.01715
3991.52576,0.01710
3989.46615,0.01713
3987.40654,0.01715
3985.34693,0.01730
3983.28732,0.01739
3981.22771,0.01717
3979.16810,0.01697
3977.10849,0.01710
3975.04888,0.01724
3972.98927,0.01714
3970.92965,0.01703
3968.87004,0.01700
3966.81043,0.01694
3964.75082,0.01693
3962.69121,0.01708
3960.63160,0.01710
3958.57199,0.01701
3956.51238,0.01698
3954.45277,0.01700
3952.39316,0.01712
3950.33355,0.01725
3948.27394,0.01710
3946.21432,0.01683
3944.15471,0.01707
3942.09510,0.01733
3940.03549,0.01722
3937.97588,0.01710
3935.91627,0.01699
3933.85666,0.01714
3931.79705,0.01719
3929.73744,0.01679
3927.67783,0.01664
3925.61822,0.01707
3923.55861,0.01714
3921.49900,0.01699
3919.43938,0.01722
3917.37977,0.01729
3915.32016,0.01676
3913.26055,0.01629
3911.20094,0.01620
3909.14133,0.01609
3907.08172,0.01632
3905.02211,0.01688
3902.96250,0.01694
3900.90289,0.01698
3898.84328,0.01687
3896.78367,0.01601
3894.72405,0.01583
3892.66444,0.01672
3890.60483,0.01674
3888.54522,0.01613
3886.48561,0.01661
3884.42600,0.01648
3882.36639,0.01637
3880.30678,0.01666
3878.24717,0.01585
3876.18756,0.01579
3874.12795,0.01633
3872.06834,0.01654
3870.00872,0.01663
3867.94911,0.01567
3865.88950,0.01594
3863.82989,0.01686
3861.77028,0.01647
3859.71067,0.01543
3857.65106,0.01504
3855.59145,0.01657
3853.53184,0.01817
3851.47223,0.01684
3849.41262,0.01565
3847.35301,0.01576
3845.29339,0.01620
3843.23378,0.01623
3841.17417,0.01620
3839.11456,0.01664
3837.05495,0.01634
3834.99534,0.01565
3832.93573,0.01574
3830.87612,0.01586
3828.81651,0.01591
3826.75690,0.01595
3824.69729,0.01559
3822.63768,0.01634
3820.57807,0.01658
3818.51845,0.01591
3816.45884,0.01658
3814.39923,0.01613
3812.33962,0.01518
3810.28001,0.01528
3808.22040,0.01602
3806.16079,0.01576
3804.10118,0.01542
3802.04157,0.01640
3799.98196,0.01589
3797.92235,0.01559
3795.86274,0.01616
3793.80312,0.01604
3791.74351,0.01592
3789.68390,0.01590
3787.62429,0.01591
3785.56468,0.01597
3783.50507,0.01569
3781.44546,0.01570
3779.38585,0.01608
3777.32624,0.01593
3775.26663,0.01585
3773.20702,0.01604
3771.14741,0.01643
3769.08779,0.01620
3767.02818,0.01572
3764.96857,0.01542
3762.90896,0.01506
3760.84935,0.01555
3758.78974,0.01577
3756.73013,0.01505
3754.67052,0.01493
3752.61091,0.01601
3750.55130,0.01611
3748.49169,0.01446
3746.43208,0.01474
3744.37246,0.01592
3742.31285,0.01445
3740.25324,0.01352
3738.19363,0.01447
3736.13402,0.01585
3734.07441,0.01611
3732.01480,0.01548
3729.95519,0.01469
3727.89558,0.01482
3725.83597,0.01520
3723.77636,0.01524
3721.71675,0.01534
3719.65714,0.01525
3717.59752,0.01490
3715.53791,0.01481
3713.47830,0.01582
3711.41869,0.01668
3709.35908,0.01596
3707.29947,0.01500
3705.23986,0.01507
3703.18025,0.01600
3701.12064,0.01621
3699.06103,0.01548
3697.00142,0.01510
3694.94181,0.01492
3692.88219,0.01524
3690.82258,0.01635
3688.76297,0.01689
3686.70336,0.01599
3684.64375,0.01538
3682.58414,0.01543
3680.52453,0.01534
3678.46492,0.01567
3676.40531,0.01687
3674.34570,0.01595
3672.28609,0.01493
3670.22648,0.01634
3668.16686,0.01654
3666.10725,0.01613
3664.04764,0.01654
3661.98803,0.01684
3659.92842,0.01682
3657.86881,0.01723
3655.80920,0.01714
3653.74959,0.01637
3651.68998,0.01736
3649.63037,0.01896
3647.57076,0.01886
3645.51115,0.01810
3643.45153,0.01825
3641.39192,0.01890
3639.33231,0.01917
3637.27270,0.01921
3635.21309,0.01925
3633.15348,0.01917
3631.09387,0.02009
3629.03426,0.02168
3626.97465,0.02101
3624.91504,0.02012
3622.85543,0.02059
3620.79582,0.02179
3618.73621,0.02218
3616.67659,0.02167
3614.61698,0.02218
3612.55737,0.02307
3610.49776,0.02363
3608.43815,0.02423
3606.37854,0.02414
3604.31893,0.02403
3602.25932,0.02464
3600.19971,0.02514
3598.14010,0.02526
3596.08049,0.02563
3594.02088,0.02591
3591.96126,0.02593
3589.90165,0.02683
3587.84204,0.02832
3585.78243,0.02846
3583.72282,0.02813
3581.66321,0.02856
3579.60360,0.02929
3577.54399,0.02988
3575.48438,0.03028
3573.42477,0.03028
3571.36516,0.03023
3569.30555,0.03098
3567.24593,0.03204
3565.18632,0.03215
3563.12671,0.03227
3561.06710,0.03302
3559.00749,0.03370
3556.94788,0.03413
3554.88827,0.03462
3552.82866,0.03506
3550.76905,0.03512
3548.70944,0.03539
3546.64983,0.03616
3544.59022,0.03672
3542.53060,0.03704
3540.47099,0.03751
3538.41138,0.03819
3536.35177,0.03879
3534.29216,0.03911
3532.23255,0.03950
3530.17294,0.04007
3528.11333,0.04059
3526.05372,0.04103
3523.99411,0.04151
3521.93450,0.04177
3519.87489,0.04201
3517.81528,0.04260
3515.75566,0.04335
3513.69605,0.04403
3511.63644,0.04466
3509.57683,0.04506
3507.51722,0.04513
3505.45761,0.04560
3503.39800,0.04634
3501.33839,0.04656
3499.27878,0.04684
3497.21917,0.04752
3495.15956,0.04805
3493.09995,0.04838
3491.04033,0.04885
3488.98072,0.04942
3486.92111,0.04979
3484.86150,0.05025
3482.80189,0.05111
3480.74228,0.05164
3478.68267,0.05175
3476.62306,0.05217
3474.56345,0.05274
3472.50384,0.05311
3470.44423,0.05345
3468.38462,0.05388
3466.32500,0.05426
3464.26539,0.05467
3462.20578,0.05513
3460.14617,0.05549
3458.08656,0.05595
3456.02695,0.05648
3453.96734,0.05685
3451.90773,0.05717
3449.84812,0.05767
3447.78851,0.05836
3445.72890,0.05873
3443.66929,0.05911
3441.60967,0.05966
3439.55006,0.05997
3437.49045,0.06025
3435.43084,0.06067
3433.37123,0.06128
3431.31162,0.06193
3429.25201,0.06239
3427.19240,0.06261
3425.13279,0.06278
3423.07318,0.06327
3421.01357,0.06404
3418.95396,0.06455
3416.89435,0.06484
3414.83473,0.06519
3412.77512,0.06566
3410.71551,0.06621
3408.65590,0.06676
3406.59629,0.06713
3404.53668,0.06745
3402.47707,0.06792
3400.41746,0.06836
3398.35785,0.06877
3396.29824,0.06917
3394.23863,0.06966
3392.17902,0.07015
3390.11940,0.07037
3388.05979,0.07053
3386.00018,0.07090
3383.94057,0.07145
3381.88096,0.07194
3379.82135,0.07225
3377.76174,0.07260
3375.70213,0.07311
3373.64252,0.07368
3371.58291,0.07426
3369.52330,0.07474
3367.46369,0.07511
3365.40407,0.07545
3363.34446,0.07575
3361.28485,0.07605
3359.22524,0.07643
3357.16563,0.07688
3355.10602,0.07737
3353.04641,0.07788
3350.98680,0.07838
3348.92719,0.07892
3346.86758,0.07950
3344.80797,0.07995
3342.74836,0.08026
3340.68874,0.08067
3338.62913,0.08118
3336.56952,0.08164
3334.50991,0.08214
3332.45030,0.08282
3330.39069,0.08364
3328.33108,0.08428
3326.27147,0.08473
3324.21186,0.08532
3322.15225,0.08604
3320.09264,0.08668
3318.03303,0.08728
3315.97342,0.08797
3313.91380,0.08883
3311.85419,0.08974
3309.79458,0.09065
3307.73497,0.09147
3305.67536,0.09220
3303.61575,0.09294
3301.55614,0.09371
3299.49653,0.09461
3297.43692,0.09561
3295.37731,0.09646
3293.31770,0.09712
3291.25809,0.09771
3289.19847,0.09836
3287.13886,0.09907
3285.07925,0.09963
3283.01964,0.10012
3280.96003,0.10064
3278.90042,0.10107
3276.84081,0.10147
3274.78120,0.10191
3272.72159,0.10218
3270.66198,0.10207
3268.60237,0.10178
3266.54276,0.10162
3264.48314,0.10163
3262.42353,0.10160
3260.36392,0.10133
3258.30431,0.10089
3256.24470,0.10051
3254.18509,0.10032
3252.12548,0.10018
3250.06587,0.10001
3248.00626,0.09979
3245.94665,0.09944
3243.88704,0.09881
3241.82743,0.09823
3239.76781,0.09797
3237.70820,0.09785
3235.64859,0.09780
3233.58898,0.09772
3231.52937,0.09748
3229.46976,0.09720
3227.41015,0.09708
3225.35054,0.09696
3223.29093,0.09675
3221.23132,0.09664
3219.17171,0.09656
3217.11210,0.09642
3215.05248,0.09635
3212.99287,0.09633
3210.93326,0.09640
3208.87365,0.09650
3206.81404,0.09649
3204.75443,0.09647
3202.69482,0.09640
3200.63521,0.09618
3198.57560,0.09599
3196.51599,0.09583
3194.45638,0.09549
3192.39677,0.09513
3190.33716,0.09501
3188.27754,0.09499
3186.21793,0.09482
3184.15832,0.09452
3182.09871,0.09422
3180.03910,0.09394
3177.97949,0.09376
3175.91988,0.09353
3173.86027,0.09319
3171.80066,0.09292
3169.74105,0.09285
3167.68144,0.09272
3165.62183,0.09244
3163.56221,0.09217
3161.50260,0.09193
3159.44299,0.09156
3157.38338,0.09117
3155.32377,0.09100
3153.26416,0.09101
3151.20455,0.09095
3149.14494,0.09070
3147.08533,0.09049
3145.02572,0.09041
3142.96611,0.09018
3140.90650,0.08983
3138.84688,0.08955
3136.78727,0.08937
3134.72766,0.08917
3132.66805,0.08892
3130.60844,0.08873
3128.54883,0.08868
3126.48922,0.08865
3124.42961,0.08867
3122.37000,0.08872
3120.31039,0.08870
3118.25078,0.08863
3116.19117,0.08861
3114.13155,0.08868
3112.07194,0.08877
3110.01233,0.08882
3107.95272,0.08882
3105.89311,0.08885
3103.83350,0.08903
3101.77389,0.08938
3099.71428,0.08960
3097.65467,0.08970
3095.59506,0.08986
3093.53545,0.09012
3091.47584,0.09040
3089.41623,0.09066
3087.35661,0.09100
3085.29700,0.09135
3083.23739,0.09158
3081.17778,0.09177
3079.11817,0.09193
3077.05856,0.09210
3074.99895,0.09229
3072.93934,0.09239
3070.87973,0.09243
3068.82012,0.09257
3066.76051,0.09274
3064.70090,0.09276
3062.64128,0.09274
3060.58167,0.09271
3058.52206,0.09263
3056.46245,0.09258
3054.40284,0.09248
3052.34323,0.09226
3050.28362,0.09200
3048.22401,0.09176
3046.16440,0.09159
3044.10479,0.09146
3042.04518,0.09122
3039.98557,0.09092
3037.92595,0.09071
3035.86634,0.09054
3033.80673,0.09028
3031.74712,0.08993
3029.68751,0.08952
3027.62790,0.08916
3025.56829,0.08885
3023.50868,0.08846
3021.44907,0.08805
3019.38946,0.08771
3017.32985,0.08738
3015.27024,0.08707
3013.21062,0.08683
3011.15101,0.08659
3009.09140,0.08623
3007.03179,0.08581
3004.97218,0.08550
3002.91257,0.08535
3000.85296,0.08529
2998.79335,0.08529
2996.73374,0.08533
2994.67413,0.08548
2992.61452,0.08579
2990.55491,0.08609
2988.49530,0.08637
2986.43568,0.08679
2984.37607,0.08732
2982.31646,0.08797
2980.25685,0.08875
2978.19724,0.08956
2976.13763,0.09033
2974.07802,0.09101
2972.01841,0.09172
2969.95880,0.09254
2967.89919,0.09334
2965.83958,0.09401
2963.77997,0.09454
2961.72035,0.09499
2959.66074,0.09524
2957.60113,0.09507
2955.54152,0.09463
2953.48191,0.09415
2951.42230,0.09373
2949.36269,0.09336
2947.30308,0.09299
2945.24347,0.09274
2943.18386,0.09278
2941.12425,0.09307
2939.06464,0.09337
2937.00502,0.09353
2934.94541,0.09368
2932.88580,0.09382
2930.82619,0.09382
2928.76658,0.09366
2926.70697,0.09328
2924.64736,0.09264
2922.58775,0.09188
2920.52814,0.09122
2918.46853,0.09070
2916.40892,0.09015
2914.34931,0.08942
2912.28969,0.08856
2910.23008,0.08783
2908.17047,0.08723
2906.11086,0.08661
2904.05125,0.08601
2901.99164,0.08552
2899.93203,0.08504
2897.87242,0.08456
2895.81281,0.08420
2893.75320,0.08390
2891.69359,0.08355
2889.63398,0.08330
2887.57437,0.08314
2885.51475,0.08305
2883.45514,0.08312
2881.39553,0.08332
2879.33592,0.08352
2877.27631,0.08371
2875.21670,0.08386
2873.15709,0.08387
2871.09748,0.08366
2869.03787,0.08314
2866.97826,0.08233
2864.91865,0.08140
2862.85904,0.08053
2860.79942,0.07976
2858.73981,0.07909
2856.68020,0.07856
2854.62059,0.07808
2852.56098,0.07758
2850.50137,0.07712
2848.44176,0.07660
2846.38215,0.07593
2844.32254,0.07522
2842.26293,0.07451
2840.20332,0.07382
2838.14371,0.07326
2836.08409,0.07285
2834.02448,0.07252
2831.96487,0.07219
2829.90526,0.07183
2827.84565,0.07147
2825.78604,0.07113
2823.72643,0.07076
2821.66682,0.07032
2819.60721,0.06997
2817.54760,0.06974
2815.48799,0.06946
2813.42838,0.06912
2811.36876,0.06873
2809.30915,0.06826
2807.24954,0.06784
2805.18993,0.06747
2803.13032,0.06709
2801.07071,0.06675
2799.01110,0.06655
2796.95149,0.06638
2794.89188,0.06609
2792.83227,0.06569
2790.77266,0.06531
2788.71305,0.06495
2786.65344,0.06460
2784.59382,0.06429
2782.53421,0.06395
2780.47460,0.06357
2778.41499,0.06328
2776.35538,0.06314
2774.29577,0.06299
2772.23616,0.06272
2770.17655,0.06244
2768.11694,0.06226
2766.05733,0.06209
2763.99772,0.06185
2761.93811,0.06151
2759.87849,0.06116
2757.81888,0.06092
2755.75927,0.06069
2753.69966,0.06040
2751.64005,0.06018
2749.58044,0.05999
2747.52083,0.05973
2745.46122,0.05942
2743.40161,0.05921
2741.34200,0.05912
2739.28239,0.05899
2737.22278,0.05867
2735.16316,0.05839
2733.10355,0.05826
2731.04394,0.05811
2728.98433,0.05791
2726.92472,0.05769
2724.86511,0.05743
2722.80550,0.05718
2720.74589,0.05697
2718.68628,0.05673
2716.62667,0.05646
2714.56706,0.05627
2712.50745,0.05609
2710.44783,0.05583
2708.38822,0.05557
2706.32861,0.05531
2704.26900,0.05499
2702.20939,0.05478
2700.14978,0.05464
2698.09017,0.05441
2696.03056,0.05417
2693.97095,0.05406
2691.91134,0.05398
2689.85173,0.05383
2687.79212,0.05361
2685.73251,0.05341
2683.67289,0.05327
2681.61328,0.05314
2679.55367,0.05293
2677.49406,0.05269
2675.43445,0.05258
2673.37484,0.05251
2671.31523,0.05234
2669.25562,0.05213
2667.19601,0.05194
2665.13640,0.05182
2663.07679,0.05174
2661.01718,0.05170
2658.95756,0.05161
2656.89795,0.05140
2654.83834,0.05117
2652.77873,0.05101
2650.71912,0.05092
2648.65951,0.05075
2646.59990,0.05050
2644.54029,0.05034
2642.48068,0.05023
2640.42107,0.05011
2638.36146,0.04999
2636.30185,0.04981
2634.24223,0.04958
2632.18262,0.04929
2630.12301,0.04908
2628.06340,0.04907
2626.00379,0.04906
2623.94418,0.04887
2621.88457,0.04857
2619.82496,0.04828
2617.76535,0.04810
2615.70574,0.04800
2613.64613,0.04793
2611.58652,0.04781
2609.52690,0.04754
2607.46729,0.04718
2605.40768,0.04695
2603.34807,0.04681
2601.28846,0.04667
2599.22885,0.04651
2597.16924,0.04634
2595.10963,0.04609
2593.05002,0.04575
2590.99041,0.04549
2588.93080,0.04536
2586.87119,0.04530
2584.81158,0.04526
2582.75196,0.04504
2580.69235,0.04463
2578.63274,0.04433
2576.57313,0.04414
2574.51352,0.04384
2572.45391,0.04349
2570.39430,0.04317
2568.33469,0.04294
2566.27508,0.04287
2564.21547,0.04280
2562.15586,0.04267
2560.09625,0.04268
2558.03663,0.04273
2555.97702,0.04247
2553.91741,0.04203
2551.85780,0.04180
2549.79819,0.04175
2547.73858,0.04151
2545.67897,0.04118
2543.61936,0.04111
2541.55975,0.04112
2539.50014,0.04090
2537.44053,0.04057
2535.38092,0.04036
2533.32130,0.04035
2531.26169,0.04037
2529.20208,0.04023
2527.14247,0.04002
2525.08286,0.03982
2523.02325,0.03967
2520.96364,0.03963
2518.90403,0.03952
2516.84442,0.03934
2514.78481,0.03922
2512.72520,0.03913
2510.66559,0.03896
2508.60597,0.03861
2506.54636,0.03827
2504.48675,0.03816
2502.42714,0.03829
2500.36753,0.03844
2498.30792,0.03828
2496.24831,0.03791
2494.18870,0.03769
2492.12909,0.03772
2490.06948,0.03776
2488.00987,0.03762
2485.95026,0.03739
2483.89065,0.03712
2481.83103,0.03678
2479.77142,0.03643
2477.71181,0.03623
2475.65220,0.03615
2473.59259,0.03606
2471.53298,0.03594
2469.47337,0.03594
2467.41376,0.03609
2465.35415,0.03614
2463.29454,0.03595
2461.23493,0.03565
2459.17532,0.03538
2457.11570,0.03520
2455.05609,0.03517
2452.99648,0.03519
2450.93687,0.03511
2448.87726,0.03494
2446.81765,0.03474
2444.75804,0.03460
2442.69843,0.03455
2440.63882,0.03451
2438.57921,0.03433
2436.51960,0.03407
2434.45999,0.03391
2432.40037,0.03374
2430.34076,0.03350
2428.28115,0.03337
2426.22154,0.03337
2424.16193,0.03331
2422.10232,0.03317
2420.04271,0.03300
2417.98310,0.03282
2415.92349,0.03266
2413.86388,0.03256
2411.80427,0.03258
2409.74466,0.03265
2407.68504,0.03261
2405.62543,0.03253
2403.56582,0.03241
2401.50621,0.03227
2399.44660,0.03215
2397.38699,0.03209
2395.32738,0.03208
2393.26777,0.03211
2391.20816,0.03213
2389.14855,0.03205
2387.08894,0.03186
2385.02933,0.03163
2382.96972,0.03143
2380.91010,0.03132
2378.85049,0.03124
2376.79088,0.03106
2374.73127,0.03084
2372.67166,0.03081
2370.61205,0.03088
2368.55244,0.03082
2366.49283,0.03066
2364.43322,0.03048
2362.37361,0.03037
2360.31400,0.03038
2358.25439,0.03044
2356.19477,0.03049
2354.13516,0.03056
2352.07555,0.03082
2350.01594,0.03109
2347.95633,0.03096
2345.89672,0.03042
2343.83711,0.02996
2341.77750,0.02982
2339.71789,0.02988
2337.65828,0.02992
2335.59867,0.02984
2333.53906,0.02978
2331.47944,0.02992
2329.41983,0.03025
2327.36022,0.03049
2325.30061,0.03037
2323.24100,0.02997
2321.18139,0.02967
2319.12178,0.02962
2317.06217,0.02962
2315.00256,0.02953
2312.94295,0.02944
2310.88334,0.02938
2308.82373,0.02925
2306.76411,0.02904
2304.70450,0.02886
2302.64489,0.02889
2300.58528,0.02900
2298.52567,0.02891
2296.46606,0.02865
2294.40645,0.02858
2292.34684,0.02871
2290.28723,0.02870
2288.22762,0.02851
2286.16801,0.02837
2284.10840,0.02828
2282.04878,0.02808
2279.98917,0.02779
2277.92956,0.02753
2275.86995,0.02727
2273.81034,0.02693
2271.75073,0.02660
2269.69112,0.02641
2267.63151,0.02630
2265.57190,0.02616
2263.51229,0.02605
2261.45268,0.02600
2259.39307,0.02596
2257.33346,0.02612
2255.27384,0.02629
2253.21423,0.02598
2251.15462,0.02544
2249.09501,0.02500
2247.03540,0.02467
2244.97579,0.02456
2242.91618,0.02461
2240.85657,0.02442
2238.79696,0.02412
2236.73735,0.02404
2234.67774,0.02406
2232.61813,0.02409
2230.55851,0.02412
2228.49890,0.02387
2226.43929,0.02350
2224.37968,0.02347
2222.32007,0.02339
2220.26046,0.02306
2218.20085,0.02299
2216.14124,0.02326
2214.08163,0.02360
2212.02202,0.02375
2209.96241,0.02353
2207.90280,0.02308
2205.84318,0.02274
2203.78357,0.02269
2201.72396,0.02278
2199.66435,0.02291
2197.60474,0.02300
2195.54513,0.02267
2193.48552,0.02216
2191.42591,0.02209
2189.36630,0.02210
2187.30669,0.02169
2185.24708,0.02142
2183.18747,0.02145
2181.12785,0.02126
2179.06824,0.02122
2177.00863,0.02149
2174.94902,0.02144
2172.88941,0.02147
2170.82980,0.02196
2168.77019,0.02208
2166.71058,0.02183
2164.65097,0.02174
2162.59136,0.02146
2160.53175,0.02034
2158.47214,0.01887
2156.41253,0.01858
2154.35291,0.01952
2152.29330,0.02045
2150.23369,0.02068
2148.17408,0.02068
2146.11447,0.02116
2144.05486,0.02188
2141.99525,0.02209
2139.93564,0.02207
2137.87603,0.02232
2135.81642,0.02258
2133.75681,0.02266
2131.69720,0.02281
2129.63758,0.02329
2127.57797,0.02381
2125.51836,0.02398
2123.45875,0.02390
2121.39914,0.02383
2119.33953,0.02367
2117.27992,0.02346
2115.22031,0.02354
2113.16070,0.02395
2111.10109,0.02426
2109.04148,0.02423
2106.98187,0.02410
2104.92225,0.02412
2102.86264,0.02424
2100.80303,0.02419
2098.74342,0.02388
2096.68381,0.02349
2094.62420,0.02336
2092.56459,0.02362
2090.50498,0.02392
2088.44537,0.02398
2086.38576,0.02382
2084.32615,0.02355
2082.26654,0.02332
2080.20692,0.02335
2078.14731,0.02348
2076.08770,0.02336
2074.02809,0.02310
2071.96848,0.02300
2069.90887,0.02301
2067.84926,0.02306
2065.78965,0.02314
2063.73004,0.02288
2061.67043,0.02230
2059.61082,0.02193
2057.55121,0.02209
2055.49160,0.02228
2053.43198,0.02220
2051.37237,0.02188
2049.31276,0.02133
2047.25315,0.02099
2045.19354,0.02085
2043.13393,0.02036
2041.07432,0.01963
2039.01471,0.01940
2036.95510,0.01972
2034.89549,0.01967
2032.83588,0.01898
2030.77627,0.01826
2028.71665,0.01799
2026.65704,0.01829
2024.59743,0.01881
2022.53782,0.01913
2020.47821,0.01909
2018.41860,0.01888
2016.35899,0.01831
2014.29938,0.01769
2012.23977,0.01776
2010.18016,0.01801
2008.12055,0.01808
2006.06094,0.01837
2004.00132,0.01889
2001.94171,0.01924
1999.88210,0.01936
1997.82249,0.01918
1995.76288,0.01879
1993.70327,0.01896
1991.64366,0.01948
1989.58405,0.01969
1987.52444,0.01979
1985.46483,0.01951
1983.40522,0.01923
1981.34561,0.01910
1979.28599,0.01851
1977.22638,0.01787
1975.16677,0.01796
1973.10716,0.01811
1971.04755,0.01792
1968.98794,0.01820
1966.92833,0.01862
1964.86872,0.01842
1962.80911,0.01845
1960.74950,0.01877
1958.68989,0.01885
1956.63028,0.01880
1954.57067,0.01881
1952.51105,0.01889
1950.45144,0.01895
1948.39183,0.01909
1946.33222,0.01921
1944.27261,0.01940
1942.21300,0.01961
1940.15339,0.01940
1938.09378,0.01942
1936.03417,0.01977
1933.97456,0.02019
1931.91495,0.02039
1929.85534,0.02025
1927.79572,0.02008
1925.73611,0.02014
1923.67650,0.02028
1921.61689,0.01987
1919.55728,0.01987
1917.49767,0.02026
1915.43806,0.02002
1913.37845,0.01996
1911.31884,0.02014
1909.25923,0.02010
1907.19962,0.01982
1905.14001,0.01983
1903.08039,0.02013
1901.02078,0.02035
1898.96117,0.02044
1896.90156,0.02056
1894.84195,0.02047
1892.78234,0.02010
1890.72273,0.02020
1888.66312,0.02026
1886.60351,0.02009
1884.54390,0.02020
1882.48429,0.02025
1880.42468,0.02021
1878.36506,0.02022
1876.30545,0.02017
1874.24584,0.01991
1872.18623,0.01978
1870.12662,0.02027
1868.06701,0.02042
1866.00740,0.01980
1863.94779,0.01951
1861.88818,0.01968
1859.82857,0.01985
1857.76896,0.01987
1855.70935,0.01982
1853.64974,0.01978
1851.59012,0.01969
1849.53051,0.01942
1847.47090,0.01915
1845.41129,0.01956
1843.35168,0.01979
1841.29207,0.01928
1839.23246,0.01934
1837.17285,0.01953
1835.11324,0.01917
1833.05363,0.01895
1830.99402,0.01944
1828.93441,0.01941
1826.87479,0.01904
1824.81518,0.01915
1822.75557,0.01894
1820.69596,0.01887
1818.63635,0.01914
1816.57674,0.01917
1814.51713,0.01896
1812.45752,0.01905
1810.39791,0.01913
1808.33830,0.01887
1806.27869,0.01865
1804.21908,0.01872
1802.15946,0.01910
1800.09985,0.01915
1798.04024,0.01856
1795.98063,0.01816
1793.92102,0.01870
1791.86141,0.01918
1789.80180,0.01851
1787.74219,0.01828
1785.68258,0.01882
1783.62297,0.01900
1781.56336,0.01905
1779.50375,0.01893
1777.44413,0.01847
1775.38452,0.01854
1773.32491,0.01932
1771.26530,0.01940
1769.20569,0.01902
1767.14608,0.01896
1765.08647,0.01890
1763.02686,0.01952
1760.96725,0.01978
1758.90764,0.01971
1756.84803,0.01997
1754.78842,0.01969
1752.72881,0.02016
1750.66919,0.02126
1748.60958,0.02153
1746.54997,0.02147
1744.49036,0.02182
1742.43075,0.02253
1740.37114,0.02322
1738.31153,0.02305
1736.25192,0.02379
1734.19231,0.02597
1732.13270,0.02633
1730.07309,0.02668
1728.01348,0.02767
1725.95386,0.02862
1723.89425,0.02932
1721.83464,0.02950
1719.77503,0.03072
1717.71542,0.03279
1715.65581,0.03363
1713.59620,0.03415
1711.53659,0.03522
1709.47698,0.03690
1707.41737,0.03931
1705.35776,0.04171
1703.29815,0.04404
1701.23853,0.04909
1699.17892,0.05478
1697.11931,0.06001
1695.05970,0.06485
1693.00009,0.06791
1690.94048,0.07150
1688.88087,0.07523
1686.82126,0.07967
1684.76165,0.08689
1682.70204,0.09266
1680.64243,0.09599
1678.58282,0.09983
1676.52320,0.10519
1674.46359,0.11037
1672.40398,0.11478
1670.34437,0.12089
1668.28476,0.12661
1666.22515,0.13077
1664.16554,0.13632
1662.10593,0.14262
1660.04632,0.14708
1657.98671,0.15024
1655.92710,0.15493
1653.86749,0.16248
1651.80788,0.16633
1649.74826,0.16728
1647.68865,0.17148
1645.62904,0.17545
1643.56943,0.17689
1641.50982,0.17819
1639.45021,0.18010
1637.39060,0.18365
1635.33099,0.18737
1633.27138,0.18824
1631.21177,0.18910
1629.15216,0.19130
1627.09255,0.19326
1625.03293,0.19511
1622.97332,0.19651
1620.91371,0.19594
1618.85410,0.19573
1616.79449,0.19568
1614.73488,0.19305
1612.67527,0.19009
1610.61566,0.18796
1608.55605,0.18545
1606.49644,0.18231
1604.43683,0.17916
1602.37722,0.17613
1600.31760,0.17317
1598.25799,0.17068
1596.19838,0.16880
1594.13877,0.16718
1592.07916,0.16577
1590.01955,0.16477
1587.95994,0.16401
1585.90033,0.16323
1583.84072,0.16219
1581.78111,0.16063
1579.72150,0.15904
1577.66189,0.15845
1575.60227,0.15703
1573.54266,0.15401
1571.48305,0.15319
1569.42344,0.15352
1567.36383,0.15242
1565.30422,0.15143
1563.24461,0.15074
1561.18500,0.15255
1559.12539,0.15688
1557.06578,0.15767
1555.00617,0.15828
1552.94656,0.16037
1550.88695,0.16282
1548.82733,0.16452
1546.76772,0.16552
1544.70811,0.16698
1542.64850,0.16926
1540.58889,0.17265
1538.52928,0.17333
1536.46967,0.17275
1534.41006,0.17477
1532.35045,0.17645
1530.29084,0.17672
1528.23123,0.17806
1526.17162,0.17959
1524.11200,0.18108
1522.05239,0.18383
1519.99278,0.18574
1517.93317,0.18716
1515.87356,0.18777
1513.81395,0.18606
1511.75434,0.18310
1509.69473,0.18015
1507.63512,0.17674
1505.57551,0.16949
1503.51590,0.16227
1501.45629,0.15826
1499.39667,0.15505
1497.33706,0.15044
1495.27745,0.14429
1493.21784,0.13904
1491.15823,0.13569
1489.09862,0.13159
1487.03901,0.12662
1484.97940,0.12271
1482.91979,0.12026
1480.86018,0.11832
1478.80057,0.11660
1476.74096,0.11596
1474.68134,0.11677
1472.62173,0.11822
1470.56212,0.11802
1468.50251,0.11767
1466.44290,0.11889
1464.38329,0.11972
1462.32368,0.11908
1460.26407,0.11978
1458.20446,0.12291
1456.14485,0.12483
1454.08524,0.12447
1452.02563,0.12462
1449.96602,0.12543
1447.90640,0.12590
1445.84679,0.12535
1443.78718,0.12443
1441.72757,0.12343
1439.66796,0.12255
1437.60835,0.12220
1435.54874,0.12047
1433.48913,0.11804
1431.42952,0.11719
1429.36991,0.11692
1427.31030,0.11674
1425.25069,0.11763
1423.19107,0.11906
1421.13146,0.12159
1419.07185,0.12577
1417.01224,0.12919
1414.95263,0.13202
1412.89302,0.13526
1410.83341,0.13835
1408.77380,0.14083
1406.71419,0.14304
1404.65458,0.14454
1402.59497,0.14478
1400.53536,0.14495
1398.47574,0.14493
1396.41613,0.14448
1394.35652,0.14372
1392.29691,0.14215
1390.23730,0.14096
1388.17769,0.14016
1386.11808,0.13820
1384.05847,0.13540
1381.99886,0.13280
1379.93925,0.13025
1377.87964,0.12782
1375.82003,0.12596
1373.76041,0.12424
1371.70080,0.12228
1369.64119,0.12084
1367.58158,0.11944
1365.52197,0.11800
1363.46236,0.11701
1361.40275,0.11565
1359.34314,0.11420
1357.28353,0.11350
1355.22392,0.11325
1353.16431,0.11300
1351.10470,0.11274
1349.04508,0.11239
1346.98547,0.11177
1344.92586,0.11100
1342.86625,0.11046
1340.80664,0.11042
1338.74703,0.11036
1336.68742,0.11008
1334.62781,0.11022
1332.56820,0.11056
1330.50859,0.11044
1328.44898,0.10968
1326.38937,0.10863
1324.32976,0.10766
1322.27014,0.10698
1320.21053,0.10664
1318.15092,0.10637
1316.09131,0.10597
1314.03170,0.10559
1311.97209,0.10511
1309.91248,0.10459
1307.85287,0.10419
1305.79326,0.10367
1303.73365,0.10305
1301.67404,0.10250
1299.61443,0.10193
1297.55481,0.10121
1295.49520,0.10029
1293.43559,0.09929
1291.37598,0.09839
1289.31637,0.09759
1287.25676,0.09679
1285.19715,0.09616
1283.13754,0.09576
1281.07793,0.09537
1279.01832,0.09502
1276.95871,0.09488
1274.89910,0.09491
1272.83948,0.09502
1270.77987,0.09516
1268.72026,0.09535
1266.66065,0.09557
1264.60104,0.09576
1262.54143,0.09604
1260.48182,0.09657
1258.42221,0.09724
1256.36260,0.09809
1254.30299,0.09901
1252.24338,0.09990
1250.18377,0.10088
1248.12415,0.10198
1246.06454,0.10297
1244.00493,0.10363
1241.94532,0.10400
1239.88571,0.10419
1237.82610,0.10421
1235.76649,0.10404
1233.70688,0.10373
1231.64727,0.10323
1229.58766,0.10258
1227.52805,0.10185
1225.46844,0.10108
1223.40883,0.10026
1221.34921,0.09934
1219.28960,0.09831
1217.22999,0.09729
1215.17038,0.09632
1213.11077,0.09527
1211.05116,0.09405
1208.99155,0.09270
1206.93194,0.09137
1204.87233,0.09022
1202.81272,0.08916
1200.75311,0.08808
1198.69350,0.08704
1196.63388,0.08611
1194.57427,0.08531
1192.51466,0.08465
1190.45505,0.08402
1188.39544,0.08337
1186.33583,0.08270
1184.27622,0.08206
1182.21661,0.08156
1180.15700,0.08135
1178.09739,0.08157
1176.03778,0.08214
1173.97817,0.08284
1171.91855,0.08341
1169.85894,0.08379
1167.79933,0.08418
1165.73972,0.08462
1163.68011,0.08506
1161.62050,0.08545
1159.56089,0.08564
1157.50128,0.08561
1155.44167,0.08542
1153.38206,0.08513
1151.32245,0.08468
1149.26284,0.08404
1147.20322,0.08331
1145.14361,0.08265
1143.08400,0.08210
1141.02439,0.08170
1138.96478,0.08151
1136.90517,0.08149
1134.84556,0.08155
1132.78595,0.08165
1130.72634,0.08183
1128.66673,0.08207
1126.60712,0.08228
1124.54751,0.08242
1122.48790,0.08249
1120.42828,0.08249
1118.36867,0.08256
1116.30906,0.08287
1114.24945,0.08326
1112.18984,0.08342
1110.13023,0.08335
1108.07062,0.08325
1106.01101,0.08325
1103.95140,0.08332
1101.89179,0.08341
1099.83218,0.08350
1097.77257,0.08355
1095.71295,0.08357
1093.65334,0.08376
1091.59373,0.08421
1089.53412,0.08494
1087.47451,0.08593
1085.41490,0.08702
1083.35529,0.08806
1081.29568,0.08907
1079.23607,0.09011
1077.17646,0.09108
1075.11685,0.09182
1073.05724,0.09239
1070.99762,0.09283
1068.93801,0.09315
1066.87840,0.09348
1064.81879,0.09379
1062.75918,0.09401
1060.69957,0.09413
1058.63996,0.09409
1056.58035,0.09397
1054.52074,0.09392
1052.46113,0.09404
1050.40152,0.09426
1048.34191,0.09443
1046.28229,0.09452
1044.22268,0.09465
1042.16307,0.09464
1040.10346,0.09428
1038.04385,0.09373
1035.98424,0.09322
1033.92463,0.09284
1031.86502,0.09246
1029.80541,0.09199
1027.74580,0.09149
1025.68619,0.09092
1023.62658,0.09007
1021.56697,0.08891
1019.50735,0.08767
1017.44774,0.08651
1015.38813,0.08546
1013.32852,0.08453
1011.26891,0.08376
1009.20930,0.08310
1007.14969,0.08251
1005.09008,0.08190
1003.03047,0.08123
1000.97086,0.08044
998.91125,0.07956
996.85164,0.07866
994.79202,0.07771
992.73241,0.07669
990.67280,0.07561
988.61319,0.07449
986.55358,0.07344
984.49397,0.07251
982.43436,0.07173
980.37475,0.07097
978.31514,0.07011
976.25553,0.06932
974.19592,0.06871
972.13631,0.06815
970.07669,0.06762
968.01708,0.06723
965.95747,0.06693
963.89786,0.06663
961.83825,0.06622
959.77864,0.06570
957.71903,0.06519
955.65942,0.06476
953.59981,0.06432
951.54020,0.06395
949.48059,0.06380
947.42098,0.06381
945.36136,0.06377
943.30175,0.06366
941.24214,0.06359
939.18253,0.06361
937.12292,0.06377
935.06331,0.06397
933.00370,0.06407
930.94409,0.06412
928.88448,0.06409
926.82487,0.06390
924.76526,0.06366
922.70565,0.06344
920.64604,0.06318
918.58642,0.06276
916.52681,0.06225
914.46720,0.06186
912.40759,0.06166
910.34798,0.06152
908.28837,0.06147
906.22876,0.06160
904.16915,0.06183
902.10954,0.06194
900.04993,0.06201
897.99032,0.06216
895.93071,0.06225
893.87109,0.06208
891.81148,0.06166
889.75187,0.06133
887.69226,0.06118
885.63265,0.06105
883.57304,0.06088
881.51343,0.06078
879.45382,0.06085
877.39421,0.06099
875.33460,0.06091
873.27499,0.06056
871.21538,0.06022
869.15576,0.06012
867.09615,0.06002
865.03654,0.05979
862.97693,0.05970
860.91732,0.05989
858.85771,0.06020
856.79810,0.06053
854.73849,0.06099
852.67888,0.06167
850.61927,0.06251
848.55966,0.06322
846.50005,0.06362
844.44043,0.06385
842.38082,0.06401
840.32121,0.06397
838.26160,0.06376
836.20199,0.06369
834.14238,0.06389
832.08277,0.06414
830.02316,0.06437
827.96355,0.06471
825.90394,0.06498
823.84433,0.06508
821.78472,0.06535
819.72511,0.06582
817.66549,0.06625
815.60588,0.06668
813.54627,0.06729
811.48666,0.06802
809.42705,0.06864
807.36744,0.06918
805.30783,0.06963
803.24822,0.06990
801.18861,0.07007
799.12900,0.07019
797.06939,0.07027
795.00978,0.07060
792.95016,0.07123
790.89055,0.07194
788.83094,0.07277
786.77133,0.07374
784.71172,0.07467
782.65211,0.07551
780.59250,0.07624
778.53289,0.07697
776.47328,0.07789
774.41367,0.07886
772.35406,0.07978
770.29445,0.08062
768.23483,0.08109
766.17522,0.08129
764.11561,0.08154
762.05600,0.08184
759.99639,0.08219
757.93678,0.08273
755.87717,0.08331
753.81756,0.08384
751.75795,0.08448
749.69834,0.08529
747.63873,0.08604
745.57912,0.08665
743.51950,0.08717
741.45989,0.08743
739.40028,0.08748
737.34067,0.08759
735.28106,0.08776
733.22145,0.08801
731.16184,0.08862
729.10223,0.08968
727.04262,0.09092
724.98301,0.09206
722.92340,0.09317
720.86379,0.09442
718.80418,0.09582
716.74456,0.09738
714.68495,0.09914
712.62534,0.10098
710.56573,0.10278
708.50612,0.10456
706.44651,0.10647
704.38690,0.10859
702.32729,0.11059
700.26768,0.11199
698.20807,0.11280
696.14846,0.11322
694.08885,0.11343
692.02923,0.11355
689.96962,0.11366
687.91001,0.11382
685.85040,0.11414
683.79079,0.11475
681.73118,0.11549
679.67157,0.11607
677.61196,0.11657
675.55235,0.11715
673.49274,0.11783
671.43313,0.11855
669.37352,0.11923
667.31390,0.11993
665.25429,0.12036
663.19468,0.12050
661.13507,0.12038
659.07546,0.12039
657.01585,0.12089
654.95624,0.12166
652.89663,0.12231
650.83702,0.12267
648.77741,0.12285
646.71780,0.12300
644.65819,0.12324
642.59857,0.12380
640.53896,0.12460
638.47935,0.12526
636.41974,0.12580
634.36013,0.12639
632.30052,0.12697
630.24091,0.12757
628.18130,0.12823
626.12169,0.12876
624.06208,0.12888
622.00247,0.12884
619.94286,0.12889
617.88325,0.12905
615.82363,0.12904
613.76402,0.12874
611.70441,0.12856
609.64480,0.12848
607.58519,0.12824
605.52558,0.12804
603.46597,0.12817
601.40636,0.12851
599.34675,0.12868
597.28714,0.12882
595.22753,0.12933
593.16792,0.12986
591.10830,0.12985
589.04869,0.12968
586.98908,0.12989
584.92947,0.13022
582.86986,0.13063
580.81025,0.13132
578.75064,0.13211
576.69103,0.13298
574.63142,0.13352
572.57181,0.13379
570.51220,0.13412
568.45259,0.13436
566.39297,0.13464
564.33336,0.13502
562.27375,0.13536
560.21414,0.13581
558.15453,0.13629
556.09492,0.13662
554.03531,0.13693
551.97570,0.13742
549.91609,0.13813
547.85648,0.13895
545.79687,0.13976
543.73726,0.14047
541.67764,0.14124
539.61803,0.14215
537.55842,0.14290
535.49881,0.14338
533.43920,0.14354
531.37959,0.14301
529.31998,0.14222
527.26037,0.14235
525.20076,0.14257
523.14115,0.14179
521.08154,0.14097
519.02193,0.14057
516.96232,0.14047
514.90270,0.14058
512.84309,0.14061
510.78348,0.14016
508.72387,0.13942
506.66426,0.13847
504.60465,0.13761
502.54504,0.13693
500.48543,0.13569
498.42582,0.13465
496.36621,0.13443
494.30660,0.13486
492.24699,0.13532
490.18737,0.13488
488.12776,0.13419
486.06815,0.13420
484.00854,0.13402
481.94893,0.13289
479.88932,0.13188
477.82971,0.13159
475.77010,0.13193
473.71049,0.13282
471.65088,0.13298
469.59127,0.13221
467.53166,0.13168
465.47204,0.13121
463.41243,0.13053
461.35282,0.13003
459.29321,0.13063
457.23360,0.13143
455.17399,0.13124
453.11438,0.13093
451.05477,0.13076
448.99516,0.13098
446.93555,0.13095
444.87594,0.13020
442.81633,0.12945
440.75671,0.12890
438.69710,0.12878
436.63749,0.12869
434.57788,0.12771
432.51827,0.12645
430.45866,0.12578
428.39905,0.12573
426.33944,0.12661
424.27983,0.12766
422.22022,0.12732
420.16061,0.12609
418.10100,0.12401
416.04138,0.12167
413.98177,0.12044
411.92216,0.12000
409.86255,0.12081
407.80294,0.12237
405.74333,0.12303
403.68372,0.12252
401.62411,0.12234
399.56450,0.12315
