3997.70460,0.02030
3995.64498,0.02026
3993.58537,0.02023
3991.52576,0.02029
3989.46615,0.02036
3987.40654,0.02037
3985.34693,0.02037
3983.28732,0.02035
3981.22771,0.02027
3979.16810,0.02020
3977.10849,0.02028
3975.04888,0.02029
3972.98927,0.02016
3970.92965,0.02019
3968.87004,0.02036
3966.81043,0.02041
3964.75082,0.02042
3962.69121,0.02046
3960.63160,0.02026
3958.57199,0.02005
3956.51238,0.01997
3954.45277,0.01988
3952.39316,0.01998
3950.33355,0.02033
3948.27394,0.02035
3946.21432,0.02005
3944.15471,0.02024
3942.09510,0.02045
3940.03549,0.02020
3937.97588,0.01997
3935.91627,0.01992
3933.85666,0.02017
3931.79705,0.02031
3929.73744,0.02003
3927.67783,0.02001
3925.61822,0.02047
3923.55861,0.02046
3921.49900,0.02020
3919.43938,0.02046
3917.37977,0.02079
3915.32016,0.02054
3913.26055,0.02016
3911.20094,0.02000
3909.14133,0.01980
3907.08172,0.02008
3905.02211,0.02078
3902.96250,0.02078
3900.90289,0.02048
3898.84328,0.02013
3896.78367,0.01938
3894.72405,0.01951
3892.66444,0.02059
3890.60483,0.02040
3888.54522,0.01954
3886.48561,0.02004
3884.42600,0.01992
3882.36639,0.01972
3880.30678,0.02010
3878.24717,0.01948
3876.18756,0.01951
3874.12795,0.02005
3872.06834,0.02032
3870.00872,0.02058
3867.94911,0.01969
3865.88950,0.01975
3863.82989,0.02035
3861.77028,0.01979
3859.71067,0.01878
3857.65106,0.01857
3855.59145,0.02030
3853.53184,0.02204
3851.47223,0.02062
3849.41262,0.01921
3847.35301,0.01920
3845.29339,0.01971
3843.23378,0.01985
3841.17417,0.01982
3839.11456,0.02029
3837.05495,0.02015
3834.99534,0.01959
3832.93573,0.01975
3830.87612,0.01988
3828.81651,0.01975
3826.75690,0.01945
3824.69729,0.01880
3822.63768,0.01949
3820.57807,0.01980
3818.51845,0.01911
3816.45884,0.01985
3814.39923,0.01972
3812.33962,0.01904
3810.28001,0.01924
3808.22040,0.01995
3806.16079,0.01949
3804.10118,0.01896
3802.04157,0.02003
3799.98196,0.01972
3797.92235,0.01939
3795.86274,0.01969
3793.80312,0.01938
3791.74351,0.01929
3789.68390,0.01934
3787.62429,0.01934
3785.56468,0.01938
3783.50507,0.01907
3781.44546,0.01913
3779.38585,0.01959
3777.32624,0.01920
3775.26663,0.01866
3773.20702,0.01867
3771.14741,0.01926
3769.08779,0.01934
3767.02818,0.01912
3764.96857,0.01900
3762.90896,0.01878
3760.84935,0.01942
3758.78974,0.01971
3756.73013,0.01882
3754.67052,0.01850
3752.61091,0.01961
3750.55130,0.01980
3748.49169,0.01815
3746.43208,0.01863
3744.37246,0.02028
3742.31285,0.01891
3740.25324,0.01778
3738.19363,0.01864
3736.13402,0.01992
3734.07441,0.01985
3732.01480,0.01887
3729.95519,0.01797
3727.89558,0.01822
3725.83597,0.01879
3723.77636,0.01896
3721.71675,0.01917
3719.65714,0.01913
3717.59752,0.01862
3715.53791,0.01817
3713.47830,0.01885
3711.41869,0.01958
3709.35908,0.01894
3707.29947,0.01811
3705.23986,0.01813
3703.18025,0.01891
3701.12064,0.01908
3699.06103,0.01837
3697.00142,0.01801
3694.94181,0.01780
3692.88219,0.01799
3690.82258,0.01900
3688.76297,0.01933
3686.70336,0.01813
3684.64375,0.01739
3682.58414,0.01758
3680.52453,0.01772
3678.46492,0.01815
3676.40531,0.01922
3674.34570,0.01823
3672.28609,0.01718
3670.22648,0.01835
3668.16686,0.01821
3666.10725,0.01759
3664.04764,0.01788
3661.98803,0.01810
3659.92842,0.01810
3657.86881,0.01852
3655.80920,0.01821
3653.74959,0.01705
3651.68998,0.01784
3649.63037,0.01944
3647.57076,0.01915
3645.51115,0.01799
3643.45153,0.01783
3641.39192,0.01837
3639.33231,0.01862
3637.27270,0.01857
3635.21309,0.01846
3633.15348,0.01823
3631.09387,0.01908
3629.03426,0.02063
3626.97465,0.01965
3624.91504,0.01822
3622.85543,0.01828
3620.79582,0.01937
3618.73621,0.01982
3616.67659,0.01914
3614.61698,0.01914
3612.55737,0.01936
3610.49776,0.01939
3608.43815,0.01983
3606.37854,0.01969
3604.31893,0.01943
3602.25932,0.01975
3600.19971,0.01991
3598.14010,0.01988
3596.08049,0.02025
3594.02088,0.02037
3591.96126,0.01998
3589.90165,0.02033
3587.84204,0.02124
3585.78243,0.02077
3583.72282,0.02002
3581.66321,0.02016
3579.60360,0.02050
3577.54399,0.02064
3575.48438,0.02074
3573.42477,0.02061
3571.36516,0.02045
3569.30555,0.02120
3567.24593,0.02229
3565.18632,0.02206
3563.12671,0.02149
3561.06710,0.02156
3559.00749,0.02170
3556.94788,0.02165
3554.88827,0.02178
3552.82866,0.02201
3550.76905,0.02203
3548.70944,0.02237
3546.64983,0.02297
3544.59022,0.02291
3542.53060,0.02244
3540.47099,0.02230
3538.41138,0.02263
3536.35177,0.02300
3534.29216,0.02299
3532.23255,0.02292
3530.17294,0.02310
3528.11333,0.02337
3526.05372,0.02358
3523.99411,0.02377
3521.93450,0.02381
3519.87489,0.02382
3517.81528,0.02390
3515.75566,0.02389
3513.69605,0.02390
3511.63644,0.02418
3509.57683,0.02452
3507.51722,0.02454
3505.45761,0.02476
3503.39800,0.02519
3501.33839,0.02518
3499.27878,0.02517
3497.21917,0.02548
3495.15956,0.02564
3493.09995,0.02556
3491.04033,0.02556
3488.98072,0.02573
3486.92111,0.02580
3484.86150,0.02582
3482.80189,0.02605
3480.74228,0.02620
3478.68267,0.02622
3476.62306,0.02640
3474.56345,0.02655
3472.50384,0.02670
3470.44423,0.02695
3468.38462,0.02722
3466.32500,0.02746
3464.26539,0.02774
3462.20578,0.02796
3460.14617,0.02802
3458.08656,0.02816
3456.02695,0.02828
3453.96734,0.02826
3451.90773,0.02825
3449.84812,0.02854
3447.78851,0.02909
3445.72890,0.02916
3443.66929,0.02907
3441.60967,0.02918
3439.55006,0.02921
3437.49045,0.02923
3435.43084,0.02920
3433.37123,0.02927
3431.31162,0.02947
3429.25201,0.02965
3427.19240,0.02981
3425.13279,0.03004
3423.07318,0.03046
3421.01357,0.03092
3418.95396,0.03098
3416.89435,0.03087
3414.83473,0.03095
3412.77512,0.03111
3410.71551,0.03128
3408.65590,0.03149
3406.59629,0.03167
3404.53668,0.03180
3402.47707,0.03186
3400.41746,0.03187
3398.35785,0.03201
3396.29824,0.03215
3394.23863,0.03243
3392.17902,0.03273
3390.11940,0.03282
3388.05979,0.03297
3386.00018,0.03325
3383.94057,0.03349
3381.88096,0.03365
3379.82135,0.03386
3377.76174,0.03413
3375.70213,0.03440
3373.64252,0.03455
3371.58291,0.03458
3369.52330,0.03454
3367.46369,0.03457
3365.40407,0.03475
3363.34446,0.03506
3361.28485,0.03534
3359.22524,0.03556
3357.16563,0.03598
3355.10602,0.03652
3353.04641,0.03690
3350.98680,0.03712
3348.92719,0.03724
3346.86758,0.03733
3344.80797,0.03758
3342.74836,0.03804
3340.68874,0.03848
3338.62913,0.03879
3336.56952,0.03904
3334.50991,0.03925
3332.45030,0.03952
3330.39069,0.03991
3328.33108,0.04040
3326.27147,0.04093
3324.21186,0.04130
3322.15225,0.04161
3320.09264,0.04208
3318.03303,0.04252
3315.97342,0.04281
3313.91380,0.04321
3311.85419,0.04374
3309.79458,0.04420
3307.73497,0.04457
3305.67536,0.04509
3303.61575,0.04573
3301.55614,0.04630
3299.49653,0.04688
3297.43692,0.04750
3295.37731,0.04803
3293.31770,0.04852
3291.25809,0.04902
3289.19847,0.04948
3287.13886,0.04992
3285.07925,0.05042
3283.01964,0.05102
3280.96003,0.05163
3278.90042,0.05208
3276.84081,0.05236
3274.78120,0.05265
3272.72159,0.05300
3270.66198,0.05336
3268.60237,0.05365
3266.54276,0.05377
3264.48314,0.05376
3262.42353,0.05374
3260.36392,0.05369
3258.30431,0.05352
3256.24470,0.05327
3254.18509,0.05291
3252.12548,0.05246
3250.06587,0.05212
3248.00626,0.05199
3245.94665,0.05183
3243.88704,0.05136
3241.82743,0.05085
3239.76781,0.05063
3237.70820,0.05052
3235.64859,0.05032
3233.58898,0.05005
3231.52937,0.04977
3229.46976,0.04947
3227.41015,0.04925
3225.35054,0.04909
3223.29093,0.04889
3221.23132,0.04861
3219.17171,0.04825
3217.11210,0.04795
3215.05248,0.04791
3212.99287,0.04792
3210.93326,0.04783
3208.87365,0.04757
3206.81404,0.04718
3204.75443,0.04694
3202.69482,0.04693
3200.63521,0.04699
3198.57560,0.04698
3196.51599,0.04681
3194.45638,0.04654
3192.39677,0.04627
3190.33716,0.04603
3188.27754,0.04580
3186.21793,0.04555
3184.15832,0.04535
3182.09871,0.04526
3180.03910,0.04516
3177.97949,0.04490
3175.91988,0.04452
3173.86027,0.04426
3171.80066,0.04409
3169.74105,0.04392
3167.68144,0.04371
3165.62183,0.04339
3163.56221,0.04300
3161.50260,0.04266
3159.44299,0.04243
3157.38338,0.04225
3155.32377,0.04199
3153.26416,0.04157
3151.20455,0.04121
3149.14494,0.04106
3147.08533,0.04086
3145.02572,0.04060
3142.96611,0.04043
3140.90650,0.04032
3138.84688,0.04009
3136.78727,0.03978
3134.72766,0.03960
3132.66805,0.03952
3130.60844,0.03938
3128.54883,0.03913
3126.48922,0.03879
3124.42961,0.03856
3122.37000,0.03854
3120.31039,0.03853
3118.25078,0.03849
3116.19117,0.03839
3114.13155,0.03816
3112.07194,0.03793
3110.01233,0.03778
3107.95272,0.03763
3105.89311,0.03750
3103.83350,0.03744
3101.77389,0.03731
3099.71428,0.03707
3097.65467,0.03700
3095.59506,0.03714
3093.53545,0.03720
3091.47584,0.03723
3089.41623,0.03730
3087.35661,0.03745
3085.29700,0.03756
3083.23739,0.03748
3081.17778,0.03730
3079.11817,0.03721
3077.05856,0.03723
3074.99895,0.03725
3072.93934,0.03724
3070.87973,0.03729
3068.82012,0.03743
3066.76051,0.03763
3064.70090,0.03770
3062.64128,0.03753
3060.58167,0.03736
3058.52206,0.03736
3056.46245,0.03741
3054.40284,0.03735
3052.34323,0.03727
3050.28362,0.03729
3048.22401,0.03731
3046.16440,0.03718
3044.10479,0.03690
3042.04518,0.03672
3039.98557,0.03674
3037.92595,0.03675
3035.86634,0.03661
3033.80673,0.03642
3031.74712,0.03623
3029.68751,0.03598
3027.62790,0.03577
3025.56829,0.03570
3023.50868,0.03567
3021.44907,0.03554
3019.38946,0.03532
3017.32985,0.03509
3015.27024,0.03487
3013.21062,0.03464
3011.15101,0.03441
3009.09140,0.03423
3007.03179,0.03413
3004.97218,0.03401
3002.91257,0.03387
3000.85296,0.03374
2998.79335,0.03361
2996.73374,0.03352
2994.67413,0.03361
2992.61452,0.03376
2990.55491,0.03382
2988.49530,0.03388
2986.43568,0.03404
2984.37607,0.03427
2982.31646,0.03462
2980.25685,0.03495
2978.19724,0.03509
2976.13763,0.03520
2974.07802,0.03536
2972.01841,0.03549
2969.95880,0.03558
2967.89919,0.03560
2965.83958,0.03552
2963.77997,0.03539
2961.72035,0.03532
2959.66074,0.03518
2957.60113,0.03493
2955.54152,0.03474
2953.48191,0.03470
2951.42230,0.03482
2949.36269,0.03506
2947.30308,0.03529
2945.24347,0.03540
2943.18386,0.03537
2941.12425,0.03534
2939.06464,0.03533
2937.00502,0.03517
2934.94541,0.03475
2932.88580,0.03418
2930.82619,0.03336
2928.76658,0.03210
2926.70697,0.03035
2924.64736,0.02804
2922.58775,0.02490
2920.52814,0.02096
2918.46853,0.01715
2916.40892,0.01549
2914.34931,0.01762
2912.28969,0.02223
2910.23008,0.02637
2908.17047,0.02883
2906.11086,0.03009
2904.05125,0.03074
2901.99164,0.03111
2899.93203,0.03138
2897.87242,0.03155
2895.81281,0.03168
2893.75320,0.03186
2891.69359,0.03203
2889.63398,0.03223
2887.57437,0.03256
2885.51475,0.03293
2883.45514,0.03321
2881.39553,0.03344
2879.33592,0.03370
2877.27631,0.03397
2875.21670,0.03414
2873.15709,0.03423
2871.09748,0.03427
2869.03787,0.03416
2866.97826,0.03398
2864.91865,0.03376
2862.85904,0.03325
2860.79942,0.03247
2858.73981,0.03159
2856.68020,0.03037
2854.62059,0.02833
2852.56098,0.02499
2850.50137,0.02119
2848.44176,0.01990
2846.38215,0.02266
2844.32254,0.02693
2842.26293,0.02989
2840.20332,0.03125
2838.14371,0.03183
2836.08409,0.03218
2834.02448,0.03238
2831.96487,0.03240
2829.90526,0.03240
2827.84565,0.03250
2825.78604,0.03263
2823.72643,0.03261
2821.66682,0.03244
2819.60721,0.03233
2817.54760,0.03240
2815.48799,0.03245
2813.42838,0.03244
2811.36876,0.03236
2809.30915,0.03215
2807.24954,0.03195
2805.18993,0.03194
2803.13032,0.03203
2801.07071,0.03205
2799.01110,0.03204
2796.95149,0.03206
2794.89188,0.03204
2792.83227,0.03194
2790.77266,0.03183
2788.71305,0.03181
2786.65344,0.03178
2784.59382,0.03168
2782.53421,0.03157
2780.47460,0.03152
2778.41499,0.03153
2776.35538,0.03159
2774.29577,0.03169
2772.23616,0.03169
2770.17655,0.03156
2768.11694,0.03143
2766.05733,0.03134
2763.99772,0.03125
2761.93811,0.03125
2759.87849,0.03136
2757.81888,0.03141
2755.75927,0.03131
2753.69966,0.03120
2751.64005,0.03115
2749.58044,0.03108
2747.52083,0.03105
2745.46122,0.03107
2743.40161,0.03104
2741.34200,0.03094
2739.28239,0.03080
2737.22278,0.03070
2735.16316,0.03066
2733.10355,0.03068
2731.04394,0.03071
2728.98433,0.03068
2726.92472,0.03062
2724.86511,0.03065
2722.80550,0.03072
2720.74589,0.03072
2718.68628,0.03065
2716.62667,0.03050
2714.56706,0.03032
2712.50745,0.03026
2710.44783,0.03027
2708.38822,0.03023
2706.32861,0.03020
2704.26900,0.03028
2702.20939,0.03031
2700.14978,0.03023
2698.09017,0.03015
2696.03056,0.03013
2693.97095,0.03010
2691.91134,0.03000
2689.85173,0.02986
2687.79212,0.02975
2685.73251,0.02972
2683.67289,0.02973
2681.61328,0.02970
2679.55367,0.02969
2677.49406,0.02969
2675.43445,0.02966
2673.37484,0.02964
2671.31523,0.02962
2669.25562,0.02957
2667.19601,0.02960
2665.13640,0.02969
2663.07679,0.02980
2661.01718,0.02984
2658.95756,0.02981
2656.89795,0.02974
2654.83834,0.02963
2652.77873,0.02946
2650.71912,0.02930
2648.65951,0.02921
2646.59990,0.02921
2644.54029,0.02920
2642.48068,0.02913
2640.42107,0.02902
2638.36146,0.02894
2636.30185,0.02897
2634.24223,0.02907
2632.18262,0.02904
2630.12301,0.02888
2628.06340,0.02876
2626.00379,0.02860
2623.94418,0.02841
2621.88457,0.02833
2619.82496,0.02832
2617.76535,0.02823
2615.70574,0.02810
2613.64613,0.02808
2611.58652,0.02815
2609.52690,0.02815
2607.46729,0.02811
2605.40768,0.02809
2603.34807,0.02805
2601.28846,0.02792
2599.22885,0.02781
2597.16924,0.02786
2595.10963,0.02789
2593.05002,0.02762
2590.99041,0.02737
2588.93080,0.02754
2586.87119,0.02777
2584.81158,0.02768
2582.75196,0.02747
2580.69235,0.02732
2578.63274,0.02719
2576.57313,0.02706
2574.51352,0.02709
2572.45391,0.02733
2570.39430,0.02748
2568.33469,0.02732
2566.27508,0.02709
2564.21547,0.02706
2562.15586,0.02709
2560.09625,0.02707
2558.03663,0.02705
2555.97702,0.02699
2553.91741,0.02690
2551.85780,0.02681
2549.79819,0.02676
2547.73858,0.02686
2545.67897,0.02707
2543.61936,0.02716
2541.55975,0.02721
2539.50014,0.02718
2537.44053,0.02700
2535.38092,0.02686
2533.32130,0.02680
2531.26169,0.02672
2529.20208,0.02662
2527.14247,0.02661
2525.08286,0.02668
2523.02325,0.02680
2520.96364,0.02686
2518.90403,0.02679
2516.84442,0.02666
2514.78481,0.02654
2512.72520,0.02656
2510.66559,0.02666
2508.60597,0.02661
2506.54636,0.02649
2504.48675,0.02642
2502.42714,0.02637
2500.36753,0.02633
2498.30792,0.02624
2496.24831,0.02614
2494.18870,0.02618
2492.12909,0.02627
2490.06948,0.02629
2488.00987,0.02628
2485.95026,0.02625
2483.89065,0.02615
2481.83103,0.02614
2479.77142,0.02624
2477.71181,0.02625
2475.65220,0.02612
2473.59259,0.02602
2471.53298,0.02605
2469.47337,0.02606
2467.41376,0.02595
2465.35415,0.02580
2463.29454,0.02569
2461.23493,0.02578
2459.17532,0.02600
2457.11570,0.02606
2455.05609,0.02610
2452.99648,0.02613
2450.93687,0.02597
2448.87726,0.02581
2446.81765,0.02588
2444.75804,0.02603
2442.69843,0.02611
2440.63882,0.02620
2438.57921,0.02622
2436.51960,0.02599
2434.45999,0.02576
2432.40037,0.02576
2430.34076,0.02582
2428.28115,0.02585
2426.22154,0.02585
2424.16193,0.02576
2422.10232,0.02564
2420.04271,0.02563
2417.98310,0.02565
2415.92349,0.02553
2413.86388,0.02536
2411.80427,0.02524
2409.74466,0.02534
2407.68504,0.02555
2405.62543,0.02562
2403.56582,0.02557
2401.50621,0.02554
2399.44660,0.02520
2397.38699,0.02512
2395.32738,0.02529
2393.26777,0.02555
2391.20816,0.02584
2389.14855,0.02610
2387.08894,0.02631
2385.02933,0.02656
2382.96972,0.02692
2380.91010,0.02723
2378.85049,0.02739
2376.79088,0.02754
2374.73127,0.02656
2372.67166,0.02608
2370.61205,0.02689
2368.55244,0.02697
2366.49283,0.02728
2364.43322,0.02672
2362.37361,0.02633
2360.31400,0.02786
2358.25439,0.02760
2356.19477,0.02766
2354.13516,0.02780
2352.07555,0.02789
2350.01594,0.02947
2347.95633,0.02814
2345.89672,0.02744
2343.83711,0.02902
2341.77750,0.02715
2339.71789,0.02518
2337.65828,0.02394
2335.59867,0.02608
2333.53906,0.03092
2331.47944,0.03244
2329.41983,0.03250
2327.36022,0.02783
2325.30061,0.02472
2323.24100,0.02164
2321.18139,0.02103
2319.12178,0.02184
2317.06217,0.02273
2315.00256,0.02336
2312.94295,0.02376
2310.88334,0.02390
2308.82373,0.02407
2306.76411,0.02437
2304.70450,0.02457
2302.64489,0.02494
2300.58528,0.02541
2298.52567,0.02561
2296.46606,0.02556
2294.40645,0.02537
2292.34684,0.02531
2290.28723,0.02547
2288.22762,0.02549
2286.16801,0.02518
2284.10840,0.02471
2282.04878,0.02425
2279.98917,0.02400
2277.92956,0.02394
2275.86995,0.02401
2273.81034,0.02426
2271.75073,0.02428
2269.69112,0.02401
2267.63151,0.02384
2265.57190,0.02398
2263.51229,0.02392
2261.45268,0.02345
2259.39307,0.02305
2257.33346,0.02302
2255.27384,0.02308
2253.21423,0.02302
2251.15462,0.02285
2249.09501,0.02253
2247.03540,0.02257
2244.97579,0.02258
2242.91618,0.02239
2240.85657,0.02226
2238.79696,0.02226
2236.73735,0.02222
2234.67774,0.02226
2232.61813,0.02250
2230.55851,0.02253
2228.49890,0.02213
2226.43929,0.02162
2224.37968,0.02132
2222.32007,0.02136
2220.26046,0.02157
2218.20085,0.02169
2216.14124,0.02171
2214.08163,0.02156
2212.02202,0.02125
2209.96241,0.02113
2207.90280,0.02099
2205.84318,0.02047
2203.78357,0.02009
2201.72396,0.02040
2199.66435,0.02084
2197.60474,0.02092
2195.54513,0.02088
2193.48552,0.02072
2191.42591,0.02032
2189.36630,0.02005
2187.30669,0.02007
2185.24708,0.01993
2183.18747,0.01974
2181.12785,0.01991
2179.06824,0.02016
2177.00863,0.02015
2174.94902,0.01971
2172.88941,0.01913
2170.82980,0.01924
2168.77019,0.01979
2166.71058,0.01981
2164.65097,0.01948
2162.59136,0.01906
2160.53175,0.01807
2158.47214,0.01726
2156.41253,0.01782
2154.35291,0.01885
2152.29330,0.01952
2150.23369,0.02019
2148.17408,0.02051
2146.11447,0.02015
2144.05486,0.01963
2141.99525,0.01938
2139.93564,0.01956
2137.87603,0.01993
2135.81642,0.02002
2133.75681,0.01979
2131.69720,0.01967
2129.63758,0.01993
2127.57797,0.02057
2125.51836,0.02122
2123.45875,0.02141
2121.39914,0.02135
2119.33953,0.02150
2117.27992,0.02182
2115.22031,0.02190
2113.16070,0.02159
2111.10109,0.02133
2109.04148,0.02132
2106.98187,0.02142
2104.92225,0.02158
2102.86264,0.02153
2100.80303,0.02123
2098.74342,0.02105
2096.68381,0.02102
2094.62420,0.02100
2092.56459,0.02120
2090.50498,0.02153
2088.44537,0.02158
2086.38576,0.02126
2084.32615,0.02089
2082.26654,0.02082
2080.20692,0.02101
2078.14731,0.02116
2076.08770,0.02111
2074.02809,0.02102
2071.96848,0.02095
2069.90887,0.02070
2067.84926,0.02038
2065.78965,0.02031
2063.73004,0.02033
2061.67043,0.02051
2059.61082,0.02056
2057.55121,0.01997
2055.49160,0.01936
2053.43198,0.01933
2051.37237,0.01953
2049.31276,0.01919
2047.25315,0.01859
2045.19354,0.01872
2043.13393,0.01904
2041.07432,0.01850
2039.01471,0.01769
2036.95510,0.01762
2034.89549,0.01791
2032.83588,0.01799
2030.77627,0.01799
2028.71665,0.01797
2026.65704,0.01789
2024.59743,0.01784
2022.53782,0.01765
2020.47821,0.01738
2018.41860,0.01745
2016.35899,0.01750
2014.29938,0.01739
2012.23977,0.01742
2010.18016,0.01740
2008.12055,0.01746
2006.06094,0.01781
2004.00132,0.01806
2001.94171,0.01794
1999.88210,0.01763
1997.82249,0.01735
1995.76288,0.01740
1993.70327,0.01792
1991.64366,0.01809
1989.58405,0.01764
1987.52444,0.01754
1985.46483,0.01769
1983.40522,0.01773
1981.34561,0.01756
1979.28599,0.01713
1977.22638,0.01651
1975.16677,0.01613
1973.10716,0.01613
1971.04755,0.01604
1968.98794,0.01602
1966.92833,0.01610
1964.86872,0.01601
1962.80911,0.01643
1960.74950,0.01719
1958.68989,0.01753
1956.63028,0.01761
1954.57067,0.01762
1952.51105,0.01760
1950.45144,0.01776
1948.39183,0.01796
1946.33222,0.01805
1944.27261,0.01839
1942.21300,0.01865
1940.15339,0.01829
1938.09378,0.01813
1936.03417,0.01820
1933.97456,0.01824
1931.91495,0.01825
1929.85534,0.01820
1927.79572,0.01804
1925.73611,0.01810
1923.67650,0.01859
1921.61689,0.01874
1919.55728,0.01898
1917.49767,0.01911
1915.43806,0.01852
1913.37845,0.01839
1911.31884,0.01875
1909.25923,0.01888
1907.19962,0.01858
1905.14001,0.01836
1903.08039,0.01836
1901.02078,0.01838
1898.96117,0.01845
1896.90156,0.01864
1894.84195,0.01858
1892.78234,0.01833
1890.72273,0.01870
1888.66312,0.01896
1886.60351,0.01865
1884.54390,0.01840
1882.48429,0.01816
1880.42468,0.01808
1878.36506,0.01817
1876.30545,0.01822
1874.24584,0.01807
1872.18623,0.01809
1870.12662,0.01872
1868.06701,0.01885
1866.00740,0.01805
1863.94779,0.01767
1861.88818,0.01791
1859.82857,0.01804
1857.76896,0.01785
1855.70935,0.01765
1853.64974,0.01760
1851.59012,0.01753
1849.53051,0.01736
1847.47090,0.01725
1845.41129,0.01767
1843.35168,0.01778
1841.29207,0.01714
1839.23246,0.01718
1837.17285,0.01746
1835.11324,0.01719
1833.05363,0.01703
1830.99402,0.01761
1828.93441,0.01761
1826.87479,0.01714
1824.81518,0.01717
1822.75557,0.01690
1820.69596,0.01668
1818.63635,0.01669
1816.57674,0.01654
1814.51713,0.01634
1812.45752,0.01662
1810.39791,0.01691
1808.33830,0.01673
1806.27869,0.01644
1804.21908,0.01647
1802.15946,0.01688
1800.09985,0.01693
1798.04024,0.01630
1795.98063,0.01590
1793.92102,0.01647
1791.86141,0.01687
1789.80180,0.01595
1787.74219,0.01541
1785.68258,0.01564
1783.62297,0.01561
1781.56336,0.01559
1779.50375,0.01536
1777.44413,0.01470
1775.38452,0.01459
1773.32491,0.01534
1771.26530,0.01545
1769.20569,0.01492
1767.14608,0.01457
1765.08647,0.01427
1763.02686,0.01473
1760.96725,0.01474
1758.90764,0.01427
1756.84803,0.01420
1754.78842,0.01373
1752.72881,0.01397
1750.66919,0.01466
1748.60958,0.01440
1746.54997,0.01379
1744.49036,0.01357
1742.43075,0.01366
1740.37114,0.01368
1738.31153,0.01283
1736.25192,0.01296
1734.19231,0.01434
1732.13270,0.01348
1730.07309,0.01250
1728.01348,0.01234
1725.95386,0.01239
1723.89425,0.01229
1721.83464,0.01175
1719.77503,0.01231
1717.71542,0.01343
1715.65581,0.01295
1713.59620,0.01224
1711.53659,0.01231
1709.47698,0.01298
1707.41737,0.01415
1705.35776,0.01507
1703.29815,0.01580
1701.23853,0.01878
1699.17892,0.02191
1697.11931,0.02497
1695.05970,0.02802
1693.00009,0.02930
1690.94048,0.03091
1688.88087,0.03237
1686.82126,0.03438
1684.76165,0.03865
1682.70204,0.04115
1680.64243,0.04194
1678.58282,0.04369
1676.52320,0.04671
1674.46359,0.04927
1672.40398,0.05133
1670.34437,0.05515
1668.28476,0.05824
1666.22515,0.06001
1664.16554,0.06339
1662.10593,0.06725
1660.04632,0.06927
1657.98671,0.07046
1655.92710,0.07336
1653.86749,0.07848
1651.80788,0.07958
1649.74826,0.07893
1647.68865,0.08172
1645.62904,0.08367
1643.56943,0.08336
1641.50982,0.08328
1639.45021,0.08362
1637.39060,0.08499
1635.33099,0.08593
1633.27138,0.08449
1631.21177,0.08373
1629.15216,0.08426
1627.09255,0.08441
1625.03293,0.08479
1622.97332,0.08531
1620.91371,0.08458
1618.85410,0.08503
1616.79449,0.08668
1614.73488,0.08652
1612.67527,0.08618
1610.61566,0.08676
1608.55605,0.08705
1606.49644,0.08666
1604.43683,0.08604
1602.37722,0.08513
1600.31760,0.08363
1598.25799,0.08183
1596.19838,0.07988
1594.13877,0.07747
1592.07916,0.07466
1590.01955,0.07174
1587.95994,0.06869
1585.90033,0.06562
1583.84072,0.06262
1581.78111,0.05950
1579.72150,0.05686
1577.66189,0.05574
1575.60227,0.05424
1573.54266,0.05157
1571.48305,0.05141
1569.42344,0.05251
1567.36383,0.05218
1565.30422,0.05182
1563.24461,0.05173
1561.18500,0.05415
1559.12539,0.05889
1557.06578,0.05975
1555.00617,0.06048
1552.94656,0.06289
1550.88695,0.06576
1548.82733,0.06801
1546.76772,0.06973
1544.70811,0.07205
1542.64850,0.07530
1540.58889,0.07974
1538.52928,0.08126
1536.46967,0.08116
1534.41006,0.08368
1532.35045,0.08596
1530.29084,0.08661
1528.23123,0.08796
1526.17162,0.08928
1524.11200,0.09046
1522.05239,0.09275
1519.99278,0.09416
1517.93317,0.09560
1515.87356,0.09718
1513.81395,0.09741
1511.75434,0.09725
1509.69473,0.09815
1507.63512,0.10037
1505.57551,0.09935
1503.51590,0.09616
1501.45629,0.09495
1499.39667,0.09480
1497.33706,0.09356
1495.27745,0.09039
1493.21784,0.08734
1491.15823,0.08576
1489.09862,0.08316
1487.03901,0.07905
1484.97940,0.07544
1482.91979,0.07287
1480.86018,0.07039
1478.80057,0.06776
1476.74096,0.06576
1474.68134,0.06461
1472.62173,0.06401
1470.56212,0.06254
1468.50251,0.06151
1466.44290,0.06184
1464.38329,0.06145
1462.32368,0.05998
1460.26407,0.06060
1458.20446,0.06386
1456.14485,0.06558
1454.08524,0.06488
1452.02563,0.06489
1449.96602,0.06563
1447.90640,0.06602
1445.84679,0.06542
1443.78718,0.06452
1441.72757,0.06349
1439.66796,0.06256
1437.60835,0.06245
1435.54874,0.06137
1433.48913,0.05965
1431.42952,0.05930
1429.36991,0.05910
1427.31030,0.05839
1425.25069,0.05815
1423.19107,0.05794
1421.13146,0.05838
1419.07185,0.05967
1417.01224,0.05963
1414.95263,0.05932
1412.89302,0.05976
1410.83341,0.06018
1408.77380,0.06030
1406.71419,0.06067
1404.65458,0.06080
1402.59497,0.06019
1400.53536,0.06011
1398.47574,0.06032
1396.41613,0.06045
1394.35652,0.06053
1392.29691,0.06004
1390.23730,0.06021
1388.17769,0.06123
1386.11808,0.06145
1384.05847,0.06093
1381.99886,0.06077
1379.93925,0.06071
1377.87964,0.06057
1375.82003,0.06082
1373.76041,0.06108
1371.70080,0.06076
1369.64119,0.06060
1367.58158,0.06029
1365.52197,0.05986
1363.46236,0.05988
1361.40275,0.05940
1359.34314,0.05845
1357.28353,0.05792
1355.22392,0.05774
1353.16431,0.05759
1351.10470,0.05749
1349.04508,0.05744
1346.98547,0.05735
1344.92586,0.05728
1342.86625,0.05744
1340.80664,0.05812
1338.74703,0.05868
1336.68742,0.05858
1334.62781,0.05849
1332.56820,0.05865
1330.50859,0.05877
1328.44898,0.05873
1326.38937,0.05865
1324.32976,0.05858
1322.27014,0.05856
1320.21053,0.05867
1318.15092,0.05869
1316.09131,0.05858
1314.03170,0.05862
1311.97209,0.05862
1309.91248,0.05855
1307.85287,0.05860
1305.79326,0.05860
1303.73365,0.05858
1301.67404,0.05857
1299.61443,0.05853
1297.55481,0.05840
1295.49520,0.05821
1293.43559,0.05804
1291.37598,0.05793
1289.31637,0.05788
1287.25676,0.05779
1285.19715,0.05762
1283.13754,0.05753
1281.07793,0.05746
1279.01832,0.05729
1276.95871,0.05711
1274.89910,0.05703
1272.83948,0.05703
1270.77987,0.05699
1268.72026,0.05692
1266.66065,0.05698
1264.60104,0.05715
1262.54143,0.05735
1260.48182,0.05757
1258.42221,0.05784
1256.36260,0.05830
1254.30299,0.05891
1252.24338,0.05957
1250.18377,0.06024
1248.12415,0.06081
1246.06454,0.06131
1244.00493,0.06176
1241.94532,0.06214
1239.88571,0.06253
1237.82610,0.06291
1235.76649,0.06321
1233.70688,0.06341
1231.64727,0.06344
1229.58766,0.06333
1227.52805,0.06319
1225.46844,0.06300
1223.40883,0.06265
1221.34921,0.06227
1219.28960,0.06195
1217.22999,0.06160
1215.17038,0.06110
1213.11077,0.06047
1211.05116,0.05976
1208.99155,0.05897
1206.93194,0.05810
1204.87233,0.05716
1202.81272,0.05624
1200.75311,0.05538
1198.69350,0.05451
1196.63388,0.05365
1194.57427,0.05282
1192.51466,0.05207
1190.45505,0.05145
1188.39544,0.05096
1186.33583,0.05054
1184.27622,0.05018
1182.21661,0.04993
1180.15700,0.04985
1178.09739,0.04992
1176.03778,0.05012
1173.97817,0.05054
1171.91855,0.05109
1169.85894,0.05161
1167.79933,0.05203
1165.73972,0.05237
1163.68011,0.05271
1161.62050,0.05302
1159.56089,0.05319
1157.50128,0.05312
1155.44167,0.05283
1153.38206,0.05242
1151.32245,0.05194
1149.26284,0.05140
1147.20322,0.05084
1145.14361,0.05038
1143.08400,0.05005
1141.02439,0.04983
1138.96478,0.04963
1136.90517,0.04945
1134.84556,0.04933
1132.78595,0.04930
1130.72634,0.04933
1128.66673,0.04939
1126.60712,0.04942
1124.54751,0.04936
1122.48790,0.04922
1120.42828,0.04901
1118.36867,0.04873
1116.30906,0.04840
1114.24945,0.04814
1112.18984,0.04805
1110.13023,0.04802
1108.07062,0.04792
1106.01101,0.04784
1103.95140,0.04779
1101.89179,0.04776
1099.83218,0.04769
1097.77257,0.04756
1095.71295,0.04752
1093.65334,0.04773
1091.59373,0.04818
1089.53412,0.04881
1087.47451,0.04957
1085.41490,0.05039
1083.35529,0.05130
1081.29568,0.05237
1079.23607,0.05354
1077.17646,0.05461
1075.11685,0.05550
1073.05724,0.05636
1070.99762,0.05722
1068.93801,0.05797
1066.87840,0.05859
1064.81879,0.05912
1062.75918,0.05961
1060.69957,0.06001
1058.63996,0.06025
1056.58035,0.06027
1054.52074,0.06018
1052.46113,0.06013
1050.40152,0.06011
1048.34191,0.05998
1046.28229,0.05973
1044.22268,0.05939
1042.16307,0.05893
1040.10346,0.05842
1038.04385,0.05788
1035.98424,0.05723
1033.92463,0.05652
1031.86502,0.05587
1029.80541,0.05529
1027.74580,0.05468
1025.68619,0.05392
1023.62658,0.05303
1021.56697,0.05203
1019.50735,0.05104
1017.44774,0.05020
1015.38813,0.04942
1013.32852,0.04869
1011.26891,0.04800
1009.20930,0.04723
1007.14969,0.04639
1005.09008,0.04570
1003.03047,0.04523
1000.97086,0.04489
998.91125,0.04447
996.85164,0.04398
994.79202,0.04356
992.73241,0.04319
990.67280,0.04284
988.61319,0.04252
986.55358,0.04223
984.49397,0.04195
982.43436,0.04171
980.37475,0.04157
978.31514,0.04145
976.25553,0.04131
974.19592,0.04121
972.13631,0.04117
970.07669,0.04126
968.01708,0.04150
965.95747,0.04181
963.89786,0.04209
961.83825,0.04222
959.77864,0.04216
957.71903,0.04208
955.65942,0.04200
953.59981,0.04174
951.54020,0.04140
949.48059,0.04118
947.42098,0.04109
945.36136,0.04098
943.30175,0.04088
941.24214,0.04080
939.18253,0.04074
937.12292,0.04070
935.06331,0.04072
933.00370,0.04082
930.94409,0.04083
928.88448,0.04065
926.82487,0.04046
924.76526,0.04038
922.70565,0.04031
920.64604,0.04012
918.58642,0.03986
916.52681,0.03963
914.46720,0.03935
912.40759,0.03905
910.34798,0.03899
908.28837,0.03912
906.22876,0.03932
904.16915,0.03953
902.10954,0.03959
900.04993,0.03954
897.99032,0.03947
895.93071,0.03944
893.87109,0.03937
891.81148,0.03920
889.75187,0.03900
887.69226,0.03883
885.63265,0.03865
883.57304,0.03845
881.51343,0.03825
879.45382,0.03796
877.39421,0.03751
875.33460,0.03717
873.27499,0.03701
871.21538,0.03693
869.15576,0.03686
867.09615,0.03677
865.03654,0.03671
862.97693,0.03667
860.91732,0.03645
858.85771,0.03608
856.79810,0.03584
854.73849,0.03581
852.67888,0.03573
850.61927,0.03555
848.55966,0.03545
846.50005,0.03543
844.44043,0.03537
842.38082,0.03537
840.32121,0.03552
838.26160,0.03566
836.20199,0.03574
834.14238,0.03582
832.08277,0.03593
830.02316,0.03626
827.96355,0.03672
825.90394,0.03694
823.84433,0.03685
821.78472,0.03667
819.72511,0.03661
817.66549,0.03683
815.60588,0.03725
813.54627,0.03754
811.48666,0.03769
809.42705,0.03791
807.36744,0.03817
805.30783,0.03836
803.24822,0.03835
801.18861,0.03816
799.12900,0.03823
797.06939,0.03865
795.00978,0.03905
792.95016,0.03932
790.89055,0.03952
788.83094,0.03977
786.77133,0.04013
784.71172,0.04058
782.65211,0.04105
780.59250,0.04146
778.53289,0.04185
776.47328,0.04225
774.41367,0.04263
772.35406,0.04304
770.29445,0.04347
768.23483,0.04378
766.17522,0.04401
764.11561,0.04433
762.05600,0.04482
759.99639,0.04531
757.93678,0.04552
755.87717,0.04566
753.81756,0.04615
751.75795,0.04678
749.69834,0.04720
747.63873,0.04750
745.57912,0.04778
743.51950,0.04800
741.45989,0.04815
739.40028,0.04820
737.34067,0.04809
735.28106,0.04798
733.22145,0.04814
731.16184,0.04843
729.10223,0.04882
727.04262,0.04943
724.98301,0.05023
722.92340,0.05099
720.86379,0.05167
718.80418,0.05356
716.74456,0.05498
714.68495,0.05641
712.62534,0.05765
710.56573,0.05888
708.50612,0.06049
706.44651,0.06236
704.38690,0.06419
702.32729,0.06576
700.26768,0.06705
698.20807,0.06814
696.14846,0.06898
694.08885,0.06939
692.02923,0.06952
689.96962,0.06972
687.91001,0.07001
685.85040,0.07048
683.79079,0.07127
681.73118,0.07188
679.67157,0.07198
677.61196,0.07215
675.55235,0.07259
673.49274,0.07247
671.43313,0.07586
669.37352,0.08314
667.31390,0.06729
665.25429,0.07430
663.19468,0.07590
661.13507,0.07547
659.07546,0.07585
657.01585,0.07645
654.95624,0.07679
652.89663,0.07718
650.83702,0.07780
648.77741,0.07807
646.71780,0.07844
644.65819,0.07844
642.59857,0.07864
640.53896,0.07929
638.47935,0.07988
636.41974,0.08013
634.36013,0.08041
632.30052,0.08103
630.24091,0.08181
628.18130,0.08236
626.12169,0.08267
624.06208,0.08313
622.00247,0.08384
619.94286,0.08419
617.88325,0.08415
615.82363,0.08410
613.76402,0.08392
611.70441,0.08362
609.64480,0.08358
607.58519,0.08397
605.52558,0.08442
603.46597,0.08473
601.40636,0.08504
599.34675,0.08515
597.28714,0.08509
595.22753,0.08502
593.16792,0.08486
591.10830,0.08464
589.04869,0.08472
586.98908,0.08535
584.92947,0.08608
582.86986,0.08673
580.81025,0.08725
578.75064,0.08759
576.69103,0.08805
574.63142,0.08842
572.57181,0.08876
570.51220,0.08903
568.45259,0.08880
566.39297,0.08841
564.33336,0.08857
562.27375,0.08919
560.21414,0.08973
558.15453,0.09022
556.09492,0.09070
554.03531,0.09073
551.97570,0.09054
549.91609,0.09062
547.85648,0.09087
545.79687,0.09122
543.73726,0.09156
541.67764,0.09175
539.61803,0.09163
537.55842,0.09146
535.49881,0.09167
533.43920,0.09217
531.37959,0.09242
529.31998,0.09251
527.26037,0.09304
525.20076,0.09333
523.14115,0.09330
521.08154,0.09383
519.02193,0.09467
516.96232,0.09495
514.90270,0.09456
512.84309,0.09435
510.78348,0.09427
508.72387,0.09396
506.66426,0.09332
504.60465,0.09283
502.54504,0.09292
500.48543,0.09264
498.42582,0.09224
496.36621,0.09202
494.30660,0.09169
492.24699,0.09147
490.18737,0.09152
488.12776,0.09179
486.06815,0.09214
484.00854,0.09245
481.94893,0.09263
479.88932,0.09272
477.82971,0.09243
475.77010,0.09207
473.71049,0.09246
471.65088,0.09263
469.59127,0.09256
467.53166,0.09326
465.47204,0.09405
463.41243,0.09443
461.35282,0.09418
459.29321,0.09405
457.23360,0.09421
455.17399,0.09439
453.11438,0.09463
451.05477,0.09414
448.99516,0.09330
446.93555,0.09232
444.87594,0.09116
442.81633,0.09045
440.75671,0.09006
438.69710,0.08987
436.63749,0.08974
434.57788,0.08931
432.51827,0.08899
430.45866,0.08893
428.39905,0.08882
426.33944,0.08895
424.27983,0.08913
422.22022,0.08887
420.16061,0.08834
418.10100,0.08601
416.04138,0.08343
413.98177,0.08411
411.92216,0.08610
409.86255,0.08671
407.80294,0.08604
405.74333,0.08513
403.68372,0.08429
401.62411,0.08333
399.56450,0.08211
