3997.70460,0.01943
3995.64498,0.01961
3993.58537,0.01964
3991.52576,0.01971
3989.46615,0.01982
3987.40654,0.01981
3985.34693,0.01979
3983.28732,0.01975
3981.22771,0.01959
3979.16810,0.01945
3977.10849,0.01951
3975.04888,0.01959
3972.98927,0.01955
3970.92965,0.01956
3968.87004,0.01963
3966.81043,0.01963
3964.75082,0.01967
3962.69121,0.01978
3960.63160,0.01966
3958.57199,0.01952
3956.51238,0.01956
3954.45277,0.01959
3952.39316,0.01969
3950.33355,0.01982
3948.27394,0.01954
3946.21432,0.01904
3944.15471,0.01925
3942.09510,0.01961
3940.03549,0.01947
3937.97588,0.01935
3935.91627,0.01940
3933.85666,0.01973
3931.79705,0.01995
3929.73744,0.01969
3927.67783,0.01961
3925.61822,0.01995
3923.55861,0.01979
3921.49900,0.01937
3919.43938,0.01957
3917.37977,0.01995
3915.32016,0.01977
3913.26055,0.01937
3911.20094,0.01911
3909.14133,0.01886
3907.08172,0.01917
3905.02211,0.01988
3902.96250,0.01991
3900.90289,0.01973
3898.84328,0.01949
3896.78367,0.01875
3894.72405,0.01882
3892.66444,0.01986
3890.60483,0.01975
3888.54522,0.01902
3886.48561,0.01961
3884.42600,0.01961
3882.36639,0.01949
3880.30678,0.01978
3878.24717,0.01897
3876.18756,0.01889
3874.12795,0.01940
3872.06834,0.01960
3870.00872,0.01982
3867.94911,0.01907
3865.88950,0.01930
3863.82989,0.01998
3861.77028,0.01947
3859.71067,0.01845
3857.65106,0.01805
3855.59145,0.01958
3853.53184,0.02130
3851.47223,0.02000
3849.41262,0.01861
3847.35301,0.01853
3845.29339,0.01899
3843.23378,0.01909
3841.17417,0.01903
3839.11456,0.01955
3837.05495,0.01946
3834.99534,0.01880
3832.93573,0.01882
3830.87612,0.01887
3828.81651,0.01872
3826.75690,0.01846
3824.69729,0.01793
3822.63768,0.01874
3820.57807,0.01902
3818.51845,0.01815
3816.45884,0.01878
3814.39923,0.01872
3812.33962,0.01819
3810.28001,0.01847
3808.22040,0.01910
3806.16079,0.01848
3804.10118,0.01782
3802.04157,0.01898
3799.98196,0.01887
3797.92235,0.01863
3795.86274,0.01900
3793.80312,0.01871
3791.74351,0.01850
3789.68390,0.01846
3787.62429,0.01846
3785.56468,0.01857
3783.50507,0.01844
3781.44546,0.01874
3779.38585,0.01927
3777.32624,0.01885
3775.26663,0.01828
3773.20702,0.01821
3771.14741,0.01865
3769.08779,0.01868
3767.02818,0.01848
3764.96857,0.01832
3762.90896,0.01791
3760.84935,0.01835
3758.78974,0.01863
3756.73013,0.01792
3754.67052,0.01774
3752.61091,0.01876
3750.55130,0.01878
3748.49169,0.01702
3746.43208,0.01745
3744.37246,0.01925
3742.31285,0.01814
3740.25324,0.01698
3738.19363,0.01757
3736.13402,0.01873
3734.07441,0.01893
3732.01480,0.01820
3729.95519,0.01732
3727.89558,0.01756
3725.83597,0.01813
3723.77636,0.01814
3721.71675,0.01808
3719.65714,0.01787
3717.59752,0.01745
3715.53791,0.01740
3713.47830,0.01850
3711.41869,0.01935
3709.35908,0.01855
3707.29947,0.01755
3705.23986,0.01750
3703.18025,0.01824
3701.12064,0.01842
3699.06103,0.01776
3697.00142,0.01743
3694.94181,0.01723
3692.88219,0.01736
3690.82258,0.01813
3688.76297,0.01836
3686.70336,0.01741
3684.64375,0.01690
3682.58414,0.01708
3680.52453,0.01718
3678.46492,0.01766
3676.40531,0.01877
3674.34570,0.01760
3672.28609,0.01640
3670.22648,0.01765
3668.16686,0.01760
3666.10725,0.01701
3664.04764,0.01736
3661.98803,0.01758
3659.92842,0.01746
3657.86881,0.01785
3655.80920,0.01766
3653.74959,0.01662
3651.68998,0.01753
3649.63037,0.01920
3647.57076,0.01888
3645.51115,0.01762
3643.45153,0.01730
3641.39192,0.01769
3639.33231,0.01796
3637.27270,0.01808
3635.21309,0.01804
3633.15348,0.01767
3631.09387,0.01825
3629.03426,0.01975
3626.97465,0.01913
3624.91504,0.01815
3622.85543,0.01840
3620.79582,0.01934
3618.73621,0.01951
3616.67659,0.01874
3614.61698,0.01877
3612.55737,0.01891
3610.49776,0.01886
3608.43815,0.01934
3606.37854,0.01922
3604.31893,0.01877
3602.25932,0.01890
3600.19971,0.01919
3598.14010,0.01932
3596.08049,0.01961
3594.02088,0.01962
3591.96126,0.01924
3589.90165,0.01962
3587.84204,0.02052
3585.78243,0.02016
3583.72282,0.01957
3581.66321,0.01976
3579.60360,0.02008
3577.54399,0.02020
3575.48438,0.02024
3573.42477,0.02007
3571.36516,0.01992
3569.30555,0.02066
3567.24593,0.02171
3565.18632,0.02144
3563.12671,0.02079
3561.06710,0.02086
3559.00749,0.02114
3556.94788,0.02132
3554.88827,0.02168
3552.82866,0.02202
3550.76905,0.02190
3548.70944,0.02202
3546.64983,0.02257
3544.59022,0.02259
3542.53060,0.02214
3540.47099,0.02194
3538.41138,0.02219
3536.35177,0.02253
3534.29216,0.02264
3532.23255,0.02273
3530.17294,0.02291
3528.11333,0.02318
3526.05372,0.02353
3523.99411,0.02381
3521.93450,0.02369
3519.87489,0.02355
3517.81528,0.02377
3515.75566,0.02397
3513.69605,0.02401
3511.63644,0.02414
3509.57683,0.02440
3507.51722,0.02444
3505.45761,0.02470
3503.39800,0.02521
3501.33839,0.02523
3499.27878,0.02517
3497.21917,0.02547
3495.15956,0.02572
3493.09995,0.02577
3491.04033,0.02580
3488.98072,0.02586
3486.92111,0.02579
3484.86150,0.02577
3482.80189,0.02603
3480.74228,0.02622
3478.68267,0.02627
3476.62306,0.02648
3474.56345,0.02667
3472.50384,0.02680
3470.44423,0.02703
3468.38462,0.02735
3466.32500,0.02763
3464.26539,0.02784
3462.20578,0.02801
3460.14617,0.02811
3458.08656,0.02825
3456.02695,0.02836
3453.96734,0.02841
3451.90773,0.02848
3449.84812,0.02878
3447.78851,0.02928
3445.72890,0.02923
3443.66929,0.02905
3441.60967,0.02919
3439.55006,0.02931
3437.49045,0.02949
3435.43084,0.02966
3433.37123,0.02975
3431.31162,0.02987
3429.25201,0.03003
3427.19240,0.03020
3425.13279,0.03037
3423.07318,0.03061
3421.01357,0.03086
3418.95396,0.03095
3416.89435,0.03107
3414.83473,0.03131
3412.77512,0.03155
3410.71551,0.03175
3408.65590,0.03182
3406.59629,0.03183
3404.53668,0.03196
3402.47707,0.03208
3400.41746,0.03204
3398.35785,0.03215
3396.29824,0.03242
3394.23863,0.03277
3392.17902,0.03298
3390.11940,0.03296
3388.05979,0.03301
3386.00018,0.03327
3383.94057,0.03360
3381.88096,0.03375
3379.82135,0.03374
3377.76174,0.03388
3375.70213,0.03424
3373.64252,0.03462
3371.58291,0.03485
3369.52330,0.03496
3367.46369,0.03504
3365.40407,0.03519
3363.34446,0.03542
3361.28485,0.03564
3359.22524,0.03586
3357.16563,0.03630
3355.10602,0.03680
3353.04641,0.03710
3350.98680,0.03729
3348.92719,0.03749
3346.86758,0.03774
3344.80797,0.03808
3342.74836,0.03843
3340.68874,0.03872
3338.62913,0.03901
3336.56952,0.03930
3334.50991,0.03960
3332.45030,0.04001
3330.39069,0.04048
3328.33108,0.04097
3326.27147,0.04147
3324.21186,0.04186
3322.15225,0.04222
3320.09264,0.04274
3318.03303,0.04326
3315.97342,0.04365
3313.91380,0.04410
3311.85419,0.04466
3309.79458,0.04522
3307.73497,0.04571
3305.67536,0.04623
3303.61575,0.04680
3301.55614,0.04732
3299.49653,0.04792
3297.43692,0.04862
3295.37731,0.04928
3293.31770,0.04983
3291.25809,0.05038
3289.19847,0.05104
3287.13886,0.05166
3285.07925,0.05206
3283.01964,0.05253
3280.96003,0.05321
3278.90042,0.05378
3276.84081,0.05417
3274.78120,0.05445
3272.72159,0.05464
3270.66198,0.05488
3268.60237,0.05510
3266.54276,0.05512
3264.48314,0.05505
3262.42353,0.05498
3260.36392,0.05481
3258.30431,0.05463
3256.24470,0.05453
3254.18509,0.05432
3252.12548,0.05389
3250.06587,0.05344
3248.00626,0.05316
3245.94665,0.05286
3243.88704,0.05233
3241.82743,0.05186
3239.76781,0.05165
3237.70820,0.05142
3235.64859,0.05104
3233.58898,0.05074
3231.52937,0.05047
3229.46976,0.05010
3227.41015,0.04983
3225.35054,0.04973
3223.29093,0.04958
3221.23132,0.04929
3219.17171,0.04897
3217.11210,0.04858
3215.05248,0.04836
3212.99287,0.04835
3210.93326,0.04834
3208.87365,0.04809
3206.81404,0.04765
3204.75443,0.04729
3202.69482,0.04707
3200.63521,0.04696
3198.57560,0.04686
3196.51599,0.04663
3194.45638,0.04648
3192.39677,0.04648
3190.33716,0.04638
3188.27754,0.04604
3186.21793,0.04562
3184.15832,0.04533
3182.09871,0.04516
3180.03910,0.04498
3177.97949,0.04473
3175.91988,0.04443
3173.86027,0.04420
3171.80066,0.04398
3169.74105,0.04375
3167.68144,0.04350
3165.62183,0.04314
3163.56221,0.04277
3161.50260,0.04249
3159.44299,0.04228
3157.38338,0.04204
3155.32377,0.04167
3153.26416,0.04123
3151.20455,0.04086
3149.14494,0.04065
3147.08533,0.04050
3145.02572,0.04038
3142.96611,0.04020
3140.90650,0.03995
3138.84688,0.03970
3136.78727,0.03948
3134.72766,0.03935
3132.66805,0.03923
3130.60844,0.03896
3128.54883,0.03856
3126.48922,0.03813
3124.42961,0.03791
3122.37000,0.03788
3120.31039,0.03786
3118.25078,0.03786
3116.19117,0.03778
3114.13155,0.03750
3112.07194,0.03722
3110.01233,0.03708
3107.95272,0.03704
3105.89311,0.03702
3103.83350,0.03693
3101.77389,0.03679
3099.71428,0.03670
3097.65467,0.03674
3095.59506,0.03679
3093.53545,0.03673
3091.47584,0.03673
3089.41623,0.03683
3087.35661,0.03692
3085.29700,0.03695
3083.23739,0.03692
3081.17778,0.03682
3079.11817,0.03671
3077.05856,0.03679
3074.99895,0.03699
3072.93934,0.03705
3070.87973,0.03690
3068.82012,0.03676
3066.76051,0.03685
3064.70090,0.03702
3062.64128,0.03701
3060.58167,0.03680
3058.52206,0.03666
3056.46245,0.03670
3054.40284,0.03676
3052.34323,0.03673
3050.28362,0.03668
3048.22401,0.03668
3046.16440,0.03663
3044.10479,0.03641
3042.04518,0.03613
3039.98557,0.03596
3037.92595,0.03588
3035.86634,0.03584
3033.80673,0.03577
3031.74712,0.03555
3029.68751,0.03525
3027.62790,0.03512
3025.56829,0.03512
3023.50868,0.03504
3021.44907,0.03486
3019.38946,0.03461
3017.32985,0.03435
3015.27024,0.03419
3013.21062,0.03407
3011.15101,0.03387
3009.09140,0.03360
3007.03179,0.03337
3004.97218,0.03322
3002.91257,0.03308
3000.85296,0.03295
2998.79335,0.03285
2996.73374,0.03288
2994.67413,0.03303
2992.61452,0.03312
2990.55491,0.03309
2988.49530,0.03317
2986.43568,0.03342
2984.37607,0.03371
2982.31646,0.03403
2980.25685,0.03432
2978.19724,0.03449
2976.13763,0.03466
2974.07802,0.03491
2972.01841,0.03507
2969.95880,0.03511
2967.89919,0.03519
2965.83958,0.03529
2963.77997,0.03524
2961.72035,0.03499
2959.66074,0.03462
2957.60113,0.03424
2955.54152,0.03411
2953.48191,0.03432
2951.42230,0.03458
2949.36269,0.03476
2947.30308,0.03490
2945.24347,0.03491
2943.18386,0.03481
2941.12425,0.03479
2939.06464,0.03481
2937.00502,0.03457
2934.94541,0.03403
2932.88580,0.03338
2930.82619,0.03264
2928.76658,0.03149
2926.70697,0.02975
2924.64736,0.02733
2922.58775,0.02411
2920.52814,0.02017
2918.46853,0.01624
2916.40892,0.01442
2914.34931,0.01660
2912.28969,0.02135
2910.23008,0.02551
2908.17047,0.02794
2906.11086,0.02918
2904.05125,0.02978
2901.99164,0.03007
2899.93203,0.03039
2897.87242,0.03077
2895.81281,0.03102
2893.75320,0.03115
2891.69359,0.03126
2889.63398,0.03145
2887.57437,0.03172
2885.51475,0.03203
2883.45514,0.03240
2881.39553,0.03282
2879.33592,0.03317
2877.27631,0.03342
2875.21670,0.03359
2873.15709,0.03373
2871.09748,0.03380
2869.03787,0.03364
2866.97826,0.03327
2864.91865,0.03283
2862.85904,0.03231
2860.79942,0.03164
2858.73981,0.03078
2856.68020,0.02954
2854.62059,0.02748
2852.56098,0.02410
2850.50137,0.02019
2848.44176,0.01880
2846.38215,0.02159
2844.32254,0.02591
2842.26293,0.02886
2840.20332,0.03028
2838.14371,0.03097
2836.08409,0.03134
2834.02448,0.03155
2831.96487,0.03166
2829.90526,0.03166
2827.84565,0.03159
2825.78604,0.03158
2823.72643,0.03161
2821.66682,0.03155
2819.60721,0.03151
2817.54760,0.03157
2815.48799,0.03160
2813.42838,0.03150
2811.36876,0.03135
2809.30915,0.03115
2807.24954,0.03097
2805.18993,0.03093
2803.13032,0.03100
2801.07071,0.03099
2799.01110,0.03092
2796.95149,0.03089
2794.89188,0.03087
2792.83227,0.03084
2790.77266,0.03085
2788.71305,0.03087
2786.65344,0.03086
2784.59382,0.03082
2782.53421,0.03074
2780.47460,0.03067
2778.41499,0.03068
2776.35538,0.03072
2774.29577,0.03076
2772.23616,0.03074
2770.17655,0.03061
2768.11694,0.03049
2766.05733,0.03044
2763.99772,0.03036
2761.93811,0.03028
2759.87849,0.03030
2757.81888,0.03035
2755.75927,0.03030
2753.69966,0.03026
2751.64005,0.03023
2749.58044,0.03013
2747.52083,0.03009
2745.46122,0.03011
2743.40161,0.03009
2741.34200,0.03003
2739.28239,0.02994
2737.22278,0.02985
2735.16316,0.02979
2733.10355,0.02978
2731.04394,0.02978
2728.98433,0.02979
2726.92472,0.02983
2724.86511,0.02981
2722.80550,0.02972
2720.74589,0.02967
2718.68628,0.02967
2716.62667,0.02952
2714.56706,0.02930
2712.50745,0.02924
2710.44783,0.02931
2708.38822,0.02935
2706.32861,0.02935
2704.26900,0.02932
2702.20939,0.02926
2700.14978,0.02919
2698.09017,0.02913
2696.03056,0.02905
2693.97095,0.02903
2691.91134,0.02906
2689.85173,0.02903
2687.79212,0.02898
2685.73251,0.02897
2683.67289,0.02891
2681.61328,0.02880
2679.55367,0.02876
2677.49406,0.02879
2675.43445,0.02877
2673.37484,0.02868
2671.31523,0.02856
2669.25562,0.02850
2667.19601,0.02852
2665.13640,0.02858
2663.07679,0.02862
2661.01718,0.02860
2658.95756,0.02852
2656.89795,0.02843
2654.83834,0.02837
2652.77873,0.02837
2650.71912,0.02842
2648.65951,0.02841
2646.59990,0.02831
2644.54029,0.02821
2642.48068,0.02815
2640.42107,0.02814
2638.36146,0.02812
2636.30185,0.02807
2634.24223,0.02806
2632.18262,0.02797
2630.12301,0.02777
2628.06340,0.02765
2626.00379,0.02757
2623.94418,0.02746
2621.88457,0.02745
2619.82496,0.02749
2617.76535,0.02742
2615.70574,0.02727
2613.64613,0.02721
2611.58652,0.02730
2609.52690,0.02733
2607.46729,0.02718
2605.40768,0.02706
2603.34807,0.02704
2601.28846,0.02696
2599.22885,0.02694
2597.16924,0.02708
2595.10963,0.02708
2593.05002,0.02685
2590.99041,0.02664
2588.93080,0.02666
2586.87119,0.02668
2584.81158,0.02649
2582.75196,0.02628
2580.69235,0.02622
2578.63274,0.02623
2576.57313,0.02619
2574.51352,0.02614
2572.45391,0.02624
2570.39430,0.02634
2568.33469,0.02624
2566.27508,0.02610
2564.21547,0.02611
2562.15586,0.02610
2560.09625,0.02601
2558.03663,0.02596
2555.97702,0.02587
2553.91741,0.02572
2551.85780,0.02565
2549.79819,0.02563
2547.73858,0.02571
2545.67897,0.02582
2543.61936,0.02580
2541.55975,0.02579
2539.50014,0.02578
2537.44053,0.02564
2535.38092,0.02558
2533.32130,0.02563
2531.26169,0.02564
2529.20208,0.02563
2527.14247,0.02561
2525.08286,0.02561
2523.02325,0.02566
2520.96364,0.02558
2518.90403,0.02553
2516.84442,0.02558
2514.78481,0.02554
2512.72520,0.02547
2510.66559,0.02541
2508.60597,0.02529
2506.54636,0.02528
2504.48675,0.02546
2502.42714,0.02559
2500.36753,0.02550
2498.30792,0.02527
2496.24831,0.02507
2494.18870,0.02501
2492.12909,0.02505
2490.06948,0.02514
2488.00987,0.02524
2485.95026,0.02527
2483.89065,0.02521
2481.83103,0.02527
2479.77142,0.02547
2477.71181,0.02551
2475.65220,0.02533
2473.59259,0.02516
2471.53298,0.02519
2469.47337,0.02529
2467.41376,0.02523
2465.35415,0.02506
2463.29454,0.02490
2461.23493,0.02487
2459.17532,0.02496
2457.11570,0.02505
2455.05609,0.02510
2452.99648,0.02499
2450.93687,0.02483
2448.87726,0.02486
2446.81765,0.02498
2444.75804,0.02494
2442.69843,0.02482
2440.63882,0.02482
2438.57921,0.02482
2436.51960,0.02468
2434.45999,0.02458
2432.40037,0.02470
2430.34076,0.02494
2428.28115,0.02506
2426.22154,0.02497
2424.16193,0.02486
2422.10232,0.02486
2420.04271,0.02488
2417.98310,0.02482
2415.92349,0.02463
2413.86388,0.02441
2411.80427,0.02431
2409.74466,0.02448
2407.68504,0.02475
2405.62543,0.02479
2403.56582,0.02463
2401.50621,0.02455
2399.44660,0.02425
2397.38699,0.02422
2395.32738,0.02437
2393.26777,0.02457
2391.20816,0.02476
2389.14855,0.02492
2387.08894,0.02509
2385.02933,0.02533
2382.96972,0.02563
2380.91010,0.02583
2378.85049,0.02580
2376.79088,0.02562
2374.73127,0.02486
2372.67166,0.02444
2370.61205,0.02484
2368.55244,0.02501
2366.49283,0.02519
2364.43322,0.02521
2362.37361,0.02526
2360.31400,0.02591
2358.25439,0.02575
2356.19477,0.02584
2354.13516,0.02616
2352.07555,0.02655
2350.01594,0.02795
2347.95633,0.02749
2345.89672,0.02625
2343.83711,0.02600
2341.77750,0.02510
2339.71789,0.02531
2337.65828,0.02545
2335.59867,0.02518
2333.53906,0.02592
2331.47944,0.02616
2329.41983,0.02696
2327.36022,0.02631
2325.30061,0.02590
2323.24100,0.02497
2321.18139,0.02443
2319.12178,0.02420
2317.06217,0.02428
2315.00256,0.02459
2312.94295,0.02468
2310.88334,0.02449
2308.82373,0.02444
2306.76411,0.02453
2304.70450,0.02460
2302.64489,0.02461
2300.58528,0.02463
2298.52567,0.02461
2296.46606,0.02454
2294.40645,0.02443
2292.34684,0.02452
2290.28723,0.02470
2288.22762,0.02451
2286.16801,0.02398
2284.10840,0.02344
2282.04878,0.02309
2279.98917,0.02305
2277.92956,0.02310
2275.86995,0.02307
2273.81034,0.02311
2271.75073,0.02304
2269.69112,0.02286
2267.63151,0.02270
2265.57190,0.02263
2263.51229,0.02254
2261.45268,0.02241
2259.39307,0.02234
2257.33346,0.02221
2255.27384,0.02201
2253.21423,0.02205
2251.15462,0.02219
2249.09501,0.02212
2247.03540,0.02219
2244.97579,0.02209
2242.91618,0.02184
2240.85657,0.02172
2238.79696,0.02177
2236.73735,0.02173
2234.67774,0.02165
2232.61813,0.02172
2230.55851,0.02171
2228.49890,0.02143
2226.43929,0.02122
2224.37968,0.02119
2222.32007,0.02109
2220.26046,0.02097
2218.20085,0.02099
2216.14124,0.02113
2214.08163,0.02114
2212.02202,0.02085
2209.96241,0.02043
2207.90280,0.02009
2205.84318,0.01987
2203.78357,0.01961
2201.72396,0.01959
2199.66435,0.02006
2197.60474,0.02029
2195.54513,0.01968
2193.48552,0.01900
2191.42591,0.01913
2189.36630,0.01976
2187.30669,0.02007
2185.24708,0.01987
2183.18747,0.01969
2181.12785,0.01972
2179.06824,0.01958
2177.00863,0.01922
2174.94902,0.01891
2172.88941,0.01871
2170.82980,0.01855
2168.77019,0.01846
2166.71058,0.01815
2164.65097,0.01748
2162.59136,0.01673
2160.53175,0.01611
2158.47214,0.01594
2156.41253,0.01651
2154.35291,0.01736
2152.29330,0.01799
2150.23369,0.01826
2148.17408,0.01810
2146.11447,0.01784
2144.05486,0.01782
2141.99525,0.01803
2139.93564,0.01847
2137.87603,0.01879
2135.81642,0.01866
2133.75681,0.01861
2131.69720,0.01898
2129.63758,0.01928
2127.57797,0.01941
2125.51836,0.01959
2123.45875,0.01972
2121.39914,0.01993
2119.33953,0.02034
2117.27992,0.02062
2115.22031,0.02060
2113.16070,0.02054
2111.10109,0.02064
2109.04148,0.02073
2106.98187,0.02073
2104.92225,0.02069
2102.86264,0.02051
2100.80303,0.02027
2098.74342,0.02013
2096.68381,0.01995
2094.62420,0.01972
2092.56459,0.01977
2090.50498,0.02014
2088.44537,0.02046
2086.38576,0.02036
2084.32615,0.01990
2082.26654,0.01970
2080.20692,0.02005
2078.14731,0.02047
2076.08770,0.02042
2074.02809,0.02008
2071.96848,0.01978
2069.90887,0.01961
2067.84926,0.01956
2065.78965,0.01942
2063.73004,0.01909
2061.67043,0.01905
2059.61082,0.01923
2057.55121,0.01898
2055.49160,0.01851
2053.43198,0.01857
2051.37237,0.01898
2049.31276,0.01880
2047.25315,0.01804
2045.19354,0.01772
2043.13393,0.01776
2041.07432,0.01734
2039.01471,0.01685
2036.95510,0.01697
2034.89549,0.01719
2032.83588,0.01715
2030.77627,0.01717
2028.71665,0.01722
2026.65704,0.01701
2024.59743,0.01673
2022.53782,0.01667
2020.47821,0.01696
2018.41860,0.01723
2016.35899,0.01687
2014.29938,0.01643
2012.23977,0.01647
2010.18016,0.01643
2008.12055,0.01619
2006.06094,0.01621
2004.00132,0.01652
2001.94171,0.01680
1999.88210,0.01688
1997.82249,0.01702
1995.76288,0.01721
1993.70327,0.01733
1991.64366,0.01753
1989.58405,0.01770
1987.52444,0.01776
1985.46483,0.01761
1983.40522,0.01714
1981.34561,0.01617
1979.28599,0.01528
1977.22638,0.01502
1975.16677,0.01515
1973.10716,0.01518
1971.04755,0.01492
1968.98794,0.01508
1966.92833,0.01565
1964.86872,0.01574
1962.80911,0.01583
1960.74950,0.01621
1958.68989,0.01636
1956.63028,0.01659
1954.57067,0.01700
1952.51105,0.01716
1950.45144,0.01718
1948.39183,0.01717
1946.33222,0.01696
1944.27261,0.01697
1942.21300,0.01733
1940.15339,0.01746
1938.09378,0.01769
1936.03417,0.01775
1933.97456,0.01748
1931.91495,0.01732
1929.85534,0.01743
1927.79572,0.01749
1925.73611,0.01741
1923.67650,0.01746
1921.61689,0.01741
1919.55728,0.01785
1917.49767,0.01823
1915.43806,0.01765
1913.37845,0.01729
1911.31884,0.01740
1909.25923,0.01751
1907.19962,0.01736
1905.14001,0.01723
1903.08039,0.01718
1901.02078,0.01714
1898.96117,0.01725
1896.90156,0.01762
1894.84195,0.01777
1892.78234,0.01757
1890.72273,0.01785
1888.66312,0.01803
1886.60351,0.01771
1884.54390,0.01756
1882.48429,0.01754
1880.42468,0.01756
1878.36506,0.01753
1876.30545,0.01738
1874.24584,0.01707
1872.18623,0.01694
1870.12662,0.01750
1868.06701,0.01783
1866.00740,0.01731
1863.94779,0.01690
1861.88818,0.01695
1859.82857,0.01710
1857.76896,0.01709
1855.70935,0.01695
1853.64974,0.01684
1851.59012,0.01674
1849.53051,0.01663
1847.47090,0.01654
1845.41129,0.01693
1843.35168,0.01698
1841.29207,0.01632
1839.23246,0.01632
1837.17285,0.01658
1835.11324,0.01638
1833.05363,0.01627
1830.99402,0.01678
1828.93441,0.01674
1826.87479,0.01638
1824.81518,0.01654
1822.75557,0.01634
1820.69596,0.01620
1818.63635,0.01623
1816.57674,0.01601
1814.51713,0.01573
1812.45752,0.01591
1810.39791,0.01611
1808.33830,0.01584
1806.27869,0.01553
1804.21908,0.01561
1802.15946,0.01603
1800.09985,0.01604
1798.04024,0.01537
1795.98063,0.01501
1793.92102,0.01562
1791.86141,0.01603
1789.80180,0.01513
1787.74219,0.01470
1785.68258,0.01511
1783.62297,0.01522
1781.56336,0.01516
1779.50375,0.01482
1777.44413,0.01416
1775.38452,0.01408
1773.32491,0.01473
1771.26530,0.01464
1769.20569,0.01403
1767.14608,0.01368
1765.08647,0.01343
1763.02686,0.01396
1760.96725,0.01409
1758.90764,0.01374
1756.84803,0.01370
1754.78842,0.01318
1752.72881,0.01337
1750.66919,0.01402
1748.60958,0.01368
1746.54997,0.01305
1744.49036,0.01293
1742.43075,0.01312
1740.37114,0.01311
1738.31153,0.01218
1736.25192,0.01230
1734.19231,0.01370
1732.13270,0.01289
1730.07309,0.01206
1728.01348,0.01206
1725.95386,0.01216
1723.89425,0.01205
1721.83464,0.01149
1719.77503,0.01202
1717.71542,0.01313
1715.65581,0.01261
1713.59620,0.01182
1711.53659,0.01188
1709.47698,0.01261
1707.41737,0.01374
1705.35776,0.01450
1703.29815,0.01517
1701.23853,0.01828
1699.17892,0.02150
1697.11931,0.02457
1695.05970,0.02763
1693.00009,0.02886
1690.94048,0.03041
1688.88087,0.03187
1686.82126,0.03392
1684.76165,0.03817
1682.70204,0.04062
1680.64243,0.04137
1678.58282,0.04311
1676.52320,0.04612
1674.46359,0.04866
1672.40398,0.05066
1670.34437,0.05442
1668.28476,0.05745
1666.22515,0.05925
1664.16554,0.06271
1662.10593,0.06667
1660.04632,0.06879
1657.98671,0.07008
1655.92710,0.07299
1653.86749,0.07802
1651.80788,0.07903
1649.74826,0.07830
1647.68865,0.08096
1645.62904,0.08274
1643.56943,0.08228
1641.50982,0.08208
1639.45021,0.08239
1637.39060,0.08376
1635.33099,0.08468
1633.27138,0.08315
1631.21177,0.08234
1629.15216,0.08294
1627.09255,0.08314
1625.03293,0.08343
1622.97332,0.08381
1620.91371,0.08306
1618.85410,0.08363
1616.79449,0.08541
1614.73488,0.08528
1612.67527,0.08490
1610.61566,0.08545
1608.55605,0.08582
1606.49644,0.08566
1604.43683,0.08531
1602.37722,0.08464
1600.31760,0.08340
1598.25799,0.08188
1596.19838,0.08019
1594.13877,0.07800
1592.07916,0.07532
1590.01955,0.07245
1587.95994,0.06941
1585.90033,0.06623
1583.84072,0.06301
1581.78111,0.05969
1579.72150,0.05689
1577.66189,0.05563
1575.60227,0.05396
1573.54266,0.05115
1571.48305,0.05083
1569.42344,0.05173
1567.36383,0.05123
1565.30422,0.05086
1563.24461,0.05085
1561.18500,0.05333
1559.12539,0.05804
1557.06578,0.05877
1555.00617,0.05942
1552.94656,0.06186
1550.88695,0.06478
1548.82733,0.06699
1546.76772,0.06857
1544.70811,0.07066
1542.64850,0.07367
1540.58889,0.07811
1538.52928,0.07989
1536.46967,0.07995
1534.41006,0.08243
1532.35045,0.08457
1530.29084,0.08509
1528.23123,0.08640
1526.17162,0.08767
1524.11200,0.08861
1522.05239,0.09051
1519.99278,0.09164
1517.93317,0.09301
1515.87356,0.09466
1513.81395,0.09500
1511.75434,0.09489
1509.69473,0.09575
1507.63512,0.09802
1505.57551,0.09713
1503.51590,0.09395
1501.45629,0.09268
1499.39667,0.09257
1497.33706,0.09150
1495.27745,0.08850
1493.21784,0.08556
1491.15823,0.08410
1489.09862,0.08164
1487.03901,0.07763
1484.97940,0.07408
1482.91979,0.07156
1480.86018,0.06910
1478.80057,0.06644
1476.74096,0.06441
1474.68134,0.06324
1472.62173,0.06261
1470.56212,0.06117
1468.50251,0.06024
1466.44290,0.06072
1464.38329,0.06045
1462.32368,0.05905
1460.26407,0.05963
1458.20446,0.06281
1456.14485,0.06448
1454.08524,0.06375
1452.02563,0.06371
1449.96602,0.06444
1447.90640,0.06485
1445.84679,0.06428
1443.78718,0.06342
1441.72757,0.06244
1439.66796,0.06161
1437.60835,0.06153
1435.54874,0.06031
1433.48913,0.05844
1431.42952,0.05808
1429.36991,0.05794
1427.31030,0.05726
1425.25069,0.05700
1423.19107,0.05679
1421.13146,0.05719
1419.07185,0.05842
1417.01224,0.05833
1414.95263,0.05798
1412.89302,0.05841
1410.83341,0.05884
1408.77380,0.05892
1406.71419,0.05926
1404.65458,0.05943
1402.59497,0.05888
1400.53536,0.05880
1398.47574,0.05891
1396.41613,0.05889
1394.35652,0.05895
1392.29691,0.05860
1390.23730,0.05887
1388.17769,0.05990
1386.11808,0.06008
1384.05847,0.05955
1381.99886,0.05938
1379.93925,0.05927
1377.87964,0.05907
1375.82003,0.05928
1373.76041,0.05951
1371.70080,0.05918
1369.64119,0.05902
1367.58158,0.05872
1365.52197,0.05829
1363.46236,0.05825
1361.40275,0.05771
1359.34314,0.05676
1357.28353,0.05631
1355.22392,0.05620
1353.16431,0.05606
1351.10470,0.05592
1349.04508,0.05581
1346.98547,0.05569
1344.92586,0.05564
1342.86625,0.05582
1340.80664,0.05647
1338.74703,0.05696
1336.68742,0.05689
1334.62781,0.05687
1332.56820,0.05708
1330.50859,0.05726
1328.44898,0.05728
1326.38937,0.05722
1324.32976,0.05714
1322.27014,0.05709
1320.21053,0.05716
1318.15092,0.05716
1316.09131,0.05709
1314.03170,0.05721
1311.97209,0.05724
1309.91248,0.05713
1307.85287,0.05716
1305.79326,0.05724
1303.73365,0.05728
1301.67404,0.05730
1299.61443,0.05725
1297.55481,0.05716
1295.49520,0.05705
1293.43559,0.05692
1291.37598,0.05676
1289.31637,0.05661
1287.25676,0.05648
1285.19715,0.05631
1283.13754,0.05620
1281.07793,0.05617
1279.01832,0.05610
1276.95871,0.05592
1274.89910,0.05572
1272.83948,0.05568
1270.77987,0.05570
1268.72026,0.05566
1266.66065,0.05565
1264.60104,0.05571
1262.54143,0.05584
1260.48182,0.05607
1258.42221,0.05635
1256.36260,0.05678
1254.30299,0.05734
1252.24338,0.05792
1250.18377,0.05847
1248.12415,0.05899
1246.06454,0.05947
1244.00493,0.05991
1241.94532,0.06032
1239.88571,0.06073
1237.82610,0.06109
1235.76649,0.06132
1233.70688,0.06145
1231.64727,0.06149
1229.58766,0.06143
1227.52805,0.06131
1225.46844,0.06112
1223.40883,0.06086
1221.34921,0.06054
1219.28960,0.06018
1217.22999,0.05975
1215.17038,0.05920
1213.11077,0.05858
1211.05116,0.05796
1208.99155,0.05729
1206.93194,0.05647
1204.87233,0.05557
1202.81272,0.05473
1200.75311,0.05387
1198.69350,0.05293
1196.63388,0.05206
1194.57427,0.05134
1192.51466,0.05073
1190.45505,0.05014
1188.39544,0.04954
1186.33583,0.04905
1184.27622,0.04881
1182.21661,0.04871
1180.15700,0.04860
1178.09739,0.04858
1176.03778,0.04876
1173.97817,0.04919
1171.91855,0.04966
1169.85894,0.05005
1167.79933,0.05041
1165.73972,0.05077
1163.68011,0.05115
1161.62050,0.05141
1159.56089,0.05146
1157.50128,0.05139
1155.44167,0.05118
1153.38206,0.05078
1151.32245,0.05027
1149.26284,0.04976
1147.20322,0.04928
1145.14361,0.04890
1143.08400,0.04857
1141.02439,0.04823
1138.96478,0.04800
1136.90517,0.04787
1134.84556,0.04779
1132.78595,0.04779
1130.72634,0.04787
1128.66673,0.04792
1126.60712,0.04788
1124.54751,0.04782
1122.48790,0.04774
1120.42828,0.04754
1118.36867,0.04721
1116.30906,0.04687
1114.24945,0.04663
1112.18984,0.04653
1110.13023,0.04647
1108.07062,0.04639
1106.01101,0.04635
1103.95140,0.04636
1101.89179,0.04630
1099.83218,0.04623
1097.77257,0.04618
1095.71295,0.04619
1093.65334,0.04637
1091.59373,0.04676
1089.53412,0.04735
1087.47451,0.04811
1085.41490,0.04896
1083.35529,0.04992
1081.29568,0.05101
1079.23607,0.05211
1077.17646,0.05310
1075.11685,0.05397
1073.05724,0.05483
1070.99762,0.05566
1068.93801,0.05638
1066.87840,0.05698
1064.81879,0.05747
1062.75918,0.05791
1060.69957,0.05831
1058.63996,0.05855
1056.58035,0.05857
1054.52074,0.05844
1052.46113,0.05831
1050.40152,0.05816
1048.34191,0.05798
1046.28229,0.05779
1044.22268,0.05746
1042.16307,0.05701
1040.10346,0.05656
1038.04385,0.05606
1035.98424,0.05538
1033.92463,0.05471
1031.86502,0.05417
1029.80541,0.05361
1027.74580,0.05295
1025.68619,0.05217
1023.62658,0.05123
1021.56697,0.05022
1019.50735,0.04927
1017.44774,0.04844
1015.38813,0.04768
1013.32852,0.04694
1011.26891,0.04626
1009.20930,0.04555
1007.14969,0.04478
1005.09008,0.04407
1003.03047,0.04354
1000.97086,0.04316
998.91125,0.04280
996.85164,0.04245
994.79202,0.04212
992.73241,0.04169
990.67280,0.04119
988.61319,0.04081
986.55358,0.04060
984.49397,0.04038
982.43436,0.04010
980.37475,0.03989
978.31514,0.03976
976.25553,0.03967
974.19592,0.03960
972.13631,0.03955
970.07669,0.03960
968.01708,0.03978
965.95747,0.04003
963.89786,0.04028
961.83825,0.04040
959.77864,0.04036
957.71903,0.04036
955.65942,0.04032
953.59981,0.04005
951.54020,0.03976
949.48059,0.03964
947.42098,0.03956
945.36136,0.03941
943.30175,0.03933
941.24214,0.03933
939.18253,0.03931
937.12292,0.03924
935.06331,0.03923
933.00370,0.03933
930.94409,0.03927
928.88448,0.03907
926.82487,0.03902
924.76526,0.03908
922.70565,0.03903
920.64604,0.03885
918.58642,0.03858
916.52681,0.03825
914.46720,0.03799
912.40759,0.03778
910.34798,0.03759
908.28837,0.03755
906.22876,0.03772
904.16915,0.03797
902.10954,0.03809
900.04993,0.03805
897.99032,0.03804
895.93071,0.03803
893.87109,0.03793
891.81148,0.03784
889.75187,0.03773
887.69226,0.03747
885.63265,0.03713
883.57304,0.03685
881.51343,0.03661
879.45382,0.03641
877.39421,0.03620
875.33460,0.03593
873.27499,0.03570
871.21538,0.03555
869.15576,0.03547
867.09615,0.03542
865.03654,0.03536
862.97693,0.03532
860.91732,0.03522
858.85771,0.03497
856.79810,0.03465
854.73849,0.03439
852.67888,0.03430
850.61927,0.03437
848.55966,0.03448
846.50005,0.03446
844.44043,0.03432
842.38082,0.03424
840.32121,0.03426
838.26160,0.03431
836.20199,0.03448
834.14238,0.03481
832.08277,0.03508
830.02316,0.03532
827.96355,0.03561
825.90394,0.03578
823.84433,0.03573
821.78472,0.03555
819.72511,0.03561
817.66549,0.03596
815.60588,0.03624
813.54627,0.03634
811.48666,0.03645
809.42705,0.03654
807.36744,0.03663
805.30783,0.03694
803.24822,0.03713
801.18861,0.03692
799.12900,0.03682
797.06939,0.03712
795.00978,0.03754
792.95016,0.03784
790.89055,0.03813
788.83094,0.03847
786.77133,0.03874
784.71172,0.03893
782.65211,0.03922
780.59250,0.03964
778.53289,0.04012
776.47328,0.04054
774.41367,0.04091
772.35406,0.04128
770.29445,0.04170
768.23483,0.04216
766.17522,0.04255
764.11561,0.04280
762.05600,0.04302
759.99639,0.04333
757.93678,0.04365
755.87717,0.04390
753.81756,0.04436
751.75795,0.04505
749.69834,0.04557
747.63873,0.04581
745.57912,0.04591
743.51950,0.04599
741.45989,0.04608
739.40028,0.04603
737.34067,0.04597
735.28106,0.04604
733.22145,0.04610
731.16184,0.04611
729.10223,0.04633
727.04262,0.04692
724.98301,0.04779
722.92340,0.04863
720.86379,0.04930
718.80418,0.05049
716.74456,0.05164
714.68495,0.05299
712.62534,0.05425
710.56573,0.05551
708.50612,0.05704
706.44651,0.05881
704.38690,0.06059
702.32729,0.06211
700.26768,0.06329
698.20807,0.06419
696.14846,0.06475
694.08885,0.06501
692.02923,0.06518
689.96962,0.06536
687.91001,0.06560
685.85040,0.06609
683.79079,0.06671
681.73118,0.06722
679.67157,0.06766
677.61196,0.06806
675.55235,0.06830
673.49274,0.06841
671.43313,0.07011
669.37352,0.07286
667.31390,0.06589
665.25429,0.07009
663.19468,0.07074
661.13507,0.07062
659.07546,0.07093
657.01585,0.07145
654.95624,0.07193
652.89663,0.07235
650.83702,0.07287
648.77741,0.07302
646.71780,0.07300
644.65819,0.07303
642.59857,0.07347
640.53896,0.07415
638.47935,0.07484
636.41974,0.07543
634.36013,0.07591
632.30052,0.07637
630.24091,0.07687
628.18130,0.07745
626.12169,0.07802
624.06208,0.07839
622.00247,0.07872
619.94286,0.07905
617.88325,0.07936
615.82363,0.07963
613.76402,0.07962
611.70441,0.07934
609.64480,0.07910
607.58519,0.07906
605.52558,0.07912
603.46597,0.07922
601.40636,0.07936
599.34675,0.07949
597.28714,0.07967
595.22753,0.07975
593.16792,0.07977
591.10830,0.07995
589.04869,0.08011
586.98908,0.08041
584.92947,0.08076
582.86986,0.08104
580.81025,0.08127
578.75064,0.08162
576.69103,0.08233
574.63142,0.08279
572.57181,0.08280
570.51220,0.08274
568.45259,0.08270
566.39297,0.08279
564.33336,0.08325
562.27375,0.08401
560.21414,0.08440
558.15453,0.08425
556.09492,0.08415
554.03531,0.08431
551.97570,0.08470
549.91609,0.08537
547.85648,0.08602
545.79687,0.08629
543.73726,0.08626
541.67764,0.08636
539.61803,0.08641
537.55842,0.08606
535.49881,0.08558
533.43920,0.08559
531.37959,0.08612
529.31998,0.08652
527.26037,0.08677
525.20076,0.08675
523.14115,0.08672
521.08154,0.08743
519.02193,0.08841
516.96232,0.08875
514.90270,0.08837
512.84309,0.08796
510.78348,0.08793
508.72387,0.08814
506.66426,0.08775
504.60465,0.08711
502.54504,0.08713
500.48543,0.08682
498.42582,0.08621
496.36621,0.08597
494.30660,0.08617
492.24699,0.08642
490.18737,0.08616
488.12776,0.08566
486.06815,0.08551
484.00854,0.08595
481.94893,0.08660
479.88932,0.08696
477.82971,0.08672
475.77010,0.08616
473.71049,0.08614
471.65088,0.08615
469.59127,0.08616
467.53166,0.08684
465.47204,0.08775
463.41243,0.08852
461.35282,0.08856
459.29321,0.08824
457.23360,0.08776
455.17399,0.08745
453.11438,0.08780
451.05477,0.08776
448.99516,0.08732
446.93555,0.08687
444.87594,0.08646
442.81633,0.08587
440.75671,0.08460
438.69710,0.08363
436.63749,0.08347
434.57788,0.08301
432.51827,0.08207
430.45866,0.08175
428.39905,0.08268
426.33944,0.08375
424.27983,0.08370
422.22022,0.08350
420.16061,0.08434
418.10100,0.08352
416.04138,0.08100
413.98177,0.08038
411.92216,0.08133
409.86255,0.08219
407.80294,0.08207
405.74333,0.08061
403.68372,0.07810
401.62411,0.07603
399.56450,0.07560
