3997.70460,0.02351
3995.64498,0.02347
3993.58537,0.02343
3991.52576,0.02347
3989.46615,0.02355
3987.40654,0.02355
3985.34693,0.02355
3983.28732,0.02354
3981.22771,0.02345
3979.16810,0.02334
3977.10849,0.02326
3975.04888,0.02326
3972.98927,0.02335
3970.92965,0.02343
3968.87004,0.02340
3966.81043,0.02331
3964.75082,0.02325
3962.69121,0.02324
3960.63160,0.02324
3958.57199,0.02324
3956.51238,0.02328
3954.45277,0.02334
3952.39316,0.02344
3950.33355,0.02351
3948.27394,0.02344
3946.21432,0.02327
3944.15471,0.02322
3942.09510,0.02329
3940.03549,0.02335
3937.97588,0.02334
3935.91627,0.02335
3933.85666,0.02339
3931.79705,0.02342
3929.73744,0.02343
3927.67783,0.02339
3925.61822,0.02327
3923.55861,0.02312
3921.49900,0.02306
3919.43938,0.02315
3917.37977,0.02333
3915.32016,0.02337
3913.26055,0.02324
3911.20094,0.02312
3909.14133,0.02311
3907.08172,0.02322
3905.02211,0.02332
3902.96250,0.02330
3900.90289,0.02318
3898.84328,0.02311
3896.78367,0.02316
3894.72405,0.02331
3892.66444,0.02343
3890.60483,0.02337
3888.54522,0.02320
3886.48561,0.02307
3884.42600,0.02291
3882.36639,0.02272
3880.30678,0.02266
3878.24717,0.02272
3876.18756,0.02272
3874.12795,0.02273
3872.06834,0.02296
3870.00872,0.02329
3867.94911,0.02338
3865.88950,0.02317
3863.82989,0.02289
3861.77028,0.02272
3859.71067,0.02259
3857.65106,0.02247
3855.59145,0.02244
3853.53184,0.02260
3851.47223,0.02292
3849.41262,0.02306
3847.35301,0.02303
3845.29339,0.02304
3843.23378,0.02308
3841.17417,0.02301
3839.11456,0.02286
3837.05495,0.02274
3834.99534,0.02268
3832.93573,0.02266
3830.87612,0.02261
3828.81651,0.02253
3826.75690,0.02237
3824.69729,0.02218
3822.63768,0.02209
3820.57807,0.02214
3818.51845,0.02222
3816.45884,0.02226
3814.39923,0.02245
3812.33962,0.02272
3810.28001,0.02277
3808.22040,0.02253
3806.16079,0.02227
3804.10118,0.02203
3802.04157,0.02187
3799.98196,0.02202
3797.92235,0.02230
3795.86274,0.02243
3793.80312,0.02245
3791.74351,0.02242
3789.68390,0.02231
3787.62429,0.02214
3785.56468,0.02200
3783.50507,0.02192
3781.44546,0.02194
3779.38585,0.02211
3777.32624,0.02229
3775.26663,0.02222
3773.20702,0.02199
3771.14741,0.02182
3769.08779,0.02185
3767.02818,0.02200
3764.96857,0.02209
3762.90896,0.02208
3760.84935,0.02209
3758.78974,0.02216
3756.73013,0.02226
3754.67052,0.02226
3752.61091,0.02204
3750.55130,0.02168
3748.49169,0.02161
3746.43208,0.02192
3744.37246,0.02219
3742.31285,0.02199
3740.25324,0.02159
3738.19363,0.02135
3736.13402,0.02124
3734.07441,0.02113
3732.01480,0.02099
3729.95519,0.02098
3727.89558,0.02115
3725.83597,0.02133
3723.77636,0.02142
3721.71675,0.02146
3719.65714,0.02149
3717.59752,0.02145
3715.53791,0.02129
3713.47830,0.02114
3711.41869,0.02120
3709.35908,0.02143
3707.29947,0.02156
3705.23986,0.02148
3703.18025,0.02130
3701.12064,0.02111
3699.06103,0.02089
3697.00142,0.02070
3694.94181,0.02069
3692.88219,0.02075
3690.82258,0.02070
3688.76297,0.02046
3686.70336,0.02037
3684.64375,0.02052
3682.58414,0.02074
3680.52453,0.02093
3678.46492,0.02115
3676.40531,0.02124
3674.34570,0.02091
3672.28609,0.02035
3670.22648,0.02012
3668.16686,0.02045
3666.10725,0.02095
3664.04764,0.02119
3661.98803,0.02109
3659.92842,0.02088
3657.86881,0.02079
3655.80920,0.02080
3653.74959,0.02075
3651.68998,0.02063
3649.63037,0.02060
3647.57076,0.02077
3645.51115,0.02104
3643.45153,0.02125
3641.39192,0.02136
3639.33231,0.02143
3637.27270,0.02149
3635.21309,0.02160
3633.15348,0.02168
3631.09387,0.02171
3629.03426,0.02191
3626.97465,0.02218
3624.91504,0.02220
3622.85543,0.02197
3620.79582,0.02168
3618.73621,0.02170
3616.67659,0.02212
3614.61698,0.02262
3612.55737,0.02288
3610.49776,0.02296
3608.43815,0.02300
3606.37854,0.02289
3604.31893,0.02276
3602.25932,0.02279
3600.19971,0.02293
3598.14010,0.02312
3596.08049,0.02342
3594.02088,0.02378
3591.96126,0.02391
3589.90165,0.02373
3587.84204,0.02367
3585.78243,0.02386
3583.72282,0.02412
3581.66321,0.02433
3579.60360,0.02448
3577.54399,0.02456
3575.48438,0.02453
3573.42477,0.02444
3571.36516,0.02446
3569.30555,0.02471
3567.24593,0.02517
3565.18632,0.02553
3563.12671,0.02561
3561.06710,0.02568
3559.00749,0.02588
3556.94788,0.02616
3554.88827,0.02639
3552.82866,0.02649
3550.76905,0.02656
3548.70944,0.02680
3546.64983,0.02716
3544.59022,0.02738
3542.53060,0.02736
3540.47099,0.02727
3538.41138,0.02732
3536.35177,0.02760
3534.29216,0.02799
3532.23255,0.02831
3530.17294,0.02845
3528.11333,0.02849
3526.05372,0.02859
3523.99411,0.02872
3521.93450,0.02879
3519.87489,0.02891
3517.81528,0.02921
3515.75566,0.02955
3513.69605,0.02975
3511.63644,0.02985
3509.57683,0.02997
3507.51722,0.03013
3505.45761,0.03034
3503.39800,0.03067
3501.33839,0.03103
3499.27878,0.03131
3497.21917,0.03148
3495.15956,0.03162
3493.09995,0.03183
3491.04033,0.03206
3488.98072,0.03219
3486.92111,0.03224
3484.86150,0.03231
3482.80189,0.03245
3480.74228,0.03264
3478.68267,0.03289
3476.62306,0.03307
3474.56345,0.03311
3472.50384,0.03320
3470.44423,0.03348
3468.38462,0.03393
3466.32500,0.03440
3464.26539,0.03477
3462.20578,0.03499
3460.14617,0.03509
3458.08656,0.03523
3456.02695,0.03548
3453.96734,0.03572
3451.90773,0.03589
3449.84812,0.03611
3447.78851,0.03633
3445.72890,0.03639
3443.66929,0.03649
3441.60967,0.03678
3439.55006,0.03713
3437.49045,0.03746
3435.43084,0.03763
3433.37123,0.03758
3431.31162,0.03759
3429.25201,0.03785
3427.19240,0.03824
3425.13279,0.03856
3423.07318,0.03891
3421.01357,0.03927
3418.95396,0.03938
3416.89435,0.03935
3414.83473,0.03950
3412.77512,0.03982
3410.71551,0.04018
3408.65590,0.04042
3406.59629,0.04053
3404.53668,0.04075
3402.47707,0.04107
3400.41746,0.04135
3398.35785,0.04159
3396.29824,0.04177
3394.23863,0.04203
3392.17902,0.04229
3390.11940,0.04249
3388.05979,0.04276
3386.00018,0.04316
3383.94057,0.04344
3381.88096,0.04355
3379.82135,0.04380
3377.76174,0.04428
3375.70213,0.04469
3373.64252,0.04494
3371.58291,0.04508
3369.52330,0.04516
3367.46369,0.04537
3365.40407,0.04582
3363.34446,0.04634
3361.28485,0.04673
3359.22524,0.04708
3357.16563,0.04760
3355.10602,0.04816
3353.04641,0.04850
3350.98680,0.04869
3348.92719,0.04895
3346.86758,0.04932
3344.80797,0.04973
3342.74836,0.05013
3340.68874,0.05053
3338.62913,0.05099
3336.56952,0.05147
3334.50991,0.05186
3332.45030,0.05228
3330.39069,0.05277
3328.33108,0.05322
3326.27147,0.05359
3324.21186,0.05383
3322.15225,0.05400
3320.09264,0.05433
3318.03303,0.05479
3315.97342,0.05524
3313.91380,0.05581
3311.85419,0.05652
3309.79458,0.05713
3307.73497,0.05761
3305.67536,0.05808
3303.61575,0.05856
3301.55614,0.05906
3299.49653,0.05960
3297.43692,0.06015
3295.37731,0.06067
3293.31770,0.06118
3291.25809,0.06174
3289.19847,0.06224
3287.13886,0.06260
3285.07925,0.06295
3283.01964,0.06338
3280.96003,0.06374
3278.90042,0.06391
3276.84081,0.06416
3274.78120,0.06466
3272.72159,0.06512
3270.66198,0.06528
3268.60237,0.06523
3266.54276,0.06504
3264.48314,0.06478
3262.42353,0.06465
3260.36392,0.06460
3258.30431,0.06448
3256.24470,0.06426
3254.18509,0.06393
3252.12548,0.06357
3250.06587,0.06329
3248.00626,0.06306
3245.94665,0.06272
3243.88704,0.06222
3241.82743,0.06186
3239.76781,0.06179
3237.70820,0.06172
3235.64859,0.06151
3233.58898,0.06131
3231.52937,0.06109
3229.46976,0.06082
3227.41015,0.06057
3225.35054,0.06031
3223.29093,0.05997
3221.23132,0.05960
3219.17171,0.05922
3217.11210,0.05895
3215.05248,0.05892
3212.99287,0.05901
3210.93326,0.05899
3208.87365,0.05875
3206.81404,0.05840
3204.75443,0.05816
3202.69482,0.05813
3200.63521,0.05811
3198.57560,0.05790
3196.51599,0.05759
3194.45638,0.05742
3192.39677,0.05740
3190.33716,0.05732
3188.27754,0.05710
3186.21793,0.05681
3184.15832,0.05647
3182.09871,0.05616
3180.03910,0.05592
3177.97949,0.05568
3175.91988,0.05542
3173.86027,0.05519
3171.80066,0.05491
3169.74105,0.05461
3167.68144,0.05438
3165.62183,0.05408
3163.56221,0.05364
3161.50260,0.05324
3159.44299,0.05299
3157.38338,0.05277
3155.32377,0.05255
3153.26416,0.05229
3151.20455,0.05195
3149.14494,0.05158
3147.08533,0.05124
3145.02572,0.05099
3142.96611,0.05073
3140.90650,0.05042
3138.84688,0.05012
3136.78727,0.04990
3134.72766,0.04979
3132.66805,0.04961
3130.60844,0.04929
3128.54883,0.04891
3126.48922,0.04845
3124.42961,0.04800
3122.37000,0.04783
3120.31039,0.04794
3118.25078,0.04810
3116.19117,0.04807
3114.13155,0.04773
3112.07194,0.04737
3110.01233,0.04724
3107.95272,0.04723
3105.89311,0.04718
3103.83350,0.04703
3101.77389,0.04683
3099.71428,0.04673
3097.65467,0.04672
3095.59506,0.04672
3093.53545,0.04670
3091.47584,0.04669
3089.41623,0.04677
3087.35661,0.04690
3085.29700,0.04693
3083.23739,0.04692
3081.17778,0.04701
3079.11817,0.04711
3077.05856,0.04713
3074.99895,0.04709
3072.93934,0.04703
3070.87973,0.04698
3068.82012,0.04699
3066.76051,0.04713
3064.70090,0.04724
3062.64128,0.04713
3060.58167,0.04701
3058.52206,0.04695
3056.46245,0.04682
3054.40284,0.04664
3052.34323,0.04657
3050.28362,0.04659
3048.22401,0.04657
3046.16440,0.04641
3044.10479,0.04619
3042.04518,0.04597
3039.98557,0.04578
3037.92595,0.04556
3035.86634,0.04533
3033.80673,0.04521
3031.74712,0.04509
3029.68751,0.04489
3027.62790,0.04468
3025.56829,0.04452
3023.50868,0.04440
3021.44907,0.04426
3019.38946,0.04402
3017.32985,0.04369
3015.27024,0.04343
3013.21062,0.04328
3011.15101,0.04315
3009.09140,0.04299
3007.03179,0.04286
3004.97218,0.04267
3002.91257,0.04241
3000.85296,0.04217
2998.79335,0.04205
2996.73374,0.04202
2994.67413,0.04206
2992.61452,0.04212
2990.55491,0.04214
2988.49530,0.04230
2986.43568,0.04257
2984.37607,0.04277
2982.31646,0.04299
2980.25685,0.04326
2978.19724,0.04351
2976.13763,0.04377
2974.07802,0.04399
2972.01841,0.04411
2969.95880,0.04412
2967.89919,0.04412
2965.83958,0.04412
2963.77997,0.04409
2961.72035,0.04396
2959.66074,0.04367
2957.60113,0.04337
2955.54152,0.04331
2953.48191,0.04351
2951.42230,0.04377
2949.36269,0.04396
2947.30308,0.04410
2945.24347,0.04418
2943.18386,0.04415
2941.12425,0.04405
2939.06464,0.04397
2937.00502,0.04386
2934.94541,0.04352
2932.88580,0.04291
2930.82619,0.04201
2928.76658,0.04064
2926.70697,0.03876
2924.64736,0.03641
2922.58775,0.03330
2920.52814,0.02937
2918.46853,0.02543
2916.40892,0.02358
2914.34931,0.02565
2912.28969,0.03031
2910.23008,0.03452
2908.17047,0.03706
2906.11086,0.03837
2904.05125,0.03902
2901.99164,0.03934
2899.93203,0.03961
2897.87242,0.03989
2895.81281,0.04015
2893.75320,0.04042
2891.69359,0.04064
2889.63398,0.04079
2887.57437,0.04098
2885.51475,0.04120
2883.45514,0.04147
2881.39553,0.04180
2879.33592,0.04211
2877.27631,0.04236
2875.21670,0.04253
2873.15709,0.04265
2871.09748,0.04268
2869.03787,0.04257
2866.97826,0.04232
2864.91865,0.04193
2862.85904,0.04136
2860.79942,0.04059
2858.73981,0.03962
2856.68020,0.03826
2854.62059,0.03606
2852.56098,0.03259
2850.50137,0.02868
2848.44176,0.02724
2846.38215,0.02991
2844.32254,0.03420
2842.26293,0.03726
2840.20332,0.03877
2838.14371,0.03944
2836.08409,0.03973
2834.02448,0.03990
2831.96487,0.03994
2829.90526,0.03991
2827.84565,0.03995
2825.78604,0.04003
2823.72643,0.03999
2821.66682,0.03981
2819.60721,0.03968
2817.54760,0.03966
2815.48799,0.03964
2813.42838,0.03966
2811.36876,0.03968
2809.30915,0.03952
2807.24954,0.03928
2805.18993,0.03916
2803.13032,0.03913
2801.07071,0.03914
2799.01110,0.03911
2796.95149,0.03903
2794.89188,0.03891
2792.83227,0.03880
2790.77266,0.03880
2788.71305,0.03883
2786.65344,0.03871
2784.59382,0.03852
2782.53421,0.03842
2780.47460,0.03846
2778.41499,0.03854
2776.35538,0.03861
2774.29577,0.03864
2772.23616,0.03847
2770.17655,0.03815
2768.11694,0.03798
2766.05733,0.03795
2763.99772,0.03790
2761.93811,0.03792
2759.87849,0.03806
2757.81888,0.03809
2755.75927,0.03793
2753.69966,0.03781
2751.64005,0.03773
2749.58044,0.03766
2747.52083,0.03773
2745.46122,0.03778
2743.40161,0.03765
2741.34200,0.03748
2739.28239,0.03741
2737.22278,0.03734
2735.16316,0.03722
2733.10355,0.03718
2731.04394,0.03724
2728.98433,0.03727
2726.92472,0.03721
2724.86511,0.03718
2722.80550,0.03722
2720.74589,0.03717
2718.68628,0.03700
2716.62667,0.03680
2714.56706,0.03663
2712.50745,0.03658
2710.44783,0.03664
2708.38822,0.03668
2706.32861,0.03673
2704.26900,0.03681
2702.20939,0.03677
2700.14978,0.03661
2698.09017,0.03647
2696.03056,0.03641
2693.97095,0.03639
2691.91134,0.03635
2689.85173,0.03627
2687.79212,0.03620
2685.73251,0.03616
2683.67289,0.03612
2681.61328,0.03605
2679.55367,0.03599
2677.49406,0.03592
2675.43445,0.03586
2673.37484,0.03586
2671.31523,0.03587
2669.25562,0.03583
2667.19601,0.03578
2665.13640,0.03578
2663.07679,0.03583
2661.01718,0.03585
2658.95756,0.03575
2656.89795,0.03563
2654.83834,0.03554
2652.77873,0.03551
2650.71912,0.03556
2648.65951,0.03549
2646.59990,0.03522
2644.54029,0.03502
2642.48068,0.03502
2640.42107,0.03509
2638.36146,0.03505
2636.30185,0.03495
2634.24223,0.03493
2632.18262,0.03491
2630.12301,0.03468
2628.06340,0.03437
2626.00379,0.03423
2623.94418,0.03421
2621.88457,0.03424
2619.82496,0.03420
2617.76535,0.03409
2615.70574,0.03414
2613.64613,0.03424
2611.58652,0.03412
2609.52690,0.03385
2607.46729,0.03373
2605.40768,0.03370
2603.34807,0.03362
2601.28846,0.03349
2599.22885,0.03341
2597.16924,0.03341
2595.10963,0.03338
2593.05002,0.03320
2590.99041,0.03304
2588.93080,0.03312
2586.87119,0.03331
2584.81158,0.03334
2582.75196,0.03318
2580.69235,0.03301
2578.63274,0.03297
2576.57313,0.03302
2574.51352,0.03305
2572.45391,0.03301
2570.39430,0.03280
2568.33469,0.03250
2566.27508,0.03236
2564.21547,0.03245
2562.15586,0.03250
2560.09625,0.03245
2558.03663,0.03237
2555.97702,0.03220
2553.91741,0.03200
2551.85780,0.03200
2549.79819,0.03209
2547.73858,0.03198
2545.67897,0.03188
2543.61936,0.03188
2541.55975,0.03195
2539.50014,0.03203
2537.44053,0.03201
2535.38092,0.03191
2533.32130,0.03185
2531.26169,0.03185
2529.20208,0.03192
2527.14247,0.03198
2525.08286,0.03196
2523.02325,0.03188
2520.96364,0.03178
2518.90403,0.03169
2516.84442,0.03161
2514.78481,0.03158
2512.72520,0.03168
2510.66559,0.03177
2508.60597,0.03170
2506.54636,0.03155
2504.48675,0.03152
2502.42714,0.03160
2500.36753,0.03153
2498.30792,0.03126
2496.24831,0.03111
2494.18870,0.03118
2492.12909,0.03128
2490.06948,0.03132
2488.00987,0.03141
2485.95026,0.03151
2483.89065,0.03154
2481.83103,0.03156
2479.77142,0.03158
2477.71181,0.03146
2475.65220,0.03126
2473.59259,0.03113
2471.53298,0.03115
2469.47337,0.03120
2467.41376,0.03111
2465.35415,0.03092
2463.29454,0.03078
2461.23493,0.03083
2459.17532,0.03089
2457.11570,0.03085
2455.05609,0.03089
2452.99648,0.03094
2450.93687,0.03095
2448.87726,0.03096
2446.81765,0.03100
2444.75804,0.03107
2442.69843,0.03109
2440.63882,0.03095
2438.57921,0.03074
2436.51960,0.03062
2434.45999,0.03062
2432.40037,0.03076
2430.34076,0.03096
2428.28115,0.03098
2426.22154,0.03078
2424.16193,0.03058
2422.10232,0.03055
2420.04271,0.03070
2417.98310,0.03083
2415.92349,0.03088
2413.86388,0.03084
2411.80427,0.03067
2409.74466,0.03055
2407.68504,0.03057
2405.62543,0.03065
2403.56582,0.03072
2401.50621,0.03069
2399.44660,0.03023
2397.38699,0.03010
2395.32738,0.03027
2393.26777,0.03055
2391.20816,0.03086
2389.14855,0.03113
2387.08894,0.03132
2385.02933,0.03145
2382.96972,0.03160
2380.91010,0.03165
2378.85049,0.03145
2376.79088,0.03108
2374.73127,0.02978
2372.67166,0.02904
2370.61205,0.02949
2368.55244,0.02941
2366.49283,0.02945
2364.43322,0.02905
2362.37361,0.02903
2360.31400,0.03055
2358.25439,0.03045
2356.19477,0.03048
2354.13516,0.03069
2352.07555,0.03106
2350.01594,0.03324
2347.95633,0.03258
2345.89672,0.03107
2343.83711,0.03112
2341.77750,0.02966
2339.71789,0.02962
2337.65828,0.02957
2335.59867,0.02987
2333.53906,0.03196
2331.47944,0.03245
2329.41983,0.03323
2327.36022,0.03124
2325.30061,0.03010
2323.24100,0.02841
2321.18139,0.02790
2319.12178,0.02811
2317.06217,0.02847
2315.00256,0.02880
2312.94295,0.02897
2310.88334,0.02910
2308.82373,0.02943
2306.76411,0.02969
2304.70450,0.02965
2302.64489,0.02960
2300.58528,0.02974
2298.52567,0.02986
2296.46606,0.02992
2294.40645,0.02991
2292.34684,0.02996
2290.28723,0.02999
2288.22762,0.02981
2286.16801,0.02947
2284.10840,0.02919
2282.04878,0.02891
2279.98917,0.02869
2277.92956,0.02852
2275.86995,0.02833
2273.81034,0.02827
2271.75073,0.02807
2269.69112,0.02780
2267.63151,0.02775
2265.57190,0.02785
2263.51229,0.02771
2261.45268,0.02742
2259.39307,0.02729
2257.33346,0.02719
2255.27384,0.02706
2253.21423,0.02722
2251.15462,0.02743
2249.09501,0.02718
2247.03540,0.02708
2244.97579,0.02676
2242.91618,0.02631
2240.85657,0.02618
2238.79696,0.02622
2236.73735,0.02617
2234.67774,0.02621
2232.61813,0.02632
2230.55851,0.02633
2228.49890,0.02623
2226.43929,0.02607
2224.37968,0.02599
2222.32007,0.02607
2220.26046,0.02612
2218.20085,0.02593
2216.14124,0.02566
2214.08163,0.02558
2212.02202,0.02549
2209.96241,0.02526
2207.90280,0.02511
2205.84318,0.02490
2203.78357,0.02455
2201.72396,0.02439
2199.66435,0.02447
2197.60474,0.02454
2195.54513,0.02421
2193.48552,0.02354
2191.42591,0.02332
2189.36630,0.02394
2187.30669,0.02434
2185.24708,0.02380
2183.18747,0.02326
2181.12785,0.02319
2179.06824,0.02300
2177.00863,0.02273
2174.94902,0.02250
2172.88941,0.02240
2170.82980,0.02276
2168.77019,0.02318
2166.71058,0.02322
2164.65097,0.02301
2162.59136,0.02239
2160.53175,0.02123
2158.47214,0.02039
2156.41253,0.02085
2154.35291,0.02182
2152.29330,0.02248
2150.23369,0.02308
2148.17408,0.02358
2146.11447,0.02370
2144.05486,0.02349
2141.99525,0.02322
2139.93564,0.02347
2137.87603,0.02422
2135.81642,0.02452
2133.75681,0.02419
2131.69720,0.02389
2129.63758,0.02392
2127.57797,0.02427
2125.51836,0.02457
2123.45875,0.02458
2121.39914,0.02486
2119.33953,0.02550
2117.27992,0.02583
2115.22031,0.02565
2113.16070,0.02540
2111.10109,0.02545
2109.04148,0.02570
2106.98187,0.02585
2104.92225,0.02583
2102.86264,0.02571
2100.80303,0.02555
2098.74342,0.02527
2096.68381,0.02476
2094.62420,0.02452
2092.56459,0.02502
2090.50498,0.02561
2088.44537,0.02570
2086.38576,0.02547
2084.32615,0.02523
2082.26654,0.02501
2080.20692,0.02488
2078.14731,0.02491
2076.08770,0.02489
2074.02809,0.02463
2071.96848,0.02424
2069.90887,0.02408
2067.84926,0.02408
2065.78965,0.02383
2063.73004,0.02348
2061.67043,0.02367
2059.61082,0.02410
2057.55121,0.02400
2055.49160,0.02362
2053.43198,0.02352
2051.37237,0.02349
2049.31276,0.02296
2047.25315,0.02221
2045.19354,0.02198
2043.13393,0.02204
2041.07432,0.02181
2039.01471,0.02158
2036.95510,0.02161
2034.89549,0.02147
2032.83588,0.02139
2030.77627,0.02153
2028.71665,0.02109
2026.65704,0.02039
2024.59743,0.02043
2022.53782,0.02075
2020.47821,0.02065
2018.41860,0.02020
2016.35899,0.01961
2014.29938,0.01952
2012.23977,0.02010
2010.18016,0.02065
2008.12055,0.02093
2006.06094,0.02121
2004.00132,0.02138
2001.94171,0.02106
1999.88210,0.02048
1997.82249,0.02025
1995.76288,0.02038
1993.70327,0.02064
1991.64366,0.02106
1989.58405,0.02146
1987.52444,0.02155
1985.46483,0.02138
1983.40522,0.02079
1981.34561,0.01977
1979.28599,0.01893
1977.22638,0.01880
1975.16677,0.01920
1973.10716,0.01947
1971.04755,0.01941
1968.98794,0.01953
1966.92833,0.01986
1964.86872,0.02001
1962.80911,0.02011
1960.74950,0.02018
1958.68989,0.02019
1956.63028,0.02060
1954.57067,0.02124
1952.51105,0.02139
1950.45144,0.02131
1948.39183,0.02146
1946.33222,0.02139
1944.27261,0.02109
1942.21300,0.02107
1940.15339,0.02120
1938.09378,0.02119
1936.03417,0.02112
1933.97456,0.02117
1931.91495,0.02131
1929.85534,0.02140
1927.79572,0.02150
1925.73611,0.02168
1923.67650,0.02181
1921.61689,0.02202
1919.55728,0.02230
1917.49767,0.02235
1915.43806,0.02218
1913.37845,0.02200
1911.31884,0.02181
1909.25923,0.02167
1907.19962,0.02170
1905.14001,0.02172
1903.08039,0.02165
1901.02078,0.02172
1898.96117,0.02199
1896.90156,0.02223
1894.84195,0.02222
1892.78234,0.02200
1890.72273,0.02188
1888.66312,0.02206
1886.60351,0.02228
1884.54390,0.02227
1882.48429,0.02207
1880.42468,0.02185
1878.36506,0.02172
1876.30545,0.02170
1874.24584,0.02166
1872.18623,0.02161
1870.12662,0.02161
1868.06701,0.02166
1866.00740,0.02162
1863.94779,0.02142
1861.88818,0.02129
1859.82857,0.02131
1857.76896,0.02131
1855.70935,0.02119
1853.64974,0.02105
1851.59012,0.02093
1849.53051,0.02086
1847.47090,0.02080
1845.41129,0.02078
1843.35168,0.02079
1841.29207,0.02079
1839.23246,0.02073
1837.17285,0.02069
1835.11324,0.02071
1833.05363,0.02072
1830.99402,0.02070
1828.93441,0.02060
1826.87479,0.02043
1824.81518,0.02031
1822.75557,0.02029
1820.69596,0.02030
1818.63635,0.02023
1816.57674,0.02010
1814.51713,0.01996
1812.45752,0.01986
1810.39791,0.01987
1808.33830,0.01992
1806.27869,0.01989
1804.21908,0.01984
1802.15946,0.01981
1800.09985,0.01972
1798.04024,0.01959
1795.98063,0.01950
1793.92102,0.01940
1791.86141,0.01927
1789.80180,0.01917
1787.74219,0.01910
1785.68258,0.01900
1783.62297,0.01886
1781.56336,0.01875
1779.50375,0.01863
1777.44413,0.01844
1775.38452,0.01821
1773.32491,0.01803
1771.26530,0.01796
1769.20569,0.01797
1767.14608,0.01790
1765.08647,0.01775
1763.02686,0.01762
1760.96725,0.01751
1758.90764,0.01739
1756.84803,0.01733
1754.78842,0.01736
1752.72881,0.01735
1750.66919,0.01716
1748.60958,0.01696
1746.54997,0.01689
1744.49036,0.01684
1742.43075,0.01675
1740.37114,0.01665
1738.31153,0.01654
1736.25192,0.01639
1734.19231,0.01622
1732.13270,0.01606
1730.07309,0.01589
1728.01348,0.01582
1725.95386,0.01586
1723.89425,0.01589
1721.83464,0.01581
1719.77503,0.01571
1717.71542,0.01570
1715.65581,0.01590
1713.59620,0.01627
1711.53659,0.01676
1709.47698,0.01734
1707.41737,0.01814
1705.35776,0.01936
1703.29815,0.02096
1701.23853,0.02330
1699.17892,0.02665
1697.11931,0.03020
1695.05970,0.03347
1693.00009,0.03609
1690.94048,0.03830
1688.88087,0.04060
1686.82126,0.04314
1684.76165,0.04665
1682.70204,0.05087
1680.64243,0.05409
1678.58282,0.05660
1676.52320,0.05946
1674.46359,0.06286
1672.40398,0.06625
1670.34437,0.07004
1668.28476,0.07445
1666.22515,0.07832
1664.16554,0.08198
1662.10593,0.08628
1660.04632,0.09043
1657.98671,0.09350
1655.92710,0.09593
1653.86749,0.09906
1651.80788,0.10265
1649.74826,0.10455
1647.68865,0.10556
1645.62904,0.10677
1643.56943,0.10764
1641.50982,0.10784
1639.45021,0.10765
1637.39060,0.10741
1635.33099,0.10729
1633.27138,0.10703
1631.21177,0.10646
1629.15216,0.10574
1627.09255,0.10507
1625.03293,0.10455
1622.97332,0.10413
1620.91371,0.10368
1618.85410,0.10314
1616.79449,0.10258
1614.73488,0.10208
1612.67527,0.10135
1610.61566,0.10022
1608.55605,0.09876
1606.49644,0.09708
1604.43683,0.09511
1602.37722,0.09287
1600.31760,0.09055
1598.25799,0.08820
1596.19838,0.08567
1594.13877,0.08296
1592.07916,0.08026
1590.01955,0.07760
1587.95994,0.07498
1585.90033,0.07247
1583.84072,0.07016
1581.78111,0.06808
1579.72150,0.06626
1577.66189,0.06481
1575.60227,0.06391
1573.54266,0.06361
1571.48305,0.06369
1569.42344,0.06420
1567.36383,0.06507
1565.30422,0.06611
1563.24461,0.06722
1561.18500,0.06865
1559.12539,0.07147
1557.06578,0.07534
1555.00617,0.07848
1552.94656,0.08133
1550.88695,0.08435
1548.82733,0.08734
1546.76772,0.08990
1544.70811,0.09219
1542.64850,0.09474
1540.58889,0.09808
1538.52928,0.10144
1536.46967,0.10334
1534.41006,0.10459
1532.35045,0.10614
1530.29084,0.10755
1528.23123,0.10857
1526.17162,0.10949
1524.11200,0.11040
1522.05239,0.11161
1519.99278,0.11327
1517.93317,0.11489
1515.87356,0.11612
1513.81395,0.11668
1511.75434,0.11653
1509.69473,0.11586
1507.63512,0.11465
1505.57551,0.11304
1503.51590,0.11142
1501.45629,0.10966
1499.39667,0.10737
1497.33706,0.10443
1495.27745,0.10143
1493.21784,0.09877
1491.15823,0.09573
1489.09862,0.09186
1487.03901,0.08807
1484.97940,0.08497
1482.91979,0.08225
1480.86018,0.07966
1478.80057,0.07732
1476.74096,0.07522
1474.68134,0.07338
1472.62173,0.07236
1470.56212,0.07225
1468.50251,0.07227
1466.44290,0.07194
1464.38329,0.07152
1462.32368,0.07152
1460.26407,0.07213
1458.20446,0.07352
1456.14485,0.07538
1454.08524,0.07652
1452.02563,0.07684
1449.96602,0.07679
1447.90640,0.07655
1445.84679,0.07615
1443.78718,0.07556
1441.72757,0.07473
1439.66796,0.07380
1437.60835,0.07287
1435.54874,0.07195
1433.48913,0.07112
1431.42952,0.07047
1429.36991,0.07000
1427.31030,0.06976
1425.25069,0.06963
1423.19107,0.06958
1421.13146,0.06970
1419.07185,0.07014
1417.01224,0.07067
1414.95263,0.07100
1412.89302,0.07124
1410.83341,0.07148
1408.77380,0.07173
1406.71419,0.07196
1404.65458,0.07211
1402.59497,0.07214
1400.53536,0.07210
1398.47574,0.07199
1396.41613,0.07191
1394.35652,0.07201
1392.29691,0.07228
1390.23730,0.07267
1388.17769,0.07317
1386.11808,0.07365
1384.05847,0.07388
1381.99886,0.07390
1379.93925,0.07383
1377.87964,0.07374
1375.82003,0.07371
1373.76041,0.07377
1371.70080,0.07376
1369.64119,0.07358
1367.58158,0.07324
1365.52197,0.07272
1363.46236,0.07208
1361.40275,0.07139
1359.34314,0.07070
1357.28353,0.07005
1355.22392,0.06955
1353.16431,0.06925
1351.10470,0.06906
1349.04508,0.06889
1346.98547,0.06882
1344.92586,0.06893
1342.86625,0.06922
1340.80664,0.06965
1338.74703,0.07016
1336.68742,0.07059
1334.62781,0.07086
1332.56820,0.07101
1330.50859,0.07107
1328.44898,0.07099
1326.38937,0.07090
1324.32976,0.07095
1322.27014,0.07106
1320.21053,0.07114
1318.15092,0.07125
1316.09131,0.07144
1314.03170,0.07158
1311.97209,0.07161
1309.91248,0.07155
1307.85287,0.07144
1305.79326,0.07130
1303.73365,0.07110
1301.67404,0.07091
1299.61443,0.07075
1297.55481,0.07054
1295.49520,0.07031
1293.43559,0.07010
1291.37598,0.06987
1289.31637,0.06965
1287.25676,0.06947
1285.19715,0.06936
1283.13754,0.06930
1281.07793,0.06930
1279.01832,0.06932
1276.95871,0.06932
1274.89910,0.06928
1272.83948,0.06924
1270.77987,0.06926
1268.72026,0.06942
1266.66065,0.06970
1264.60104,0.06992
1262.54143,0.07014
1260.48182,0.07048
1258.42221,0.07096
1256.36260,0.07149
1254.30299,0.07208
1252.24338,0.07277
1250.18377,0.07350
1248.12415,0.07413
1246.06454,0.07469
1244.00493,0.07521
1241.94532,0.07568
1239.88571,0.07615
1237.82610,0.07655
1235.76649,0.07680
1233.70688,0.07693
1231.64727,0.07691
1229.58766,0.07665
1227.52805,0.07623
1225.46844,0.07574
1223.40883,0.07514
1221.34921,0.07446
1219.28960,0.07379
1217.22999,0.07311
1215.17038,0.07232
1213.11077,0.07143
1211.05116,0.07058
1208.99155,0.06980
1206.93194,0.06898
1204.87233,0.06803
1202.81272,0.06699
1200.75311,0.06592
1198.69350,0.06490
1196.63388,0.06399
1194.57427,0.06314
1192.51466,0.06236
1190.45505,0.06169
1188.39544,0.06112
1186.33583,0.06065
1184.27622,0.06028
1182.21661,0.06005
1180.15700,0.06008
1178.09739,0.06036
1176.03778,0.06081
1173.97817,0.06142
1171.91855,0.06212
1169.85894,0.06285
1167.79933,0.06351
1165.73972,0.06409
1163.68011,0.06465
1161.62050,0.06500
1159.56089,0.06497
1157.50128,0.06467
1155.44167,0.06425
1153.38206,0.06377
1151.32245,0.06322
1149.26284,0.06260
1147.20322,0.06200
1145.14361,0.06147
1143.08400,0.06101
1141.02439,0.06054
1138.96478,0.06019
1136.90517,0.06003
1134.84556,0.05996
1132.78595,0.06004
1130.72634,0.06030
1128.66673,0.06057
1126.60712,0.06075
1124.54751,0.06086
1122.48790,0.06097
1120.42828,0.06107
1118.36867,0.06108
1116.30906,0.06106
1114.24945,0.06121
1112.18984,0.06154
1110.13023,0.06181
1108.07062,0.06191
1106.01101,0.06199
1103.95140,0.06205
1101.89179,0.06200
1099.83218,0.06183
1097.77257,0.06163
1095.71295,0.06145
1093.65334,0.06141
1091.59373,0.06157
1089.53412,0.06197
1087.47451,0.06267
1085.41490,0.06359
1083.35529,0.06463
1081.29568,0.06577
1079.23607,0.06686
1077.17646,0.06781
1075.11685,0.06863
1073.05724,0.06939
1070.99762,0.07014
1068.93801,0.07093
1066.87840,0.07174
1064.81879,0.07254
1062.75918,0.07328
1060.69957,0.07401
1058.63996,0.07459
1056.58035,0.07489
1054.52074,0.07507
1052.46113,0.07529
1050.40152,0.07539
1048.34191,0.07530
1046.28229,0.07502
1044.22268,0.07449
1042.16307,0.07381
1040.10346,0.07310
1038.04385,0.07241
1035.98424,0.07179
1033.92463,0.07132
1031.86502,0.07099
1029.80541,0.07062
1027.74580,0.07000
1025.68619,0.06912
1023.62658,0.06807
1021.56697,0.06691
1019.50735,0.06575
1017.44774,0.06480
1015.38813,0.06399
1013.32852,0.06312
1011.26891,0.06216
1009.20930,0.06124
1007.14969,0.06045
1005.09008,0.05982
1003.03047,0.05936
1000.97086,0.05902
998.91125,0.05855
996.85164,0.05798
994.79202,0.05747
992.73241,0.05701
990.67280,0.05653
988.61319,0.05604
986.55358,0.05570
984.49397,0.05556
982.43436,0.05555
980.37475,0.05544
978.31514,0.05513
976.25553,0.05477
974.19592,0.05453
972.13631,0.05438
970.07669,0.05422
968.01708,0.05410
965.95747,0.05407
963.89786,0.05408
961.83825,0.05394
959.77864,0.05362
957.71903,0.05334
955.65942,0.05305
953.59981,0.05266
951.54020,0.05226
949.48059,0.05200
947.42098,0.05181
945.36136,0.05155
943.30175,0.05126
941.24214,0.05110
939.18253,0.05107
937.12292,0.05101
935.06331,0.05091
933.00370,0.05082
930.94409,0.05070
928.88448,0.05054
926.82487,0.05037
924.76526,0.05019
922.70565,0.05003
920.64604,0.04983
918.58642,0.04952
916.52681,0.04911
914.46720,0.04875
912.40759,0.04862
910.34798,0.04867
908.28837,0.04875
906.22876,0.04882
904.16915,0.04889
902.10954,0.04896
900.04993,0.04903
897.99032,0.04911
895.93071,0.04916
893.87109,0.04905
891.81148,0.04882
889.75187,0.04864
887.69226,0.04849
885.63265,0.04816
883.57304,0.04778
881.51343,0.04756
879.45382,0.04738
877.39421,0.04718
875.33460,0.04692
873.27499,0.04663
871.21538,0.04637
869.15576,0.04619
867.09615,0.04613
865.03654,0.04619
862.97693,0.04627
860.91732,0.04618
858.85771,0.04586
856.79810,0.04557
854.73849,0.04551
852.67888,0.04556
850.61927,0.04553
848.55966,0.04548
846.50005,0.04541
844.44043,0.04531
842.38082,0.04538
840.32121,0.04553
838.26160,0.04556
836.20199,0.04565
834.14238,0.04585
832.08277,0.04602
830.02316,0.04631
827.96355,0.04669
825.90394,0.04685
823.84433,0.04678
821.78472,0.04661
819.72511,0.04658
817.66549,0.04682
815.60588,0.04719
813.54627,0.04760
811.48666,0.04799
809.42705,0.04834
807.36744,0.04869
805.30783,0.04905
803.24822,0.04918
801.18861,0.04902
799.12900,0.04902
797.06939,0.04926
795.00978,0.04950
792.95016,0.04972
790.89055,0.05011
788.83094,0.05071
786.77133,0.05129
784.71172,0.05165
782.65211,0.05195
780.59250,0.05240
778.53289,0.05290
776.47328,0.05338
774.41367,0.05392
772.35406,0.05446
770.29445,0.05495
768.23483,0.05537
766.17522,0.05577
764.11561,0.05615
762.05600,0.05659
759.99639,0.05705
757.93678,0.05738
755.87717,0.05762
753.81756,0.05807
751.75795,0.05871
749.69834,0.05922
747.63873,0.05967
745.57912,0.06023
743.51950,0.06079
741.45989,0.06108
739.40028,0.06099
737.34067,0.06093
735.28106,0.06127
733.22145,0.06167
731.16184,0.06185
729.10223,0.06218
727.04262,0.06304
724.98301,0.06428
722.92340,0.06518
720.86379,0.06566
718.80418,0.06725
716.74456,0.06869
714.68495,0.07018
712.62534,0.07161
710.56573,0.07314
708.50612,0.07495
706.44651,0.07688
704.38690,0.07863
702.32729,0.08012
700.26768,0.08141
698.20807,0.08236
696.14846,0.08286
694.08885,0.08314
692.02923,0.08352
689.96962,0.08409
687.91001,0.08465
685.85040,0.08514
683.79079,0.08574
681.73118,0.08650
679.67157,0.08726
677.61196,0.08788
675.55235,0.08846
673.49274,0.08892
671.43313,0.09200
669.37352,0.09719
667.31390,0.08498
665.25429,0.09191
663.19468,0.09320
661.13507,0.09300
659.07546,0.09352
657.01585,0.09416
654.95624,0.09458
652.89663,0.09494
650.83702,0.09541
648.77741,0.09547
646.71780,0.09571
644.65819,0.09602
642.59857,0.09656
640.53896,0.09725
638.47935,0.09792
636.41974,0.09849
634.36013,0.09906
632.30052,0.09971
630.24091,0.10036
628.18130,0.10085
626.12169,0.10120
624.06208,0.10173
622.00247,0.10248
619.94286,0.10319
617.88325,0.10357
615.82363,0.10358
613.76402,0.10360
611.70441,0.10384
609.64480,0.10419
607.58519,0.10451
605.52558,0.10490
603.46597,0.10537
601.40636,0.10575
599.34675,0.10581
597.28714,0.10555
595.22753,0.10542
593.16792,0.10588
591.10830,0.10665
589.04869,0.10714
586.98908,0.10742
584.92947,0.10778
582.86986,0.10818
580.81025,0.10876
578.75064,0.10959
576.69103,0.11019
574.63142,0.11048
572.57181,0.11072
570.51220,0.11090
568.45259,0.11113
566.39297,0.11150
564.33336,0.11183
562.27375,0.11235
560.21414,0.11314
558.15453,0.11362
556.09492,0.11386
554.03531,0.11425
551.97570,0.11460
549.91609,0.11481
547.85648,0.11519
545.79687,0.11571
543.73726,0.11594
541.67764,0.11564
539.61803,0.11514
537.55842,0.11492
535.49881,0.11507
533.43920,0.11544
531.37959,0.11597
529.31998,0.11659
527.26037,0.11721
525.20076,0.11794
523.14115,0.11882
521.08154,0.11957
519.02193,0.11976
516.96232,0.11948
514.90270,0.11924
512.84309,0.11900
510.78348,0.11858
508.72387,0.11814
506.66426,0.11776
504.60465,0.11749
502.54504,0.11743
500.48543,0.11727
498.42582,0.11683
496.36621,0.11650
494.30660,0.11633
492.24699,0.11618
490.18737,0.11619
488.12776,0.11609
486.06815,0.11560
484.00854,0.11517
481.94893,0.11519
479.88932,0.11544
477.82971,0.11533
475.77010,0.11497
473.71049,0.11484
471.65088,0.11468
469.59127,0.11448
467.53166,0.11484
465.47204,0.11570
463.41243,0.11639
461.35282,0.11651
459.29321,0.11611
457.23360,0.11584
455.17399,0.11602
453.11438,0.11592
451.05477,0.11536
448.99516,0.11501
446.93555,0.11498
444.87594,0.11458
442.81633,0.11347
440.75671,0.11224
438.69710,0.11168
436.63749,0.11188
434.57788,0.11191
432.51827,0.11126
430.45866,0.11075
428.39905,0.11105
426.33944,0.11168
424.27983,0.11149
422.22022,0.11002
420.16061,0.10787
418.10100,0.10604
416.04138,0.10515
413.98177,0.10560
411.92216,0.10764
409.86255,0.10999
407.80294,0.11042
405.74333,0.10864
403.68372,0.10711
401.62411,0.10752
399.56450,0.10900
