3997.70460,0.02216
3995.64498,0.02219
3993.58537,0.02212
3991.52576,0.02211
3989.46615,0.02212
3987.40654,0.02210
3985.34693,0.02226
3983.28732,0.02242
3981.22771,0.02227
3979.16810,0.02206
3977.10849,0.02211
3975.04888,0.02209
3972.98927,0.02188
3970.92965,0.02184
3968.87004,0.02200
3966.81043,0.02205
3964.75082,0.02205
3962.69121,0.02213
3960.63160,0.02208
3958.57199,0.02196
3956.51238,0.02194
3954.45277,0.02205
3952.39316,0.02224
3950.33355,0.02232
3948.27394,0.02205
3946.21432,0.02175
3944.15471,0.02205
3942.09510,0.02234
3940.03549,0.02221
3937.97588,0.02210
3935.91627,0.02200
3933.85666,0.02215
3931.79705,0.02226
3929.73744,0.02189
3927.67783,0.02165
3925.61822,0.02188
3923.55861,0.02175
3921.49900,0.02149
3919.43938,0.02175
3917.37977,0.02197
3915.32016,0.02161
3913.26055,0.02124
3911.20094,0.02116
3909.14133,0.02105
3907.08172,0.02137
3905.02211,0.02205
3902.96250,0.02211
3900.90289,0.02204
3898.84328,0.02189
3896.78367,0.02115
3894.72405,0.02106
3892.66444,0.02184
3890.60483,0.02166
3888.54522,0.02102
3886.48561,0.02164
3884.42600,0.02161
3882.36639,0.02149
3880.30678,0.02176
3878.24717,0.02098
3876.18756,0.02099
3874.12795,0.02150
3872.06834,0.02161
3870.00872,0.02174
3867.94911,0.02092
3865.88950,0.02110
3863.82989,0.02172
3861.77028,0.02130
3859.71067,0.02061
3857.65106,0.02057
3855.59145,0.02218
3853.53184,0.02356
3851.47223,0.02180
3849.41262,0.02042
3847.35301,0.02060
3845.29339,0.02115
3843.23378,0.02116
3841.17417,0.02100
3839.11456,0.02144
3837.05495,0.02133
3834.99534,0.02079
3832.93573,0.02091
3830.87612,0.02094
3828.81651,0.02083
3826.75690,0.02080
3824.69729,0.02044
3822.63768,0.02120
3820.57807,0.02142
3818.51845,0.02075
3816.45884,0.02155
3814.39923,0.02130
3812.33962,0.02042
3810.28001,0.02043
3808.22040,0.02106
3806.16079,0.02078
3804.10118,0.02048
3802.04157,0.02144
3799.98196,0.02092
3797.92235,0.02070
3795.86274,0.02126
3793.80312,0.02110
3791.74351,0.02097
3789.68390,0.02089
3787.62429,0.02083
3785.56468,0.02091
3783.50507,0.02073
3781.44546,0.02087
3779.38585,0.02129
3777.32624,0.02093
3775.26663,0.02059
3773.20702,0.02070
3771.14741,0.02112
3769.08779,0.02092
3767.02818,0.02052
3764.96857,0.02035
3762.90896,0.02013
3760.84935,0.02070
3758.78974,0.02093
3756.73013,0.02008
3754.67052,0.01967
3752.61091,0.02041
3750.55130,0.02034
3748.49169,0.01871
3746.43208,0.01897
3744.37246,0.02024
3742.31285,0.01902
3740.25324,0.01824
3738.19363,0.01899
3736.13402,0.01988
3734.07441,0.01985
3732.01480,0.01936
3729.95519,0.01885
3727.89558,0.01926
3725.83597,0.01980
3723.77636,0.01984
3721.71675,0.01988
3719.65714,0.01978
3717.59752,0.01941
3715.53791,0.01933
3713.47830,0.02035
3711.41869,0.02114
3709.35908,0.02028
3707.29947,0.01918
3705.23986,0.01908
3703.18025,0.02007
3701.12064,0.02061
3699.06103,0.02012
3697.00142,0.01968
3694.94181,0.01923
3692.88219,0.01914
3690.82258,0.01993
3688.76297,0.02029
3686.70336,0.01943
3684.64375,0.01891
3682.58414,0.01890
3680.52453,0.01865
3678.46492,0.01884
3676.40531,0.01995
3674.34570,0.01916
3672.28609,0.01847
3670.22648,0.02005
3668.16686,0.02007
3666.10725,0.01936
3664.04764,0.01953
3661.98803,0.01959
3659.92842,0.01934
3657.86881,0.01958
3655.80920,0.01940
3653.74959,0.01858
3651.68998,0.01952
3649.63037,0.02081
3647.57076,0.02022
3645.51115,0.01916
3643.45153,0.01919
3641.39192,0.01971
3639.33231,0.01981
3637.27270,0.01977
3635.21309,0.01982
3633.15348,0.01961
3631.09387,0.02011
3629.03426,0.02113
3626.97465,0.02009
3624.91504,0.01905
3622.85543,0.01944
3620.79582,0.02055
3618.73621,0.02071
3616.67659,0.01983
3614.61698,0.02003
3612.55737,0.02063
3610.49776,0.02076
3608.43815,0.02095
3606.37854,0.02064
3604.31893,0.02046
3602.25932,0.02097
3600.19971,0.02127
3598.14010,0.02117
3596.08049,0.02127
3594.02088,0.02127
3591.96126,0.02105
3589.90165,0.02156
3587.84204,0.02255
3585.78243,0.02227
3583.72282,0.02177
3581.66321,0.02210
3579.60360,0.02261
3577.54399,0.02286
3575.48438,0.02293
3573.42477,0.02276
3571.36516,0.02257
3569.30555,0.02309
3567.24593,0.02378
3565.18632,0.02349
3563.12671,0.02326
3561.06710,0.02372
3559.00749,0.02405
3556.94788,0.02409
3554.88827,0.02434
3552.82866,0.02467
3550.76905,0.02457
3548.70944,0.02450
3546.64983,0.02475
3544.59022,0.02482
3542.53060,0.02492
3540.47099,0.02528
3538.41138,0.02561
3536.35177,0.02567
3534.29216,0.02555
3532.23255,0.02558
3530.17294,0.02573
3528.11333,0.02586
3526.05372,0.02603
3523.99411,0.02630
3521.93450,0.02635
3519.87489,0.02638
3517.81528,0.02669
3515.75566,0.02710
3513.69605,0.02749
3511.63644,0.02790
3509.57683,0.02802
3507.51722,0.02769
3505.45761,0.02775
3503.39800,0.02820
3501.33839,0.02813
3499.27878,0.02797
3497.21917,0.02823
3495.15956,0.02855
3493.09995,0.02871
3491.04033,0.02888
3488.98072,0.02907
3486.92111,0.02916
3484.86150,0.02940
3482.80189,0.02990
3480.74228,0.03000
3478.68267,0.02978
3476.62306,0.02992
3474.56345,0.03025
3472.50384,0.03041
3470.44423,0.03051
3468.38462,0.03068
3466.32500,0.03083
3464.26539,0.03101
3462.20578,0.03125
3460.14617,0.03138
3458.08656,0.03159
3456.02695,0.03182
3453.96734,0.03193
3451.90773,0.03199
3449.84812,0.03218
3447.78851,0.03254
3445.72890,0.03262
3443.66929,0.03264
3441.60967,0.03291
3439.55006,0.03317
3437.49045,0.03341
3435.43084,0.03367
3433.37123,0.03390
3431.31162,0.03395
3429.25201,0.03395
3427.19240,0.03413
3425.13279,0.03430
3423.07318,0.03445
3421.01357,0.03474
3418.95396,0.03498
3416.89435,0.03518
3414.83473,0.03544
3412.77512,0.03567
3410.71551,0.03579
3408.65590,0.03588
3406.59629,0.03594
3404.53668,0.03607
3402.47707,0.03640
3400.41746,0.03672
3398.35785,0.03696
3396.29824,0.03706
3394.23863,0.03718
3392.17902,0.03735
3390.11940,0.03739
3388.05979,0.03746
3386.00018,0.03768
3383.94057,0.03792
3381.88096,0.03808
3379.82135,0.03822
3377.76174,0.03845
3375.70213,0.03877
3373.64252,0.03908
3371.58291,0.03930
3369.52330,0.03950
3367.46369,0.03984
3365.40407,0.04023
3363.34446,0.04053
3361.28485,0.04071
3359.22524,0.04080
3357.16563,0.04093
3355.10602,0.04117
3353.04641,0.04160
3350.98680,0.04211
3348.92719,0.04247
3346.86758,0.04274
3344.80797,0.04297
3342.74836,0.04325
3340.68874,0.04371
3338.62913,0.04424
3336.56952,0.04460
3334.50991,0.04476
3332.45030,0.04509
3330.39069,0.04573
3328.33108,0.04638
3326.27147,0.04680
3324.21186,0.04699
3322.15225,0.04721
3320.09264,0.04771
3318.03303,0.04830
3315.97342,0.04885
3313.91380,0.04944
3311.85419,0.05001
3309.79458,0.05053
3307.73497,0.05104
3305.67536,0.05161
3303.61575,0.05219
3301.55614,0.05273
3299.49653,0.05332
3297.43692,0.05397
3295.37731,0.05457
3293.31770,0.05512
3291.25809,0.05564
3289.19847,0.05622
3287.13886,0.05683
3285.07925,0.05722
3283.01964,0.05746
3280.96003,0.05785
3278.90042,0.05826
3276.84081,0.05865
3274.78120,0.05909
3272.72159,0.05940
3270.66198,0.05944
3268.60237,0.05937
3266.54276,0.05929
3264.48314,0.05922
3262.42353,0.05924
3260.36392,0.05927
3258.30431,0.05916
3256.24470,0.05889
3254.18509,0.05854
3252.12548,0.05814
3250.06587,0.05779
3248.00626,0.05748
3245.94665,0.05701
3243.88704,0.05636
3241.82743,0.05590
3239.76781,0.05572
3237.70820,0.05555
3235.64859,0.05528
3233.58898,0.05489
3231.52937,0.05448
3229.46976,0.05422
3227.41015,0.05407
3225.35054,0.05382
3223.29093,0.05352
3221.23132,0.05330
3219.17171,0.05309
3217.11210,0.05285
3215.05248,0.05271
3212.99287,0.05259
3210.93326,0.05252
3208.87365,0.05246
3206.81404,0.05230
3204.75443,0.05214
3202.69482,0.05191
3200.63521,0.05165
3198.57560,0.05148
3196.51599,0.05128
3194.45638,0.05093
3192.39677,0.05071
3190.33716,0.05068
3188.27754,0.05057
3186.21793,0.05029
3184.15832,0.05001
3182.09871,0.04970
3180.03910,0.04941
3177.97949,0.04928
3175.91988,0.04911
3173.86027,0.04873
3171.80066,0.04826
3169.74105,0.04798
3167.68144,0.04792
3165.62183,0.04786
3163.56221,0.04761
3161.50260,0.04725
3159.44299,0.04687
3157.38338,0.04654
3155.32377,0.04632
3153.26416,0.04615
3151.20455,0.04595
3149.14494,0.04561
3147.08533,0.04527
3145.02572,0.04506
3142.96611,0.04486
3140.90650,0.04461
3138.84688,0.04434
3136.78727,0.04400
3134.72766,0.04364
3132.66805,0.04333
3130.60844,0.04309
3128.54883,0.04299
3126.48922,0.04285
3124.42961,0.04267
3122.37000,0.04254
3120.31039,0.04239
3118.25078,0.04223
3116.19117,0.04210
3114.13155,0.04197
3112.07194,0.04187
3110.01233,0.04178
3107.95272,0.04155
3105.89311,0.04126
3103.83350,0.04114
3101.77389,0.04123
3099.71428,0.04122
3097.65467,0.04109
3095.59506,0.04099
3093.53545,0.04104
3091.47584,0.04112
3089.41623,0.04109
3087.35661,0.04110
3085.29700,0.04121
3083.23739,0.04131
3081.17778,0.04149
3079.11817,0.04172
3077.05856,0.04177
3074.99895,0.04162
3072.93934,0.04146
3070.87973,0.04144
3068.82012,0.04154
3066.76051,0.04158
3064.70090,0.04154
3062.64128,0.04157
3060.58167,0.04155
3058.52206,0.04143
3056.46245,0.04138
3054.40284,0.04141
3052.34323,0.04146
3050.28362,0.04144
3048.22401,0.04128
3046.16440,0.04109
3044.10479,0.04092
3042.04518,0.04074
3039.98557,0.04063
3037.92595,0.04058
3035.86634,0.04052
3033.80673,0.04043
3031.74712,0.04031
3029.68751,0.04011
3027.62790,0.03985
3025.56829,0.03961
3023.50868,0.03940
3021.44907,0.03923
3019.38946,0.03906
3017.32985,0.03879
3015.27024,0.03848
3013.21062,0.03831
3011.15101,0.03830
3009.09140,0.03823
3007.03179,0.03800
3004.97218,0.03770
3002.91257,0.03748
3000.85296,0.03745
2998.79335,0.03759
2996.73374,0.03769
2994.67413,0.03760
2992.61452,0.03752
2990.55491,0.03762
2988.49530,0.03782
2986.43568,0.03800
2984.37607,0.03824
2982.31646,0.03856
2980.25685,0.03886
2978.19724,0.03913
2976.13763,0.03933
2974.07802,0.03946
2972.01841,0.03970
2969.95880,0.04006
2967.89919,0.04041
2965.83958,0.04074
2963.77997,0.04104
2961.72035,0.04129
2959.66074,0.04140
2957.60113,0.04122
2955.54152,0.04101
2953.48191,0.04095
2951.42230,0.04096
2949.36269,0.04104
2947.30308,0.04109
2945.24347,0.04106
2943.18386,0.04112
2941.12425,0.04138
2939.06464,0.04166
2937.00502,0.04177
2934.94541,0.04189
2932.88580,0.04219
2930.82619,0.04238
2928.76658,0.04226
2926.70697,0.04203
2924.64736,0.04181
2922.58775,0.04152
2920.52814,0.04121
2918.46853,0.04103
2916.40892,0.04087
2914.34931,0.04063
2912.28969,0.04045
2910.23008,0.04032
2908.17047,0.04013
2906.11086,0.03993
2904.05125,0.03982
2901.99164,0.03980
2899.93203,0.03973
2897.87242,0.03960
2895.81281,0.03943
2893.75320,0.03928
2891.69359,0.03917
2889.63398,0.03914
2887.57437,0.03915
2885.51475,0.03918
2883.45514,0.03931
2881.39553,0.03953
2879.33592,0.03969
2877.27631,0.03976
2875.21670,0.03988
2873.15709,0.04010
2871.09748,0.04026
2869.03787,0.04017
2866.97826,0.03987
2864.91865,0.03951
2862.85904,0.03918
2860.79942,0.03895
2858.73981,0.03874
2856.68020,0.03850
2854.62059,0.03828
2852.56098,0.03806
2850.50137,0.03784
2848.44176,0.03767
2846.38215,0.03763
2844.32254,0.03759
2842.26293,0.03738
2840.20332,0.03713
2838.14371,0.03698
2836.08409,0.03684
2834.02448,0.03669
2831.96487,0.03661
2829.90526,0.03658
2827.84565,0.03655
2825.78604,0.03651
2823.72643,0.03643
2821.66682,0.03629
2819.60721,0.03616
2817.54760,0.03609
2815.48799,0.03604
2813.42838,0.03598
2811.36876,0.03596
2809.30915,0.03598
2807.24954,0.03590
2805.18993,0.03572
2803.13032,0.03557
2801.07071,0.03554
2799.01110,0.03555
2796.95149,0.03549
2794.89188,0.03537
2792.83227,0.03522
2790.77266,0.03512
2788.71305,0.03508
2786.65344,0.03507
2784.59382,0.03509
2782.53421,0.03506
2780.47460,0.03496
2778.41499,0.03485
2776.35538,0.03480
2774.29577,0.03481
2772.23616,0.03484
2770.17655,0.03482
2768.11694,0.03476
2766.05733,0.03471
2763.99772,0.03463
2761.93811,0.03445
2759.87849,0.03433
2757.81888,0.03435
2755.75927,0.03437
2753.69966,0.03427
2751.64005,0.03412
2749.58044,0.03402
2747.52083,0.03400
2745.46122,0.03398
2743.40161,0.03398
2741.34200,0.03410
2739.28239,0.03415
2737.22278,0.03398
2735.16316,0.03381
2733.10355,0.03377
2731.04394,0.03376
2728.98433,0.03372
2726.92472,0.03369
2724.86511,0.03362
2722.80550,0.03347
2720.74589,0.03335
2718.68628,0.03329
2716.62667,0.03328
2714.56706,0.03331
2712.50745,0.03332
2710.44783,0.03324
2708.38822,0.03317
2706.32861,0.03315
2704.26900,0.03309
2702.20939,0.03300
2700.14978,0.03293
2698.09017,0.03287
2696.03056,0.03283
2693.97095,0.03280
2691.91134,0.03278
2689.85173,0.03278
2687.79212,0.03272
2685.73251,0.03265
2683.67289,0.03260
2681.61328,0.03256
2679.55367,0.03248
2677.49406,0.03242
2675.43445,0.03245
2673.37484,0.03248
2671.31523,0.03247
2669.25562,0.03252
2667.19601,0.03252
2665.13640,0.03241
2663.07679,0.03237
2661.01718,0.03246
2658.95756,0.03252
2656.89795,0.03246
2654.83834,0.03232
2652.77873,0.03218
2650.71912,0.03213
2648.65951,0.03207
2646.59990,0.03197
2644.54029,0.03195
2642.48068,0.03203
2640.42107,0.03203
2638.36146,0.03189
2636.30185,0.03171
2634.24223,0.03159
2632.18262,0.03147
2630.12301,0.03140
2628.06340,0.03141
2626.00379,0.03138
2623.94418,0.03123
2621.88457,0.03099
2619.82496,0.03087
2617.76535,0.03087
2615.70574,0.03081
2613.64613,0.03089
2611.58652,0.03108
2609.52690,0.03104
2607.46729,0.03081
2605.40768,0.03056
2603.34807,0.03046
2601.28846,0.03050
2599.22885,0.03052
2597.16924,0.03052
2595.10963,0.03047
2593.05002,0.03034
2590.99041,0.03027
2588.93080,0.03020
2586.87119,0.03008
2584.81158,0.03004
2582.75196,0.03001
2580.69235,0.02990
2578.63274,0.02985
2576.57313,0.02987
2574.51352,0.02980
2572.45391,0.02965
2570.39430,0.02956
2568.33469,0.02954
2566.27508,0.02948
2564.21547,0.02934
2562.15586,0.02936
2560.09625,0.02956
2558.03663,0.02962
2555.97702,0.02944
2553.91741,0.02932
2551.85780,0.02933
2549.79819,0.02938
2547.73858,0.02932
2545.67897,0.02908
2543.61936,0.02895
2541.55975,0.02909
2539.50014,0.02917
2537.44053,0.02899
2535.38092,0.02874
2533.32130,0.02879
2531.26169,0.02902
2529.20208,0.02903
2527.14247,0.02897
2525.08286,0.02908
2523.02325,0.02914
2520.96364,0.02907
2518.90403,0.02894
2516.84442,0.02881
2514.78481,0.02874
2512.72520,0.02882
2510.66559,0.02882
2508.60597,0.02855
2506.54636,0.02827
2504.48675,0.02817
2502.42714,0.02828
2500.36753,0.02857
2498.30792,0.02874
2496.24831,0.02865
2494.18870,0.02856
2492.12909,0.02863
2490.06948,0.02871
2488.00987,0.02868
2485.95026,0.02856
2483.89065,0.02838
2481.83103,0.02826
2479.77142,0.02820
2477.71181,0.02817
2475.65220,0.02816
2473.59259,0.02819
2471.53298,0.02818
2469.47337,0.02825
2467.41376,0.02847
2465.35415,0.02857
2463.29454,0.02843
2461.23493,0.02827
2459.17532,0.02818
2457.11570,0.02807
2455.05609,0.02796
2452.99648,0.02796
2450.93687,0.02800
2448.87726,0.02793
2446.81765,0.02790
2444.75804,0.02800
2442.69843,0.02808
2440.63882,0.02809
2438.57921,0.02803
2436.51960,0.02788
2434.45999,0.02776
2432.40037,0.02769
2430.34076,0.02761
2428.28115,0.02753
2426.22154,0.02743
2424.16193,0.02741
2422.10232,0.02751
2420.04271,0.02761
2417.98310,0.02763
2415.92349,0.02756
2413.86388,0.02749
2411.80427,0.02763
2409.74466,0.02787
2407.68504,0.02795
2405.62543,0.02785
2403.56582,0.02773
2401.50621,0.02759
2399.44660,0.02738
2397.38699,0.02743
2395.32738,0.02763
2393.26777,0.02776
2391.20816,0.02774
2389.14855,0.02764
2387.08894,0.02758
2385.02933,0.02766
2382.96972,0.02780
2380.91010,0.02779
2378.85049,0.02767
2376.79088,0.02777
2374.73127,0.02655
2372.67166,0.02619
2370.61205,0.02750
2368.55244,0.02741
2366.49283,0.02749
2364.43322,0.02631
2362.37361,0.02546
2360.31400,0.02735
2358.25439,0.02673
2356.19477,0.02666
2354.13516,0.02695
2352.07555,0.02713
2350.01594,0.02977
2347.95633,0.02817
2345.89672,0.02674
2343.83711,0.02851
2341.77750,0.02619
2339.71789,0.02487
2337.65828,0.02421
2335.59867,0.02611
2333.53906,0.03126
2331.47944,0.03243
2329.41983,0.03270
2327.36022,0.02748
2325.30061,0.02452
2323.24100,0.02133
2321.18139,0.02082
2319.12178,0.02185
2317.06217,0.02282
2315.00256,0.02353
2312.94295,0.02415
2310.88334,0.02439
2308.82373,0.02445
2306.76411,0.02471
2304.70450,0.02511
2302.64489,0.02552
2300.58528,0.02592
2298.52567,0.02627
2296.46606,0.02666
2294.40645,0.02690
2292.34684,0.02701
2290.28723,0.02697
2288.22762,0.02672
2286.16801,0.02642
2284.10840,0.02642
2282.04878,0.02637
2279.98917,0.02614
2277.92956,0.02595
2275.86995,0.02571
2273.81034,0.02548
2271.75073,0.02526
2269.69112,0.02509
2267.63151,0.02501
2265.57190,0.02506
2263.51229,0.02492
2261.45268,0.02481
2259.39307,0.02500
2257.33346,0.02519
2255.27384,0.02506
2253.21423,0.02469
2251.15462,0.02441
2249.09501,0.02436
2247.03540,0.02434
2244.97579,0.02425
2242.91618,0.02426
2240.85657,0.02396
2238.79696,0.02332
2236.73735,0.02285
2234.67774,0.02279
2232.61813,0.02307
2230.55851,0.02332
2228.49890,0.02330
2226.43929,0.02321
2224.37968,0.02331
2222.32007,0.02346
2220.26046,0.02330
2218.20085,0.02289
2216.14124,0.02266
2214.08163,0.02273
2212.02202,0.02283
2209.96241,0.02280
2207.90280,0.02263
2205.84318,0.02232
2203.78357,0.02213
2201.72396,0.02226
2199.66435,0.02241
2197.60474,0.02239
2195.54513,0.02223
2193.48552,0.02187
2191.42591,0.02161
2189.36630,0.02143
2187.30669,0.02113
2185.24708,0.02096
2183.18747,0.02071
2181.12785,0.02040
2179.06824,0.02061
2177.00863,0.02090
2174.94902,0.02065
2172.88941,0.02070
2170.82980,0.02135
2168.77019,0.02141
2166.71058,0.02059
2164.65097,0.01968
2162.59136,0.01918
2160.53175,0.01882
2158.47214,0.01849
2156.41253,0.01861
2154.35291,0.01907
2152.29330,0.01956
2150.23369,0.01981
2148.17408,0.02003
2146.11447,0.02070
2144.05486,0.02137
2141.99525,0.02142
2139.93564,0.02115
2137.87603,0.02104
2135.81642,0.02120
2133.75681,0.02166
2131.69720,0.02218
2129.63758,0.02252
2127.57797,0.02274
2125.51836,0.02272
2123.45875,0.02249
2121.39914,0.02254
2119.33953,0.02273
2117.27992,0.02265
2115.22031,0.02252
2113.16070,0.02258
2111.10109,0.02277
2109.04148,0.02282
2106.98187,0.02277
2104.92225,0.02289
2102.86264,0.02306
2100.80303,0.02309
2098.74342,0.02289
2096.68381,0.02260
2094.62420,0.02244
2092.56459,0.02249
2090.50498,0.02256
2088.44537,0.02241
2086.38576,0.02210
2084.32615,0.02182
2082.26654,0.02175
2080.20692,0.02197
2078.14731,0.02216
2076.08770,0.02204
2074.02809,0.02188
2071.96848,0.02190
2069.90887,0.02180
2067.84926,0.02149
2065.78965,0.02143
2063.73004,0.02159
2061.67043,0.02148
2059.61082,0.02127
2057.55121,0.02129
2055.49160,0.02128
2053.43198,0.02120
2051.37237,0.02106
2049.31276,0.02058
2047.25315,0.02001
2045.19354,0.01967
2043.13393,0.01944
2041.07432,0.01906
2039.01471,0.01868
2036.95510,0.01858
2034.89549,0.01857
2032.83588,0.01867
2030.77627,0.01871
2028.71665,0.01847
2026.65704,0.01842
2024.59743,0.01850
2022.53782,0.01835
2020.47821,0.01817
2018.41860,0.01828
2016.35899,0.01808
2014.29938,0.01730
2012.23977,0.01698
2010.18016,0.01720
2008.12055,0.01745
2006.06094,0.01782
2004.00132,0.01823
2001.94171,0.01840
1999.88210,0.01846
1997.82249,0.01845
1995.76288,0.01831
1993.70327,0.01865
1991.64366,0.01917
1989.58405,0.01932
1987.52444,0.01939
1985.46483,0.01905
1983.40522,0.01860
1981.34561,0.01842
1979.28599,0.01823
1977.22638,0.01780
1975.16677,0.01715
1973.10716,0.01645
1971.04755,0.01619
1968.98794,0.01693
1966.92833,0.01795
1964.86872,0.01818
1962.80911,0.01812
1960.74950,0.01808
1958.68989,0.01797
1956.63028,0.01815
1954.57067,0.01863
1952.51105,0.01883
1950.45144,0.01879
1948.39183,0.01894
1946.33222,0.01899
1944.27261,0.01885
1942.21300,0.01865
1940.15339,0.01846
1938.09378,0.01886
1936.03417,0.01937
1933.97456,0.01954
1931.91495,0.01953
1929.85534,0.01949
1927.79572,0.01945
1925.73611,0.01955
1923.67650,0.01978
1921.61689,0.01941
1919.55728,0.01923
1917.49767,0.01949
1915.43806,0.01942
1913.37845,0.01950
1911.31884,0.01961
1909.25923,0.01956
1907.19962,0.01939
1905.14001,0.01945
1903.08039,0.01964
1901.02078,0.01961
1898.96117,0.01946
1896.90156,0.01951
1894.84195,0.01950
1892.78234,0.01929
1890.72273,0.01946
1888.66312,0.01939
1886.60351,0.01902
1884.54390,0.01909
1882.48429,0.01919
1880.42468,0.01914
1878.36506,0.01913
1876.30545,0.01914
1874.24584,0.01896
1872.18623,0.01889
1870.12662,0.01943
1868.06701,0.01953
1866.00740,0.01874
1863.94779,0.01831
1861.88818,0.01844
1859.82857,0.01866
1857.76896,0.01874
1855.70935,0.01869
1853.64974,0.01856
1851.59012,0.01837
1849.53051,0.01805
1847.47090,0.01771
1845.41129,0.01807
1843.35168,0.01835
1841.29207,0.01787
1839.23246,0.01787
1837.17285,0.01809
1835.11324,0.01789
1833.05363,0.01775
1830.99402,0.01816
1828.93441,0.01798
1826.87479,0.01757
1824.81518,0.01776
1822.75557,0.01763
1820.69596,0.01752
1818.63635,0.01763
1816.57674,0.01750
1814.51713,0.01720
1812.45752,0.01728
1810.39791,0.01742
1808.33830,0.01715
1806.27869,0.01675
1804.21908,0.01663
1802.15946,0.01700
1800.09985,0.01715
1798.04024,0.01659
1795.98063,0.01613
1793.92102,0.01664
1791.86141,0.01707
1789.80180,0.01627
1787.74219,0.01586
1785.68258,0.01621
1783.62297,0.01627
1781.56336,0.01629
1779.50375,0.01612
1777.44413,0.01556
1775.38452,0.01547
1773.32491,0.01602
1771.26530,0.01580
1769.20569,0.01517
1767.14608,0.01498
1765.08647,0.01486
1763.02686,0.01535
1760.96725,0.01536
1758.90764,0.01494
1756.84803,0.01480
1754.78842,0.01411
1752.72881,0.01414
1750.66919,0.01478
1748.60958,0.01454
1746.54997,0.01394
1744.49036,0.01376
1742.43075,0.01395
1740.37114,0.01408
1738.31153,0.01324
1736.25192,0.01322
1734.19231,0.01442
1732.13270,0.01371
1730.07309,0.01318
1728.01348,0.01339
1725.95386,0.01357
1723.89425,0.01345
1721.83464,0.01283
1719.77503,0.01321
1717.71542,0.01412
1715.65581,0.01358
1713.59620,0.01296
1711.53659,0.01313
1709.47698,0.01382
1707.41737,0.01488
1705.35776,0.01557
1703.29815,0.01618
1701.23853,0.01925
1699.17892,0.02245
1697.11931,0.02544
1695.05970,0.02845
1693.00009,0.02992
1690.94048,0.03192
1688.88087,0.03389
1686.82126,0.03639
1684.76165,0.04103
1682.70204,0.04377
1680.64243,0.04484
1678.58282,0.04697
1676.52320,0.05046
1674.46359,0.05352
1672.40398,0.05596
1670.34437,0.06020
1668.28476,0.06406
1666.22515,0.06676
1664.16554,0.07106
1662.10593,0.07593
1660.04632,0.07897
1657.98671,0.08099
1655.92710,0.08453
1653.86749,0.09014
1651.80788,0.09153
1649.74826,0.09095
1647.68865,0.09351
1645.62904,0.09498
1643.56943,0.09417
1641.50982,0.09368
1639.45021,0.09372
1637.39060,0.09481
1635.33099,0.09530
1633.27138,0.09339
1631.21177,0.09231
1629.15216,0.09256
1627.09255,0.09233
1625.03293,0.09228
1622.97332,0.09236
1620.91371,0.09135
1618.85410,0.09162
1616.79449,0.09278
1614.73488,0.09183
1612.67527,0.09072
1610.61566,0.09056
1608.55605,0.09014
1606.49644,0.08909
1604.43683,0.08791
1602.37722,0.08655
1600.31760,0.08472
1598.25799,0.08263
1596.19838,0.08046
1594.13877,0.07796
1592.07916,0.07521
1590.01955,0.07250
1587.95994,0.06986
1585.90033,0.06738
1583.84072,0.06499
1581.78111,0.06250
1579.72150,0.06041
1577.66189,0.05973
1575.60227,0.05852
1573.54266,0.05606
1571.48305,0.05595
1569.42344,0.05688
1567.36383,0.05633
1565.30422,0.05591
1563.24461,0.05577
1561.18500,0.05811
1559.12539,0.06298
1557.06578,0.06442
1555.00617,0.06594
1552.94656,0.06915
1550.88695,0.07282
1548.82733,0.07583
1546.76772,0.07814
1544.70811,0.08081
1542.64850,0.08417
1540.58889,0.08851
1538.52928,0.08994
1536.46967,0.08978
1534.41006,0.09202
1532.35045,0.09375
1530.29084,0.09391
1528.23123,0.09488
1526.17162,0.09578
1524.11200,0.09650
1522.05239,0.09819
1519.99278,0.09890
1517.93317,0.09975
1515.87356,0.10085
1513.81395,0.10074
1511.75434,0.10025
1509.69473,0.10053
1507.63512,0.10180
1505.57551,0.09993
1503.51590,0.09641
1501.45629,0.09497
1499.39667,0.09452
1497.33706,0.09306
1495.27745,0.08972
1493.21784,0.08647
1491.15823,0.08474
1489.09862,0.08232
1487.03901,0.07881
1484.97940,0.07589
1482.91979,0.07392
1480.86018,0.07196
1478.80057,0.06980
1476.74096,0.06834
1474.68134,0.06791
1472.62173,0.06795
1470.56212,0.06677
1468.50251,0.06592
1466.44290,0.06666
1464.38329,0.06676
1462.32368,0.06546
1460.26407,0.06572
1458.20446,0.06829
1456.14485,0.06953
1454.08524,0.06886
1452.02563,0.06899
1449.96602,0.06971
1447.90640,0.07004
1445.84679,0.06944
1443.78718,0.06859
1441.72757,0.06761
1439.66796,0.06681
1437.60835,0.06676
1435.54874,0.06555
1433.48913,0.06368
1431.42952,0.06328
1429.36991,0.06316
1427.31030,0.06262
1425.25069,0.06253
1423.19107,0.06239
1421.13146,0.06281
1419.07185,0.06407
1417.01224,0.06418
1414.95263,0.06411
1412.89302,0.06467
1410.83341,0.06510
1408.77380,0.06516
1406.71419,0.06541
1404.65458,0.06545
1402.59497,0.06490
1400.53536,0.06489
1398.47574,0.06510
1396.41613,0.06522
1394.35652,0.06544
1392.29691,0.06514
1390.23730,0.06537
1388.17769,0.06639
1386.11808,0.06675
1384.05847,0.06651
1381.99886,0.06654
1379.93925,0.06648
1377.87964,0.06616
1375.82003,0.06607
1373.76041,0.06598
1371.70080,0.06552
1369.64119,0.06536
1367.58158,0.06503
1365.52197,0.06449
1363.46236,0.06424
1361.40275,0.06355
1359.34314,0.06260
1357.28353,0.06216
1355.22392,0.06198
1353.16431,0.06176
1351.10470,0.06162
1349.04508,0.06166
1346.98547,0.06175
1344.92586,0.06182
1342.86625,0.06202
1340.80664,0.06265
1338.74703,0.06318
1336.68742,0.06325
1334.62781,0.06342
1332.56820,0.06371
1330.50859,0.06389
1328.44898,0.06393
1326.38937,0.06393
1324.32976,0.06390
1322.27014,0.06386
1320.21053,0.06395
1318.15092,0.06404
1316.09131,0.06403
1314.03170,0.06413
1311.97209,0.06421
1309.91248,0.06428
1307.85287,0.06441
1305.79326,0.06446
1303.73365,0.06449
1301.67404,0.06458
1299.61443,0.06462
1297.55481,0.06448
1295.49520,0.06422
1293.43559,0.06395
1291.37598,0.06370
1289.31637,0.06341
1287.25676,0.06310
1285.19715,0.06287
1283.13754,0.06279
1281.07793,0.06273
1279.01832,0.06268
1276.95871,0.06266
1274.89910,0.06265
1272.83948,0.06271
1270.77987,0.06280
1268.72026,0.06289
1266.66065,0.06300
1264.60104,0.06306
1262.54143,0.06316
1260.48182,0.06344
1258.42221,0.06384
1256.36260,0.06438
1254.30299,0.06502
1252.24338,0.06560
1250.18377,0.06605
1248.12415,0.06653
1246.06454,0.06710
1244.00493,0.06764
1241.94532,0.06810
1239.88571,0.06853
1237.82610,0.06889
1235.76649,0.06914
1233.70688,0.06929
1231.64727,0.06930
1229.58766,0.06922
1227.52805,0.06907
1225.46844,0.06882
1223.40883,0.06846
1221.34921,0.06804
1219.28960,0.06752
1217.22999,0.06689
1215.17038,0.06627
1213.11077,0.06564
1211.05116,0.06488
1208.99155,0.06400
1206.93194,0.06312
1204.87233,0.06231
1202.81272,0.06150
1200.75311,0.06067
1198.69350,0.05990
1196.63388,0.05919
1194.57427,0.05852
1192.51466,0.05788
1190.45505,0.05729
1188.39544,0.05685
1186.33583,0.05657
1184.27622,0.05629
1182.21661,0.05600
1180.15700,0.05586
1178.09739,0.05597
1176.03778,0.05632
1173.97817,0.05683
1171.91855,0.05722
1169.85894,0.05740
1167.79933,0.05756
1165.73972,0.05779
1163.68011,0.05799
1161.62050,0.05803
1159.56089,0.05791
1157.50128,0.05761
1155.44167,0.05712
1153.38206,0.05659
1151.32245,0.05620
1149.26284,0.05586
1147.20322,0.05543
1145.14361,0.05505
1143.08400,0.05480
1141.02439,0.05460
1138.96478,0.05449
1136.90517,0.05445
1134.84556,0.05449
1132.78595,0.05461
1130.72634,0.05482
1128.66673,0.05500
1126.60712,0.05505
1124.54751,0.05497
1122.48790,0.05477
1120.42828,0.05450
1118.36867,0.05430
1116.30906,0.05419
1114.24945,0.05409
1112.18984,0.05395
1110.13023,0.05380
1108.07062,0.05377
1106.01101,0.05390
1103.95140,0.05404
1101.89179,0.05410
1099.83218,0.05411
1097.77257,0.05407
1095.71295,0.05403
1093.65334,0.05419
1091.59373,0.05459
1089.53412,0.05517
1087.47451,0.05593
1085.41490,0.05688
1083.35529,0.05800
1081.29568,0.05916
1079.23607,0.06026
1077.17646,0.06124
1075.11685,0.06211
1073.05724,0.06286
1070.99762,0.06347
1068.93801,0.06403
1066.87840,0.06461
1064.81879,0.06517
1062.75918,0.06576
1060.69957,0.06633
1058.63996,0.06674
1056.58035,0.06704
1054.52074,0.06721
1052.46113,0.06722
1050.40152,0.06712
1048.34191,0.06678
1046.28229,0.06635
1044.22268,0.06600
1042.16307,0.06546
1040.10346,0.06471
1038.04385,0.06402
1035.98424,0.06334
1033.92463,0.06262
1031.86502,0.06196
1029.80541,0.06126
1027.74580,0.06044
1025.68619,0.05954
1023.62658,0.05852
1021.56697,0.05746
1019.50735,0.05655
1017.44774,0.05576
1015.38813,0.05495
1013.32852,0.05414
1011.26891,0.05328
1009.20930,0.05244
1007.14969,0.05174
1005.09008,0.05112
1003.03047,0.05055
1000.97086,0.04999
998.91125,0.04943
996.85164,0.04894
994.79202,0.04852
992.73241,0.04811
990.67280,0.04771
988.61319,0.04737
986.55358,0.04715
984.49397,0.04699
982.43436,0.04677
980.37475,0.04652
978.31514,0.04629
976.25553,0.04614
974.19592,0.04601
972.13631,0.04585
970.07669,0.04569
968.01708,0.04561
965.95747,0.04559
963.89786,0.04557
961.83825,0.04551
959.77864,0.04541
957.71903,0.04521
955.65942,0.04493
953.59981,0.04469
951.54020,0.04448
949.48059,0.04424
947.42098,0.04402
945.36136,0.04385
943.30175,0.04374
941.24214,0.04365
939.18253,0.04351
937.12292,0.04345
935.06331,0.04348
933.00370,0.04352
930.94409,0.04368
928.88448,0.04389
926.82487,0.04390
924.76526,0.04376
922.70565,0.04362
920.64604,0.04349
918.58642,0.04327
916.52681,0.04308
914.46720,0.04301
912.40759,0.04297
910.34798,0.04293
908.28837,0.04299
906.22876,0.04319
904.16915,0.04342
902.10954,0.04353
900.04993,0.04354
897.99032,0.04355
895.93071,0.04360
893.87109,0.04359
891.81148,0.04340
889.75187,0.04314
887.69226,0.04294
885.63265,0.04280
883.57304,0.04276
881.51343,0.04273
879.45382,0.04256
877.39421,0.04228
875.33460,0.04195
873.27499,0.04168
871.21538,0.04168
869.15576,0.04178
867.09615,0.04168
865.03654,0.04136
862.97693,0.04107
860.91732,0.04096
858.85771,0.04087
856.79810,0.04069
854.73849,0.04049
852.67888,0.04032
850.61927,0.04020
848.55966,0.04012
846.50005,0.04005
844.44043,0.03997
842.38082,0.03995
840.32121,0.03994
838.26160,0.03993
836.20199,0.04015
834.14238,0.04047
832.08277,0.04064
830.02316,0.04094
827.96355,0.04142
825.90394,0.04173
823.84433,0.04184
821.78472,0.04190
819.72511,0.04200
817.66549,0.04218
815.60588,0.04249
813.54627,0.04302
811.48666,0.04363
809.42705,0.04402
807.36744,0.04420
805.30783,0.04447
803.24822,0.04479
801.18861,0.04491
799.12900,0.04481
797.06939,0.04473
795.00978,0.04487
792.95016,0.04528
790.89055,0.04569
788.83094,0.04592
786.77133,0.04622
784.71172,0.04663
782.65211,0.04693
780.59250,0.04706
778.53289,0.04723
776.47328,0.04763
774.41367,0.04815
772.35406,0.04879
770.29445,0.04961
768.23483,0.05026
766.17522,0.05057
764.11561,0.05088
762.05600,0.05130
759.99639,0.05166
757.93678,0.05193
755.87717,0.05225
753.81756,0.05274
751.75795,0.05320
749.69834,0.05352
747.63873,0.05387
745.57912,0.05418
743.51950,0.05433
741.45989,0.05435
739.40028,0.05449
737.34067,0.05482
735.28106,0.05509
733.22145,0.05515
731.16184,0.05526
729.10223,0.05574
727.04262,0.05652
724.98301,0.05739
722.92340,0.05822
720.86379,0.05878
718.80418,0.06056
716.74456,0.06111
714.68495,0.06181
712.62534,0.06282
710.56573,0.06414
708.50612,0.06565
706.44651,0.06715
704.38690,0.06878
702.32729,0.07033
700.26768,0.07144
698.20807,0.07209
696.14846,0.07250
694.08885,0.07281
692.02923,0.07304
689.96962,0.07329
687.91001,0.07365
685.85040,0.07422
683.79079,0.07513
681.73118,0.07606
679.67157,0.07653
677.61196,0.07672
675.55235,0.07688
673.49274,0.07677
671.43313,0.08254
669.37352,0.09271
667.31390,0.06957
665.25429,0.08012
663.19468,0.08089
661.13507,0.08012
659.07546,0.08091
657.01585,0.08189
654.95624,0.08255
652.89663,0.08287
650.83702,0.08307
648.77741,0.08303
646.71780,0.08368
644.65819,0.08394
642.59857,0.08420
640.53896,0.08464
638.47935,0.08503
636.41974,0.08551
634.36013,0.08611
632.30052,0.08673
630.24091,0.08742
628.18130,0.08822
626.12169,0.08902
624.06208,0.08932
622.00247,0.08930
619.94286,0.08937
617.88325,0.08973
615.82363,0.09026
613.76402,0.09066
611.70441,0.09100
609.64480,0.09105
607.58519,0.09077
605.52558,0.09066
603.46597,0.09095
601.40636,0.09150
599.34675,0.09190
597.28714,0.09202
595.22753,0.09214
593.16792,0.09256
591.10830,0.09298
589.04869,0.09318
586.98908,0.09331
584.92947,0.09318
582.86986,0.09316
580.81025,0.09342
578.75064,0.09377
576.69103,0.09447
574.63142,0.09492
572.57181,0.09510
570.51220,0.09562
568.45259,0.09614
566.39297,0.09617
564.33336,0.09619
562.27375,0.09659
560.21414,0.09692
558.15453,0.09705
556.09492,0.09741
554.03531,0.09799
551.97570,0.09838
549.91609,0.09873
547.85648,0.09944
545.79687,0.10015
543.73726,0.10029
541.67764,0.10017
539.61803,0.10019
537.55842,0.10023
535.49881,0.10006
533.43920,0.09988
531.37959,0.09997
529.31998,0.10057
527.26037,0.10170
525.20076,0.10242
523.14115,0.10247
521.08154,0.10290
519.02193,0.10373
516.96232,0.10413
514.90270,0.10378
512.84309,0.10307
510.78348,0.10223
508.72387,0.10163
506.66426,0.10136
504.60465,0.10131
502.54504,0.10125
500.48543,0.10045
498.42582,0.09978
496.36621,0.09977
494.30660,0.10015
492.24699,0.10077
490.18737,0.10115
488.12776,0.10141
486.06815,0.10157
484.00854,0.10098
481.94893,0.09974
479.88932,0.09873
477.82971,0.09832
475.77010,0.09859
473.71049,0.09951
471.65088,0.09981
469.59127,0.09946
467.53166,0.09970
465.47204,0.10036
463.41243,0.10087
461.35282,0.10126
459.29321,0.10237
457.23360,0.10277
455.17399,0.10140
453.11438,0.10054
451.05477,0.10078
448.99516,0.10129
446.93555,0.10098
444.87594,0.09972
442.81633,0.09869
440.75671,0.09819
438.69710,0.09798
436.63749,0.09764
434.57788,0.09665
432.51827,0.09543
430.45866,0.09479
428.39905,0.09523
426.33944,0.09633
424.27983,0.09627
422.22022,0.09465
420.16061,0.09409
418.10100,0.09429
416.04138,0.09352
413.98177,0.09290
411.92216,0.09250
409.86255,0.09216
407.80294,0.09190
405.74333,0.09167
403.68372,0.09138
401.62411,0.09100
399.56450,0.09064
