3997.70460,0.02680
3995.64498,0.02676
3993.58537,0.02669
3991.52576,0.02664
3989.46615,0.02665
3987.40654,0.02670
3985.34693,0.02678
3983.28732,0.02681
3981.22771,0.02674
3979.16810,0.02664
3977.10849,0.02658
3975.04888,0.02654
3972.98927,0.02651
3970.92965,0.02649
3968.87004,0.02649
3966.81043,0.02655
3964.75082,0.02658
3962.69121,0.02653
3960.63160,0.02652
3958.57199,0.02659
3956.51238,0.02668
3954.45277,0.02676
3952.39316,0.02674
3950.33355,0.02653
3948.27394,0.02629
3946.21432,0.02628
3944.15471,0.02642
3942.09510,0.02654
3940.03549,0.02664
3937.97588,0.02668
3935.91627,0.02656
3933.85666,0.02631
3931.79705,0.02620
3929.73744,0.02639
3927.67783,0.02665
3925.61822,0.02667
3923.55861,0.02650
3921.49900,0.02636
3919.43938,0.02630
3917.37977,0.02621
3915.32016,0.02612
3913.26055,0.02608
3911.20094,0.02606
3909.14133,0.02608
3907.08172,0.02617
3905.02211,0.02623
3902.96250,0.02619
3900.90289,0.02628
3898.84328,0.02645
3896.78367,0.02640
3894.72405,0.02625
3892.66444,0.02626
3890.60483,0.02641
3888.54522,0.02639
3886.48561,0.02615
3884.42600,0.02597
3882.36639,0.02599
3880.30678,0.02602
3878.24717,0.02598
3876.18756,0.02599
3874.12795,0.02608
3872.06834,0.02610
3870.00872,0.02597
3867.94911,0.02587
3865.88950,0.02582
3863.82989,0.02574
3861.77028,0.02562
3859.71067,0.02556
3857.65106,0.02562
3855.59145,0.02576
3853.53184,0.02588
3851.47223,0.02587
3849.41262,0.02578
3847.35301,0.02567
3845.29339,0.02556
3843.23378,0.02557
3841.17417,0.02571
3839.11456,0.02586
3837.05495,0.02583
3834.99534,0.02565
3832.93573,0.02545
3830.87612,0.02532
3828.81651,0.02537
3826.75690,0.02555
3824.69729,0.02576
3822.63768,0.02588
3820.57807,0.02584
3818.51845,0.02565
3816.45884,0.02537
3814.39923,0.02515
3812.33962,0.02518
3810.28001,0.02536
3808.22040,0.02552
3806.16079,0.02567
3804.10118,0.02581
3802.04157,0.02570
3799.98196,0.02535
3797.92235,0.02511
3795.86274,0.02510
3793.80312,0.02523
3791.74351,0.02533
3789.68390,0.02535
3787.62429,0.02538
3785.56468,0.02545
3783.50507,0.02541
3781.44546,0.02519
3779.38585,0.02501
3777.32624,0.02510
3775.26663,0.02532
3773.20702,0.02544
3771.14741,0.02537
3769.08779,0.02520
3767.02818,0.02510
3764.96857,0.02502
3762.90896,0.02485
3760.84935,0.02466
3758.78974,0.02460
3756.73013,0.02467
3754.67052,0.02465
3752.61091,0.02436
3750.55130,0.02399
3748.49169,0.02407
3746.43208,0.02435
3744.37246,0.02430
3742.31285,0.02412
3740.25324,0.02422
3738.19363,0.02445
3736.13402,0.02449
3734.07441,0.02427
3732.01480,0.02406
3729.95519,0.02399
3727.89558,0.02398
3725.83597,0.02395
3723.77636,0.02391
3721.71675,0.02394
3719.65714,0.02396
3717.59752,0.02395
3715.53791,0.02395
3713.47830,0.02397
3711.41869,0.02399
3709.35908,0.02402
3707.29947,0.02399
3705.23986,0.02400
3703.18025,0.02410
3701.12064,0.02411
3699.06103,0.02391
3697.00142,0.02371
3694.94181,0.02363
3692.88219,0.02356
3690.82258,0.02345
3688.76297,0.02357
3686.70336,0.02388
3684.64375,0.02397
3682.58414,0.02373
3680.52453,0.02341
3678.46492,0.02321
3676.40531,0.02327
3674.34570,0.02349
3672.28609,0.02356
3670.22648,0.02365
3668.16686,0.02388
3666.10725,0.02405
3664.04764,0.02410
3661.98803,0.02402
3659.92842,0.02382
3657.86881,0.02364
3655.80920,0.02363
3653.74959,0.02375
3651.68998,0.02391
3649.63037,0.02415
3647.57076,0.02441
3645.51115,0.02456
3643.45153,0.02470
3641.39192,0.02477
3639.33231,0.02476
3637.27270,0.02475
3635.21309,0.02472
3633.15348,0.02464
3631.09387,0.02466
3629.03426,0.02483
3626.97465,0.02508
3624.91504,0.02529
3622.85543,0.02545
3620.79582,0.02549
3618.73621,0.02537
3616.67659,0.02534
3614.61698,0.02559
3612.55737,0.02603
3610.49776,0.02640
3608.43815,0.02649
3606.37854,0.02650
3604.31893,0.02660
3602.25932,0.02684
3600.19971,0.02710
3598.14010,0.02726
3596.08049,0.02737
3594.02088,0.02756
3591.96126,0.02777
3589.90165,0.02790
3587.84204,0.02805
3585.78243,0.02826
3583.72282,0.02843
3581.66321,0.02870
3579.60360,0.02910
3577.54399,0.02942
3575.48438,0.02957
3573.42477,0.02969
3571.36516,0.02983
3569.30555,0.02992
3567.24593,0.03003
3565.18632,0.03033
3563.12671,0.03076
3561.06710,0.03109
3559.00749,0.03130
3556.94788,0.03153
3554.88827,0.03172
3552.82866,0.03184
3550.76905,0.03200
3548.70944,0.03223
3546.64983,0.03243
3544.59022,0.03270
3542.53060,0.03307
3540.47099,0.03336
3538.41138,0.03349
3536.35177,0.03363
3534.29216,0.03390
3532.23255,0.03413
3530.17294,0.03419
3528.11333,0.03427
3526.05372,0.03456
3523.99411,0.03492
3521.93450,0.03516
3519.87489,0.03536
3517.81528,0.03568
3515.75566,0.03610
3513.69605,0.03644
3511.63644,0.03659
3509.57683,0.03663
3507.51722,0.03673
3505.45761,0.03697
3503.39800,0.03728
3501.33839,0.03760
3499.27878,0.03789
3497.21917,0.03816
3495.15956,0.03846
3493.09995,0.03876
3491.04033,0.03904
3488.98072,0.03928
3486.92111,0.03946
3484.86150,0.03982
3482.80189,0.04026
3480.74228,0.04040
3478.68267,0.04033
3476.62306,0.04049
3474.56345,0.04088
3472.50384,0.04126
3470.44423,0.04157
3468.38462,0.04181
3466.32500,0.04198
3464.26539,0.04221
3462.20578,0.04245
3460.14617,0.04265
3458.08656,0.04303
3456.02695,0.04346
3453.96734,0.04369
3451.90773,0.04381
3449.84812,0.04404
3447.78851,0.04434
3445.72890,0.04455
3443.66929,0.04473
3441.60967,0.04500
3439.55006,0.04522
3437.49045,0.04529
3435.43084,0.04550
3433.37123,0.04603
3431.31162,0.04661
3429.25201,0.04695
3427.19240,0.04707
3425.13279,0.04719
3423.07318,0.04751
3421.01357,0.04795
3418.95396,0.04830
3416.89435,0.04847
3414.83473,0.04865
3412.77512,0.04897
3410.71551,0.04930
3408.65590,0.04954
3406.59629,0.04972
3404.53668,0.05002
3402.47707,0.05042
3400.41746,0.05073
3398.35785,0.05100
3396.29824,0.05129
3394.23863,0.05149
3392.17902,0.05165
3390.11940,0.05186
3388.05979,0.05211
3386.00018,0.05240
3383.94057,0.05274
3381.88096,0.05298
3379.82135,0.05314
3377.76174,0.05337
3375.70213,0.05374
3373.64252,0.05423
3371.58291,0.05473
3369.52330,0.05520
3367.46369,0.05570
3365.40407,0.05609
3363.34446,0.05632
3361.28485,0.05653
3359.22524,0.05681
3357.16563,0.05714
3355.10602,0.05760
3353.04641,0.05820
3350.98680,0.05882
3348.92719,0.05929
3346.86758,0.05969
3344.80797,0.06014
3342.74836,0.06063
3340.68874,0.06120
3338.62913,0.06179
3336.56952,0.06220
3334.50991,0.06254
3332.45030,0.06310
3330.39069,0.06391
3328.33108,0.06467
3326.27147,0.06527
3324.21186,0.06580
3322.15225,0.06639
3320.09264,0.06707
3318.03303,0.06784
3315.97342,0.06864
3313.91380,0.06943
3311.85419,0.07014
3309.79458,0.07083
3307.73497,0.07165
3305.67536,0.07261
3303.61575,0.07359
3301.55614,0.07448
3299.49653,0.07532
3297.43692,0.07613
3295.37731,0.07695
3293.31770,0.07782
3291.25809,0.07864
3289.19847,0.07937
3287.13886,0.08008
3285.07925,0.08075
3283.01964,0.08144
3280.96003,0.08224
3278.90042,0.08291
3276.84081,0.08340
3274.78120,0.08396
3272.72159,0.08450
3270.66198,0.08462
3268.60237,0.08441
3266.54276,0.08420
3264.48314,0.08405
3262.42353,0.08401
3260.36392,0.08396
3258.30431,0.08374
3256.24470,0.08337
3254.18509,0.08296
3252.12548,0.08251
3250.06587,0.08206
3248.00626,0.08164
3245.94665,0.08107
3243.88704,0.08031
3241.82743,0.07949
3239.76781,0.07883
3237.70820,0.07840
3235.64859,0.07812
3233.58898,0.07784
3231.52937,0.07742
3229.46976,0.07682
3227.41015,0.07619
3225.35054,0.07569
3223.29093,0.07531
3221.23132,0.07501
3219.17171,0.07470
3217.11210,0.07431
3215.05248,0.07393
3212.99287,0.07371
3210.93326,0.07357
3208.87365,0.07333
3206.81404,0.07297
3204.75443,0.07261
3202.69482,0.07234
3200.63521,0.07209
3198.57560,0.07177
3196.51599,0.07134
3194.45638,0.07084
3192.39677,0.07048
3190.33716,0.07033
3188.27754,0.07013
3186.21793,0.06963
3184.15832,0.06901
3182.09871,0.06844
3180.03910,0.06796
3177.97949,0.06763
3175.91988,0.06733
3173.86027,0.06677
3171.80066,0.06618
3169.74105,0.06579
3167.68144,0.06547
3165.62183,0.06503
3163.56221,0.06445
3161.50260,0.06385
3159.44299,0.06334
3157.38338,0.06292
3155.32377,0.06251
3153.26416,0.06202
3151.20455,0.06158
3149.14494,0.06118
3147.08533,0.06080
3145.02572,0.06043
3142.96611,0.05994
3140.90650,0.05941
3138.84688,0.05906
3136.78727,0.05887
3134.72766,0.05857
3132.66805,0.05804
3130.60844,0.05750
3128.54883,0.05705
3126.48922,0.05670
3124.42961,0.05650
3122.37000,0.05639
3120.31039,0.05618
3118.25078,0.05593
3116.19117,0.05579
3114.13155,0.05562
3112.07194,0.05535
3110.01233,0.05509
3107.95272,0.05489
3105.89311,0.05473
3103.83350,0.05458
3101.77389,0.05449
3099.71428,0.05442
3097.65467,0.05432
3095.59506,0.05434
3093.53545,0.05458
3091.47584,0.05473
3089.41623,0.05468
3087.35661,0.05470
3085.29700,0.05477
3083.23739,0.05474
3081.17778,0.05472
3079.11817,0.05479
3077.05856,0.05490
3074.99895,0.05503
3072.93934,0.05511
3070.87973,0.05511
3068.82012,0.05513
3066.76051,0.05513
3064.70090,0.05504
3062.64128,0.05498
3060.58167,0.05496
3058.52206,0.05484
3056.46245,0.05462
3054.40284,0.05443
3052.34323,0.05434
3050.28362,0.05423
3048.22401,0.05405
3046.16440,0.05390
3044.10479,0.05380
3042.04518,0.05359
3039.98557,0.05330
3037.92595,0.05313
3035.86634,0.05304
3033.80673,0.05277
3031.74712,0.05238
3029.68751,0.05206
3027.62790,0.05176
3025.56829,0.05136
3023.50868,0.05096
3021.44907,0.05069
3019.38946,0.05047
3017.32985,0.05019
3015.27024,0.04979
3013.21062,0.04940
3011.15101,0.04917
3009.09140,0.04902
3007.03179,0.04877
3004.97218,0.04845
3002.91257,0.04820
3000.85296,0.04814
2998.79335,0.04828
2996.73374,0.04839
2994.67413,0.04834
2992.61452,0.04831
2990.55491,0.04837
2988.49530,0.04862
2986.43568,0.04906
2984.37607,0.04956
2982.31646,0.05012
2980.25685,0.05064
2978.19724,0.05099
2976.13763,0.05129
2974.07802,0.05158
2972.01841,0.05190
2969.95880,0.05237
2967.89919,0.05292
2965.83958,0.05334
2963.77997,0.05360
2961.72035,0.05386
2959.66074,0.05405
2957.60113,0.05399
2955.54152,0.05384
2953.48191,0.05376
2951.42230,0.05363
2949.36269,0.05354
2947.30308,0.05360
2945.24347,0.05373
2943.18386,0.05389
2941.12425,0.05415
2939.06464,0.05450
2937.00502,0.05481
2934.94541,0.05513
2932.88580,0.05541
2930.82619,0.05553
2928.76658,0.05545
2926.70697,0.05524
2924.64736,0.05495
2922.58775,0.05453
2920.52814,0.05408
2918.46853,0.05382
2916.40892,0.05362
2914.34931,0.05315
2912.28969,0.05252
2910.23008,0.05204
2908.17047,0.05173
2906.11086,0.05136
2904.05125,0.05097
2901.99164,0.05074
2899.93203,0.05058
2897.87242,0.05042
2895.81281,0.05030
2893.75320,0.05018
2891.69359,0.05001
2889.63398,0.04985
2887.57437,0.04973
2885.51475,0.04976
2883.45514,0.05000
2881.39553,0.05026
2879.33592,0.05047
2877.27631,0.05074
2875.21670,0.05110
2873.15709,0.05129
2871.09748,0.05119
2869.03787,0.05091
2866.97826,0.05049
2864.91865,0.04997
2862.85904,0.04958
2860.79942,0.04934
2858.73981,0.04905
2856.68020,0.04869
2854.62059,0.04836
2852.56098,0.04808
2850.50137,0.04787
2848.44176,0.04764
2846.38215,0.04730
2844.32254,0.04691
2842.26293,0.04652
2840.20332,0.04620
2838.14371,0.04595
2836.08409,0.04575
2834.02448,0.04562
2831.96487,0.04549
2829.90526,0.04528
2827.84565,0.04515
2825.78604,0.04511
2823.72643,0.04500
2821.66682,0.04485
2819.60721,0.04474
2817.54760,0.04461
2815.48799,0.04447
2813.42838,0.04437
2811.36876,0.04429
2809.30915,0.04420
2807.24954,0.04410
2805.18993,0.04399
2803.13032,0.04386
2801.07071,0.04382
2799.01110,0.04382
2796.95149,0.04375
2794.89188,0.04362
2792.83227,0.04352
2790.77266,0.04346
2788.71305,0.04335
2786.65344,0.04320
2784.59382,0.04308
2782.53421,0.04293
2780.47460,0.04278
2778.41499,0.04273
2776.35538,0.04273
2774.29577,0.04269
2772.23616,0.04263
2770.17655,0.04260
2768.11694,0.04258
2766.05733,0.04252
2763.99772,0.04240
2761.93811,0.04219
2759.87849,0.04201
2757.81888,0.04197
2755.75927,0.04201
2753.69966,0.04198
2751.64005,0.04184
2749.58044,0.04169
2747.52083,0.04159
2745.46122,0.04154
2743.40161,0.04151
2741.34200,0.04154
2739.28239,0.04153
2737.22278,0.04137
2735.16316,0.04117
2733.10355,0.04108
2731.04394,0.04104
2728.98433,0.04100
2726.92472,0.04096
2724.86511,0.04091
2722.80550,0.04081
2720.74589,0.04070
2718.68628,0.04063
2716.62667,0.04057
2714.56706,0.04051
2712.50745,0.04045
2710.44783,0.04036
2708.38822,0.04024
2706.32861,0.04015
2704.26900,0.04009
2702.20939,0.04003
2700.14978,0.03995
2698.09017,0.03984
2696.03056,0.03973
2693.97095,0.03968
2691.91134,0.03969
2689.85173,0.03965
2687.79212,0.03949
2685.73251,0.03937
2683.67289,0.03936
2681.61328,0.03939
2679.55367,0.03935
2677.49406,0.03926
2675.43445,0.03926
2673.37484,0.03929
2671.31523,0.03925
2669.25562,0.03919
2667.19601,0.03911
2665.13640,0.03900
2663.07679,0.03899
2661.01718,0.03906
2658.95756,0.03904
2656.89795,0.03894
2654.83834,0.03884
2652.77873,0.03880
2650.71912,0.03882
2648.65951,0.03873
2646.59990,0.03850
2644.54029,0.03837
2642.48068,0.03837
2640.42107,0.03833
2638.36146,0.03822
2636.30185,0.03809
2634.24223,0.03797
2632.18262,0.03791
2630.12301,0.03789
2628.06340,0.03782
2626.00379,0.03774
2623.94418,0.03763
2621.88457,0.03741
2619.82496,0.03718
2617.76535,0.03703
2615.70574,0.03690
2613.64613,0.03690
2611.58652,0.03701
2609.52690,0.03703
2607.46729,0.03693
2605.40768,0.03678
2603.34807,0.03652
2601.28846,0.03634
2599.22885,0.03634
2597.16924,0.03638
2595.10963,0.03629
2593.05002,0.03622
2590.99041,0.03624
2588.93080,0.03616
2586.87119,0.03596
2584.81158,0.03586
2582.75196,0.03589
2580.69235,0.03586
2578.63274,0.03577
2576.57313,0.03564
2574.51352,0.03551
2572.45391,0.03540
2570.39430,0.03529
2568.33469,0.03529
2566.27508,0.03536
2564.21547,0.03533
2562.15586,0.03526
2560.09625,0.03523
2558.03663,0.03515
2555.97702,0.03504
2553.91741,0.03506
2551.85780,0.03511
2549.79819,0.03509
2547.73858,0.03496
2545.67897,0.03477
2543.61936,0.03467
2541.55975,0.03469
2539.50014,0.03469
2537.44053,0.03456
2535.38092,0.03433
2533.32130,0.03427
2531.26169,0.03443
2529.20208,0.03447
2527.14247,0.03441
2525.08286,0.03444
2523.02325,0.03454
2520.96364,0.03459
2518.90403,0.03446
2516.84442,0.03430
2514.78481,0.03419
2512.72520,0.03417
2510.66559,0.03421
2508.60597,0.03410
2506.54636,0.03389
2504.48675,0.03382
2502.42714,0.03391
2500.36753,0.03400
2498.30792,0.03393
2496.24831,0.03379
2494.18870,0.03369
2492.12909,0.03369
2490.06948,0.03383
2488.00987,0.03396
2485.95026,0.03383
2483.89065,0.03354
2481.83103,0.03338
2479.77142,0.03339
2477.71181,0.03342
2475.65220,0.03335
2473.59259,0.03327
2471.53298,0.03336
2469.47337,0.03357
2467.41376,0.03379
2465.35415,0.03388
2463.29454,0.03378
2461.23493,0.03370
2459.17532,0.03361
2457.11570,0.03342
2455.05609,0.03329
2452.99648,0.03330
2450.93687,0.03336
2448.87726,0.03345
2446.81765,0.03355
2444.75804,0.03355
2442.69843,0.03350
2440.63882,0.03346
2438.57921,0.03325
2436.51960,0.03295
2434.45999,0.03280
2432.40037,0.03278
2430.34076,0.03276
2428.28115,0.03269
2426.22154,0.03259
2424.16193,0.03265
2422.10232,0.03284
2420.04271,0.03291
2417.98310,0.03289
2415.92349,0.03288
2413.86388,0.03286
2411.80427,0.03287
2409.74466,0.03296
2407.68504,0.03298
2405.62543,0.03289
2403.56582,0.03272
2401.50621,0.03254
2399.44660,0.03255
2397.38699,0.03276
2395.32738,0.03298
2393.26777,0.03308
2391.20816,0.03301
2389.14855,0.03280
2387.08894,0.03259
2385.02933,0.03250
2382.96972,0.03247
2380.91010,0.03244
2378.85049,0.03241
2376.79088,0.03222
2374.73127,0.03231
2372.67166,0.03233
2370.61205,0.03209
2368.55244,0.03216
2366.49283,0.03182
2364.43322,0.03202
2362.37361,0.03250
2360.31400,0.03220
2358.25439,0.03243
2356.19477,0.03263
2354.13516,0.03296
2352.07555,0.03310
2350.01594,0.03184
2347.95633,0.03187
2345.89672,0.03262
2343.83711,0.03236
2341.77750,0.03264
2339.71789,0.03220
2337.65828,0.03218
2335.59867,0.03274
2333.53906,0.03244
2331.47944,0.03262
2329.41983,0.03224
2327.36022,0.03285
2325.30061,0.03293
2323.24100,0.03302
2321.18139,0.03286
2319.12178,0.03273
2317.06217,0.03252
2315.00256,0.03222
2312.94295,0.03222
2310.88334,0.03240
2308.82373,0.03236
2306.76411,0.03220
2304.70450,0.03208
2302.64489,0.03197
2300.58528,0.03179
2298.52567,0.03159
2296.46606,0.03146
2294.40645,0.03150
2292.34684,0.03157
2290.28723,0.03150
2288.22762,0.03129
2286.16801,0.03116
2284.10840,0.03114
2282.04878,0.03104
2279.98917,0.03072
2277.92956,0.03039
2275.86995,0.03025
2273.81034,0.03016
2271.75073,0.02993
2269.69112,0.02968
2267.63151,0.02966
2265.57190,0.02970
2263.51229,0.02964
2261.45268,0.02961
2259.39307,0.02965
2257.33346,0.02964
2255.27384,0.02939
2253.21423,0.02898
2251.15462,0.02884
2249.09501,0.02896
2247.03540,0.02887
2244.97579,0.02843
2242.91618,0.02803
2240.85657,0.02773
2238.79696,0.02749
2236.73735,0.02731
2234.67774,0.02703
2232.61813,0.02673
2230.55851,0.02665
2228.49890,0.02662
2226.43929,0.02658
2224.37968,0.02689
2222.32007,0.02734
2220.26046,0.02723
2218.20085,0.02672
2216.14124,0.02660
2214.08163,0.02688
2212.02202,0.02685
2209.96241,0.02632
2207.90280,0.02592
2205.84318,0.02604
2203.78357,0.02636
2201.72396,0.02651
2199.66435,0.02640
2197.60474,0.02614
2195.54513,0.02581
2193.48552,0.02541
2191.42591,0.02517
2189.36630,0.02505
2187.30669,0.02506
2185.24708,0.02511
2183.18747,0.02503
2181.12785,0.02502
2179.06824,0.02517
2177.00863,0.02527
2174.94902,0.02511
2172.88941,0.02506
2170.82980,0.02526
2168.77019,0.02499
2166.71058,0.02418
2164.65097,0.02370
2162.59136,0.02371
2160.53175,0.02279
2158.47214,0.02104
2156.41253,0.02066
2154.35291,0.02163
2152.29330,0.02256
2150.23369,0.02292
2148.17408,0.02319
2146.11447,0.02392
2144.05486,0.02467
2141.99525,0.02499
2139.93564,0.02513
2137.87603,0.02535
2135.81642,0.02553
2133.75681,0.02559
2131.69720,0.02563
2129.63758,0.02589
2127.57797,0.02640
2125.51836,0.02677
2123.45875,0.02693
2121.39914,0.02712
2119.33953,0.02699
2117.27992,0.02664
2115.22031,0.02670
2113.16070,0.02703
2111.10109,0.02711
2109.04148,0.02691
2106.98187,0.02674
2104.92225,0.02680
2102.86264,0.02691
2100.80303,0.02697
2098.74342,0.02701
2096.68381,0.02666
2094.62420,0.02607
2092.56459,0.02594
2090.50498,0.02641
2088.44537,0.02697
2086.38576,0.02705
2084.32615,0.02657
2082.26654,0.02614
2080.20692,0.02612
2078.14731,0.02613
2076.08770,0.02603
2074.02809,0.02596
2071.96848,0.02590
2069.90887,0.02583
2067.84926,0.02569
2065.78965,0.02546
2063.73004,0.02516
2061.67043,0.02468
2059.61082,0.02432
2057.55121,0.02452
2055.49160,0.02479
2053.43198,0.02471
2051.37237,0.02434
2049.31276,0.02365
2047.25315,0.02316
2045.19354,0.02296
2043.13393,0.02257
2041.07432,0.02228
2039.01471,0.02231
2036.95510,0.02222
2034.89549,0.02170
2032.83588,0.02108
2030.77627,0.02097
2028.71665,0.02142
2026.65704,0.02179
2024.59743,0.02169
2022.53782,0.02152
2020.47821,0.02141
2018.41860,0.02120
2016.35899,0.02095
2014.29938,0.02063
2012.23977,0.02029
2010.18016,0.02006
2008.12055,0.02019
2006.06094,0.02077
2004.00132,0.02127
2001.94171,0.02145
1999.88210,0.02166
1997.82249,0.02184
1995.76288,0.02168
1993.70327,0.02142
1991.64366,0.02164
1989.58405,0.02242
1987.52444,0.02301
1985.46483,0.02290
1983.40522,0.02253
1981.34561,0.02227
1979.28599,0.02170
1977.22638,0.02062
1975.16677,0.01967
1973.10716,0.01950
1971.04755,0.02003
1968.98794,0.02070
1966.92833,0.02113
1964.86872,0.02131
1962.80911,0.02141
1960.74950,0.02157
1958.68989,0.02166
1956.63028,0.02151
1954.57067,0.02132
1952.51105,0.02132
1950.45144,0.02162
1948.39183,0.02209
1946.33222,0.02229
1944.27261,0.02210
1942.21300,0.02194
1940.15339,0.02204
1938.09378,0.02237
1936.03417,0.02280
1933.97456,0.02304
1931.91495,0.02295
1929.85534,0.02280
1927.79572,0.02281
1925.73611,0.02277
1923.67650,0.02261
1921.61689,0.02252
1919.55728,0.02250
1917.49767,0.02254
1915.43806,0.02266
1913.37845,0.02280
1911.31884,0.02282
1909.25923,0.02264
1907.19962,0.02241
1905.14001,0.02233
1903.08039,0.02238
1901.02078,0.02252
1898.96117,0.02265
1896.90156,0.02270
1894.84195,0.02264
1892.78234,0.02250
1890.72273,0.02235
1888.66312,0.02230
1886.60351,0.02236
1884.54390,0.02243
1882.48429,0.02242
1880.42468,0.02236
1878.36506,0.02224
1876.30545,0.02210
1874.24584,0.02204
1872.18623,0.02217
1870.12662,0.02231
1868.06701,0.02224
1866.00740,0.02207
1863.94779,0.02193
1861.88818,0.02182
1859.82857,0.02172
1857.76896,0.02161
1855.70935,0.02154
1853.64974,0.02157
1851.59012,0.02159
1849.53051,0.02141
1847.47090,0.02113
1845.41129,0.02107
1843.35168,0.02130
1841.29207,0.02147
1839.23246,0.02145
1837.17285,0.02131
1835.11324,0.02113
1833.05363,0.02099
1830.99402,0.02093
1828.93441,0.02094
1826.87479,0.02094
1824.81518,0.02092
1822.75557,0.02084
1820.69596,0.02075
1818.63635,0.02065
1816.57674,0.02051
1814.51713,0.02039
1812.45752,0.02034
1810.39791,0.02029
1808.33830,0.02020
1806.27869,0.02008
1804.21908,0.02003
1802.15946,0.02008
1800.09985,0.02005
1798.04024,0.01982
1795.98063,0.01957
1793.92102,0.01944
1791.86141,0.01939
1789.80180,0.01933
1787.74219,0.01923
1785.68258,0.01917
1783.62297,0.01915
1781.56336,0.01913
1779.50375,0.01906
1777.44413,0.01894
1775.38452,0.01881
1773.32491,0.01866
1771.26530,0.01851
1769.20569,0.01844
1767.14608,0.01835
1765.08647,0.01815
1763.02686,0.01796
1760.96725,0.01788
1758.90764,0.01786
1756.84803,0.01775
1754.78842,0.01754
1752.72881,0.01736
1750.66919,0.01735
1748.60958,0.01743
1746.54997,0.01739
1744.49036,0.01716
1742.43075,0.01686
1740.37114,0.01666
1738.31153,0.01657
1736.25192,0.01650
1734.19231,0.01645
1732.13270,0.01644
1730.07309,0.01638
1728.01348,0.01629
1725.95386,0.01619
1723.89425,0.01614
1721.83464,0.01617
1719.77503,0.01627
1717.71542,0.01646
1715.65581,0.01685
1713.59620,0.01737
1711.53659,0.01798
1709.47698,0.01882
1707.41737,0.02012
1705.35776,0.02196
1703.29815,0.02427
1701.23853,0.02769
1699.17892,0.03251
1697.11931,0.03731
1695.05970,0.04158
1693.00009,0.04495
1690.94048,0.04769
1688.88087,0.05042
1686.82126,0.05334
1684.76165,0.05727
1682.70204,0.06190
1680.64243,0.06550
1678.58282,0.06846
1676.52320,0.07185
1674.46359,0.07578
1672.40398,0.07960
1670.34437,0.08376
1668.28476,0.08859
1666.22515,0.09293
1664.16554,0.09712
1662.10593,0.10191
1660.04632,0.10639
1657.98671,0.10982
1655.92710,0.11294
1653.86749,0.11715
1651.80788,0.12173
1649.74826,0.12421
1647.68865,0.12589
1645.62904,0.12792
1643.56943,0.12944
1641.50982,0.13029
1639.45021,0.13090
1637.39060,0.13146
1635.33099,0.13204
1633.27138,0.13239
1631.21177,0.13247
1629.15216,0.13261
1627.09255,0.13294
1625.03293,0.13350
1622.97332,0.13428
1620.91371,0.13496
1618.85410,0.13558
1616.79449,0.13647
1614.73488,0.13732
1612.67527,0.13764
1610.61566,0.13752
1608.55605,0.13704
1606.49644,0.13612
1604.43683,0.13464
1602.37722,0.13245
1600.31760,0.12961
1598.25799,0.12627
1596.19838,0.12242
1594.13877,0.11799
1592.07916,0.11320
1590.01955,0.10837
1587.95994,0.10367
1585.90033,0.09914
1583.84072,0.09477
1581.78111,0.09078
1579.72150,0.08748
1577.66189,0.08476
1575.60227,0.08247
1573.54266,0.08101
1571.48305,0.08036
1569.42344,0.08033
1567.36383,0.08087
1565.30422,0.08175
1563.24461,0.08271
1561.18500,0.08411
1559.12539,0.08743
1557.06578,0.09213
1555.00617,0.09589
1552.94656,0.09929
1550.88695,0.10316
1548.82733,0.10724
1546.76772,0.11092
1544.70811,0.11440
1542.64850,0.11828
1540.58889,0.12282
1538.52928,0.12694
1536.46967,0.12928
1534.41006,0.13111
1532.35045,0.13338
1530.29084,0.13544
1528.23123,0.13715
1526.17162,0.13885
1524.11200,0.14065
1522.05239,0.14282
1519.99278,0.14527
1517.93317,0.14750
1515.87356,0.14945
1513.81395,0.15074
1511.75434,0.15111
1509.69473,0.15086
1507.63512,0.15008
1505.57551,0.14875
1503.51590,0.14722
1501.45629,0.14549
1499.39667,0.14323
1497.33706,0.14011
1495.27745,0.13642
1493.21784,0.13263
1491.15823,0.12828
1489.09862,0.12293
1487.03901,0.11760
1484.97940,0.11301
1482.91979,0.10884
1480.86018,0.10490
1478.80057,0.10156
1476.74096,0.09898
1474.68134,0.09706
1472.62173,0.09585
1470.56212,0.09519
1468.50251,0.09468
1466.44290,0.09417
1464.38329,0.09379
1462.32368,0.09368
1460.26407,0.09399
1458.20446,0.09521
1456.14485,0.09720
1454.08524,0.09858
1452.02563,0.09910
1449.96602,0.09921
1447.90640,0.09904
1445.84679,0.09850
1443.78718,0.09748
1441.72757,0.09617
1439.66796,0.09478
1437.60835,0.09325
1435.54874,0.09155
1433.48913,0.09008
1431.42952,0.08897
1429.36991,0.08817
1427.31030,0.08769
1425.25069,0.08748
1423.19107,0.08746
1421.13146,0.08762
1419.07185,0.08816
1417.01224,0.08900
1414.95263,0.08969
1412.89302,0.09012
1410.83341,0.09048
1408.77380,0.09086
1406.71419,0.09108
1404.65458,0.09101
1402.59497,0.09078
1400.53536,0.09051
1398.47574,0.09032
1396.41613,0.09027
1394.35652,0.09036
1392.29691,0.09051
1390.23730,0.09073
1388.17769,0.09114
1386.11808,0.09162
1384.05847,0.09190
1381.99886,0.09192
1379.93925,0.09178
1377.87964,0.09158
1375.82003,0.09143
1373.76041,0.09142
1371.70080,0.09145
1369.64119,0.09135
1367.58158,0.09095
1365.52197,0.09023
1363.46236,0.08929
1361.40275,0.08834
1359.34314,0.08753
1357.28353,0.08685
1355.22392,0.08630
1353.16431,0.08593
1351.10470,0.08579
1349.04508,0.08583
1346.98547,0.08593
1344.92586,0.08606
1342.86625,0.08628
1340.80664,0.08660
1338.74703,0.08696
1336.68742,0.08729
1334.62781,0.08749
1332.56820,0.08756
1330.50859,0.08754
1328.44898,0.08749
1326.38937,0.08738
1324.32976,0.08727
1322.27014,0.08716
1320.21053,0.08705
1318.15092,0.08700
1316.09131,0.08700
1314.03170,0.08697
1311.97209,0.08695
1309.91248,0.08691
1307.85287,0.08685
1305.79326,0.08675
1303.73365,0.08664
1301.67404,0.08652
1299.61443,0.08632
1297.55481,0.08603
1295.49520,0.08574
1293.43559,0.08549
1291.37598,0.08526
1289.31637,0.08506
1287.25676,0.08487
1285.19715,0.08466
1283.13754,0.08445
1281.07793,0.08426
1279.01832,0.08411
1276.95871,0.08401
1274.89910,0.08396
1272.83948,0.08387
1270.77987,0.08380
1268.72026,0.08386
1266.66065,0.08403
1264.60104,0.08423
1262.54143,0.08454
1260.48182,0.08510
1258.42221,0.08585
1256.36260,0.08669
1254.30299,0.08762
1252.24338,0.08862
1250.18377,0.08963
1248.12415,0.09060
1246.06454,0.09146
1244.00493,0.09220
1241.94532,0.09286
1239.88571,0.09342
1237.82610,0.09387
1235.76649,0.09428
1233.70688,0.09463
1231.64727,0.09473
1229.58766,0.09456
1227.52805,0.09422
1225.46844,0.09373
1223.40883,0.09314
1221.34921,0.09246
1219.28960,0.09161
1217.22999,0.09063
1215.17038,0.08963
1213.11077,0.08855
1211.05116,0.08727
1208.99155,0.08585
1206.93194,0.08443
1204.87233,0.08308
1202.81272,0.08174
1200.75311,0.08036
1198.69350,0.07897
1196.63388,0.07765
1194.57427,0.07645
1192.51466,0.07543
1190.45505,0.07456
1188.39544,0.07381
1186.33583,0.07317
1184.27622,0.07258
1182.21661,0.07207
1180.15700,0.07177
1178.09739,0.07183
1176.03778,0.07227
1173.97817,0.07295
1171.91855,0.07368
1169.85894,0.07440
1167.79933,0.07508
1165.73972,0.07560
1163.68011,0.07590
1161.62050,0.07612
1159.56089,0.07624
1157.50128,0.07605
1155.44167,0.07552
1153.38206,0.07485
1151.32245,0.07415
1149.26284,0.07339
1147.20322,0.07256
1145.14361,0.07177
1143.08400,0.07111
1141.02439,0.07061
1138.96478,0.07028
1136.90517,0.07019
1134.84556,0.07026
1132.78595,0.07036
1130.72634,0.07041
1128.66673,0.07038
1126.60712,0.07031
1124.54751,0.07021
1122.48790,0.06998
1120.42828,0.06968
1118.36867,0.06939
1116.30906,0.06914
1114.24945,0.06885
1112.18984,0.06852
1110.13023,0.06823
1108.07062,0.06799
1106.01101,0.06786
1103.95140,0.06789
1101.89179,0.06797
1099.83218,0.06800
1097.77257,0.06796
1095.71295,0.06797
1093.65334,0.06826
1091.59373,0.06895
1089.53412,0.06998
1087.47451,0.07130
1085.41490,0.07287
1083.35529,0.07462
1081.29568,0.07640
1079.23607,0.07812
1077.17646,0.07986
1075.11685,0.08147
1073.05724,0.08284
1070.99762,0.08398
1068.93801,0.08500
1066.87840,0.08599
1064.81879,0.08697
1062.75918,0.08780
1060.69957,0.08839
1058.63996,0.08872
1056.58035,0.08892
1054.52074,0.08905
1052.46113,0.08904
1050.40152,0.08884
1048.34191,0.08850
1046.28229,0.08804
1044.22268,0.08739
1042.16307,0.08645
1040.10346,0.08528
1038.04385,0.08412
1035.98424,0.08301
1033.92463,0.08191
1031.86502,0.08080
1029.80541,0.07960
1027.74580,0.07836
1025.68619,0.07708
1023.62658,0.07559
1021.56697,0.07400
1019.50735,0.07257
1017.44774,0.07121
1015.38813,0.06982
1013.32852,0.06848
1011.26891,0.06723
1009.20930,0.06607
1007.14969,0.06500
1005.09008,0.06399
1003.03047,0.06305
1000.97086,0.06213
998.91125,0.06121
996.85164,0.06035
994.79202,0.05964
992.73241,0.05909
990.67280,0.05856
988.61319,0.05802
986.55358,0.05753
984.49397,0.05712
982.43436,0.05685
980.37475,0.05669
978.31514,0.05652
976.25553,0.05643
974.19592,0.05649
972.13631,0.05653
970.07669,0.05650
968.01708,0.05662
965.95747,0.05693
963.89786,0.05722
961.83825,0.05738
959.77864,0.05737
957.71903,0.05718
955.65942,0.05694
953.59981,0.05668
951.54020,0.05629
949.48059,0.05590
947.42098,0.05564
945.36136,0.05541
943.30175,0.05526
941.24214,0.05519
939.18253,0.05508
937.12292,0.05501
935.06331,0.05501
933.00370,0.05507
930.94409,0.05521
928.88448,0.05528
926.82487,0.05514
924.76526,0.05486
922.70565,0.05453
920.64604,0.05414
918.58642,0.05368
916.52681,0.05323
914.46720,0.05290
912.40759,0.05275
910.34798,0.05277
908.28837,0.05289
906.22876,0.05305
904.16915,0.05313
902.10954,0.05313
900.04993,0.05320
897.99032,0.05336
895.93071,0.05340
893.87109,0.05322
891.81148,0.05292
889.75187,0.05255
887.69226,0.05220
885.63265,0.05186
883.57304,0.05146
881.51343,0.05111
879.45382,0.05093
877.39421,0.05081
875.33460,0.05050
873.27499,0.05012
871.21538,0.04993
869.15576,0.04986
867.09615,0.04967
865.03654,0.04932
862.97693,0.04899
860.91732,0.04878
858.85771,0.04865
856.79810,0.04853
854.73849,0.04837
852.67888,0.04823
850.61927,0.04817
848.55966,0.04814
846.50005,0.04797
844.44043,0.04771
842.38082,0.04771
840.32121,0.04808
838.26160,0.04856
836.20199,0.04891
834.14238,0.04919
832.08277,0.04965
830.02316,0.05044
827.96355,0.05127
825.90394,0.05161
823.84433,0.05137
821.78472,0.05097
819.72511,0.05086
817.66549,0.05099
815.60588,0.05114
813.54627,0.05136
811.48666,0.05178
809.42705,0.05233
807.36744,0.05284
805.30783,0.05309
803.24822,0.05313
801.18861,0.05332
799.12900,0.05376
797.06939,0.05417
795.00978,0.05458
792.95016,0.05513
790.89055,0.05563
788.83094,0.05606
786.77133,0.05650
784.71172,0.05705
782.65211,0.05777
780.59250,0.05842
778.53289,0.05890
776.47328,0.05942
774.41367,0.06013
772.35406,0.06105
770.29445,0.06197
768.23483,0.06260
766.17522,0.06306
764.11561,0.06354
762.05600,0.06398
759.99639,0.06436
757.93678,0.06478
755.87717,0.06544
753.81756,0.06639
751.75795,0.06726
749.69834,0.06782
747.63873,0.06831
745.57912,0.06875
743.51950,0.06909
741.45989,0.06932
739.40028,0.06949
737.34067,0.06978
735.28106,0.07018
733.22145,0.07057
731.16184,0.07105
729.10223,0.07192
727.04262,0.07314
724.98301,0.07441
722.92340,0.07566
720.86379,0.07723
718.80418,0.07858
716.74456,0.08020
714.68495,0.08191
712.62534,0.08382
710.56573,0.08589
708.50612,0.08827
706.44651,0.09108
704.38690,0.09395
702.32729,0.09633
700.26768,0.09786
698.20807,0.09881
696.14846,0.09946
694.08885,0.09986
692.02923,0.10018
689.96962,0.10039
687.91001,0.10058
685.85040,0.10107
683.79079,0.10176
681.73118,0.10232
679.67157,0.10287
677.61196,0.10361
675.55235,0.10442
673.49274,0.10521
671.43313,0.10434
669.37352,0.10281
667.31390,0.10955
665.25429,0.10680
663.19468,0.10833
661.13507,0.10942
659.07546,0.10964
657.01585,0.11009
654.95624,0.11095
652.89663,0.11168
650.83702,0.11198
648.77741,0.11240
646.71780,0.11298
644.65819,0.11393
642.59857,0.11521
640.53896,0.11656
638.47935,0.11756
636.41974,0.11822
634.36013,0.11886
632.30052,0.11960
630.24091,0.12038
628.18130,0.12118
626.12169,0.12206
624.06208,0.12298
622.00247,0.12360
619.94286,0.12393
617.88325,0.12423
615.82363,0.12464
613.76402,0.12503
611.70441,0.12503
609.64480,0.12457
607.58519,0.12410
605.52558,0.12426
603.46597,0.12494
601.40636,0.12549
599.34675,0.12564
597.28714,0.12559
595.22753,0.12579
593.16792,0.12639
591.10830,0.12699
589.04869,0.12735
586.98908,0.12768
584.92947,0.12809
582.86986,0.12851
580.81025,0.12874
578.75064,0.12880
576.69103,0.12912
574.63142,0.12999
572.57181,0.13107
570.51220,0.13169
568.45259,0.13178
566.39297,0.13198
564.33336,0.13251
562.27375,0.13303
560.21414,0.13342
558.15453,0.13381
556.09492,0.13427
554.03531,0.13472
551.97570,0.13509
549.91609,0.13539
547.85648,0.13577
545.79687,0.13636
543.73726,0.13692
541.67764,0.13719
539.61803,0.13721
537.55842,0.13717
535.49881,0.13741
533.43920,0.13777
531.37959,0.13792
529.31998,0.13832
527.26037,0.13915
525.20076,0.14005
523.14115,0.14080
521.08154,0.14140
519.02193,0.14205
516.96232,0.14267
514.90270,0.14281
512.84309,0.14246
510.78348,0.14191
508.72387,0.14136
506.66426,0.14087
504.60465,0.14028
502.54504,0.13955
500.48543,0.13881
498.42582,0.13835
496.36621,0.13847
494.30660,0.13904
492.24699,0.13956
490.18737,0.13960
488.12776,0.13914
486.06815,0.13852
484.00854,0.13806
481.94893,0.13784
479.88932,0.13777
477.82971,0.13779
475.77010,0.13801
473.71049,0.13866
471.65088,0.13923
469.59127,0.13911
467.53166,0.13896
465.47204,0.13930
463.41243,0.13955
461.35282,0.13976
459.29321,0.14034
457.23360,0.14076
455.17399,0.14067
453.11438,0.14040
451.05477,0.13993
448.99516,0.13937
446.93555,0.13896
444.87594,0.13838
442.81633,0.13755
440.75671,0.13726
438.69710,0.13748
436.63749,0.13746
434.57788,0.13685
432.51827,0.13575
430.45866,0.13490
428.39905,0.13469
426.33944,0.13425
424.27983,0.13326
422.22022,0.13281
420.16061,0.13280
418.10100,0.13212
416.04138,0.13092
413.98177,0.12958
411.92216,0.12857
409.86255,0.12835
407.80294,0.12818
405.74333,0.12766
403.68372,0.12772
401.62411,0.12810
399.56450,0.12783
