3997.70460,0.01599
3995.64498,0.01604
3993.58537,0.01616
3991.52576,0.01620
3989.46615,0.01606
3987.40654,0.01591
3985.34693,0.01592
3983.28732,0.01601
3981.22771,0.01600
3979.16810,0.01592
3977.10849,0.01588
3975.04888,0.01590
3972.98927,0.01589
3970.92965,0.01582
3968.87004,0.01578
3966.81043,0.01580
3964.75082,0.01579
3962.69121,0.01581
3960.63160,0.01591
3958.57199,0.01597
3956.51238,0.01597
3954.45277,0.01594
3952.39316,0.01588
3950.33355,0.01575
3948.27394,0.01563
3946.21432,0.01562
3944.15471,0.01568
3942.09510,0.01579
3940.03549,0.01596
3937.97588,0.01607
3935.91627,0.01598
3933.85666,0.01573
3931.79705,0.01553
3929.73744,0.01550
3927.67783,0.01559
3925.61822,0.01570
3923.55861,0.01581
3921.49900,0.01583
3919.43938,0.01571
3917.37977,0.01556
3915.32016,0.01540
3913.26055,0.01521
3911.20094,0.01514
3909.14133,0.01524
3907.08172,0.01541
3905.02211,0.01553
3902.96250,0.01557
3900.90289,0.01559
3898.84328,0.01567
3896.78367,0.01566
3894.72405,0.01555
3892.66444,0.01549
3890.60483,0.01544
3888.54522,0.01521
3886.48561,0.01496
3884.42600,0.01501
3882.36639,0.01519
3880.30678,0.01524
3878.24717,0.01517
3876.18756,0.01513
3874.12795,0.01520
3872.06834,0.01532
3870.00872,0.01534
3867.94911,0.01534
3865.88950,0.01541
3863.82989,0.01544
3861.77028,0.01531
3859.71067,0.01511
3857.65106,0.01492
3855.59145,0.01480
3853.53184,0.01486
3851.47223,0.01505
3849.41262,0.01516
3847.35301,0.01509
3845.29339,0.01492
3843.23378,0.01485
3841.17417,0.01497
3839.11456,0.01507
3837.05495,0.01508
3834.99534,0.01521
3832.93573,0.01536
3830.87612,0.01540
3828.81651,0.01538
3826.75690,0.01527
3824.69729,0.01509
3822.63768,0.01502
3820.57807,0.01508
3818.51845,0.01516
3816.45884,0.01518
3814.39923,0.01517
3812.33962,0.01510
3810.28001,0.01493
3808.22040,0.01476
3806.16079,0.01477
3804.10118,0.01487
3802.04157,0.01487
3799.98196,0.01487
3797.92235,0.01497
3795.86274,0.01503
3793.80312,0.01502
3791.74351,0.01494
3789.68390,0.01483
3787.62429,0.01471
3785.56468,0.01461
3783.50507,0.01459
3781.44546,0.01465
3779.38585,0.01482
3777.32624,0.01510
3775.26663,0.01527
3773.20702,0.01521
3771.14741,0.01506
3769.08779,0.01493
3767.02818,0.01477
3764.96857,0.01459
3762.90896,0.01449
3760.84935,0.01448
3758.78974,0.01458
3756.73013,0.01472
3754.67052,0.01477
3752.61091,0.01464
3750.55130,0.01447
3748.49169,0.01447
3746.43208,0.01456
3744.37246,0.01464
3742.31285,0.01465
3740.25324,0.01457
3738.19363,0.01440
3736.13402,0.01431
3734.07441,0.01442
3732.01480,0.01455
3729.95519,0.01463
3727.89558,0.01463
3725.83597,0.01452
3723.77636,0.01445
3721.71675,0.01452
3719.65714,0.01457
3717.59752,0.01451
3715.53791,0.01442
3713.47830,0.01434
3711.41869,0.01428
3709.35908,0.01432
3707.29947,0.01442
3705.23986,0.01450
3703.18025,0.01457
3701.12064,0.01465
3699.06103,0.01462
3697.00142,0.01456
3694.94181,0.01457
3692.88219,0.01457
3690.82258,0.01454
3688.76297,0.01459
3686.70336,0.01473
3684.64375,0.01472
3682.58414,0.01448
3680.52453,0.01428
3678.46492,0.01437
3676.40531,0.01470
3674.34570,0.01488
3672.28609,0.01486
3670.22648,0.01512
3668.16686,0.01562
3666.10725,0.01583
3664.04764,0.01576
3661.98803,0.01566
3659.92842,0.01558
3657.86881,0.01560
3655.80920,0.01579
3653.74959,0.01598
3651.68998,0.01608
3649.63037,0.01648
3647.57076,0.01709
3645.51115,0.01739
3643.45153,0.01747
3641.39192,0.01749
3639.33231,0.01742
3637.27270,0.01736
3635.21309,0.01744
3633.15348,0.01765
3631.09387,0.01795
3629.03426,0.01833
3626.97465,0.01871
3624.91504,0.01903
3622.85543,0.01936
3620.79582,0.01972
3618.73621,0.02005
3616.67659,0.02027
3614.61698,0.02046
3612.55737,0.02071
3610.49776,0.02096
3608.43815,0.02118
3606.37854,0.02140
3604.31893,0.02165
3602.25932,0.02189
3600.19971,0.02211
3598.14010,0.02237
3596.08049,0.02280
3594.02088,0.02342
3591.96126,0.02393
3589.90165,0.02417
3587.84204,0.02440
3585.78243,0.02471
3583.72282,0.02503
3581.66321,0.02543
3579.60360,0.02585
3577.54399,0.02620
3575.48438,0.02657
3573.42477,0.02695
3571.36516,0.02726
3569.30555,0.02756
3567.24593,0.02791
3565.18632,0.02826
3563.12671,0.02868
3561.06710,0.02919
3559.00749,0.02968
3556.94788,0.03003
3554.88827,0.03024
3552.82866,0.03041
3550.76905,0.03071
3548.70944,0.03108
3546.64983,0.03143
3544.59022,0.03183
3542.53060,0.03231
3540.47099,0.03281
3538.41138,0.03327
3536.35177,0.03368
3534.29216,0.03409
3532.23255,0.03451
3530.17294,0.03489
3528.11333,0.03523
3526.05372,0.03563
3523.99411,0.03607
3521.93450,0.03642
3519.87489,0.03663
3517.81528,0.03692
3515.75566,0.03742
3513.69605,0.03803
3511.63644,0.03860
3509.57683,0.03898
3507.51722,0.03918
3505.45761,0.03946
3503.39800,0.03990
3501.33839,0.04030
3499.27878,0.04064
3497.21917,0.04106
3495.15956,0.04153
3493.09995,0.04192
3491.04033,0.04225
3488.98072,0.04256
3486.92111,0.04287
3484.86150,0.04330
3482.80189,0.04377
3480.74228,0.04404
3478.68267,0.04422
3476.62306,0.04463
3474.56345,0.04524
3472.50384,0.04578
3470.44423,0.04609
3468.38462,0.04632
3466.32500,0.04664
3464.26539,0.04704
3462.20578,0.04739
3460.14617,0.04771
3458.08656,0.04819
3456.02695,0.04866
3453.96734,0.04891
3451.90773,0.04919
3449.84812,0.04966
3447.78851,0.05002
3445.72890,0.05026
3443.66929,0.05066
3441.60967,0.05119
3439.55006,0.05160
3437.49045,0.05190
3435.43084,0.05229
3433.37123,0.05279
3431.31162,0.05320
3429.25201,0.05348
3427.19240,0.05382
3425.13279,0.05422
3423.07318,0.05457
3421.01357,0.05487
3418.95396,0.05530
3416.89435,0.05583
3414.83473,0.05626
3412.77512,0.05653
3410.71551,0.05682
3408.65590,0.05723
3406.59629,0.05766
3404.53668,0.05813
3402.47707,0.05864
3400.41746,0.05897
3398.35785,0.05926
3396.29824,0.05968
3394.23863,0.06012
3392.17902,0.06040
3390.11940,0.06059
3388.05979,0.06083
3386.00018,0.06117
3383.94057,0.06167
3381.88096,0.06210
3379.82135,0.06233
3377.76174,0.06258
3375.70213,0.06295
3373.64252,0.06339
3371.58291,0.06386
3369.52330,0.06431
3367.46369,0.06482
3365.40407,0.06531
3363.34446,0.06555
3361.28485,0.06569
3359.22524,0.06592
3357.16563,0.06627
3355.10602,0.06676
3353.04641,0.06729
3350.98680,0.06781
3348.92719,0.06834
3346.86758,0.06880
3344.80797,0.06916
3342.74836,0.06954
3340.68874,0.07009
3338.62913,0.07073
3336.56952,0.07127
3334.50991,0.07172
3332.45030,0.07228
3330.39069,0.07304
3328.33108,0.07372
3326.27147,0.07419
3324.21186,0.07460
3322.15225,0.07508
3320.09264,0.07569
3318.03303,0.07645
3315.97342,0.07727
3313.91380,0.07808
3311.85419,0.07886
3309.79458,0.07960
3307.73497,0.08034
3305.67536,0.08113
3303.61575,0.08195
3301.55614,0.08271
3299.49653,0.08349
3297.43692,0.08434
3295.37731,0.08514
3293.31770,0.08583
3291.25809,0.08640
3289.19847,0.08697
3287.13886,0.08758
3285.07925,0.08811
3283.01964,0.08854
3280.96003,0.08896
3278.90042,0.08929
3276.84081,0.08958
3274.78120,0.08990
3272.72159,0.09002
3270.66198,0.08990
3268.60237,0.08967
3266.54276,0.08938
3264.48314,0.08912
3262.42353,0.08893
3260.36392,0.08868
3258.30431,0.08829
3256.24470,0.08779
3254.18509,0.08732
3252.12548,0.08691
3250.06587,0.08664
3248.00626,0.08644
3245.94665,0.08591
3243.88704,0.08505
3241.82743,0.08440
3239.76781,0.08416
3237.70820,0.08403
3235.64859,0.08382
3233.58898,0.08360
3231.52937,0.08329
3229.46976,0.08292
3227.41015,0.08270
3225.35054,0.08254
3223.29093,0.08230
3221.23132,0.08210
3219.17171,0.08189
3217.11210,0.08155
3215.05248,0.08128
3212.99287,0.08127
3210.93326,0.08138
3208.87365,0.08136
3206.81404,0.08113
3204.75443,0.08078
3202.69482,0.08049
3200.63521,0.08036
3198.57560,0.08040
3196.51599,0.08036
3194.45638,0.08001
3192.39677,0.07959
3190.33716,0.07930
3188.27754,0.07909
3186.21793,0.07879
3184.15832,0.07851
3182.09871,0.07834
3180.03910,0.07801
3177.97949,0.07751
3175.91988,0.07709
3173.86027,0.07677
3171.80066,0.07649
3169.74105,0.07631
3167.68144,0.07621
3165.62183,0.07604
3163.56221,0.07575
3161.50260,0.07543
3159.44299,0.07509
3157.38338,0.07477
3155.32377,0.07457
3153.26416,0.07445
3151.20455,0.07429
3149.14494,0.07403
3147.08533,0.07369
3145.02572,0.07347
3142.96611,0.07335
3140.90650,0.07315
3138.84688,0.07287
3136.78727,0.07270
3134.72766,0.07261
3132.66805,0.07246
3130.60844,0.07227
3128.54883,0.07214
3126.48922,0.07209
3124.42961,0.07205
3122.37000,0.07199
3120.31039,0.07192
3118.25078,0.07182
3116.19117,0.07176
3114.13155,0.07172
3112.07194,0.07175
3110.01233,0.07192
3107.95272,0.07202
3105.89311,0.07194
3103.83350,0.07198
3101.77389,0.07222
3099.71428,0.07235
3097.65467,0.07226
3095.59506,0.07225
3093.53545,0.07251
3091.47584,0.07280
3089.41623,0.07295
3087.35661,0.07313
3085.29700,0.07335
3083.23739,0.07351
3081.17778,0.07379
3079.11817,0.07415
3077.05856,0.07429
3074.99895,0.07421
3072.93934,0.07407
3070.87973,0.07401
3068.82012,0.07412
3066.76051,0.07424
3064.70090,0.07422
3062.64128,0.07429
3060.58167,0.07439
3058.52206,0.07430
3056.46245,0.07413
3054.40284,0.07391
3052.34323,0.07361
3050.28362,0.07326
3048.22401,0.07290
3046.16440,0.07265
3044.10479,0.07245
3042.04518,0.07221
3039.98557,0.07199
3037.92595,0.07182
3035.86634,0.07162
3033.80673,0.07134
3031.74712,0.07104
3029.68751,0.07074
3027.62790,0.07040
3025.56829,0.07006
3023.50868,0.06971
3021.44907,0.06938
3019.38946,0.06911
3017.32985,0.06882
3015.27024,0.06853
3013.21062,0.06831
3011.15101,0.06821
3009.09140,0.06812
3007.03179,0.06785
3004.97218,0.06751
3002.91257,0.06732
3000.85296,0.06730
2998.79335,0.06742
2996.73374,0.06756
2994.67413,0.06766
2992.61452,0.06786
2990.55491,0.06818
2988.49530,0.06854
2986.43568,0.06899
2984.37607,0.06954
2982.31646,0.07020
2980.25685,0.07099
2978.19724,0.07179
2976.13763,0.07245
2974.07802,0.07306
2972.01841,0.07381
2969.95880,0.07466
2967.89919,0.07553
2965.83958,0.07626
2963.77997,0.07664
2961.72035,0.07690
2959.66074,0.07717
2957.60113,0.07719
2955.54152,0.07691
2953.48191,0.07647
2951.42230,0.07605
2949.36269,0.07573
2947.30308,0.07546
2945.24347,0.07534
2943.18386,0.07549
2941.12425,0.07585
2939.06464,0.07630
2937.00502,0.07674
2934.94541,0.07712
2932.88580,0.07744
2930.82619,0.07767
2928.76658,0.07761
2926.70697,0.07714
2924.64736,0.07642
2922.58775,0.07557
2920.52814,0.07472
2918.46853,0.07401
2916.40892,0.07338
2914.34931,0.07263
2912.28969,0.07185
2910.23008,0.07119
2908.17047,0.07065
2906.11086,0.07014
2904.05125,0.06967
2901.99164,0.06928
2899.93203,0.06886
2897.87242,0.06843
2895.81281,0.06815
2893.75320,0.06791
2891.69359,0.06760
2889.63398,0.06731
2887.57437,0.06710
2885.51475,0.06704
2883.45514,0.06721
2881.39553,0.06742
2879.33592,0.06763
2877.27631,0.06798
2875.21670,0.06828
2873.15709,0.06826
2871.09748,0.06796
2869.03787,0.06746
2866.97826,0.06671
2864.91865,0.06590
2862.85904,0.06527
2860.79942,0.06482
2858.73981,0.06438
2856.68020,0.06388
2854.62059,0.06329
2852.56098,0.06261
2850.50137,0.06192
2848.44176,0.06130
2846.38215,0.06075
2844.32254,0.06018
2842.26293,0.05960
2840.20332,0.05911
2838.14371,0.05867
2836.08409,0.05819
2834.02448,0.05772
2831.96487,0.05739
2829.90526,0.05715
2827.84565,0.05686
2825.78604,0.05650
2823.72643,0.05624
2821.66682,0.05605
2819.60721,0.05577
2817.54760,0.05543
2815.48799,0.05509
2813.42838,0.05480
2811.36876,0.05454
2809.30915,0.05428
2807.24954,0.05398
2805.18993,0.05363
2803.13032,0.05335
2801.07071,0.05320
2799.01110,0.05306
2796.95149,0.05283
2794.89188,0.05254
2792.83227,0.05222
2790.77266,0.05193
2788.71305,0.05168
2786.65344,0.05149
2784.59382,0.05131
2782.53421,0.05104
2780.47460,0.05073
2778.41499,0.05050
2776.35538,0.05034
2774.29577,0.05023
2772.23616,0.05013
2770.17655,0.05003
2768.11694,0.04987
2766.05733,0.04962
2763.99772,0.04935
2761.93811,0.04911
2759.87849,0.04889
2757.81888,0.04872
2755.75927,0.04857
2753.69966,0.04838
2751.64005,0.04821
2749.58044,0.04806
2747.52083,0.04786
2745.46122,0.04766
2743.40161,0.04755
2741.34200,0.04746
2739.28239,0.04733
2737.22278,0.04716
2735.16316,0.04696
2733.10355,0.04673
2731.04394,0.04658
2728.98433,0.04653
2726.92472,0.04645
2724.86511,0.04626
2722.80550,0.04600
2720.74589,0.04578
2718.68628,0.04556
2716.62667,0.04532
2714.56706,0.04516
2712.50745,0.04504
2710.44783,0.04486
2708.38822,0.04467
2706.32861,0.04447
2704.26900,0.04428
2702.20939,0.04414
2700.14978,0.04402
2698.09017,0.04387
2696.03056,0.04370
2693.97095,0.04354
2691.91134,0.04344
2689.85173,0.04328
2687.79212,0.04307
2685.73251,0.04296
2683.67289,0.04290
2681.61328,0.04283
2679.55367,0.04275
2677.49406,0.04263
2675.43445,0.04253
2673.37484,0.04245
2671.31523,0.04233
2669.25562,0.04217
2667.19601,0.04199
2665.13640,0.04191
2663.07679,0.04196
2661.01718,0.04196
2658.95756,0.04185
2656.89795,0.04171
2654.83834,0.04156
2652.77873,0.04140
2650.71912,0.04130
2648.65951,0.04123
2646.59990,0.04103
2644.54029,0.04085
2642.48068,0.04085
2640.42107,0.04087
2638.36146,0.04077
2636.30185,0.04058
2634.24223,0.04039
2632.18262,0.04029
2630.12301,0.04025
2628.06340,0.04017
2626.00379,0.03999
2623.94418,0.03978
2621.88457,0.03961
2619.82496,0.03945
2617.76535,0.03924
2615.70574,0.03901
2613.64613,0.03896
2611.58652,0.03901
2609.52690,0.03891
2607.46729,0.03870
2605.40768,0.03849
2603.34807,0.03829
2601.28846,0.03812
2599.22885,0.03796
2597.16924,0.03780
2595.10963,0.03762
2593.05002,0.03740
2590.99041,0.03724
2588.93080,0.03708
2586.87119,0.03687
2584.81158,0.03674
2582.75196,0.03663
2580.69235,0.03644
2578.63274,0.03624
2576.57313,0.03603
2574.51352,0.03583
2572.45391,0.03575
2570.39430,0.03575
2568.33469,0.03566
2566.27508,0.03538
2564.21547,0.03512
2562.15586,0.03507
2560.09625,0.03507
2558.03663,0.03493
2555.97702,0.03461
2553.91741,0.03437
2551.85780,0.03445
2549.79819,0.03468
2547.73858,0.03461
2545.67897,0.03417
2543.61936,0.03383
2541.55975,0.03376
2539.50014,0.03376
2537.44053,0.03372
2535.38092,0.03350
2533.32130,0.03326
2531.26169,0.03319
2529.20208,0.03320
2527.14247,0.03325
2525.08286,0.03317
2523.02325,0.03298
2520.96364,0.03283
2518.90403,0.03266
2516.84442,0.03248
2514.78481,0.03244
2512.72520,0.03244
2510.66559,0.03228
2508.60597,0.03204
2506.54636,0.03193
2504.48675,0.03190
2502.42714,0.03186
2500.36753,0.03182
2498.30792,0.03175
2496.24831,0.03162
2494.18870,0.03136
2492.12909,0.03112
2490.06948,0.03107
2488.00987,0.03108
2485.95026,0.03089
2483.89065,0.03061
2481.83103,0.03054
2479.77142,0.03053
2477.71181,0.03043
2475.65220,0.03032
2473.59259,0.03015
2471.53298,0.02996
2469.47337,0.02988
2467.41376,0.03001
2465.35415,0.03017
2463.29454,0.03014
2461.23493,0.03000
2459.17532,0.02985
2457.11570,0.02966
2455.05609,0.02943
2452.99648,0.02936
2450.93687,0.02943
2448.87726,0.02941
2446.81765,0.02928
2444.75804,0.02914
2442.69843,0.02896
2440.63882,0.02874
2438.57921,0.02850
2436.51960,0.02836
2434.45999,0.02828
2432.40037,0.02818
2430.34076,0.02823
2428.28115,0.02832
2426.22154,0.02819
2424.16193,0.02792
2422.10232,0.02775
2420.04271,0.02763
2417.98310,0.02753
2415.92349,0.02755
2413.86388,0.02765
2411.80427,0.02772
2409.74466,0.02767
2407.68504,0.02745
2405.62543,0.02727
2403.56582,0.02720
2401.50621,0.02703
2399.44660,0.02686
2397.38699,0.02683
2395.32738,0.02691
2393.26777,0.02704
2391.20816,0.02710
2389.14855,0.02700
2387.08894,0.02680
2385.02933,0.02662
2382.96972,0.02651
2380.91010,0.02644
2378.85049,0.02643
2376.79088,0.02662
2374.73127,0.02652
2372.67166,0.02660
2370.61205,0.02695
2368.55244,0.02673
2366.49283,0.02658
2364.43322,0.02611
2362.37361,0.02590
2360.31400,0.02664
2358.25439,0.02652
2356.19477,0.02622
2354.13516,0.02606
2352.07555,0.02623
2350.01594,0.02749
2347.95633,0.02705
2345.89672,0.02585
2343.83711,0.02580
2341.77750,0.02545
2339.71789,0.02609
2337.65828,0.02634
2335.59867,0.02584
2333.53906,0.02617
2331.47944,0.02609
2329.41983,0.02678
2327.36022,0.02650
2325.30061,0.02634
2323.24100,0.02559
2321.18139,0.02521
2319.12178,0.02517
2317.06217,0.02511
2315.00256,0.02505
2312.94295,0.02505
2310.88334,0.02503
2308.82373,0.02487
2306.76411,0.02465
2304.70450,0.02460
2302.64489,0.02454
2300.58528,0.02437
2298.52567,0.02425
2296.46606,0.02435
2294.40645,0.02442
2292.34684,0.02436
2290.28723,0.02423
2288.22762,0.02410
2286.16801,0.02403
2284.10840,0.02403
2282.04878,0.02394
2279.98917,0.02361
2277.92956,0.02324
2275.86995,0.02298
2273.81034,0.02263
2271.75073,0.02215
2269.69112,0.02194
2267.63151,0.02212
2265.57190,0.02228
2263.51229,0.02212
2261.45268,0.02189
2259.39307,0.02186
2257.33346,0.02205
2255.27384,0.02210
2253.21423,0.02185
2251.15462,0.02163
2249.09501,0.02160
2247.03540,0.02147
2244.97579,0.02129
2242.91618,0.02122
2240.85657,0.02089
2238.79696,0.02056
2236.73735,0.02067
2234.67774,0.02076
2232.61813,0.02060
2230.55851,0.02034
2228.49890,0.01992
2226.43929,0.01959
2224.37968,0.01978
2222.32007,0.02003
2220.26046,0.01979
2218.20085,0.01944
2216.14124,0.01956
2214.08163,0.02003
2212.02202,0.02022
2209.96241,0.01997
2207.90280,0.01960
2205.84318,0.01936
2203.78357,0.01936
2201.72396,0.01939
2199.66435,0.01927
2197.60474,0.01922
2195.54513,0.01931
2193.48552,0.01935
2191.42591,0.01923
2189.36630,0.01901
2187.30669,0.01862
2185.24708,0.01805
2183.18747,0.01753
2181.12785,0.01747
2179.06824,0.01795
2177.00863,0.01820
2174.94902,0.01775
2172.88941,0.01776
2170.82980,0.01871
2168.77019,0.01919
2166.71058,0.01879
2164.65097,0.01857
2162.59136,0.01852
2160.53175,0.01760
2158.47214,0.01620
2156.41253,0.01565
2154.35291,0.01604
2152.29330,0.01657
2150.23369,0.01688
2148.17408,0.01734
2146.11447,0.01813
2144.05486,0.01873
2141.99525,0.01874
2139.93564,0.01856
2137.87603,0.01864
2135.81642,0.01884
2133.75681,0.01888
2131.69720,0.01886
2129.63758,0.01909
2127.57797,0.01952
2125.51836,0.01992
2123.45875,0.02007
2121.39914,0.01992
2119.33953,0.01976
2117.27992,0.01984
2115.22031,0.01999
2113.16070,0.02012
2111.10109,0.02023
2109.04148,0.02020
2106.98187,0.02016
2104.92225,0.02030
2102.86264,0.02054
2100.80303,0.02076
2098.74342,0.02058
2096.68381,0.01984
2094.62420,0.01926
2092.56459,0.01935
2090.50498,0.01965
2088.44537,0.01983
2086.38576,0.01994
2084.32615,0.01995
2082.26654,0.01992
2080.20692,0.01996
2078.14731,0.01987
2076.08770,0.01947
2074.02809,0.01914
2071.96848,0.01921
2069.90887,0.01930
2067.84926,0.01929
2065.78965,0.01943
2063.73004,0.01943
2061.67043,0.01892
2059.61082,0.01844
2057.55121,0.01847
2055.49160,0.01856
2053.43198,0.01856
2051.37237,0.01859
2049.31276,0.01833
2047.25315,0.01792
2045.19354,0.01776
2043.13393,0.01748
2041.07432,0.01706
2039.01471,0.01693
2036.95510,0.01669
2034.89549,0.01598
2032.83588,0.01533
2030.77627,0.01538
2028.71665,0.01574
2026.65704,0.01564
2024.59743,0.01546
2022.53782,0.01577
2020.47821,0.01616
2018.41860,0.01613
2016.35899,0.01583
2014.29938,0.01592
2012.23977,0.01627
2010.18016,0.01603
2008.12055,0.01540
2006.06094,0.01524
2004.00132,0.01560
2001.94171,0.01609
1999.88210,0.01641
1997.82249,0.01630
1995.76288,0.01600
1993.70327,0.01596
1991.64366,0.01618
1989.58405,0.01647
1987.52444,0.01675
1985.46483,0.01682
1983.40522,0.01680
1981.34561,0.01677
1979.28599,0.01616
1977.22638,0.01524
1975.16677,0.01473
1973.10716,0.01453
1971.04755,0.01469
1968.98794,0.01533
1966.92833,0.01590
1964.86872,0.01591
1962.80911,0.01565
1960.74950,0.01564
1958.68989,0.01596
1956.63028,0.01629
1954.57067,0.01652
1952.51105,0.01658
1950.45144,0.01643
1948.39183,0.01626
1946.33222,0.01607
1944.27261,0.01594
1942.21300,0.01611
1940.15339,0.01645
1938.09378,0.01675
1936.03417,0.01717
1933.97456,0.01765
1931.91495,0.01779
1929.85534,0.01766
1927.79572,0.01768
1925.73611,0.01780
1923.67650,0.01766
1921.61689,0.01740
1919.55728,0.01738
1917.49767,0.01755
1915.43806,0.01765
1913.37845,0.01758
1911.31884,0.01751
1909.25923,0.01749
1907.19962,0.01741
1905.14001,0.01733
1903.08039,0.01747
1901.02078,0.01771
1898.96117,0.01776
1896.90156,0.01764
1894.84195,0.01759
1892.78234,0.01756
1890.72273,0.01746
1888.66312,0.01745
1886.60351,0.01755
1884.54390,0.01762
1882.48429,0.01755
1880.42468,0.01733
1878.36506,0.01717
1876.30545,0.01717
1874.24584,0.01715
1872.18623,0.01708
1870.12662,0.01713
1868.06701,0.01735
1866.00740,0.01750
1863.94779,0.01745
1861.88818,0.01729
1859.82857,0.01714
1857.76896,0.01704
1855.70935,0.01698
1853.64974,0.01694
1851.59012,0.01691
1849.53051,0.01681
1847.47090,0.01662
1845.41129,0.01654
1843.35168,0.01672
1841.29207,0.01693
1839.23246,0.01701
1837.17285,0.01701
1835.11324,0.01700
1833.05363,0.01694
1830.99402,0.01685
1828.93441,0.01683
1826.87479,0.01682
1824.81518,0.01677
1822.75557,0.01673
1820.69596,0.01674
1818.63635,0.01676
1816.57674,0.01674
1814.51713,0.01670
1812.45752,0.01671
1810.39791,0.01682
1808.33830,0.01689
1806.27869,0.01679
1804.21908,0.01671
1802.15946,0.01678
1800.09985,0.01687
1798.04024,0.01679
1795.98063,0.01662
1793.92102,0.01655
1791.86141,0.01661
1789.80180,0.01667
1787.74219,0.01667
1785.68258,0.01670
1783.62297,0.01678
1781.56336,0.01685
1779.50375,0.01693
1777.44413,0.01699
1775.38452,0.01695
1773.32491,0.01687
1771.26530,0.01694
1769.20569,0.01722
1767.14608,0.01748
1765.08647,0.01758
1763.02686,0.01762
1760.96725,0.01779
1758.90764,0.01805
1756.84803,0.01831
1754.78842,0.01857
1752.72881,0.01891
1750.66919,0.01941
1748.60958,0.01990
1746.54997,0.02028
1744.49036,0.02060
1742.43075,0.02101
1740.37114,0.02162
1738.31153,0.02223
1736.25192,0.02270
1734.19231,0.02341
1732.13270,0.02444
1730.07309,0.02536
1728.01348,0.02608
1725.95386,0.02669
1723.89425,0.02732
1721.83464,0.02796
1719.77503,0.02858
1717.71542,0.02939
1715.65581,0.03051
1713.59620,0.03174
1711.53659,0.03296
1709.47698,0.03430
1707.41737,0.03613
1705.35776,0.03872
1703.29815,0.04183
1701.23853,0.04595
1699.17892,0.05141
1697.11931,0.05659
1695.05970,0.06082
1693.00009,0.06409
1690.94048,0.06700
1688.88087,0.07019
1686.82126,0.07375
1684.76165,0.07868
1682.70204,0.08458
1680.64243,0.08910
1678.58282,0.09260
1676.52320,0.09658
1674.46359,0.10127
1672.40398,0.10582
1670.34437,0.11069
1668.28476,0.11618
1666.22515,0.12083
1664.16554,0.12512
1662.10593,0.13018
1660.04632,0.13508
1657.98671,0.13874
1655.92710,0.14183
1653.86749,0.14603
1651.80788,0.15074
1649.74826,0.15328
1647.68865,0.15507
1645.62904,0.15745
1643.56943,0.15938
1641.50982,0.16065
1639.45021,0.16174
1637.39060,0.16317
1635.33099,0.16537
1633.27138,0.16742
1631.21177,0.16873
1629.15216,0.16998
1627.09255,0.17151
1625.03293,0.17304
1622.97332,0.17416
1620.91371,0.17440
1618.85410,0.17358
1616.79449,0.17191
1614.73488,0.16965
1612.67527,0.16699
1610.61566,0.16381
1608.55605,0.16013
1606.49644,0.15624
1604.43683,0.15231
1602.37722,0.14841
1600.31760,0.14476
1598.25799,0.14149
1596.19838,0.13854
1594.13877,0.13586
1592.07916,0.13349
1590.01955,0.13148
1587.95994,0.12977
1585.90033,0.12830
1583.84072,0.12694
1581.78111,0.12554
1579.72150,0.12401
1577.66189,0.12238
1575.60227,0.12094
1573.54266,0.12006
1571.48305,0.11960
1569.42344,0.11942
1567.36383,0.11958
1565.30422,0.12008
1563.24461,0.12073
1561.18500,0.12165
1559.12539,0.12384
1557.06578,0.12711
1555.00617,0.12983
1552.94656,0.13218
1550.88695,0.13455
1548.82733,0.13679
1546.76772,0.13863
1544.70811,0.14018
1542.64850,0.14188
1540.58889,0.14414
1538.52928,0.14646
1536.46967,0.14785
1534.41006,0.14901
1532.35045,0.15054
1530.29084,0.15192
1528.23123,0.15311
1526.17162,0.15448
1524.11200,0.15610
1522.05239,0.15804
1519.99278,0.15999
1517.93317,0.16116
1515.87356,0.16128
1513.81395,0.16022
1511.75434,0.15804
1509.69473,0.15481
1507.63512,0.14993
1505.57551,0.14412
1503.51590,0.13976
1501.45629,0.13629
1499.39667,0.13233
1497.33706,0.12760
1495.27745,0.12282
1493.21784,0.11867
1491.15823,0.11453
1489.09862,0.10991
1487.03901,0.10570
1484.97940,0.10247
1482.91979,0.09992
1480.86018,0.09782
1478.80057,0.09634
1476.74096,0.09550
1474.68134,0.09535
1472.62173,0.09600
1470.56212,0.09690
1468.50251,0.09741
1466.44290,0.09769
1464.38329,0.09807
1462.32368,0.09853
1460.26407,0.09906
1458.20446,0.10014
1456.14485,0.10179
1454.08524,0.10288
1452.02563,0.10316
1449.96602,0.10303
1447.90640,0.10272
1445.84679,0.10223
1443.78718,0.10149
1441.72757,0.10056
1439.66796,0.09953
1437.60835,0.09826
1435.54874,0.09682
1433.48913,0.09559
1431.42952,0.09475
1429.36991,0.09435
1427.31030,0.09442
1425.25069,0.09502
1423.19107,0.09614
1421.13146,0.09781
1419.07185,0.10026
1417.01224,0.10314
1414.95263,0.10562
1412.89302,0.10768
1410.83341,0.10954
1408.77380,0.11111
1406.71419,0.11216
1404.65458,0.11270
1402.59497,0.11276
1400.53536,0.11243
1398.47574,0.11186
1396.41613,0.11120
1394.35652,0.11047
1392.29691,0.10969
1390.23730,0.10886
1388.17769,0.10790
1386.11808,0.10664
1384.05847,0.10513
1381.99886,0.10349
1379.93925,0.10183
1377.87964,0.10027
1375.82003,0.09889
1373.76041,0.09778
1371.70080,0.09698
1369.64119,0.09628
1367.58158,0.09544
1365.52197,0.09442
1363.46236,0.09336
1361.40275,0.09245
1359.34314,0.09178
1357.28353,0.09128
1355.22392,0.09092
1353.16431,0.09067
1351.10470,0.09046
1349.04508,0.09023
1346.98547,0.08995
1344.92586,0.08964
1342.86625,0.08937
1340.80664,0.08922
1338.74703,0.08921
1336.68742,0.08935
1334.62781,0.08960
1332.56820,0.08975
1330.50859,0.08951
1328.44898,0.08888
1326.38937,0.08811
1324.32976,0.08743
1322.27014,0.08693
1320.21053,0.08661
1318.15092,0.08638
1316.09131,0.08613
1314.03170,0.08584
1311.97209,0.08557
1309.91248,0.08533
1307.85287,0.08504
1305.79326,0.08459
1303.73365,0.08410
1301.67404,0.08371
1299.61443,0.08335
1297.55481,0.08288
1295.49520,0.08231
1293.43559,0.08169
1291.37598,0.08106
1289.31637,0.08050
1287.25676,0.08009
1285.19715,0.07980
1283.13754,0.07952
1281.07793,0.07922
1279.01832,0.07905
1276.95871,0.07907
1274.89910,0.07915
1272.83948,0.07920
1270.77987,0.07929
1268.72026,0.07950
1266.66065,0.07979
1264.60104,0.08009
1262.54143,0.08046
1260.48182,0.08097
1258.42221,0.08165
1256.36260,0.08246
1254.30299,0.08333
1252.24338,0.08423
1250.18377,0.08518
1248.12415,0.08617
1246.06454,0.08699
1244.00493,0.08757
1241.94532,0.08792
1239.88571,0.08806
1237.82610,0.08805
1235.76649,0.08802
1233.70688,0.08791
1231.64727,0.08750
1229.58766,0.08683
1227.52805,0.08614
1225.46844,0.08546
1223.40883,0.08478
1221.34921,0.08403
1219.28960,0.08317
1217.22999,0.08231
1215.17038,0.08148
1213.11077,0.08052
1211.05116,0.07934
1208.99155,0.07806
1206.93194,0.07681
1204.87233,0.07570
1202.81272,0.07467
1200.75311,0.07357
1198.69350,0.07251
1196.63388,0.07158
1194.57427,0.07074
1192.51466,0.06997
1190.45505,0.06931
1188.39544,0.06879
1186.33583,0.06832
1184.27622,0.06775
1182.21661,0.06722
1180.15700,0.06705
1178.09739,0.06732
1176.03778,0.06784
1173.97817,0.06847
1171.91855,0.06912
1169.85894,0.06968
1167.79933,0.07014
1165.73972,0.07061
1163.68011,0.07106
1161.62050,0.07144
1159.56089,0.07166
1157.50128,0.07165
1155.44167,0.07141
1153.38206,0.07099
1151.32245,0.07043
1149.26284,0.06973
1147.20322,0.06897
1145.14361,0.06831
1143.08400,0.06780
1141.02439,0.06741
1138.96478,0.06725
1136.90517,0.06735
1134.84556,0.06757
1132.78595,0.06778
1130.72634,0.06809
1128.66673,0.06843
1126.60712,0.06866
1124.54751,0.06883
1122.48790,0.06894
1120.42828,0.06896
1118.36867,0.06891
1116.30906,0.06883
1114.24945,0.06877
1112.18984,0.06871
1110.13023,0.06863
1108.07062,0.06856
1106.01101,0.06851
1103.95140,0.06851
1101.89179,0.06857
1099.83218,0.06863
1097.77257,0.06867
1095.71295,0.06876
1093.65334,0.06911
1091.59373,0.06978
1089.53412,0.07076
1087.47451,0.07202
1085.41490,0.07340
1083.35529,0.07478
1081.29568,0.07617
1079.23607,0.07758
1077.17646,0.07889
1075.11685,0.07994
1073.05724,0.08077
1070.99762,0.08146
1068.93801,0.08207
1066.87840,0.08266
1064.81879,0.08319
1062.75918,0.08359
1060.69957,0.08372
1058.63996,0.08362
1056.58035,0.08346
1054.52074,0.08331
1052.46113,0.08314
1050.40152,0.08295
1048.34191,0.08271
1046.28229,0.08242
1044.22268,0.08207
1042.16307,0.08158
1040.10346,0.08099
1038.04385,0.08037
1035.98424,0.07978
1033.92463,0.07928
1031.86502,0.07882
1029.80541,0.07824
1027.74580,0.07753
1025.68619,0.07672
1023.62658,0.07571
1021.56697,0.07458
1019.50735,0.07349
1017.44774,0.07242
1015.38813,0.07135
1013.32852,0.07030
1011.26891,0.06934
1009.20930,0.06854
1007.14969,0.06780
1005.09008,0.06708
1003.03047,0.06646
1000.97086,0.06581
998.91125,0.06502
996.85164,0.06419
994.79202,0.06339
992.73241,0.06264
990.67280,0.06179
988.61319,0.06078
986.55358,0.05978
984.49397,0.05888
982.43436,0.05809
980.37475,0.05736
978.31514,0.05667
976.25553,0.05613
974.19592,0.05571
972.13631,0.05521
970.07669,0.05466
968.01708,0.05427
965.95747,0.05407
963.89786,0.05389
961.83825,0.05366
959.77864,0.05342
957.71903,0.05313
955.65942,0.05275
953.59981,0.05240
951.54020,0.05224
949.48059,0.05220
947.42098,0.05207
945.36136,0.05188
943.30175,0.05183
941.24214,0.05190
939.18253,0.05191
937.12292,0.05195
935.06331,0.05205
933.00370,0.05217
930.94409,0.05232
928.88448,0.05236
926.82487,0.05223
924.76526,0.05213
922.70565,0.05206
920.64604,0.05180
918.58642,0.05132
916.52681,0.05086
914.46720,0.05062
912.40759,0.05046
910.34798,0.05034
908.28837,0.05046
906.22876,0.05073
904.16915,0.05097
902.10954,0.05118
900.04993,0.05136
897.99032,0.05146
895.93071,0.05140
893.87109,0.05108
891.81148,0.05064
889.75187,0.05031
887.69226,0.05012
885.63265,0.04997
883.57304,0.04989
881.51343,0.04980
879.45382,0.04966
877.39421,0.04956
875.33460,0.04939
873.27499,0.04914
871.21538,0.04905
869.15576,0.04906
867.09615,0.04890
865.03654,0.04860
862.97693,0.04841
860.91732,0.04836
858.85771,0.04842
856.79810,0.04872
854.73849,0.04917
852.67888,0.04945
850.61927,0.04967
848.55966,0.05003
846.50005,0.05028
844.44043,0.05043
842.38082,0.05058
840.32121,0.05057
838.26160,0.05051
836.20199,0.05066
834.14238,0.05097
832.08277,0.05130
830.02316,0.05162
827.96355,0.05192
825.90394,0.05218
823.84433,0.05234
821.78472,0.05247
819.72511,0.05283
817.66549,0.05327
815.60588,0.05356
813.54627,0.05400
811.48666,0.05476
809.42705,0.05545
807.36744,0.05575
805.30783,0.05593
803.24822,0.05620
801.18861,0.05649
799.12900,0.05668
797.06939,0.05677
795.00978,0.05698
792.95016,0.05750
790.89055,0.05822
788.83094,0.05898
786.77133,0.05972
784.71172,0.06041
782.65211,0.06104
780.59250,0.06153
778.53289,0.06202
776.47328,0.06279
774.41367,0.06384
772.35406,0.06481
770.29445,0.06537
768.23483,0.06557
766.17522,0.06578
764.11561,0.06611
762.05600,0.06642
759.99639,0.06670
757.93678,0.06708
755.87717,0.06766
753.81756,0.06830
751.75795,0.06890
749.69834,0.06953
747.63873,0.07007
745.57912,0.07040
743.51950,0.07064
741.45989,0.07078
739.40028,0.07084
737.34067,0.07098
735.28106,0.07119
733.22145,0.07150
731.16184,0.07210
729.10223,0.07302
727.04262,0.07415
724.98301,0.07527
722.92340,0.07636
720.86379,0.07745
718.80418,0.07914
716.74456,0.08056
714.68495,0.08194
712.62534,0.08352
710.56573,0.08532
708.50612,0.08730
706.44651,0.08945
704.38690,0.09161
702.32729,0.09331
700.26768,0.09441
698.20807,0.09507
696.14846,0.09542
694.08885,0.09558
692.02923,0.09565
689.96962,0.09566
687.91001,0.09577
685.85040,0.09618
683.79079,0.09671
681.73118,0.09710
679.67157,0.09734
677.61196,0.09760
675.55235,0.09799
673.49274,0.09851
671.43313,0.10090
669.37352,0.10417
667.31390,0.09816
665.25429,0.10168
663.19468,0.10090
661.13507,0.10062
659.07546,0.10132
657.01585,0.10212
654.95624,0.10277
652.89663,0.10304
650.83702,0.10306
648.77741,0.10312
646.71780,0.10361
644.65819,0.10411
642.59857,0.10462
640.53896,0.10508
638.47935,0.10542
636.41974,0.10588
634.36013,0.10645
632.30052,0.10690
630.24091,0.10721
628.18130,0.10756
626.12169,0.10798
624.06208,0.10823
622.00247,0.10816
619.94286,0.10778
617.88325,0.10733
615.82363,0.10730
613.76402,0.10760
611.70441,0.10771
609.64480,0.10744
607.58519,0.10707
605.52558,0.10696
603.46597,0.10715
601.40636,0.10749
599.34675,0.10766
597.28714,0.10754
595.22753,0.10747
593.16792,0.10747
591.10830,0.10729
589.04869,0.10720
586.98908,0.10754
584.92947,0.10801
582.86986,0.10824
580.81025,0.10848
578.75064,0.10925
576.69103,0.11040
574.63142,0.11117
572.57181,0.11129
570.51220,0.11119
568.45259,0.11113
566.39297,0.11129
564.33336,0.11166
562.27375,0.11192
560.21414,0.11213
558.15453,0.11247
556.09492,0.11268
554.03531,0.11272
551.97570,0.11272
549.91609,0.11287
547.85648,0.11360
545.79687,0.11469
543.73726,0.11535
541.67764,0.11560
539.61803,0.11592
537.55842,0.11644
535.49881,0.11695
533.43920,0.11695
531.37959,0.11642
529.31998,0.11609
527.26037,0.11626
525.20076,0.11648
523.14115,0.11627
521.08154,0.11576
519.02193,0.11548
516.96232,0.11546
514.90270,0.11523
512.84309,0.11464
510.78348,0.11392
508.72387,0.11342
506.66426,0.11291
504.60465,0.11220
502.54504,0.11168
500.48543,0.11128
498.42582,0.11072
496.36621,0.11018
494.30660,0.10981
492.24699,0.10970
490.18737,0.10980
488.12776,0.10975
486.06815,0.10953
484.00854,0.10937
481.94893,0.10898
479.88932,0.10833
477.82971,0.10794
475.77010,0.10797
473.71049,0.10831
471.65088,0.10878
469.59127,0.10880
467.53166,0.10861
465.47204,0.10871
463.41243,0.10864
461.35282,0.10832
459.29321,0.10827
457.23360,0.10828
455.17399,0.10770
453.11438,0.10687
451.05477,0.10682
448.99516,0.10751
446.93555,0.10772
444.87594,0.10682
442.81633,0.10551
440.75671,0.10472
438.69710,0.10450
436.63749,0.10435
434.57788,0.10369
432.51827,0.10260
430.45866,0.10243
428.39905,0.10360
426.33944,0.10455
424.27983,0.10405
422.22022,0.10251
420.16061,0.10110
418.10100,0.10033
416.04138,0.09999
413.98177,0.09963
411.92216,0.09885
409.86255,0.09814
407.80294,0.09806
405.74333,0.09810
403.68372,0.09774
401.62411,0.09725
399.56450,0.09692
