3997.70460,0.01964
3995.64498,0.01944
3993.58537,0.01950
3991.52576,0.01970
3989.46615,0.01980
3987.40654,0.01967
3985.34693,0.01942
3983.28732,0.01936
3981.22771,0.01951
3979.16810,0.01963
3977.10849,0.01961
3975.04888,0.01951
3972.98927,0.01944
3970.92965,0.01945
3968.87004,0.01950
3966.81043,0.01946
3964.75082,0.01938
3962.69121,0.01941
3960.63160,0.01946
3958.57199,0.01937
3956.51238,0.01927
3954.45277,0.01931
3952.39316,0.01949
3950.33355,0.01968
3948.27394,0.01973
3946.21432,0.01967
3944.15471,0.01960
3942.09510,0.01943
3940.03549,0.01925
3937.97588,0.01930
3935.91627,0.01950
3933.85666,0.01960
3931.79705,0.01953
3929.73744,0.01948
3927.67783,0.01951
3925.61822,0.01952
3923.55861,0.01946
3921.49900,0.01946
3919.43938,0.01958
3917.37977,0.01974
3915.32016,0.01979
3913.26055,0.01970
3911.20094,0.01961
3909.14133,0.01958
3907.08172,0.01962
3905.02211,0.01972
3902.96250,0.01980
3900.90289,0.01980
3898.84328,0.01972
3896.78367,0.01954
3894.72405,0.01933
3892.66444,0.01924
3890.60483,0.01931
3888.54522,0.01946
3886.48561,0.01958
3884.42600,0.01960
3882.36639,0.01958
3880.30678,0.01962
3878.24717,0.01969
3876.18756,0.01971
3874.12795,0.01959
3872.06834,0.01931
3870.00872,0.01912
3867.94911,0.01926
3865.88950,0.01959
3863.82989,0.01989
3861.77028,0.02000
3859.71067,0.01980
3857.65106,0.01941
3855.59145,0.01915
3853.53184,0.01928
3851.47223,0.01957
3849.41262,0.01962
3847.35301,0.01947
3845.29339,0.01930
3843.23378,0.01930
3841.17417,0.01950
3839.11456,0.01970
3837.05495,0.01959
3834.99534,0.01935
3832.93573,0.01932
3830.87612,0.01941
3828.81651,0.01940
3826.75690,0.01933
3824.69729,0.01926
3822.63768,0.01911
3820.57807,0.01892
3818.51845,0.01886
3816.45884,0.01894
3814.39923,0.01901
3812.33962,0.01893
3810.28001,0.01871
3808.22040,0.01855
3806.16079,0.01862
3804.10118,0.01876
3802.04157,0.01891
3799.98196,0.01911
3797.92235,0.01923
3795.86274,0.01922
3793.80312,0.01906
3791.74351,0.01878
3789.68390,0.01854
3787.62429,0.01850
3785.56468,0.01860
3783.50507,0.01866
3781.44546,0.01864
3779.38585,0.01849
3777.32624,0.01827
3775.26663,0.01826
3773.20702,0.01849
3771.14741,0.01871
3769.08779,0.01882
3767.02818,0.01883
3764.96857,0.01878
3762.90896,0.01867
3760.84935,0.01857
3758.78974,0.01861
3756.73013,0.01873
3754.67052,0.01873
3752.61091,0.01859
3750.55130,0.01860
3748.49169,0.01885
3746.43208,0.01898
3744.37246,0.01892
3742.31285,0.01892
3740.25324,0.01901
3738.19363,0.01902
3736.13402,0.01893
3734.07441,0.01876
3732.01480,0.01863
3729.95519,0.01872
3727.89558,0.01898
3725.83597,0.01915
3723.77636,0.01909
3721.71675,0.01883
3719.65714,0.01852
3717.59752,0.01837
3715.53791,0.01833
3713.47830,0.01825
3711.41869,0.01816
3709.35908,0.01819
3707.29947,0.01818
3705.23986,0.01802
3703.18025,0.01789
3701.12064,0.01805
3699.06103,0.01831
3697.00142,0.01830
3694.94181,0.01804
3692.88219,0.01778
3690.82258,0.01780
3688.76297,0.01794
3686.70336,0.01792
3684.64375,0.01778
3682.58414,0.01772
3680.52453,0.01781
3678.46492,0.01800
3676.40531,0.01804
3674.34570,0.01781
3672.28609,0.01752
3670.22648,0.01730
3668.16686,0.01724
3666.10725,0.01742
3664.04764,0.01768
3661.98803,0.01788
3659.92842,0.01799
3657.86881,0.01804
3655.80920,0.01819
3653.74959,0.01838
3651.68998,0.01853
3649.63037,0.01871
3647.57076,0.01884
3645.51115,0.01871
3643.45153,0.01843
3641.39192,0.01824
3639.33231,0.01823
3637.27270,0.01826
3635.21309,0.01827
3633.15348,0.01829
3631.09387,0.01839
3629.03426,0.01859
3626.97465,0.01877
3624.91504,0.01881
3622.85543,0.01875
3620.79582,0.01866
3618.73621,0.01864
3616.67659,0.01867
3614.61698,0.01877
3612.55737,0.01898
3610.49776,0.01917
3608.43815,0.01927
3606.37854,0.01932
3604.31893,0.01933
3602.25932,0.01928
3600.19971,0.01926
3598.14010,0.01937
3596.08049,0.01946
3594.02088,0.01953
3591.96126,0.01975
3589.90165,0.02001
3587.84204,0.02012
3585.78243,0.01986
3583.72282,0.01954
3581.66321,0.01960
3579.60360,0.02000
3577.54399,0.02034
3575.48438,0.02048
3573.42477,0.02054
3571.36516,0.02065
3569.30555,0.02089
3567.24593,0.02117
3565.18632,0.02126
3563.12671,0.02124
3561.06710,0.02134
3559.00749,0.02149
3556.94788,0.02161
3554.88827,0.02172
3552.82866,0.02176
3550.76905,0.02170
3548.70944,0.02164
3546.64983,0.02177
3544.59022,0.02205
3542.53060,0.02228
3540.47099,0.02250
3538.41138,0.02271
3536.35177,0.02277
3534.29216,0.02271
3532.23255,0.02273
3530.17294,0.02283
3528.11333,0.02293
3526.05372,0.02313
3523.99411,0.02339
3521.93450,0.02355
3519.87489,0.02368
3517.81528,0.02386
3515.75566,0.02398
3513.69605,0.02403
3511.63644,0.02409
3509.57683,0.02422
3507.51722,0.02439
3505.45761,0.02452
3503.39800,0.02466
3501.33839,0.02492
3499.27878,0.02523
3497.21917,0.02549
3495.15956,0.02560
3493.09995,0.02555
3491.04033,0.02547
3488.98072,0.02555
3486.92111,0.02580
3484.86150,0.02599
3482.80189,0.02608
3480.74228,0.02631
3478.68267,0.02666
3476.62306,0.02692
3474.56345,0.02699
3472.50384,0.02698
3470.44423,0.02705
3468.38462,0.02714
3466.32500,0.02717
3464.26539,0.02725
3462.20578,0.02734
3460.14617,0.02745
3458.08656,0.02768
3456.02695,0.02790
3453.96734,0.02797
3451.90773,0.02809
3449.84812,0.02842
3447.78851,0.02877
3445.72890,0.02890
3443.66929,0.02890
3441.60967,0.02889
3439.55006,0.02886
3437.49045,0.02889
3435.43084,0.02913
3433.37123,0.02952
3431.31162,0.02984
3429.25201,0.02996
3427.19240,0.02998
3425.13279,0.03005
3423.07318,0.03022
3421.01357,0.03044
3418.95396,0.03065
3416.89435,0.03086
3414.83473,0.03105
3412.77512,0.03113
3410.71551,0.03108
3408.65590,0.03110
3406.59629,0.03132
3404.53668,0.03155
3402.47707,0.03162
3400.41746,0.03162
3398.35785,0.03186
3396.29824,0.03209
3394.23863,0.03216
3392.17902,0.03219
3390.11940,0.03220
3388.05979,0.03226
3386.00018,0.03253
3383.94057,0.03286
3381.88096,0.03294
3379.82135,0.03290
3377.76174,0.03305
3375.70213,0.03340
3373.64252,0.03374
3371.58291,0.03395
3369.52330,0.03412
3367.46369,0.03434
3365.40407,0.03463
3363.34446,0.03494
3361.28485,0.03527
3359.22524,0.03555
3357.16563,0.03568
3355.10602,0.03569
3353.04641,0.03576
3350.98680,0.03601
3348.92719,0.03640
3346.86758,0.03681
3344.80797,0.03711
3342.74836,0.03719
3340.68874,0.03722
3338.62913,0.03745
3336.56952,0.03789
3334.50991,0.03837
3332.45030,0.03875
3330.39069,0.03905
3328.33108,0.03941
3326.27147,0.03967
3324.21186,0.03978
3322.15225,0.04002
3320.09264,0.04039
3318.03303,0.04068
3315.97342,0.04099
3313.91380,0.04144
3311.85419,0.04197
3309.79458,0.04246
3307.73497,0.04292
3305.67536,0.04343
3303.61575,0.04387
3301.55614,0.04415
3299.49653,0.04442
3297.43692,0.04485
3295.37731,0.04539
3293.31770,0.04593
3291.25809,0.04641
3289.19847,0.04676
3287.13886,0.04700
3285.07925,0.04722
3283.01964,0.04751
3280.96003,0.04797
3278.90042,0.04840
3276.84081,0.04863
3274.78120,0.04878
3272.72159,0.04902
3270.66198,0.04923
3268.60237,0.04927
3266.54276,0.04924
3264.48314,0.04930
3262.42353,0.04934
3260.36392,0.04926
3258.30431,0.04908
3256.24470,0.04884
3254.18509,0.04861
3252.12548,0.04842
3250.06587,0.04822
3248.00626,0.04808
3245.94665,0.04804
3243.88704,0.04789
3241.82743,0.04753
3239.76781,0.04721
3237.70820,0.04698
3235.64859,0.04682
3233.58898,0.04666
3231.52937,0.04642
3229.46976,0.04628
3227.41015,0.04632
3225.35054,0.04629
3223.29093,0.04615
3221.23132,0.04606
3219.17171,0.04599
3217.11210,0.04584
3215.05248,0.04563
3212.99287,0.04544
3210.93326,0.04529
3208.87365,0.04515
3206.81404,0.04512
3204.75443,0.04522
3202.69482,0.04520
3200.63521,0.04497
3198.57560,0.04472
3196.51599,0.04453
3194.45638,0.04445
3192.39677,0.04440
3190.33716,0.04423
3188.27754,0.04410
3186.21793,0.04404
3184.15832,0.04383
3182.09871,0.04352
3180.03910,0.04330
3177.97949,0.04309
3175.91988,0.04283
3173.86027,0.04268
3171.80066,0.04265
3169.74105,0.04255
3167.68144,0.04236
3165.62183,0.04214
3163.56221,0.04191
3161.50260,0.04173
3159.44299,0.04159
3157.38338,0.04147
3155.32377,0.04136
3153.26416,0.04112
3151.20455,0.04081
3149.14494,0.04059
3147.08533,0.04036
3145.02572,0.04010
3142.96611,0.03987
3140.90650,0.03969
3138.84688,0.03956
3136.78727,0.03939
3134.72766,0.03905
3132.66805,0.03870
3130.60844,0.03852
3128.54883,0.03839
3126.48922,0.03829
3124.42961,0.03837
3122.37000,0.03853
3120.31039,0.03856
3118.25078,0.03835
3116.19117,0.03806
3114.13155,0.03786
3112.07194,0.03780
3110.01233,0.03785
3107.95272,0.03787
3105.89311,0.03782
3103.83350,0.03771
3101.77389,0.03757
3099.71428,0.03746
3097.65467,0.03737
3095.59506,0.03731
3093.53545,0.03739
3091.47584,0.03759
3089.41623,0.03771
3087.35661,0.03766
3085.29700,0.03762
3083.23739,0.03768
3081.17778,0.03780
3079.11817,0.03793
3077.05856,0.03803
3074.99895,0.03807
3072.93934,0.03806
3070.87973,0.03809
3068.82012,0.03824
3066.76051,0.03838
3064.70090,0.03836
3062.64128,0.03826
3060.58167,0.03814
3058.52206,0.03804
3056.46245,0.03801
3054.40284,0.03798
3052.34323,0.03781
3050.28362,0.03754
3048.22401,0.03728
3046.16440,0.03707
3044.10479,0.03695
3042.04518,0.03688
3039.98557,0.03670
3037.92595,0.03643
3035.86634,0.03621
3033.80673,0.03611
3031.74712,0.03610
3029.68751,0.03607
3027.62790,0.03596
3025.56829,0.03579
3023.50868,0.03565
3021.44907,0.03548
3019.38946,0.03521
3017.32985,0.03498
3015.27024,0.03476
3013.21062,0.03451
3011.15101,0.03433
3009.09140,0.03421
3007.03179,0.03408
3004.97218,0.03398
3002.91257,0.03392
3000.85296,0.03390
2998.79335,0.03390
2996.73374,0.03390
2994.67413,0.03384
2992.61452,0.03374
2990.55491,0.03361
2988.49530,0.03360
2986.43568,0.03380
2984.37607,0.03409
2982.31646,0.03430
2980.25685,0.03436
2978.19724,0.03428
2976.13763,0.03409
2974.07802,0.03388
2972.01841,0.03370
2969.95880,0.03343
2967.89919,0.03305
2965.83958,0.03259
2963.77997,0.03188
2961.72035,0.03087
2959.66074,0.02973
2957.60113,0.02878
2955.54152,0.02848
2953.48191,0.02896
2951.42230,0.02980
2949.36269,0.03062
2947.30308,0.03118
2945.24347,0.03133
2943.18386,0.03111
2941.12425,0.03060
2939.06464,0.02980
2937.00502,0.02869
2934.94541,0.02718
2932.88580,0.02516
2930.82619,0.02239
2928.76658,0.01853
2926.70697,0.01316
2924.64736,0.00579
2922.58775,-0.00382
2920.52814,-0.01546
2918.46853,-0.02707
2916.40892,-0.03264
2914.34931,-0.02634
2912.28969,-0.01159
2910.23008,0.00226
2908.17047,0.01086
2906.11086,0.01552
2904.05125,0.01818
2901.99164,0.01980
2899.93203,0.02091
2897.87242,0.02177
2895.81281,0.02257
2893.75320,0.02345
2891.69359,0.02425
2889.63398,0.02490
2887.57437,0.02563
2885.51475,0.02654
2883.45514,0.02742
2881.39553,0.02816
2879.33592,0.02880
2877.27631,0.02927
2875.21670,0.02943
2873.15709,0.02938
2871.09748,0.02934
2869.03787,0.02930
2866.97826,0.02909
2864.91865,0.02854
2862.85904,0.02749
2860.79942,0.02585
2858.73981,0.02344
2856.68020,0.01976
2854.62059,0.01345
2852.56098,0.00302
2850.50137,-0.00896
2848.44176,-0.01313
2846.38215,-0.00420
2844.32254,0.00980
2842.26293,0.01980
2840.20332,0.02492
2838.14371,0.02743
2836.08409,0.02875
2834.02448,0.02953
2831.96487,0.03007
2829.90526,0.03047
2827.84565,0.03076
2825.78604,0.03093
2823.72643,0.03101
2821.66682,0.03108
2819.60721,0.03112
2817.54760,0.03109
2815.48799,0.03109
2813.42838,0.03116
2811.36876,0.03118
2809.30915,0.03114
2807.24954,0.03114
2805.18993,0.03114
2803.13032,0.03111
2801.07071,0.03110
2799.01110,0.03116
2796.95149,0.03121
2794.89188,0.03113
2792.83227,0.03100
2790.77266,0.03104
2788.71305,0.03120
2786.65344,0.03127
2784.59382,0.03122
2782.53421,0.03117
2780.47460,0.03117
2778.41499,0.03115
2776.35538,0.03109
2774.29577,0.03106
2772.23616,0.03104
2770.17655,0.03097
2768.11694,0.03089
2766.05733,0.03084
2763.99772,0.03075
2761.93811,0.03065
2759.87849,0.03063
2757.81888,0.03070
2755.75927,0.03079
2753.69966,0.03080
2751.64005,0.03065
2749.58044,0.03043
2747.52083,0.03027
2745.46122,0.03022
2743.40161,0.03023
2741.34200,0.03023
2739.28239,0.03015
2737.22278,0.03004
2735.16316,0.03003
2733.10355,0.03014
2731.04394,0.03016
2728.98433,0.03004
2726.92472,0.02994
2724.86511,0.02988
2722.80550,0.02986
2720.74589,0.02981
2718.68628,0.02970
2716.62667,0.02962
2714.56706,0.02971
2712.50745,0.02987
2710.44783,0.02986
2708.38822,0.02968
2706.32861,0.02950
2704.26900,0.02941
2702.20939,0.02940
2700.14978,0.02942
2698.09017,0.02933
2696.03056,0.02923
2693.97095,0.02925
2691.91134,0.02934
2689.85173,0.02940
2687.79212,0.02932
2685.73251,0.02922
2683.67289,0.02916
2681.61328,0.02907
2679.55367,0.02898
2677.49406,0.02893
2675.43445,0.02898
2673.37484,0.02900
2671.31523,0.02890
2669.25562,0.02876
2667.19601,0.02869
2665.13640,0.02862
2663.07679,0.02860
2661.01718,0.02866
2658.95756,0.02867
2656.89795,0.02863
2654.83834,0.02860
2652.77873,0.02854
2650.71912,0.02844
2648.65951,0.02837
2646.59990,0.02841
2644.54029,0.02844
2642.48068,0.02828
2640.42107,0.02811
2638.36146,0.02810
2636.30185,0.02807
2634.24223,0.02790
2632.18262,0.02778
2630.12301,0.02783
2628.06340,0.02791
2626.00379,0.02795
2623.94418,0.02789
2621.88457,0.02772
2619.82496,0.02761
2617.76535,0.02756
2615.70574,0.02746
2613.64613,0.02735
2611.58652,0.02735
2609.52690,0.02747
2607.46729,0.02749
2605.40768,0.02737
2603.34807,0.02727
2601.28846,0.02726
2599.22885,0.02723
2597.16924,0.02717
2595.10963,0.02713
2593.05002,0.02710
2590.99041,0.02711
2588.93080,0.02711
2586.87119,0.02705
2584.81158,0.02694
2582.75196,0.02684
2580.69235,0.02680
2578.63274,0.02679
2576.57313,0.02671
2574.51352,0.02666
2572.45391,0.02666
2570.39430,0.02657
2568.33469,0.02645
2566.27508,0.02643
2564.21547,0.02651
2562.15586,0.02644
2560.09625,0.02616
2558.03663,0.02604
2555.97702,0.02616
2553.91741,0.02627
2551.85780,0.02632
2549.79819,0.02637
2547.73858,0.02642
2545.67897,0.02638
2543.61936,0.02627
2541.55975,0.02623
2539.50014,0.02623
2537.44053,0.02621
2535.38092,0.02616
2533.32130,0.02600
2531.26169,0.02576
2529.20208,0.02555
2527.14247,0.02552
2525.08286,0.02566
2523.02325,0.02582
2520.96364,0.02593
2518.90403,0.02593
2516.84442,0.02595
2514.78481,0.02603
2512.72520,0.02599
2510.66559,0.02588
2508.60597,0.02581
2506.54636,0.02571
2504.48675,0.02563
2502.42714,0.02558
2500.36753,0.02557
2498.30792,0.02567
2496.24831,0.02573
2494.18870,0.02555
2492.12909,0.02532
2490.06948,0.02529
2488.00987,0.02540
2485.95026,0.02554
2483.89065,0.02571
2481.83103,0.02583
2479.77142,0.02583
2477.71181,0.02580
2475.65220,0.02580
2473.59259,0.02567
2471.53298,0.02534
2469.47337,0.02504
2467.41376,0.02507
2465.35415,0.02526
2463.29454,0.02532
2461.23493,0.02515
2459.17532,0.02492
2457.11570,0.02485
2455.05609,0.02499
2452.99648,0.02517
2450.93687,0.02526
2448.87726,0.02522
2446.81765,0.02510
2444.75804,0.02504
2442.69843,0.02505
2440.63882,0.02499
2438.57921,0.02487
2436.51960,0.02480
2434.45999,0.02477
2432.40037,0.02481
2430.34076,0.02485
2428.28115,0.02482
2426.22154,0.02475
2424.16193,0.02468
2422.10232,0.02472
2420.04271,0.02483
2417.98310,0.02481
2415.92349,0.02475
2413.86388,0.02479
2411.80427,0.02485
2409.74466,0.02482
2407.68504,0.02462
2405.62543,0.02438
2403.56582,0.02438
2401.50621,0.02455
2399.44660,0.02431
2397.38699,0.02429
2395.32738,0.02437
2393.26777,0.02439
2391.20816,0.02441
2389.14855,0.02453
2387.08894,0.02481
2385.02933,0.02529
2382.96972,0.02589
2380.91010,0.02637
2378.85049,0.02650
2376.79088,0.02638
2374.73127,0.02524
2372.67166,0.02470
2370.61205,0.02535
2368.55244,0.02542
2366.49283,0.02568
2364.43322,0.02524
2362.37361,0.02490
2360.31400,0.02602
2358.25439,0.02567
2356.19477,0.02592
2354.13516,0.02643
2352.07555,0.02679
2350.01594,0.02815
2347.95633,0.02684
2345.89672,0.02601
2343.83711,0.02724
2341.77750,0.02556
2339.71789,0.02361
2337.65828,0.02256
2335.59867,0.02490
2333.53906,0.02954
2331.47944,0.03091
2329.41983,0.03066
2327.36022,0.02648
2325.30061,0.02391
2323.24100,0.02110
2321.18139,0.02030
2319.12178,0.02093
2317.06217,0.02176
2315.00256,0.02240
2312.94295,0.02296
2310.88334,0.02316
2308.82373,0.02320
2306.76411,0.02357
2304.70450,0.02391
2302.64489,0.02407
2300.58528,0.02413
2298.52567,0.02412
2296.46606,0.02414
2294.40645,0.02421
2292.34684,0.02434
2290.28723,0.02450
2288.22762,0.02439
2286.16801,0.02394
2284.10840,0.02362
2282.04878,0.02347
2279.98917,0.02332
2277.92956,0.02320
2275.86995,0.02300
2273.81034,0.02277
2271.75073,0.02259
2269.69112,0.02250
2267.63151,0.02249
2265.57190,0.02264
2263.51229,0.02294
2261.45268,0.02310
2259.39307,0.02280
2257.33346,0.02241
2255.27384,0.02240
2253.21423,0.02257
2251.15462,0.02268
2249.09501,0.02250
2247.03540,0.02234
2244.97579,0.02211
2242.91618,0.02190
2240.85657,0.02178
2238.79696,0.02199
2236.73735,0.02235
2234.67774,0.02247
2232.61813,0.02222
2230.55851,0.02205
2228.49890,0.02232
2226.43929,0.02241
2224.37968,0.02180
2222.32007,0.02115
2220.26046,0.02101
2218.20085,0.02118
2216.14124,0.02118
2214.08163,0.02102
2212.02202,0.02118
2209.96241,0.02134
2207.90280,0.02110
2205.84318,0.02087
2203.78357,0.02081
2201.72396,0.02077
2199.66435,0.02101
2197.60474,0.02134
2195.54513,0.02137
2193.48552,0.02129
2191.42591,0.02103
2189.36630,0.02065
2187.30669,0.02049
2185.24708,0.02039
2183.18747,0.02019
2181.12785,0.02011
2179.06824,0.02012
2177.00863,0.02020
2174.94902,0.02037
2172.88941,0.02054
2170.82980,0.02048
2168.77019,0.02028
2166.71058,0.02012
2164.65097,0.01976
2162.59136,0.01914
2160.53175,0.01822
2158.47214,0.01732
2156.41253,0.01738
2154.35291,0.01827
2152.29330,0.01886
2150.23369,0.01920
2148.17408,0.01986
2146.11447,0.02016
2144.05486,0.01970
2141.99525,0.01918
2139.93564,0.01936
2137.87603,0.01999
2135.81642,0.02042
2133.75681,0.02061
2131.69720,0.02077
2129.63758,0.02099
2127.57797,0.02109
2125.51836,0.02086
2123.45875,0.02067
2121.39914,0.02097
2119.33953,0.02129
2117.27992,0.02123
2115.22031,0.02114
2113.16070,0.02114
2111.10109,0.02104
2109.04148,0.02095
2106.98187,0.02102
2104.92225,0.02106
2102.86264,0.02095
2100.80303,0.02085
2098.74342,0.02068
2096.68381,0.02056
2094.62420,0.02064
2092.56459,0.02086
2090.50498,0.02082
2088.44537,0.02054
2086.38576,0.02045
2084.32615,0.02058
2082.26654,0.02079
2080.20692,0.02106
2078.14731,0.02104
2076.08770,0.02071
2074.02809,0.02050
2071.96848,0.02024
2069.90887,0.01955
2067.84926,0.01908
2065.78965,0.01945
2063.73004,0.02011
2061.67043,0.02034
2059.61082,0.02011
2057.55121,0.01973
2055.49160,0.01947
2053.43198,0.01962
2051.37237,0.02017
2049.31276,0.02042
2047.25315,0.01979
2045.19354,0.01878
2043.13393,0.01812
2041.07432,0.01780
2039.01471,0.01759
2036.95510,0.01763
2034.89549,0.01795
2032.83588,0.01801
2030.77627,0.01769
2028.71665,0.01738
2026.65704,0.01747
2024.59743,0.01776
2022.53782,0.01797
2020.47821,0.01830
2018.41860,0.01857
2016.35899,0.01836
2014.29938,0.01789
2012.23977,0.01758
2010.18016,0.01766
2008.12055,0.01792
2006.06094,0.01796
2004.00132,0.01800
2001.94171,0.01819
1999.88210,0.01833
1997.82249,0.01833
1995.76288,0.01800
1993.70327,0.01774
1991.64366,0.01802
1989.58405,0.01838
1987.52444,0.01850
1985.46483,0.01856
1983.40522,0.01849
1981.34561,0.01817
1979.28599,0.01742
1977.22638,0.01652
1975.16677,0.01607
1973.10716,0.01613
1971.04755,0.01651
1968.98794,0.01681
1966.92833,0.01686
1964.86872,0.01709
1962.80911,0.01737
1960.74950,0.01732
1958.68989,0.01730
1956.63028,0.01748
1954.57067,0.01754
1952.51105,0.01740
1950.45144,0.01720
1948.39183,0.01715
1946.33222,0.01724
1944.27261,0.01739
1942.21300,0.01775
1940.15339,0.01830
1938.09378,0.01865
1936.03417,0.01866
1933.97456,0.01837
1931.91495,0.01793
1929.85534,0.01775
1927.79572,0.01780
1925.73611,0.01775
1923.67650,0.01778
1921.61689,0.01799
1919.55728,0.01807
1917.49767,0.01807
1915.43806,0.01801
1913.37845,0.01782
1911.31884,0.01768
1909.25923,0.01779
1907.19962,0.01804
1905.14001,0.01815
1903.08039,0.01812
1901.02078,0.01815
1898.96117,0.01811
1896.90156,0.01787
1894.84195,0.01761
1892.78234,0.01752
1890.72273,0.01757
1888.66312,0.01761
1886.60351,0.01763
1884.54390,0.01758
1882.48429,0.01746
1880.42468,0.01746
1878.36506,0.01759
1876.30545,0.01768
1874.24584,0.01767
1872.18623,0.01760
1870.12662,0.01749
1868.06701,0.01736
1866.00740,0.01728
1863.94779,0.01727
1861.88818,0.01728
1859.82857,0.01719
1857.76896,0.01693
1855.70935,0.01672
1853.64974,0.01673
1851.59012,0.01691
1849.53051,0.01709
1847.47090,0.01721
1845.41129,0.01720
1843.35168,0.01706
1841.29207,0.01685
1839.23246,0.01667
1837.17285,0.01653
1835.11324,0.01642
1833.05363,0.01634
1830.99402,0.01629
1828.93441,0.01632
1826.87479,0.01642
1824.81518,0.01646
1822.75557,0.01629
1820.69596,0.01596
1818.63635,0.01566
1816.57674,0.01550
1814.51713,0.01554
1812.45752,0.01572
1810.39791,0.01590
1808.33830,0.01593
1806.27869,0.01584
1804.21908,0.01585
1802.15946,0.01597
1800.09985,0.01597
1798.04024,0.01581
1795.98063,0.01561
1793.92102,0.01545
1791.86141,0.01534
1789.80180,0.01531
1787.74219,0.01534
1785.68258,0.01537
1783.62297,0.01527
1781.56336,0.01503
1779.50375,0.01485
1777.44413,0.01478
1775.38452,0.01472
1773.32491,0.01462
1771.26530,0.01453
1769.20569,0.01451
1767.14608,0.01447
1765.08647,0.01439
1763.02686,0.01434
1760.96725,0.01434
1758.90764,0.01427
1756.84803,0.01416
1754.78842,0.01412
1752.72881,0.01407
1750.66919,0.01398
1748.60958,0.01395
1746.54997,0.01397
1744.49036,0.01389
1742.43075,0.01370
1740.37114,0.01357
1738.31153,0.01356
1736.25192,0.01362
1734.19231,0.01370
1732.13270,0.01377
1730.07309,0.01379
1728.01348,0.01378
1725.95386,0.01372
1723.89425,0.01362
1721.83464,0.01355
1719.77503,0.01363
1717.71542,0.01398
1715.65581,0.01442
1713.59620,0.01466
1711.53659,0.01490
1709.47698,0.01541
1707.41737,0.01630
1705.35776,0.01758
1703.29815,0.01910
1701.23853,0.02121
1699.17892,0.02417
1697.11931,0.02710
1695.05970,0.02954
1693.00009,0.03148
1690.94048,0.03320
1688.88087,0.03501
1686.82126,0.03692
1684.76165,0.03947
1682.70204,0.04259
1680.64243,0.04512
1678.58282,0.04715
1676.52320,0.04934
1674.46359,0.05200
1672.40398,0.05476
1670.34437,0.05770
1668.28476,0.06087
1666.22515,0.06361
1664.16554,0.06632
1662.10593,0.06960
1660.04632,0.07279
1657.98671,0.07525
1655.92710,0.07734
1653.86749,0.07990
1651.80788,0.08263
1649.74826,0.08420
1647.68865,0.08519
1645.62904,0.08619
1643.56943,0.08691
1641.50982,0.08723
1639.45021,0.08729
1637.39060,0.08722
1635.33099,0.08705
1633.27138,0.08681
1631.21177,0.08656
1629.15216,0.08643
1627.09255,0.08653
1625.03293,0.08693
1622.97332,0.08754
1620.91371,0.08806
1618.85410,0.08828
1616.79449,0.08819
1614.73488,0.08769
1612.67527,0.08656
1610.61566,0.08471
1608.55605,0.08227
1606.49644,0.07955
1604.43683,0.07672
1602.37722,0.07385
1600.31760,0.07116
1598.25799,0.06871
1596.19838,0.06630
1594.13877,0.06382
1592.07916,0.06140
1590.01955,0.05915
1587.95994,0.05702
1585.90033,0.05490
1583.84072,0.05263
1581.78111,0.05025
1579.72150,0.04809
1577.66189,0.04666
1575.60227,0.04639
1573.54266,0.04709
1571.48305,0.04829
1569.42344,0.05009
1567.36383,0.05219
1565.30422,0.05403
1563.24461,0.05540
1561.18500,0.05676
1559.12539,0.05933
1557.06578,0.06271
1555.00617,0.06519
1552.94656,0.06709
1550.88695,0.06880
1548.82733,0.07019
1546.76772,0.07106
1544.70811,0.07135
1542.64850,0.07134
1540.58889,0.07210
1538.52928,0.07426
1536.46967,0.07670
1534.41006,0.07930
1532.35045,0.08207
1530.29084,0.08413
1528.23123,0.08547
1526.17162,0.08653
1524.11200,0.08744
1522.05239,0.08848
1519.99278,0.08986
1517.93317,0.09126
1515.87356,0.09228
1513.81395,0.09262
1511.75434,0.09241
1509.69473,0.09182
1507.63512,0.09036
1505.57551,0.08799
1503.51590,0.08597
1501.45629,0.08428
1499.39667,0.08226
1497.33706,0.07968
1495.27745,0.07694
1493.21784,0.07455
1491.15823,0.07218
1489.09862,0.06938
1487.03901,0.06653
1484.97940,0.06401
1482.91979,0.06173
1480.86018,0.05957
1478.80057,0.05750
1476.74096,0.05519
1474.68134,0.05260
1472.62173,0.05105
1470.56212,0.05131
1468.50251,0.05185
1466.44290,0.05144
1464.38329,0.05068
1462.32368,0.05106
1460.26407,0.05293
1458.20446,0.05566
1456.14485,0.05826
1454.08524,0.05980
1452.02563,0.06059
1449.96602,0.06098
1447.90640,0.06102
1445.84679,0.06069
1443.78718,0.06005
1441.72757,0.05924
1439.66796,0.05839
1437.60835,0.05748
1435.54874,0.05651
1433.48913,0.05564
1431.42952,0.05491
1429.36991,0.05430
1427.31030,0.05390
1425.25069,0.05371
1423.19107,0.05372
1421.13146,0.05393
1419.07185,0.05443
1417.01224,0.05508
1414.95263,0.05560
1412.89302,0.05602
1410.83341,0.05647
1408.77380,0.05699
1406.71419,0.05749
1404.65458,0.05786
1402.59497,0.05807
1400.53536,0.05829
1398.47574,0.05865
1396.41613,0.05900
1394.35652,0.05916
1392.29691,0.05922
1390.23730,0.05939
1388.17769,0.05965
1386.11808,0.05971
1384.05847,0.05945
1381.99886,0.05904
1379.93925,0.05865
1377.87964,0.05834
1375.82003,0.05812
1373.76041,0.05791
1371.70080,0.05765
1369.64119,0.05734
1367.58158,0.05695
1365.52197,0.05646
1363.46236,0.05589
1361.40275,0.05525
1359.34314,0.05467
1357.28353,0.05421
1355.22392,0.05389
1353.16431,0.05370
1351.10470,0.05361
1349.04508,0.05359
1346.98547,0.05361
1344.92586,0.05364
1342.86625,0.05377
1340.80664,0.05406
1338.74703,0.05429
1336.68742,0.05419
1334.62781,0.05386
1332.56820,0.05355
1330.50859,0.05331
1328.44898,0.05312
1326.38937,0.05299
1324.32976,0.05292
1322.27014,0.05293
1320.21053,0.05301
1318.15092,0.05312
1316.09131,0.05324
1314.03170,0.05336
1311.97209,0.05344
1309.91248,0.05350
1307.85287,0.05362
1305.79326,0.05377
1303.73365,0.05384
1301.67404,0.05376
1299.61443,0.05360
1297.55481,0.05347
1295.49520,0.05339
1293.43559,0.05328
1291.37598,0.05314
1289.31637,0.05304
1287.25676,0.05299
1285.19715,0.05292
1283.13754,0.05285
1281.07793,0.05281
1279.01832,0.05279
1276.95871,0.05277
1274.89910,0.05278
1272.83948,0.05282
1270.77987,0.05287
1268.72026,0.05302
1266.66065,0.05331
1264.60104,0.05363
1262.54143,0.05391
1260.48182,0.05420
1258.42221,0.05459
1256.36260,0.05513
1254.30299,0.05579
1252.24338,0.05644
1250.18377,0.05702
1248.12415,0.05760
1246.06454,0.05814
1244.00493,0.05860
1241.94532,0.05901
1239.88571,0.05940
1237.82610,0.05972
1235.76649,0.05996
1233.70688,0.06005
1231.64727,0.05998
1229.58766,0.05976
1227.52805,0.05940
1225.46844,0.05898
1223.40883,0.05856
1221.34921,0.05820
1219.28960,0.05782
1217.22999,0.05731
1215.17038,0.05673
1213.11077,0.05616
1211.05116,0.05555
1208.99155,0.05492
1206.93194,0.05432
1204.87233,0.05373
1202.81272,0.05309
1200.75311,0.05240
1198.69350,0.05170
1196.63388,0.05101
1194.57427,0.05035
1192.51466,0.04979
1190.45505,0.04938
1188.39544,0.04907
1186.33583,0.04870
1184.27622,0.04834
1182.21661,0.04818
1180.15700,0.04813
1178.09739,0.04821
1176.03778,0.04858
1173.97817,0.04918
1171.91855,0.04980
1169.85894,0.05033
1167.79933,0.05081
1165.73972,0.05120
1163.68011,0.05140
1161.62050,0.05137
1159.56089,0.05118
1157.50128,0.05090
1155.44167,0.05054
1153.38206,0.05009
1151.32245,0.04959
1149.26284,0.04908
1147.20322,0.04862
1145.14361,0.04826
1143.08400,0.04801
1141.02439,0.04774
1138.96478,0.04742
1136.90517,0.04720
1134.84556,0.04708
1132.78595,0.04691
1130.72634,0.04667
1128.66673,0.04646
1126.60712,0.04638
1124.54751,0.04636
1122.48790,0.04632
1120.42828,0.04616
1118.36867,0.04591
1116.30906,0.04560
1114.24945,0.04534
1112.18984,0.04527
1110.13023,0.04535
1108.07062,0.04544
1106.01101,0.04548
1103.95140,0.04554
1101.89179,0.04563
1099.83218,0.04575
1097.77257,0.04589
1095.71295,0.04603
1093.65334,0.04615
1091.59373,0.04644
1089.53412,0.04705
1087.47451,0.04779
1085.41490,0.04851
1083.35529,0.04932
1081.29568,0.05021
1079.23607,0.05105
1077.17646,0.05167
1075.11685,0.05210
1073.05724,0.05257
1070.99762,0.05317
1068.93801,0.05366
1066.87840,0.05395
1064.81879,0.05416
1062.75918,0.05432
1060.69957,0.05442
1058.63996,0.05450
1056.58035,0.05460
1054.52074,0.05459
1052.46113,0.05443
1050.40152,0.05428
1048.34191,0.05412
1046.28229,0.05389
1044.22268,0.05348
1042.16307,0.05281
1040.10346,0.05194
1038.04385,0.05107
1035.98424,0.05038
1033.92463,0.04991
1031.86502,0.04963
1029.80541,0.04924
1027.74580,0.04858
1025.68619,0.04785
1023.62658,0.04719
1021.56697,0.04658
1019.50735,0.04605
1017.44774,0.04555
1015.38813,0.04497
1013.32852,0.04436
1011.26891,0.04383
1009.20930,0.04334
1007.14969,0.04283
1005.09008,0.04234
1003.03047,0.04191
1000.97086,0.04148
998.91125,0.04105
996.85164,0.04070
994.79202,0.04045
992.73241,0.04021
990.67280,0.03999
988.61319,0.03979
986.55358,0.03957
984.49397,0.03936
982.43436,0.03922
980.37475,0.03904
978.31514,0.03892
976.25553,0.03890
974.19592,0.03887
972.13631,0.03887
970.07669,0.03905
968.01708,0.03922
965.95747,0.03929
963.89786,0.03937
961.83825,0.03943
959.77864,0.03939
957.71903,0.03917
955.65942,0.03883
953.59981,0.03860
951.54020,0.03862
949.48059,0.03872
947.42098,0.03862
945.36136,0.03832
943.30175,0.03803
941.24214,0.03786
939.18253,0.03777
937.12292,0.03773
935.06331,0.03782
933.00370,0.03791
930.94409,0.03786
928.88448,0.03776
926.82487,0.03757
924.76526,0.03727
922.70565,0.03709
920.64604,0.03709
918.58642,0.03700
916.52681,0.03682
914.46720,0.03661
912.40759,0.03641
910.34798,0.03635
908.28837,0.03643
906.22876,0.03652
904.16915,0.03659
902.10954,0.03670
900.04993,0.03690
897.99032,0.03704
895.93071,0.03699
893.87109,0.03680
891.81148,0.03663
889.75187,0.03655
887.69226,0.03645
885.63265,0.03629
883.57304,0.03612
881.51343,0.03600
879.45382,0.03603
877.39421,0.03613
875.33460,0.03609
873.27499,0.03589
871.21538,0.03575
869.15576,0.03569
867.09615,0.03556
865.03654,0.03531
862.97693,0.03499
860.91732,0.03474
858.85771,0.03468
856.79810,0.03473
854.73849,0.03478
852.67888,0.03484
850.61927,0.03493
848.55966,0.03500
846.50005,0.03512
844.44043,0.03529
842.38082,0.03531
840.32121,0.03516
838.26160,0.03505
836.20199,0.03519
834.14238,0.03556
832.08277,0.03595
830.02316,0.03626
827.96355,0.03652
825.90394,0.03666
823.84433,0.03665
821.78472,0.03653
819.72511,0.03636
817.66549,0.03630
815.60588,0.03652
813.54627,0.03700
811.48666,0.03746
809.42705,0.03765
807.36744,0.03763
805.30783,0.03774
803.24822,0.03814
801.18861,0.03855
799.12900,0.03872
797.06939,0.03878
795.00978,0.03890
792.95016,0.03907
790.89055,0.03931
788.83094,0.03965
786.77133,0.04002
784.71172,0.04046
782.65211,0.04095
780.59250,0.04149
778.53289,0.04211
776.47328,0.04263
774.41367,0.04291
772.35406,0.04325
770.29445,0.04379
768.23483,0.04436
766.17522,0.04492
764.11561,0.04547
762.05600,0.04597
759.99639,0.04635
757.93678,0.04658
755.87717,0.04687
753.81756,0.04735
751.75795,0.04792
749.69834,0.04832
747.63873,0.04837
745.57912,0.04826
743.51950,0.04822
741.45989,0.04817
739.40028,0.04810
737.34067,0.04798
735.28106,0.04779
733.22145,0.04749
731.16184,0.04705
729.10223,0.04700
727.04262,0.04774
724.98301,0.04869
722.92340,0.04897
720.86379,0.04879
718.80418,0.05011
716.74456,0.05199
714.68495,0.05413
712.62534,0.05581
710.56573,0.05718
708.50612,0.05853
706.44651,0.05984
704.38690,0.06125
702.32729,0.06260
700.26768,0.06361
698.20807,0.06433
696.14846,0.06488
694.08885,0.06527
692.02923,0.06573
689.96962,0.06630
687.91001,0.06656
685.85040,0.06642
683.79079,0.06655
681.73118,0.06712
679.67157,0.06761
677.61196,0.06792
675.55235,0.06825
673.49274,0.06828
671.43313,0.07131
669.37352,0.07758
667.31390,0.06407
665.25429,0.06929
663.19468,0.07106
661.13507,0.07130
659.07546,0.07180
657.01585,0.07186
654.95624,0.07157
652.89663,0.07171
650.83702,0.07234
648.77741,0.07256
646.71780,0.07284
644.65819,0.07317
642.59857,0.07377
640.53896,0.07430
638.47935,0.07460
636.41974,0.07496
634.36013,0.07538
632.30052,0.07579
630.24091,0.07623
628.18130,0.07654
626.12169,0.07674
624.06208,0.07716
622.00247,0.07755
619.94286,0.07773
617.88325,0.07796
615.82363,0.07821
613.76402,0.07836
611.70441,0.07827
609.64480,0.07802
607.58519,0.07808
605.52558,0.07833
603.46597,0.07837
601.40636,0.07844
599.34675,0.07877
597.28714,0.07898
595.22753,0.07883
593.16792,0.07873
591.10830,0.07897
589.04869,0.07923
586.98908,0.07918
584.92947,0.07903
582.86986,0.07910
580.81025,0.07937
578.75064,0.07975
576.69103,0.08012
574.63142,0.08030
572.57181,0.08034
570.51220,0.08049
568.45259,0.08078
566.39297,0.08106
564.33336,0.08145
562.27375,0.08220
560.21414,0.08289
558.15453,0.08307
556.09492,0.08296
554.03531,0.08296
551.97570,0.08315
549.91609,0.08337
547.85648,0.08348
545.79687,0.08360
543.73726,0.08391
541.67764,0.08421
539.61803,0.08439
537.55842,0.08468
535.49881,0.08487
533.43920,0.08476
531.37959,0.08481
529.31998,0.08547
527.26037,0.08618
525.20076,0.08629
523.14115,0.08626
521.08154,0.08665
519.02193,0.08740
516.96232,0.08808
514.90270,0.08823
512.84309,0.08775
510.78348,0.08712
508.72387,0.08677
506.66426,0.08650
504.60465,0.08619
502.54504,0.08605
500.48543,0.08577
498.42582,0.08500
496.36621,0.08435
494.30660,0.08428
492.24699,0.08463
490.18737,0.08480
488.12776,0.08431
486.06815,0.08373
484.00854,0.08380
481.94893,0.08406
479.88932,0.08393
477.82971,0.08379
475.77010,0.08390
473.71049,0.08398
471.65088,0.08419
469.59127,0.08458
467.53166,0.08456
465.47204,0.08422
463.41243,0.08408
461.35282,0.08399
459.29321,0.08359
457.23360,0.08306
455.17399,0.08299
453.11438,0.08347
451.05477,0.08378
448.99516,0.08322
446.93555,0.08215
444.87594,0.08132
442.81633,0.08089
440.75671,0.08056
438.69710,0.08026
436.63749,0.08010
434.57788,0.08006
432.51827,0.07999
430.45866,0.07941
428.39905,0.07816
426.33944,0.07721
424.27983,0.07757
422.22022,0.07852
420.16061,0.07894
418.10100,0.07887
416.04138,0.07815
413.98177,0.07703
411.92216,0.07664
409.86255,0.07714
407.80294,0.07715
405.74333,0.07605
403.68372,0.07503
401.62411,0.07576
399.56450,0.07832
