3997.70460,0.01943
3995.64498,0.01934
3993.58537,0.01938
3991.52576,0.01951
3989.46615,0.01951
3987.40654,0.01933
3985.34693,0.01923
3983.28732,0.01937
3981.22771,0.01953
3979.16810,0.01946
3977.10849,0.01937
3975.04888,0.01932
3972.98927,0.01925
3970.92965,0.01918
3968.87004,0.01907
3966.81043,0.01892
3964.75082,0.01903
3962.69121,0.01934
3960.63160,0.01932
3958.57199,0.01913
3956.51238,0.01914
3954.45277,0.01924
3952.39316,0.01939
3950.33355,0.01965
3948.27394,0.01972
3946.21432,0.01952
3944.15471,0.01964
3942.09510,0.01964
3940.03549,0.01922
3937.97588,0.01899
3935.91627,0.01897
3933.85666,0.01929
3931.79705,0.01955
3929.73744,0.01929
3927.67783,0.01909
3925.61822,0.01935
3923.55861,0.01924
3921.49900,0.01908
3919.43938,0.01949
3917.37977,0.01986
3915.32016,0.01969
3913.26055,0.01942
3911.20094,0.01919
3909.14133,0.01879
3907.08172,0.01890
3905.02211,0.01950
3902.96250,0.01951
3900.90289,0.01939
3898.84328,0.01927
3896.78367,0.01854
3894.72405,0.01850
3892.66444,0.01939
3890.60483,0.01928
3888.54522,0.01872
3886.48561,0.01944
3884.42600,0.01950
3882.36639,0.01941
3880.30678,0.01962
3878.24717,0.01874
3876.18756,0.01865
3874.12795,0.01909
3872.06834,0.01917
3870.00872,0.01933
3867.94911,0.01866
3865.88950,0.01906
3863.82989,0.01977
3861.77028,0.01913
3859.71067,0.01804
3857.65106,0.01764
3855.59145,0.01909
3853.53184,0.02080
3851.47223,0.01963
3849.41262,0.01838
3847.35301,0.01840
3845.29339,0.01894
3843.23378,0.01919
3841.17417,0.01929
3839.11456,0.01986
3837.05495,0.01979
3834.99534,0.01910
3832.93573,0.01895
3830.87612,0.01882
3828.81651,0.01875
3826.75690,0.01880
3824.69729,0.01848
3822.63768,0.01911
3820.57807,0.01902
3818.51845,0.01806
3816.45884,0.01877
3814.39923,0.01861
3812.33962,0.01785
3810.28001,0.01799
3808.22040,0.01866
3806.16079,0.01826
3804.10118,0.01784
3802.04157,0.01897
3799.98196,0.01868
3797.92235,0.01839
3795.86274,0.01883
3793.80312,0.01865
3791.74351,0.01851
3789.68390,0.01844
3787.62429,0.01848
3785.56468,0.01863
3783.50507,0.01833
3781.44546,0.01833
3779.38585,0.01872
3777.32624,0.01828
3775.26663,0.01779
3773.20702,0.01789
3771.14741,0.01849
3769.08779,0.01861
3767.02818,0.01844
3764.96857,0.01834
3762.90896,0.01801
3760.84935,0.01845
3758.78974,0.01867
3756.73013,0.01796
3754.67052,0.01775
3752.61091,0.01866
3750.55130,0.01865
3748.49169,0.01695
3746.43208,0.01734
3744.37246,0.01896
3742.31285,0.01794
3740.25324,0.01716
3738.19363,0.01809
3736.13402,0.01939
3734.07441,0.01942
3732.01480,0.01848
3729.95519,0.01769
3727.89558,0.01812
3725.83597,0.01883
3723.77636,0.01891
3721.71675,0.01877
3719.65714,0.01838
3717.59752,0.01779
3715.53791,0.01759
3713.47830,0.01860
3711.41869,0.01948
3709.35908,0.01870
3707.29947,0.01753
3705.23986,0.01724
3703.18025,0.01781
3701.12064,0.01801
3699.06103,0.01760
3697.00142,0.01742
3694.94181,0.01715
3692.88219,0.01731
3690.82258,0.01838
3688.76297,0.01896
3686.70336,0.01798
3684.64375,0.01722
3682.58414,0.01715
3680.52453,0.01700
3678.46492,0.01733
3676.40531,0.01849
3674.34570,0.01759
3672.28609,0.01652
3670.22648,0.01760
3668.16686,0.01737
3666.10725,0.01673
3664.04764,0.01696
3661.98803,0.01714
3659.92842,0.01722
3657.86881,0.01789
3655.80920,0.01791
3653.74959,0.01691
3651.68998,0.01760
3649.63037,0.01906
3647.57076,0.01878
3645.51115,0.01765
3643.45153,0.01742
3641.39192,0.01780
3639.33231,0.01792
3637.27270,0.01777
3635.21309,0.01750
3633.15348,0.01717
3631.09387,0.01796
3629.03426,0.01941
3626.97465,0.01842
3624.91504,0.01709
3622.85543,0.01717
3620.79582,0.01810
3618.73621,0.01843
3616.67659,0.01796
3614.61698,0.01832
3612.55737,0.01883
3610.49776,0.01897
3608.43815,0.01921
3606.37854,0.01864
3604.31893,0.01798
3602.25932,0.01816
3600.19971,0.01846
3598.14010,0.01850
3596.08049,0.01875
3594.02088,0.01883
3591.96126,0.01857
3589.90165,0.01919
3587.84204,0.02017
3585.78243,0.01952
3583.72282,0.01852
3581.66321,0.01854
3579.60360,0.01895
3577.54399,0.01925
3575.48438,0.01939
3573.42477,0.01923
3571.36516,0.01902
3569.30555,0.01962
3567.24593,0.02047
3565.18632,0.02014
3563.12671,0.01971
3561.06710,0.02001
3559.00749,0.02026
3556.94788,0.02025
3554.88827,0.02047
3552.82866,0.02073
3550.76905,0.02045
3548.70944,0.02031
3546.64983,0.02074
3544.59022,0.02090
3542.53060,0.02077
3540.47099,0.02083
3538.41138,0.02110
3536.35177,0.02117
3534.29216,0.02094
3532.23255,0.02097
3530.17294,0.02139
3528.11333,0.02181
3526.05372,0.02203
3523.99411,0.02218
3521.93450,0.02204
3519.87489,0.02183
3517.81528,0.02185
3515.75566,0.02192
3513.69605,0.02203
3511.63644,0.02227
3509.57683,0.02245
3507.51722,0.02237
3505.45761,0.02258
3503.39800,0.02293
3501.33839,0.02282
3499.27878,0.02288
3497.21917,0.02336
3495.15956,0.02360
3493.09995,0.02346
3491.04033,0.02327
3488.98072,0.02324
3486.92111,0.02331
3484.86150,0.02354
3482.80189,0.02401
3480.74228,0.02418
3478.68267,0.02404
3476.62306,0.02419
3474.56345,0.02445
3472.50384,0.02460
3470.44423,0.02475
3468.38462,0.02479
3466.32500,0.02467
3464.26539,0.02476
3462.20578,0.02507
3460.14617,0.02518
3458.08656,0.02521
3456.02695,0.02524
3453.96734,0.02519
3451.90773,0.02520
3449.84812,0.02552
3447.78851,0.02610
3445.72890,0.02623
3443.66929,0.02612
3441.60967,0.02604
3439.55006,0.02583
3437.49045,0.02580
3435.43084,0.02602
3433.37123,0.02638
3431.31162,0.02672
3429.25201,0.02699
3427.19240,0.02718
3425.13279,0.02718
3423.07318,0.02716
3421.01357,0.02729
3418.95396,0.02734
3416.89435,0.02741
3414.83473,0.02751
3412.77512,0.02754
3410.71551,0.02756
3408.65590,0.02769
3406.59629,0.02791
3404.53668,0.02811
3402.47707,0.02821
3400.41746,0.02824
3398.35785,0.02830
3396.29824,0.02820
3394.23863,0.02827
3392.17902,0.02854
3390.11940,0.02872
3388.05979,0.02890
3386.00018,0.02910
3383.94057,0.02911
3381.88096,0.02902
3379.82135,0.02903
3377.76174,0.02916
3375.70213,0.02936
3373.64252,0.02963
3371.58291,0.02986
3369.52330,0.03000
3367.46369,0.03018
3365.40407,0.03038
3363.34446,0.03054
3361.28485,0.03066
3359.22524,0.03075
3357.16563,0.03097
3355.10602,0.03115
3353.04641,0.03116
3350.98680,0.03129
3348.92719,0.03162
3346.86758,0.03198
3344.80797,0.03233
3342.74836,0.03263
3340.68874,0.03285
3338.62913,0.03310
3336.56952,0.03344
3334.50991,0.03387
3332.45030,0.03432
3330.39069,0.03465
3328.33108,0.03485
3326.27147,0.03502
3324.21186,0.03527
3322.15225,0.03564
3320.09264,0.03601
3318.03303,0.03635
3315.97342,0.03685
3313.91380,0.03746
3311.85419,0.03798
3309.79458,0.03850
3307.73497,0.03904
3305.67536,0.03951
3303.61575,0.04000
3301.55614,0.04056
3299.49653,0.04119
3297.43692,0.04176
3295.37731,0.04228
3293.31770,0.04296
3291.25809,0.04370
3289.19847,0.04425
3287.13886,0.04465
3285.07925,0.04510
3283.01964,0.04563
3280.96003,0.04610
3278.90042,0.04647
3276.84081,0.04685
3274.78120,0.04724
3272.72159,0.04752
3270.66198,0.04762
3268.60237,0.04763
3266.54276,0.04761
3264.48314,0.04760
3262.42353,0.04743
3260.36392,0.04713
3258.30431,0.04696
3256.24470,0.04686
3254.18509,0.04663
3252.12548,0.04626
3250.06587,0.04589
3248.00626,0.04563
3245.94665,0.04557
3243.88704,0.04540
3241.82743,0.04493
3239.76781,0.04448
3237.70820,0.04431
3235.64859,0.04421
3233.58898,0.04395
3231.52937,0.04361
3229.46976,0.04338
3227.41015,0.04323
3225.35054,0.04303
3223.29093,0.04286
3221.23132,0.04270
3219.17171,0.04241
3217.11210,0.04203
3215.05248,0.04172
3212.99287,0.04155
3210.93326,0.04161
3208.87365,0.04173
3206.81404,0.04162
3204.75443,0.04141
3202.69482,0.04121
3200.63521,0.04101
3198.57560,0.04077
3196.51599,0.04047
3194.45638,0.04028
3192.39677,0.04026
3190.33716,0.04013
3188.27754,0.03995
3186.21793,0.03983
3184.15832,0.03967
3182.09871,0.03945
3180.03910,0.03927
3177.97949,0.03908
3175.91988,0.03880
3173.86027,0.03860
3171.80066,0.03855
3169.74105,0.03851
3167.68144,0.03841
3165.62183,0.03816
3163.56221,0.03772
3161.50260,0.03724
3159.44299,0.03689
3157.38338,0.03674
3155.32377,0.03679
3153.26416,0.03678
3151.20455,0.03653
3149.14494,0.03623
3147.08533,0.03606
3145.02572,0.03596
3142.96611,0.03583
3140.90650,0.03567
3138.84688,0.03542
3136.78727,0.03505
3134.72766,0.03474
3132.66805,0.03458
3130.60844,0.03445
3128.54883,0.03430
3126.48922,0.03420
3124.42961,0.03423
3122.37000,0.03430
3120.31039,0.03427
3118.25078,0.03417
3116.19117,0.03403
3114.13155,0.03389
3112.07194,0.03383
3110.01233,0.03384
3107.95272,0.03377
3105.89311,0.03366
3103.83350,0.03362
3101.77389,0.03360
3099.71428,0.03344
3097.65467,0.03334
3095.59506,0.03340
3093.53545,0.03344
3091.47584,0.03348
3089.41623,0.03348
3087.35661,0.03339
3085.29700,0.03331
3083.23739,0.03339
3081.17778,0.03354
3079.11817,0.03363
3077.05856,0.03366
3074.99895,0.03368
3072.93934,0.03372
3070.87973,0.03378
3068.82012,0.03386
3066.76051,0.03394
3064.70090,0.03394
3062.64128,0.03386
3060.58167,0.03371
3058.52206,0.03360
3056.46245,0.03364
3054.40284,0.03366
3052.34323,0.03353
3050.28362,0.03326
3048.22401,0.03300
3046.16440,0.03283
3044.10479,0.03276
3042.04518,0.03273
3039.98557,0.03265
3037.92595,0.03253
3035.86634,0.03237
3033.80673,0.03226
3031.74712,0.03217
3029.68751,0.03199
3027.62790,0.03179
3025.56829,0.03162
3023.50868,0.03142
3021.44907,0.03123
3019.38946,0.03103
3017.32985,0.03082
3015.27024,0.03068
3013.21062,0.03065
3011.15101,0.03063
3009.09140,0.03050
3007.03179,0.03029
3004.97218,0.03012
3002.91257,0.03005
3000.85296,0.03007
2998.79335,0.03010
2996.73374,0.03006
2994.67413,0.02997
2992.61452,0.02993
2990.55491,0.02994
2988.49530,0.02996
2986.43568,0.03001
2984.37607,0.03013
2982.31646,0.03026
2980.25685,0.03033
2978.19724,0.03037
2976.13763,0.03035
2974.07802,0.03024
2972.01841,0.03000
2969.95880,0.02971
2967.89919,0.02937
2965.83958,0.02885
2963.77997,0.02801
2961.72035,0.02689
2959.66074,0.02573
2957.60113,0.02479
2955.54152,0.02443
2953.48191,0.02486
2951.42230,0.02575
2949.36269,0.02664
2947.30308,0.02718
2945.24347,0.02719
2943.18386,0.02686
2941.12425,0.02632
2939.06464,0.02548
2937.00502,0.02419
2934.94541,0.02246
2932.88580,0.02029
2930.82619,0.01741
2928.76658,0.01345
2926.70697,0.00800
2924.64736,0.00066
2922.58775,-0.00892
2920.52814,-0.02060
2918.46853,-0.03223
2916.40892,-0.03772
2914.34931,-0.03124
2912.28969,-0.01637
2910.23008,-0.00256
2908.17047,0.00608
2906.11086,0.01089
2904.05125,0.01362
2901.99164,0.01529
2899.93203,0.01654
2897.87242,0.01763
2895.81281,0.01855
2893.75320,0.01937
2891.69359,0.02014
2889.63398,0.02085
2887.57437,0.02160
2885.51475,0.02259
2883.45514,0.02366
2881.39553,0.02453
2879.33592,0.02517
2877.27631,0.02555
2875.21670,0.02567
2873.15709,0.02575
2871.09748,0.02590
2869.03787,0.02592
2866.97826,0.02559
2864.91865,0.02489
2862.85904,0.02374
2860.79942,0.02198
2858.73981,0.01940
2856.68020,0.01556
2854.62059,0.00918
2852.56098,-0.00127
2850.50137,-0.01329
2848.44176,-0.01743
2846.38215,-0.00835
2844.32254,0.00582
2842.26293,0.01592
2840.20332,0.02110
2838.14371,0.02372
2836.08409,0.02517
2834.02448,0.02600
2831.96487,0.02656
2829.90526,0.02701
2827.84565,0.02733
2825.78604,0.02751
2823.72643,0.02760
2821.66682,0.02767
2819.60721,0.02771
2817.54760,0.02775
2815.48799,0.02783
2813.42838,0.02797
2811.36876,0.02808
2809.30915,0.02805
2807.24954,0.02797
2805.18993,0.02794
2803.13032,0.02796
2801.07071,0.02802
2799.01110,0.02805
2796.95149,0.02803
2794.89188,0.02793
2792.83227,0.02781
2790.77266,0.02785
2788.71305,0.02801
2786.65344,0.02813
2784.59382,0.02812
2782.53421,0.02806
2780.47460,0.02801
2778.41499,0.02800
2776.35538,0.02803
2774.29577,0.02808
2772.23616,0.02804
2770.17655,0.02793
2768.11694,0.02784
2766.05733,0.02782
2763.99772,0.02783
2761.93811,0.02782
2759.87849,0.02780
2757.81888,0.02781
2755.75927,0.02782
2753.69966,0.02781
2751.64005,0.02774
2749.58044,0.02762
2747.52083,0.02748
2745.46122,0.02738
2743.40161,0.02735
2741.34200,0.02739
2739.28239,0.02743
2737.22278,0.02739
2735.16316,0.02736
2733.10355,0.02738
2731.04394,0.02735
2728.98433,0.02729
2726.92472,0.02728
2724.86511,0.02723
2722.80550,0.02710
2720.74589,0.02700
2718.68628,0.02692
2716.62667,0.02681
2714.56706,0.02680
2712.50745,0.02687
2710.44783,0.02693
2708.38822,0.02697
2706.32861,0.02696
2704.26900,0.02687
2702.20939,0.02675
2700.14978,0.02666
2698.09017,0.02660
2696.03056,0.02658
2693.97095,0.02662
2691.91134,0.02675
2689.85173,0.02683
2687.79212,0.02677
2685.73251,0.02673
2683.67289,0.02670
2681.61328,0.02655
2679.55367,0.02636
2677.49406,0.02632
2675.43445,0.02641
2673.37484,0.02648
2671.31523,0.02645
2669.25562,0.02635
2667.19601,0.02626
2665.13640,0.02622
2663.07679,0.02622
2661.01718,0.02622
2658.95756,0.02622
2656.89795,0.02621
2654.83834,0.02615
2652.77873,0.02611
2650.71912,0.02611
2648.65951,0.02608
2646.59990,0.02602
2644.54029,0.02600
2642.48068,0.02593
2640.42107,0.02581
2638.36146,0.02578
2636.30185,0.02577
2634.24223,0.02567
2632.18262,0.02563
2630.12301,0.02569
2628.06340,0.02568
2626.00379,0.02557
2623.94418,0.02541
2621.88457,0.02527
2619.82496,0.02525
2617.76535,0.02529
2615.70574,0.02534
2613.64613,0.02529
2611.58652,0.02525
2609.52690,0.02531
2607.46729,0.02529
2605.40768,0.02521
2603.34807,0.02518
2601.28846,0.02511
2599.22885,0.02505
2597.16924,0.02511
2595.10963,0.02521
2593.05002,0.02520
2590.99041,0.02510
2588.93080,0.02498
2586.87119,0.02488
2584.81158,0.02478
2582.75196,0.02470
2580.69235,0.02465
2578.63274,0.02461
2576.57313,0.02451
2574.51352,0.02451
2572.45391,0.02473
2570.39430,0.02487
2568.33469,0.02473
2566.27508,0.02449
2564.21547,0.02447
2562.15586,0.02456
2560.09625,0.02450
2558.03663,0.02437
2555.97702,0.02432
2553.91741,0.02439
2551.85780,0.02455
2549.79819,0.02456
2547.73858,0.02432
2545.67897,0.02413
2543.61936,0.02415
2541.55975,0.02421
2539.50014,0.02419
2537.44053,0.02414
2535.38092,0.02408
2533.32130,0.02405
2531.26169,0.02405
2529.20208,0.02399
2527.14247,0.02389
2525.08286,0.02377
2523.02325,0.02382
2520.96364,0.02408
2518.90403,0.02425
2516.84442,0.02429
2514.78481,0.02427
2512.72520,0.02423
2510.66559,0.02422
2508.60597,0.02417
2506.54636,0.02402
2504.48675,0.02387
2502.42714,0.02387
2500.36753,0.02397
2498.30792,0.02403
2496.24831,0.02404
2494.18870,0.02395
2492.12909,0.02384
2490.06948,0.02382
2488.00987,0.02386
2485.95026,0.02391
2483.89065,0.02395
2481.83103,0.02398
2479.77142,0.02395
2477.71181,0.02390
2475.65220,0.02386
2473.59259,0.02386
2471.53298,0.02385
2469.47337,0.02381
2467.41376,0.02378
2465.35415,0.02376
2463.29454,0.02376
2461.23493,0.02374
2459.17532,0.02369
2457.11570,0.02370
2455.05609,0.02376
2452.99648,0.02379
2450.93687,0.02372
2448.87726,0.02351
2446.81765,0.02334
2444.75804,0.02342
2442.69843,0.02349
2440.63882,0.02335
2438.57921,0.02317
2436.51960,0.02315
2434.45999,0.02321
2432.40037,0.02323
2430.34076,0.02321
2428.28115,0.02316
2426.22154,0.02314
2424.16193,0.02316
2422.10232,0.02316
2420.04271,0.02314
2417.98310,0.02312
2415.92349,0.02308
2413.86388,0.02304
2411.80427,0.02305
2409.74466,0.02308
2407.68504,0.02300
2405.62543,0.02288
2403.56582,0.02290
2401.50621,0.02302
2399.44660,0.02267
2397.38699,0.02258
2395.32738,0.02263
2393.26777,0.02273
2391.20816,0.02289
2389.14855,0.02311
2387.08894,0.02346
2385.02933,0.02389
2382.96972,0.02433
2380.91010,0.02462
2378.85049,0.02460
2376.79088,0.02421
2374.73127,0.02368
2372.67166,0.02338
2370.61205,0.02335
2368.55244,0.02346
2366.49283,0.02366
2364.43322,0.02389
2362.37361,0.02415
2360.31400,0.02438
2358.25439,0.02444
2356.19477,0.02449
2354.13516,0.02474
2352.07555,0.02530
2350.01594,0.02583
2347.95633,0.02561
2345.89672,0.02469
2343.83711,0.02406
2341.77750,0.02383
2339.71789,0.02376
2337.65828,0.02382
2335.59867,0.02392
2333.53906,0.02405
2331.47944,0.02428
2329.41983,0.02468
2327.36022,0.02522
2325.30061,0.02535
2323.24100,0.02480
2321.18139,0.02407
2319.12178,0.02368
2317.06217,0.02357
2315.00256,0.02342
2312.94295,0.02333
2310.88334,0.02341
2308.82373,0.02354
2306.76411,0.02361
2304.70450,0.02359
2302.64489,0.02351
2300.58528,0.02335
2298.52567,0.02303
2296.46606,0.02271
2294.40645,0.02263
2292.34684,0.02267
2290.28723,0.02261
2288.22762,0.02242
2286.16801,0.02225
2284.10840,0.02225
2282.04878,0.02227
2279.98917,0.02216
2277.92956,0.02200
2275.86995,0.02186
2273.81034,0.02165
2271.75073,0.02146
2269.69112,0.02137
2267.63151,0.02130
2265.57190,0.02145
2263.51229,0.02187
2261.45268,0.02209
2259.39307,0.02189
2257.33346,0.02153
2255.27384,0.02127
2253.21423,0.02119
2251.15462,0.02119
2249.09501,0.02096
2247.03540,0.02080
2244.97579,0.02064
2242.91618,0.02066
2240.85657,0.02058
2238.79696,0.02038
2236.73735,0.02036
2234.67774,0.02040
2232.61813,0.02030
2230.55851,0.02040
2228.49890,0.02076
2226.43929,0.02102
2224.37968,0.02108
2222.32007,0.02098
2220.26046,0.02073
2218.20085,0.02065
2216.14124,0.02072
2214.08163,0.02064
2212.02202,0.02051
2209.96241,0.02033
2207.90280,0.02012
2205.84318,0.02021
2203.78357,0.02046
2201.72396,0.02035
2199.66435,0.02005
2197.60474,0.01999
2195.54513,0.02032
2193.48552,0.02082
2191.42591,0.02076
2189.36630,0.02006
2187.30669,0.01952
2185.24708,0.01948
2183.18747,0.01941
2181.12785,0.01924
2179.06824,0.01930
2177.00863,0.01931
2174.94902,0.01918
2172.88941,0.01905
2170.82980,0.01878
2168.77019,0.01852
2166.71058,0.01847
2164.65097,0.01835
2162.59136,0.01790
2160.53175,0.01722
2158.47214,0.01673
2156.41253,0.01694
2154.35291,0.01765
2152.29330,0.01823
2150.23369,0.01867
2148.17408,0.01911
2146.11447,0.01922
2144.05486,0.01913
2141.99525,0.01910
2139.93564,0.01901
2137.87603,0.01901
2135.81642,0.01910
2133.75681,0.01909
2131.69720,0.01913
2129.63758,0.01949
2127.57797,0.01995
2125.51836,0.01999
2123.45875,0.01970
2121.39914,0.01971
2119.33953,0.01988
2117.27992,0.01982
2115.22031,0.01977
2113.16070,0.01979
2111.10109,0.01966
2109.04148,0.01953
2106.98187,0.01953
2104.92225,0.01961
2102.86264,0.01964
2100.80303,0.01954
2098.74342,0.01931
2096.68381,0.01926
2094.62420,0.01946
2092.56459,0.01975
2090.50498,0.01981
2088.44537,0.01960
2086.38576,0.01944
2084.32615,0.01929
2082.26654,0.01921
2080.20692,0.01950
2078.14731,0.01974
2076.08770,0.01956
2074.02809,0.01945
2071.96848,0.01941
2069.90887,0.01894
2067.84926,0.01828
2065.78965,0.01816
2063.73004,0.01839
2061.67043,0.01860
2059.61082,0.01867
2057.55121,0.01859
2055.49160,0.01868
2053.43198,0.01901
2051.37237,0.01950
2049.31276,0.01975
2047.25315,0.01923
2045.19354,0.01818
2043.13393,0.01753
2041.07432,0.01758
2039.01471,0.01772
2036.95510,0.01774
2034.89549,0.01773
2032.83588,0.01750
2030.77627,0.01706
2028.71665,0.01691
2026.65704,0.01712
2024.59743,0.01703
2022.53782,0.01669
2020.47821,0.01675
2018.41860,0.01697
2016.35899,0.01665
2014.29938,0.01637
2012.23977,0.01684
2010.18016,0.01748
2008.12055,0.01793
2006.06094,0.01813
2004.00132,0.01829
2001.94171,0.01833
1999.88210,0.01797
1997.82249,0.01746
1995.76288,0.01711
1993.70327,0.01726
1991.64366,0.01754
1989.58405,0.01734
1987.52444,0.01720
1985.46483,0.01720
1983.40522,0.01743
1981.34561,0.01761
1979.28599,0.01719
1977.22638,0.01635
1975.16677,0.01574
1973.10716,0.01555
1971.04755,0.01565
1968.98794,0.01597
1966.92833,0.01630
1964.86872,0.01649
1962.80911,0.01655
1960.74950,0.01617
1958.68989,0.01583
1956.63028,0.01616
1954.57067,0.01673
1952.51105,0.01697
1950.45144,0.01685
1948.39183,0.01667
1946.33222,0.01662
1944.27261,0.01692
1942.21300,0.01738
1940.15339,0.01756
1938.09378,0.01789
1936.03417,0.01797
1933.97456,0.01760
1931.91495,0.01713
1929.85534,0.01676
1927.79572,0.01645
1925.73611,0.01641
1923.67650,0.01693
1921.61689,0.01709
1919.55728,0.01723
1917.49767,0.01746
1915.43806,0.01708
1913.37845,0.01687
1911.31884,0.01698
1909.25923,0.01718
1907.19962,0.01718
1905.14001,0.01706
1903.08039,0.01704
1901.02078,0.01714
1898.96117,0.01709
1896.90156,0.01686
1894.84195,0.01654
1892.78234,0.01643
1890.72273,0.01697
1888.66312,0.01711
1886.60351,0.01661
1884.54390,0.01644
1882.48429,0.01642
1880.42468,0.01649
1878.36506,0.01662
1876.30545,0.01655
1874.24584,0.01622
1872.18623,0.01609
1870.12662,0.01667
1868.06701,0.01695
1866.00740,0.01636
1863.94779,0.01605
1861.88818,0.01621
1859.82857,0.01629
1857.76896,0.01615
1855.70935,0.01595
1853.64974,0.01578
1851.59012,0.01567
1849.53051,0.01566
1847.47090,0.01572
1845.41129,0.01617
1843.35168,0.01618
1841.29207,0.01542
1839.23246,0.01540
1837.17285,0.01573
1835.11324,0.01553
1833.05363,0.01529
1830.99402,0.01563
1828.93441,0.01551
1826.87479,0.01528
1824.81518,0.01554
1822.75557,0.01526
1820.69596,0.01498
1818.63635,0.01502
1816.57674,0.01489
1814.51713,0.01470
1812.45752,0.01498
1810.39791,0.01522
1808.33830,0.01486
1806.27869,0.01446
1804.21908,0.01456
1802.15946,0.01510
1800.09985,0.01518
1798.04024,0.01448
1795.98063,0.01402
1793.92102,0.01451
1791.86141,0.01484
1789.80180,0.01394
1787.74219,0.01355
1785.68258,0.01400
1783.62297,0.01414
1781.56336,0.01412
1779.50375,0.01384
1777.44413,0.01324
1775.38452,0.01325
1773.32491,0.01390
1771.26530,0.01372
1769.20569,0.01309
1767.14608,0.01283
1765.08647,0.01262
1763.02686,0.01314
1760.96725,0.01322
1758.90764,0.01278
1756.84803,0.01266
1754.78842,0.01217
1752.72881,0.01251
1750.66919,0.01330
1748.60958,0.01287
1746.54997,0.01200
1744.49036,0.01169
1742.43075,0.01178
1740.37114,0.01177
1738.31153,0.01089
1736.25192,0.01104
1734.19231,0.01250
1732.13270,0.01188
1730.07309,0.01119
1728.01348,0.01115
1725.95386,0.01113
1723.89425,0.01099
1721.83464,0.01051
1719.77503,0.01122
1717.71542,0.01263
1715.65581,0.01233
1713.59620,0.01147
1711.53659,0.01134
1709.47698,0.01199
1707.41737,0.01328
1705.35776,0.01438
1703.29815,0.01540
1701.23853,0.01892
1699.17892,0.02256
1697.11931,0.02539
1695.05970,0.02738
1693.00009,0.02761
1690.94048,0.02856
1688.88087,0.02958
1686.82126,0.03128
1684.76165,0.03516
1682.70204,0.03721
1680.64243,0.03783
1678.58282,0.03958
1676.52320,0.04252
1674.46359,0.04489
1672.40398,0.04668
1670.34437,0.05015
1668.28476,0.05292
1666.22515,0.05450
1664.16554,0.05769
1662.10593,0.06130
1660.04632,0.06320
1657.98671,0.06444
1655.92710,0.06731
1653.86749,0.07203
1651.80788,0.07247
1649.74826,0.07145
1647.68865,0.07389
1645.62904,0.07533
1643.56943,0.07470
1641.50982,0.07453
1639.45021,0.07498
1637.39060,0.07675
1635.33099,0.07831
1633.27138,0.07750
1631.21177,0.07751
1629.15216,0.07918
1627.09255,0.08077
1625.03293,0.08274
1622.97332,0.08501
1620.91371,0.08592
1618.85410,0.08752
1616.79449,0.08954
1614.73488,0.08873
1612.67527,0.08687
1610.61566,0.08513
1608.55605,0.08246
1606.49644,0.07897
1604.43683,0.07549
1602.37722,0.07203
1600.31760,0.06852
1598.25799,0.06533
1596.19838,0.06250
1594.13877,0.05956
1592.07916,0.05654
1590.01955,0.05378
1587.95994,0.05123
1585.90033,0.04874
1583.84072,0.04609
1581.78111,0.04305
1579.72150,0.04042
1577.66189,0.03975
1575.60227,0.03944
1573.54266,0.03835
1571.48305,0.03979
1569.42344,0.04262
1567.36383,0.04384
1565.30422,0.04459
1563.24461,0.04517
1561.18500,0.04797
1559.12539,0.05301
1557.06578,0.05403
1555.00617,0.05470
1552.94656,0.05684
1550.88695,0.05903
1548.82733,0.06011
1546.76772,0.06030
1544.70811,0.06071
1542.64850,0.06167
1540.58889,0.06419
1538.52928,0.06523
1536.46967,0.06604
1534.41006,0.07011
1532.35045,0.07386
1530.29084,0.07543
1528.23123,0.07738
1526.17162,0.07920
1524.11200,0.08067
1522.05239,0.08300
1519.99278,0.08446
1517.93317,0.08600
1515.87356,0.08746
1513.81395,0.08739
1511.75434,0.08701
1509.69473,0.08755
1507.63512,0.08859
1505.57551,0.08563
1503.51590,0.08113
1501.45629,0.07921
1499.39667,0.07840
1497.33706,0.07654
1495.27745,0.07289
1493.21784,0.06959
1491.15823,0.06810
1489.09862,0.06589
1487.03901,0.06223
1484.97940,0.05900
1482.91979,0.05682
1480.86018,0.05475
1478.80057,0.05234
1476.74096,0.05006
1474.68134,0.04809
1472.62173,0.04691
1470.56212,0.04587
1468.50251,0.04561
1466.44290,0.04628
1464.38329,0.04597
1462.32368,0.04516
1460.26407,0.04714
1458.20446,0.05186
1456.14485,0.05452
1454.08524,0.05432
1452.02563,0.05470
1449.96602,0.05573
1447.90640,0.05626
1445.84679,0.05565
1443.78718,0.05468
1441.72757,0.05363
1439.66796,0.05285
1437.60835,0.05287
1435.54874,0.05177
1433.48913,0.05000
1431.42952,0.04969
1429.36991,0.04954
1427.31030,0.04883
1425.25069,0.04854
1423.19107,0.04826
1421.13146,0.04861
1419.07185,0.04983
1417.01224,0.04984
1414.95263,0.04963
1412.89302,0.05015
1410.83341,0.05068
1408.77380,0.05093
1406.71419,0.05145
1404.65458,0.05176
1402.59497,0.05134
1400.53536,0.05149
1398.47574,0.05194
1396.41613,0.05217
1394.35652,0.05215
1392.29691,0.05143
1390.23730,0.05137
1388.17769,0.05215
1386.11808,0.05213
1384.05847,0.05142
1381.99886,0.05106
1379.93925,0.05081
1377.87964,0.05057
1375.82003,0.05072
1373.76041,0.05080
1371.70080,0.05028
1369.64119,0.05000
1367.58158,0.04970
1365.52197,0.04935
1363.46236,0.04942
1361.40275,0.04893
1359.34314,0.04801
1357.28353,0.04757
1355.22392,0.04742
1353.16431,0.04717
1351.10470,0.04697
1349.04508,0.04694
1346.98547,0.04694
1344.92586,0.04685
1342.86625,0.04688
1340.80664,0.04742
1338.74703,0.04777
1336.68742,0.04739
1334.62781,0.04703
1332.56820,0.04698
1330.50859,0.04700
1328.44898,0.04698
1326.38937,0.04692
1324.32976,0.04682
1322.27014,0.04680
1320.21053,0.04699
1318.15092,0.04711
1316.09131,0.04710
1314.03170,0.04726
1311.97209,0.04737
1309.91248,0.04735
1307.85287,0.04743
1305.79326,0.04753
1303.73365,0.04755
1301.67404,0.04746
1299.61443,0.04736
1297.55481,0.04732
1295.49520,0.04726
1293.43559,0.04715
1291.37598,0.04708
1289.31637,0.04710
1287.25676,0.04709
1285.19715,0.04696
1283.13754,0.04682
1281.07793,0.04669
1279.01832,0.04652
1276.95871,0.04633
1274.89910,0.04623
1272.83948,0.04627
1270.77987,0.04632
1268.72026,0.04636
1266.66065,0.04646
1264.60104,0.04654
1262.54143,0.04664
1260.48182,0.04691
1258.42221,0.04731
1256.36260,0.04785
1254.30299,0.04847
1252.24338,0.04904
1250.18377,0.04959
1248.12415,0.05017
1246.06454,0.05071
1244.00493,0.05110
1241.94532,0.05140
1239.88571,0.05168
1237.82610,0.05190
1235.76649,0.05206
1233.70688,0.05215
1231.64727,0.05218
1229.58766,0.05214
1227.52805,0.05200
1225.46844,0.05177
1223.40883,0.05151
1221.34921,0.05122
1219.28960,0.05084
1217.22999,0.05034
1215.17038,0.04981
1213.11077,0.04937
1211.05116,0.04889
1208.99155,0.04826
1206.93194,0.04761
1204.87233,0.04703
1202.81272,0.04640
1200.75311,0.04568
1198.69350,0.04498
1196.63388,0.04437
1194.57427,0.04383
1192.51466,0.04335
1190.45505,0.04291
1188.39544,0.04256
1186.33583,0.04226
1184.27622,0.04200
1182.21661,0.04182
1180.15700,0.04179
1178.09739,0.04195
1176.03778,0.04237
1173.97817,0.04295
1171.91855,0.04356
1169.85894,0.04419
1167.79933,0.04476
1165.73972,0.04518
1163.68011,0.04542
1161.62050,0.04542
1159.56089,0.04524
1157.50128,0.04499
1155.44167,0.04461
1153.38206,0.04408
1151.32245,0.04351
1149.26284,0.04297
1147.20322,0.04243
1145.14361,0.04199
1143.08400,0.04170
1141.02439,0.04142
1138.96478,0.04116
1136.90517,0.04103
1134.84556,0.04089
1132.78595,0.04065
1130.72634,0.04049
1128.66673,0.04051
1126.60712,0.04052
1124.54751,0.04043
1122.48790,0.04032
1120.42828,0.04013
1118.36867,0.03981
1116.30906,0.03946
1114.24945,0.03922
1112.18984,0.03914
1110.13023,0.03921
1108.07062,0.03939
1106.01101,0.03947
1103.95140,0.03944
1101.89179,0.03948
1099.83218,0.03964
1097.77257,0.03979
1095.71295,0.03994
1093.65334,0.04023
1091.59373,0.04070
1089.53412,0.04136
1087.47451,0.04214
1085.41490,0.04290
1083.35529,0.04373
1081.29568,0.04471
1079.23607,0.04572
1077.17646,0.04661
1075.11685,0.04733
1073.05724,0.04803
1070.99762,0.04881
1068.93801,0.04944
1066.87840,0.04978
1064.81879,0.05000
1062.75918,0.05020
1060.69957,0.05023
1058.63996,0.05012
1056.58035,0.04999
1054.52074,0.04983
1052.46113,0.04962
1050.40152,0.04941
1048.34191,0.04922
1046.28229,0.04890
1044.22268,0.04840
1042.16307,0.04778
1040.10346,0.04706
1038.04385,0.04632
1035.98424,0.04564
1033.92463,0.04509
1031.86502,0.04475
1029.80541,0.04438
1027.74580,0.04361
1025.68619,0.04270
1023.62658,0.04202
1021.56697,0.04147
1019.50735,0.04092
1017.44774,0.04036
1015.38813,0.03974
1013.32852,0.03910
1011.26891,0.03853
1009.20930,0.03800
1007.14969,0.03752
1005.09008,0.03709
1003.03047,0.03676
1000.97086,0.03650
998.91125,0.03622
996.85164,0.03592
994.79202,0.03567
992.73241,0.03544
990.67280,0.03526
988.61319,0.03513
986.55358,0.03494
984.49397,0.03469
982.43436,0.03449
980.37475,0.03437
978.31514,0.03434
976.25553,0.03440
974.19592,0.03454
972.13631,0.03471
970.07669,0.03485
968.01708,0.03499
965.95747,0.03520
963.89786,0.03542
961.83825,0.03558
959.77864,0.03557
957.71903,0.03532
955.65942,0.03495
953.59981,0.03466
951.54020,0.03454
949.48059,0.03455
947.42098,0.03446
945.36136,0.03417
943.30175,0.03392
941.24214,0.03386
939.18253,0.03385
937.12292,0.03384
935.06331,0.03398
933.00370,0.03413
930.94409,0.03411
928.88448,0.03402
926.82487,0.03390
924.76526,0.03373
922.70565,0.03363
920.64604,0.03352
918.58642,0.03321
916.52681,0.03286
914.46720,0.03267
912.40759,0.03252
910.34798,0.03242
908.28837,0.03252
906.22876,0.03270
904.16915,0.03282
902.10954,0.03288
900.04993,0.03291
897.99032,0.03294
895.93071,0.03292
893.87109,0.03269
891.81148,0.03238
889.75187,0.03222
887.69226,0.03215
885.63265,0.03199
883.57304,0.03181
881.51343,0.03179
879.45382,0.03183
877.39421,0.03172
875.33460,0.03151
873.27499,0.03129
871.21538,0.03120
869.15576,0.03121
867.09615,0.03116
865.03654,0.03095
862.97693,0.03059
860.91732,0.03030
858.85771,0.03032
856.79810,0.03049
854.73849,0.03059
852.67888,0.03053
850.61927,0.03041
848.55966,0.03032
846.50005,0.03027
844.44043,0.03028
842.38082,0.03033
840.32121,0.03027
838.26160,0.03022
836.20199,0.03043
834.14238,0.03070
832.08277,0.03095
830.02316,0.03131
827.96355,0.03157
825.90394,0.03151
823.84433,0.03133
821.78472,0.03135
819.72511,0.03156
817.66549,0.03189
815.60588,0.03228
813.54627,0.03253
811.48666,0.03265
809.42705,0.03279
807.36744,0.03289
805.30783,0.03301
803.24822,0.03328
801.18861,0.03346
799.12900,0.03349
797.06939,0.03362
795.00978,0.03383
792.95016,0.03394
790.89055,0.03408
788.83094,0.03449
786.77133,0.03503
784.71172,0.03546
782.65211,0.03575
780.59250,0.03605
778.53289,0.03654
776.47328,0.03711
774.41367,0.03752
772.35406,0.03779
770.29445,0.03814
768.23483,0.03866
766.17522,0.03922
764.11561,0.03961
762.05600,0.03985
759.99639,0.04014
757.93678,0.04045
755.87717,0.04082
753.81756,0.04127
751.75795,0.04171
749.69834,0.04204
747.63873,0.04213
745.57912,0.04202
743.51950,0.04188
741.45989,0.04174
739.40028,0.04162
737.34067,0.04153
735.28106,0.04139
733.22145,0.04104
731.16184,0.04061
729.10223,0.04076
727.04262,0.04172
724.98301,0.04278
722.92340,0.04307
720.86379,0.04310
718.80418,0.04416
716.74456,0.04644
714.68495,0.04888
712.62534,0.05061
710.56573,0.05185
708.50612,0.05321
706.44651,0.05486
704.38690,0.05659
702.32729,0.05808
700.26768,0.05916
698.20807,0.05986
696.14846,0.06014
694.08885,0.06021
692.02923,0.06032
689.96962,0.06047
687.91001,0.06058
685.85040,0.06053
683.79079,0.06049
681.73118,0.06072
679.67157,0.06109
677.61196,0.06143
675.55235,0.06179
673.49274,0.06210
671.43313,0.06188
669.37352,0.06115
667.31390,0.06158
665.25429,0.06263
663.19468,0.06398
661.13507,0.06477
659.07546,0.06500
657.01585,0.06491
654.95624,0.06487
652.89663,0.06512
650.83702,0.06558
648.77741,0.06599
646.71780,0.06627
644.65819,0.06654
642.59857,0.06689
640.53896,0.06734
638.47935,0.06790
636.41974,0.06836
634.36013,0.06885
632.30052,0.06959
630.24091,0.07016
628.18130,0.07045
626.12169,0.07079
624.06208,0.07108
622.00247,0.07121
619.94286,0.07121
617.88325,0.07101
615.82363,0.07078
613.76402,0.07072
611.70441,0.07074
609.64480,0.07074
607.58519,0.07075
605.52558,0.07066
603.46597,0.07057
601.40636,0.07080
599.34675,0.07108
597.28714,0.07111
595.22753,0.07120
593.16792,0.07146
591.10830,0.07142
589.04869,0.07113
586.98908,0.07107
584.92947,0.07105
582.86986,0.07118
580.81025,0.07151
578.75064,0.07178
576.69103,0.07198
574.63142,0.07173
572.57181,0.07165
570.51220,0.07220
568.45259,0.07276
566.39297,0.07289
564.33336,0.07300
562.27375,0.07328
560.21414,0.07350
558.15453,0.07371
556.09492,0.07383
554.03531,0.07387
551.97570,0.07419
549.91609,0.07481
547.85648,0.07534
545.79687,0.07545
543.73726,0.07512
541.67764,0.07495
539.61803,0.07537
537.55842,0.07597
535.49881,0.07608
533.43920,0.07601
531.37959,0.07629
529.31998,0.07680
527.26037,0.07751
525.20076,0.07769
523.14115,0.07735
521.08154,0.07770
519.02193,0.07861
516.96232,0.07874
514.90270,0.07789
512.84309,0.07710
510.78348,0.07665
508.72387,0.07656
506.66426,0.07646
504.60465,0.07612
502.54504,0.07598
500.48543,0.07557
498.42582,0.07493
496.36621,0.07422
494.30660,0.07410
492.24699,0.07491
490.18737,0.07533
488.12776,0.07515
486.06815,0.07534
484.00854,0.07571
481.94893,0.07550
479.88932,0.07504
477.82971,0.07488
475.77010,0.07514
473.71049,0.07566
471.65088,0.07569
469.59127,0.07573
467.53166,0.07611
465.47204,0.07600
463.41243,0.07551
461.35282,0.07505
459.29321,0.07566
457.23360,0.07626
455.17399,0.07550
453.11438,0.07492
451.05477,0.07484
448.99516,0.07486
446.93555,0.07452
444.87594,0.07381
442.81633,0.07334
440.75671,0.07312
438.69710,0.07303
436.63749,0.07244
434.57788,0.07130
432.51827,0.07058
430.45866,0.07007
428.39905,0.06946
426.33944,0.06946
424.27983,0.06985
422.22022,0.07012
420.16061,0.07053
418.10100,0.06911
416.04138,0.06654
413.98177,0.06662
411.92216,0.06891
409.86255,0.07068
407.80294,0.07038
405.74333,0.06873
403.68372,0.06708
401.62411,0.06687
399.56450,0.06869
