3997.70460,0.03020
3995.64498,0.03018
3993.58537,0.03034
3991.52576,0.03048
3989.46615,0.03048
3987.40654,0.03034
3985.34693,0.03014
3983.28732,0.03009
3981.22771,0.03017
3979.16810,0.03017
3977.10849,0.03010
3975.04888,0.03008
3972.98927,0.03004
3970.92965,0.02991
3968.87004,0.02988
3966.81043,0.03003
3964.75082,0.03027
3962.69121,0.03039
3960.63160,0.03026
3958.57199,0.03002
3956.51238,0.02987
3954.45277,0.02985
3952.39316,0.02990
3950.33355,0.03000
3948.27394,0.03006
3946.21432,0.03010
3944.15471,0.03011
3942.09510,0.03002
3940.03549,0.02986
3937.97588,0.02976
3935.91627,0.02977
3933.85666,0.02989
3931.79705,0.03006
3929.73744,0.03009
3927.67783,0.02998
3925.61822,0.02991
3923.55861,0.02996
3921.49900,0.03009
3919.43938,0.03013
3917.37977,0.03006
3915.32016,0.03007
3913.26055,0.03016
3911.20094,0.03015
3909.14133,0.03006
3907.08172,0.02999
3905.02211,0.02994
3902.96250,0.02992
3900.90289,0.02992
3898.84328,0.02986
3896.78367,0.02971
3894.72405,0.02952
3892.66444,0.02944
3890.60483,0.02957
3888.54522,0.02976
3886.48561,0.02989
3884.42600,0.02996
3882.36639,0.02991
3880.30678,0.02983
3878.24717,0.02985
3876.18756,0.02987
3874.12795,0.02979
3872.06834,0.02965
3870.00872,0.02964
3867.94911,0.02975
3865.88950,0.02982
3863.82989,0.02982
3861.77028,0.02975
3859.71067,0.02960
3857.65106,0.02941
3855.59145,0.02939
3853.53184,0.02971
3851.47223,0.03000
3849.41262,0.02994
3847.35301,0.02978
3845.29339,0.02965
3843.23378,0.02955
3841.17417,0.02955
3839.11456,0.02965
3837.05495,0.02971
3834.99534,0.02956
3832.93573,0.02934
3830.87612,0.02929
3828.81651,0.02937
3826.75690,0.02931
3824.69729,0.02904
3822.63768,0.02873
3820.57807,0.02857
3818.51845,0.02862
3816.45884,0.02880
3814.39923,0.02896
3812.33962,0.02891
3810.28001,0.02872
3808.22040,0.02859
3806.16079,0.02869
3804.10118,0.02889
3802.04157,0.02900
3799.98196,0.02904
3797.92235,0.02905
3795.86274,0.02903
3793.80312,0.02890
3791.74351,0.02869
3789.68390,0.02854
3787.62429,0.02844
3785.56468,0.02839
3783.50507,0.02839
3781.44546,0.02825
3779.38585,0.02798
3777.32624,0.02783
3775.26663,0.02793
3773.20702,0.02820
3771.14741,0.02853
3769.08779,0.02879
3767.02818,0.02885
3764.96857,0.02872
3762.90896,0.02854
3760.84935,0.02840
3758.78974,0.02836
3756.73013,0.02850
3754.67052,0.02867
3752.61091,0.02866
3750.55130,0.02839
3748.49169,0.02807
3746.43208,0.02801
3744.37246,0.02825
3742.31285,0.02850
3740.25324,0.02848
3738.19363,0.02831
3736.13402,0.02823
3734.07441,0.02822
3732.01480,0.02809
3729.95519,0.02793
3727.89558,0.02788
3725.83597,0.02797
3723.77636,0.02811
3721.71675,0.02802
3719.65714,0.02780
3717.59752,0.02773
3715.53791,0.02781
3713.47830,0.02788
3711.41869,0.02790
3709.35908,0.02793
3707.29947,0.02786
3705.23986,0.02762
3703.18025,0.02736
3701.12064,0.02734
3699.06103,0.02750
3697.00142,0.02747
3694.94181,0.02718
3692.88219,0.02694
3690.82258,0.02706
3688.76297,0.02735
3686.70336,0.02738
3684.64375,0.02716
3682.58414,0.02695
3680.52453,0.02687
3678.46492,0.02694
3676.40531,0.02696
3674.34570,0.02672
3672.28609,0.02653
3670.22648,0.02677
3668.16686,0.02723
3666.10725,0.02739
3664.04764,0.02728
3661.98803,0.02719
3659.92842,0.02722
3657.86881,0.02728
3655.80920,0.02734
3653.74959,0.02731
3651.68998,0.02732
3649.63037,0.02764
3647.57076,0.02818
3645.51115,0.02841
3643.45153,0.02832
3641.39192,0.02820
3639.33231,0.02823
3637.27270,0.02830
3635.21309,0.02825
3633.15348,0.02803
3631.09387,0.02786
3629.03426,0.02809
3626.97465,0.02853
3624.91504,0.02870
3622.85543,0.02859
3620.79582,0.02846
3618.73621,0.02856
3616.67659,0.02883
3614.61698,0.02903
3612.55737,0.02921
3610.49776,0.02954
3608.43815,0.02985
3606.37854,0.02989
3604.31893,0.02975
3602.25932,0.02974
3600.19971,0.02994
3598.14010,0.03018
3596.08049,0.03030
3594.02088,0.03044
3591.96126,0.03069
3589.90165,0.03102
3587.84204,0.03134
3585.78243,0.03138
3583.72282,0.03119
3581.66321,0.03124
3579.60360,0.03162
3577.54399,0.03199
3575.48438,0.03212
3573.42477,0.03213
3571.36516,0.03217
3569.30555,0.03228
3567.24593,0.03250
3565.18632,0.03284
3563.12671,0.03316
3561.06710,0.03335
3559.00749,0.03340
3556.94788,0.03343
3554.88827,0.03358
3552.82866,0.03390
3550.76905,0.03430
3548.70944,0.03467
3546.64983,0.03492
3544.59022,0.03504
3542.53060,0.03514
3540.47099,0.03530
3538.41138,0.03549
3536.35177,0.03560
3534.29216,0.03560
3532.23255,0.03568
3530.17294,0.03599
3528.11333,0.03636
3526.05372,0.03663
3523.99411,0.03688
3521.93450,0.03710
3519.87489,0.03719
3517.81528,0.03725
3515.75566,0.03738
3513.69605,0.03758
3511.63644,0.03779
3509.57683,0.03802
3507.51722,0.03833
3505.45761,0.03867
3503.39800,0.03892
3501.33839,0.03909
3499.27878,0.03932
3497.21917,0.03962
3495.15956,0.03977
3493.09995,0.03981
3491.04033,0.03997
3488.98072,0.04030
3486.92111,0.04067
3484.86150,0.04089
3482.80189,0.04090
3480.74228,0.04090
3478.68267,0.04107
3476.62306,0.04142
3474.56345,0.04176
3472.50384,0.04205
3470.44423,0.04244
3468.38462,0.04272
3466.32500,0.04280
3464.26539,0.04291
3462.20578,0.04323
3460.14617,0.04364
3458.08656,0.04400
3456.02695,0.04426
3453.96734,0.04442
3451.90773,0.04454
3449.84812,0.04472
3447.78851,0.04501
3445.72890,0.04536
3443.66929,0.04569
3441.60967,0.04595
3439.55006,0.04621
3437.49045,0.04655
3435.43084,0.04688
3433.37123,0.04715
3431.31162,0.04732
3429.25201,0.04742
3427.19240,0.04762
3425.13279,0.04788
3423.07318,0.04805
3421.01357,0.04826
3418.95396,0.04862
3416.89435,0.04897
3414.83473,0.04919
3412.77512,0.04931
3410.71551,0.04944
3408.65590,0.04961
3406.59629,0.04982
3404.53668,0.05003
3402.47707,0.05015
3400.41746,0.05028
3398.35785,0.05056
3396.29824,0.05077
3394.23863,0.05087
3392.17902,0.05099
3390.11940,0.05114
3388.05979,0.05133
3386.00018,0.05161
3383.94057,0.05192
3381.88096,0.05220
3379.82135,0.05244
3377.76174,0.05266
3375.70213,0.05301
3373.64252,0.05347
3371.58291,0.05379
3369.52330,0.05396
3367.46369,0.05416
3365.40407,0.05452
3363.34446,0.05494
3361.28485,0.05523
3359.22524,0.05547
3357.16563,0.05580
3355.10602,0.05611
3353.04641,0.05633
3350.98680,0.05665
3348.92719,0.05710
3346.86758,0.05751
3344.80797,0.05788
3342.74836,0.05821
3340.68874,0.05856
3338.62913,0.05905
3336.56952,0.05973
3334.50991,0.06047
3332.45030,0.06101
3330.39069,0.06136
3328.33108,0.06181
3326.27147,0.06236
3324.21186,0.06287
3322.15225,0.06344
3320.09264,0.06413
3318.03303,0.06486
3315.97342,0.06560
3313.91380,0.06632
3311.85419,0.06699
3309.79458,0.06775
3307.73497,0.06869
3305.67536,0.06965
3303.61575,0.07048
3301.55614,0.07122
3299.49653,0.07201
3297.43692,0.07294
3295.37731,0.07400
3293.31770,0.07502
3291.25809,0.07594
3289.19847,0.07677
3287.13886,0.07752
3285.07925,0.07819
3283.01964,0.07877
3280.96003,0.07936
3278.90042,0.08005
3276.84081,0.08069
3274.78120,0.08125
3272.72159,0.08178
3270.66198,0.08218
3268.60237,0.08222
3266.54276,0.08197
3264.48314,0.08170
3262.42353,0.08149
3260.36392,0.08110
3258.30431,0.08058
3256.24470,0.08019
3254.18509,0.07989
3252.12548,0.07951
3250.06587,0.07900
3248.00626,0.07850
3245.94665,0.07813
3243.88704,0.07774
3241.82743,0.07717
3239.76781,0.07653
3237.70820,0.07601
3235.64859,0.07566
3233.58898,0.07535
3231.52937,0.07506
3229.46976,0.07491
3227.41015,0.07477
3225.35054,0.07450
3223.29093,0.07423
3221.23132,0.07401
3219.17171,0.07380
3217.11210,0.07356
3215.05248,0.07324
3212.99287,0.07291
3210.93326,0.07262
3208.87365,0.07242
3206.81404,0.07234
3204.75443,0.07237
3202.69482,0.07242
3200.63521,0.07236
3198.57560,0.07214
3196.51599,0.07174
3194.45638,0.07139
3192.39677,0.07123
3190.33716,0.07110
3188.27754,0.07090
3186.21793,0.07067
3184.15832,0.07040
3182.09871,0.07008
3180.03910,0.06975
3177.97949,0.06946
3175.91988,0.06918
3173.86027,0.06886
3171.80066,0.06858
3169.74105,0.06838
3167.68144,0.06817
3165.62183,0.06787
3163.56221,0.06743
3161.50260,0.06695
3159.44299,0.06653
3157.38338,0.06622
3155.32377,0.06605
3153.26416,0.06586
3151.20455,0.06559
3149.14494,0.06528
3147.08533,0.06500
3145.02572,0.06478
3142.96611,0.06448
3140.90650,0.06402
3138.84688,0.06364
3136.78727,0.06342
3134.72766,0.06320
3132.66805,0.06289
3130.60844,0.06257
3128.54883,0.06227
3126.48922,0.06203
3124.42961,0.06194
3122.37000,0.06195
3120.31039,0.06196
3118.25078,0.06182
3116.19117,0.06151
3114.13155,0.06122
3112.07194,0.06112
3110.01233,0.06119
3107.95272,0.06125
3105.89311,0.06124
3103.83350,0.06121
3101.77389,0.06117
3099.71428,0.06121
3097.65467,0.06120
3095.59506,0.06107
3093.53545,0.06100
3091.47584,0.06110
3089.41623,0.06124
3087.35661,0.06128
3085.29700,0.06127
3083.23739,0.06135
3081.17778,0.06155
3079.11817,0.06176
3077.05856,0.06186
3074.99895,0.06182
3072.93934,0.06172
3070.87973,0.06170
3068.82012,0.06183
3066.76051,0.06204
3064.70090,0.06218
3062.64128,0.06220
3060.58167,0.06209
3058.52206,0.06200
3056.46245,0.06200
3054.40284,0.06186
3052.34323,0.06148
3050.28362,0.06107
3048.22401,0.06070
3046.16440,0.06040
3044.10479,0.06018
3042.04518,0.05994
3039.98557,0.05960
3037.92595,0.05924
3035.86634,0.05899
3033.80673,0.05892
3031.74712,0.05883
3029.68751,0.05859
3027.62790,0.05831
3025.56829,0.05809
3023.50868,0.05786
3021.44907,0.05754
3019.38946,0.05711
3017.32985,0.05667
3015.27024,0.05637
3013.21062,0.05621
3011.15101,0.05608
3009.09140,0.05582
3007.03179,0.05548
3004.97218,0.05525
3002.91257,0.05514
3000.85296,0.05507
2998.79335,0.05507
2996.73374,0.05509
2994.67413,0.05508
2992.61452,0.05503
2990.55491,0.05500
2988.49530,0.05510
2986.43568,0.05537
2984.37607,0.05570
2982.31646,0.05599
2980.25685,0.05622
2978.19724,0.05639
2976.13763,0.05655
2974.07802,0.05671
2972.01841,0.05676
2969.95880,0.05659
2967.89919,0.05629
2965.83958,0.05593
2963.77997,0.05535
2961.72035,0.05447
2959.66074,0.05346
2957.60113,0.05252
2955.54152,0.05203
2953.48191,0.05232
2951.42230,0.05320
2949.36269,0.05420
2947.30308,0.05485
2945.24347,0.05496
2943.18386,0.05470
2941.12425,0.05425
2939.06464,0.05363
2937.00502,0.05275
2934.94541,0.05150
2932.88580,0.04977
2930.82619,0.04726
2928.76658,0.04363
2926.70697,0.03854
2924.64736,0.03147
2922.58775,0.02202
2920.52814,0.01030
2918.46853,-0.00149
2916.40892,-0.00724
2914.34931,-0.00117
2912.28969,0.01318
2910.23008,0.02653
2908.17047,0.03474
2906.11086,0.03910
2904.05125,0.04147
2901.99164,0.04286
2899.93203,0.04382
2897.87242,0.04459
2895.81281,0.04526
2893.75320,0.04594
2891.69359,0.04661
2889.63398,0.04727
2887.57437,0.04796
2885.51475,0.04873
2883.45514,0.04957
2881.39553,0.05035
2879.33592,0.05101
2877.27631,0.05154
2875.21670,0.05177
2873.15709,0.05175
2871.09748,0.05169
2869.03787,0.05157
2866.97826,0.05124
2864.91865,0.05056
2862.85904,0.04944
2860.79942,0.04775
2858.73981,0.04533
2856.68020,0.04173
2854.62059,0.03560
2852.56098,0.02536
2850.50137,0.01344
2848.44176,0.00916
2846.38215,0.01773
2844.32254,0.03120
2842.26293,0.04074
2840.20332,0.04553
2838.14371,0.04785
2836.08409,0.04910
2834.02448,0.04977
2831.96487,0.05015
2829.90526,0.05038
2827.84565,0.05055
2825.78604,0.05071
2823.72643,0.05079
2821.66682,0.05076
2819.60721,0.05067
2817.54760,0.05057
2815.48799,0.05052
2813.42838,0.05049
2811.36876,0.05046
2809.30915,0.05041
2807.24954,0.05036
2805.18993,0.05028
2803.13032,0.05020
2801.07071,0.05018
2799.01110,0.05014
2796.95149,0.05001
2794.89188,0.04981
2792.83227,0.04965
2790.77266,0.04965
2788.71305,0.04979
2786.65344,0.04987
2784.59382,0.04976
2782.53421,0.04954
2780.47460,0.04938
2778.41499,0.04941
2776.35538,0.04945
2774.29577,0.04938
2772.23616,0.04922
2770.17655,0.04907
2768.11694,0.04903
2766.05733,0.04904
2763.99772,0.04892
2761.93811,0.04874
2759.87849,0.04866
2757.81888,0.04868
2755.75927,0.04870
2753.69966,0.04862
2751.64005,0.04847
2749.58044,0.04833
2747.52083,0.04818
2745.46122,0.04810
2743.40161,0.04813
2741.34200,0.04808
2739.28239,0.04792
2737.22278,0.04776
2735.16316,0.04769
2733.10355,0.04767
2731.04394,0.04761
2728.98433,0.04747
2726.92472,0.04732
2724.86511,0.04721
2722.80550,0.04715
2720.74589,0.04706
2718.68628,0.04685
2716.62667,0.04666
2714.56706,0.04664
2712.50745,0.04667
2710.44783,0.04662
2708.38822,0.04648
2706.32861,0.04629
2704.26900,0.04614
2702.20939,0.04601
2700.14978,0.04585
2698.09017,0.04572
2696.03056,0.04567
2693.97095,0.04574
2691.91134,0.04590
2689.85173,0.04596
2687.79212,0.04577
2685.73251,0.04555
2683.67289,0.04545
2681.61328,0.04535
2679.55367,0.04526
2677.49406,0.04524
2675.43445,0.04527
2673.37484,0.04529
2671.31523,0.04519
2669.25562,0.04502
2667.19601,0.04491
2665.13640,0.04486
2663.07679,0.04492
2661.01718,0.04497
2658.95756,0.04493
2656.89795,0.04487
2654.83834,0.04481
2652.77873,0.04471
2650.71912,0.04459
2648.65951,0.04450
2646.59990,0.04442
2644.54029,0.04430
2642.48068,0.04418
2640.42107,0.04414
2638.36146,0.04420
2636.30185,0.04422
2634.24223,0.04406
2632.18262,0.04386
2630.12301,0.04376
2628.06340,0.04367
2626.00379,0.04356
2623.94418,0.04347
2621.88457,0.04339
2619.82496,0.04335
2617.76535,0.04332
2615.70574,0.04323
2613.64613,0.04304
2611.58652,0.04285
2609.52690,0.04284
2607.46729,0.04282
2605.40768,0.04265
2603.34807,0.04249
2601.28846,0.04239
2599.22885,0.04233
2597.16924,0.04234
2595.10963,0.04242
2593.05002,0.04249
2590.99041,0.04245
2588.93080,0.04219
2586.87119,0.04187
2584.81158,0.04182
2582.75196,0.04189
2580.69235,0.04177
2578.63274,0.04155
2576.57313,0.04144
2574.51352,0.04144
2572.45391,0.04146
2570.39430,0.04133
2568.33469,0.04116
2566.27508,0.04117
2564.21547,0.04129
2562.15586,0.04120
2560.09625,0.04093
2558.03663,0.04079
2555.97702,0.04082
2553.91741,0.04081
2551.85780,0.04075
2549.79819,0.04074
2547.73858,0.04072
2545.67897,0.04061
2543.61936,0.04050
2541.55975,0.04052
2539.50014,0.04050
2537.44053,0.04044
2535.38092,0.04046
2533.32130,0.04045
2531.26169,0.04030
2529.20208,0.04012
2527.14247,0.04000
2525.08286,0.03991
2523.02325,0.03994
2520.96364,0.04013
2518.90403,0.04026
2516.84442,0.04018
2514.78481,0.03999
2512.72520,0.03990
2510.66559,0.03993
2508.60597,0.04000
2506.54636,0.03998
2504.48675,0.03984
2502.42714,0.03971
2500.36753,0.03965
2498.30792,0.03958
2496.24831,0.03958
2494.18870,0.03962
2492.12909,0.03950
2490.06948,0.03935
2488.00987,0.03942
2485.95026,0.03956
2483.89065,0.03961
2481.83103,0.03959
2479.77142,0.03949
2477.71181,0.03941
2475.65220,0.03936
2473.59259,0.03921
2471.53298,0.03901
2469.47337,0.03889
2467.41376,0.03884
2465.35415,0.03884
2463.29454,0.03888
2461.23493,0.03892
2459.17532,0.03903
2457.11570,0.03903
2455.05609,0.03881
2452.99648,0.03872
2450.93687,0.03880
2448.87726,0.03872
2446.81765,0.03852
2444.75804,0.03845
2442.69843,0.03853
2440.63882,0.03856
2438.57921,0.03837
2436.51960,0.03816
2434.45999,0.03812
2432.40037,0.03811
2430.34076,0.03803
2428.28115,0.03788
2426.22154,0.03776
2424.16193,0.03786
2422.10232,0.03811
2420.04271,0.03816
2417.98310,0.03795
2415.92349,0.03782
2413.86388,0.03791
2411.80427,0.03800
2409.74466,0.03801
2407.68504,0.03791
2405.62543,0.03775
2403.56582,0.03773
2401.50621,0.03779
2399.44660,0.03770
2397.38699,0.03759
2395.32738,0.03750
2393.26777,0.03749
2391.20816,0.03753
2389.14855,0.03756
2387.08894,0.03762
2385.02933,0.03773
2382.96972,0.03801
2380.91010,0.03842
2378.85049,0.03865
2376.79088,0.03863
2374.73127,0.03858
2372.67166,0.03872
2370.61205,0.03881
2368.55244,0.03893
2366.49283,0.03918
2364.43322,0.03918
2362.37361,0.03960
2360.31400,0.03933
2358.25439,0.04005
2356.19477,0.03944
2354.13516,0.03959
2352.07555,0.03990
2350.01594,0.03923
2347.95633,0.03864
2345.89672,0.03886
2343.83711,0.04014
2341.77750,0.03975
2339.71789,0.03753
2337.65828,0.03628
2335.59867,0.03832
2333.53906,0.04073
2331.47944,0.04130
2329.41983,0.04057
2327.36022,0.03877
2325.30061,0.03800
2323.24100,0.03721
2321.18139,0.03682
2319.12178,0.03685
2317.06217,0.03698
2315.00256,0.03689
2312.94295,0.03684
2310.88334,0.03675
2308.82373,0.03663
2306.76411,0.03659
2304.70450,0.03645
2302.64489,0.03626
2300.58528,0.03609
2298.52567,0.03584
2296.46606,0.03567
2294.40645,0.03565
2292.34684,0.03566
2290.28723,0.03566
2288.22762,0.03563
2286.16801,0.03541
2284.10840,0.03527
2282.04878,0.03529
2279.98917,0.03507
2277.92956,0.03469
2275.86995,0.03445
2273.81034,0.03419
2271.75073,0.03393
2269.69112,0.03386
2267.63151,0.03387
2265.57190,0.03390
2263.51229,0.03402
2261.45268,0.03393
2259.39307,0.03363
2257.33346,0.03341
2255.27384,0.03327
2253.21423,0.03310
2251.15462,0.03305
2249.09501,0.03323
2247.03540,0.03325
2244.97579,0.03300
2242.91618,0.03284
2240.85657,0.03265
2238.79696,0.03229
2236.73735,0.03207
2234.67774,0.03210
2232.61813,0.03215
2230.55851,0.03220
2228.49890,0.03233
2226.43929,0.03231
2224.37968,0.03175
2222.32007,0.03099
2220.26046,0.03070
2218.20085,0.03100
2216.14124,0.03146
2214.08163,0.03157
2212.02202,0.03136
2209.96241,0.03113
2207.90280,0.03100
2205.84318,0.03117
2203.78357,0.03137
2201.72396,0.03116
2199.66435,0.03087
2197.60474,0.03090
2195.54513,0.03113
2193.48552,0.03104
2191.42591,0.03067
2189.36630,0.03059
2187.30669,0.03059
2185.24708,0.03015
2183.18747,0.02936
2181.12785,0.02889
2179.06824,0.02895
2177.00863,0.02903
2174.94902,0.02909
2172.88941,0.02931
2170.82980,0.02931
2168.77019,0.02889
2166.71058,0.02848
2164.65097,0.02830
2162.59136,0.02829
2160.53175,0.02781
2158.47214,0.02665
2156.41253,0.02623
2154.35291,0.02666
2152.29330,0.02697
2150.23369,0.02756
2148.17408,0.02856
2146.11447,0.02912
2144.05486,0.02913
2141.99525,0.02899
2139.93564,0.02896
2137.87603,0.02908
2135.81642,0.02919
2133.75681,0.02935
2131.69720,0.02967
2129.63758,0.03003
2127.57797,0.03042
2125.51836,0.03068
2123.45875,0.03071
2121.39914,0.03084
2119.33953,0.03099
2117.27992,0.03098
2115.22031,0.03109
2113.16070,0.03127
2111.10109,0.03127
2109.04148,0.03118
2106.98187,0.03103
2104.92225,0.03093
2102.86264,0.03094
2100.80303,0.03086
2098.74342,0.03060
2096.68381,0.03027
2094.62420,0.03008
2092.56459,0.03020
2090.50498,0.03042
2088.44537,0.03047
2086.38576,0.03044
2084.32615,0.03042
2082.26654,0.03054
2080.20692,0.03077
2078.14731,0.03072
2076.08770,0.03035
2074.02809,0.03003
2071.96848,0.02973
2069.90887,0.02923
2067.84926,0.02889
2065.78965,0.02897
2063.73004,0.02915
2061.67043,0.02926
2059.61082,0.02935
2057.55121,0.02938
2055.49160,0.02921
2053.43198,0.02892
2051.37237,0.02869
2049.31276,0.02854
2047.25315,0.02818
2045.19354,0.02747
2043.13393,0.02665
2041.07432,0.02608
2039.01471,0.02609
2036.95510,0.02661
2034.89549,0.02688
2032.83588,0.02625
2030.77627,0.02544
2028.71665,0.02532
2026.65704,0.02555
2024.59743,0.02566
2022.53782,0.02589
2020.47821,0.02638
2018.41860,0.02665
2016.35899,0.02636
2014.29938,0.02601
2012.23977,0.02605
2010.18016,0.02628
2008.12055,0.02634
2006.06094,0.02621
2004.00132,0.02636
2001.94171,0.02661
1999.88210,0.02672
1997.82249,0.02673
1995.76288,0.02636
1993.70327,0.02600
1991.64366,0.02633
1989.58405,0.02694
1987.52444,0.02729
1985.46483,0.02722
1983.40522,0.02665
1981.34561,0.02594
1979.28599,0.02530
1977.22638,0.02470
1975.16677,0.02437
1973.10716,0.02424
1971.04755,0.02414
1968.98794,0.02418
1966.92833,0.02442
1964.86872,0.02475
1962.80911,0.02498
1960.74950,0.02511
1958.68989,0.02536
1956.63028,0.02576
1954.57067,0.02603
1952.51105,0.02603
1950.45144,0.02586
1948.39183,0.02572
1946.33222,0.02570
1944.27261,0.02588
1942.21300,0.02621
1940.15339,0.02649
1938.09378,0.02674
1936.03417,0.02683
1933.97456,0.02659
1931.91495,0.02628
1929.85534,0.02618
1927.79572,0.02622
1925.73611,0.02624
1923.67650,0.02636
1921.61689,0.02650
1919.55728,0.02644
1917.49767,0.02634
1915.43806,0.02631
1913.37845,0.02625
1911.31884,0.02623
1909.25923,0.02640
1907.19962,0.02664
1905.14001,0.02653
1903.08039,0.02620
1901.02078,0.02616
1898.96117,0.02630
1896.90156,0.02611
1894.84195,0.02573
1892.78234,0.02557
1890.72273,0.02561
1888.66312,0.02571
1886.60351,0.02581
1884.54390,0.02579
1882.48429,0.02559
1880.42468,0.02540
1878.36506,0.02540
1876.30545,0.02549
1874.24584,0.02555
1872.18623,0.02552
1870.12662,0.02542
1868.06701,0.02534
1866.00740,0.02531
1863.94779,0.02527
1861.88818,0.02514
1859.82857,0.02496
1857.76896,0.02481
1855.70935,0.02475
1853.64974,0.02476
1851.59012,0.02478
1849.53051,0.02471
1847.47090,0.02450
1845.41129,0.02430
1843.35168,0.02433
1841.29207,0.02447
1839.23246,0.02448
1837.17285,0.02435
1835.11324,0.02416
1833.05363,0.02401
1830.99402,0.02392
1828.93441,0.02383
1826.87479,0.02374
1824.81518,0.02368
1822.75557,0.02364
1820.69596,0.02351
1818.63635,0.02327
1816.57674,0.02307
1814.51713,0.02297
1812.45752,0.02297
1810.39791,0.02299
1808.33830,0.02293
1806.27869,0.02283
1804.21908,0.02281
1802.15946,0.02285
1800.09985,0.02281
1798.04024,0.02268
1795.98063,0.02254
1793.92102,0.02242
1791.86141,0.02235
1789.80180,0.02230
1787.74219,0.02226
1785.68258,0.02221
1783.62297,0.02208
1781.56336,0.02193
1779.50375,0.02182
1777.44413,0.02175
1775.38452,0.02161
1773.32491,0.02136
1771.26530,0.02119
1769.20569,0.02122
1767.14608,0.02126
1765.08647,0.02120
1763.02686,0.02118
1760.96725,0.02117
1758.90764,0.02105
1756.84803,0.02092
1754.78842,0.02098
1752.72881,0.02118
1750.66919,0.02139
1748.60958,0.02160
1746.54997,0.02184
1744.49036,0.02204
1742.43075,0.02214
1740.37114,0.02229
1738.31153,0.02251
1736.25192,0.02275
1734.19231,0.02304
1732.13270,0.02337
1730.07309,0.02358
1728.01348,0.02370
1725.95386,0.02376
1723.89425,0.02384
1721.83464,0.02397
1719.77503,0.02422
1717.71542,0.02463
1715.65581,0.02508
1713.59620,0.02544
1711.53659,0.02588
1709.47698,0.02654
1707.41737,0.02770
1705.35776,0.02960
1703.29815,0.03207
1701.23853,0.03552
1699.17892,0.04021
1697.11931,0.04450
1695.05970,0.04766
1693.00009,0.04992
1690.94048,0.05191
1688.88087,0.05406
1686.82126,0.05645
1684.76165,0.05998
1682.70204,0.06451
1680.64243,0.06819
1678.58282,0.07118
1676.52320,0.07450
1674.46359,0.07844
1672.40398,0.08233
1670.34437,0.08651
1668.28476,0.09113
1666.22515,0.09502
1664.16554,0.09870
1662.10593,0.10309
1660.04632,0.10724
1657.98671,0.11029
1655.92710,0.11283
1653.86749,0.11637
1651.80788,0.12047
1649.74826,0.12267
1647.68865,0.12411
1645.62904,0.12596
1643.56943,0.12739
1641.50982,0.12819
1639.45021,0.12884
1637.39060,0.12995
1635.33099,0.13185
1633.27138,0.13363
1631.21177,0.13486
1629.15216,0.13636
1627.09255,0.13855
1625.03293,0.14116
1622.97332,0.14387
1620.91371,0.14582
1618.85410,0.14655
1616.79449,0.14641
1614.73488,0.14524
1612.67527,0.14280
1610.61566,0.13918
1608.55605,0.13456
1606.49644,0.12932
1604.43683,0.12376
1602.37722,0.11811
1600.31760,0.11272
1598.25799,0.10776
1596.19838,0.10303
1594.13877,0.09841
1592.07916,0.09402
1590.01955,0.08990
1587.95994,0.08605
1585.90033,0.08247
1583.84072,0.07911
1581.78111,0.07597
1579.72150,0.07330
1577.66189,0.07160
1575.60227,0.07128
1573.54266,0.07203
1571.48305,0.07345
1569.42344,0.07582
1567.36383,0.07867
1565.30422,0.08122
1563.24461,0.08321
1561.18500,0.08532
1559.12539,0.08935
1557.06578,0.09451
1555.00617,0.09810
1552.94656,0.10083
1550.88695,0.10343
1548.82733,0.10570
1546.76772,0.10727
1544.70811,0.10823
1542.64850,0.10931
1540.58889,0.11187
1538.52928,0.11582
1536.46967,0.11911
1534.41006,0.12243
1532.35045,0.12636
1530.29084,0.12948
1528.23123,0.13175
1526.17162,0.13390
1524.11200,0.13587
1522.05239,0.13804
1519.99278,0.14062
1517.93317,0.14293
1515.87356,0.14457
1513.81395,0.14519
1511.75434,0.14481
1509.69473,0.14354
1507.63512,0.14093
1505.57551,0.13728
1503.51590,0.13397
1501.45629,0.13082
1499.39667,0.12715
1497.33706,0.12279
1495.27745,0.11829
1493.21784,0.11422
1491.15823,0.11001
1489.09862,0.10512
1487.03901,0.10036
1484.97940,0.09638
1482.91979,0.09291
1480.86018,0.08974
1478.80057,0.08693
1476.74096,0.08417
1474.68134,0.08140
1472.62173,0.07983
1470.56212,0.08013
1468.50251,0.08072
1466.44290,0.08043
1464.38329,0.07984
1462.32368,0.08027
1460.26407,0.08218
1458.20446,0.08535
1456.14485,0.08883
1454.08524,0.09100
1452.02563,0.09197
1449.96602,0.09246
1447.90640,0.09270
1445.84679,0.09261
1443.78718,0.09206
1441.72757,0.09111
1439.66796,0.08995
1437.60835,0.08870
1435.54874,0.08742
1433.48913,0.08632
1431.42952,0.08546
1429.36991,0.08486
1427.31030,0.08453
1425.25069,0.08447
1423.19107,0.08471
1421.13146,0.08534
1419.07185,0.08652
1417.01224,0.08794
1414.95263,0.08903
1412.89302,0.08991
1410.83341,0.09085
1408.77380,0.09185
1406.71419,0.09280
1404.65458,0.09365
1402.59497,0.09429
1400.53536,0.09474
1398.47574,0.09522
1396.41613,0.09575
1394.35652,0.09623
1392.29691,0.09657
1390.23730,0.09685
1388.17769,0.09721
1386.11808,0.09746
1384.05847,0.09737
1381.99886,0.09705
1379.93925,0.09671
1377.87964,0.09648
1375.82003,0.09640
1373.76041,0.09637
1371.70080,0.09622
1369.64119,0.09591
1367.58158,0.09547
1365.52197,0.09486
1363.46236,0.09414
1361.40275,0.09344
1359.34314,0.09289
1357.28353,0.09252
1355.22392,0.09231
1353.16431,0.09223
1351.10470,0.09227
1349.04508,0.09244
1346.98547,0.09274
1344.92586,0.09308
1342.86625,0.09344
1340.80664,0.09390
1338.74703,0.09445
1336.68742,0.09479
1334.62781,0.09480
1332.56820,0.09464
1330.50859,0.09444
1328.44898,0.09425
1326.38937,0.09402
1324.32976,0.09375
1322.27014,0.09356
1320.21053,0.09351
1318.15092,0.09350
1316.09131,0.09344
1314.03170,0.09330
1311.97209,0.09308
1309.91248,0.09273
1307.85287,0.09227
1305.79326,0.09179
1303.73365,0.09132
1301.67404,0.09079
1299.61443,0.09020
1297.55481,0.08955
1295.49520,0.08894
1293.43559,0.08842
1291.37598,0.08795
1289.31637,0.08756
1287.25676,0.08722
1285.19715,0.08683
1283.13754,0.08639
1281.07793,0.08596
1279.01832,0.08558
1276.95871,0.08526
1274.89910,0.08503
1272.83948,0.08492
1270.77987,0.08485
1268.72026,0.08481
1266.66065,0.08489
1264.60104,0.08507
1262.54143,0.08533
1260.48182,0.08574
1258.42221,0.08634
1256.36260,0.08710
1254.30299,0.08800
1252.24338,0.08890
1250.18377,0.08976
1248.12415,0.09074
1246.06454,0.09177
1244.00493,0.09263
1241.94532,0.09338
1239.88571,0.09412
1237.82610,0.09473
1235.76649,0.09519
1233.70688,0.09550
1231.64727,0.09561
1229.58766,0.09557
1227.52805,0.09545
1225.46844,0.09526
1223.40883,0.09496
1221.34921,0.09452
1219.28960,0.09397
1217.22999,0.09338
1215.17038,0.09270
1213.11077,0.09190
1211.05116,0.09096
1208.99155,0.08993
1206.93194,0.08886
1204.87233,0.08781
1202.81272,0.08673
1200.75311,0.08556
1198.69350,0.08440
1196.63388,0.08339
1194.57427,0.08251
1192.51466,0.08165
1190.45505,0.08083
1188.39544,0.08017
1186.33583,0.07966
1184.27622,0.07923
1182.21661,0.07895
1180.15700,0.07885
1178.09739,0.07898
1176.03778,0.07948
1173.97817,0.08023
1171.91855,0.08097
1169.85894,0.08161
1167.79933,0.08217
1165.73972,0.08264
1163.68011,0.08291
1161.62050,0.08299
1159.56089,0.08291
1157.50128,0.08264
1155.44167,0.08215
1153.38206,0.08149
1151.32245,0.08073
1149.26284,0.07994
1147.20322,0.07917
1145.14361,0.07842
1143.08400,0.07771
1141.02439,0.07707
1138.96478,0.07646
1136.90517,0.07596
1134.84556,0.07557
1132.78595,0.07519
1130.72634,0.07484
1128.66673,0.07457
1126.60712,0.07433
1124.54751,0.07409
1122.48790,0.07375
1120.42828,0.07332
1118.36867,0.07288
1116.30906,0.07241
1114.24945,0.07198
1112.18984,0.07165
1110.13023,0.07139
1108.07062,0.07125
1106.01101,0.07111
1103.95140,0.07095
1101.89179,0.07086
1099.83218,0.07079
1097.77257,0.07064
1095.71295,0.07051
1093.65334,0.07064
1091.59373,0.07118
1089.53412,0.07201
1087.47451,0.07289
1085.41490,0.07388
1083.35529,0.07519
1081.29568,0.07676
1079.23607,0.07827
1077.17646,0.07959
1075.11685,0.08086
1073.05724,0.08203
1070.99762,0.08300
1068.93801,0.08380
1066.87840,0.08452
1064.81879,0.08507
1062.75918,0.08536
1060.69957,0.08545
1058.63996,0.08541
1056.58035,0.08521
1054.52074,0.08475
1052.46113,0.08420
1050.40152,0.08376
1048.34191,0.08336
1046.28229,0.08293
1044.22268,0.08261
1042.16307,0.08241
1040.10346,0.08216
1038.04385,0.08183
1035.98424,0.08142
1033.92463,0.08091
1031.86502,0.08034
1029.80541,0.07957
1027.74580,0.07846
1025.68619,0.07714
1023.62658,0.07582
1021.56697,0.07460
1019.50735,0.07349
1017.44774,0.07238
1015.38813,0.07122
1013.32852,0.07013
1011.26891,0.06912
1009.20930,0.06813
1007.14969,0.06725
1005.09008,0.06652
1003.03047,0.06585
1000.97086,0.06524
998.91125,0.06461
996.85164,0.06388
994.79202,0.06329
992.73241,0.06294
990.67280,0.06264
988.61319,0.06230
986.55358,0.06198
984.49397,0.06171
982.43436,0.06152
980.37475,0.06142
978.31514,0.06137
976.25553,0.06139
974.19592,0.06138
972.13631,0.06141
970.07669,0.06170
968.01708,0.06216
965.95747,0.06251
963.89786,0.06264
961.83825,0.06256
959.77864,0.06233
957.71903,0.06200
955.65942,0.06161
953.59981,0.06122
951.54020,0.06094
949.48059,0.06076
947.42098,0.06049
945.36136,0.06008
943.30175,0.05975
941.24214,0.05960
939.18253,0.05954
937.12292,0.05954
935.06331,0.05964
933.00370,0.05968
930.94409,0.05961
928.88448,0.05950
926.82487,0.05924
924.76526,0.05888
922.70565,0.05868
920.64604,0.05849
918.58642,0.05797
916.52681,0.05730
914.46720,0.05681
912.40759,0.05643
910.34798,0.05612
908.28837,0.05597
906.22876,0.05599
904.16915,0.05603
902.10954,0.05592
900.04993,0.05574
897.99032,0.05570
895.93071,0.05567
893.87109,0.05537
891.81148,0.05495
889.75187,0.05466
887.69226,0.05447
885.63265,0.05417
883.57304,0.05376
881.51343,0.05349
879.45382,0.05346
877.39421,0.05354
875.33460,0.05351
873.27499,0.05333
871.21538,0.05317
869.15576,0.05305
867.09615,0.05291
865.03654,0.05263
862.97693,0.05219
860.91732,0.05186
858.85771,0.05183
856.79810,0.05201
854.73849,0.05216
852.67888,0.05219
850.61927,0.05220
848.55966,0.05216
846.50005,0.05206
844.44043,0.05198
842.38082,0.05185
840.32121,0.05168
838.26160,0.05165
836.20199,0.05195
834.14238,0.05250
832.08277,0.05333
830.02316,0.05450
827.96355,0.05551
825.90394,0.05581
823.84433,0.05543
821.78472,0.05475
819.72511,0.05418
817.66549,0.05397
815.60588,0.05414
813.54627,0.05451
811.48666,0.05486
809.42705,0.05514
807.36744,0.05532
805.30783,0.05538
803.24822,0.05552
801.18861,0.05587
799.12900,0.05628
797.06939,0.05656
795.00978,0.05676
792.95016,0.05699
790.89055,0.05729
788.83094,0.05774
786.77133,0.05834
784.71172,0.05905
782.65211,0.05981
780.59250,0.06054
778.53289,0.06124
776.47328,0.06180
774.41367,0.06227
772.35406,0.06287
770.29445,0.06354
768.23483,0.06412
766.17522,0.06458
764.11561,0.06494
762.05600,0.06528
759.99639,0.06567
757.93678,0.06597
755.87717,0.06615
753.81756,0.06649
751.75795,0.06722
749.69834,0.06805
747.63873,0.06851
745.57912,0.06868
743.51950,0.06890
741.45989,0.06912
739.40028,0.06931
737.34067,0.06942
735.28106,0.06935
733.22145,0.06893
731.16184,0.06836
729.10223,0.06849
727.04262,0.06983
724.98301,0.07143
722.92340,0.07242
720.86379,0.07318
718.80418,0.07486
716.74456,0.07760
714.68495,0.08045
712.62534,0.08265
710.56573,0.08444
708.50612,0.08638
706.44651,0.08873
704.38690,0.09123
702.32729,0.09337
700.26768,0.09500
698.20807,0.09620
696.14846,0.09686
694.08885,0.09704
692.02923,0.09721
689.96962,0.09761
687.91001,0.09804
685.85040,0.09832
683.79079,0.09879
681.73118,0.09949
679.67157,0.09993
677.61196,0.10034
675.55235,0.10115
673.49274,0.10179
671.43313,0.10239
669.37352,0.10370
667.31390,0.10267
665.25429,0.10328
663.19468,0.10409
661.13507,0.10479
659.07546,0.10522
657.01585,0.10538
654.95624,0.10557
652.89663,0.10616
650.83702,0.10683
648.77741,0.10728
646.71780,0.10775
644.65819,0.10850
642.59857,0.10930
640.53896,0.10980
638.47935,0.11036
636.41974,0.11137
634.36013,0.11239
632.30052,0.11313
630.24091,0.11385
628.18130,0.11459
626.12169,0.11508
624.06208,0.11542
622.00247,0.11579
619.94286,0.11609
617.88325,0.11623
615.82363,0.11629
613.76402,0.11652
611.70441,0.11672
609.64480,0.11663
607.58519,0.11647
605.52558,0.11645
603.46597,0.11647
601.40636,0.11641
599.34675,0.11650
597.28714,0.11676
595.22753,0.11691
593.16792,0.11700
591.10830,0.11724
589.04869,0.11751
586.98908,0.11745
584.92947,0.11720
582.86986,0.11723
580.81025,0.11749
578.75064,0.11790
576.69103,0.11827
574.63142,0.11827
572.57181,0.11843
570.51220,0.11908
568.45259,0.11952
566.39297,0.11976
564.33336,0.12049
562.27375,0.12145
560.21414,0.12205
558.15453,0.12232
556.09492,0.12266
554.03531,0.12318
551.97570,0.12346
549.91609,0.12352
547.85648,0.12375
545.79687,0.12400
543.73726,0.12414
541.67764,0.12426
539.61803,0.12474
537.55842,0.12568
535.49881,0.12634
533.43920,0.12624
531.37959,0.12594
529.31998,0.12620
527.26037,0.12709
525.20076,0.12765
523.14115,0.12735
521.08154,0.12725
519.02193,0.12774
516.96232,0.12810
514.90270,0.12803
512.84309,0.12753
510.78348,0.12693
508.72387,0.12640
506.66426,0.12580
504.60465,0.12540
502.54504,0.12540
500.48543,0.12528
498.42582,0.12461
496.36621,0.12385
494.30660,0.12374
492.24699,0.12407
490.18737,0.12391
488.12776,0.12294
486.06815,0.12191
484.00854,0.12166
481.94893,0.12190
479.88932,0.12172
477.82971,0.12132
475.77010,0.12173
473.71049,0.12285
471.65088,0.12368
469.59127,0.12393
467.53166,0.12379
465.47204,0.12347
463.41243,0.12318
461.35282,0.12294
459.29321,0.12283
457.23360,0.12260
455.17399,0.12204
453.11438,0.12164
451.05477,0.12153
448.99516,0.12154
446.93555,0.12187
444.87594,0.12205
442.81633,0.12134
440.75671,0.12028
438.69710,0.11963
436.63749,0.11884
434.57788,0.11764
432.51827,0.11670
430.45866,0.11590
428.39905,0.11461
426.33944,0.11352
424.27983,0.11359
422.22022,0.11414
420.16061,0.11425
418.10100,0.11375
416.04138,0.11255
413.98177,0.11170
411.92216,0.11213
409.86255,0.11284
407.80294,0.11223
405.74333,0.11003
403.68372,0.10739
401.62411,0.10573
399.56450,0.10521
