Created as New Dataset,Sample 330 By YargerLab Date Monday, August 19 2024
cm-1,A
4000.00,0.0116
3999.00,0.0116
3998.00,0.0116
3997.00,0.0116
3996.00,0.0116
3995.00,0.0116
3994.00,0.0116
3993.00,0.0116
3992.00,0.0116
3991.00,0.0116
3990.00,0.0115
3989.00,0.0115
3988.00,0.0115
3987.00,0.0115
3986.00,0.0115
3985.00,0.0115
3984.00,0.0115
3983.00,0.0115
3982.00,0.0115
3981.00,0.0115
3980.00,0.0116
3979.00,0.0116
3978.00,0.0116
3977.00,0.0116
3976.00,0.0116
3975.00,0.0116
3974.00,0.0116
3973.00,0.0116
3972.00,0.0115
3971.00,0.0115
3970.00,0.0115
3969.00,0.0115
3968.00,0.0115
3967.00,0.0115
3966.00,0.0116
3965.00,0.0116
3964.00,0.0116
3963.00,0.0116
3962.00,0.0115
3961.00,0.0115
3960.00,0.0115
3959.00,0.0115
3958.00,0.0115
3957.00,0.0115
3956.00,0.0115
3955.00,0.0115
3954.00,0.0115
3953.00,0.0115
3952.00,0.0115
3951.00,0.0115
3950.00,0.0115
3949.00,0.0115
3948.00,0.0115
3947.00,0.0115
3946.00,0.0115
3945.00,0.0115
3944.00,0.0115
3943.00,0.0115
3942.00,0.0115
3941.00,0.0115
3940.00,0.0115
3939.00,0.0115
3938.00,0.0115
3937.00,0.0115
3936.00,0.0115
3935.00,0.0115
3934.00,0.0115
3933.00,0.0115
3932.00,0.0115
3931.00,0.0115
3930.00,0.0114
3929.00,0.0114
3928.00,0.0114
3927.00,0.0114
3926.00,0.0114
3925.00,0.0114
3924.00,0.0114
3923.00,0.0114
3922.00,0.0114
3921.00,0.0115
3920.00,0.0115
3919.00,0.0114
3918.00,0.0114
3917.00,0.0114
3916.00,0.0114
3915.00,0.0114
3914.00,0.0114
3913.00,0.0114
3912.00,0.0114
3911.00,0.0114
3910.00,0.0114
3909.00,0.0114
3908.00,0.0114
3907.00,0.0114
3906.00,0.0114
3905.00,0.0114
3904.00,0.0113
3903.00,0.0113
3902.00,0.0113
3901.00,0.0113
3900.00,0.0113
3899.00,0.0113
3898.00,0.0113
3897.00,0.0113
3896.00,0.0113
3895.00,0.0113
3894.00,0.0113
3893.00,0.0113
3892.00,0.0113
3891.00,0.0113
3890.00,0.0113
3889.00,0.0113
3888.00,0.0113
3887.00,0.0114
3886.00,0.0113
3885.00,0.0113
3884.00,0.0113
3883.00,0.0113
3882.00,0.0113
3881.00,0.0113
3880.00,0.0113
3879.00,0.0113
3878.00,0.0113
3877.00,0.0113
3876.00,0.0113
3875.00,0.0113
3874.00,0.0113
3873.00,0.0113
3872.00,0.0113
3871.00,0.0113
3870.00,0.0113
3869.00,0.0112
3868.00,0.0112
3867.00,0.0113
3866.00,0.0113
3865.00,0.0112
3864.00,0.0112
3863.00,0.0112
3862.00,0.0112
3861.00,0.0112
3860.00,0.0112
3859.00,0.0112
3858.00,0.0112
3857.00,0.0112
3856.00,0.0112
3855.00,0.0112
3854.00,0.0112
3853.00,0.0112
3852.00,0.0112
3851.00,0.0112
3850.00,0.0112
3849.00,0.0112
3848.00,0.0112
3847.00,0.0112
3846.00,0.0112
3845.00,0.0112
3844.00,0.0112
3843.00,0.0112
3842.00,0.0112
3841.00,0.0112
3840.00,0.0112
3839.00,0.0112
3838.00,0.0112
3837.00,0.0112
3836.00,0.0112
3835.00,0.0112
3834.00,0.0112
3833.00,0.0112
3832.00,0.0111
3831.00,0.0111
3830.00,0.0111
3829.00,0.0111
3828.00,0.0111
3827.00,0.0111
3826.00,0.0111
3825.00,0.0111
3824.00,0.0111
3823.00,0.0111
3822.00,0.0111
3821.00,0.0111
3820.00,0.0110
3819.00,0.0111
3818.00,0.0111
3817.00,0.0111
3816.00,0.0111
3815.00,0.0111
3814.00,0.0111
3813.00,0.0111
3812.00,0.0110
3811.00,0.0110
3810.00,0.0110
3809.00,0.0110
3808.00,0.0110
3807.00,0.0110
3806.00,0.0110
3805.00,0.0110
3804.00,0.0110
3803.00,0.0110
3802.00,0.0110
3801.00,0.0110
3800.00,0.0110
3799.00,0.0110
3798.00,0.0110
3797.00,0.0110
3796.00,0.0110
3795.00,0.0110
3794.00,0.0110
3793.00,0.0110
3792.00,0.0110
3791.00,0.0110
3790.00,0.0109
3789.00,0.0109
3788.00,0.0109
3787.00,0.0109
3786.00,0.0109
3785.00,0.0109
3784.00,0.0109
3783.00,0.0109
3782.00,0.0109
3781.00,0.0109
3780.00,0.0109
3779.00,0.0109
3778.00,0.0109
3777.00,0.0109
3776.00,0.0109
3775.00,0.0109
3774.00,0.0109
3773.00,0.0109
3772.00,0.0109
3771.00,0.0109
3770.00,0.0109
3769.00,0.0109
3768.00,0.0109
3767.00,0.0109
3766.00,0.0109
3765.00,0.0109
3764.00,0.0108
3763.00,0.0108
3762.00,0.0108
3761.00,0.0108
3760.00,0.0108
3759.00,0.0108
3758.00,0.0108
3757.00,0.0108
3756.00,0.0108
3755.00,0.0108
3754.00,0.0108
3753.00,0.0108
3752.00,0.0108
3751.00,0.0108
3750.00,0.0108
3749.00,0.0108
3748.00,0.0108
3747.00,0.0108
3746.00,0.0108
3745.00,0.0108
3744.00,0.0108
3743.00,0.0108
3742.00,0.0108
3741.00,0.0107
3740.00,0.0107
3739.00,0.0107
3738.00,0.0107
3737.00,0.0106
3736.00,0.0106
3735.00,0.0106
3734.00,0.0106
3733.00,0.0106
3732.00,0.0106
3731.00,0.0106
3730.00,0.0106
3729.00,0.0106
3728.00,0.0106
3727.00,0.0106
3726.00,0.0106
3725.00,0.0105
3724.00,0.0105
3723.00,0.0105
3722.00,0.0105
3721.00,0.0105
3720.00,0.0105
3719.00,0.0105
3718.00,0.0105
3717.00,0.0105
3716.00,0.0105
3715.00,0.0105
3714.00,0.0105
3713.00,0.0105
3712.00,0.0105
3711.00,0.0105
3710.00,0.0104
3709.00,0.0104
3708.00,0.0104
3707.00,0.0104
3706.00,0.0104
3705.00,0.0104
3704.00,0.0104
3703.00,0.0104
3702.00,0.0104
3701.00,0.0104
3700.00,0.0104
3699.00,0.0104
3698.00,0.0104
3697.00,0.0104
3696.00,0.0104
3695.00,0.0104
3694.00,0.0104
3693.00,0.0104
3692.00,0.0104
3691.00,0.0104
3690.00,0.0104
3689.00,0.0104
3688.00,0.0105
3687.00,0.0105
3686.00,0.0105
3685.00,0.0105
3684.00,0.0105
3683.00,0.0105
3682.00,0.0105
3681.00,0.0105
3680.00,0.0105
3679.00,0.0105
3678.00,0.0105
3677.00,0.0106
3676.00,0.0106
3675.00,0.0106
3674.00,0.0106
3673.00,0.0107
3672.00,0.0107
3671.00,0.0107
3670.00,0.0107
3669.00,0.0107
3668.00,0.0107
3667.00,0.0108
3666.00,0.0108
3665.00,0.0108
3664.00,0.0108
3663.00,0.0108
3662.00,0.0108
3661.00,0.0109
3660.00,0.0109
3659.00,0.0109
3658.00,0.0110
3657.00,0.0110
3656.00,0.0110
3655.00,0.0110
3654.00,0.0110
3653.00,0.0111
3652.00,0.0111
3651.00,0.0112
3650.00,0.0112
3649.00,0.0113
3648.00,0.0113
3647.00,0.0113
3646.00,0.0114
3645.00,0.0114
3644.00,0.0114
3643.00,0.0115
3642.00,0.0115
3641.00,0.0115
3640.00,0.0116
3639.00,0.0116
3638.00,0.0116
3637.00,0.0117
3636.00,0.0117
3635.00,0.0118
3634.00,0.0118
3633.00,0.0119
3632.00,0.0119
3631.00,0.0120
3630.00,0.0120
3629.00,0.0120
3628.00,0.0121
3627.00,0.0121
3626.00,0.0122
3625.00,0.0122
3624.00,0.0123
3623.00,0.0123
3622.00,0.0124
3621.00,0.0125
3620.00,0.0125
3619.00,0.0126
3618.00,0.0126
3617.00,0.0127
3616.00,0.0128
3615.00,0.0128
3614.00,0.0129
3613.00,0.0129
3612.00,0.0130
3611.00,0.0130
3610.00,0.0131
3609.00,0.0131
3608.00,0.0132
3607.00,0.0133
3606.00,0.0133
3605.00,0.0134
3604.00,0.0134
3603.00,0.0135
3602.00,0.0136
3601.00,0.0136
3600.00,0.0137
3599.00,0.0137
3598.00,0.0138
3597.00,0.0138
3596.00,0.0139
3595.00,0.0139
3594.00,0.0140
3593.00,0.0140
3592.00,0.0141
3591.00,0.0142
3590.00,0.0142
3589.00,0.0143
3588.00,0.0144
3587.00,0.0144
3586.00,0.0145
3585.00,0.0146
3584.00,0.0147
3583.00,0.0147
3582.00,0.0148
3581.00,0.0149
3580.00,0.0149
3579.00,0.0150
3578.00,0.0151
3577.00,0.0151
3576.00,0.0152
3575.00,0.0153
3574.00,0.0154
3573.00,0.0154
3572.00,0.0155
3571.00,0.0155
3570.00,0.0156
3569.00,0.0157
3568.00,0.0158
3567.00,0.0158
3566.00,0.0159
3565.00,0.0160
3564.00,0.0161
3563.00,0.0161
3562.00,0.0162
3561.00,0.0163
3560.00,0.0164
3559.00,0.0165
3558.00,0.0165
3557.00,0.0166
3556.00,0.0167
3555.00,0.0167
3554.00,0.0168
3553.00,0.0169
3552.00,0.0170
3551.00,0.0170
3550.00,0.0171
3549.00,0.0172
3548.00,0.0173
3547.00,0.0174
3546.00,0.0175
3545.00,0.0176
3544.00,0.0176
3543.00,0.0177
3542.00,0.0178
3541.00,0.0178
3540.00,0.0179
3539.00,0.0180
3538.00,0.0180
3537.00,0.0181
3536.00,0.0182
3535.00,0.0183
3534.00,0.0184
3533.00,0.0184
3532.00,0.0185
3531.00,0.0186
3530.00,0.0187
3529.00,0.0187
3528.00,0.0188
3527.00,0.0189
3526.00,0.0190
3525.00,0.0190
3524.00,0.0191
3523.00,0.0192
3522.00,0.0192
3521.00,0.0193
3520.00,0.0194
3519.00,0.0195
3518.00,0.0196
3517.00,0.0196
3516.00,0.0197
3515.00,0.0198
3514.00,0.0199
3513.00,0.0199
3512.00,0.0200
3511.00,0.0201
3510.00,0.0201
3509.00,0.0202
3508.00,0.0203
3507.00,0.0204
3506.00,0.0205
3505.00,0.0205
3504.00,0.0206
3503.00,0.0207
3502.00,0.0208
3501.00,0.0209
3500.00,0.0209
3499.00,0.0210
3498.00,0.0211
3497.00,0.0212
3496.00,0.0213
3495.00,0.0213
3494.00,0.0214
3493.00,0.0215
3492.00,0.0216
3491.00,0.0217
3490.00,0.0217
3489.00,0.0218
3488.00,0.0219
3487.00,0.0220
3486.00,0.0221
3485.00,0.0221
3484.00,0.0222
3483.00,0.0223
3482.00,0.0224
3481.00,0.0225
3480.00,0.0226
3479.00,0.0227
3478.00,0.0227
3477.00,0.0228
3476.00,0.0229
3475.00,0.0230
3474.00,0.0230
3473.00,0.0231
3472.00,0.0232
3471.00,0.0233
3470.00,0.0234
3469.00,0.0234
3468.00,0.0235
3467.00,0.0236
3466.00,0.0237
3465.00,0.0237
3464.00,0.0238
3463.00,0.0239
3462.00,0.0240
3461.00,0.0241
3460.00,0.0241
3459.00,0.0242
3458.00,0.0243
3457.00,0.0244
3456.00,0.0244
3455.00,0.0245
3454.00,0.0246
3453.00,0.0247
3452.00,0.0247
3451.00,0.0248
3450.00,0.0249
3449.00,0.0250
3448.00,0.0250
3447.00,0.0251
3446.00,0.0252
3445.00,0.0252
3444.00,0.0253
3443.00,0.0254
3442.00,0.0255
3441.00,0.0256
3440.00,0.0257
3439.00,0.0258
3438.00,0.0259
3437.00,0.0259
3436.00,0.0260
3435.00,0.0261
3434.00,0.0262
3433.00,0.0263
3432.00,0.0264
3431.00,0.0264
3430.00,0.0265
3429.00,0.0266
3428.00,0.0267
3427.00,0.0267
3426.00,0.0268
3425.00,0.0269
3424.00,0.0270
3423.00,0.0271
3422.00,0.0272
3421.00,0.0272
3420.00,0.0273
3419.00,0.0274
3418.00,0.0275
3417.00,0.0276
3416.00,0.0276
3415.00,0.0277
3414.00,0.0278
3413.00,0.0279
3412.00,0.0280
3411.00,0.0281
3410.00,0.0281
3409.00,0.0282
3408.00,0.0283
3407.00,0.0284
3406.00,0.0284
3405.00,0.0285
3404.00,0.0286
3403.00,0.0287
3402.00,0.0288
3401.00,0.0288
3400.00,0.0289
3399.00,0.0290
3398.00,0.0291
3397.00,0.0291
3396.00,0.0292
3395.00,0.0293
3394.00,0.0293
3393.00,0.0294
3392.00,0.0295
3391.00,0.0295
3390.00,0.0296
3389.00,0.0297
3388.00,0.0298
3387.00,0.0299
3386.00,0.0300
3385.00,0.0300
3384.00,0.0301
3383.00,0.0302
3382.00,0.0303
3381.00,0.0303
3380.00,0.0304
3379.00,0.0305
3378.00,0.0306
3377.00,0.0307
3376.00,0.0308
3375.00,0.0308
3374.00,0.0309
3373.00,0.0310
3372.00,0.0311
3371.00,0.0312
3370.00,0.0313
3369.00,0.0314
3368.00,0.0315
3367.00,0.0316
3366.00,0.0317
3365.00,0.0318
3364.00,0.0319
3363.00,0.0320
3362.00,0.0321
3361.00,0.0323
3360.00,0.0324
3359.00,0.0325
3358.00,0.0326
3357.00,0.0327
3356.00,0.0328
3355.00,0.0329
3354.00,0.0330
3353.00,0.0331
3352.00,0.0332
3351.00,0.0333
3350.00,0.0335
3349.00,0.0336
3348.00,0.0337
3347.00,0.0339
3346.00,0.0340
3345.00,0.0341
3344.00,0.0342
3343.00,0.0343
3342.00,0.0345
3341.00,0.0346
3340.00,0.0347
3339.00,0.0348
3338.00,0.0350
3337.00,0.0351
3336.00,0.0353
3335.00,0.0354
3334.00,0.0356
3333.00,0.0357
3332.00,0.0359
3331.00,0.0360
3330.00,0.0362
3329.00,0.0363
3328.00,0.0365
3327.00,0.0366
3326.00,0.0368
3325.00,0.0369
3324.00,0.0371
3323.00,0.0373
3322.00,0.0375
3321.00,0.0376
3320.00,0.0378
3319.00,0.0380
3318.00,0.0382
3317.00,0.0384
3316.00,0.0386
3315.00,0.0388
3314.00,0.0389
3313.00,0.0391
3312.00,0.0393
3311.00,0.0394
3310.00,0.0396
3309.00,0.0397
3308.00,0.0399
3307.00,0.0401
3306.00,0.0403
3305.00,0.0406
3304.00,0.0408
3303.00,0.0411
3302.00,0.0413
3301.00,0.0415
3300.00,0.0417
3299.00,0.0419
3298.00,0.0421
3297.00,0.0422
3296.00,0.0424
3295.00,0.0426
3294.00,0.0428
3293.00,0.0429
3292.00,0.0432
3291.00,0.0434
3290.00,0.0436
3289.00,0.0438
3288.00,0.0440
3287.00,0.0441
3286.00,0.0442
3285.00,0.0444
3284.00,0.0445
3283.00,0.0446
3282.00,0.0447
3281.00,0.0448
3280.00,0.0449
3279.00,0.0449
3278.00,0.0450
3277.00,0.0450
3276.00,0.0450
3275.00,0.0450
3274.00,0.0450
3273.00,0.0450
3272.00,0.0449
3271.00,0.0449
3270.00,0.0449
3269.00,0.0449
3268.00,0.0448
3267.00,0.0448
3266.00,0.0447
3265.00,0.0446
3264.00,0.0445
3263.00,0.0444
3262.00,0.0442
3261.00,0.0441
3260.00,0.0439
3259.00,0.0438
3258.00,0.0436
3257.00,0.0434
3256.00,0.0433
3255.00,0.0431
3254.00,0.0430
3253.00,0.0428
3252.00,0.0427
3251.00,0.0425
3250.00,0.0423
3249.00,0.0421
3248.00,0.0419
3247.00,0.0418
3246.00,0.0416
3245.00,0.0415
3244.00,0.0414
3243.00,0.0413
3242.00,0.0411
3241.00,0.0410
3240.00,0.0408
3239.00,0.0407
3238.00,0.0405
3237.00,0.0404
3236.00,0.0402
3235.00,0.0400
3234.00,0.0399
3233.00,0.0398
3232.00,0.0398
3231.00,0.0397
3230.00,0.0396
3229.00,0.0395
3228.00,0.0394
3227.00,0.0393
3226.00,0.0392
3225.00,0.0391
3224.00,0.0390
3223.00,0.0389
3222.00,0.0388
3221.00,0.0387
3220.00,0.0386
3219.00,0.0385
3218.00,0.0384
3217.00,0.0383
3216.00,0.0382
3215.00,0.0381
3214.00,0.0380
3213.00,0.0380
3212.00,0.0379
3211.00,0.0378
3210.00,0.0377
3209.00,0.0376
3208.00,0.0375
3207.00,0.0374
3206.00,0.0373
3205.00,0.0372
3204.00,0.0371
3203.00,0.0370
3202.00,0.0370
3201.00,0.0369
3200.00,0.0368
3199.00,0.0367
3198.00,0.0366
3197.00,0.0365
3196.00,0.0364
3195.00,0.0363
3194.00,0.0362
3193.00,0.0361
3192.00,0.0360
3191.00,0.0359
3190.00,0.0358
3189.00,0.0357
3188.00,0.0356
3187.00,0.0355
3186.00,0.0354
3185.00,0.0353
3184.00,0.0352
3183.00,0.0350
3182.00,0.0349
3181.00,0.0348
3180.00,0.0347
3179.00,0.0346
3178.00,0.0345
3177.00,0.0344
3176.00,0.0343
3175.00,0.0342
3174.00,0.0341
3173.00,0.0339
3172.00,0.0338
3171.00,0.0337
3170.00,0.0336
3169.00,0.0335
3168.00,0.0334
3167.00,0.0332
3166.00,0.0331
3165.00,0.0330
3164.00,0.0329
3163.00,0.0328
3162.00,0.0327
3161.00,0.0325
3160.00,0.0324
3159.00,0.0323
3158.00,0.0322
3157.00,0.0321
3156.00,0.0320
3155.00,0.0319
3154.00,0.0318
3153.00,0.0316
3152.00,0.0315
3151.00,0.0315
3150.00,0.0314
3149.00,0.0313
3148.00,0.0312
3147.00,0.0311
3146.00,0.0310
3145.00,0.0310
3144.00,0.0309
3143.00,0.0308
3142.00,0.0306
3141.00,0.0305
3140.00,0.0304
3139.00,0.0303
3138.00,0.0303
3137.00,0.0302
3136.00,0.0301
3135.00,0.0301
3134.00,0.0300
3133.00,0.0299
3132.00,0.0298
3131.00,0.0298
3130.00,0.0297
3129.00,0.0296
3128.00,0.0296
3127.00,0.0295
3126.00,0.0295
3125.00,0.0294
3124.00,0.0293
3123.00,0.0292
3122.00,0.0292
3121.00,0.0291
3120.00,0.0290
3119.00,0.0290
3118.00,0.0289
3117.00,0.0289
3116.00,0.0289
3115.00,0.0289
3114.00,0.0289
3113.00,0.0289
3112.00,0.0289
3111.00,0.0288
3110.00,0.0288
3109.00,0.0288
3108.00,0.0288
3107.00,0.0288
3106.00,0.0288
3105.00,0.0288
3104.00,0.0288
3103.00,0.0288
3102.00,0.0288
3101.00,0.0288
3100.00,0.0288
3099.00,0.0288
3098.00,0.0288
3097.00,0.0289
3096.00,0.0289
3095.00,0.0289
3094.00,0.0289
3093.00,0.0289
3092.00,0.0289
3091.00,0.0289
3090.00,0.0289
3089.00,0.0289
3088.00,0.0290
3087.00,0.0290
3086.00,0.0290
3085.00,0.0290
3084.00,0.0290
3083.00,0.0289
3082.00,0.0289
3081.00,0.0289
3080.00,0.0290
3079.00,0.0290
3078.00,0.0290
3077.00,0.0291
3076.00,0.0291
3075.00,0.0292
3074.00,0.0292
3073.00,0.0292
3072.00,0.0292
3071.00,0.0291
3070.00,0.0291
3069.00,0.0290
3068.00,0.0290
3067.00,0.0290
3066.00,0.0290
3065.00,0.0290
3064.00,0.0290
3063.00,0.0290
3062.00,0.0290
3061.00,0.0290
3060.00,0.0289
3059.00,0.0288
3058.00,0.0288
3057.00,0.0287
3056.00,0.0286
3055.00,0.0286
3054.00,0.0285
3053.00,0.0284
3052.00,0.0283
3051.00,0.0282
3050.00,0.0282
3049.00,0.0281
3048.00,0.0281
3047.00,0.0280
3046.00,0.0279
3045.00,0.0278
3044.00,0.0277
3043.00,0.0276
3042.00,0.0275
3041.00,0.0275
3040.00,0.0274
3039.00,0.0274
3038.00,0.0273
3037.00,0.0272
3036.00,0.0271
3035.00,0.0270
3034.00,0.0269
3033.00,0.0269
3032.00,0.0268
3031.00,0.0268
3030.00,0.0267
3029.00,0.0267
3028.00,0.0266
3027.00,0.0265
3026.00,0.0264
3025.00,0.0263
3024.00,0.0262
3023.00,0.0261
3022.00,0.0261
3021.00,0.0260
3020.00,0.0258
3019.00,0.0257
3018.00,0.0256
3017.00,0.0256
3016.00,0.0255
3015.00,0.0254
3014.00,0.0253
3013.00,0.0253
3012.00,0.0253
3011.00,0.0253
3010.00,0.0252
3009.00,0.0252
3008.00,0.0252
3007.00,0.0252
3006.00,0.0251
3005.00,0.0251
3004.00,0.0250
3003.00,0.0250
3002.00,0.0250
3001.00,0.0250
3000.00,0.0249
2999.00,0.0249
2998.00,0.0249
2997.00,0.0249
2996.00,0.0250
2995.00,0.0250
2994.00,0.0250
2993.00,0.0250
2992.00,0.0251
2991.00,0.0252
2990.00,0.0253
2989.00,0.0254
2988.00,0.0255
2987.00,0.0255
2986.00,0.0256
2985.00,0.0257
2984.00,0.0258
2983.00,0.0260
2982.00,0.0261
2981.00,0.0262
2980.00,0.0264
2979.00,0.0265
2978.00,0.0267
2977.00,0.0268
2976.00,0.0270
2975.00,0.0272
2974.00,0.0273
2973.00,0.0275
2972.00,0.0276
2971.00,0.0277
2970.00,0.0279
2969.00,0.0280
2968.00,0.0281
2967.00,0.0283
2966.00,0.0284
2965.00,0.0284
2964.00,0.0285
2963.00,0.0286
2962.00,0.0286
2961.00,0.0286
2960.00,0.0286
2959.00,0.0286
2958.00,0.0286
2957.00,0.0286
2956.00,0.0286
2955.00,0.0285
2954.00,0.0285
2953.00,0.0285
2952.00,0.0285
2951.00,0.0285
2950.00,0.0285
2949.00,0.0285
2948.00,0.0285
2947.00,0.0286
2946.00,0.0286
2945.00,0.0287
2944.00,0.0288
2943.00,0.0290
2942.00,0.0291
2941.00,0.0293
2940.00,0.0294
2939.00,0.0296
2938.00,0.0297
2937.00,0.0298
2936.00,0.0299
2935.00,0.0300
2934.00,0.0301
2933.00,0.0301
2932.00,0.0301
2931.00,0.0301
2930.00,0.0300
2929.00,0.0299
2928.00,0.0298
2927.00,0.0296
2926.00,0.0293
2925.00,0.0290
2924.00,0.0286
2923.00,0.0281
2922.00,0.0276
2921.00,0.0270
2920.00,0.0263
2919.00,0.0257
2918.00,0.0251
2917.00,0.0246
2916.00,0.0244
2915.00,0.0245
2914.00,0.0247
2913.00,0.0251
2912.00,0.0256
2911.00,0.0259
2910.00,0.0262
2909.00,0.0263
2908.00,0.0264
2907.00,0.0264
2906.00,0.0263
2905.00,0.0263
2904.00,0.0262
2903.00,0.0262
2902.00,0.0261
2901.00,0.0260
2900.00,0.0259
2899.00,0.0259
2898.00,0.0258
2897.00,0.0257
2896.00,0.0257
2895.00,0.0256
2894.00,0.0256
2893.00,0.0256
2892.00,0.0255
2891.00,0.0255
2890.00,0.0255
2889.00,0.0255
2888.00,0.0255
2887.00,0.0255
2886.00,0.0255
2885.00,0.0255
2884.00,0.0256
2883.00,0.0257
2882.00,0.0257
2881.00,0.0258
2880.00,0.0259
2879.00,0.0259
2878.00,0.0260
2877.00,0.0260
2876.00,0.0261
2875.00,0.0261
2874.00,0.0261
2873.00,0.0261
2872.00,0.0260
2871.00,0.0260
2870.00,0.0259
2869.00,0.0259
2868.00,0.0258
2867.00,0.0257
2866.00,0.0256
2865.00,0.0255
2864.00,0.0254
2863.00,0.0253
2862.00,0.0252
2861.00,0.0251
2860.00,0.0251
2859.00,0.0250
2858.00,0.0249
2857.00,0.0248
2856.00,0.0246
2855.00,0.0243
2854.00,0.0240
2853.00,0.0235
2852.00,0.0229
2851.00,0.0222
2850.00,0.0217
2849.00,0.0214
2848.00,0.0213
2847.00,0.0215
2846.00,0.0219
2845.00,0.0222
2844.00,0.0225
2843.00,0.0227
2842.00,0.0227
2841.00,0.0227
2840.00,0.0227
2839.00,0.0227
2838.00,0.0226
2837.00,0.0226
2836.00,0.0225
2835.00,0.0225
2834.00,0.0224
2833.00,0.0224
2832.00,0.0223
2831.00,0.0223
2830.00,0.0222
2829.00,0.0222
2828.00,0.0221
2827.00,0.0221
2826.00,0.0220
2825.00,0.0220
2824.00,0.0219
2823.00,0.0219
2822.00,0.0218
2821.00,0.0218
2820.00,0.0218
2819.00,0.0217
2818.00,0.0217
2817.00,0.0217
2816.00,0.0217
2815.00,0.0216
2814.00,0.0216
2813.00,0.0215
2812.00,0.0215
2811.00,0.0215
2810.00,0.0214
2809.00,0.0214
2808.00,0.0213
2807.00,0.0213
2806.00,0.0213
2805.00,0.0213
2804.00,0.0212
2803.00,0.0212
2802.00,0.0212
2801.00,0.0211
2800.00,0.0211
2799.00,0.0210
2798.00,0.0210
2797.00,0.0210
2796.00,0.0209
2795.00,0.0209
2794.00,0.0209
2793.00,0.0209
2792.00,0.0208
2791.00,0.0208
2790.00,0.0208
2789.00,0.0207
2788.00,0.0207
2787.00,0.0207
2786.00,0.0206
2785.00,0.0206
2784.00,0.0206
2783.00,0.0206
2782.00,0.0205
2781.00,0.0205
2780.00,0.0205
2779.00,0.0204
2778.00,0.0204
2777.00,0.0204
2776.00,0.0203
2775.00,0.0203
2774.00,0.0203
2773.00,0.0203
2772.00,0.0202
2771.00,0.0202
2770.00,0.0202
2769.00,0.0201
2768.00,0.0201
2767.00,0.0201
2766.00,0.0201
2765.00,0.0200
2764.00,0.0200
2763.00,0.0200
2762.00,0.0199
2761.00,0.0199
2760.00,0.0199
2759.00,0.0199
2758.00,0.0198
2757.00,0.0198
2756.00,0.0198
2755.00,0.0198
2754.00,0.0197
2753.00,0.0197
2752.00,0.0197
2751.00,0.0196
2750.00,0.0196
2749.00,0.0196
2748.00,0.0195
2747.00,0.0195
2746.00,0.0195
2745.00,0.0195
2744.00,0.0195
2743.00,0.0194
2742.00,0.0194
2741.00,0.0194
2740.00,0.0194
2739.00,0.0193
2738.00,0.0193
2737.00,0.0193
2736.00,0.0192
2735.00,0.0192
2734.00,0.0192
2733.00,0.0192
2732.00,0.0191
2731.00,0.0191
2730.00,0.0191
2729.00,0.0190
2728.00,0.0190
2727.00,0.0190
2726.00,0.0189
2725.00,0.0189
2724.00,0.0189
2723.00,0.0189
2722.00,0.0189
2721.00,0.0188
2720.00,0.0188
2719.00,0.0188
2718.00,0.0188
2717.00,0.0187
2716.00,0.0187
2715.00,0.0187
2714.00,0.0186
2713.00,0.0186
2712.00,0.0186
2711.00,0.0186
2710.00,0.0185
2709.00,0.0185
2708.00,0.0185
2707.00,0.0185
2706.00,0.0184
2705.00,0.0184
2704.00,0.0184
2703.00,0.0184
2702.00,0.0183
2701.00,0.0183
2700.00,0.0183
2699.00,0.0183
2698.00,0.0183
2697.00,0.0182
2696.00,0.0182
2695.00,0.0182
2694.00,0.0182
2693.00,0.0182
2692.00,0.0182
2691.00,0.0181
2690.00,0.0181
2689.00,0.0181
2688.00,0.0181
2687.00,0.0181
2686.00,0.0180
2685.00,0.0180
2684.00,0.0180
2683.00,0.0180
2682.00,0.0180
2681.00,0.0180
2680.00,0.0180
2679.00,0.0180
2678.00,0.0179
2677.00,0.0179
2676.00,0.0179
2675.00,0.0179
2674.00,0.0179
2673.00,0.0179
2672.00,0.0179
2671.00,0.0178
2670.00,0.0178
2669.00,0.0178
2668.00,0.0178
2667.00,0.0178
2666.00,0.0179
2665.00,0.0179
2664.00,0.0179
2663.00,0.0179
2662.00,0.0180
2661.00,0.0180
2660.00,0.0180
2659.00,0.0180
2658.00,0.0180
2657.00,0.0180
2656.00,0.0180
2655.00,0.0180
2654.00,0.0179
2653.00,0.0179
2652.00,0.0179
2651.00,0.0179
2650.00,0.0179
2649.00,0.0179
2648.00,0.0179
2647.00,0.0178
2646.00,0.0178
2645.00,0.0178
2644.00,0.0178
2643.00,0.0177
2642.00,0.0177
2641.00,0.0177
2640.00,0.0177
2639.00,0.0176
2638.00,0.0176
2637.00,0.0176
2636.00,0.0176
2635.00,0.0176
2634.00,0.0176
2633.00,0.0175
2632.00,0.0175
2631.00,0.0175
2630.00,0.0175
2629.00,0.0174
2628.00,0.0174
2627.00,0.0174
2626.00,0.0174
2625.00,0.0173
2624.00,0.0173
2623.00,0.0173
2622.00,0.0173
2621.00,0.0173
2620.00,0.0173
2619.00,0.0172
2618.00,0.0172
2617.00,0.0172
2616.00,0.0171
2615.00,0.0171
2614.00,0.0171
2613.00,0.0170
2612.00,0.0170
2611.00,0.0170
2610.00,0.0170
2609.00,0.0170
2608.00,0.0170
2607.00,0.0169
2606.00,0.0169
2605.00,0.0169
2604.00,0.0169
2603.00,0.0168
2602.00,0.0168
2601.00,0.0168
2600.00,0.0168
2599.00,0.0167
2598.00,0.0167
2597.00,0.0167
2596.00,0.0167
2595.00,0.0167
2594.00,0.0166
2593.00,0.0166
2592.00,0.0166
2591.00,0.0166
2590.00,0.0165
2589.00,0.0165
2588.00,0.0165
2587.00,0.0165
2586.00,0.0164
2585.00,0.0164
2584.00,0.0164
2583.00,0.0164
2582.00,0.0164
2581.00,0.0163
2580.00,0.0163
2579.00,0.0163
2578.00,0.0163
2577.00,0.0163
2576.00,0.0162
2575.00,0.0162
2574.00,0.0162
2573.00,0.0162
2572.00,0.0162
2571.00,0.0161
2570.00,0.0161
2569.00,0.0161
2568.00,0.0161
2567.00,0.0161
2566.00,0.0161
2565.00,0.0160
2564.00,0.0160
2563.00,0.0160
2562.00,0.0160
2561.00,0.0160
2560.00,0.0160
2559.00,0.0160
2558.00,0.0159
2557.00,0.0159
2556.00,0.0159
2555.00,0.0159
2554.00,0.0159
2553.00,0.0159
2552.00,0.0158
2551.00,0.0158
2550.00,0.0158
2549.00,0.0158
2548.00,0.0158
2547.00,0.0158
2546.00,0.0158
2545.00,0.0158
2544.00,0.0158
2543.00,0.0157
2542.00,0.0157
2541.00,0.0157
2540.00,0.0156
2539.00,0.0156
2538.00,0.0156
2537.00,0.0156
2536.00,0.0156
2535.00,0.0156
2534.00,0.0155
2533.00,0.0155
2532.00,0.0155
2531.00,0.0155
2530.00,0.0155
2529.00,0.0155
2528.00,0.0155
2527.00,0.0155
2526.00,0.0155
2525.00,0.0155
2524.00,0.0155
2523.00,0.0154
2522.00,0.0154
2521.00,0.0154
2520.00,0.0154
2519.00,0.0154
2518.00,0.0154
2517.00,0.0154
2516.00,0.0154
2515.00,0.0154
2514.00,0.0153
2513.00,0.0153
2512.00,0.0153
2511.00,0.0153
2510.00,0.0153
2509.00,0.0153
2508.00,0.0153
2507.00,0.0153
2506.00,0.0152
2505.00,0.0152
2504.00,0.0152
2503.00,0.0152
2502.00,0.0152
2501.00,0.0152
2500.00,0.0152
2499.00,0.0152
2498.00,0.0152
2497.00,0.0152
2496.00,0.0152
2495.00,0.0152
2494.00,0.0152
2493.00,0.0151
2492.00,0.0151
2491.00,0.0151
2490.00,0.0150
2489.00,0.0150
2488.00,0.0150
2487.00,0.0150
2486.00,0.0150
2485.00,0.0150
2484.00,0.0150
2483.00,0.0150
2482.00,0.0149
2481.00,0.0149
2480.00,0.0149
2479.00,0.0149
2478.00,0.0149
2477.00,0.0149
2476.00,0.0149
2475.00,0.0149
2474.00,0.0149
2473.00,0.0149
2472.00,0.0149
2471.00,0.0149
2470.00,0.0149
2469.00,0.0149
2468.00,0.0148
2467.00,0.0148
2466.00,0.0148
2465.00,0.0148
2464.00,0.0148
2463.00,0.0148
2462.00,0.0148
2461.00,0.0148
2460.00,0.0148
2459.00,0.0148
2458.00,0.0148
2457.00,0.0148
2456.00,0.0148
2455.00,0.0148
2454.00,0.0148
2453.00,0.0148
2452.00,0.0148
2451.00,0.0148
2450.00,0.0147
2449.00,0.0147
2448.00,0.0147
2447.00,0.0146
2446.00,0.0146
2445.00,0.0146
2444.00,0.0146
2443.00,0.0146
2442.00,0.0146
2441.00,0.0146
2440.00,0.0145
2439.00,0.0145
2438.00,0.0145
2437.00,0.0145
2436.00,0.0145
2435.00,0.0144
2434.00,0.0144
2433.00,0.0144
2432.00,0.0144
2431.00,0.0144
2430.00,0.0143
2429.00,0.0143
2428.00,0.0143
2427.00,0.0143
2426.00,0.0142
2425.00,0.0142
2424.00,0.0142
2423.00,0.0142
2422.00,0.0142
2421.00,0.0142
2420.00,0.0141
2419.00,0.0141
2418.00,0.0141
2417.00,0.0141
2416.00,0.0141
2415.00,0.0141
2414.00,0.0141
2413.00,0.0141
2412.00,0.0141
2411.00,0.0141
2410.00,0.0141
2409.00,0.0140
2408.00,0.0140
2407.00,0.0139
2406.00,0.0139
2405.00,0.0139
2404.00,0.0139
2403.00,0.0138
2402.00,0.0138
2401.00,0.0138
2400.00,0.0138
2399.00,0.0138
2398.00,0.0138
2397.00,0.0138
2396.00,0.0138
2395.00,0.0138
2394.00,0.0137
2393.00,0.0137
2392.00,0.0137
2391.00,0.0137
2390.00,0.0137
2389.00,0.0137
2388.00,0.0136
2387.00,0.0136
2386.00,0.0135
2385.00,0.0135
2384.00,0.0134
2383.00,0.0134
2382.00,0.0134
2381.00,0.0133
2380.00,0.0133
2379.00,0.0133
2378.00,0.0133
2377.00,0.0133
2376.00,0.0133
2375.00,0.0133
2374.00,0.0133
2373.00,0.0133
2372.00,0.0133
2371.00,0.0132
2370.00,0.0132
2369.00,0.0132
2368.00,0.0131
2367.00,0.0131
2366.00,0.0131
2365.00,0.0131
2364.00,0.0132
2363.00,0.0132
2362.00,0.0132
2361.00,0.0132
2360.00,0.0132
2359.00,0.0132
2358.00,0.0132
2357.00,0.0132
2356.00,0.0133
2355.00,0.0133
2354.00,0.0132
2353.00,0.0132
2352.00,0.0132
2351.00,0.0132
2350.00,0.0132
2349.00,0.0133
2348.00,0.0134
2347.00,0.0134
2346.00,0.0133
2345.00,0.0133
2344.00,0.0133
2343.00,0.0134
2342.00,0.0134
2341.00,0.0135
2340.00,0.0135
2339.00,0.0135
2338.00,0.0135
2337.00,0.0135
2336.00,0.0135
2335.00,0.0135
2334.00,0.0135
2333.00,0.0134
2332.00,0.0134
2331.00,0.0134
2330.00,0.0134
2329.00,0.0136
2328.00,0.0139
2327.00,0.0143
2326.00,0.0146
2325.00,0.0147
2324.00,0.0146
2323.00,0.0144
2322.00,0.0142
2321.00,0.0141
2320.00,0.0140
2319.00,0.0139
2318.00,0.0139
2317.00,0.0138
2316.00,0.0138
2315.00,0.0137
2314.00,0.0136
2313.00,0.0136
2312.00,0.0136
2311.00,0.0136
2310.00,0.0135
2309.00,0.0135
2308.00,0.0135
2307.00,0.0136
2306.00,0.0136
2305.00,0.0136
2304.00,0.0136
2303.00,0.0136
2302.00,0.0136
2301.00,0.0136
2300.00,0.0137
2299.00,0.0137
2298.00,0.0138
2297.00,0.0138
2296.00,0.0139
2295.00,0.0139
2294.00,0.0140
2293.00,0.0141
2292.00,0.0141
2291.00,0.0142
2290.00,0.0142
2289.00,0.0142
2288.00,0.0142
2287.00,0.0142
2286.00,0.0142
2285.00,0.0141
2284.00,0.0141
2283.00,0.0140
2282.00,0.0139
2281.00,0.0139
2280.00,0.0138
2279.00,0.0138
2278.00,0.0138
2277.00,0.0138
2276.00,0.0137
2275.00,0.0137
2274.00,0.0136
2273.00,0.0136
2272.00,0.0136
2271.00,0.0136
2270.00,0.0135
2269.00,0.0135
2268.00,0.0135
2267.00,0.0134
2266.00,0.0134
2265.00,0.0133
2264.00,0.0133
2263.00,0.0133
2262.00,0.0134
2261.00,0.0134
2260.00,0.0134
2259.00,0.0134
2258.00,0.0133
2257.00,0.0132
2256.00,0.0131
2255.00,0.0131
2254.00,0.0130
2253.00,0.0130
2252.00,0.0130
2251.00,0.0130
2250.00,0.0130
2249.00,0.0130
2248.00,0.0130
2247.00,0.0131
2246.00,0.0131
2245.00,0.0131
2244.00,0.0131
2243.00,0.0131
2242.00,0.0131
2241.00,0.0131
2240.00,0.0131
2239.00,0.0130
2238.00,0.0130
2237.00,0.0130
2236.00,0.0130
2235.00,0.0130
2234.00,0.0130
2233.00,0.0130
2232.00,0.0130
2231.00,0.0129
2230.00,0.0129
2229.00,0.0129
2228.00,0.0129
2227.00,0.0129
2226.00,0.0129
2225.00,0.0129
2224.00,0.0128
2223.00,0.0128
2222.00,0.0128
2221.00,0.0128
2220.00,0.0128
2219.00,0.0128
2218.00,0.0127
2217.00,0.0127
2216.00,0.0128
2215.00,0.0128
2214.00,0.0129
2213.00,0.0128
2212.00,0.0128
2211.00,0.0128
2210.00,0.0127
2209.00,0.0127
2208.00,0.0127
2207.00,0.0127
2206.00,0.0127
2205.00,0.0128
2204.00,0.0128
2203.00,0.0128
2202.00,0.0128
2201.00,0.0128
2200.00,0.0128
2199.00,0.0128
2198.00,0.0128
2197.00,0.0128
2196.00,0.0128
2195.00,0.0128
2194.00,0.0128
2193.00,0.0128
2192.00,0.0128
2191.00,0.0128
2190.00,0.0128
2189.00,0.0129
2188.00,0.0130
2187.00,0.0131
2186.00,0.0130
2185.00,0.0128
2184.00,0.0125
2183.00,0.0122
2182.00,0.0121
2181.00,0.0122
2180.00,0.0123
2179.00,0.0124
2178.00,0.0124
2177.00,0.0122
2176.00,0.0121
2175.00,0.0121
2174.00,0.0122
2173.00,0.0124
2172.00,0.0126
2171.00,0.0128
2170.00,0.0130
2169.00,0.0131
2168.00,0.0132
2167.00,0.0133
2166.00,0.0133
2165.00,0.0135
2164.00,0.0136
2163.00,0.0136
2162.00,0.0130
2161.00,0.0119
2160.00,0.0105
2159.00,0.0094
2158.00,0.0089
2157.00,0.0090
2156.00,0.0093
2155.00,0.0096
2154.00,0.0099
2153.00,0.0101
2152.00,0.0103
2151.00,0.0104
2150.00,0.0104
2149.00,0.0104
2148.00,0.0105
2147.00,0.0105
2146.00,0.0106
2145.00,0.0107
2144.00,0.0107
2143.00,0.0108
2142.00,0.0108
2141.00,0.0108
2140.00,0.0108
2139.00,0.0108
2138.00,0.0107
2137.00,0.0105
2136.00,0.0103
2135.00,0.0102
2134.00,0.0101
2133.00,0.0102
2132.00,0.0104
2131.00,0.0105
2130.00,0.0107
2129.00,0.0108
2128.00,0.0109
2127.00,0.0111
2126.00,0.0112
2125.00,0.0113
2124.00,0.0114
2123.00,0.0114
2122.00,0.0115
2121.00,0.0116
2120.00,0.0117
2119.00,0.0118
2118.00,0.0118
2117.00,0.0119
2116.00,0.0120
2115.00,0.0120
2114.00,0.0120
2113.00,0.0119
2112.00,0.0119
2111.00,0.0119
2110.00,0.0119
2109.00,0.0119
2108.00,0.0120
2107.00,0.0120
2106.00,0.0120
2105.00,0.0120
2104.00,0.0120
2103.00,0.0119
2102.00,0.0119
2101.00,0.0119
2100.00,0.0119
2099.00,0.0118
2098.00,0.0117
2097.00,0.0115
2096.00,0.0114
2095.00,0.0113
2094.00,0.0113
2093.00,0.0114
2092.00,0.0116
2091.00,0.0117
2090.00,0.0117
2089.00,0.0118
2088.00,0.0118
2087.00,0.0119
2086.00,0.0119
2085.00,0.0119
2084.00,0.0120
2083.00,0.0120
2082.00,0.0120
2081.00,0.0120
2080.00,0.0120
2079.00,0.0119
2078.00,0.0119
2077.00,0.0119
2076.00,0.0118
2075.00,0.0117
2074.00,0.0117
2073.00,0.0116
2072.00,0.0116
2071.00,0.0116
2070.00,0.0116
2069.00,0.0116
2068.00,0.0116
2067.00,0.0115
2066.00,0.0115
2065.00,0.0114
2064.00,0.0114
2063.00,0.0114
2062.00,0.0114
2061.00,0.0114
2060.00,0.0115
2059.00,0.0115
2058.00,0.0116
2057.00,0.0115
2056.00,0.0115
2055.00,0.0115
2054.00,0.0116
2053.00,0.0120
2052.00,0.0123
2051.00,0.0123
2050.00,0.0120
2049.00,0.0117
2048.00,0.0115
2047.00,0.0113
2046.00,0.0112
2045.00,0.0112
2044.00,0.0111
2043.00,0.0111
2042.00,0.0112
2041.00,0.0113
2040.00,0.0113
2039.00,0.0113
2038.00,0.0113
2037.00,0.0112
2036.00,0.0111
2035.00,0.0109
2034.00,0.0108
2033.00,0.0106
2032.00,0.0105
2031.00,0.0105
2030.00,0.0104
2029.00,0.0103
2028.00,0.0103
2027.00,0.0102
2026.00,0.0101
2025.00,0.0100
2024.00,0.0100
2023.00,0.0101
2022.00,0.0101
2021.00,0.0101
2020.00,0.0101
2019.00,0.0101
2018.00,0.0100
2017.00,0.0100
2016.00,0.0101
2015.00,0.0101
2014.00,0.0102
2013.00,0.0103
2012.00,0.0103
2011.00,0.0103
2010.00,0.0101
2009.00,0.0100
2008.00,0.0097
2007.00,0.0095
2006.00,0.0094
2005.00,0.0095
2004.00,0.0096
2003.00,0.0097
2002.00,0.0099
2001.00,0.0100
2000.00,0.0101
1999.00,0.0102
1998.00,0.0102
1997.00,0.0103
1996.00,0.0104
1995.00,0.0105
1994.00,0.0105
1993.00,0.0105
1992.00,0.0105
1991.00,0.0105
1990.00,0.0106
1989.00,0.0106
1988.00,0.0107
1987.00,0.0108
1986.00,0.0109
1985.00,0.0110
1984.00,0.0111
1983.00,0.0113
1982.00,0.0115
1981.00,0.0115
1980.00,0.0112
1979.00,0.0107
1978.00,0.0100
1977.00,0.0095
1976.00,0.0093
1975.00,0.0092
1974.00,0.0092
1973.00,0.0093
1972.00,0.0094
1971.00,0.0094
1970.00,0.0095
1969.00,0.0095
1968.00,0.0096
1967.00,0.0096
1966.00,0.0095
1965.00,0.0094
1964.00,0.0093
1963.00,0.0092
1962.00,0.0092
1961.00,0.0091
1960.00,0.0091
1959.00,0.0090
1958.00,0.0090
1957.00,0.0090
1956.00,0.0091
1955.00,0.0092
1954.00,0.0092
1953.00,0.0093
1952.00,0.0093
1951.00,0.0094
1950.00,0.0094
1949.00,0.0094
1948.00,0.0094
1947.00,0.0094
1946.00,0.0094
1945.00,0.0093
1944.00,0.0093
1943.00,0.0093
1942.00,0.0093
1941.00,0.0093
1940.00,0.0094
1939.00,0.0094
1938.00,0.0094
1937.00,0.0094
1936.00,0.0094
1935.00,0.0094
1934.00,0.0093
1933.00,0.0093
1932.00,0.0093
1931.00,0.0094
1930.00,0.0093
1929.00,0.0093
1928.00,0.0093
1927.00,0.0093
1926.00,0.0093
1925.00,0.0094
1924.00,0.0094
1923.00,0.0095
1922.00,0.0095
1921.00,0.0095
1920.00,0.0095
1919.00,0.0095
1918.00,0.0094
1917.00,0.0094
1916.00,0.0094
1915.00,0.0094
1914.00,0.0094
1913.00,0.0094
1912.00,0.0094
1911.00,0.0094
1910.00,0.0094
1909.00,0.0094
1908.00,0.0094
1907.00,0.0095
1906.00,0.0095
1905.00,0.0095
1904.00,0.0095
1903.00,0.0094
1902.00,0.0094
1901.00,0.0094
1900.00,0.0094
1899.00,0.0094
1898.00,0.0093
1897.00,0.0093
1896.00,0.0094
1895.00,0.0094
1894.00,0.0094
1893.00,0.0094
1892.00,0.0093
1891.00,0.0093
1890.00,0.0093
1889.00,0.0093
1888.00,0.0093
1887.00,0.0094
1886.00,0.0094
1885.00,0.0094
1884.00,0.0093
1883.00,0.0093
1882.00,0.0093
1881.00,0.0093
1880.00,0.0093
1879.00,0.0093
1878.00,0.0092
1877.00,0.0092
1876.00,0.0092
1875.00,0.0092
1874.00,0.0092
1873.00,0.0092
1872.00,0.0092
1871.00,0.0091
1870.00,0.0091
1869.00,0.0091
1868.00,0.0091
1867.00,0.0091
1866.00,0.0091
1865.00,0.0091
1864.00,0.0091
1863.00,0.0091
1862.00,0.0091
1861.00,0.0091
1860.00,0.0091
1859.00,0.0091
1858.00,0.0090
1857.00,0.0090
1856.00,0.0090
1855.00,0.0090
1854.00,0.0090
1853.00,0.0090
1852.00,0.0090
1851.00,0.0090
1850.00,0.0089
1849.00,0.0089
1848.00,0.0089
1847.00,0.0089
1846.00,0.0088
1845.00,0.0088
1844.00,0.0088
1843.00,0.0088
1842.00,0.0088
1841.00,0.0089
1840.00,0.0089
1839.00,0.0089
1838.00,0.0089
1837.00,0.0089
1836.00,0.0089
1835.00,0.0089
1834.00,0.0088
1833.00,0.0088
1832.00,0.0088
1831.00,0.0087
1830.00,0.0087
1829.00,0.0087
1828.00,0.0087
1827.00,0.0087
1826.00,0.0087
1825.00,0.0087
1824.00,0.0088
1823.00,0.0088
1822.00,0.0088
1821.00,0.0088
1820.00,0.0087
1819.00,0.0086
1818.00,0.0085
1817.00,0.0085
1816.00,0.0085
1815.00,0.0086
1814.00,0.0086
1813.00,0.0086
1812.00,0.0086
1811.00,0.0086
1810.00,0.0087
1809.00,0.0087
1808.00,0.0087
1807.00,0.0087
1806.00,0.0087
1805.00,0.0087
1804.00,0.0087
1803.00,0.0087
1802.00,0.0086
1801.00,0.0086
1800.00,0.0086
1799.00,0.0087
1798.00,0.0087
1797.00,0.0087
1796.00,0.0087
1795.00,0.0087
1794.00,0.0087
1793.00,0.0086
1792.00,0.0086
1791.00,0.0086
1790.00,0.0086
1789.00,0.0087
1788.00,0.0087
1787.00,0.0087
1786.00,0.0087
1785.00,0.0087
1784.00,0.0087
1783.00,0.0087
1782.00,0.0087
1781.00,0.0088
1780.00,0.0088
1779.00,0.0087
1778.00,0.0087
1777.00,0.0087
1776.00,0.0088
1775.00,0.0088
1774.00,0.0088
1773.00,0.0089
1772.00,0.0089
1771.00,0.0088
1770.00,0.0087
1769.00,0.0087
1768.00,0.0088
1767.00,0.0089
1766.00,0.0089
1765.00,0.0090
1764.00,0.0090
1763.00,0.0090
1762.00,0.0090
1761.00,0.0091
1760.00,0.0092
1759.00,0.0093
1758.00,0.0094
1757.00,0.0095
1756.00,0.0097
1755.00,0.0099
1754.00,0.0100
1753.00,0.0102
1752.00,0.0104
1751.00,0.0106
1750.00,0.0107
1749.00,0.0109
1748.00,0.0112
1747.00,0.0114
1746.00,0.0115
1745.00,0.0117
1744.00,0.0118
1743.00,0.0119
1742.00,0.0120
1741.00,0.0121
1740.00,0.0122
1739.00,0.0123
1738.00,0.0124
1737.00,0.0124
1736.00,0.0126
1735.00,0.0127
1734.00,0.0128
1733.00,0.0128
1732.00,0.0129
1731.00,0.0130
1730.00,0.0130
1729.00,0.0130
1728.00,0.0131
1727.00,0.0132
1726.00,0.0133
1725.00,0.0134
1724.00,0.0135
1723.00,0.0136
1722.00,0.0136
1721.00,0.0137
1720.00,0.0138
1719.00,0.0139
1718.00,0.0141
1717.00,0.0143
1716.00,0.0145
1715.00,0.0147
1714.00,0.0148
1713.00,0.0151
1712.00,0.0155
1711.00,0.0158
1710.00,0.0162
1709.00,0.0166
1708.00,0.0171
1707.00,0.0177
1706.00,0.0185
1705.00,0.0194
1704.00,0.0203
1703.00,0.0212
1702.00,0.0222
1701.00,0.0239
1700.00,0.0262
1699.00,0.0284
1698.00,0.0299
1697.00,0.0314
1696.00,0.0331
1695.00,0.0346
1694.00,0.0357
1693.00,0.0365
1692.00,0.0373
1691.00,0.0383
1690.00,0.0394
1689.00,0.0406
1688.00,0.0417
1687.00,0.0427
1686.00,0.0438
1685.00,0.0453
1684.00,0.0474
1683.00,0.0491
1682.00,0.0503
1681.00,0.0514
1680.00,0.0527
1679.00,0.0540
1678.00,0.0551
1677.00,0.0563
1676.00,0.0578
1675.00,0.0595
1674.00,0.0612
1673.00,0.0625
1672.00,0.0637
1671.00,0.0651
1670.00,0.0668
1669.00,0.0688
1668.00,0.0706
1667.00,0.0720
1666.00,0.0732
1665.00,0.0744
1664.00,0.0759
1663.00,0.0776
1662.00,0.0794
1661.00,0.0810
1660.00,0.0825
1659.00,0.0837
1658.00,0.0849
1657.00,0.0857
1656.00,0.0865
1655.00,0.0874
1654.00,0.0890
1653.00,0.0913
1652.00,0.0932
1651.00,0.0938
1650.00,0.0939
1649.00,0.0940
1648.00,0.0946
1647.00,0.0957
1646.00,0.0968
1645.00,0.0975
1644.00,0.0981
1643.00,0.0985
1642.00,0.0989
1641.00,0.0993
1640.00,0.0997
1639.00,0.1001
1638.00,0.1004
1637.00,0.1010
1636.00,0.1019
1635.00,0.1030
1634.00,0.1038
1633.00,0.1041
1632.00,0.1044
1631.00,0.1047
1630.00,0.1050
1629.00,0.1053
1628.00,0.1057
1627.00,0.1060
1626.00,0.1062
1625.00,0.1062
1624.00,0.1062
1623.00,0.1063
1622.00,0.1062
1621.00,0.1058
1620.00,0.1052
1619.00,0.1045
1618.00,0.1035
1617.00,0.1023
1616.00,0.1008
1615.00,0.0992
1614.00,0.0974
1613.00,0.0954
1612.00,0.0933
1611.00,0.0910
1610.00,0.0887
1609.00,0.0863
1608.00,0.0840
1607.00,0.0817
1606.00,0.0795
1605.00,0.0774
1604.00,0.0754
1603.00,0.0735
1602.00,0.0717
1601.00,0.0700
1600.00,0.0684
1599.00,0.0670
1598.00,0.0657
1597.00,0.0645
1596.00,0.0634
1595.00,0.0623
1594.00,0.0614
1593.00,0.0605
1592.00,0.0596
1591.00,0.0588
1590.00,0.0581
1589.00,0.0575
1588.00,0.0569
1587.00,0.0565
1586.00,0.0561
1585.00,0.0558
1584.00,0.0556
1583.00,0.0554
1582.00,0.0553
1581.00,0.0553
1580.00,0.0552
1579.00,0.0553
1578.00,0.0555
1577.00,0.0560
1576.00,0.0565
1575.00,0.0569
1574.00,0.0572
1573.00,0.0574
1572.00,0.0575
1571.00,0.0579
1570.00,0.0588
1569.00,0.0598
1568.00,0.0606
1567.00,0.0613
1566.00,0.0620
1565.00,0.0629
1564.00,0.0637
1563.00,0.0644
1562.00,0.0649
1561.00,0.0654
1560.00,0.0664
1559.00,0.0686
1558.00,0.0708
1557.00,0.0721
1556.00,0.0729
1555.00,0.0738
1554.00,0.0750
1553.00,0.0761
1552.00,0.0771
1551.00,0.0781
1550.00,0.0792
1549.00,0.0804
1548.00,0.0813
1547.00,0.0820
1546.00,0.0827
1545.00,0.0836
1544.00,0.0844
1543.00,0.0851
1542.00,0.0859
1541.00,0.0870
1540.00,0.0884
1539.00,0.0897
1538.00,0.0903
1537.00,0.0904
1536.00,0.0903
1535.00,0.0904
1534.00,0.0909
1533.00,0.0916
1532.00,0.0922
1531.00,0.0926
1530.00,0.0928
1529.00,0.0929
1528.00,0.0931
1527.00,0.0934
1526.00,0.0937
1525.00,0.0939
1524.00,0.0940
1523.00,0.0942
1522.00,0.0946
1521.00,0.0952
1520.00,0.0956
1519.00,0.0957
1518.00,0.0957
1517.00,0.0958
1516.00,0.0957
1515.00,0.0954
1514.00,0.0948
1513.00,0.0938
1512.00,0.0927
1511.00,0.0915
1510.00,0.0903
1509.00,0.0890
1508.00,0.0875
1507.00,0.0859
1506.00,0.0842
1505.00,0.0827
1504.00,0.0813
1503.00,0.0798
1502.00,0.0783
1501.00,0.0766
1500.00,0.0749
1499.00,0.0733
1498.00,0.0718
1497.00,0.0701
1496.00,0.0684
1495.00,0.0668
1494.00,0.0653
1493.00,0.0638
1492.00,0.0622
1491.00,0.0606
1490.00,0.0590
1489.00,0.0575
1488.00,0.0562
1487.00,0.0551
1486.00,0.0541
1485.00,0.0532
1484.00,0.0523
1483.00,0.0515
1482.00,0.0508
1481.00,0.0503
1480.00,0.0498
1479.00,0.0494
1478.00,0.0490
1477.00,0.0487
1476.00,0.0486
1475.00,0.0486
1474.00,0.0488
1473.00,0.0492
1472.00,0.0498
1471.00,0.0504
1470.00,0.0508
1469.00,0.0510
1468.00,0.0512
1467.00,0.0513
1466.00,0.0514
1465.00,0.0516
1464.00,0.0520
1463.00,0.0523
1462.00,0.0525
1461.00,0.0527
1460.00,0.0529
1459.00,0.0533
1458.00,0.0540
1457.00,0.0550
1456.00,0.0559
1455.00,0.0563
1454.00,0.0565
1453.00,0.0566
1452.00,0.0566
1451.00,0.0566
1450.00,0.0566
1449.00,0.0565
1448.00,0.0564
1447.00,0.0563
1446.00,0.0562
1445.00,0.0560
1444.00,0.0556
1443.00,0.0553
1442.00,0.0549
1441.00,0.0545
1440.00,0.0540
1439.00,0.0535
1438.00,0.0529
1437.00,0.0523
1436.00,0.0519
1435.00,0.0515
1434.00,0.0511
1433.00,0.0507
1432.00,0.0502
1431.00,0.0497
1430.00,0.0494
1429.00,0.0491
1428.00,0.0490
1427.00,0.0488
1426.00,0.0487
1425.00,0.0487
1424.00,0.0488
1423.00,0.0489
1422.00,0.0490
1421.00,0.0491
1420.00,0.0493
1419.00,0.0497
1418.00,0.0501
1417.00,0.0505
1416.00,0.0508
1415.00,0.0511
1414.00,0.0515
1413.00,0.0518
1412.00,0.0521
1411.00,0.0525
1410.00,0.0528
1409.00,0.0531
1408.00,0.0534
1407.00,0.0537
1406.00,0.0540
1405.00,0.0543
1404.00,0.0546
1403.00,0.0549
1402.00,0.0550
1401.00,0.0551
1400.00,0.0551
1399.00,0.0552
1398.00,0.0553
1397.00,0.0554
1396.00,0.0554
1395.00,0.0554
1394.00,0.0555
1393.00,0.0555
1392.00,0.0555
1391.00,0.0554
1390.00,0.0552
1389.00,0.0551
1388.00,0.0549
1387.00,0.0548
1386.00,0.0547
1385.00,0.0544
1384.00,0.0542
1383.00,0.0538
1382.00,0.0535
1381.00,0.0532
1380.00,0.0529
1379.00,0.0526
1378.00,0.0523
1377.00,0.0520
1376.00,0.0516
1375.00,0.0514
1374.00,0.0512
1373.00,0.0510
1372.00,0.0508
1371.00,0.0506
1370.00,0.0503
1369.00,0.0501
1368.00,0.0497
1367.00,0.0494
1366.00,0.0489
1365.00,0.0485
1364.00,0.0481
1363.00,0.0477
1362.00,0.0474
1361.00,0.0471
1360.00,0.0469
1359.00,0.0467
1358.00,0.0466
1357.00,0.0464
1356.00,0.0462
1355.00,0.0461
1354.00,0.0459
1353.00,0.0458
1352.00,0.0458
1351.00,0.0457
1350.00,0.0457
1349.00,0.0457
1348.00,0.0456
1347.00,0.0457
1346.00,0.0457
1345.00,0.0457
1344.00,0.0458
1343.00,0.0458
1342.00,0.0459
1341.00,0.0459
1340.00,0.0460
1339.00,0.0461
1338.00,0.0463
1337.00,0.0464
1336.00,0.0464
1335.00,0.0465
1334.00,0.0465
1333.00,0.0465
1332.00,0.0465
1331.00,0.0466
1330.00,0.0466
1329.00,0.0466
1328.00,0.0466
1327.00,0.0467
1326.00,0.0467
1325.00,0.0467
1324.00,0.0468
1323.00,0.0468
1322.00,0.0468
1321.00,0.0469
1320.00,0.0469
1319.00,0.0470
1318.00,0.0470
1317.00,0.0471
1316.00,0.0471
1315.00,0.0471
1314.00,0.0471
1313.00,0.0470
1312.00,0.0470
1311.00,0.0469
1310.00,0.0468
1309.00,0.0467
1308.00,0.0466
1307.00,0.0465
1306.00,0.0464
1305.00,0.0463
1304.00,0.0462
1303.00,0.0460
1302.00,0.0459
1301.00,0.0458
1300.00,0.0456
1299.00,0.0455
1298.00,0.0454
1297.00,0.0453
1296.00,0.0453
1295.00,0.0452
1294.00,0.0452
1293.00,0.0452
1292.00,0.0452
1291.00,0.0452
1290.00,0.0453
1289.00,0.0453
1288.00,0.0453
1287.00,0.0453
1286.00,0.0454
1285.00,0.0454
1284.00,0.0455
1283.00,0.0455
1282.00,0.0455
1281.00,0.0455
1280.00,0.0455
1279.00,0.0455
1278.00,0.0455
1277.00,0.0455
1276.00,0.0455
1275.00,0.0456
1274.00,0.0456
1273.00,0.0457
1272.00,0.0458
1271.00,0.0459
1270.00,0.0460
1269.00,0.0461
1268.00,0.0463
1267.00,0.0465
1266.00,0.0467
1265.00,0.0469
1264.00,0.0472
1263.00,0.0474
1262.00,0.0477
1261.00,0.0480
1260.00,0.0484
1259.00,0.0487
1258.00,0.0491
1257.00,0.0494
1256.00,0.0498
1255.00,0.0501
1254.00,0.0505
1253.00,0.0509
1252.00,0.0512
1251.00,0.0515
1250.00,0.0519
1249.00,0.0522
1248.00,0.0526
1247.00,0.0529
1246.00,0.0532
1245.00,0.0534
1244.00,0.0536
1243.00,0.0539
1242.00,0.0541
1241.00,0.0542
1240.00,0.0544
1239.00,0.0545
1238.00,0.0546
1237.00,0.0546
1236.00,0.0547
1235.00,0.0547
1234.00,0.0546
1233.00,0.0546
1232.00,0.0545
1231.00,0.0544
1230.00,0.0543
1229.00,0.0541
1228.00,0.0539
1227.00,0.0537
1226.00,0.0535
1225.00,0.0533
1224.00,0.0530
1223.00,0.0527
1222.00,0.0524
1221.00,0.0521
1220.00,0.0517
1219.00,0.0514
1218.00,0.0511
1217.00,0.0507
1216.00,0.0504
1215.00,0.0500
1214.00,0.0496
1213.00,0.0493
1212.00,0.0489
1211.00,0.0485
1210.00,0.0482
1209.00,0.0479
1208.00,0.0475
1207.00,0.0472
1206.00,0.0468
1205.00,0.0465
1204.00,0.0461
1203.00,0.0457
1202.00,0.0454
1201.00,0.0451
1200.00,0.0447
1199.00,0.0444
1198.00,0.0442
1197.00,0.0440
1196.00,0.0437
1195.00,0.0435
1194.00,0.0433
1193.00,0.0432
1192.00,0.0430
1191.00,0.0429
1190.00,0.0427
1189.00,0.0426
1188.00,0.0425
1187.00,0.0424
1186.00,0.0424
1185.00,0.0423
1184.00,0.0423
1183.00,0.0423
1182.00,0.0424
1181.00,0.0425
1180.00,0.0426
1179.00,0.0427
1178.00,0.0430
1177.00,0.0432
1176.00,0.0435
1175.00,0.0438
1174.00,0.0441
1173.00,0.0445
1172.00,0.0447
1171.00,0.0450
1170.00,0.0453
1169.00,0.0455
1168.00,0.0457
1167.00,0.0459
1166.00,0.0461
1165.00,0.0462
1164.00,0.0463
1163.00,0.0464
1162.00,0.0466
1161.00,0.0466
1160.00,0.0467
1159.00,0.0467
1158.00,0.0467
1157.00,0.0466
1156.00,0.0465
1155.00,0.0464
1154.00,0.0464
1153.00,0.0462
1152.00,0.0461
1151.00,0.0459
1150.00,0.0457
1149.00,0.0456
1148.00,0.0454
1147.00,0.0452
1146.00,0.0451
1145.00,0.0449
1144.00,0.0448
1143.00,0.0447
1142.00,0.0446
1141.00,0.0445
1140.00,0.0444
1139.00,0.0444
1138.00,0.0445
1137.00,0.0445
1136.00,0.0445
1135.00,0.0446
1134.00,0.0448
1133.00,0.0449
1132.00,0.0450
1131.00,0.0452
1130.00,0.0453
1129.00,0.0455
1128.00,0.0456
1127.00,0.0457
1126.00,0.0458
1125.00,0.0459
1124.00,0.0460
1123.00,0.0461
1122.00,0.0462
1121.00,0.0463
1120.00,0.0464
1119.00,0.0465
1118.00,0.0466
1117.00,0.0467
1116.00,0.0469
1115.00,0.0470
1114.00,0.0472
1113.00,0.0474
1112.00,0.0476
1111.00,0.0477
1110.00,0.0479
1109.00,0.0481
1108.00,0.0482
1107.00,0.0483
1106.00,0.0485
1105.00,0.0487
1104.00,0.0489
1103.00,0.0490
1102.00,0.0492
1101.00,0.0494
1100.00,0.0495
1099.00,0.0496
1098.00,0.0498
1097.00,0.0500
1096.00,0.0502
1095.00,0.0504
1094.00,0.0507
1093.00,0.0510
1092.00,0.0512
1091.00,0.0516
1090.00,0.0520
1089.00,0.0524
1088.00,0.0529
1087.00,0.0533
1086.00,0.0539
1085.00,0.0544
1084.00,0.0549
1083.00,0.0555
1082.00,0.0561
1081.00,0.0566
1080.00,0.0572
1079.00,0.0577
1078.00,0.0583
1077.00,0.0588
1076.00,0.0592
1075.00,0.0596
1074.00,0.0601
1073.00,0.0604
1072.00,0.0607
1071.00,0.0610
1070.00,0.0613
1069.00,0.0616
1068.00,0.0618
1067.00,0.0621
1066.00,0.0623
1065.00,0.0624
1064.00,0.0625
1063.00,0.0626
1062.00,0.0627
1061.00,0.0627
1060.00,0.0627
1059.00,0.0626
1058.00,0.0625
1057.00,0.0624
1056.00,0.0623
1055.00,0.0622
1054.00,0.0621
1053.00,0.0619
1052.00,0.0618
1051.00,0.0616
1050.00,0.0615
1049.00,0.0613
1048.00,0.0611
1047.00,0.0610
1046.00,0.0608
1045.00,0.0606
1044.00,0.0603
1043.00,0.0600
1042.00,0.0598
1041.00,0.0595
1040.00,0.0592
1039.00,0.0589
1038.00,0.0586
1037.00,0.0583
1036.00,0.0580
1035.00,0.0577
1034.00,0.0575
1033.00,0.0572
1032.00,0.0568
1031.00,0.0564
1030.00,0.0560
1029.00,0.0556
1028.00,0.0551
1027.00,0.0546
1026.00,0.0542
1025.00,0.0537
1024.00,0.0531
1023.00,0.0526
1022.00,0.0522
1021.00,0.0517
1020.00,0.0513
1019.00,0.0509
1018.00,0.0505
1017.00,0.0501
1016.00,0.0497
1015.00,0.0493
1014.00,0.0490
1013.00,0.0487
1012.00,0.0483
1011.00,0.0480
1010.00,0.0477
1009.00,0.0474
1008.00,0.0470
1007.00,0.0467
1006.00,0.0464
1005.00,0.0461
1004.00,0.0457
1003.00,0.0454
1002.00,0.0451
1001.00,0.0448
1000.00,0.0445
999.00,0.0442
998.00,0.0440
997.00,0.0437
996.00,0.0433
995.00,0.0430
994.00,0.0428
993.00,0.0425
992.00,0.0422
991.00,0.0419
990.00,0.0416
989.00,0.0414
988.00,0.0411
987.00,0.0409
986.00,0.0407
985.00,0.0405
984.00,0.0403
983.00,0.0400
982.00,0.0398
981.00,0.0396
980.00,0.0393
979.00,0.0391
978.00,0.0389
977.00,0.0387
976.00,0.0384
975.00,0.0382
974.00,0.0380
973.00,0.0379
972.00,0.0377
971.00,0.0375
970.00,0.0374
969.00,0.0373
968.00,0.0372
967.00,0.0371
966.00,0.0371
965.00,0.0370
964.00,0.0368
963.00,0.0366
962.00,0.0365
961.00,0.0363
960.00,0.0361
959.00,0.0359
958.00,0.0358
957.00,0.0356
956.00,0.0354
955.00,0.0351
954.00,0.0350
953.00,0.0348
952.00,0.0346
951.00,0.0345
950.00,0.0344
949.00,0.0344
948.00,0.0343
947.00,0.0342
946.00,0.0342
945.00,0.0341
944.00,0.0341
943.00,0.0340
942.00,0.0340
941.00,0.0340
940.00,0.0339
939.00,0.0339
938.00,0.0339
937.00,0.0340
936.00,0.0339
935.00,0.0339
934.00,0.0339
933.00,0.0339
932.00,0.0338
931.00,0.0337
930.00,0.0336
929.00,0.0335
928.00,0.0334
927.00,0.0332
926.00,0.0332
925.00,0.0331
924.00,0.0329
923.00,0.0328
922.00,0.0327
921.00,0.0326
920.00,0.0325
919.00,0.0323
918.00,0.0323
917.00,0.0322
916.00,0.0321
915.00,0.0320
914.00,0.0320
913.00,0.0320
912.00,0.0319
911.00,0.0319
910.00,0.0320
909.00,0.0320
908.00,0.0320
907.00,0.0319
906.00,0.0320
905.00,0.0320
904.00,0.0319
903.00,0.0319
902.00,0.0320
901.00,0.0320
900.00,0.0319
899.00,0.0318
898.00,0.0318
897.00,0.0317
896.00,0.0316
895.00,0.0315
894.00,0.0315
893.00,0.0314
892.00,0.0313
891.00,0.0311
890.00,0.0311
889.00,0.0310
888.00,0.0309
887.00,0.0309
886.00,0.0308
885.00,0.0308
884.00,0.0308
883.00,0.0308
882.00,0.0308
881.00,0.0308
880.00,0.0308
879.00,0.0308
878.00,0.0309
877.00,0.0309
876.00,0.0308
875.00,0.0308
874.00,0.0308
873.00,0.0308
872.00,0.0307
871.00,0.0307
870.00,0.0307
869.00,0.0307
868.00,0.0307
867.00,0.0306
866.00,0.0307
865.00,0.0307
864.00,0.0306
863.00,0.0306
862.00,0.0307
861.00,0.0308
860.00,0.0308
859.00,0.0309
858.00,0.0310
857.00,0.0312
856.00,0.0313
855.00,0.0314
854.00,0.0315
853.00,0.0316
852.00,0.0317
851.00,0.0317
850.00,0.0318
849.00,0.0319
848.00,0.0318
847.00,0.0318
846.00,0.0319
845.00,0.0320
844.00,0.0321
843.00,0.0322
842.00,0.0324
841.00,0.0325
840.00,0.0327
839.00,0.0328
838.00,0.0331
837.00,0.0333
836.00,0.0335
835.00,0.0337
834.00,0.0339
833.00,0.0342
832.00,0.0343
831.00,0.0345
830.00,0.0348
829.00,0.0350
828.00,0.0351
827.00,0.0352
826.00,0.0354
825.00,0.0355
824.00,0.0356
823.00,0.0357
822.00,0.0359
821.00,0.0361
820.00,0.0362
819.00,0.0364
818.00,0.0366
817.00,0.0368
816.00,0.0369
815.00,0.0371
814.00,0.0374
813.00,0.0376
812.00,0.0378
811.00,0.0379
810.00,0.0382
809.00,0.0383
808.00,0.0385
807.00,0.0386
806.00,0.0389
805.00,0.0391
804.00,0.0392
803.00,0.0393
802.00,0.0395
801.00,0.0398
800.00,0.0399
799.00,0.0401
798.00,0.0403
797.00,0.0405
796.00,0.0407
795.00,0.0409
794.00,0.0413
793.00,0.0416
792.00,0.0418
791.00,0.0421
790.00,0.0425
789.00,0.0428
788.00,0.0431
787.00,0.0434
786.00,0.0437
785.00,0.0440
784.00,0.0443
783.00,0.0445
782.00,0.0449
781.00,0.0452
780.00,0.0454
779.00,0.0456
778.00,0.0459
777.00,0.0462
776.00,0.0464
775.00,0.0466
774.00,0.0468
773.00,0.0470
772.00,0.0472
771.00,0.0473
770.00,0.0475
769.00,0.0477
768.00,0.0479
767.00,0.0480
766.00,0.0482
765.00,0.0484
764.00,0.0485
763.00,0.0486
762.00,0.0488
761.00,0.0490
760.00,0.0491
759.00,0.0493
758.00,0.0496
757.00,0.0498
756.00,0.0500
755.00,0.0502
754.00,0.0506
753.00,0.0509
752.00,0.0512
751.00,0.0515
750.00,0.0519
749.00,0.0522
748.00,0.0524
747.00,0.0527
746.00,0.0529
745.00,0.0531
744.00,0.0533
743.00,0.0534
742.00,0.0537
741.00,0.0539
740.00,0.0541
739.00,0.0542
738.00,0.0545
737.00,0.0547
736.00,0.0548
735.00,0.0550
734.00,0.0553
733.00,0.0556
732.00,0.0558
731.00,0.0562
730.00,0.0566
729.00,0.0571
728.00,0.0576
727.00,0.0581
726.00,0.0587
725.00,0.0593
724.00,0.0598
723.00,0.0604
722.00,0.0611
721.00,0.0617
720.00,0.0622
719.00,0.0628
718.00,0.0635
717.00,0.0642
716.00,0.0648
715.00,0.0654
714.00,0.0661
713.00,0.0668
712.00,0.0675
711.00,0.0681
710.00,0.0689
709.00,0.0696
708.00,0.0703
707.00,0.0710
706.00,0.0718
705.00,0.0726
704.00,0.0733
703.00,0.0739
702.00,0.0746
701.00,0.0752
700.00,0.0756
699.00,0.0759
698.00,0.0761
697.00,0.0762
696.00,0.0762
695.00,0.0762
694.00,0.0762
693.00,0.0763
692.00,0.0762
691.00,0.0762
690.00,0.0764
689.00,0.0765
688.00,0.0767
687.00,0.0768
686.00,0.0771
685.00,0.0772
684.00,0.0773
683.00,0.0774
682.00,0.0777
681.00,0.0779
680.00,0.0781
679.00,0.0782
678.00,0.0785
677.00,0.0787
676.00,0.0788
675.00,0.0790
674.00,0.0792
673.00,0.0794
672.00,0.0796
671.00,0.0797
670.00,0.0801
669.00,0.0805
668.00,0.0809
667.00,0.0812
666.00,0.0813
665.00,0.0812
664.00,0.0812
663.00,0.0812
662.00,0.0814
661.00,0.0816
660.00,0.0817
659.00,0.0819
658.00,0.0821
657.00,0.0823
656.00,0.0824
655.00,0.0825
654.00,0.0827
653.00,0.0829
652.00,0.0830
651.00,0.0832
650.00,0.0834
649.00,0.0836
648.00,0.0838
647.00,0.0840
646.00,0.0843
645.00,0.0846
644.00,0.0848
643.00,0.0850
642.00,0.0853
641.00,0.0856
640.00,0.0857
639.00,0.0860
638.00,0.0863
637.00,0.0866
636.00,0.0868
635.00,0.0871
634.00,0.0874
633.00,0.0877
632.00,0.0879
631.00,0.0881
630.00,0.0885
629.00,0.0888
628.00,0.0890
627.00,0.0892
626.00,0.0896
625.00,0.0898
624.00,0.0900
623.00,0.0901
622.00,0.0904
621.00,0.0906
620.00,0.0906
619.00,0.0907
618.00,0.0908
617.00,0.0909
616.00,0.0909
615.00,0.0909
614.00,0.0910
613.00,0.0910
612.00,0.0909
611.00,0.0908
610.00,0.0908
609.00,0.0909
608.00,0.0908
607.00,0.0909
606.00,0.0911
605.00,0.0912
604.00,0.0911
603.00,0.0911
602.00,0.0912
601.00,0.0913
600.00,0.0913
599.00,0.0912
598.00,0.0913
597.00,0.0915
596.00,0.0914
595.00,0.0915
594.00,0.0916
593.00,0.0918
592.00,0.0918
591.00,0.0919
590.00,0.0921
589.00,0.0922
588.00,0.0923
587.00,0.0924
586.00,0.0927
585.00,0.0929
584.00,0.0929
583.00,0.0930
582.00,0.0933
581.00,0.0935
580.00,0.0936
579.00,0.0938
578.00,0.0941
577.00,0.0943
576.00,0.0943
575.00,0.0944
574.00,0.0947
573.00,0.0949
572.00,0.0950
571.00,0.0950
570.00,0.0952
569.00,0.0955
568.00,0.0955
567.00,0.0956
566.00,0.0959
565.00,0.0961
564.00,0.0961
563.00,0.0962
562.00,0.0965
561.00,0.0967
560.00,0.0968
559.00,0.0968
558.00,0.0971
557.00,0.0972
556.00,0.0972
555.00,0.0972
554.00,0.0974
553.00,0.0977
552.00,0.0978
551.00,0.0979
550.00,0.0981
549.00,0.0984
548.00,0.0984
547.00,0.0984
546.00,0.0986
545.00,0.0987
544.00,0.0986
543.00,0.0987
542.00,0.0989
541.00,0.0992
540.00,0.0991
539.00,0.0991
538.00,0.0993
537.00,0.0995
536.00,0.0995
535.00,0.0996
534.00,0.0999
533.00,0.1002
532.00,0.1002
531.00,0.1002
530.00,0.1005
529.00,0.1007
528.00,0.1006
527.00,0.1006
526.00,0.1009
525.00,0.1012
524.00,0.1013
523.00,0.1014
522.00,0.1016
521.00,0.1017
520.00,0.1015
519.00,0.1015
518.00,0.1017
517.00,0.1018
516.00,0.1016
515.00,0.1013
514.00,0.1014
513.00,0.1014
512.00,0.1011
511.00,0.1009
510.00,0.1011
509.00,0.1012
508.00,0.1011
507.00,0.1009
506.00,0.1010
505.00,0.1010
504.00,0.1007
503.00,0.1005
502.00,0.1007
501.00,0.1008
500.00,0.1007
499.00,0.1006
498.00,0.1008
497.00,0.1010
496.00,0.1008
495.00,0.1006
494.00,0.1008
493.00,0.1010
492.00,0.1008
491.00,0.1006
490.00,0.1007
489.00,0.1007
488.00,0.1005
487.00,0.1003
486.00,0.1006
485.00,0.1008
484.00,0.1006
483.00,0.1005
482.00,0.1008
481.00,0.1011
480.00,0.1009
479.00,0.1009
478.00,0.1011
477.00,0.1013
476.00,0.1010
475.00,0.1007
474.00,0.1009
473.00,0.1011
472.00,0.1008
471.00,0.1007
470.00,0.1011
469.00,0.1014
468.00,0.1013
467.00,0.1012
466.00,0.1014
465.00,0.1016
464.00,0.1012
463.00,0.1009
462.00,0.1012
461.00,0.1013
460.00,0.1008
459.00,0.1003
458.00,0.1004
457.00,0.1005
456.00,0.1001
455.00,0.0997
454.00,0.0997
453.00,0.0996
452.00,0.0991
451.00,0.0987
450.00,0.0990
449.00,0.0991
448.00,0.0984
447.00,0.0977
446.00,0.0976
445.00,0.0973
444.00,0.0964
443.00,0.0955
442.00,0.0953
441.00,0.0951
440.00,0.0944
439.00,0.0938
438.00,0.0939
437.00,0.0938
436.00,0.0931
435.00,0.0923
434.00,0.0922
433.00,0.0921
432.00,0.0913
431.00,0.0907
430.00,0.0908
429.00,0.0908
428.00,0.0901
427.00,0.0895
426.00,0.0895
425.00,0.0894
424.00,0.0884
423.00,0.0877
422.00,0.0880
421.00,0.0882
420.00,0.0871
419.00,0.0862
418.00,0.0868
417.00,0.0873
416.00,0.0865
415.00,0.0859
414.00,0.0865
413.00,0.0868
412.00,0.0860
411.00,0.0852
410.00,0.0854
409.00,0.0854
408.00,0.0840
407.00,0.0830
406.00,0.0836
405.00,0.0841
404.00,0.0830
403.00,0.0820
402.00,0.0827
401.00,0.0830
400.00,0.0812
