PE IR       SUBTECH     SPECTRUM    ASCII       PEDS        4.00        
   -1
PE_D okefinokensis outer 1.ASC
24/08/19
16:54:14.00
24/08/19
17:05:14.00
Yarger Lab
Sample 325 By YargerLab Date Monday, August 19 2024
400.000000
#HDR
-1
-1
#GR
cm-1
A
1.0
0.0
4000.000000
-1.000000
3601
8
0.075887
0.006413
#DATA
4000.000000	0.011002
3999.000000	0.011012
3998.000000	0.011017
3997.000000	0.011016
3996.000000	0.011012
3995.000000	0.011007
3994.000000	0.011005
3993.000000	0.010974
3992.000000	0.010974
3991.000000	0.010974
3990.000000	0.010977
3989.000000	0.010982
3988.000000	0.010988
3987.000000	0.010991
3986.000000	0.010987
3985.000000	0.010981
3984.000000	0.010977
3983.000000	0.010976
3982.000000	0.010980
3981.000000	0.010984
3980.000000	0.010984
3979.000000	0.010981
3978.000000	0.010976
3977.000000	0.010972
3976.000000	0.010973
3975.000000	0.010976
3974.000000	0.010977
3973.000000	0.010973
3972.000000	0.010965
3971.000000	0.010956
3970.000000	0.010949
3969.000000	0.010948
3968.000000	0.010953
3967.000000	0.010960
3966.000000	0.010966
3965.000000	0.010971
3964.000000	0.010973
3963.000000	0.010972
3962.000000	0.010970
3961.000000	0.010967
3960.000000	0.010963
3959.000000	0.010960
3958.000000	0.010957
3957.000000	0.010955
3956.000000	0.010954
3955.000000	0.010951
3954.000000	0.010947
3953.000000	0.010943
3952.000000	0.010943
3951.000000	0.010948
3950.000000	0.010958
3949.000000	0.010967
3948.000000	0.010968
3947.000000	0.010957
3946.000000	0.010938
3945.000000	0.010918
3944.000000	0.010904
3943.000000	0.010898
3942.000000	0.010897
3941.000000	0.010896
3940.000000	0.010893
3939.000000	0.010890
3938.000000	0.010890
3937.000000	0.010892
3936.000000	0.010894
3935.000000	0.010892
3934.000000	0.010890
3933.000000	0.010890
3932.000000	0.010890
3931.000000	0.010884
3930.000000	0.010871
3929.000000	0.010854
3928.000000	0.010839
3927.000000	0.010835
3926.000000	0.010846
3925.000000	0.010867
3924.000000	0.010887
3923.000000	0.010896
3922.000000	0.010895
3921.000000	0.010888
3920.000000	0.010883
3919.000000	0.010878
3918.000000	0.010875
3917.000000	0.010871
3916.000000	0.010865
3915.000000	0.010857
3914.000000	0.010848
3913.000000	0.010839
3912.000000	0.010835
3911.000000	0.010833
3910.000000	0.010830
3909.000000	0.010823
3908.000000	0.010811
3907.000000	0.010794
3906.000000	0.010781
3905.000000	0.010778
3904.000000	0.010783
3903.000000	0.010785
3902.000000	0.010777
3901.000000	0.010763
3900.000000	0.010752
3899.000000	0.010748
3898.000000	0.010752
3897.000000	0.010760
3896.000000	0.010769
3895.000000	0.010776
3894.000000	0.010781
3893.000000	0.010782
3892.000000	0.010778
3891.000000	0.010768
3890.000000	0.010754
3889.000000	0.010742
3888.000000	0.010735
3887.000000	0.010736
3886.000000	0.010742
3885.000000	0.010745
3884.000000	0.010737
3883.000000	0.010721
3882.000000	0.010712
3881.000000	0.010719
3880.000000	0.010736
3879.000000	0.010749
3878.000000	0.010749
3877.000000	0.010741
3876.000000	0.010731
3875.000000	0.010724
3874.000000	0.010718
3873.000000	0.010704
3872.000000	0.010683
3871.000000	0.010665
3870.000000	0.010659
3869.000000	0.010658
3868.000000	0.010651
3867.000000	0.010635
3866.000000	0.010617
3865.000000	0.010607
3864.000000	0.010608
3863.000000	0.010613
3862.000000	0.010623
3861.000000	0.010639
3860.000000	0.010656
3859.000000	0.010666
3858.000000	0.010667
3857.000000	0.010656
3856.000000	0.010639
3855.000000	0.010621
3854.000000	0.010606
3853.000000	0.010579
3852.000000	0.010545
3851.000000	0.010526
3850.000000	0.010532
3849.000000	0.010555
3848.000000	0.010580
3847.000000	0.010600
3846.000000	0.010613
3845.000000	0.010619
3844.000000	0.010618
3843.000000	0.010609
3842.000000	0.010595
3841.000000	0.010581
3840.000000	0.010573
3839.000000	0.010572
3838.000000	0.010570
3837.000000	0.010563
3836.000000	0.010553
3835.000000	0.010549
3834.000000	0.010554
3833.000000	0.010567
3832.000000	0.010580
3831.000000	0.010583
3830.000000	0.010578
3829.000000	0.010568
3828.000000	0.010561
3827.000000	0.010559
3826.000000	0.010558
3825.000000	0.010551
3824.000000	0.010531
3823.000000	0.010501
3822.000000	0.010479
3821.000000	0.010473
3820.000000	0.010471
3819.000000	0.010463
3818.000000	0.010451
3817.000000	0.010445
3816.000000	0.010448
3815.000000	0.010452
3814.000000	0.010457
3813.000000	0.010466
3812.000000	0.010479
3811.000000	0.010489
3810.000000	0.010490
3809.000000	0.010483
3808.000000	0.010475
3807.000000	0.010471
3806.000000	0.010468
3805.000000	0.010459
3804.000000	0.010445
3803.000000	0.010433
3802.000000	0.010428
3801.000000	0.010427
3800.000000	0.010423
3799.000000	0.010418
3798.000000	0.010420
3797.000000	0.010426
3796.000000	0.010427
3795.000000	0.010420
3794.000000	0.010411
3793.000000	0.010411
3792.000000	0.010421
3791.000000	0.010431
3790.000000	0.010433
3789.000000	0.010424
3788.000000	0.010410
3787.000000	0.010395
3786.000000	0.010384
3785.000000	0.010379
3784.000000	0.010373
3783.000000	0.010364
3782.000000	0.010356
3781.000000	0.010356
3780.000000	0.010367
3779.000000	0.010379
3778.000000	0.010382
3777.000000	0.010376
3776.000000	0.010365
3775.000000	0.010355
3774.000000	0.010351
3773.000000	0.010351
3772.000000	0.010351
3771.000000	0.010348
3770.000000	0.010340
3769.000000	0.010329
3768.000000	0.010317
3767.000000	0.010308
3766.000000	0.010307
3765.000000	0.010310
3764.000000	0.010312
3763.000000	0.010308
3762.000000	0.010300
3761.000000	0.010295
3760.000000	0.010293
3759.000000	0.010288
3758.000000	0.010277
3757.000000	0.010263
3756.000000	0.010249
3755.000000	0.010233
3754.000000	0.010216
3753.000000	0.010206
3752.000000	0.010203
3751.000000	0.010198
3750.000000	0.010180
3749.000000	0.010158
3748.000000	0.010137
3747.000000	0.010122
3746.000000	0.010121
3745.000000	0.010136
3744.000000	0.010152
3743.000000	0.010155
3742.000000	0.010154
3741.000000	0.010159
3740.000000	0.010168
3739.000000	0.010170
3738.000000	0.010158
3737.000000	0.010138
3736.000000	0.010114
3735.000000	0.010088
3734.000000	0.010067
3733.000000	0.010055
3732.000000	0.010055
3731.000000	0.010057
3730.000000	0.010060
3729.000000	0.010064
3728.000000	0.010067
3727.000000	0.010065
3726.000000	0.010055
3725.000000	0.010037
3724.000000	0.010019
3723.000000	0.010010
3722.000000	0.010010
3721.000000	0.010013
3720.000000	0.010012
3719.000000	0.010009
3718.000000	0.010004
3717.000000	0.009997
3716.000000	0.009980
3715.000000	0.009954
3714.000000	0.009930
3713.000000	0.009918
3712.000000	0.009914
3711.000000	0.009905
3710.000000	0.009887
3709.000000	0.009870
3708.000000	0.009863
3707.000000	0.009866
3706.000000	0.009875
3705.000000	0.009880
3704.000000	0.009874
3703.000000	0.009859
3702.000000	0.009844
3701.000000	0.009835
3700.000000	0.009832
3699.000000	0.009832
3698.000000	0.009832
3697.000000	0.009836
3696.000000	0.009840
3695.000000	0.009841
3694.000000	0.009836
3693.000000	0.009825
3692.000000	0.009812
3691.000000	0.009803
3690.000000	0.009800
3689.000000	0.009800
3688.000000	0.009797
3687.000000	0.009791
3686.000000	0.009789
3685.000000	0.009791
3684.000000	0.009796
3683.000000	0.009801
3682.000000	0.009806
3681.000000	0.009813
3680.000000	0.009818
3679.000000	0.009819
3678.000000	0.009815
3677.000000	0.009816
3676.000000	0.009822
3675.000000	0.009816
3674.000000	0.009791
3673.000000	0.009762
3672.000000	0.009743
3671.000000	0.009745
3670.000000	0.009766
3669.000000	0.009792
3668.000000	0.009811
3667.000000	0.009829
3666.000000	0.009852
3665.000000	0.009882
3664.000000	0.009911
3663.000000	0.009932
3662.000000	0.009942
3661.000000	0.009945
3660.000000	0.009943
3659.000000	0.009940
3658.000000	0.009944
3657.000000	0.009957
3656.000000	0.009973
3655.000000	0.009982
3654.000000	0.009985
3653.000000	0.009987
3652.000000	0.009992
3651.000000	0.010001
3650.000000	0.010014
3649.000000	0.010021
3648.000000	0.010021
3647.000000	0.010027
3646.000000	0.010048
3645.000000	0.010081
3644.000000	0.010119
3643.000000	0.010157
3642.000000	0.010195
3641.000000	0.010232
3640.000000	0.010262
3639.000000	0.010280
3638.000000	0.010287
3637.000000	0.010290
3636.000000	0.010299
3635.000000	0.010316
3634.000000	0.010339
3633.000000	0.010360
3632.000000	0.010367
3631.000000	0.010363
3630.000000	0.010363
3629.000000	0.010379
3628.000000	0.010401
3627.000000	0.010421
3626.000000	0.010445
3625.000000	0.010478
3624.000000	0.010517
3623.000000	0.010556
3622.000000	0.010591
3621.000000	0.010618
3620.000000	0.010633
3619.000000	0.010637
3618.000000	0.010642
3617.000000	0.010661
3616.000000	0.010694
3615.000000	0.010730
3614.000000	0.010763
3613.000000	0.010793
3612.000000	0.010819
3611.000000	0.010843
3610.000000	0.010867
3609.000000	0.010895
3608.000000	0.010930
3607.000000	0.010970
3606.000000	0.011013
3605.000000	0.011055
3604.000000	0.011094
3603.000000	0.011131
3602.000000	0.011166
3601.000000	0.011198
3600.000000	0.011224
3599.000000	0.011243
3598.000000	0.011258
3597.000000	0.011274
3596.000000	0.011293
3595.000000	0.011315
3594.000000	0.011343
3593.000000	0.011376
3592.000000	0.011410
3591.000000	0.011439
3590.000000	0.011463
3589.000000	0.011489
3588.000000	0.011517
3587.000000	0.011545
3586.000000	0.011576
3585.000000	0.011615
3584.000000	0.011661
3583.000000	0.011707
3582.000000	0.011749
3581.000000	0.011785
3580.000000	0.011816
3579.000000	0.011844
3578.000000	0.011875
3577.000000	0.011911
3576.000000	0.011952
3575.000000	0.011991
3574.000000	0.012028
3573.000000	0.012063
3572.000000	0.012094
3571.000000	0.012122
3570.000000	0.012150
3569.000000	0.012184
3568.000000	0.012225
3567.000000	0.012262
3566.000000	0.012293
3565.000000	0.012325
3564.000000	0.012369
3563.000000	0.012424
3562.000000	0.012483
3561.000000	0.012543
3560.000000	0.012598
3559.000000	0.012646
3558.000000	0.012687
3557.000000	0.012725
3556.000000	0.012763
3555.000000	0.012804
3554.000000	0.012850
3553.000000	0.012901
3552.000000	0.012951
3551.000000	0.012998
3550.000000	0.013046
3549.000000	0.013098
3548.000000	0.013156
3547.000000	0.013211
3546.000000	0.013260
3545.000000	0.013300
3544.000000	0.013336
3543.000000	0.013371
3542.000000	0.013407
3541.000000	0.013444
3540.000000	0.013480
3539.000000	0.013517
3538.000000	0.013555
3537.000000	0.013593
3536.000000	0.013628
3535.000000	0.013662
3534.000000	0.013701
3533.000000	0.013748
3532.000000	0.013799
3531.000000	0.013847
3530.000000	0.013892
3529.000000	0.013938
3528.000000	0.013986
3527.000000	0.014034
3526.000000	0.014082
3525.000000	0.014127
3524.000000	0.014170
3523.000000	0.014208
3522.000000	0.014246
3521.000000	0.014287
3520.000000	0.014330
3519.000000	0.014371
3518.000000	0.014411
3517.000000	0.014452
3516.000000	0.014494
3515.000000	0.014536
3514.000000	0.014577
3513.000000	0.014619
3512.000000	0.014661
3511.000000	0.014702
3510.000000	0.014745
3509.000000	0.014792
3508.000000	0.014842
3507.000000	0.014895
3506.000000	0.014950
3505.000000	0.015009
3504.000000	0.015065
3503.000000	0.015112
3502.000000	0.015153
3501.000000	0.015194
3500.000000	0.015236
3499.000000	0.015278
3498.000000	0.015319
3497.000000	0.015361
3496.000000	0.015404
3495.000000	0.015445
3494.000000	0.015487
3493.000000	0.015532
3492.000000	0.015582
3491.000000	0.015636
3490.000000	0.015693
3489.000000	0.015750
3488.000000	0.015803
3487.000000	0.015850
3486.000000	0.015893
3485.000000	0.015941
3484.000000	0.015994
3483.000000	0.016049
3482.000000	0.016103
3481.000000	0.016152
3480.000000	0.016193
3479.000000	0.016228
3478.000000	0.016266
3477.000000	0.016315
3476.000000	0.016371
3475.000000	0.016427
3474.000000	0.016477
3473.000000	0.016524
3472.000000	0.016573
3471.000000	0.016627
3470.000000	0.016685
3469.000000	0.016741
3468.000000	0.016786
3467.000000	0.016819
3466.000000	0.016846
3465.000000	0.016879
3464.000000	0.016921
3463.000000	0.016971
3462.000000	0.017026
3461.000000	0.017082
3460.000000	0.017132
3459.000000	0.017174
3458.000000	0.017213
3457.000000	0.017252
3456.000000	0.017294
3455.000000	0.017334
3454.000000	0.017374
3453.000000	0.017418
3452.000000	0.017471
3451.000000	0.017532
3450.000000	0.017595
3449.000000	0.017654
3448.000000	0.017701
3447.000000	0.017736
3446.000000	0.017770
3445.000000	0.017812
3444.000000	0.017862
3443.000000	0.017917
3442.000000	0.017974
3441.000000	0.018033
3440.000000	0.018094
3439.000000	0.018152
3438.000000	0.018207
3437.000000	0.018258
3436.000000	0.018309
3435.000000	0.018359
3434.000000	0.018409
3433.000000	0.018458
3432.000000	0.018504
3431.000000	0.018544
3430.000000	0.018579
3429.000000	0.018617
3428.000000	0.018659
3427.000000	0.018705
3426.000000	0.018754
3425.000000	0.018807
3424.000000	0.018864
3423.000000	0.018920
3422.000000	0.018974
3421.000000	0.019023
3420.000000	0.019072
3419.000000	0.019123
3418.000000	0.019178
3417.000000	0.019239
3416.000000	0.019301
3415.000000	0.019360
3414.000000	0.019414
3413.000000	0.019464
3412.000000	0.019511
3411.000000	0.019555
3410.000000	0.019600
3409.000000	0.019646
3408.000000	0.019689
3407.000000	0.019731
3406.000000	0.019778
3405.000000	0.019833
3404.000000	0.019896
3403.000000	0.019960
3402.000000	0.020017
3401.000000	0.020066
3400.000000	0.020105
3399.000000	0.020138
3398.000000	0.020175
3397.000000	0.020219
3396.000000	0.020268
3395.000000	0.020314
3394.000000	0.020356
3393.000000	0.020398
3392.000000	0.020442
3391.000000	0.020489
3390.000000	0.020536
3389.000000	0.020583
3388.000000	0.020628
3387.000000	0.020672
3386.000000	0.020717
3385.000000	0.020764
3384.000000	0.020812
3383.000000	0.020862
3382.000000	0.020911
3381.000000	0.020962
3380.000000	0.021014
3379.000000	0.021067
3378.000000	0.021127
3377.000000	0.021195
3376.000000	0.021266
3375.000000	0.021333
3374.000000	0.021396
3373.000000	0.021460
3372.000000	0.021526
3371.000000	0.021592
3370.000000	0.021658
3369.000000	0.021727
3368.000000	0.021795
3367.000000	0.021861
3366.000000	0.021922
3365.000000	0.021980
3364.000000	0.022038
3363.000000	0.022100
3362.000000	0.022167
3361.000000	0.022240
3360.000000	0.022317
3359.000000	0.022395
3358.000000	0.022475
3357.000000	0.022561
3356.000000	0.022651
3355.000000	0.022737
3354.000000	0.022817
3353.000000	0.022893
3352.000000	0.022970
3351.000000	0.023053
3350.000000	0.023142
3349.000000	0.023239
3348.000000	0.023336
3347.000000	0.023430
3346.000000	0.023519
3345.000000	0.023608
3344.000000	0.023702
3343.000000	0.023802
3342.000000	0.023910
3341.000000	0.024021
3340.000000	0.024133
3339.000000	0.024243
3338.000000	0.024353
3337.000000	0.024466
3336.000000	0.024584
3335.000000	0.024705
3334.000000	0.024831
3333.000000	0.024961
3332.000000	0.025092
3331.000000	0.025220
3330.000000	0.025347
3329.000000	0.025475
3328.000000	0.025602
3327.000000	0.025728
3326.000000	0.025858
3325.000000	0.025999
3324.000000	0.026151
3323.000000	0.026310
3322.000000	0.026473
3321.000000	0.026639
3320.000000	0.026806
3319.000000	0.026973
3318.000000	0.027143
3317.000000	0.027317
3316.000000	0.027493
3315.000000	0.027670
3314.000000	0.027845
3313.000000	0.028019
3312.000000	0.028188
3311.000000	0.028353
3310.000000	0.028517
3309.000000	0.028685
3308.000000	0.028862
3307.000000	0.029054
3306.000000	0.029265
3305.000000	0.029494
3304.000000	0.029731
3303.000000	0.029965
3302.000000	0.030187
3301.000000	0.030398
3300.000000	0.030596
3299.000000	0.030785
3298.000000	0.030970
3297.000000	0.031160
3296.000000	0.031357
3295.000000	0.031560
3294.000000	0.031769
3293.000000	0.031982
3292.000000	0.032197
3291.000000	0.032408
3290.000000	0.032615
3289.000000	0.032815
3288.000000	0.033007
3287.000000	0.033189
3286.000000	0.033361
3285.000000	0.033522
3284.000000	0.033670
3283.000000	0.033806
3282.000000	0.033934
3281.000000	0.034058
3280.000000	0.034178
3279.000000	0.034285
3278.000000	0.034374
3277.000000	0.034441
3276.000000	0.034488
3275.000000	0.034514
3274.000000	0.034519
3273.000000	0.034510
3272.000000	0.034496
3271.000000	0.034483
3270.000000	0.034472
3269.000000	0.034456
3268.000000	0.034425
3267.000000	0.034374
3266.000000	0.034303
3265.000000	0.034216
3264.000000	0.034116
3263.000000	0.034001
3262.000000	0.033872
3261.000000	0.033733
3260.000000	0.033583
3259.000000	0.033425
3258.000000	0.033261
3257.000000	0.033099
3256.000000	0.032944
3255.000000	0.032794
3254.000000	0.032647
3253.000000	0.032496
3252.000000	0.032339
3251.000000	0.032172
3250.000000	0.031998
3249.000000	0.031825
3248.000000	0.031660
3247.000000	0.031509
3246.000000	0.031372
3245.000000	0.031241
3244.000000	0.031107
3243.000000	0.030966
3242.000000	0.030820
3241.000000	0.030669
3240.000000	0.030515
3239.000000	0.030361
3238.000000	0.030212
3237.000000	0.030065
3236.000000	0.029915
3235.000000	0.029767
3234.000000	0.029635
3233.000000	0.029527
3232.000000	0.029438
3231.000000	0.029351
3230.000000	0.029258
3229.000000	0.029157
3228.000000	0.029052
3227.000000	0.028944
3226.000000	0.028837
3225.000000	0.028732
3224.000000	0.028626
3223.000000	0.028520
3222.000000	0.028415
3221.000000	0.028313
3220.000000	0.028214
3219.000000	0.028117
3218.000000	0.028021
3217.000000	0.027926
3216.000000	0.027832
3215.000000	0.027736
3214.000000	0.027645
3213.000000	0.027561
3212.000000	0.027485
3211.000000	0.027409
3210.000000	0.027331
3209.000000	0.027250
3208.000000	0.027167
3207.000000	0.027081
3206.000000	0.026991
3205.000000	0.026902
3204.000000	0.026815
3203.000000	0.026731
3202.000000	0.026653
3201.000000	0.026582
3200.000000	0.026515
3199.000000	0.026445
3198.000000	0.026369
3197.000000	0.026285
3196.000000	0.026195
3195.000000	0.026102
3194.000000	0.026014
3193.000000	0.025936
3192.000000	0.025864
3191.000000	0.025791
3190.000000	0.025711
3189.000000	0.025624
3188.000000	0.025533
3187.000000	0.025444
3186.000000	0.025359
3185.000000	0.025277
3184.000000	0.025194
3183.000000	0.025106
3182.000000	0.025018
3181.000000	0.024932
3180.000000	0.024849
3179.000000	0.024764
3178.000000	0.024676
3177.000000	0.024587
3176.000000	0.024499
3175.000000	0.024414
3174.000000	0.024332
3173.000000	0.024248
3172.000000	0.024161
3171.000000	0.024070
3170.000000	0.023977
3169.000000	0.023886
3168.000000	0.023794
3167.000000	0.023699
3166.000000	0.023603
3165.000000	0.023511
3164.000000	0.023427
3163.000000	0.023347
3162.000000	0.023270
3161.000000	0.023192
3160.000000	0.023111
3159.000000	0.023029
3158.000000	0.022951
3157.000000	0.022881
3156.000000	0.022813
3155.000000	0.022738
3154.000000	0.022655
3153.000000	0.022567
3152.000000	0.022484
3151.000000	0.022408
3150.000000	0.022339
3149.000000	0.022274
3148.000000	0.022210
3147.000000	0.022145
3146.000000	0.022078
3145.000000	0.022012
3144.000000	0.021945
3143.000000	0.021875
3142.000000	0.021801
3141.000000	0.021727
3140.000000	0.021656
3139.000000	0.021592
3138.000000	0.021536
3137.000000	0.021487
3136.000000	0.021440
3135.000000	0.021392
3134.000000	0.021341
3133.000000	0.021285
3132.000000	0.021225
3131.000000	0.021166
3130.000000	0.021111
3129.000000	0.021064
3128.000000	0.021021
3127.000000	0.020979
3126.000000	0.020937
3125.000000	0.020895
3124.000000	0.020852
3123.000000	0.020810
3122.000000	0.020767
3121.000000	0.020726
3120.000000	0.020688
3119.000000	0.020655
3118.000000	0.020628
3117.000000	0.020608
3116.000000	0.020594
3115.000000	0.020583
3114.000000	0.020571
3113.000000	0.020554
3112.000000	0.020533
3111.000000	0.020512
3110.000000	0.020495
3109.000000	0.020487
3108.000000	0.020487
3107.000000	0.020491
3106.000000	0.020498
3105.000000	0.020508
3104.000000	0.020517
3103.000000	0.020519
3102.000000	0.020513
3101.000000	0.020507
3100.000000	0.020511
3099.000000	0.020527
3098.000000	0.020550
3097.000000	0.020573
3096.000000	0.020587
3095.000000	0.020592
3094.000000	0.020589
3093.000000	0.020585
3092.000000	0.020589
3091.000000	0.020607
3090.000000	0.020634
3089.000000	0.020661
3088.000000	0.020679
3087.000000	0.020683
3086.000000	0.020681
3085.000000	0.020680
3084.000000	0.020682
3083.000000	0.020684
3082.000000	0.020683
3081.000000	0.020684
3080.000000	0.020691
3079.000000	0.020709
3078.000000	0.020738
3077.000000	0.020769
3076.000000	0.020795
3075.000000	0.020807
3074.000000	0.020806
3073.000000	0.020799
3072.000000	0.020793
3071.000000	0.020787
3070.000000	0.020777
3069.000000	0.020762
3068.000000	0.020747
3067.000000	0.020739
3066.000000	0.020738
3065.000000	0.020736
3064.000000	0.020729
3063.000000	0.020715
3062.000000	0.020697
3061.000000	0.020674
3060.000000	0.020644
3059.000000	0.020604
3058.000000	0.020557
3057.000000	0.020506
3056.000000	0.020451
3055.000000	0.020393
3054.000000	0.020327
3053.000000	0.020256
3052.000000	0.020185
3051.000000	0.020126
3050.000000	0.020084
3049.000000	0.020050
3048.000000	0.020007
3047.000000	0.019945
3046.000000	0.019869
3045.000000	0.019792
3044.000000	0.019724
3043.000000	0.019667
3042.000000	0.019624
3041.000000	0.019592
3040.000000	0.019565
3039.000000	0.019530
3038.000000	0.019477
3037.000000	0.019406
3036.000000	0.019328
3035.000000	0.019253
3034.000000	0.019191
3033.000000	0.019144
3032.000000	0.019108
3031.000000	0.019081
3030.000000	0.019060
3029.000000	0.019035
3028.000000	0.018995
3027.000000	0.018936
3026.000000	0.018862
3025.000000	0.018788
3024.000000	0.018719
3023.000000	0.018654
3022.000000	0.018588
3021.000000	0.018523
3020.000000	0.018460
3019.000000	0.018400
3018.000000	0.018340
3017.000000	0.018277
3016.000000	0.018214
3015.000000	0.018159
3014.000000	0.018117
3013.000000	0.018089
3012.000000	0.018069
3011.000000	0.018051
3010.000000	0.018033
3009.000000	0.018016
3008.000000	0.017995
3007.000000	0.017971
3006.000000	0.017944
3005.000000	0.017920
3004.000000	0.017901
3003.000000	0.017887
3002.000000	0.017881
3001.000000	0.017878
3000.000000	0.017875
2999.000000	0.017872
2998.000000	0.017873
2997.000000	0.017881
2996.000000	0.017897
2995.000000	0.017916
2994.000000	0.017941
2993.000000	0.017975
2992.000000	0.018021
2991.000000	0.018072
2990.000000	0.018124
2989.000000	0.018176
2988.000000	0.018229
2987.000000	0.018284
2986.000000	0.018343
2985.000000	0.018409
2984.000000	0.018478
2983.000000	0.018547
2982.000000	0.018614
2981.000000	0.018679
2980.000000	0.018744
2979.000000	0.018808
2978.000000	0.018871
2977.000000	0.018933
2976.000000	0.018994
2975.000000	0.019053
2974.000000	0.019110
2973.000000	0.019162
2972.000000	0.019207
2971.000000	0.019243
2970.000000	0.019272
2969.000000	0.019297
2968.000000	0.019318
2967.000000	0.019332
2966.000000	0.019338
2965.000000	0.019332
2964.000000	0.019316
2963.000000	0.019288
2962.000000	0.019251
2961.000000	0.019206
2960.000000	0.019157
2959.000000	0.019109
2958.000000	0.019066
2957.000000	0.019032
2956.000000	0.019004
2955.000000	0.018983
2954.000000	0.018970
2953.000000	0.018968
2952.000000	0.018974
2951.000000	0.018984
2950.000000	0.018995
2949.000000	0.019004
2948.000000	0.019009
2947.000000	0.019014
2946.000000	0.019021
2945.000000	0.019036
2944.000000	0.019062
2943.000000	0.019093
2942.000000	0.019122
2941.000000	0.019145
2940.000000	0.019158
2939.000000	0.019161
2938.000000	0.019155
2937.000000	0.019138
2936.000000	0.019106
2935.000000	0.019055
2934.000000	0.018980
2933.000000	0.018879
2932.000000	0.018754
2931.000000	0.018603
2930.000000	0.018424
2929.000000	0.018212
2928.000000	0.017962
2927.000000	0.017676
2926.000000	0.017356
2925.000000	0.017005
2924.000000	0.016617
2923.000000	0.016187
2922.000000	0.015713
2921.000000	0.015200
2920.000000	0.014667
2919.000000	0.014149
2918.000000	0.013712
2917.000000	0.013443
2916.000000	0.013417
2915.000000	0.013658
2914.000000	0.014118
2913.000000	0.014696
2912.000000	0.015280
2911.000000	0.015786
2910.000000	0.016180
2909.000000	0.016464
2908.000000	0.016659
2907.000000	0.016785
2906.000000	0.016866
2905.000000	0.016919
2904.000000	0.016957
2903.000000	0.016985
2902.000000	0.017004
2901.000000	0.017017
2900.000000	0.017030
2899.000000	0.017043
2898.000000	0.017056
2897.000000	0.017069
2896.000000	0.017086
2895.000000	0.017107
2894.000000	0.017134
2893.000000	0.017163
2892.000000	0.017189
2891.000000	0.017212
2890.000000	0.017236
2889.000000	0.017266
2888.000000	0.017305
2887.000000	0.017352
2886.000000	0.017407
2885.000000	0.017469
2884.000000	0.017537
2883.000000	0.017609
2882.000000	0.017681
2881.000000	0.017749
2880.000000	0.017811
2879.000000	0.017864
2878.000000	0.017907
2877.000000	0.017938
2876.000000	0.017955
2875.000000	0.017957
2874.000000	0.017948
2873.000000	0.017932
2872.000000	0.017909
2871.000000	0.017874
2870.000000	0.017826
2869.000000	0.017761
2868.000000	0.017678
2867.000000	0.017579
2866.000000	0.017469
2865.000000	0.017351
2864.000000	0.017229
2863.000000	0.017100
2862.000000	0.016967
2861.000000	0.016831
2860.000000	0.016693
2859.000000	0.016545
2858.000000	0.016374
2857.000000	0.016166
2856.000000	0.015909
2855.000000	0.015586
2854.000000	0.015183
2853.000000	0.014698
2852.000000	0.014156
2851.000000	0.013629
2850.000000	0.013233
2849.000000	0.013085
2848.000000	0.013239
2847.000000	0.013649
2846.000000	0.014190
2845.000000	0.014727
2844.000000	0.015173
2843.000000	0.015500
2842.000000	0.015721
2841.000000	0.015863
2840.000000	0.015951
2839.000000	0.016006
2838.000000	0.016043
2837.000000	0.016069
2836.000000	0.016086
2835.000000	0.016094
2834.000000	0.016094
2833.000000	0.016089
2832.000000	0.016083
2831.000000	0.016079
2830.000000	0.016073
2829.000000	0.016063
2828.000000	0.016045
2827.000000	0.016022
2826.000000	0.015999
2825.000000	0.015981
2824.000000	0.015968
2823.000000	0.015960
2822.000000	0.015953
2821.000000	0.015945
2820.000000	0.015934
2819.000000	0.015920
2818.000000	0.015906
2817.000000	0.015895
2816.000000	0.015886
2815.000000	0.015876
2814.000000	0.015862
2813.000000	0.015847
2812.000000	0.015831
2811.000000	0.015815
2810.000000	0.015800
2809.000000	0.015789
2808.000000	0.015780
2807.000000	0.015771
2806.000000	0.015756
2805.000000	0.015739
2804.000000	0.015721
2803.000000	0.015706
2802.000000	0.015693
2801.000000	0.015679
2800.000000	0.015663
2799.000000	0.015646
2798.000000	0.015632
2797.000000	0.015622
2796.000000	0.015616
2795.000000	0.015610
2794.000000	0.015603
2793.000000	0.015593
2792.000000	0.015581
2791.000000	0.015567
2790.000000	0.015550
2789.000000	0.015531
2788.000000	0.015508
2787.000000	0.015481
2786.000000	0.015456
2785.000000	0.015437
2784.000000	0.015424
2783.000000	0.015414
2782.000000	0.015405
2781.000000	0.015394
2780.000000	0.015381
2779.000000	0.015366
2778.000000	0.015350
2777.000000	0.015338
2776.000000	0.015329
2775.000000	0.015317
2774.000000	0.015301
2773.000000	0.015281
2772.000000	0.015263
2771.000000	0.015247
2770.000000	0.015233
2769.000000	0.015218
2768.000000	0.015199
2767.000000	0.015178
2766.000000	0.015157
2765.000000	0.015139
2764.000000	0.015123
2763.000000	0.015107
2762.000000	0.015089
2761.000000	0.015072
2760.000000	0.015057
2759.000000	0.015048
2758.000000	0.015040
2757.000000	0.015030
2756.000000	0.015016
2755.000000	0.014998
2754.000000	0.014977
2753.000000	0.014958
2752.000000	0.014943
2751.000000	0.014931
2750.000000	0.014917
2749.000000	0.014897
2748.000000	0.014874
2747.000000	0.014854
2746.000000	0.014840
2745.000000	0.014832
2744.000000	0.014823
2743.000000	0.014811
2742.000000	0.014797
2741.000000	0.014783
2740.000000	0.014766
2739.000000	0.014746
2738.000000	0.014726
2737.000000	0.014710
2736.000000	0.014697
2735.000000	0.014685
2734.000000	0.014670
2733.000000	0.014653
2732.000000	0.014636
2731.000000	0.014622
2730.000000	0.014610
2729.000000	0.014598
2728.000000	0.014584
2727.000000	0.014568
2726.000000	0.014550
2725.000000	0.014531
2724.000000	0.014512
2723.000000	0.014497
2722.000000	0.014488
2721.000000	0.014485
2720.000000	0.014482
2719.000000	0.014472
2718.000000	0.014454
2717.000000	0.014431
2716.000000	0.014408
2715.000000	0.014386
2714.000000	0.014365
2713.000000	0.014346
2712.000000	0.014329
2711.000000	0.014312
2710.000000	0.014295
2709.000000	0.014278
2708.000000	0.014265
2707.000000	0.014254
2706.000000	0.014243
2705.000000	0.014229
2704.000000	0.014212
2703.000000	0.014195
2702.000000	0.014179
2701.000000	0.014167
2700.000000	0.014159
2699.000000	0.014151
2698.000000	0.014142
2697.000000	0.014131
2696.000000	0.014119
2695.000000	0.014107
2694.000000	0.014095
2693.000000	0.014082
2692.000000	0.014070
2691.000000	0.014060
2690.000000	0.014050
2689.000000	0.014037
2688.000000	0.014020
2687.000000	0.014003
2686.000000	0.013988
2685.000000	0.013979
2684.000000	0.013973
2683.000000	0.013969
2682.000000	0.013964
2681.000000	0.013957
2680.000000	0.013946
2679.000000	0.013933
2678.000000	0.013922
2677.000000	0.013913
2676.000000	0.013907
2675.000000	0.013899
2674.000000	0.013889
2673.000000	0.013879
2672.000000	0.013870
2671.000000	0.013861
2670.000000	0.013855
2669.000000	0.013855
2668.000000	0.013866
2667.000000	0.013889
2666.000000	0.013921
2665.000000	0.013954
2664.000000	0.013984
2663.000000	0.014009
2662.000000	0.014031
2661.000000	0.014050
2660.000000	0.014065
2659.000000	0.014076
2658.000000	0.014083
2657.000000	0.014087
2656.000000	0.014086
2655.000000	0.014079
2654.000000	0.014069
2653.000000	0.014060
2652.000000	0.014055
2651.000000	0.014051
2650.000000	0.014045
2649.000000	0.014033
2648.000000	0.014016
2647.000000	0.013996
2646.000000	0.013975
2645.000000	0.013958
2644.000000	0.013946
2643.000000	0.013937
2642.000000	0.013927
2641.000000	0.013912
2640.000000	0.013892
2639.000000	0.013867
2638.000000	0.013842
2637.000000	0.013823
2636.000000	0.013813
2635.000000	0.013809
2634.000000	0.013804
2633.000000	0.013792
2632.000000	0.013770
2631.000000	0.013746
2630.000000	0.013726
2629.000000	0.013713
2628.000000	0.013700
2627.000000	0.013681
2626.000000	0.013659
2625.000000	0.013639
2624.000000	0.013625
2623.000000	0.013616
2622.000000	0.013608
2621.000000	0.013598
2620.000000	0.013583
2619.000000	0.013563
2618.000000	0.013542
2617.000000	0.013522
2616.000000	0.013502
2615.000000	0.013480
2614.000000	0.013459
2613.000000	0.013438
2612.000000	0.013420
2611.000000	0.013403
2610.000000	0.013390
2609.000000	0.013380
2608.000000	0.013368
2607.000000	0.013350
2606.000000	0.013328
2605.000000	0.013310
2604.000000	0.013299
2603.000000	0.013290
2602.000000	0.013278
2601.000000	0.013260
2600.000000	0.013239
2599.000000	0.013219
2598.000000	0.013203
2597.000000	0.013192
2596.000000	0.013183
2595.000000	0.013171
2594.000000	0.013153
2593.000000	0.013129
2592.000000	0.013099
2591.000000	0.013065
2590.000000	0.013032
2589.000000	0.013006
2588.000000	0.012987
2587.000000	0.012968
2586.000000	0.012947
2585.000000	0.012929
2584.000000	0.012917
2583.000000	0.012907
2582.000000	0.012896
2581.000000	0.012883
2580.000000	0.012869
2579.000000	0.012854
2578.000000	0.012842
2577.000000	0.012835
2576.000000	0.012833
2575.000000	0.012832
2574.000000	0.012828
2573.000000	0.012818
2572.000000	0.012800
2571.000000	0.012775
2570.000000	0.012749
2569.000000	0.012733
2568.000000	0.012725
2567.000000	0.012719
2566.000000	0.012707
2565.000000	0.012691
2564.000000	0.012675
2563.000000	0.012660
2562.000000	0.012644
2561.000000	0.012628
2560.000000	0.012614
2559.000000	0.012603
2558.000000	0.012596
2557.000000	0.012592
2556.000000	0.012588
2555.000000	0.012576
2554.000000	0.012556
2553.000000	0.012536
2552.000000	0.012524
2551.000000	0.012519
2550.000000	0.012518
2549.000000	0.012517
2548.000000	0.012518
2547.000000	0.012520
2546.000000	0.012519
2545.000000	0.012512
2544.000000	0.012501
2543.000000	0.012487
2542.000000	0.012469
2541.000000	0.012445
2540.000000	0.012412
2539.000000	0.012376
2538.000000	0.012345
2537.000000	0.012330
2536.000000	0.012332
2535.000000	0.012343
2534.000000	0.012347
2533.000000	0.012340
2532.000000	0.012322
2531.000000	0.012300
2530.000000	0.012281
2529.000000	0.012270
2528.000000	0.012271
2527.000000	0.012282
2526.000000	0.012292
2525.000000	0.012292
2524.000000	0.012281
2523.000000	0.012268
2522.000000	0.012261
2521.000000	0.012257
2520.000000	0.012250
2519.000000	0.012236
2518.000000	0.012219
2517.000000	0.012205
2516.000000	0.012192
2515.000000	0.012177
2514.000000	0.012161
2513.000000	0.012148
2512.000000	0.012142
2511.000000	0.012137
2510.000000	0.012132
2509.000000	0.012125
2508.000000	0.012115
2507.000000	0.012105
2506.000000	0.012100
2505.000000	0.012106
2504.000000	0.012115
2503.000000	0.012116
2502.000000	0.012104
2501.000000	0.012087
2500.000000	0.012072
2499.000000	0.012063
2498.000000	0.012058
2497.000000	0.012057
2496.000000	0.012060
2495.000000	0.012061
2494.000000	0.012053
2493.000000	0.012035
2492.000000	0.012012
2491.000000	0.011996
2490.000000	0.011993
2489.000000	0.012002
2488.000000	0.012010
2487.000000	0.012004
2486.000000	0.011986
2485.000000	0.011965
2484.000000	0.011953
2483.000000	0.011951
2482.000000	0.011953
2481.000000	0.011951
2480.000000	0.011943
2479.000000	0.011929
2478.000000	0.011914
2477.000000	0.011903
2476.000000	0.011896
2475.000000	0.011891
2474.000000	0.011885
2473.000000	0.011878
2472.000000	0.011870
2471.000000	0.011864
2470.000000	0.011861
2469.000000	0.011862
2468.000000	0.011865
2467.000000	0.011870
2466.000000	0.011879
2465.000000	0.011890
2464.000000	0.011899
2463.000000	0.011899
2462.000000	0.011890
2461.000000	0.011880
2460.000000	0.011875
2459.000000	0.011880
2458.000000	0.011896
2457.000000	0.011916
2456.000000	0.011928
2455.000000	0.011926
2454.000000	0.011913
2453.000000	0.011895
2452.000000	0.011876
2451.000000	0.011856
2450.000000	0.011837
2449.000000	0.011822
2448.000000	0.011806
2447.000000	0.011787
2446.000000	0.011768
2445.000000	0.011754
2444.000000	0.011745
2443.000000	0.011734
2442.000000	0.011716
2441.000000	0.011693
2440.000000	0.011671
2439.000000	0.011653
2438.000000	0.011639
2437.000000	0.011630
2436.000000	0.011621
2435.000000	0.011606
2434.000000	0.011586
2433.000000	0.011572
2432.000000	0.011568
2431.000000	0.011568
2430.000000	0.011560
2429.000000	0.011540
2428.000000	0.011511
2427.000000	0.011484
2426.000000	0.011467
2425.000000	0.011461
2424.000000	0.011458
2423.000000	0.011449
2422.000000	0.011436
2421.000000	0.011424
2420.000000	0.011412
2419.000000	0.011393
2418.000000	0.011365
2417.000000	0.011339
2416.000000	0.011326
2415.000000	0.011327
2414.000000	0.011334
2413.000000	0.011340
2412.000000	0.011345
2411.000000	0.011346
2410.000000	0.011333
2409.000000	0.011297
2408.000000	0.011239
2407.000000	0.011178
2406.000000	0.011135
2405.000000	0.011119
2404.000000	0.011124
2403.000000	0.011135
2402.000000	0.011143
2401.000000	0.011145
2400.000000	0.011138
2399.000000	0.011125
2398.000000	0.011110
2397.000000	0.011099
2396.000000	0.011092
2395.000000	0.011084
2394.000000	0.011073
2393.000000	0.011060
2392.000000	0.011049
2391.000000	0.011041
2390.000000	0.011037
2389.000000	0.011030
2388.000000	0.011017
2387.000000	0.011001
2386.000000	0.010988
2385.000000	0.010980
2384.000000	0.010973
2383.000000	0.010965
2382.000000	0.010957
2381.000000	0.010954
2380.000000	0.010955
2379.000000	0.010954
2378.000000	0.010949
2377.000000	0.010943
2376.000000	0.010941
2375.000000	0.010943
2374.000000	0.010946
2373.000000	0.010948
2372.000000	0.010945
2371.000000	0.010935
2370.000000	0.010919
2369.000000	0.010905
2368.000000	0.010899
2367.000000	0.010900
2366.000000	0.010911
2365.000000	0.010940
2364.000000	0.010977
2363.000000	0.011006
2362.000000	0.011022
2361.000000	0.011025
2360.000000	0.011031
2359.000000	0.011034
2358.000000	0.011023
2357.000000	0.011002
2356.000000	0.010963
2355.000000	0.010898
2354.000000	0.010840
2353.000000	0.010866
2352.000000	0.011002
2351.000000	0.011174
2350.000000	0.011295
2349.000000	0.011311
2348.000000	0.011246
2347.000000	0.011170
2346.000000	0.011150
2345.000000	0.011180
2344.000000	0.011205
2343.000000	0.011221
2342.000000	0.011240
2341.000000	0.011261
2340.000000	0.011264
2339.000000	0.011248
2338.000000	0.011226
2337.000000	0.011217
2336.000000	0.011213
2335.000000	0.011197
2334.000000	0.011158
2333.000000	0.011114
2332.000000	0.011086
2331.000000	0.011083
2330.000000	0.011146
2329.000000	0.011320
2328.000000	0.011621
2327.000000	0.011971
2326.000000	0.012244
2325.000000	0.012345
2324.000000	0.012262
2323.000000	0.012080
2322.000000	0.011892
2321.000000	0.011756
2320.000000	0.011672
2319.000000	0.011619
2318.000000	0.011577
2317.000000	0.011533
2316.000000	0.011482
2315.000000	0.011427
2314.000000	0.011380
2313.000000	0.011347
2312.000000	0.011328
2311.000000	0.011316
2310.000000	0.011305
2309.000000	0.011295
2308.000000	0.011291
2307.000000	0.011295
2306.000000	0.011306
2305.000000	0.011318
2304.000000	0.011325
2303.000000	0.011328
2302.000000	0.011328
2301.000000	0.011330
2300.000000	0.011340
2299.000000	0.011364
2298.000000	0.011403
2297.000000	0.011449
2296.000000	0.011494
2295.000000	0.011535
2294.000000	0.011582
2293.000000	0.011640
2292.000000	0.011702
2291.000000	0.011756
2290.000000	0.011796
2289.000000	0.011818
2288.000000	0.011823
2287.000000	0.011807
2286.000000	0.011769
2285.000000	0.011712
2284.000000	0.011641
2283.000000	0.011567
2282.000000	0.011503
2281.000000	0.011455
2280.000000	0.011421
2279.000000	0.011397
2278.000000	0.011379
2277.000000	0.011362
2276.000000	0.011338
2275.000000	0.011301
2274.000000	0.011258
2273.000000	0.011221
2272.000000	0.011199
2271.000000	0.011188
2270.000000	0.011182
2269.000000	0.011167
2268.000000	0.011134
2267.000000	0.011081
2266.000000	0.011023
2265.000000	0.010981
2264.000000	0.010968
2263.000000	0.010982
2262.000000	0.011015
2261.000000	0.011054
2260.000000	0.011073
2259.000000	0.011050
2258.000000	0.010975
2257.000000	0.010866
2256.000000	0.010758
2255.000000	0.010681
2254.000000	0.010656
2253.000000	0.010681
2252.000000	0.010728
2251.000000	0.010765
2250.000000	0.010776
2249.000000	0.010770
2248.000000	0.010767
2247.000000	0.010772
2246.000000	0.010780
2245.000000	0.010780
2244.000000	0.010765
2243.000000	0.010740
2242.000000	0.010713
2241.000000	0.010688
2240.000000	0.010658
2239.000000	0.010626
2238.000000	0.010607
2237.000000	0.010613
2236.000000	0.010634
2235.000000	0.010650
2234.000000	0.010652
2233.000000	0.010651
2232.000000	0.010653
2231.000000	0.010649
2230.000000	0.010635
2229.000000	0.010618
2228.000000	0.010611
2227.000000	0.010612
2226.000000	0.010614
2225.000000	0.010615
2224.000000	0.010616
2223.000000	0.010616
2222.000000	0.010608
2221.000000	0.010589
2220.000000	0.010559
2219.000000	0.010524
2218.000000	0.010493
2217.000000	0.010480
2216.000000	0.010492
2215.000000	0.010518
2214.000000	0.010535
2213.000000	0.010527
2212.000000	0.010499
2211.000000	0.010470
2210.000000	0.010458
2209.000000	0.010462
2208.000000	0.010472
2207.000000	0.010478
2206.000000	0.010479
2205.000000	0.010480
2204.000000	0.010491
2203.000000	0.010517
2202.000000	0.010550
2201.000000	0.010571
2200.000000	0.010570
2199.000000	0.010555
2198.000000	0.010547
2197.000000	0.010551
2196.000000	0.010561
2195.000000	0.010573
2194.000000	0.010584
2193.000000	0.010589
2192.000000	0.010580
2191.000000	0.010570
2190.000000	0.010588
2189.000000	0.010644
2188.000000	0.010711
2187.000000	0.010734
2186.000000	0.010670
2185.000000	0.010510
2184.000000	0.010289
2183.000000	0.010088
2182.000000	0.009984
2181.000000	0.009993
2180.000000	0.010042
2179.000000	0.010037
2178.000000	0.009949
2177.000000	0.009829
2176.000000	0.009758
2175.000000	0.009776
2174.000000	0.009880
2173.000000	0.010043
2172.000000	0.010233
2171.000000	0.010419
2170.000000	0.010575
2169.000000	0.010687
2168.000000	0.010760
2167.000000	0.010820
2166.000000	0.010914
2165.000000	0.011080
2164.000000	0.011275
2163.000000	0.011317
2162.000000	0.010941
2161.000000	0.010005
2160.000000	0.008726
2159.000000	0.007604
2158.000000	0.007032
2157.000000	0.007020
2156.000000	0.007309
2155.000000	0.007645
2154.000000	0.007912
2153.000000	0.008091
2152.000000	0.008192
2151.000000	0.008238
2150.000000	0.008253
2149.000000	0.008261
2148.000000	0.008279
2147.000000	0.008324
2146.000000	0.008400
2145.000000	0.008478
2144.000000	0.008519
2143.000000	0.008523
2142.000000	0.008531
2141.000000	0.008570
2140.000000	0.008615
2139.000000	0.008612
2138.000000	0.008531
2137.000000	0.008375
2136.000000	0.008185
2135.000000	0.008027
2134.000000	0.007971
2133.000000	0.008038
2132.000000	0.008183
2131.000000	0.008344
2130.000000	0.008492
2129.000000	0.008634
2128.000000	0.008775
2127.000000	0.008904
2126.000000	0.009015
2125.000000	0.009109
2124.000000	0.009191
2123.000000	0.009263
2122.000000	0.009331
2121.000000	0.009401
2120.000000	0.009473
2119.000000	0.009543
2118.000000	0.009609
2117.000000	0.009673
2116.000000	0.009723
2115.000000	0.009748
2114.000000	0.009751
2113.000000	0.009744
2112.000000	0.009735
2111.000000	0.009725
2110.000000	0.009722
2109.000000	0.009733
2108.000000	0.009753
2107.000000	0.009765
2106.000000	0.009760
2105.000000	0.009745
2104.000000	0.009728
2103.000000	0.009709
2102.000000	0.009689
2101.000000	0.009674
2100.000000	0.009660
2099.000000	0.009625
2098.000000	0.009549
2097.000000	0.009433
2096.000000	0.009310
2095.000000	0.009228
2094.000000	0.009221
2093.000000	0.009284
2092.000000	0.009379
2091.000000	0.009465
2090.000000	0.009523
2089.000000	0.009563
2088.000000	0.009602
2087.000000	0.009649
2086.000000	0.009704
2085.000000	0.009756
2084.000000	0.009784
2083.000000	0.009777
2082.000000	0.009748
2081.000000	0.009723
2080.000000	0.009720
2079.000000	0.009731
2078.000000	0.009734
2077.000000	0.009710
2076.000000	0.009658
2075.000000	0.009597
2074.000000	0.009548
2073.000000	0.009520
2072.000000	0.009509
2071.000000	0.009508
2070.000000	0.009515
2069.000000	0.009521
2068.000000	0.009509
2067.000000	0.009469
2066.000000	0.009409
2065.000000	0.009355
2064.000000	0.009327
2063.000000	0.009327
2062.000000	0.009338
2061.000000	0.009341
2060.000000	0.009340
2059.000000	0.009358
2058.000000	0.009397
2057.000000	0.009420
2056.000000	0.009410
2055.000000	0.009443
2054.000000	0.009628
2053.000000	0.009957
2052.000000	0.010255
2051.000000	0.010332
2050.000000	0.010152
2049.000000	0.009849
2048.000000	0.009581
2047.000000	0.009402
2046.000000	0.009295
2045.000000	0.009244
2044.000000	0.009246
2043.000000	0.009285
2042.000000	0.009338
2041.000000	0.009377
2040.000000	0.009385
2039.000000	0.009368
2038.000000	0.009341
2037.000000	0.009301
2036.000000	0.009210
2035.000000	0.009049
2034.000000	0.008864
2033.000000	0.008723
2032.000000	0.008646
2031.000000	0.008599
2030.000000	0.008559
2029.000000	0.008527
2028.000000	0.008492
2027.000000	0.008435
2026.000000	0.008372
2025.000000	0.008353
2024.000000	0.008397
2023.000000	0.008463
2022.000000	0.008492
2021.000000	0.008464
2020.000000	0.008400
2019.000000	0.008340
2018.000000	0.008318
2017.000000	0.008350
2016.000000	0.008424
2015.000000	0.008513
2014.000000	0.008590
2013.000000	0.008636
2012.000000	0.008640
2011.000000	0.008595
2010.000000	0.008489
2009.000000	0.008306
2008.000000	0.008056
2007.000000	0.007810
2006.000000	0.007663
2005.000000	0.007650
2004.000000	0.007730
2003.000000	0.007851
2002.000000	0.008002
2001.000000	0.008175
2000.000000	0.008327
1999.000000	0.008414
1998.000000	0.008444
1997.000000	0.008455
1996.000000	0.008461
1995.000000	0.008460
1994.000000	0.008470
1993.000000	0.008516
1992.000000	0.008582
1991.000000	0.008631
1990.000000	0.008664
1989.000000	0.008721
1988.000000	0.008822
1987.000000	0.008938
1986.000000	0.009040
1985.000000	0.009135
1984.000000	0.009259
1983.000000	0.009433
1982.000000	0.009610
1981.000000	0.009666
1980.000000	0.009458
1979.000000	0.008965
1978.000000	0.008355
1977.000000	0.007864
1976.000000	0.007589
1975.000000	0.007473
1974.000000	0.007449
1973.000000	0.007495
1972.000000	0.007587
1971.000000	0.007671
1970.000000	0.007712
1969.000000	0.007717
1968.000000	0.007698
1967.000000	0.007658
1966.000000	0.007609
1965.000000	0.007572
1964.000000	0.007545
1963.000000	0.007500
1962.000000	0.007424
1961.000000	0.007333
1960.000000	0.007250
1959.000000	0.007196
1958.000000	0.007196
1957.000000	0.007259
1956.000000	0.007355
1955.000000	0.007435
1954.000000	0.007477
1953.000000	0.007497
1952.000000	0.007513
1951.000000	0.007537
1950.000000	0.007572
1949.000000	0.007608
1948.000000	0.007612
1947.000000	0.007562
1946.000000	0.007484
1945.000000	0.007434
1944.000000	0.007436
1943.000000	0.007470
1942.000000	0.007507
1941.000000	0.007539
1940.000000	0.007566
1939.000000	0.007585
1938.000000	0.007598
1937.000000	0.007606
1936.000000	0.007595
1935.000000	0.007555
1934.000000	0.007504
1933.000000	0.007470
1932.000000	0.007466
1931.000000	0.007475
1930.000000	0.007482
1929.000000	0.007486
1928.000000	0.007488
1927.000000	0.007481
1926.000000	0.007470
1925.000000	0.007475
1924.000000	0.007508
1923.000000	0.007562
1922.000000	0.007618
1921.000000	0.007659
1920.000000	0.007680
1919.000000	0.007684
1918.000000	0.007686
1917.000000	0.007693
1916.000000	0.007695
1915.000000	0.007680
1914.000000	0.007650
1913.000000	0.007617
1912.000000	0.007581
1911.000000	0.007538
1910.000000	0.007499
1909.000000	0.007487
1908.000000	0.007504
1907.000000	0.007535
1906.000000	0.007561
1905.000000	0.007578
1904.000000	0.007583
1903.000000	0.007577
1902.000000	0.007565
1901.000000	0.007558
1900.000000	0.007548
1899.000000	0.007518
1898.000000	0.007471
1897.000000	0.007429
1896.000000	0.007407
1895.000000	0.007402
1894.000000	0.007403
1893.000000	0.007404
1892.000000	0.007407
1891.000000	0.007420
1890.000000	0.007452
1889.000000	0.007496
1888.000000	0.007528
1887.000000	0.007529
1886.000000	0.007510
1885.000000	0.007494
1884.000000	0.007486
1883.000000	0.007473
1882.000000	0.007452
1881.000000	0.007432
1880.000000	0.007416
1879.000000	0.007397
1878.000000	0.007378
1877.000000	0.007377
1876.000000	0.007392
1875.000000	0.007405
1874.000000	0.007400
1873.000000	0.007374
1872.000000	0.007334
1871.000000	0.007288
1870.000000	0.007256
1869.000000	0.007261
1868.000000	0.007290
1867.000000	0.007307
1866.000000	0.007300
1865.000000	0.007278
1864.000000	0.007255
1863.000000	0.007235
1862.000000	0.007224
1861.000000	0.007231
1860.000000	0.007244
1859.000000	0.007244
1858.000000	0.007228
1857.000000	0.007211
1856.000000	0.007200
1855.000000	0.007187
1854.000000	0.007164
1853.000000	0.007141
1852.000000	0.007125
1851.000000	0.007113
1850.000000	0.007102
1849.000000	0.007091
1848.000000	0.007080
1847.000000	0.007072
1846.000000	0.007083
1845.000000	0.007126
1844.000000	0.007180
1843.000000	0.007190
1842.000000	0.007140
1841.000000	0.007079
1840.000000	0.007043
1839.000000	0.007024
1838.000000	0.007010
1837.000000	0.007005
1836.000000	0.007008
1835.000000	0.007001
1834.000000	0.006969
1833.000000	0.006915
1832.000000	0.006852
1831.000000	0.006808
1830.000000	0.006814
1829.000000	0.006854
1828.000000	0.006880
1827.000000	0.006881
1826.000000	0.006887
1825.000000	0.006926
1824.000000	0.006970
1823.000000	0.006984
1822.000000	0.006963
1821.000000	0.006919
1820.000000	0.006851
1819.000000	0.006759
1818.000000	0.006675
1817.000000	0.006635
1816.000000	0.006638
1815.000000	0.006653
1814.000000	0.006661
1813.000000	0.006672
1812.000000	0.006697
1811.000000	0.006733
1810.000000	0.006770
1809.000000	0.006801
1808.000000	0.006817
1807.000000	0.006810
1806.000000	0.006788
1805.000000	0.006767
1804.000000	0.006752
1803.000000	0.006733
1802.000000	0.006712
1801.000000	0.006703
1800.000000	0.006710
1799.000000	0.006721
1798.000000	0.006724
1797.000000	0.006719
1796.000000	0.006708
1795.000000	0.006695
1794.000000	0.006689
1793.000000	0.006719
1792.000000	0.006781
1791.000000	0.006817
1790.000000	0.006793
1789.000000	0.006742
1788.000000	0.006703
1787.000000	0.006685
1786.000000	0.006687
1785.000000	0.006703
1784.000000	0.006704
1783.000000	0.006670
1782.000000	0.006622
1781.000000	0.006597
1780.000000	0.006593
1779.000000	0.006571
1778.000000	0.006520
1777.000000	0.006478
1776.000000	0.006482
1775.000000	0.006525
1774.000000	0.006570
1773.000000	0.006601
1772.000000	0.006613
1771.000000	0.006587
1770.000000	0.006556
1769.000000	0.006567
1768.000000	0.006602
1767.000000	0.006596
1766.000000	0.006533
1765.000000	0.006463
1764.000000	0.006427
1763.000000	0.006422
1762.000000	0.006439
1761.000000	0.006464
1760.000000	0.006468
1759.000000	0.006446
1758.000000	0.006433
1757.000000	0.006457
1756.000000	0.006492
1755.000000	0.006503
1754.000000	0.006515
1753.000000	0.006564
1752.000000	0.006616
1751.000000	0.006596
1750.000000	0.006501
1749.000000	0.006422
1748.000000	0.006413
1747.000000	0.006434
1746.000000	0.006446
1745.000000	0.006461
1744.000000	0.006484
1743.000000	0.006487
1742.000000	0.006469
1741.000000	0.006483
1740.000000	0.006547
1739.000000	0.006599
1738.000000	0.006622
1737.000000	0.006706
1736.000000	0.006894
1735.000000	0.007106
1734.000000	0.007238
1733.000000	0.007213
1732.000000	0.007051
1731.000000	0.006875
1730.000000	0.006787
1729.000000	0.006799
1728.000000	0.006853
1727.000000	0.006881
1726.000000	0.006879
1725.000000	0.006897
1724.000000	0.006956
1723.000000	0.007003
1722.000000	0.007007
1721.000000	0.007039
1720.000000	0.007172
1719.000000	0.007386
1718.000000	0.007610
1717.000000	0.007787
1716.000000	0.007890
1715.000000	0.007930
1714.000000	0.007973
1713.000000	0.008094
1712.000000	0.008297
1711.000000	0.008530
1710.000000	0.008773
1709.000000	0.009052
1708.000000	0.009405
1707.000000	0.009867
1706.000000	0.010496
1705.000000	0.011295
1704.000000	0.012163
1703.000000	0.013081
1702.000000	0.014209
1701.000000	0.015912
1700.000000	0.018091
1699.000000	0.019884
1698.000000	0.021048
1697.000000	0.022045
1696.000000	0.023035
1695.000000	0.023773
1694.000000	0.024101
1693.000000	0.024266
1692.000000	0.024537
1691.000000	0.024963
1690.000000	0.025494
1689.000000	0.026112
1688.000000	0.026820
1687.000000	0.027597
1686.000000	0.028391
1685.000000	0.029294
1684.000000	0.030353
1683.000000	0.031250
1682.000000	0.031901
1681.000000	0.032576
1680.000000	0.033375
1679.000000	0.034212
1678.000000	0.035027
1677.000000	0.035904
1676.000000	0.036941
1675.000000	0.038057
1674.000000	0.039034
1673.000000	0.039843
1672.000000	0.040649
1671.000000	0.041580
1670.000000	0.042676
1669.000000	0.043878
1668.000000	0.045023
1667.000000	0.045995
1666.000000	0.046851
1665.000000	0.047732
1664.000000	0.048736
1663.000000	0.049846
1662.000000	0.050940
1661.000000	0.051950
1660.000000	0.052897
1659.000000	0.053785
1658.000000	0.054599
1657.000000	0.055408
1656.000000	0.056307
1655.000000	0.057254
1654.000000	0.058193
1653.000000	0.059173
1652.000000	0.059889
1651.000000	0.060086
1650.000000	0.060115
1649.000000	0.060331
1648.000000	0.060808
1647.000000	0.061412
1646.000000	0.061971
1645.000000	0.062419
1644.000000	0.062791
1643.000000	0.063146
1642.000000	0.063520
1641.000000	0.063921
1640.000000	0.064357
1639.000000	0.064828
1638.000000	0.065314
1637.000000	0.065810
1636.000000	0.066370
1635.000000	0.066969
1634.000000	0.067495
1633.000000	0.067975
1632.000000	0.068516
1631.000000	0.069113
1630.000000	0.069709
1629.000000	0.070326
1628.000000	0.071029
1627.000000	0.071781
1626.000000	0.072483
1625.000000	0.073122
1624.000000	0.073754
1623.000000	0.074367
1622.000000	0.074870
1621.000000	0.075263
1620.000000	0.075623
1619.000000	0.075887
1618.000000	0.075784
1617.000000	0.075087
1616.000000	0.073946
1615.000000	0.072672
1614.000000	0.071359
1613.000000	0.069939
1612.000000	0.068316
1611.000000	0.066445
1610.000000	0.064377
1609.000000	0.062207
1608.000000	0.060036
1607.000000	0.057948
1606.000000	0.055972
1605.000000	0.054074
1604.000000	0.052224
1603.000000	0.050457
1602.000000	0.048811
1601.000000	0.047283
1600.000000	0.045865
1599.000000	0.044578
1598.000000	0.043420
1597.000000	0.042333
1596.000000	0.041278
1595.000000	0.040290
1594.000000	0.039398
1593.000000	0.038568
1592.000000	0.037768
1591.000000	0.037031
1590.000000	0.036387
1589.000000	0.035805
1588.000000	0.035257
1587.000000	0.034780
1586.000000	0.034400
1585.000000	0.034073
1584.000000	0.033756
1583.000000	0.033493
1582.000000	0.033328
1581.000000	0.033228
1580.000000	0.033183
1579.000000	0.033266
1578.000000	0.033503
1577.000000	0.033781
1576.000000	0.033968
1575.000000	0.034059
1574.000000	0.034137
1573.000000	0.034275
1572.000000	0.034500
1571.000000	0.034850
1570.000000	0.035396
1569.000000	0.036051
1568.000000	0.036633
1567.000000	0.037154
1566.000000	0.037751
1565.000000	0.038448
1564.000000	0.039185
1563.000000	0.039953
1562.000000	0.040778
1561.000000	0.041559
1560.000000	0.042352
1559.000000	0.043537
1558.000000	0.044841
1557.000000	0.045720
1556.000000	0.046361
1555.000000	0.047093
1554.000000	0.047971
1553.000000	0.048818
1552.000000	0.049556
1551.000000	0.050313
1550.000000	0.051188
1549.000000	0.052091
1548.000000	0.052885
1547.000000	0.053590
1546.000000	0.054301
1545.000000	0.055042
1544.000000	0.055760
1543.000000	0.056458
1542.000000	0.057210
1541.000000	0.058050
1540.000000	0.058921
1539.000000	0.059684
1538.000000	0.060198
1537.000000	0.060506
1536.000000	0.060792
1535.000000	0.061185
1534.000000	0.061733
1533.000000	0.062377
1532.000000	0.062985
1531.000000	0.063528
1530.000000	0.064041
1529.000000	0.064532
1528.000000	0.065004
1527.000000	0.065486
1526.000000	0.065984
1525.000000	0.066450
1524.000000	0.066873
1523.000000	0.067319
1522.000000	0.067814
1521.000000	0.068255
1520.000000	0.068522
1519.000000	0.068673
1518.000000	0.068818
1517.000000	0.068928
1516.000000	0.068936
1515.000000	0.068846
1514.000000	0.068638
1513.000000	0.068223
1512.000000	0.067595
1511.000000	0.066926
1510.000000	0.066356
1509.000000	0.065770
1508.000000	0.064798
1507.000000	0.063246
1506.000000	0.061612
1505.000000	0.060319
1504.000000	0.059228
1503.000000	0.058229
1502.000000	0.057255
1501.000000	0.056200
1500.000000	0.055069
1499.000000	0.053943
1498.000000	0.052792
1497.000000	0.051478
1496.000000	0.050053
1495.000000	0.048725
1494.000000	0.047568
1493.000000	0.046499
1492.000000	0.045394
1491.000000	0.044171
1490.000000	0.042855
1489.000000	0.041591
1488.000000	0.040518
1487.000000	0.039641
1486.000000	0.038869
1485.000000	0.038151
1484.000000	0.037489
1483.000000	0.036877
1482.000000	0.036294
1481.000000	0.035751
1480.000000	0.035297
1479.000000	0.034937
1478.000000	0.034624
1477.000000	0.034342
1476.000000	0.034141
1475.000000	0.034049
1474.000000	0.034023
1473.000000	0.034043
1472.000000	0.034133
1471.000000	0.034248
1470.000000	0.034311
1469.000000	0.034321
1468.000000	0.034315
1467.000000	0.034310
1466.000000	0.034298
1465.000000	0.034297
1464.000000	0.034363
1463.000000	0.034512
1462.000000	0.034710
1461.000000	0.034953
1460.000000	0.035291
1459.000000	0.035772
1458.000000	0.036411
1457.000000	0.037112
1456.000000	0.037615
1455.000000	0.037805
1454.000000	0.037844
1453.000000	0.037888
1452.000000	0.037951
1451.000000	0.037989
1450.000000	0.037974
1449.000000	0.037888
1448.000000	0.037734
1447.000000	0.037543
1446.000000	0.037329
1445.000000	0.037067
1444.000000	0.036752
1443.000000	0.036408
1442.000000	0.036043
1441.000000	0.035668
1440.000000	0.035324
1439.000000	0.035030
1438.000000	0.034717
1437.000000	0.034302
1436.000000	0.033829
1435.000000	0.033398
1434.000000	0.033034
1433.000000	0.032707
1432.000000	0.032403
1431.000000	0.032139
1430.000000	0.031932
1429.000000	0.031774
1428.000000	0.031660
1427.000000	0.031594
1426.000000	0.031565
1425.000000	0.031558
1424.000000	0.031587
1423.000000	0.031689
1422.000000	0.031863
1421.000000	0.032055
1420.000000	0.032230
1419.000000	0.032406
1418.000000	0.032567
1417.000000	0.032683
1416.000000	0.032801
1415.000000	0.032969
1414.000000	0.033167
1413.000000	0.033358
1412.000000	0.033544
1411.000000	0.033738
1410.000000	0.033931
1409.000000	0.034093
1408.000000	0.034221
1407.000000	0.034332
1406.000000	0.034435
1405.000000	0.034524
1404.000000	0.034592
1403.000000	0.034637
1402.000000	0.034651
1401.000000	0.034628
1400.000000	0.034587
1399.000000	0.034563
1398.000000	0.034557
1397.000000	0.034542
1396.000000	0.034517
1395.000000	0.034507
1394.000000	0.034517
1393.000000	0.034516
1392.000000	0.034496
1391.000000	0.034489
1390.000000	0.034509
1389.000000	0.034524
1388.000000	0.034503
1387.000000	0.034439
1386.000000	0.034332
1385.000000	0.034187
1384.000000	0.034026
1383.000000	0.033873
1382.000000	0.033722
1381.000000	0.033560
1380.000000	0.033390
1379.000000	0.033233
1378.000000	0.033083
1377.000000	0.032922
1376.000000	0.032761
1375.000000	0.032635
1374.000000	0.032563
1373.000000	0.032517
1372.000000	0.032467
1371.000000	0.032401
1370.000000	0.032304
1369.000000	0.032154
1368.000000	0.031953
1367.000000	0.031732
1366.000000	0.031503
1365.000000	0.031255
1364.000000	0.030989
1363.000000	0.030738
1362.000000	0.030519
1361.000000	0.030321
1360.000000	0.030139
1359.000000	0.029981
1358.000000	0.029842
1357.000000	0.029703
1356.000000	0.029569
1355.000000	0.029462
1354.000000	0.029385
1353.000000	0.029314
1352.000000	0.029247
1351.000000	0.029204
1350.000000	0.029188
1349.000000	0.029175
1348.000000	0.029160
1347.000000	0.029162
1346.000000	0.029183
1345.000000	0.029203
1344.000000	0.029218
1343.000000	0.029244
1342.000000	0.029280
1341.000000	0.029306
1340.000000	0.029319
1339.000000	0.029338
1338.000000	0.029359
1337.000000	0.029357
1336.000000	0.029330
1335.000000	0.029300
1334.000000	0.029271
1333.000000	0.029229
1332.000000	0.029181
1331.000000	0.029151
1330.000000	0.029140
1329.000000	0.029126
1328.000000	0.029109
1327.000000	0.029111
1326.000000	0.029132
1325.000000	0.029146
1324.000000	0.029150
1323.000000	0.029163
1322.000000	0.029191
1321.000000	0.029216
1320.000000	0.029239
1319.000000	0.029281
1318.000000	0.029337
1317.000000	0.029376
1316.000000	0.029391
1315.000000	0.029407
1314.000000	0.029431
1313.000000	0.029440
1312.000000	0.029429
1311.000000	0.029416
1310.000000	0.029406
1309.000000	0.029378
1308.000000	0.029333
1307.000000	0.029293
1306.000000	0.029263
1305.000000	0.029221
1304.000000	0.029166
1303.000000	0.029119
1302.000000	0.029081
1301.000000	0.029034
1300.000000	0.028974
1299.000000	0.028925
1298.000000	0.028893
1297.000000	0.028855
1296.000000	0.028811
1295.000000	0.028784
1294.000000	0.028780
1293.000000	0.028777
1292.000000	0.028771
1291.000000	0.028783
1290.000000	0.028811
1289.000000	0.028825
1288.000000	0.028819
1287.000000	0.028814
1286.000000	0.028817
1285.000000	0.028807
1284.000000	0.028783
1283.000000	0.028770
1282.000000	0.028768
1281.000000	0.028748
1280.000000	0.028704
1279.000000	0.028662
1278.000000	0.028637
1277.000000	0.028614
1276.000000	0.028593
1275.000000	0.028595
1274.000000	0.028622
1273.000000	0.028652
1272.000000	0.028686
1271.000000	0.028745
1270.000000	0.028830
1269.000000	0.028910
1268.000000	0.028981
1267.000000	0.029074
1266.000000	0.029202
1265.000000	0.029342
1264.000000	0.029490
1263.000000	0.029667
1262.000000	0.029876
1261.000000	0.030094
1260.000000	0.030320
1259.000000	0.030576
1258.000000	0.030856
1257.000000	0.031130
1256.000000	0.031392
1255.000000	0.031668
1254.000000	0.031960
1253.000000	0.032237
1252.000000	0.032490
1251.000000	0.032740
1250.000000	0.032993
1249.000000	0.033224
1248.000000	0.033431
1247.000000	0.033632
1246.000000	0.033828
1245.000000	0.033992
1244.000000	0.034121
1243.000000	0.034241
1242.000000	0.034360
1241.000000	0.034454
1240.000000	0.034519
1239.000000	0.034579
1238.000000	0.034639
1237.000000	0.034672
1236.000000	0.034676
1235.000000	0.034673
1234.000000	0.034668
1233.000000	0.034639
1232.000000	0.034582
1231.000000	0.034524
1230.000000	0.034472
1229.000000	0.034400
1228.000000	0.034297
1227.000000	0.034183
1226.000000	0.034058
1225.000000	0.033901
1224.000000	0.033711
1223.000000	0.033522
1222.000000	0.033337
1221.000000	0.033129
1220.000000	0.032892
1219.000000	0.032655
1218.000000	0.032424
1217.000000	0.032168
1216.000000	0.031881
1215.000000	0.031595
1214.000000	0.031327
1213.000000	0.031049
1212.000000	0.030747
1211.000000	0.030448
1210.000000	0.030162
1209.000000	0.029865
1208.000000	0.029547
1207.000000	0.029232
1206.000000	0.028926
1205.000000	0.028609
1204.000000	0.028284
1203.000000	0.027987
1202.000000	0.027723
1201.000000	0.027458
1200.000000	0.027184
1199.000000	0.026937
1198.000000	0.026731
1197.000000	0.026534
1196.000000	0.026332
1195.000000	0.026153
1194.000000	0.026007
1193.000000	0.025865
1192.000000	0.025716
1191.000000	0.025588
1190.000000	0.025486
1189.000000	0.025380
1188.000000	0.025263
1187.000000	0.025173
1186.000000	0.025122
1185.000000	0.025085
1184.000000	0.025056
1183.000000	0.025063
1182.000000	0.025110
1181.000000	0.025163
1180.000000	0.025221
1179.000000	0.025331
1178.000000	0.025505
1177.000000	0.025708
1176.000000	0.025926
1175.000000	0.026183
1174.000000	0.026478
1173.000000	0.026763
1172.000000	0.027015
1171.000000	0.027256
1170.000000	0.027490
1169.000000	0.027684
1168.000000	0.027837
1167.000000	0.027988
1166.000000	0.028146
1165.000000	0.028269
1164.000000	0.028349
1163.000000	0.028423
1162.000000	0.028503
1161.000000	0.028549
1160.000000	0.028544
1159.000000	0.028516
1158.000000	0.028479
1157.000000	0.028401
1156.000000	0.028277
1155.000000	0.028146
1154.000000	0.028023
1153.000000	0.027874
1152.000000	0.027694
1151.000000	0.027520
1150.000000	0.027361
1149.000000	0.027180
1148.000000	0.026971
1147.000000	0.026780
1146.000000	0.026623
1145.000000	0.026464
1144.000000	0.026291
1143.000000	0.026144
1142.000000	0.026038
1141.000000	0.025936
1140.000000	0.025826
1139.000000	0.025742
1138.000000	0.025689
1137.000000	0.025629
1136.000000	0.025556
1135.000000	0.025515
1134.000000	0.025517
1133.000000	0.025516
1132.000000	0.025494
1131.000000	0.025483
1130.000000	0.025492
1129.000000	0.025481
1128.000000	0.025440
1127.000000	0.025411
1126.000000	0.025401
1125.000000	0.025369
1124.000000	0.025308
1123.000000	0.025269
1122.000000	0.025257
1121.000000	0.025220
1120.000000	0.025144
1119.000000	0.025086
1118.000000	0.025069
1117.000000	0.025052
1116.000000	0.025023
1115.000000	0.025029
1114.000000	0.025082
1113.000000	0.025125
1112.000000	0.025135
1111.000000	0.025158
1110.000000	0.025213
1109.000000	0.025262
1108.000000	0.025295
1107.000000	0.025362
1106.000000	0.025470
1105.000000	0.025564
1104.000000	0.025621
1103.000000	0.025688
1102.000000	0.025781
1101.000000	0.025854
1100.000000	0.025897
1099.000000	0.025969
1098.000000	0.026093
1097.000000	0.026226
1096.000000	0.026357
1095.000000	0.026536
1094.000000	0.026775
1093.000000	0.027017
1092.000000	0.027247
1091.000000	0.027522
1090.000000	0.027863
1089.000000	0.028216
1088.000000	0.028561
1087.000000	0.028950
1086.000000	0.029398
1085.000000	0.029850
1084.000000	0.030280
1083.000000	0.030729
1082.000000	0.031209
1081.000000	0.031662
1080.000000	0.032069
1079.000000	0.032482
1078.000000	0.032916
1077.000000	0.033316
1076.000000	0.033655
1075.000000	0.033981
1074.000000	0.034306
1073.000000	0.034578
1072.000000	0.034783
1071.000000	0.034977
1070.000000	0.035183
1069.000000	0.035345
1068.000000	0.035445
1067.000000	0.035534
1066.000000	0.035633
1065.000000	0.035689
1064.000000	0.035682
1063.000000	0.035667
1062.000000	0.035661
1061.000000	0.035607
1060.000000	0.035483
1059.000000	0.035343
1058.000000	0.035215
1057.000000	0.035063
1056.000000	0.034884
1055.000000	0.034733
1054.000000	0.034621
1053.000000	0.034477
1052.000000	0.034279
1051.000000	0.034092
1050.000000	0.033942
1049.000000	0.033769
1048.000000	0.033546
1047.000000	0.033321
1046.000000	0.033112
1045.000000	0.032861
1044.000000	0.032549
1043.000000	0.032236
1042.000000	0.031949
1041.000000	0.031644
1040.000000	0.031313
1039.000000	0.031020
1038.000000	0.030777
1037.000000	0.030528
1036.000000	0.030259
1035.000000	0.030030
1034.000000	0.029853
1033.000000	0.029652
1032.000000	0.029387
1031.000000	0.029111
1030.000000	0.028846
1029.000000	0.028540
1028.000000	0.028180
1027.000000	0.027826
1026.000000	0.027502
1025.000000	0.027156
1024.000000	0.026778
1023.000000	0.026437
1022.000000	0.026155
1021.000000	0.025874
1020.000000	0.025569
1019.000000	0.025292
1018.000000	0.025057
1017.000000	0.024803
1016.000000	0.024514
1015.000000	0.024256
1014.000000	0.024056
1013.000000	0.023855
1012.000000	0.023627
1011.000000	0.023420
1010.000000	0.023243
1009.000000	0.023040
1008.000000	0.022799
1007.000000	0.022594
1006.000000	0.022454
1005.000000	0.022317
1004.000000	0.022156
1003.000000	0.022016
1002.000000	0.021911
1001.000000	0.021779
1000.000000	0.021605
999.000000	0.021451
998.000000	0.021342
997.000000	0.021223
996.000000	0.021070
995.000000	0.020941
994.000000	0.020858
993.000000	0.020765
992.000000	0.020644
991.000000	0.020551
990.000000	0.020503
989.000000	0.020440
988.000000	0.020347
987.000000	0.020289
986.000000	0.020290
985.000000	0.020281
984.000000	0.020218
983.000000	0.020150
982.000000	0.020112
981.000000	0.020071
980.000000	0.020015
979.000000	0.019993
978.000000	0.020015
977.000000	0.020021
976.000000	0.019999
975.000000	0.020011
974.000000	0.020071
973.000000	0.020113
972.000000	0.020114
971.000000	0.020136
970.000000	0.020215
969.000000	0.020299
968.000000	0.020368
967.000000	0.020471
966.000000	0.020615
965.000000	0.020726
964.000000	0.020768
963.000000	0.020786
962.000000	0.020801
961.000000	0.020763
960.000000	0.020660
959.000000	0.020558
958.000000	0.020480
957.000000	0.020375
956.000000	0.020229
955.000000	0.020110
954.000000	0.020044
953.000000	0.019974
952.000000	0.019879
951.000000	0.019819
950.000000	0.019817
949.000000	0.019807
948.000000	0.019761
947.000000	0.019732
946.000000	0.019745
945.000000	0.019743
944.000000	0.019701
943.000000	0.019674
942.000000	0.019683
941.000000	0.019673
940.000000	0.019629
939.000000	0.019613
938.000000	0.019648
937.000000	0.019667
936.000000	0.019637
935.000000	0.019613
934.000000	0.019620
933.000000	0.019600
932.000000	0.019532
931.000000	0.019472
930.000000	0.019445
929.000000	0.019396
928.000000	0.019302
927.000000	0.019220
926.000000	0.019166
925.000000	0.019080
924.000000	0.018950
923.000000	0.018851
922.000000	0.018810
921.000000	0.018754
920.000000	0.018648
919.000000	0.018552
918.000000	0.018502
917.000000	0.018447
916.000000	0.018369
915.000000	0.018332
914.000000	0.018359
913.000000	0.018381
912.000000	0.018367
911.000000	0.018382
910.000000	0.018453
909.000000	0.018516
908.000000	0.018536
907.000000	0.018570
906.000000	0.018644
905.000000	0.018694
904.000000	0.018694
903.000000	0.018706
902.000000	0.018751
901.000000	0.018755
900.000000	0.018684
899.000000	0.018605
898.000000	0.018560
897.000000	0.018502
896.000000	0.018411
895.000000	0.018349
894.000000	0.018326
893.000000	0.018260
892.000000	0.018120
891.000000	0.017988
890.000000	0.017912
889.000000	0.017835
888.000000	0.017723
887.000000	0.017637
886.000000	0.017605
885.000000	0.017567
884.000000	0.017498
883.000000	0.017465
882.000000	0.017490
881.000000	0.017499
880.000000	0.017465
879.000000	0.017458
878.000000	0.017497
877.000000	0.017495
876.000000	0.017425
875.000000	0.017374
874.000000	0.017384
873.000000	0.017378
872.000000	0.017318
871.000000	0.017277
870.000000	0.017288
869.000000	0.017272
868.000000	0.017196
867.000000	0.017136
866.000000	0.017124
865.000000	0.017089
864.000000	0.017004
863.000000	0.016956
862.000000	0.016989
861.000000	0.017031
860.000000	0.017034
859.000000	0.017058
858.000000	0.017135
857.000000	0.017196
856.000000	0.017215
855.000000	0.017264
854.000000	0.017369
853.000000	0.017446
852.000000	0.017455
851.000000	0.017466
850.000000	0.017515
849.000000	0.017527
848.000000	0.017473
847.000000	0.017437
846.000000	0.017471
845.000000	0.017508
844.000000	0.017518
843.000000	0.017570
842.000000	0.017688
841.000000	0.017786
840.000000	0.017824
839.000000	0.017882
838.000000	0.018012
837.000000	0.018152
836.000000	0.018258
835.000000	0.018390
834.000000	0.018573
833.000000	0.018733
832.000000	0.018839
831.000000	0.018974
830.000000	0.019172
829.000000	0.019343
828.000000	0.019438
827.000000	0.019530
826.000000	0.019657
825.000000	0.019748
824.000000	0.019778
823.000000	0.019842
822.000000	0.019976
821.000000	0.020088
820.000000	0.020140
819.000000	0.020217
818.000000	0.020355
817.000000	0.020471
816.000000	0.020531
815.000000	0.020624
814.000000	0.020790
813.000000	0.020940
812.000000	0.021026
811.000000	0.021121
810.000000	0.021260
809.000000	0.021361
808.000000	0.021396
807.000000	0.021456
806.000000	0.021584
805.000000	0.021694
804.000000	0.021746
803.000000	0.021826
802.000000	0.021973
801.000000	0.022101
800.000000	0.022165
799.000000	0.022251
798.000000	0.022408
797.000000	0.022553
796.000000	0.022642
795.000000	0.022758
794.000000	0.022951
793.000000	0.023146
792.000000	0.023302
791.000000	0.023489
790.000000	0.023739
789.000000	0.023969
788.000000	0.024135
787.000000	0.024314
786.000000	0.024540
785.000000	0.024737
784.000000	0.024880
783.000000	0.025060
782.000000	0.025317
781.000000	0.025555
780.000000	0.025719
779.000000	0.025886
778.000000	0.026103
777.000000	0.026301
776.000000	0.026440
775.000000	0.026589
774.000000	0.026775
773.000000	0.026914
772.000000	0.026974
771.000000	0.027048
770.000000	0.027187
769.000000	0.027312
768.000000	0.027376
767.000000	0.027450
766.000000	0.027572
765.000000	0.027673
764.000000	0.027725
763.000000	0.027809
762.000000	0.027945
761.000000	0.028042
760.000000	0.028070
759.000000	0.028138
758.000000	0.028300
757.000000	0.028468
756.000000	0.028592
755.000000	0.028754
754.000000	0.028999
753.000000	0.029240
752.000000	0.029423
751.000000	0.029620
750.000000	0.029865
749.000000	0.030067
748.000000	0.030180
747.000000	0.030292
746.000000	0.030459
745.000000	0.030602
744.000000	0.030670
743.000000	0.030737
742.000000	0.030854
741.000000	0.030953
740.000000	0.031008
739.000000	0.031102
738.000000	0.031273
737.000000	0.031436
736.000000	0.031552
735.000000	0.031710
734.000000	0.031953
733.000000	0.032194
732.000000	0.032390
731.000000	0.032633
730.000000	0.032977
729.000000	0.033348
728.000000	0.033703
727.000000	0.034116
726.000000	0.034615
725.000000	0.035105
724.000000	0.035533
723.000000	0.035978
722.000000	0.036484
721.000000	0.036971
720.000000	0.037412
719.000000	0.037906
718.000000	0.038497
717.000000	0.039086
716.000000	0.039614
715.000000	0.040157
714.000000	0.040754
713.000000	0.041316
712.000000	0.041805
711.000000	0.042320
710.000000	0.042913
709.000000	0.043487
708.000000	0.043993
707.000000	0.044531
706.000000	0.045155
705.000000	0.045757
704.000000	0.046255
703.000000	0.046717
702.000000	0.047181
701.000000	0.047548
700.000000	0.047764
699.000000	0.047919
698.000000	0.048069
697.000000	0.048119
696.000000	0.048026
695.000000	0.047916
694.000000	0.047879
693.000000	0.047844
692.000000	0.047764
691.000000	0.047737
690.000000	0.047818
689.000000	0.047898
688.000000	0.047910
687.000000	0.047943
686.000000	0.048047
685.000000	0.048118
684.000000	0.048106
683.000000	0.048129
682.000000	0.048250
681.000000	0.048357
680.000000	0.048375
679.000000	0.048400
678.000000	0.048494
677.000000	0.048558
676.000000	0.048538
675.000000	0.048546
674.000000	0.048649
673.000000	0.048753
672.000000	0.048804
671.000000	0.048893
670.000000	0.049049
669.000000	0.049124
668.000000	0.049067
667.000000	0.049070
666.000000	0.049187
665.000000	0.049259
664.000000	0.049228
663.000000	0.049226
662.000000	0.049332
661.000000	0.049436
660.000000	0.049454
659.000000	0.049485
658.000000	0.049604
657.000000	0.049712
656.000000	0.049743
655.000000	0.049807
654.000000	0.049966
653.000000	0.050100
652.000000	0.050145
651.000000	0.050226
650.000000	0.050420
649.000000	0.050600
648.000000	0.050685
647.000000	0.050792
646.000000	0.050995
645.000000	0.051176
644.000000	0.051258
643.000000	0.051361
642.000000	0.051563
641.000000	0.051746
640.000000	0.051836
639.000000	0.051952
638.000000	0.052176
637.000000	0.052387
636.000000	0.052497
635.000000	0.052610
634.000000	0.052804
633.000000	0.052972
632.000000	0.053047
631.000000	0.053146
630.000000	0.053334
629.000000	0.053486
628.000000	0.053533
627.000000	0.053596
626.000000	0.053735
625.000000	0.053807
624.000000	0.053743
623.000000	0.053703
622.000000	0.053783
621.000000	0.053838
620.000000	0.053759
619.000000	0.053666
618.000000	0.053657
617.000000	0.053616
616.000000	0.053464
615.000000	0.053336
614.000000	0.053315
613.000000	0.053262
612.000000	0.053096
611.000000	0.052966
610.000000	0.052970
609.000000	0.052970
608.000000	0.052872
607.000000	0.052814
606.000000	0.052881
605.000000	0.052914
604.000000	0.052821
603.000000	0.052769
602.000000	0.052858
601.000000	0.052917
600.000000	0.052831
599.000000	0.052751
598.000000	0.052792
597.000000	0.052814
596.000000	0.052735
595.000000	0.052723
594.000000	0.052879
593.000000	0.053026
592.000000	0.053033
591.000000	0.053048
590.000000	0.053173
589.000000	0.053251
588.000000	0.053195
587.000000	0.053184
586.000000	0.053322
585.000000	0.053426
584.000000	0.053384
583.000000	0.053382
582.000000	0.053545
581.000000	0.053690
580.000000	0.053683
579.000000	0.053693
578.000000	0.053845
577.000000	0.053970
576.000000	0.053958
575.000000	0.053988
574.000000	0.054158
573.000000	0.054264
572.000000	0.054197
571.000000	0.054179
570.000000	0.054344
569.000000	0.054473
568.000000	0.054409
567.000000	0.054366
566.000000	0.054512
565.000000	0.054665
564.000000	0.054673
563.000000	0.054713
562.000000	0.054902
561.000000	0.055032
560.000000	0.054968
559.000000	0.054927
558.000000	0.055063
557.000000	0.055174
556.000000	0.055121
555.000000	0.055112
554.000000	0.055289
553.000000	0.055427
552.000000	0.055374
551.000000	0.055343
550.000000	0.055484
549.000000	0.055585
548.000000	0.055503
547.000000	0.055454
546.000000	0.055572
545.000000	0.055632
544.000000	0.055516
543.000000	0.055478
542.000000	0.055636
541.000000	0.055715
540.000000	0.055562
539.000000	0.055465
538.000000	0.055614
537.000000	0.055756
536.000000	0.055706
535.000000	0.055704
534.000000	0.055922
533.000000	0.056102
532.000000	0.056065
531.000000	0.056060
530.000000	0.056251
529.000000	0.056383
528.000000	0.056296
527.000000	0.056276
526.000000	0.056526
525.000000	0.056741
524.000000	0.056685
523.000000	0.056620
522.000000	0.056748
521.000000	0.056835
520.000000	0.056722
519.000000	0.056686
518.000000	0.056888
517.000000	0.056977
516.000000	0.056735
515.000000	0.056511
514.000000	0.056557
513.000000	0.056603
512.000000	0.056447
511.000000	0.056356
510.000000	0.056503
509.000000	0.056567
508.000000	0.056343
507.000000	0.056164
506.000000	0.056268
505.000000	0.056332
504.000000	0.056122
503.000000	0.055955
502.000000	0.056086
501.000000	0.056189
500.000000	0.056024
499.000000	0.055912
498.000000	0.056066
497.000000	0.056158
496.000000	0.055963
495.000000	0.055815
494.000000	0.055947
493.000000	0.056002
492.000000	0.055716
491.000000	0.055451
490.000000	0.055507
489.000000	0.055579
488.000000	0.055448
487.000000	0.055461
486.000000	0.055811
485.000000	0.056030
484.000000	0.055787
483.000000	0.055531
482.000000	0.055637
481.000000	0.055752
480.000000	0.055587
479.000000	0.055518
478.000000	0.055813
477.000000	0.056007
476.000000	0.055751
475.000000	0.055485
474.000000	0.055624
473.000000	0.055793
472.000000	0.055650
471.000000	0.055668
470.000000	0.056140
469.000000	0.056479
468.000000	0.056278
467.000000	0.056051
466.000000	0.056259
465.000000	0.056473
464.000000	0.056297
463.000000	0.056147
462.000000	0.056353
461.000000	0.056407
460.000000	0.055913
459.000000	0.055420
458.000000	0.055480
457.000000	0.055605
456.000000	0.055322
455.000000	0.055133
454.000000	0.055365
453.000000	0.055480
452.000000	0.055132
451.000000	0.054885
450.000000	0.055093
449.000000	0.055157
448.000000	0.054680
447.000000	0.054268
446.000000	0.054384
445.000000	0.054426
444.000000	0.053901
443.000000	0.053377
442.000000	0.053340
441.000000	0.053209
440.000000	0.052587
439.000000	0.052116
438.000000	0.052214
437.000000	0.052208
436.000000	0.051584
435.000000	0.051049
434.000000	0.051164
433.000000	0.051233
432.000000	0.050684
431.000000	0.050188
430.000000	0.050344
429.000000	0.050478
428.000000	0.049968
427.000000	0.049445
426.000000	0.049517
425.000000	0.049538
424.000000	0.048956
423.000000	0.048604
422.000000	0.049101
421.000000	0.049443
420.000000	0.048692
419.000000	0.048000
418.000000	0.048492
417.000000	0.048568
416.000000	0.047517
415.000000	0.046816
414.000000	0.047281
413.000000	0.047702
412.000000	0.047049
411.000000	0.046422
410.000000	0.046886
409.000000	0.047334
408.000000	0.046713
407.000000	0.046173
406.000000	0.046712
405.000000	0.046942
404.000000	0.045783
403.000000	0.044768
402.000000	0.045236
401.000000	0.045475
400.000000	0.043780
