PE IR       SUBTECH     SPECTRUM    ASCII       PEDS        4.00        
   -1
PE_L. hesperus outer 3.ASC
24/08/19
19:11:22.00
24/08/19
19:12:57.00
Yarger Lab
Sample 337 By YargerLab Date Monday, August 19 2024
400.000000
#HDR
-1
-1
#GR
cm-1
A
1.0
0.0
4000.000000
-1.000000
3601
8
0.111639
0.010981
#DATA
4000.000000	0.013100
3999.000000	0.013106
3998.000000	0.013114
3997.000000	0.013098
3996.000000	0.013101
3995.000000	0.013106
3994.000000	0.013113
3993.000000	0.013119
3992.000000	0.013123
3991.000000	0.013123
3990.000000	0.013118
3989.000000	0.013113
3988.000000	0.013111
3987.000000	0.013114
3986.000000	0.013119
3985.000000	0.013123
3984.000000	0.013122
3983.000000	0.013116
3982.000000	0.013108
3981.000000	0.013104
3980.000000	0.013106
3979.000000	0.013113
3978.000000	0.013121
3977.000000	0.013128
3976.000000	0.013133
3975.000000	0.013136
3974.000000	0.013139
3973.000000	0.013138
3972.000000	0.013132
3971.000000	0.013124
3970.000000	0.013116
3969.000000	0.013110
3968.000000	0.013106
3967.000000	0.013107
3966.000000	0.013111
3965.000000	0.013115
3964.000000	0.013117
3963.000000	0.013115
3962.000000	0.013111
3961.000000	0.013107
3960.000000	0.013103
3959.000000	0.013097
3958.000000	0.013091
3957.000000	0.013086
3956.000000	0.013085
3955.000000	0.013089
3954.000000	0.013096
3953.000000	0.013103
3952.000000	0.013109
3951.000000	0.013116
3950.000000	0.013127
3949.000000	0.013142
3948.000000	0.013163
3947.000000	0.013180
3946.000000	0.013185
3945.000000	0.013173
3944.000000	0.013149
3943.000000	0.013118
3942.000000	0.013093
3941.000000	0.013079
3940.000000	0.013072
3939.000000	0.013068
3938.000000	0.013067
3937.000000	0.013071
3936.000000	0.013084
3935.000000	0.013108
3934.000000	0.013135
3933.000000	0.013151
3932.000000	0.013147
3931.000000	0.013128
3930.000000	0.013103
3929.000000	0.013083
3928.000000	0.013073
3927.000000	0.013072
3926.000000	0.013076
3925.000000	0.013082
3924.000000	0.013090
3923.000000	0.013102
3922.000000	0.013116
3921.000000	0.013126
3920.000000	0.013129
3919.000000	0.013127
3918.000000	0.013122
3917.000000	0.013109
3916.000000	0.013084
3915.000000	0.013053
3914.000000	0.013028
3913.000000	0.013012
3912.000000	0.013004
3911.000000	0.013003
3910.000000	0.013010
3909.000000	0.013021
3908.000000	0.013033
3907.000000	0.013045
3906.000000	0.013060
3905.000000	0.013083
3904.000000	0.013115
3903.000000	0.013152
3902.000000	0.013179
3901.000000	0.013180
3900.000000	0.013155
3899.000000	0.013115
3898.000000	0.013082
3897.000000	0.013065
3896.000000	0.013058
3895.000000	0.013050
3894.000000	0.013035
3893.000000	0.013014
3892.000000	0.012997
3891.000000	0.012991
3890.000000	0.012996
3889.000000	0.013011
3888.000000	0.013039
3887.000000	0.013074
3886.000000	0.013094
3885.000000	0.013090
3884.000000	0.013075
3883.000000	0.013061
3882.000000	0.013044
3881.000000	0.013022
3880.000000	0.013006
3879.000000	0.013009
3878.000000	0.013026
3877.000000	0.013046
3876.000000	0.013059
3875.000000	0.013055
3874.000000	0.013037
3873.000000	0.013025
3872.000000	0.013030
3871.000000	0.013044
3870.000000	0.013048
3869.000000	0.013041
3868.000000	0.013037
3867.000000	0.013044
3866.000000	0.013048
3865.000000	0.013024
3864.000000	0.012982
3863.000000	0.012958
3862.000000	0.012970
3861.000000	0.012998
3860.000000	0.013018
3859.000000	0.013011
3858.000000	0.012979
3857.000000	0.012943
3856.000000	0.012932
3855.000000	0.012959
3854.000000	0.012986
3853.000000	0.012986
3852.000000	0.012972
3851.000000	0.012959
3850.000000	0.012955
3849.000000	0.012954
3848.000000	0.012947
3847.000000	0.012937
3846.000000	0.012930
3845.000000	0.012927
3844.000000	0.012930
3843.000000	0.012940
3842.000000	0.012952
3841.000000	0.012966
3840.000000	0.012976
3839.000000	0.012978
3838.000000	0.012973
3837.000000	0.012964
3836.000000	0.012953
3835.000000	0.012943
3834.000000	0.012934
3833.000000	0.012926
3832.000000	0.012914
3831.000000	0.012895
3830.000000	0.012878
3829.000000	0.012872
3828.000000	0.012874
3827.000000	0.012876
3826.000000	0.012870
3825.000000	0.012862
3824.000000	0.012867
3823.000000	0.012887
3822.000000	0.012897
3821.000000	0.012885
3820.000000	0.012870
3819.000000	0.012864
3818.000000	0.012868
3817.000000	0.012866
3816.000000	0.012840
3815.000000	0.012798
3814.000000	0.012766
3813.000000	0.012758
3812.000000	0.012760
3811.000000	0.012753
3810.000000	0.012742
3809.000000	0.012742
3808.000000	0.012755
3807.000000	0.012768
3806.000000	0.012771
3805.000000	0.012776
3804.000000	0.012796
3803.000000	0.012821
3802.000000	0.012825
3801.000000	0.012799
3800.000000	0.012767
3799.000000	0.012750
3798.000000	0.012746
3797.000000	0.012741
3796.000000	0.012724
3795.000000	0.012698
3794.000000	0.012673
3793.000000	0.012653
3792.000000	0.012632
3791.000000	0.012612
3790.000000	0.012597
3789.000000	0.012592
3788.000000	0.012593
3787.000000	0.012597
3786.000000	0.012599
3785.000000	0.012599
3784.000000	0.012596
3783.000000	0.012591
3782.000000	0.012588
3781.000000	0.012586
3780.000000	0.012585
3779.000000	0.012587
3778.000000	0.012596
3777.000000	0.012605
3776.000000	0.012610
3775.000000	0.012607
3774.000000	0.012602
3773.000000	0.012602
3772.000000	0.012611
3771.000000	0.012622
3770.000000	0.012624
3769.000000	0.012624
3768.000000	0.012632
3767.000000	0.012649
3766.000000	0.012662
3765.000000	0.012659
3764.000000	0.012641
3763.000000	0.012622
3762.000000	0.012614
3761.000000	0.012611
3760.000000	0.012602
3759.000000	0.012590
3758.000000	0.012592
3757.000000	0.012603
3756.000000	0.012618
3755.000000	0.012635
3754.000000	0.012660
3753.000000	0.012689
3752.000000	0.012715
3751.000000	0.012741
3750.000000	0.012769
3749.000000	0.012777
3748.000000	0.012752
3747.000000	0.012719
3746.000000	0.012707
3745.000000	0.012705
3744.000000	0.012685
3743.000000	0.012649
3742.000000	0.012624
3741.000000	0.012623
3740.000000	0.012632
3739.000000	0.012640
3738.000000	0.012651
3737.000000	0.012655
3736.000000	0.012632
3735.000000	0.012587
3734.000000	0.012550
3733.000000	0.012538
3732.000000	0.012528
3731.000000	0.012502
3730.000000	0.012467
3729.000000	0.012445
3728.000000	0.012438
3727.000000	0.012430
3726.000000	0.012411
3725.000000	0.012389
3724.000000	0.012377
3723.000000	0.012368
3722.000000	0.012350
3721.000000	0.012324
3720.000000	0.012299
3719.000000	0.012283
3718.000000	0.012278
3717.000000	0.012278
3716.000000	0.012282
3715.000000	0.012292
3714.000000	0.012306
3713.000000	0.012309
3712.000000	0.012290
3711.000000	0.012257
3710.000000	0.012232
3709.000000	0.012222
3708.000000	0.012220
3707.000000	0.012217
3706.000000	0.012210
3705.000000	0.012202
3704.000000	0.012190
3703.000000	0.012166
3702.000000	0.012132
3701.000000	0.012099
3700.000000	0.012078
3699.000000	0.012070
3698.000000	0.012073
3697.000000	0.012080
3696.000000	0.012091
3695.000000	0.012111
3694.000000	0.012144
3693.000000	0.012180
3692.000000	0.012201
3691.000000	0.012203
3690.000000	0.012198
3689.000000	0.012201
3688.000000	0.012209
3687.000000	0.012205
3686.000000	0.012192
3685.000000	0.012180
3684.000000	0.012176
3683.000000	0.012181
3682.000000	0.012197
3681.000000	0.012222
3680.000000	0.012247
3679.000000	0.012270
3678.000000	0.012311
3677.000000	0.012380
3676.000000	0.012444
3675.000000	0.012480
3674.000000	0.012499
3673.000000	0.012513
3672.000000	0.012524
3671.000000	0.012514
3670.000000	0.012474
3669.000000	0.012437
3668.000000	0.012433
3667.000000	0.012450
3666.000000	0.012467
3665.000000	0.012476
3664.000000	0.012481
3663.000000	0.012489
3662.000000	0.012504
3661.000000	0.012521
3660.000000	0.012540
3659.000000	0.012565
3658.000000	0.012603
3657.000000	0.012647
3656.000000	0.012690
3655.000000	0.012730
3654.000000	0.012780
3653.000000	0.012854
3652.000000	0.012948
3651.000000	0.013040
3650.000000	0.013104
3649.000000	0.013134
3648.000000	0.013140
3647.000000	0.013136
3646.000000	0.013131
3645.000000	0.013130
3644.000000	0.013129
3643.000000	0.013128
3642.000000	0.013129
3641.000000	0.013140
3640.000000	0.013166
3639.000000	0.013202
3638.000000	0.013242
3637.000000	0.013286
3636.000000	0.013338
3635.000000	0.013397
3634.000000	0.013454
3633.000000	0.013506
3632.000000	0.013562
3631.000000	0.013632
3630.000000	0.013704
3629.000000	0.013759
3628.000000	0.013807
3627.000000	0.013855
3626.000000	0.013900
3625.000000	0.013940
3624.000000	0.013975
3623.000000	0.014012
3622.000000	0.014057
3621.000000	0.014107
3620.000000	0.014155
3619.000000	0.014206
3618.000000	0.014274
3617.000000	0.014354
3616.000000	0.014430
3615.000000	0.014490
3614.000000	0.014534
3613.000000	0.014578
3612.000000	0.014635
3611.000000	0.014702
3610.000000	0.014765
3609.000000	0.014809
3608.000000	0.014838
3607.000000	0.014874
3606.000000	0.014927
3605.000000	0.014986
3604.000000	0.015039
3603.000000	0.015079
3602.000000	0.015117
3601.000000	0.015162
3600.000000	0.015218
3599.000000	0.015278
3598.000000	0.015337
3597.000000	0.015391
3596.000000	0.015440
3595.000000	0.015492
3594.000000	0.015551
3593.000000	0.015620
3592.000000	0.015692
3591.000000	0.015759
3590.000000	0.015820
3589.000000	0.015875
3588.000000	0.015930
3587.000000	0.015997
3586.000000	0.016082
3585.000000	0.016168
3584.000000	0.016239
3583.000000	0.016291
3582.000000	0.016330
3581.000000	0.016367
3580.000000	0.016412
3579.000000	0.016466
3578.000000	0.016526
3577.000000	0.016589
3576.000000	0.016650
3575.000000	0.016711
3574.000000	0.016776
3573.000000	0.016847
3572.000000	0.016924
3571.000000	0.017004
3570.000000	0.017090
3569.000000	0.017187
3568.000000	0.017293
3567.000000	0.017401
3566.000000	0.017504
3565.000000	0.017596
3564.000000	0.017672
3563.000000	0.017730
3562.000000	0.017777
3561.000000	0.017822
3560.000000	0.017871
3559.000000	0.017927
3558.000000	0.017985
3557.000000	0.018043
3556.000000	0.018102
3555.000000	0.018165
3554.000000	0.018237
3553.000000	0.018323
3552.000000	0.018420
3551.000000	0.018524
3550.000000	0.018631
3549.000000	0.018737
3548.000000	0.018839
3547.000000	0.018933
3546.000000	0.019014
3545.000000	0.019085
3544.000000	0.019150
3543.000000	0.019211
3542.000000	0.019268
3541.000000	0.019320
3540.000000	0.019368
3539.000000	0.019417
3538.000000	0.019472
3537.000000	0.019534
3536.000000	0.019602
3535.000000	0.019673
3534.000000	0.019748
3533.000000	0.019827
3532.000000	0.019910
3531.000000	0.019994
3530.000000	0.020081
3529.000000	0.020173
3528.000000	0.020269
3527.000000	0.020364
3526.000000	0.020454
3525.000000	0.020536
3524.000000	0.020609
3523.000000	0.020674
3522.000000	0.020734
3521.000000	0.020789
3520.000000	0.020844
3519.000000	0.020901
3518.000000	0.020966
3517.000000	0.021040
3516.000000	0.021122
3515.000000	0.021205
3514.000000	0.021287
3513.000000	0.021364
3512.000000	0.021435
3511.000000	0.021502
3510.000000	0.021571
3509.000000	0.021649
3508.000000	0.021736
3507.000000	0.021827
3506.000000	0.021920
3505.000000	0.022014
3504.000000	0.022108
3503.000000	0.022202
3502.000000	0.022290
3501.000000	0.022371
3500.000000	0.022441
3499.000000	0.022503
3498.000000	0.022562
3497.000000	0.022624
3496.000000	0.022694
3495.000000	0.022773
3494.000000	0.022859
3493.000000	0.022948
3492.000000	0.023038
3491.000000	0.023125
3490.000000	0.023211
3489.000000	0.023295
3488.000000	0.023379
3487.000000	0.023461
3486.000000	0.023541
3485.000000	0.023623
3484.000000	0.023713
3483.000000	0.023816
3482.000000	0.023930
3481.000000	0.024047
3480.000000	0.024151
3479.000000	0.024238
3478.000000	0.024311
3477.000000	0.024386
3476.000000	0.024470
3475.000000	0.024563
3474.000000	0.024659
3473.000000	0.024753
3472.000000	0.024844
3471.000000	0.024935
3470.000000	0.025030
3469.000000	0.025128
3468.000000	0.025224
3467.000000	0.025315
3466.000000	0.025404
3465.000000	0.025491
3464.000000	0.025580
3463.000000	0.025672
3462.000000	0.025769
3461.000000	0.025869
3460.000000	0.025965
3459.000000	0.026052
3458.000000	0.026135
3457.000000	0.026217
3456.000000	0.026301
3455.000000	0.026386
3454.000000	0.026472
3453.000000	0.026562
3452.000000	0.026655
3451.000000	0.026749
3450.000000	0.026842
3449.000000	0.026935
3448.000000	0.027033
3447.000000	0.027134
3446.000000	0.027237
3445.000000	0.027336
3444.000000	0.027432
3443.000000	0.027527
3442.000000	0.027626
3441.000000	0.027729
3440.000000	0.027832
3439.000000	0.027932
3438.000000	0.028028
3437.000000	0.028121
3436.000000	0.028210
3435.000000	0.028298
3434.000000	0.028387
3433.000000	0.028479
3432.000000	0.028572
3431.000000	0.028663
3430.000000	0.028749
3429.000000	0.028830
3428.000000	0.028908
3427.000000	0.028988
3426.000000	0.029072
3425.000000	0.029162
3424.000000	0.029254
3423.000000	0.029349
3422.000000	0.029447
3421.000000	0.029549
3420.000000	0.029654
3419.000000	0.029753
3418.000000	0.029846
3417.000000	0.029932
3416.000000	0.030016
3415.000000	0.030101
3414.000000	0.030186
3413.000000	0.030272
3412.000000	0.030357
3411.000000	0.030441
3410.000000	0.030524
3409.000000	0.030604
3408.000000	0.030682
3407.000000	0.030758
3406.000000	0.030836
3405.000000	0.030920
3404.000000	0.031011
3403.000000	0.031107
3402.000000	0.031205
3401.000000	0.031298
3400.000000	0.031382
3399.000000	0.031461
3398.000000	0.031542
3397.000000	0.031629
3396.000000	0.031717
3395.000000	0.031798
3394.000000	0.031869
3393.000000	0.031934
3392.000000	0.032003
3391.000000	0.032081
3390.000000	0.032167
3389.000000	0.032255
3388.000000	0.032342
3387.000000	0.032427
3386.000000	0.032515
3385.000000	0.032607
3384.000000	0.032704
3383.000000	0.032799
3382.000000	0.032891
3381.000000	0.032983
3380.000000	0.033077
3379.000000	0.033178
3378.000000	0.033289
3377.000000	0.033408
3376.000000	0.033525
3375.000000	0.033634
3374.000000	0.033733
3373.000000	0.033827
3372.000000	0.033922
3371.000000	0.034022
3370.000000	0.034130
3369.000000	0.034248
3368.000000	0.034375
3367.000000	0.034507
3366.000000	0.034646
3365.000000	0.034787
3364.000000	0.034926
3363.000000	0.035061
3362.000000	0.035193
3361.000000	0.035326
3360.000000	0.035458
3359.000000	0.035589
3358.000000	0.035718
3357.000000	0.035852
3356.000000	0.035990
3355.000000	0.036125
3354.000000	0.036253
3353.000000	0.036374
3352.000000	0.036501
3351.000000	0.036642
3350.000000	0.036802
3349.000000	0.036971
3348.000000	0.037139
3347.000000	0.037297
3346.000000	0.037446
3345.000000	0.037592
3344.000000	0.037743
3343.000000	0.037902
3342.000000	0.038067
3341.000000	0.038236
3340.000000	0.038405
3339.000000	0.038581
3338.000000	0.038766
3337.000000	0.038962
3336.000000	0.039164
3335.000000	0.039368
3334.000000	0.039572
3333.000000	0.039776
3332.000000	0.039978
3331.000000	0.040177
3330.000000	0.040374
3329.000000	0.040567
3328.000000	0.040757
3327.000000	0.040950
3326.000000	0.041157
3325.000000	0.041382
3324.000000	0.041621
3323.000000	0.041866
3322.000000	0.042114
3321.000000	0.042365
3320.000000	0.042619
3319.000000	0.042876
3318.000000	0.043135
3317.000000	0.043393
3316.000000	0.043649
3315.000000	0.043904
3314.000000	0.044156
3313.000000	0.044404
3312.000000	0.044644
3311.000000	0.044879
3310.000000	0.045117
3309.000000	0.045368
3308.000000	0.045637
3307.000000	0.045926
3306.000000	0.046239
3305.000000	0.046574
3304.000000	0.046920
3303.000000	0.047263
3302.000000	0.047589
3301.000000	0.047895
3300.000000	0.048181
3299.000000	0.048449
3298.000000	0.048714
3297.000000	0.048985
3296.000000	0.049265
3295.000000	0.049548
3294.000000	0.049831
3293.000000	0.050118
3292.000000	0.050416
3291.000000	0.050721
3290.000000	0.051024
3289.000000	0.051312
3288.000000	0.051580
3287.000000	0.051827
3286.000000	0.052055
3285.000000	0.052265
3284.000000	0.052458
3283.000000	0.052638
3282.000000	0.052805
3281.000000	0.052957
3280.000000	0.053090
3279.000000	0.053195
3278.000000	0.053271
3277.000000	0.053322
3276.000000	0.053354
3275.000000	0.053366
3274.000000	0.053355
3273.000000	0.053320
3272.000000	0.053274
3271.000000	0.053231
3270.000000	0.053195
3269.000000	0.053153
3268.000000	0.053085
3267.000000	0.052979
3266.000000	0.052842
3265.000000	0.052686
3264.000000	0.052517
3263.000000	0.052337
3262.000000	0.052142
3261.000000	0.051935
3260.000000	0.051714
3259.000000	0.051483
3258.000000	0.051246
3257.000000	0.051015
3256.000000	0.050796
3255.000000	0.050591
3254.000000	0.050389
3253.000000	0.050180
3252.000000	0.049956
3251.000000	0.049714
3250.000000	0.049461
3249.000000	0.049208
3248.000000	0.048974
3247.000000	0.048772
3246.000000	0.048604
3245.000000	0.048454
3244.000000	0.048297
3243.000000	0.048118
3242.000000	0.047920
3241.000000	0.047710
3240.000000	0.047501
3239.000000	0.047295
3238.000000	0.047089
3237.000000	0.046877
3236.000000	0.046661
3235.000000	0.046459
3234.000000	0.046296
3233.000000	0.046177
3232.000000	0.046088
3231.000000	0.046005
3230.000000	0.045912
3229.000000	0.045806
3228.000000	0.045688
3227.000000	0.045565
3226.000000	0.045441
3225.000000	0.045317
3224.000000	0.045191
3223.000000	0.045061
3222.000000	0.044933
3221.000000	0.044810
3220.000000	0.044698
3219.000000	0.044592
3218.000000	0.044489
3217.000000	0.044385
3216.000000	0.044282
3215.000000	0.044188
3214.000000	0.044106
3213.000000	0.044028
3212.000000	0.043941
3211.000000	0.043839
3210.000000	0.043726
3209.000000	0.043614
3208.000000	0.043509
3207.000000	0.043414
3206.000000	0.043329
3205.000000	0.043248
3204.000000	0.043165
3203.000000	0.043074
3202.000000	0.042977
3201.000000	0.042878
3200.000000	0.042781
3199.000000	0.042687
3198.000000	0.042596
3197.000000	0.042506
3196.000000	0.042408
3195.000000	0.042298
3194.000000	0.042179
3193.000000	0.042056
3192.000000	0.041936
3191.000000	0.041821
3190.000000	0.041709
3189.000000	0.041596
3188.000000	0.041475
3187.000000	0.041348
3186.000000	0.041223
3185.000000	0.041102
3184.000000	0.040981
3183.000000	0.040854
3182.000000	0.040719
3181.000000	0.040582
3180.000000	0.040452
3179.000000	0.040331
3178.000000	0.040220
3177.000000	0.040110
3176.000000	0.039992
3175.000000	0.039863
3174.000000	0.039728
3173.000000	0.039592
3172.000000	0.039455
3171.000000	0.039317
3170.000000	0.039183
3169.000000	0.039056
3168.000000	0.038935
3167.000000	0.038816
3166.000000	0.038695
3165.000000	0.038568
3164.000000	0.038432
3163.000000	0.038292
3162.000000	0.038152
3161.000000	0.038016
3160.000000	0.037884
3159.000000	0.037751
3158.000000	0.037621
3157.000000	0.037495
3156.000000	0.037370
3155.000000	0.037241
3154.000000	0.037113
3153.000000	0.036994
3152.000000	0.036891
3151.000000	0.036799
3150.000000	0.036706
3149.000000	0.036606
3148.000000	0.036500
3147.000000	0.036393
3146.000000	0.036292
3145.000000	0.036197
3144.000000	0.036099
3143.000000	0.035991
3142.000000	0.035874
3141.000000	0.035759
3140.000000	0.035658
3139.000000	0.035576
3138.000000	0.035509
3137.000000	0.035444
3136.000000	0.035370
3135.000000	0.035287
3134.000000	0.035201
3133.000000	0.035120
3132.000000	0.035041
3131.000000	0.034964
3130.000000	0.034892
3129.000000	0.034829
3128.000000	0.034773
3127.000000	0.034716
3126.000000	0.034652
3125.000000	0.034581
3124.000000	0.034504
3123.000000	0.034428
3122.000000	0.034358
3121.000000	0.034297
3120.000000	0.034244
3119.000000	0.034195
3118.000000	0.034155
3117.000000	0.034132
3116.000000	0.034131
3115.000000	0.034145
3114.000000	0.034162
3113.000000	0.034168
3112.000000	0.034153
3111.000000	0.034124
3110.000000	0.034099
3109.000000	0.034096
3108.000000	0.034119
3107.000000	0.034156
3106.000000	0.034194
3105.000000	0.034220
3104.000000	0.034230
3103.000000	0.034228
3102.000000	0.034227
3101.000000	0.034239
3100.000000	0.034272
3099.000000	0.034318
3098.000000	0.034366
3097.000000	0.034410
3096.000000	0.034450
3095.000000	0.034484
3094.000000	0.034507
3093.000000	0.034521
3092.000000	0.034534
3091.000000	0.034560
3090.000000	0.034601
3089.000000	0.034646
3088.000000	0.034679
3087.000000	0.034693
3086.000000	0.034696
3085.000000	0.034701
3084.000000	0.034714
3083.000000	0.034732
3082.000000	0.034751
3081.000000	0.034772
3080.000000	0.034798
3079.000000	0.034840
3078.000000	0.034902
3077.000000	0.034978
3076.000000	0.035051
3075.000000	0.035106
3074.000000	0.035141
3073.000000	0.035159
3072.000000	0.035159
3071.000000	0.035137
3070.000000	0.035094
3069.000000	0.035044
3068.000000	0.035009
3067.000000	0.035003
3066.000000	0.035020
3065.000000	0.035042
3064.000000	0.035052
3063.000000	0.035044
3062.000000	0.035019
3061.000000	0.034978
3060.000000	0.034921
3059.000000	0.034846
3058.000000	0.034762
3057.000000	0.034679
3056.000000	0.034600
3055.000000	0.034521
3054.000000	0.034429
3053.000000	0.034323
3052.000000	0.034215
3051.000000	0.034125
3050.000000	0.034055
3049.000000	0.033989
3048.000000	0.033902
3047.000000	0.033786
3046.000000	0.033651
3045.000000	0.033517
3044.000000	0.033395
3043.000000	0.033293
3042.000000	0.033217
3041.000000	0.033166
3040.000000	0.033127
3039.000000	0.033076
3038.000000	0.032993
3037.000000	0.032879
3036.000000	0.032754
3035.000000	0.032645
3034.000000	0.032564
3033.000000	0.032506
3032.000000	0.032454
3031.000000	0.032399
3030.000000	0.032336
3029.000000	0.032258
3028.000000	0.032157
3027.000000	0.032036
3026.000000	0.031910
3025.000000	0.031795
3024.000000	0.031693
3023.000000	0.031590
3022.000000	0.031475
3021.000000	0.031351
3020.000000	0.031226
3019.000000	0.031108
3018.000000	0.030997
3017.000000	0.030890
3016.000000	0.030786
3015.000000	0.030694
3014.000000	0.030619
3013.000000	0.030566
3012.000000	0.030533
3011.000000	0.030516
3010.000000	0.030513
3009.000000	0.030513
3008.000000	0.030501
3007.000000	0.030471
3006.000000	0.030428
3005.000000	0.030387
3004.000000	0.030358
3003.000000	0.030343
3002.000000	0.030334
3001.000000	0.030321
3000.000000	0.030302
2999.000000	0.030290
2998.000000	0.030297
2997.000000	0.030323
2996.000000	0.030355
2995.000000	0.030387
2994.000000	0.030430
2993.000000	0.030501
2992.000000	0.030601
2991.000000	0.030718
2990.000000	0.030837
2989.000000	0.030951
2988.000000	0.031065
2987.000000	0.031181
2986.000000	0.031300
2985.000000	0.031421
2984.000000	0.031541
2983.000000	0.031664
2982.000000	0.031794
2981.000000	0.031936
2980.000000	0.032090
2979.000000	0.032245
2978.000000	0.032395
2977.000000	0.032539
2976.000000	0.032678
2975.000000	0.032820
2974.000000	0.032964
2973.000000	0.033108
2972.000000	0.033246
2971.000000	0.033373
2970.000000	0.033493
2969.000000	0.033606
2968.000000	0.033708
2967.000000	0.033794
2966.000000	0.033862
2965.000000	0.033916
2964.000000	0.033960
2963.000000	0.033996
2962.000000	0.034024
2961.000000	0.034039
2960.000000	0.034037
2959.000000	0.034019
2958.000000	0.033994
2957.000000	0.033969
2956.000000	0.033941
2955.000000	0.033907
2954.000000	0.033875
2953.000000	0.033853
2952.000000	0.033846
2951.000000	0.033847
2950.000000	0.033852
2949.000000	0.033860
2948.000000	0.033879
2947.000000	0.033914
2946.000000	0.033978
2945.000000	0.034076
2944.000000	0.034212
2943.000000	0.034374
2942.000000	0.034547
2941.000000	0.034713
2940.000000	0.034862
2939.000000	0.034996
2938.000000	0.035125
2937.000000	0.035251
2936.000000	0.035369
2935.000000	0.035468
2934.000000	0.035538
2933.000000	0.035573
2932.000000	0.035573
2931.000000	0.035544
2930.000000	0.035489
2929.000000	0.035400
2928.000000	0.035263
2927.000000	0.035070
2926.000000	0.034823
2925.000000	0.034527
2924.000000	0.034175
2923.000000	0.033757
2922.000000	0.033268
2921.000000	0.032714
2920.000000	0.032112
2919.000000	0.031497
2918.000000	0.030929
2917.000000	0.030487
2916.000000	0.030242
2915.000000	0.030230
2914.000000	0.030424
2913.000000	0.030743
2912.000000	0.031084
2911.000000	0.031366
2910.000000	0.031557
2909.000000	0.031661
2908.000000	0.031698
2907.000000	0.031685
2906.000000	0.031640
2905.000000	0.031575
2904.000000	0.031500
2903.000000	0.031421
2902.000000	0.031342
2901.000000	0.031264
2900.000000	0.031188
2899.000000	0.031113
2898.000000	0.031041
2897.000000	0.030975
2896.000000	0.030915
2895.000000	0.030860
2894.000000	0.030811
2893.000000	0.030769
2892.000000	0.030735
2891.000000	0.030709
2890.000000	0.030695
2889.000000	0.030691
2888.000000	0.030695
2887.000000	0.030707
2886.000000	0.030729
2885.000000	0.030764
2884.000000	0.030810
2883.000000	0.030866
2882.000000	0.030928
2881.000000	0.030993
2880.000000	0.031057
2879.000000	0.031117
2878.000000	0.031169
2877.000000	0.031211
2876.000000	0.031236
2875.000000	0.031241
2874.000000	0.031229
2873.000000	0.031202
2872.000000	0.031157
2871.000000	0.031092
2870.000000	0.031005
2869.000000	0.030899
2868.000000	0.030776
2867.000000	0.030644
2866.000000	0.030512
2865.000000	0.030390
2864.000000	0.030277
2863.000000	0.030172
2862.000000	0.030081
2861.000000	0.030009
2860.000000	0.029953
2859.000000	0.029900
2858.000000	0.029834
2857.000000	0.029740
2856.000000	0.029604
2855.000000	0.029402
2854.000000	0.029109
2853.000000	0.028704
2852.000000	0.028194
2851.000000	0.027633
2850.000000	0.027131
2849.000000	0.026809
2848.000000	0.026738
2847.000000	0.026898
2846.000000	0.027190
2845.000000	0.027493
2844.000000	0.027720
2843.000000	0.027840
2842.000000	0.027865
2841.000000	0.027831
2840.000000	0.027771
2839.000000	0.027708
2838.000000	0.027653
2837.000000	0.027606
2836.000000	0.027559
2835.000000	0.027508
2834.000000	0.027451
2833.000000	0.027392
2832.000000	0.027333
2831.000000	0.027278
2830.000000	0.027228
2829.000000	0.027181
2828.000000	0.027130
2827.000000	0.027071
2826.000000	0.027011
2825.000000	0.026956
2824.000000	0.026909
2823.000000	0.026866
2822.000000	0.026825
2821.000000	0.026786
2820.000000	0.026748
2819.000000	0.026709
2818.000000	0.026668
2817.000000	0.026625
2816.000000	0.026578
2815.000000	0.026530
2814.000000	0.026483
2813.000000	0.026437
2812.000000	0.026389
2811.000000	0.026339
2810.000000	0.026292
2809.000000	0.026252
2808.000000	0.026219
2807.000000	0.026186
2806.000000	0.026150
2805.000000	0.026111
2804.000000	0.026073
2803.000000	0.026034
2802.000000	0.025996
2801.000000	0.025955
2800.000000	0.025912
2799.000000	0.025871
2798.000000	0.025835
2797.000000	0.025807
2796.000000	0.025782
2795.000000	0.025756
2794.000000	0.025726
2793.000000	0.025690
2792.000000	0.025649
2791.000000	0.025606
2790.000000	0.025567
2789.000000	0.025539
2788.000000	0.025516
2787.000000	0.025493
2786.000000	0.025467
2785.000000	0.025439
2784.000000	0.025408
2783.000000	0.025373
2782.000000	0.025337
2781.000000	0.025301
2780.000000	0.025264
2779.000000	0.025225
2778.000000	0.025187
2777.000000	0.025152
2776.000000	0.025123
2775.000000	0.025096
2774.000000	0.025070
2773.000000	0.025042
2772.000000	0.025014
2771.000000	0.024985
2770.000000	0.024956
2769.000000	0.024929
2768.000000	0.024903
2767.000000	0.024876
2766.000000	0.024852
2765.000000	0.024829
2764.000000	0.024804
2763.000000	0.024775
2762.000000	0.024740
2761.000000	0.024701
2760.000000	0.024662
2759.000000	0.024625
2758.000000	0.024594
2757.000000	0.024570
2756.000000	0.024549
2755.000000	0.024526
2754.000000	0.024498
2753.000000	0.024464
2752.000000	0.024428
2751.000000	0.024392
2750.000000	0.024358
2749.000000	0.024327
2748.000000	0.024297
2747.000000	0.024269
2746.000000	0.024244
2745.000000	0.024223
2744.000000	0.024201
2743.000000	0.024175
2742.000000	0.024143
2741.000000	0.024107
2740.000000	0.024070
2739.000000	0.024034
2738.000000	0.024003
2737.000000	0.023978
2736.000000	0.023953
2735.000000	0.023921
2734.000000	0.023885
2733.000000	0.023848
2732.000000	0.023813
2731.000000	0.023778
2730.000000	0.023742
2729.000000	0.023705
2728.000000	0.023667
2727.000000	0.023630
2726.000000	0.023596
2725.000000	0.023563
2724.000000	0.023529
2723.000000	0.023494
2722.000000	0.023463
2721.000000	0.023437
2720.000000	0.023411
2719.000000	0.023379
2718.000000	0.023342
2717.000000	0.023305
2716.000000	0.023271
2715.000000	0.023237
2714.000000	0.023202
2713.000000	0.023166
2712.000000	0.023130
2711.000000	0.023094
2710.000000	0.023059
2709.000000	0.023025
2708.000000	0.022991
2707.000000	0.022960
2706.000000	0.022932
2705.000000	0.022908
2704.000000	0.022883
2703.000000	0.022855
2702.000000	0.022828
2701.000000	0.022806
2700.000000	0.022787
2699.000000	0.022766
2698.000000	0.022743
2697.000000	0.022718
2696.000000	0.022693
2695.000000	0.022670
2694.000000	0.022648
2693.000000	0.022628
2692.000000	0.022608
2691.000000	0.022586
2690.000000	0.022564
2689.000000	0.022543
2688.000000	0.022522
2687.000000	0.022502
2686.000000	0.022485
2685.000000	0.022471
2684.000000	0.022456
2683.000000	0.022437
2682.000000	0.022417
2681.000000	0.022400
2680.000000	0.022384
2679.000000	0.022367
2678.000000	0.022348
2677.000000	0.022331
2676.000000	0.022315
2675.000000	0.022297
2674.000000	0.022280
2673.000000	0.022267
2672.000000	0.022260
2671.000000	0.022255
2670.000000	0.022251
2669.000000	0.022250
2668.000000	0.022255
2667.000000	0.022268
2666.000000	0.022292
2665.000000	0.022323
2664.000000	0.022356
2663.000000	0.022385
2662.000000	0.022409
2661.000000	0.022428
2660.000000	0.022441
2659.000000	0.022446
2658.000000	0.022444
2657.000000	0.022438
2656.000000	0.022428
2655.000000	0.022413
2654.000000	0.022397
2653.000000	0.022386
2652.000000	0.022379
2651.000000	0.022368
2650.000000	0.022347
2649.000000	0.022322
2648.000000	0.022299
2647.000000	0.022280
2646.000000	0.022265
2645.000000	0.022253
2644.000000	0.022239
2643.000000	0.022222
2642.000000	0.022200
2641.000000	0.022174
2640.000000	0.022142
2639.000000	0.022108
2638.000000	0.022080
2637.000000	0.022064
2636.000000	0.022061
2635.000000	0.022060
2634.000000	0.022055
2633.000000	0.022041
2632.000000	0.022018
2631.000000	0.021991
2630.000000	0.021967
2629.000000	0.021948
2628.000000	0.021929
2627.000000	0.021902
2626.000000	0.021871
2625.000000	0.021842
2624.000000	0.021818
2623.000000	0.021797
2622.000000	0.021782
2621.000000	0.021770
2620.000000	0.021755
2619.000000	0.021732
2618.000000	0.021703
2617.000000	0.021675
2616.000000	0.021651
2615.000000	0.021628
2614.000000	0.021602
2613.000000	0.021574
2612.000000	0.021545
2611.000000	0.021516
2610.000000	0.021492
2609.000000	0.021474
2608.000000	0.021458
2607.000000	0.021438
2606.000000	0.021416
2605.000000	0.021398
2604.000000	0.021383
2603.000000	0.021362
2602.000000	0.021335
2601.000000	0.021307
2600.000000	0.021281
2599.000000	0.021258
2598.000000	0.021238
2597.000000	0.021218
2596.000000	0.021192
2595.000000	0.021156
2594.000000	0.021120
2593.000000	0.021092
2592.000000	0.021069
2591.000000	0.021044
2590.000000	0.021016
2589.000000	0.020987
2588.000000	0.020960
2587.000000	0.020930
2586.000000	0.020900
2585.000000	0.020873
2584.000000	0.020849
2583.000000	0.020824
2582.000000	0.020798
2581.000000	0.020769
2580.000000	0.020738
2579.000000	0.020703
2578.000000	0.020672
2577.000000	0.020651
2576.000000	0.020642
2575.000000	0.020639
2574.000000	0.020637
2573.000000	0.020628
2572.000000	0.020605
2571.000000	0.020566
2570.000000	0.020525
2569.000000	0.020494
2568.000000	0.020474
2567.000000	0.020458
2566.000000	0.020442
2565.000000	0.020423
2564.000000	0.020403
2563.000000	0.020382
2562.000000	0.020370
2561.000000	0.020370
2560.000000	0.020372
2559.000000	0.020363
2558.000000	0.020340
2557.000000	0.020311
2556.000000	0.020282
2555.000000	0.020254
2554.000000	0.020230
2553.000000	0.020211
2552.000000	0.020195
2551.000000	0.020176
2550.000000	0.020159
2549.000000	0.020150
2548.000000	0.020147
2547.000000	0.020143
2546.000000	0.020136
2545.000000	0.020126
2544.000000	0.020115
2543.000000	0.020103
2542.000000	0.020092
2541.000000	0.020080
2540.000000	0.020059
2539.000000	0.020026
2538.000000	0.019992
2537.000000	0.019970
2536.000000	0.019960
2535.000000	0.019955
2534.000000	0.019947
2533.000000	0.019935
2532.000000	0.019917
2531.000000	0.019895
2530.000000	0.019875
2529.000000	0.019862
2528.000000	0.019855
2527.000000	0.019853
2526.000000	0.019855
2525.000000	0.019855
2524.000000	0.019845
2523.000000	0.019822
2522.000000	0.019801
2521.000000	0.019792
2520.000000	0.019792
2519.000000	0.019788
2518.000000	0.019778
2517.000000	0.019767
2516.000000	0.019753
2515.000000	0.019735
2514.000000	0.019713
2513.000000	0.019693
2512.000000	0.019677
2511.000000	0.019662
2510.000000	0.019650
2509.000000	0.019641
2508.000000	0.019630
2507.000000	0.019615
2506.000000	0.019603
2505.000000	0.019598
2504.000000	0.019591
2503.000000	0.019574
2502.000000	0.019551
2501.000000	0.019532
2500.000000	0.019520
2499.000000	0.019509
2498.000000	0.019499
2497.000000	0.019495
2496.000000	0.019494
2495.000000	0.019489
2494.000000	0.019476
2493.000000	0.019457
2492.000000	0.019433
2491.000000	0.019405
2490.000000	0.019384
2489.000000	0.019371
2488.000000	0.019361
2487.000000	0.019343
2486.000000	0.019317
2485.000000	0.019292
2484.000000	0.019270
2483.000000	0.019253
2482.000000	0.019243
2481.000000	0.019239
2480.000000	0.019233
2479.000000	0.019216
2478.000000	0.019193
2477.000000	0.019172
2476.000000	0.019156
2475.000000	0.019144
2474.000000	0.019133
2473.000000	0.019121
2472.000000	0.019106
2471.000000	0.019090
2470.000000	0.019082
2469.000000	0.019081
2468.000000	0.019078
2467.000000	0.019066
2466.000000	0.019054
2465.000000	0.019050
2464.000000	0.019052
2463.000000	0.019051
2462.000000	0.019048
2461.000000	0.019044
2460.000000	0.019037
2459.000000	0.019027
2458.000000	0.019022
2457.000000	0.019028
2456.000000	0.019030
2455.000000	0.019018
2454.000000	0.018997
2453.000000	0.018977
2452.000000	0.018956
2451.000000	0.018925
2450.000000	0.018886
2449.000000	0.018853
2448.000000	0.018826
2447.000000	0.018802
2446.000000	0.018780
2445.000000	0.018760
2444.000000	0.018741
2443.000000	0.018716
2442.000000	0.018689
2441.000000	0.018669
2440.000000	0.018652
2439.000000	0.018633
2438.000000	0.018612
2437.000000	0.018598
2436.000000	0.018587
2435.000000	0.018572
2434.000000	0.018552
2433.000000	0.018534
2432.000000	0.018521
2431.000000	0.018506
2430.000000	0.018487
2429.000000	0.018465
2428.000000	0.018436
2427.000000	0.018402
2426.000000	0.018374
2425.000000	0.018360
2424.000000	0.018352
2423.000000	0.018336
2422.000000	0.018313
2421.000000	0.018292
2420.000000	0.018275
2419.000000	0.018253
2418.000000	0.018230
2417.000000	0.018214
2416.000000	0.018207
2415.000000	0.018204
2414.000000	0.018202
2413.000000	0.018202
2412.000000	0.018197
2411.000000	0.018175
2410.000000	0.018132
2409.000000	0.018072
2408.000000	0.018002
2407.000000	0.017938
2406.000000	0.017897
2405.000000	0.017886
2404.000000	0.017892
2403.000000	0.017898
2402.000000	0.017899
2401.000000	0.017899
2400.000000	0.017893
2399.000000	0.017875
2398.000000	0.017848
2397.000000	0.017823
2396.000000	0.017802
2395.000000	0.017783
2394.000000	0.017766
2393.000000	0.017753
2392.000000	0.017744
2391.000000	0.017732
2390.000000	0.017712
2389.000000	0.017685
2388.000000	0.017647
2387.000000	0.017599
2386.000000	0.017550
2385.000000	0.017503
2384.000000	0.017452
2383.000000	0.017393
2382.000000	0.017336
2381.000000	0.017295
2380.000000	0.017271
2379.000000	0.017258
2378.000000	0.017253
2377.000000	0.017255
2376.000000	0.017260
2375.000000	0.017258
2374.000000	0.017253
2373.000000	0.017247
2372.000000	0.017234
2371.000000	0.017201
2370.000000	0.017153
2369.000000	0.017111
2368.000000	0.017084
2367.000000	0.017067
2366.000000	0.017063
2365.000000	0.017078
2364.000000	0.017105
2363.000000	0.017123
2362.000000	0.017126
2361.000000	0.017128
2360.000000	0.017136
2359.000000	0.017150
2358.000000	0.017166
2357.000000	0.017184
2356.000000	0.017190
2355.000000	0.017167
2354.000000	0.017123
2353.000000	0.017087
2352.000000	0.017083
2351.000000	0.017114
2350.000000	0.017168
2349.000000	0.017220
2348.000000	0.017235
2347.000000	0.017202
2346.000000	0.017155
2345.000000	0.017143
2344.000000	0.017174
2343.000000	0.017226
2342.000000	0.017284
2341.000000	0.017338
2340.000000	0.017375
2339.000000	0.017387
2338.000000	0.017387
2337.000000	0.017389
2336.000000	0.017383
2335.000000	0.017354
2334.000000	0.017311
2333.000000	0.017273
2332.000000	0.017252
2331.000000	0.017255
2330.000000	0.017326
2329.000000	0.017525
2328.000000	0.017857
2327.000000	0.018226
2326.000000	0.018490
2325.000000	0.018550
2324.000000	0.018416
2323.000000	0.018189
2322.000000	0.017982
2321.000000	0.017844
2320.000000	0.017760
2319.000000	0.017703
2318.000000	0.017663
2317.000000	0.017630
2316.000000	0.017587
2315.000000	0.017525
2314.000000	0.017456
2313.000000	0.017400
2312.000000	0.017361
2311.000000	0.017332
2310.000000	0.017310
2309.000000	0.017298
2308.000000	0.017294
2307.000000	0.017299
2306.000000	0.017315
2305.000000	0.017340
2304.000000	0.017360
2303.000000	0.017371
2302.000000	0.017383
2301.000000	0.017405
2300.000000	0.017433
2299.000000	0.017458
2298.000000	0.017484
2297.000000	0.017523
2296.000000	0.017574
2295.000000	0.017636
2294.000000	0.017710
2293.000000	0.017790
2292.000000	0.017859
2291.000000	0.017907
2290.000000	0.017941
2289.000000	0.017971
2288.000000	0.017986
2287.000000	0.017971
2286.000000	0.017929
2285.000000	0.017869
2284.000000	0.017789
2283.000000	0.017690
2282.000000	0.017595
2281.000000	0.017528
2280.000000	0.017489
2279.000000	0.017461
2278.000000	0.017440
2277.000000	0.017426
2276.000000	0.017409
2275.000000	0.017376
2274.000000	0.017340
2273.000000	0.017317
2272.000000	0.017299
2271.000000	0.017270
2270.000000	0.017227
2269.000000	0.017180
2268.000000	0.017124
2267.000000	0.017056
2266.000000	0.016995
2265.000000	0.016968
2264.000000	0.016974
2263.000000	0.016993
2262.000000	0.017019
2261.000000	0.017048
2260.000000	0.017061
2259.000000	0.017037
2258.000000	0.016978
2257.000000	0.016899
2256.000000	0.016810
2255.000000	0.016725
2254.000000	0.016672
2253.000000	0.016668
2252.000000	0.016691
2251.000000	0.016711
2250.000000	0.016728
2249.000000	0.016751
2248.000000	0.016769
2247.000000	0.016764
2246.000000	0.016741
2245.000000	0.016722
2244.000000	0.016710
2243.000000	0.016700
2242.000000	0.016704
2241.000000	0.016731
2240.000000	0.016752
2239.000000	0.016743
2238.000000	0.016718
2237.000000	0.016708
2236.000000	0.016714
2235.000000	0.016714
2234.000000	0.016707
2233.000000	0.016706
2232.000000	0.016703
2231.000000	0.016684
2230.000000	0.016656
2229.000000	0.016637
2228.000000	0.016617
2227.000000	0.016583
2226.000000	0.016549
2225.000000	0.016538
2224.000000	0.016539
2223.000000	0.016535
2222.000000	0.016536
2221.000000	0.016553
2220.000000	0.016561
2219.000000	0.016536
2218.000000	0.016503
2217.000000	0.016508
2216.000000	0.016541
2215.000000	0.016560
2214.000000	0.016549
2213.000000	0.016525
2212.000000	0.016495
2211.000000	0.016459
2210.000000	0.016432
2209.000000	0.016433
2208.000000	0.016448
2207.000000	0.016453
2206.000000	0.016457
2205.000000	0.016472
2204.000000	0.016479
2203.000000	0.016454
2202.000000	0.016413
2201.000000	0.016384
2200.000000	0.016366
2199.000000	0.016349
2198.000000	0.016352
2197.000000	0.016391
2196.000000	0.016443
2195.000000	0.016476
2194.000000	0.016500
2193.000000	0.016526
2192.000000	0.016526
2191.000000	0.016490
2190.000000	0.016479
2189.000000	0.016549
2188.000000	0.016644
2187.000000	0.016652
2186.000000	0.016526
2185.000000	0.016303
2184.000000	0.016042
2183.000000	0.015814
2182.000000	0.015711
2181.000000	0.015765
2180.000000	0.015879
2179.000000	0.015917
2178.000000	0.015849
2177.000000	0.015753
2176.000000	0.015702
2175.000000	0.015725
2174.000000	0.015837
2173.000000	0.016026
2172.000000	0.016235
2171.000000	0.016413
2170.000000	0.016574
2169.000000	0.016736
2168.000000	0.016857
2167.000000	0.016909
2166.000000	0.016967
2165.000000	0.017129
2164.000000	0.017321
2163.000000	0.017269
2162.000000	0.016694
2161.000000	0.015551
2160.000000	0.014140
2159.000000	0.012985
2158.000000	0.012475
2157.000000	0.012589
2156.000000	0.012984
2155.000000	0.013355
2154.000000	0.013625
2153.000000	0.013842
2152.000000	0.014013
2151.000000	0.014118
2150.000000	0.014176
2149.000000	0.014223
2148.000000	0.014263
2147.000000	0.014297
2146.000000	0.014346
2145.000000	0.014410
2144.000000	0.014441
2143.000000	0.014416
2142.000000	0.014381
2141.000000	0.014378
2140.000000	0.014378
2139.000000	0.014337
2138.000000	0.014253
2137.000000	0.014138
2136.000000	0.013989
2135.000000	0.013843
2134.000000	0.013794
2133.000000	0.013890
2132.000000	0.014063
2131.000000	0.014223
2130.000000	0.014352
2129.000000	0.014478
2128.000000	0.014600
2127.000000	0.014704
2126.000000	0.014815
2125.000000	0.014956
2124.000000	0.015104
2123.000000	0.015216
2122.000000	0.015298
2121.000000	0.015380
2120.000000	0.015464
2119.000000	0.015535
2118.000000	0.015597
2117.000000	0.015655
2116.000000	0.015683
2115.000000	0.015658
2114.000000	0.015616
2113.000000	0.015606
2112.000000	0.015633
2111.000000	0.015659
2110.000000	0.015673
2109.000000	0.015687
2108.000000	0.015692
2107.000000	0.015678
2106.000000	0.015663
2105.000000	0.015673
2104.000000	0.015688
2103.000000	0.015674
2102.000000	0.015638
2101.000000	0.015611
2100.000000	0.015580
2099.000000	0.015502
2098.000000	0.015362
2097.000000	0.015195
2096.000000	0.015049
2095.000000	0.014967
2094.000000	0.014983
2093.000000	0.015089
2092.000000	0.015223
2091.000000	0.015322
2090.000000	0.015387
2089.000000	0.015443
2088.000000	0.015489
2087.000000	0.015519
2086.000000	0.015554
2085.000000	0.015612
2084.000000	0.015661
2083.000000	0.015664
2082.000000	0.015641
2081.000000	0.015641
2080.000000	0.015665
2079.000000	0.015674
2078.000000	0.015658
2077.000000	0.015629
2076.000000	0.015583
2075.000000	0.015520
2074.000000	0.015464
2073.000000	0.015434
2072.000000	0.015400
2071.000000	0.015331
2070.000000	0.015264
2069.000000	0.015248
2068.000000	0.015263
2067.000000	0.015255
2066.000000	0.015219
2065.000000	0.015197
2064.000000	0.015202
2063.000000	0.015209
2062.000000	0.015213
2061.000000	0.015225
2060.000000	0.015245
2059.000000	0.015269
2058.000000	0.015294
2057.000000	0.015301
2056.000000	0.015273
2055.000000	0.015288
2054.000000	0.015482
2053.000000	0.015842
2052.000000	0.016136
2051.000000	0.016136
2050.000000	0.015875
2049.000000	0.015582
2048.000000	0.015395
2047.000000	0.015275
2046.000000	0.015180
2045.000000	0.015134
2044.000000	0.015131
2043.000000	0.015125
2042.000000	0.015123
2041.000000	0.015161
2040.000000	0.015196
2039.000000	0.015159
2038.000000	0.015064
2037.000000	0.014969
2036.000000	0.014845
2035.000000	0.014643
2034.000000	0.014434
2033.000000	0.014331
2032.000000	0.014310
2031.000000	0.014259
2030.000000	0.014172
2029.000000	0.014120
2028.000000	0.014086
2027.000000	0.014005
2026.000000	0.013921
2025.000000	0.013939
2024.000000	0.014045
2023.000000	0.014124
2022.000000	0.014128
2021.000000	0.014097
2020.000000	0.014040
2019.000000	0.013939
2018.000000	0.013845
2017.000000	0.013831
2016.000000	0.013880
2015.000000	0.013928
2014.000000	0.013991
2013.000000	0.014109
2012.000000	0.014223
2011.000000	0.014238
2010.000000	0.014142
2009.000000	0.013983
2008.000000	0.013771
2007.000000	0.013541
2006.000000	0.013402
2005.000000	0.013424
2004.000000	0.013528
2003.000000	0.013620
2002.000000	0.013723
2001.000000	0.013886
2000.000000	0.014035
1999.000000	0.014076
1998.000000	0.014047
1997.000000	0.014050
1996.000000	0.014094
1995.000000	0.014127
1994.000000	0.014156
1993.000000	0.014220
1992.000000	0.014276
1991.000000	0.014260
1990.000000	0.014229
1989.000000	0.014287
1988.000000	0.014422
1987.000000	0.014555
1986.000000	0.014679
1985.000000	0.014846
1984.000000	0.015046
1983.000000	0.015223
1982.000000	0.015340
1981.000000	0.015325
1980.000000	0.015027
1979.000000	0.014412
1978.000000	0.013736
1977.000000	0.013320
1976.000000	0.013190
1975.000000	0.013156
1974.000000	0.013131
1973.000000	0.013146
1972.000000	0.013169
1971.000000	0.013134
1970.000000	0.013086
1969.000000	0.013107
1968.000000	0.013147
1967.000000	0.013106
1966.000000	0.013031
1965.000000	0.013038
1964.000000	0.013099
1963.000000	0.013093
1962.000000	0.012999
1961.000000	0.012888
1960.000000	0.012786
1959.000000	0.012690
1958.000000	0.012665
1957.000000	0.012764
1956.000000	0.012911
1955.000000	0.012989
1954.000000	0.013000
1953.000000	0.013015
1952.000000	0.013033
1951.000000	0.013005
1950.000000	0.012968
1949.000000	0.012990
1948.000000	0.013045
1947.000000	0.013062
1946.000000	0.013053
1945.000000	0.013080
1944.000000	0.013116
1943.000000	0.013083
1942.000000	0.013000
1941.000000	0.012961
1940.000000	0.012980
1939.000000	0.012993
1938.000000	0.012989
1937.000000	0.013007
1936.000000	0.013036
1935.000000	0.013028
1934.000000	0.012995
1933.000000	0.012988
1932.000000	0.013000
1931.000000	0.012982
1930.000000	0.012947
1929.000000	0.012944
1928.000000	0.012963
1927.000000	0.012961
1926.000000	0.012956
1925.000000	0.013007
1924.000000	0.013100
1923.000000	0.013158
1922.000000	0.013163
1921.000000	0.013156
1920.000000	0.013131
1919.000000	0.013044
1918.000000	0.012926
1917.000000	0.012866
1916.000000	0.012893
1915.000000	0.012947
1914.000000	0.012987
1913.000000	0.013022
1912.000000	0.013054
1911.000000	0.013061
1910.000000	0.013053
1909.000000	0.013056
1908.000000	0.013060
1907.000000	0.013038
1906.000000	0.012999
1905.000000	0.012976
1904.000000	0.012959
1903.000000	0.012919
1902.000000	0.012881
1901.000000	0.012880
1900.000000	0.012891
1899.000000	0.012877
1898.000000	0.012853
1897.000000	0.012864
1896.000000	0.012888
1895.000000	0.012866
1894.000000	0.012812
1893.000000	0.012792
1892.000000	0.012817
1891.000000	0.012835
1890.000000	0.012813
1889.000000	0.012766
1888.000000	0.012724
1887.000000	0.012701
1886.000000	0.012705
1885.000000	0.012733
1884.000000	0.012747
1883.000000	0.012717
1882.000000	0.012675
1881.000000	0.012659
1880.000000	0.012651
1879.000000	0.012614
1878.000000	0.012564
1877.000000	0.012548
1876.000000	0.012561
1875.000000	0.012561
1874.000000	0.012547
1873.000000	0.012554
1872.000000	0.012577
1871.000000	0.012579
1870.000000	0.012558
1869.000000	0.012536
1868.000000	0.012497
1867.000000	0.012435
1866.000000	0.012392
1865.000000	0.012389
1864.000000	0.012397
1863.000000	0.012381
1862.000000	0.012358
1861.000000	0.012361
1860.000000	0.012372
1859.000000	0.012352
1858.000000	0.012310
1857.000000	0.012284
1856.000000	0.012277
1855.000000	0.012258
1854.000000	0.012231
1853.000000	0.012218
1852.000000	0.012210
1851.000000	0.012188
1850.000000	0.012165
1849.000000	0.012165
1848.000000	0.012181
1847.000000	0.012176
1846.000000	0.012129
1845.000000	0.012041
1844.000000	0.011915
1843.000000	0.011801
1842.000000	0.011792
1841.000000	0.011887
1840.000000	0.011986
1839.000000	0.012013
1838.000000	0.011986
1837.000000	0.011971
1836.000000	0.011968
1835.000000	0.011942
1834.000000	0.011908
1833.000000	0.011914
1832.000000	0.011952
1831.000000	0.011967
1830.000000	0.011913
1829.000000	0.011829
1828.000000	0.011785
1827.000000	0.011778
1826.000000	0.011766
1825.000000	0.011736
1824.000000	0.011704
1823.000000	0.011689
1822.000000	0.011697
1821.000000	0.011699
1820.000000	0.011647
1819.000000	0.011529
1818.000000	0.011409
1817.000000	0.011369
1816.000000	0.011403
1815.000000	0.011455
1814.000000	0.011512
1813.000000	0.011588
1812.000000	0.011662
1811.000000	0.011679
1810.000000	0.011642
1809.000000	0.011612
1808.000000	0.011600
1807.000000	0.011576
1806.000000	0.011545
1805.000000	0.011530
1804.000000	0.011519
1803.000000	0.011484
1802.000000	0.011448
1801.000000	0.011440
1800.000000	0.011456
1799.000000	0.011468
1798.000000	0.011494
1797.000000	0.011551
1796.000000	0.011609
1795.000000	0.011613
1794.000000	0.011555
1793.000000	0.011461
1792.000000	0.011335
1791.000000	0.011199
1790.000000	0.011152
1789.000000	0.011223
1788.000000	0.011315
1787.000000	0.011328
1786.000000	0.011274
1785.000000	0.011238
1784.000000	0.011256
1783.000000	0.011307
1782.000000	0.011365
1781.000000	0.011393
1780.000000	0.011370
1779.000000	0.011306
1778.000000	0.011271
1777.000000	0.011312
1776.000000	0.011412
1775.000000	0.011526
1774.000000	0.011609
1773.000000	0.011607
1772.000000	0.011454
1771.000000	0.011191
1770.000000	0.011005
1769.000000	0.010981
1768.000000	0.011032
1767.000000	0.011071
1766.000000	0.011132
1765.000000	0.011255
1764.000000	0.011379
1763.000000	0.011396
1762.000000	0.011307
1761.000000	0.011243
1760.000000	0.011295
1759.000000	0.011395
1758.000000	0.011468
1757.000000	0.011503
1756.000000	0.011537
1755.000000	0.011614
1754.000000	0.011748
1753.000000	0.011920
1752.000000	0.012084
1751.000000	0.012198
1750.000000	0.012300
1749.000000	0.012476
1748.000000	0.012679
1747.000000	0.012815
1746.000000	0.012911
1745.000000	0.013044
1744.000000	0.013206
1743.000000	0.013310
1742.000000	0.013363
1741.000000	0.013460
1740.000000	0.013596
1739.000000	0.013670
1738.000000	0.013736
1737.000000	0.013914
1736.000000	0.014160
1735.000000	0.014289
1734.000000	0.014218
1733.000000	0.014159
1732.000000	0.014311
1731.000000	0.014526
1730.000000	0.014656
1729.000000	0.014737
1728.000000	0.014841
1727.000000	0.014958
1726.000000	0.015066
1725.000000	0.015197
1724.000000	0.015359
1723.000000	0.015469
1722.000000	0.015526
1721.000000	0.015641
1720.000000	0.015872
1719.000000	0.016143
1718.000000	0.016340
1717.000000	0.016456
1716.000000	0.016556
1715.000000	0.016649
1714.000000	0.016790
1713.000000	0.017090
1712.000000	0.017530
1711.000000	0.017976
1710.000000	0.018395
1709.000000	0.018882
1708.000000	0.019506
1707.000000	0.020266
1706.000000	0.021176
1705.000000	0.022222
1704.000000	0.023267
1703.000000	0.024230
1702.000000	0.025355
1701.000000	0.027228
1700.000000	0.029822
1699.000000	0.032056
1698.000000	0.033635
1697.000000	0.034952
1696.000000	0.036155
1695.000000	0.037083
1694.000000	0.037796
1693.000000	0.038515
1692.000000	0.039336
1691.000000	0.040248
1690.000000	0.041246
1689.000000	0.042299
1688.000000	0.043300
1687.000000	0.044178
1686.000000	0.045101
1685.000000	0.046601
1684.000000	0.048678
1683.000000	0.050366
1682.000000	0.051581
1681.000000	0.052764
1680.000000	0.054005
1679.000000	0.055119
1678.000000	0.056040
1677.000000	0.057026
1676.000000	0.058463
1675.000000	0.060312
1674.000000	0.062043
1673.000000	0.063398
1672.000000	0.064592
1671.000000	0.065952
1670.000000	0.067712
1669.000000	0.069711
1668.000000	0.071509
1667.000000	0.072857
1666.000000	0.073853
1665.000000	0.074829
1664.000000	0.076161
1663.000000	0.077949
1662.000000	0.079848
1661.000000	0.081491
1660.000000	0.082854
1659.000000	0.084007
1658.000000	0.084907
1657.000000	0.085477
1656.000000	0.085744
1655.000000	0.086076
1654.000000	0.087577
1653.000000	0.090753
1652.000000	0.093273
1651.000000	0.094051
1650.000000	0.093861
1649.000000	0.093617
1648.000000	0.094013
1647.000000	0.095202
1646.000000	0.096470
1645.000000	0.097248
1644.000000	0.097600
1643.000000	0.097718
1642.000000	0.097794
1641.000000	0.097948
1640.000000	0.098133
1639.000000	0.098196
1638.000000	0.098186
1637.000000	0.098584
1636.000000	0.099856
1635.000000	0.101450
1634.000000	0.102463
1633.000000	0.102907
1632.000000	0.103110
1631.000000	0.103288
1630.000000	0.103631
1629.000000	0.104344
1628.000000	0.105403
1627.000000	0.106434
1626.000000	0.107167
1625.000000	0.107808
1624.000000	0.108804
1623.000000	0.110161
1622.000000	0.111257
1621.000000	0.111639
1620.000000	0.111424
1619.000000	0.110937
1618.000000	0.110528
1617.000000	0.110423
1616.000000	0.110306
1615.000000	0.109608
1614.000000	0.108202
1613.000000	0.106334
1612.000000	0.104274
1611.000000	0.102159
1610.000000	0.099983
1609.000000	0.097702
1608.000000	0.095348
1607.000000	0.092982
1606.000000	0.090613
1605.000000	0.088221
1604.000000	0.085857
1603.000000	0.083599
1602.000000	0.081443
1601.000000	0.079342
1600.000000	0.077313
1599.000000	0.075420
1598.000000	0.073664
1597.000000	0.071980
1596.000000	0.070347
1595.000000	0.068803
1594.000000	0.067345
1593.000000	0.065915
1592.000000	0.064508
1591.000000	0.063206
1590.000000	0.062044
1589.000000	0.060965
1588.000000	0.059946
1587.000000	0.059051
1586.000000	0.058316
1585.000000	0.057669
1584.000000	0.057057
1583.000000	0.056558
1582.000000	0.056213
1581.000000	0.055931
1580.000000	0.055645
1579.000000	0.055438
1578.000000	0.055441
1577.000000	0.055700
1576.000000	0.056097
1575.000000	0.056431
1574.000000	0.056625
1573.000000	0.056686
1572.000000	0.056729
1571.000000	0.057049
1570.000000	0.057894
1569.000000	0.058969
1568.000000	0.059836
1567.000000	0.060553
1566.000000	0.061358
1565.000000	0.062303
1564.000000	0.063188
1563.000000	0.063799
1562.000000	0.064055
1561.000000	0.064174
1560.000000	0.065247
1559.000000	0.068422
1558.000000	0.071496
1557.000000	0.073006
1556.000000	0.073888
1555.000000	0.074890
1554.000000	0.076160
1553.000000	0.077403
1552.000000	0.078464
1551.000000	0.079572
1550.000000	0.080918
1549.000000	0.082255
1548.000000	0.083217
1547.000000	0.083851
1546.000000	0.084513
1545.000000	0.085437
1544.000000	0.086452
1543.000000	0.087313
1542.000000	0.088213
1541.000000	0.089711
1540.000000	0.091817
1539.000000	0.093529
1538.000000	0.094270
1537.000000	0.094253
1536.000000	0.093901
1535.000000	0.093788
1534.000000	0.094473
1533.000000	0.095755
1532.000000	0.096781
1531.000000	0.097259
1530.000000	0.097446
1529.000000	0.097624
1528.000000	0.097968
1527.000000	0.098569
1526.000000	0.099330
1525.000000	0.099935
1524.000000	0.100220
1523.000000	0.100526
1522.000000	0.101452
1521.000000	0.102867
1520.000000	0.103856
1519.000000	0.104211
1518.000000	0.104477
1517.000000	0.105045
1516.000000	0.105633
1515.000000	0.105744
1514.000000	0.105322
1513.000000	0.104587
1512.000000	0.103724
1511.000000	0.102747
1510.000000	0.101590
1509.000000	0.100321
1508.000000	0.099305
1507.000000	0.098787
1506.000000	0.098203
1505.000000	0.097127
1504.000000	0.095655
1503.000000	0.093911
1502.000000	0.092021
1501.000000	0.090106
1500.000000	0.088295
1499.000000	0.086654
1498.000000	0.085148
1497.000000	0.083691
1496.000000	0.082222
1495.000000	0.080690
1494.000000	0.079043
1493.000000	0.077249
1492.000000	0.075378
1491.000000	0.073597
1490.000000	0.072028
1489.000000	0.070599
1488.000000	0.069202
1487.000000	0.067804
1486.000000	0.066438
1485.000000	0.065147
1484.000000	0.063946
1483.000000	0.062841
1482.000000	0.061853
1481.000000	0.061006
1480.000000	0.060259
1479.000000	0.059542
1478.000000	0.058865
1477.000000	0.058338
1476.000000	0.058010
1475.000000	0.057827
1474.000000	0.057827
1473.000000	0.058142
1472.000000	0.058671
1471.000000	0.059090
1470.000000	0.059273
1469.000000	0.059261
1468.000000	0.059118
1467.000000	0.058923
1466.000000	0.058818
1465.000000	0.058927
1464.000000	0.059197
1463.000000	0.059446
1462.000000	0.059568
1461.000000	0.059587
1460.000000	0.059615
1459.000000	0.059866
1458.000000	0.060663
1457.000000	0.062045
1456.000000	0.063347
1455.000000	0.064109
1454.000000	0.064445
1453.000000	0.064600
1452.000000	0.064702
1451.000000	0.064736
1450.000000	0.064691
1449.000000	0.064652
1448.000000	0.064683
1447.000000	0.064692
1446.000000	0.064565
1445.000000	0.064281
1444.000000	0.063908
1443.000000	0.063491
1442.000000	0.063029
1441.000000	0.062498
1440.000000	0.061865
1439.000000	0.061107
1438.000000	0.060324
1437.000000	0.059788
1436.000000	0.059604
1435.000000	0.059519
1434.000000	0.059283
1433.000000	0.058885
1432.000000	0.058463
1431.000000	0.058150
1430.000000	0.057965
1429.000000	0.057878
1428.000000	0.057856
1427.000000	0.057857
1426.000000	0.057888
1425.000000	0.058040
1424.000000	0.058356
1423.000000	0.058661
1422.000000	0.058771
1421.000000	0.058785
1420.000000	0.059061
1419.000000	0.059792
1418.000000	0.060638
1417.000000	0.061289
1416.000000	0.061770
1415.000000	0.062161
1414.000000	0.062498
1413.000000	0.062839
1412.000000	0.063242
1411.000000	0.063673
1410.000000	0.064051
1409.000000	0.064352
1408.000000	0.064598
1407.000000	0.064810
1406.000000	0.065032
1405.000000	0.065317
1404.000000	0.065622
1403.000000	0.065805
1402.000000	0.065792
1401.000000	0.065692
1400.000000	0.065702
1399.000000	0.065863
1398.000000	0.066017
1397.000000	0.066075
1396.000000	0.066118
1395.000000	0.066237
1394.000000	0.066416
1393.000000	0.066584
1392.000000	0.066685
1391.000000	0.066674
1390.000000	0.066568
1389.000000	0.066475
1388.000000	0.066521
1387.000000	0.066683
1386.000000	0.066806
1385.000000	0.066802
1384.000000	0.066690
1383.000000	0.066521
1382.000000	0.066333
1381.000000	0.066150
1380.000000	0.065981
1379.000000	0.065816
1378.000000	0.065633
1377.000000	0.065433
1376.000000	0.065255
1375.000000	0.065147
1374.000000	0.065097
1373.000000	0.065042
1372.000000	0.064942
1371.000000	0.064785
1370.000000	0.064587
1369.000000	0.064366
1368.000000	0.064113
1367.000000	0.063783
1366.000000	0.063356
1365.000000	0.062882
1364.000000	0.062460
1363.000000	0.062154
1362.000000	0.061934
1361.000000	0.061748
1360.000000	0.061574
1359.000000	0.061404
1358.000000	0.061240
1357.000000	0.061104
1356.000000	0.061016
1355.000000	0.060975
1354.000000	0.060960
1353.000000	0.060959
1352.000000	0.060977
1351.000000	0.061022
1350.000000	0.061098
1349.000000	0.061195
1348.000000	0.061305
1347.000000	0.061419
1346.000000	0.061531
1345.000000	0.061642
1344.000000	0.061746
1343.000000	0.061831
1342.000000	0.061907
1341.000000	0.062011
1340.000000	0.062155
1339.000000	0.062290
1338.000000	0.062358
1337.000000	0.062361
1336.000000	0.062330
1335.000000	0.062276
1334.000000	0.062194
1333.000000	0.062094
1332.000000	0.061994
1331.000000	0.061900
1330.000000	0.061805
1329.000000	0.061709
1328.000000	0.061619
1327.000000	0.061536
1326.000000	0.061453
1325.000000	0.061372
1324.000000	0.061306
1323.000000	0.061256
1322.000000	0.061216
1321.000000	0.061192
1320.000000	0.061195
1319.000000	0.061214
1318.000000	0.061219
1317.000000	0.061194
1316.000000	0.061149
1315.000000	0.061095
1314.000000	0.061037
1313.000000	0.060974
1312.000000	0.060897
1311.000000	0.060789
1310.000000	0.060639
1309.000000	0.060466
1308.000000	0.060293
1307.000000	0.060122
1306.000000	0.059942
1305.000000	0.059748
1304.000000	0.059550
1303.000000	0.059352
1302.000000	0.059146
1301.000000	0.058932
1300.000000	0.058719
1299.000000	0.058512
1298.000000	0.058312
1297.000000	0.058120
1296.000000	0.057940
1295.000000	0.057766
1294.000000	0.057595
1293.000000	0.057437
1292.000000	0.057303
1291.000000	0.057187
1290.000000	0.057080
1289.000000	0.056981
1288.000000	0.056898
1287.000000	0.056823
1286.000000	0.056741
1285.000000	0.056650
1284.000000	0.056557
1283.000000	0.056467
1282.000000	0.056378
1281.000000	0.056291
1280.000000	0.056211
1279.000000	0.056132
1278.000000	0.056047
1277.000000	0.055966
1276.000000	0.055904
1275.000000	0.055868
1274.000000	0.055854
1273.000000	0.055864
1272.000000	0.055902
1271.000000	0.055955
1270.000000	0.056010
1269.000000	0.056068
1268.000000	0.056144
1267.000000	0.056245
1266.000000	0.056363
1265.000000	0.056497
1264.000000	0.056654
1263.000000	0.056839
1262.000000	0.057051
1261.000000	0.057296
1260.000000	0.057576
1259.000000	0.057877
1258.000000	0.058185
1257.000000	0.058502
1256.000000	0.058841
1255.000000	0.059201
1254.000000	0.059569
1253.000000	0.059944
1252.000000	0.060328
1251.000000	0.060715
1250.000000	0.061093
1249.000000	0.061465
1248.000000	0.061835
1247.000000	0.062197
1246.000000	0.062536
1245.000000	0.062857
1244.000000	0.063167
1243.000000	0.063457
1242.000000	0.063713
1241.000000	0.063938
1240.000000	0.064144
1239.000000	0.064329
1238.000000	0.064481
1237.000000	0.064603
1236.000000	0.064703
1235.000000	0.064773
1234.000000	0.064807
1233.000000	0.064813
1232.000000	0.064805
1231.000000	0.064776
1230.000000	0.064715
1229.000000	0.064625
1228.000000	0.064517
1227.000000	0.064390
1226.000000	0.064238
1225.000000	0.064065
1224.000000	0.063877
1223.000000	0.063669
1222.000000	0.063432
1221.000000	0.063175
1220.000000	0.062910
1219.000000	0.062635
1218.000000	0.062338
1217.000000	0.062022
1216.000000	0.061696
1215.000000	0.061361
1214.000000	0.061012
1213.000000	0.060656
1212.000000	0.060300
1211.000000	0.059941
1210.000000	0.059569
1209.000000	0.059185
1208.000000	0.058792
1207.000000	0.058385
1206.000000	0.057959
1205.000000	0.057523
1204.000000	0.057091
1203.000000	0.056665
1202.000000	0.056237
1201.000000	0.055807
1200.000000	0.055386
1199.000000	0.054981
1198.000000	0.054590
1197.000000	0.054221
1196.000000	0.053878
1195.000000	0.053560
1194.000000	0.053258
1193.000000	0.052972
1192.000000	0.052712
1191.000000	0.052479
1190.000000	0.052261
1189.000000	0.052055
1188.000000	0.051868
1187.000000	0.051702
1186.000000	0.051554
1185.000000	0.051427
1184.000000	0.051329
1183.000000	0.051260
1182.000000	0.051221
1181.000000	0.051220
1180.000000	0.051275
1179.000000	0.051391
1178.000000	0.051560
1177.000000	0.051775
1176.000000	0.052037
1175.000000	0.052336
1174.000000	0.052650
1173.000000	0.052963
1172.000000	0.053267
1171.000000	0.053554
1170.000000	0.053811
1169.000000	0.054038
1168.000000	0.054246
1167.000000	0.054437
1166.000000	0.054601
1165.000000	0.054731
1164.000000	0.054831
1163.000000	0.054900
1162.000000	0.054932
1161.000000	0.054925
1160.000000	0.054881
1159.000000	0.054797
1158.000000	0.054667
1157.000000	0.054497
1156.000000	0.054297
1155.000000	0.054068
1154.000000	0.053806
1153.000000	0.053522
1152.000000	0.053229
1151.000000	0.052929
1150.000000	0.052612
1149.000000	0.052283
1148.000000	0.051957
1147.000000	0.051644
1146.000000	0.051345
1145.000000	0.051065
1144.000000	0.050816
1143.000000	0.050598
1142.000000	0.050400
1141.000000	0.050214
1140.000000	0.050042
1139.000000	0.049881
1138.000000	0.049726
1137.000000	0.049584
1136.000000	0.049472
1135.000000	0.049391
1134.000000	0.049324
1133.000000	0.049258
1132.000000	0.049197
1131.000000	0.049141
1130.000000	0.049081
1129.000000	0.049015
1128.000000	0.048955
1127.000000	0.048904
1126.000000	0.048852
1125.000000	0.048791
1124.000000	0.048722
1123.000000	0.048648
1122.000000	0.048571
1121.000000	0.048492
1120.000000	0.048418
1119.000000	0.048345
1118.000000	0.048261
1117.000000	0.048170
1116.000000	0.048084
1115.000000	0.048006
1114.000000	0.047928
1113.000000	0.047845
1112.000000	0.047771
1111.000000	0.047709
1110.000000	0.047656
1109.000000	0.047607
1108.000000	0.047570
1107.000000	0.047547
1106.000000	0.047527
1105.000000	0.047506
1104.000000	0.047494
1103.000000	0.047500
1102.000000	0.047514
1101.000000	0.047531
1100.000000	0.047552
1099.000000	0.047585
1098.000000	0.047638
1097.000000	0.047724
1096.000000	0.047861
1095.000000	0.048052
1094.000000	0.048285
1093.000000	0.048549
1092.000000	0.048850
1091.000000	0.049200
1090.000000	0.049600
1089.000000	0.050045
1088.000000	0.050530
1087.000000	0.051045
1086.000000	0.051580
1085.000000	0.052134
1084.000000	0.052709
1083.000000	0.053290
1082.000000	0.053862
1081.000000	0.054429
1080.000000	0.055003
1079.000000	0.055579
1078.000000	0.056137
1077.000000	0.056669
1076.000000	0.057175
1075.000000	0.057646
1074.000000	0.058072
1073.000000	0.058461
1072.000000	0.058826
1071.000000	0.059172
1070.000000	0.059494
1069.000000	0.059798
1068.000000	0.060084
1067.000000	0.060339
1066.000000	0.060542
1065.000000	0.060688
1064.000000	0.060779
1063.000000	0.060803
1062.000000	0.060751
1061.000000	0.060636
1060.000000	0.060475
1059.000000	0.060268
1058.000000	0.060012
1057.000000	0.059726
1056.000000	0.059436
1055.000000	0.059148
1054.000000	0.058861
1053.000000	0.058583
1052.000000	0.058330
1051.000000	0.058104
1050.000000	0.057898
1049.000000	0.057712
1048.000000	0.057545
1047.000000	0.057381
1046.000000	0.057205
1045.000000	0.057021
1044.000000	0.056834
1043.000000	0.056637
1042.000000	0.056425
1041.000000	0.056210
1040.000000	0.056007
1039.000000	0.055810
1038.000000	0.055600
1037.000000	0.055375
1036.000000	0.055140
1035.000000	0.054888
1034.000000	0.054609
1033.000000	0.054306
1032.000000	0.053983
1031.000000	0.053628
1030.000000	0.053220
1029.000000	0.052760
1028.000000	0.052265
1027.000000	0.051748
1026.000000	0.051210
1025.000000	0.050662
1024.000000	0.050123
1023.000000	0.049602
1022.000000	0.049095
1021.000000	0.048600
1020.000000	0.048125
1019.000000	0.047674
1018.000000	0.047245
1017.000000	0.046833
1016.000000	0.046437
1015.000000	0.046052
1014.000000	0.045671
1013.000000	0.045298
1012.000000	0.044946
1011.000000	0.044618
1010.000000	0.044304
1009.000000	0.043992
1008.000000	0.043687
1007.000000	0.043394
1006.000000	0.043111
1005.000000	0.042839
1004.000000	0.042579
1003.000000	0.042330
1002.000000	0.042089
1001.000000	0.041859
1000.000000	0.041648
999.000000	0.041455
998.000000	0.041267
997.000000	0.041083
996.000000	0.040912
995.000000	0.040760
994.000000	0.040617
993.000000	0.040480
992.000000	0.040353
991.000000	0.040240
990.000000	0.040128
989.000000	0.040008
988.000000	0.039887
987.000000	0.039777
986.000000	0.039681
985.000000	0.039600
984.000000	0.039531
983.000000	0.039471
982.000000	0.039418
981.000000	0.039381
980.000000	0.039373
979.000000	0.039394
978.000000	0.039424
977.000000	0.039454
976.000000	0.039490
975.000000	0.039532
974.000000	0.039571
973.000000	0.039601
972.000000	0.039626
971.000000	0.039655
970.000000	0.039692
969.000000	0.039744
968.000000	0.039824
967.000000	0.039930
966.000000	0.040044
965.000000	0.040147
964.000000	0.040234
963.000000	0.040297
962.000000	0.040322
961.000000	0.040302
960.000000	0.040248
959.000000	0.040165
958.000000	0.040049
957.000000	0.039898
956.000000	0.039729
955.000000	0.039559
954.000000	0.039394
953.000000	0.039237
952.000000	0.039099
951.000000	0.038987
950.000000	0.038891
949.000000	0.038802
948.000000	0.038714
947.000000	0.038624
946.000000	0.038529
945.000000	0.038437
944.000000	0.038365
943.000000	0.038318
942.000000	0.038280
941.000000	0.038243
940.000000	0.038221
939.000000	0.038230
938.000000	0.038265
937.000000	0.038302
936.000000	0.038327
935.000000	0.038334
934.000000	0.038324
933.000000	0.038301
932.000000	0.038273
931.000000	0.038236
930.000000	0.038175
929.000000	0.038084
928.000000	0.037974
927.000000	0.037864
926.000000	0.037756
925.000000	0.037645
924.000000	0.037532
923.000000	0.037416
922.000000	0.037291
921.000000	0.037148
920.000000	0.036992
919.000000	0.036829
918.000000	0.036661
917.000000	0.036485
916.000000	0.036314
915.000000	0.036164
914.000000	0.036043
913.000000	0.035950
912.000000	0.035883
911.000000	0.035834
910.000000	0.035795
909.000000	0.035765
908.000000	0.035747
907.000000	0.035741
906.000000	0.035733
905.000000	0.035715
904.000000	0.035694
903.000000	0.035673
902.000000	0.035647
901.000000	0.035609
900.000000	0.035561
899.000000	0.035510
898.000000	0.035454
897.000000	0.035393
896.000000	0.035331
895.000000	0.035268
894.000000	0.035196
893.000000	0.035113
892.000000	0.035023
891.000000	0.034925
890.000000	0.034811
889.000000	0.034680
888.000000	0.034545
887.000000	0.034423
886.000000	0.034319
885.000000	0.034242
884.000000	0.034202
883.000000	0.034194
882.000000	0.034198
881.000000	0.034200
880.000000	0.034208
879.000000	0.034227
878.000000	0.034244
877.000000	0.034249
876.000000	0.034248
875.000000	0.034251
874.000000	0.034252
873.000000	0.034236
872.000000	0.034201
871.000000	0.034148
870.000000	0.034078
869.000000	0.033996
868.000000	0.033922
867.000000	0.033866
866.000000	0.033812
865.000000	0.033736
864.000000	0.033638
863.000000	0.033541
862.000000	0.033467
861.000000	0.033422
860.000000	0.033402
859.000000	0.033395
858.000000	0.033394
857.000000	0.033404
856.000000	0.033440
855.000000	0.033499
854.000000	0.033564
853.000000	0.033615
852.000000	0.033650
851.000000	0.033674
850.000000	0.033684
849.000000	0.033674
848.000000	0.033642
847.000000	0.033598
846.000000	0.033556
845.000000	0.033535
844.000000	0.033544
843.000000	0.033579
842.000000	0.033623
841.000000	0.033674
840.000000	0.033746
839.000000	0.033849
838.000000	0.033979
837.000000	0.034134
836.000000	0.034322
835.000000	0.034552
834.000000	0.034821
833.000000	0.035134
832.000000	0.035496
831.000000	0.035899
830.000000	0.036308
829.000000	0.036674
828.000000	0.036955
827.000000	0.037121
826.000000	0.037158
825.000000	0.037084
824.000000	0.036944
823.000000	0.036788
822.000000	0.036652
821.000000	0.036560
820.000000	0.036519
819.000000	0.036521
818.000000	0.036553
817.000000	0.036620
816.000000	0.036727
815.000000	0.036864
814.000000	0.037008
813.000000	0.037151
812.000000	0.037298
811.000000	0.037452
810.000000	0.037598
809.000000	0.037728
808.000000	0.037848
807.000000	0.037967
806.000000	0.038084
805.000000	0.038198
804.000000	0.038305
803.000000	0.038400
802.000000	0.038479
801.000000	0.038550
800.000000	0.038626
799.000000	0.038713
798.000000	0.038810
797.000000	0.038925
796.000000	0.039071
795.000000	0.039252
794.000000	0.039456
793.000000	0.039678
792.000000	0.039915
791.000000	0.040161
790.000000	0.040409
789.000000	0.040664
788.000000	0.040933
787.000000	0.041213
786.000000	0.041492
785.000000	0.041771
784.000000	0.042058
783.000000	0.042354
782.000000	0.042655
781.000000	0.042959
780.000000	0.043267
779.000000	0.043569
778.000000	0.043858
777.000000	0.044143
776.000000	0.044430
775.000000	0.044712
774.000000	0.044977
773.000000	0.045227
772.000000	0.045471
771.000000	0.045708
770.000000	0.045931
769.000000	0.046144
768.000000	0.046349
767.000000	0.046531
766.000000	0.046683
765.000000	0.046823
764.000000	0.046973
763.000000	0.047123
762.000000	0.047255
761.000000	0.047373
760.000000	0.047507
759.000000	0.047669
758.000000	0.047844
757.000000	0.048022
756.000000	0.048202
755.000000	0.048390
754.000000	0.048592
753.000000	0.048816
752.000000	0.049061
751.000000	0.049305
750.000000	0.049534
749.000000	0.049752
748.000000	0.049964
747.000000	0.050159
746.000000	0.050324
745.000000	0.050461
744.000000	0.050584
743.000000	0.050694
742.000000	0.050789
741.000000	0.050879
740.000000	0.050971
739.000000	0.051056
738.000000	0.051130
737.000000	0.051211
736.000000	0.051316
735.000000	0.051442
734.000000	0.051585
733.000000	0.051758
732.000000	0.051975
731.000000	0.052231
730.000000	0.052525
729.000000	0.052882
728.000000	0.053321
727.000000	0.053823
726.000000	0.054355
725.000000	0.054907
724.000000	0.055472
723.000000	0.056033
722.000000	0.056586
721.000000	0.057163
720.000000	0.057791
719.000000	0.058456
718.000000	0.059128
717.000000	0.059807
716.000000	0.060497
715.000000	0.061184
714.000000	0.061857
713.000000	0.062537
712.000000	0.063255
711.000000	0.064012
710.000000	0.064794
709.000000	0.065601
708.000000	0.066434
707.000000	0.067276
706.000000	0.068119
705.000000	0.068970
704.000000	0.069820
703.000000	0.070619
702.000000	0.071328
701.000000	0.071943
700.000000	0.072466
699.000000	0.072871
698.000000	0.073138
697.000000	0.073287
696.000000	0.073359
695.000000	0.073386
694.000000	0.073399
693.000000	0.073430
692.000000	0.073485
691.000000	0.073550
690.000000	0.073633
689.000000	0.073770
688.000000	0.073957
687.000000	0.074139
686.000000	0.074280
685.000000	0.074403
684.000000	0.074532
683.000000	0.074667
682.000000	0.074812
681.000000	0.074997
680.000000	0.075219
679.000000	0.075435
678.000000	0.075631
677.000000	0.075829
676.000000	0.076035
675.000000	0.076227
674.000000	0.076393
673.000000	0.076531
672.000000	0.076628
671.000000	0.076690
670.000000	0.076792
669.000000	0.077112
668.000000	0.077740
667.000000	0.078269
666.000000	0.078356
665.000000	0.078228
664.000000	0.078163
663.000000	0.078232
662.000000	0.078376
661.000000	0.078542
660.000000	0.078724
659.000000	0.078906
658.000000	0.079075
657.000000	0.079246
656.000000	0.079441
655.000000	0.079653
654.000000	0.079863
653.000000	0.080074
652.000000	0.080296
651.000000	0.080518
650.000000	0.080727
649.000000	0.080932
648.000000	0.081147
647.000000	0.081366
646.000000	0.081592
645.000000	0.081854
644.000000	0.082160
643.000000	0.082468
642.000000	0.082748
641.000000	0.083032
640.000000	0.083352
639.000000	0.083683
638.000000	0.083986
637.000000	0.084275
636.000000	0.084582
635.000000	0.084889
634.000000	0.085166
633.000000	0.085429
632.000000	0.085708
631.000000	0.085990
630.000000	0.086255
629.000000	0.086515
628.000000	0.086774
627.000000	0.086995
626.000000	0.087152
625.000000	0.087283
624.000000	0.087430
623.000000	0.087575
622.000000	0.087677
621.000000	0.087728
620.000000	0.087740
619.000000	0.087714
618.000000	0.087681
617.000000	0.087691
616.000000	0.087746
615.000000	0.087769
614.000000	0.087720
613.000000	0.087650
612.000000	0.087614
611.000000	0.087595
610.000000	0.087562
609.000000	0.087537
608.000000	0.087543
607.000000	0.087547
606.000000	0.087511
605.000000	0.087464
604.000000	0.087441
603.000000	0.087424
602.000000	0.087386
601.000000	0.087353
600.000000	0.087353
599.000000	0.087367
598.000000	0.087377
597.000000	0.087414
596.000000	0.087499
595.000000	0.087586
594.000000	0.087635
593.000000	0.087673
592.000000	0.087735
591.000000	0.087808
590.000000	0.087881
589.000000	0.087992
588.000000	0.088160
587.000000	0.088338
586.000000	0.088478
585.000000	0.088596
584.000000	0.088718
583.000000	0.088817
582.000000	0.088884
581.000000	0.088965
580.000000	0.089081
579.000000	0.089183
578.000000	0.089259
577.000000	0.089386
576.000000	0.089603
575.000000	0.089829
574.000000	0.089979
573.000000	0.090091
572.000000	0.090231
571.000000	0.090383
570.000000	0.090509
569.000000	0.090636
568.000000	0.090791
567.000000	0.090932
566.000000	0.091035
565.000000	0.091150
564.000000	0.091311
563.000000	0.091467
562.000000	0.091587
561.000000	0.091729
560.000000	0.091922
559.000000	0.092076
558.000000	0.092122
557.000000	0.092139
556.000000	0.092236
555.000000	0.092404
554.000000	0.092578
553.000000	0.092738
552.000000	0.092874
551.000000	0.092944
550.000000	0.092964
549.000000	0.093044
548.000000	0.093238
547.000000	0.093457
546.000000	0.093616
545.000000	0.093764
544.000000	0.093950
543.000000	0.094106
542.000000	0.094166
541.000000	0.094195
540.000000	0.094281
539.000000	0.094406
538.000000	0.094519
537.000000	0.094638
536.000000	0.094775
535.000000	0.094868
534.000000	0.094896
533.000000	0.094950
532.000000	0.095085
531.000000	0.095232
530.000000	0.095315
529.000000	0.095372
528.000000	0.095460
527.000000	0.095554
526.000000	0.095631
525.000000	0.095762
524.000000	0.095962
523.000000	0.096117
522.000000	0.096154
521.000000	0.096164
520.000000	0.096249
519.000000	0.096361
518.000000	0.096404
517.000000	0.096374
516.000000	0.096279
515.000000	0.096071
514.000000	0.095779
513.000000	0.095538
512.000000	0.095411
511.000000	0.095292
510.000000	0.095097
509.000000	0.094917
508.000000	0.094850
507.000000	0.094822
506.000000	0.094699
505.000000	0.094493
504.000000	0.094299
503.000000	0.094157
502.000000	0.094079
501.000000	0.094100
500.000000	0.094197
499.000000	0.094238
498.000000	0.094149
497.000000	0.093998
496.000000	0.093865
495.000000	0.093726
494.000000	0.093574
493.000000	0.093488
492.000000	0.093494
491.000000	0.093475
490.000000	0.093353
489.000000	0.093203
488.000000	0.093104
487.000000	0.093021
486.000000	0.092938
485.000000	0.092937
484.000000	0.093023
483.000000	0.093027
482.000000	0.092847
481.000000	0.092624
480.000000	0.092506
479.000000	0.092449
478.000000	0.092371
477.000000	0.092329
476.000000	0.092373
475.000000	0.092401
474.000000	0.092356
473.000000	0.092383
472.000000	0.092600
471.000000	0.092860
470.000000	0.093009
469.000000	0.093114
468.000000	0.093253
467.000000	0.093321
466.000000	0.093235
465.000000	0.093123
464.000000	0.093122
463.000000	0.093173
462.000000	0.093149
461.000000	0.093053
460.000000	0.092911
459.000000	0.092660
458.000000	0.092319
457.000000	0.092074
456.000000	0.091997
455.000000	0.091921
454.000000	0.091764
453.000000	0.091656
452.000000	0.091625
451.000000	0.091450
450.000000	0.091027
449.000000	0.090563
448.000000	0.090235
447.000000	0.089946
446.000000	0.089574
445.000000	0.089219
444.000000	0.088999
443.000000	0.088816
442.000000	0.088535
441.000000	0.088195
440.000000	0.087823
439.000000	0.087310
438.000000	0.086654
437.000000	0.086066
436.000000	0.085688
435.000000	0.085400
434.000000	0.085096
433.000000	0.084852
432.000000	0.084694
431.000000	0.084473
430.000000	0.084125
429.000000	0.083813
428.000000	0.083606
427.000000	0.083312
426.000000	0.082842
425.000000	0.082471
424.000000	0.082423
423.000000	0.082411
422.000000	0.082034
421.000000	0.081392
420.000000	0.080981
419.000000	0.081016
418.000000	0.081121
417.000000	0.081200
416.000000	0.081335
415.000000	0.081325
414.000000	0.081056
413.000000	0.080708
412.000000	0.080455
411.000000	0.080199
410.000000	0.079817
409.000000	0.079464
408.000000	0.079282
407.000000	0.079088
406.000000	0.078703
405.000000	0.078327
404.000000	0.078174
403.000000	0.078085
402.000000	0.077817
401.000000	0.077425
400.000000	0.077002
