Created as New Dataset,Sample 341 By YargerLab Date Monday, August 19 2024
cm-1,A
4000.00,0.0011
3999.00,0.0011
3998.00,0.0011
3997.00,0.0011
3996.00,0.0011
3995.00,0.0011
3994.00,0.0011
3993.00,0.0011
3992.00,0.0011
3991.00,0.0011
3990.00,0.0011
3989.00,0.0011
3988.00,0.0011
3987.00,0.0011
3986.00,0.0011
3985.00,0.0011
3984.00,0.0011
3983.00,0.0011
3982.00,0.0011
3981.00,0.0011
3980.00,0.0011
3979.00,0.0011
3978.00,0.0011
3977.00,0.0011
3976.00,0.0011
3975.00,0.0011
3974.00,0.0011
3973.00,0.0011
3972.00,0.0011
3971.00,0.0011
3970.00,0.0011
3969.00,0.0011
3968.00,0.0011
3967.00,0.0011
3966.00,0.0011
3965.00,0.0011
3964.00,0.0011
3963.00,0.0011
3962.00,0.0011
3961.00,0.0011
3960.00,0.0011
3959.00,0.0011
3958.00,0.0011
3957.00,0.0011
3956.00,0.0011
3955.00,0.0011
3954.00,0.0011
3953.00,0.0011
3952.00,0.0011
3951.00,0.0011
3950.00,0.0011
3949.00,0.0012
3948.00,0.0012
3947.00,0.0012
3946.00,0.0011
3945.00,0.0011
3944.00,0.0011
3943.00,0.0011
3942.00,0.0011
3941.00,0.0011
3940.00,0.0011
3939.00,0.0011
3938.00,0.0011
3937.00,0.0011
3936.00,0.0011
3935.00,0.0011
3934.00,0.0011
3933.00,0.0011
3932.00,0.0011
3931.00,0.0011
3930.00,0.0011
3929.00,0.0011
3928.00,0.0011
3927.00,0.0011
3926.00,0.0011
3925.00,0.0011
3924.00,0.0011
3923.00,0.0011
3922.00,0.0011
3921.00,0.0011
3920.00,0.0011
3919.00,0.0012
3918.00,0.0012
3917.00,0.0011
3916.00,0.0011
3915.00,0.0011
3914.00,0.0011
3913.00,0.0011
3912.00,0.0011
3911.00,0.0011
3910.00,0.0011
3909.00,0.0011
3908.00,0.0011
3907.00,0.0011
3906.00,0.0011
3905.00,0.0011
3904.00,0.0011
3903.00,0.0012
3902.00,0.0012
3901.00,0.0011
3900.00,0.0011
3899.00,0.0011
3898.00,0.0011
3897.00,0.0011
3896.00,0.0011
3895.00,0.0011
3894.00,0.0011
3893.00,0.0011
3892.00,0.0011
3891.00,0.0011
3890.00,0.0011
3889.00,0.0011
3888.00,0.0011
3887.00,0.0011
3886.00,0.0011
3885.00,0.0011
3884.00,0.0011
3883.00,0.0011
3882.00,0.0011
3881.00,0.0011
3880.00,0.0011
3879.00,0.0011
3878.00,0.0011
3877.00,0.0011
3876.00,0.0011
3875.00,0.0011
3874.00,0.0011
3873.00,0.0012
3872.00,0.0012
3871.00,0.0012
3870.00,0.0011
3869.00,0.0011
3868.00,0.0011
3867.00,0.0011
3866.00,0.0011
3865.00,0.0011
3864.00,0.0011
3863.00,0.0011
3862.00,0.0011
3861.00,0.0011
3860.00,0.0011
3859.00,0.0011
3858.00,0.0012
3857.00,0.0011
3856.00,0.0011
3855.00,0.0011
3854.00,0.0011
3853.00,0.0011
3852.00,0.0011
3851.00,0.0011
3850.00,0.0011
3849.00,0.0011
3848.00,0.0011
3847.00,0.0011
3846.00,0.0012
3845.00,0.0012
3844.00,0.0012
3843.00,0.0012
3842.00,0.0012
3841.00,0.0012
3840.00,0.0012
3839.00,0.0012
3838.00,0.0012
3837.00,0.0011
3836.00,0.0011
3835.00,0.0011
3834.00,0.0011
3833.00,0.0011
3832.00,0.0011
3831.00,0.0011
3830.00,0.0011
3829.00,0.0011
3828.00,0.0011
3827.00,0.0012
3826.00,0.0012
3825.00,0.0012
3824.00,0.0012
3823.00,0.0012
3822.00,0.0012
3821.00,0.0011
3820.00,0.0011
3819.00,0.0011
3818.00,0.0011
3817.00,0.0011
3816.00,0.0011
3815.00,0.0011
3814.00,0.0011
3813.00,0.0011
3812.00,0.0011
3811.00,0.0011
3810.00,0.0011
3809.00,0.0011
3808.00,0.0011
3807.00,0.0011
3806.00,0.0012
3805.00,0.0012
3804.00,0.0012
3803.00,0.0012
3802.00,0.0012
3801.00,0.0011
3800.00,0.0011
3799.00,0.0011
3798.00,0.0011
3797.00,0.0011
3796.00,0.0011
3795.00,0.0011
3794.00,0.0011
3793.00,0.0011
3792.00,0.0011
3791.00,0.0011
3790.00,0.0011
3789.00,0.0011
3788.00,0.0011
3787.00,0.0011
3786.00,0.0011
3785.00,0.0011
3784.00,0.0011
3783.00,0.0011
3782.00,0.0011
3781.00,0.0011
3780.00,0.0011
3779.00,0.0011
3778.00,0.0011
3777.00,0.0011
3776.00,0.0011
3775.00,0.0011
3774.00,0.0011
3773.00,0.0011
3772.00,0.0011
3771.00,0.0011
3770.00,0.0011
3769.00,0.0011
3768.00,0.0011
3767.00,0.0011
3766.00,0.0011
3765.00,0.0011
3764.00,0.0011
3763.00,0.0011
3762.00,0.0011
3761.00,0.0011
3760.00,0.0011
3759.00,0.0012
3758.00,0.0012
3757.00,0.0012
3756.00,0.0012
3755.00,0.0012
3754.00,0.0012
3753.00,0.0013
3752.00,0.0013
3751.00,0.0013
3750.00,0.0013
3749.00,0.0013
3748.00,0.0012
3747.00,0.0012
3746.00,0.0011
3745.00,0.0011
3744.00,0.0011
3743.00,0.0012
3742.00,0.0012
3741.00,0.0012
3740.00,0.0012
3739.00,0.0012
3738.00,0.0013
3737.00,0.0012
3736.00,0.0012
3735.00,0.0012
3734.00,0.0012
3733.00,0.0012
3732.00,0.0012
3731.00,0.0012
3730.00,0.0011
3729.00,0.0011
3728.00,0.0011
3727.00,0.0011
3726.00,0.0011
3725.00,0.0012
3724.00,0.0011
3723.00,0.0011
3722.00,0.0011
3721.00,0.0011
3720.00,0.0011
3719.00,0.0011
3718.00,0.0011
3717.00,0.0011
3716.00,0.0011
3715.00,0.0011
3714.00,0.0011
3713.00,0.0011
3712.00,0.0011
3711.00,0.0011
3710.00,0.0010
3709.00,0.0010
3708.00,0.0010
3707.00,0.0010
3706.00,0.0010
3705.00,0.0010
3704.00,0.0010
3703.00,0.0010
3702.00,0.0010
3701.00,0.0010
3700.00,0.0010
3699.00,0.0010
3698.00,0.0010
3697.00,0.0010
3696.00,0.0010
3695.00,0.0011
3694.00,0.0011
3693.00,0.0010
3692.00,0.0010
3691.00,0.0010
3690.00,0.0010
3689.00,0.0010
3688.00,0.0010
3687.00,0.0010
3686.00,0.0010
3685.00,0.0010
3684.00,0.0010
3683.00,0.0010
3682.00,0.0010
3681.00,0.0010
3680.00,0.0010
3679.00,0.0011
3678.00,0.0011
3677.00,0.0011
3676.00,0.0011
3675.00,0.0011
3674.00,0.0011
3673.00,0.0011
3672.00,0.0010
3671.00,0.0010
3670.00,0.0010
3669.00,0.0010
3668.00,0.0010
3667.00,0.0010
3666.00,0.0010
3665.00,0.0010
3664.00,0.0010
3663.00,0.0010
3662.00,0.0010
3661.00,0.0010
3660.00,0.0011
3659.00,0.0011
3658.00,0.0011
3657.00,0.0011
3656.00,0.0011
3655.00,0.0011
3654.00,0.0011
3653.00,0.0011
3652.00,0.0011
3651.00,0.0012
3650.00,0.0012
3649.00,0.0012
3648.00,0.0012
3647.00,0.0012
3646.00,0.0011
3645.00,0.0011
3644.00,0.0011
3643.00,0.0011
3642.00,0.0011
3641.00,0.0011
3640.00,0.0011
3639.00,0.0011
3638.00,0.0011
3637.00,0.0011
3636.00,0.0011
3635.00,0.0012
3634.00,0.0012
3633.00,0.0012
3632.00,0.0012
3631.00,0.0012
3630.00,0.0012
3629.00,0.0012
3628.00,0.0012
3627.00,0.0012
3626.00,0.0012
3625.00,0.0012
3624.00,0.0012
3623.00,0.0012
3622.00,0.0013
3621.00,0.0013
3620.00,0.0013
3619.00,0.0013
3618.00,0.0013
3617.00,0.0013
3616.00,0.0013
3615.00,0.0014
3614.00,0.0014
3613.00,0.0014
3612.00,0.0014
3611.00,0.0014
3610.00,0.0014
3609.00,0.0014
3608.00,0.0014
3607.00,0.0014
3606.00,0.0014
3605.00,0.0014
3604.00,0.0014
3603.00,0.0014
3602.00,0.0014
3601.00,0.0015
3600.00,0.0015
3599.00,0.0015
3598.00,0.0015
3597.00,0.0015
3596.00,0.0015
3595.00,0.0015
3594.00,0.0015
3593.00,0.0015
3592.00,0.0015
3591.00,0.0015
3590.00,0.0015
3589.00,0.0015
3588.00,0.0015
3587.00,0.0015
3586.00,0.0015
3585.00,0.0016
3584.00,0.0016
3583.00,0.0016
3582.00,0.0016
3581.00,0.0016
3580.00,0.0016
3579.00,0.0016
3578.00,0.0016
3577.00,0.0016
3576.00,0.0016
3575.00,0.0016
3574.00,0.0016
3573.00,0.0016
3572.00,0.0017
3571.00,0.0017
3570.00,0.0017
3569.00,0.0017
3568.00,0.0017
3567.00,0.0018
3566.00,0.0018
3565.00,0.0018
3564.00,0.0018
3563.00,0.0018
3562.00,0.0018
3561.00,0.0018
3560.00,0.0018
3559.00,0.0018
3558.00,0.0018
3557.00,0.0018
3556.00,0.0018
3555.00,0.0018
3554.00,0.0018
3553.00,0.0019
3552.00,0.0019
3551.00,0.0019
3550.00,0.0019
3549.00,0.0020
3548.00,0.0020
3547.00,0.0020
3546.00,0.0020
3545.00,0.0020
3544.00,0.0020
3543.00,0.0020
3542.00,0.0020
3541.00,0.0020
3540.00,0.0020
3539.00,0.0020
3538.00,0.0020
3537.00,0.0020
3536.00,0.0020
3535.00,0.0021
3534.00,0.0021
3533.00,0.0021
3532.00,0.0021
3531.00,0.0021
3530.00,0.0021
3529.00,0.0022
3528.00,0.0022
3527.00,0.0022
3526.00,0.0022
3525.00,0.0022
3524.00,0.0022
3523.00,0.0022
3522.00,0.0022
3521.00,0.0022
3520.00,0.0022
3519.00,0.0022
3518.00,0.0023
3517.00,0.0023
3516.00,0.0023
3515.00,0.0023
3514.00,0.0023
3513.00,0.0023
3512.00,0.0023
3511.00,0.0023
3510.00,0.0023
3509.00,0.0023
3508.00,0.0024
3507.00,0.0024
3506.00,0.0024
3505.00,0.0024
3504.00,0.0025
3503.00,0.0025
3502.00,0.0025
3501.00,0.0025
3500.00,0.0025
3499.00,0.0025
3498.00,0.0025
3497.00,0.0025
3496.00,0.0025
3495.00,0.0025
3494.00,0.0025
3493.00,0.0025
3492.00,0.0025
3491.00,0.0025
3490.00,0.0026
3489.00,0.0026
3488.00,0.0026
3487.00,0.0026
3486.00,0.0026
3485.00,0.0026
3484.00,0.0026
3483.00,0.0027
3482.00,0.0027
3481.00,0.0027
3480.00,0.0027
3479.00,0.0027
3478.00,0.0027
3477.00,0.0027
3476.00,0.0027
3475.00,0.0028
3474.00,0.0028
3473.00,0.0028
3472.00,0.0028
3471.00,0.0028
3470.00,0.0028
3469.00,0.0029
3468.00,0.0029
3467.00,0.0029
3466.00,0.0029
3465.00,0.0029
3464.00,0.0029
3463.00,0.0029
3462.00,0.0029
3461.00,0.0029
3460.00,0.0029
3459.00,0.0030
3458.00,0.0030
3457.00,0.0030
3456.00,0.0030
3455.00,0.0030
3454.00,0.0030
3453.00,0.0031
3452.00,0.0031
3451.00,0.0031
3450.00,0.0031
3449.00,0.0031
3448.00,0.0031
3447.00,0.0031
3446.00,0.0031
3445.00,0.0031
3444.00,0.0031
3443.00,0.0032
3442.00,0.0032
3441.00,0.0032
3440.00,0.0032
3439.00,0.0032
3438.00,0.0032
3437.00,0.0032
3436.00,0.0033
3435.00,0.0033
3434.00,0.0033
3433.00,0.0033
3432.00,0.0033
3431.00,0.0033
3430.00,0.0033
3429.00,0.0033
3428.00,0.0033
3427.00,0.0033
3426.00,0.0034
3425.00,0.0034
3424.00,0.0034
3423.00,0.0034
3422.00,0.0034
3421.00,0.0034
3420.00,0.0035
3419.00,0.0035
3418.00,0.0035
3417.00,0.0035
3416.00,0.0035
3415.00,0.0035
3414.00,0.0035
3413.00,0.0035
3412.00,0.0035
3411.00,0.0035
3410.00,0.0035
3409.00,0.0035
3408.00,0.0036
3407.00,0.0036
3406.00,0.0036
3405.00,0.0036
3404.00,0.0036
3403.00,0.0036
3402.00,0.0036
3401.00,0.0036
3400.00,0.0036
3399.00,0.0036
3398.00,0.0037
3397.00,0.0037
3396.00,0.0037
3395.00,0.0037
3394.00,0.0037
3393.00,0.0037
3392.00,0.0037
3391.00,0.0037
3390.00,0.0037
3389.00,0.0037
3388.00,0.0037
3387.00,0.0038
3386.00,0.0038
3385.00,0.0038
3384.00,0.0038
3383.00,0.0038
3382.00,0.0038
3381.00,0.0038
3380.00,0.0038
3379.00,0.0039
3378.00,0.0039
3377.00,0.0039
3376.00,0.0039
3375.00,0.0039
3374.00,0.0039
3373.00,0.0039
3372.00,0.0039
3371.00,0.0040
3370.00,0.0040
3369.00,0.0040
3368.00,0.0040
3367.00,0.0040
3366.00,0.0040
3365.00,0.0041
3364.00,0.0041
3363.00,0.0041
3362.00,0.0041
3361.00,0.0041
3360.00,0.0041
3359.00,0.0042
3358.00,0.0042
3357.00,0.0042
3356.00,0.0042
3355.00,0.0042
3354.00,0.0042
3353.00,0.0043
3352.00,0.0043
3351.00,0.0043
3350.00,0.0043
3349.00,0.0043
3348.00,0.0043
3347.00,0.0044
3346.00,0.0044
3345.00,0.0044
3344.00,0.0044
3343.00,0.0044
3342.00,0.0044
3341.00,0.0045
3340.00,0.0045
3339.00,0.0045
3338.00,0.0045
3337.00,0.0046
3336.00,0.0046
3335.00,0.0046
3334.00,0.0046
3333.00,0.0047
3332.00,0.0047
3331.00,0.0047
3330.00,0.0047
3329.00,0.0048
3328.00,0.0048
3327.00,0.0048
3326.00,0.0048
3325.00,0.0049
3324.00,0.0049
3323.00,0.0049
3322.00,0.0049
3321.00,0.0050
3320.00,0.0050
3319.00,0.0051
3318.00,0.0051
3317.00,0.0051
3316.00,0.0052
3315.00,0.0052
3314.00,0.0052
3313.00,0.0053
3312.00,0.0053
3311.00,0.0053
3310.00,0.0054
3309.00,0.0054
3308.00,0.0054
3307.00,0.0055
3306.00,0.0055
3305.00,0.0056
3304.00,0.0056
3303.00,0.0057
3302.00,0.0057
3301.00,0.0058
3300.00,0.0058
3299.00,0.0059
3298.00,0.0059
3297.00,0.0059
3296.00,0.0060
3295.00,0.0060
3294.00,0.0060
3293.00,0.0061
3292.00,0.0061
3291.00,0.0061
3290.00,0.0062
3289.00,0.0062
3288.00,0.0063
3287.00,0.0063
3286.00,0.0064
3285.00,0.0064
3284.00,0.0064
3283.00,0.0065
3282.00,0.0065
3281.00,0.0065
3280.00,0.0066
3279.00,0.0066
3278.00,0.0066
3277.00,0.0066
3276.00,0.0066
3275.00,0.0066
3274.00,0.0066
3273.00,0.0066
3272.00,0.0066
3271.00,0.0066
3270.00,0.0066
3269.00,0.0066
3268.00,0.0066
3267.00,0.0066
3266.00,0.0066
3265.00,0.0066
3264.00,0.0066
3263.00,0.0066
3262.00,0.0065
3261.00,0.0065
3260.00,0.0065
3259.00,0.0065
3258.00,0.0064
3257.00,0.0064
3256.00,0.0064
3255.00,0.0064
3254.00,0.0064
3253.00,0.0063
3252.00,0.0063
3251.00,0.0063
3250.00,0.0062
3249.00,0.0062
3248.00,0.0062
3247.00,0.0062
3246.00,0.0061
3245.00,0.0061
3244.00,0.0061
3243.00,0.0061
3242.00,0.0060
3241.00,0.0060
3240.00,0.0060
3239.00,0.0059
3238.00,0.0059
3237.00,0.0059
3236.00,0.0058
3235.00,0.0058
3234.00,0.0058
3233.00,0.0058
3232.00,0.0058
3231.00,0.0058
3230.00,0.0058
3229.00,0.0057
3228.00,0.0057
3227.00,0.0057
3226.00,0.0057
3225.00,0.0057
3224.00,0.0057
3223.00,0.0056
3222.00,0.0056
3221.00,0.0056
3220.00,0.0056
3219.00,0.0056
3218.00,0.0056
3217.00,0.0055
3216.00,0.0055
3215.00,0.0055
3214.00,0.0055
3213.00,0.0055
3212.00,0.0055
3211.00,0.0055
3210.00,0.0055
3209.00,0.0054
3208.00,0.0054
3207.00,0.0054
3206.00,0.0054
3205.00,0.0054
3204.00,0.0053
3203.00,0.0053
3202.00,0.0053
3201.00,0.0053
3200.00,0.0053
3199.00,0.0053
3198.00,0.0053
3197.00,0.0053
3196.00,0.0052
3195.00,0.0052
3194.00,0.0052
3193.00,0.0052
3192.00,0.0052
3191.00,0.0052
3190.00,0.0051
3189.00,0.0051
3188.00,0.0051
3187.00,0.0051
3186.00,0.0051
3185.00,0.0051
3184.00,0.0051
3183.00,0.0050
3182.00,0.0050
3181.00,0.0050
3180.00,0.0050
3179.00,0.0050
3178.00,0.0050
3177.00,0.0050
3176.00,0.0050
3175.00,0.0050
3174.00,0.0049
3173.00,0.0049
3172.00,0.0049
3171.00,0.0049
3170.00,0.0049
3169.00,0.0048
3168.00,0.0048
3167.00,0.0048
3166.00,0.0048
3165.00,0.0048
3164.00,0.0047
3163.00,0.0047
3162.00,0.0047
3161.00,0.0047
3160.00,0.0047
3159.00,0.0047
3158.00,0.0046
3157.00,0.0046
3156.00,0.0046
3155.00,0.0046
3154.00,0.0046
3153.00,0.0046
3152.00,0.0045
3151.00,0.0045
3150.00,0.0045
3149.00,0.0045
3148.00,0.0045
3147.00,0.0045
3146.00,0.0045
3145.00,0.0045
3144.00,0.0045
3143.00,0.0045
3142.00,0.0044
3141.00,0.0044
3140.00,0.0044
3139.00,0.0044
3138.00,0.0044
3137.00,0.0043
3136.00,0.0043
3135.00,0.0043
3134.00,0.0043
3133.00,0.0043
3132.00,0.0043
3131.00,0.0043
3130.00,0.0043
3129.00,0.0043
3128.00,0.0043
3127.00,0.0042
3126.00,0.0042
3125.00,0.0042
3124.00,0.0042
3123.00,0.0042
3122.00,0.0042
3121.00,0.0042
3120.00,0.0042
3119.00,0.0042
3118.00,0.0042
3117.00,0.0042
3116.00,0.0042
3115.00,0.0042
3114.00,0.0042
3113.00,0.0042
3112.00,0.0042
3111.00,0.0041
3110.00,0.0041
3109.00,0.0041
3108.00,0.0041
3107.00,0.0041
3106.00,0.0042
3105.00,0.0042
3104.00,0.0042
3103.00,0.0042
3102.00,0.0042
3101.00,0.0042
3100.00,0.0042
3099.00,0.0042
3098.00,0.0042
3097.00,0.0042
3096.00,0.0042
3095.00,0.0042
3094.00,0.0042
3093.00,0.0042
3092.00,0.0042
3091.00,0.0042
3090.00,0.0042
3089.00,0.0042
3088.00,0.0042
3087.00,0.0042
3086.00,0.0042
3085.00,0.0042
3084.00,0.0042
3083.00,0.0042
3082.00,0.0042
3081.00,0.0042
3080.00,0.0042
3079.00,0.0042
3078.00,0.0042
3077.00,0.0042
3076.00,0.0042
3075.00,0.0042
3074.00,0.0042
3073.00,0.0042
3072.00,0.0042
3071.00,0.0042
3070.00,0.0042
3069.00,0.0042
3068.00,0.0042
3067.00,0.0042
3066.00,0.0042
3065.00,0.0042
3064.00,0.0042
3063.00,0.0042
3062.00,0.0042
3061.00,0.0042
3060.00,0.0042
3059.00,0.0042
3058.00,0.0042
3057.00,0.0042
3056.00,0.0042
3055.00,0.0042
3054.00,0.0042
3053.00,0.0041
3052.00,0.0041
3051.00,0.0041
3050.00,0.0041
3049.00,0.0041
3048.00,0.0041
3047.00,0.0041
3046.00,0.0041
3045.00,0.0040
3044.00,0.0040
3043.00,0.0040
3042.00,0.0040
3041.00,0.0040
3040.00,0.0040
3039.00,0.0040
3038.00,0.0040
3037.00,0.0040
3036.00,0.0039
3035.00,0.0039
3034.00,0.0039
3033.00,0.0039
3032.00,0.0039
3031.00,0.0039
3030.00,0.0039
3029.00,0.0039
3028.00,0.0039
3027.00,0.0039
3026.00,0.0039
3025.00,0.0038
3024.00,0.0038
3023.00,0.0038
3022.00,0.0038
3021.00,0.0038
3020.00,0.0037
3019.00,0.0037
3018.00,0.0037
3017.00,0.0037
3016.00,0.0037
3015.00,0.0036
3014.00,0.0036
3013.00,0.0036
3012.00,0.0036
3011.00,0.0036
3010.00,0.0036
3009.00,0.0036
3008.00,0.0036
3007.00,0.0036
3006.00,0.0036
3005.00,0.0036
3004.00,0.0036
3003.00,0.0036
3002.00,0.0036
3001.00,0.0036
3000.00,0.0036
2999.00,0.0036
2998.00,0.0036
2997.00,0.0036
2996.00,0.0036
2995.00,0.0036
2994.00,0.0036
2993.00,0.0036
2992.00,0.0036
2991.00,0.0036
2990.00,0.0036
2989.00,0.0036
2988.00,0.0036
2987.00,0.0036
2986.00,0.0036
2985.00,0.0037
2984.00,0.0037
2983.00,0.0037
2982.00,0.0037
2981.00,0.0037
2980.00,0.0037
2979.00,0.0037
2978.00,0.0037
2977.00,0.0037
2976.00,0.0037
2975.00,0.0037
2974.00,0.0038
2973.00,0.0038
2972.00,0.0038
2971.00,0.0037
2970.00,0.0037
2969.00,0.0037
2968.00,0.0037
2967.00,0.0037
2966.00,0.0036
2965.00,0.0036
2964.00,0.0036
2963.00,0.0035
2962.00,0.0035
2961.00,0.0034
2960.00,0.0034
2959.00,0.0033
2958.00,0.0033
2957.00,0.0033
2956.00,0.0033
2955.00,0.0033
2954.00,0.0033
2953.00,0.0033
2952.00,0.0034
2951.00,0.0034
2950.00,0.0034
2949.00,0.0034
2948.00,0.0035
2947.00,0.0035
2946.00,0.0035
2945.00,0.0035
2944.00,0.0035
2943.00,0.0035
2942.00,0.0035
2941.00,0.0035
2940.00,0.0034
2939.00,0.0034
2938.00,0.0034
2937.00,0.0033
2936.00,0.0032
2935.00,0.0032
2934.00,0.0031
2933.00,0.0030
2932.00,0.0028
2931.00,0.0027
2930.00,0.0025
2929.00,0.0024
2928.00,0.0022
2927.00,0.0019
2926.00,0.0017
2925.00,0.0014
2924.00,0.0010
2923.00,0.0006
2922.00,0.0002
2921.00,-0.0003
2920.00,-0.0008
2919.00,-0.0013
2918.00,-0.0017
2917.00,-0.0019
2916.00,-0.0019
2915.00,-0.0016
2914.00,-0.0011
2913.00,-0.0004
2912.00,0.0003
2911.00,0.0008
2910.00,0.0013
2909.00,0.0016
2908.00,0.0019
2907.00,0.0020
2906.00,0.0022
2905.00,0.0023
2904.00,0.0023
2903.00,0.0024
2902.00,0.0024
2901.00,0.0025
2900.00,0.0025
2899.00,0.0025
2898.00,0.0026
2897.00,0.0026
2896.00,0.0026
2895.00,0.0027
2894.00,0.0027
2893.00,0.0027
2892.00,0.0028
2891.00,0.0028
2890.00,0.0028
2889.00,0.0028
2888.00,0.0029
2887.00,0.0029
2886.00,0.0029
2885.00,0.0030
2884.00,0.0030
2883.00,0.0030
2882.00,0.0031
2881.00,0.0031
2880.00,0.0031
2879.00,0.0032
2878.00,0.0032
2877.00,0.0032
2876.00,0.0032
2875.00,0.0032
2874.00,0.0032
2873.00,0.0032
2872.00,0.0032
2871.00,0.0032
2870.00,0.0032
2869.00,0.0032
2868.00,0.0032
2867.00,0.0031
2866.00,0.0031
2865.00,0.0031
2864.00,0.0030
2863.00,0.0030
2862.00,0.0029
2861.00,0.0028
2860.00,0.0027
2859.00,0.0026
2858.00,0.0025
2857.00,0.0023
2856.00,0.0021
2855.00,0.0018
2854.00,0.0015
2853.00,0.0010
2852.00,0.0005
2851.00,-0.0000
2850.00,-0.0004
2849.00,-0.0005
2848.00,-0.0003
2847.00,0.0001
2846.00,0.0007
2845.00,0.0013
2844.00,0.0018
2843.00,0.0022
2842.00,0.0024
2841.00,0.0026
2840.00,0.0027
2839.00,0.0028
2838.00,0.0029
2837.00,0.0029
2836.00,0.0030
2835.00,0.0030
2834.00,0.0030
2833.00,0.0030
2832.00,0.0031
2831.00,0.0031
2830.00,0.0031
2829.00,0.0031
2828.00,0.0031
2827.00,0.0031
2826.00,0.0031
2825.00,0.0031
2824.00,0.0031
2823.00,0.0031
2822.00,0.0031
2821.00,0.0031
2820.00,0.0031
2819.00,0.0031
2818.00,0.0031
2817.00,0.0031
2816.00,0.0031
2815.00,0.0031
2814.00,0.0031
2813.00,0.0031
2812.00,0.0031
2811.00,0.0031
2810.00,0.0031
2809.00,0.0031
2808.00,0.0031
2807.00,0.0031
2806.00,0.0031
2805.00,0.0031
2804.00,0.0031
2803.00,0.0031
2802.00,0.0031
2801.00,0.0031
2800.00,0.0031
2799.00,0.0031
2798.00,0.0031
2797.00,0.0031
2796.00,0.0031
2795.00,0.0031
2794.00,0.0031
2793.00,0.0031
2792.00,0.0031
2791.00,0.0031
2790.00,0.0031
2789.00,0.0031
2788.00,0.0031
2787.00,0.0031
2786.00,0.0031
2785.00,0.0031
2784.00,0.0030
2783.00,0.0030
2782.00,0.0030
2781.00,0.0030
2780.00,0.0030
2779.00,0.0030
2778.00,0.0030
2777.00,0.0030
2776.00,0.0030
2775.00,0.0030
2774.00,0.0030
2773.00,0.0030
2772.00,0.0030
2771.00,0.0030
2770.00,0.0030
2769.00,0.0030
2768.00,0.0030
2767.00,0.0030
2766.00,0.0030
2765.00,0.0030
2764.00,0.0030
2763.00,0.0030
2762.00,0.0030
2761.00,0.0030
2760.00,0.0030
2759.00,0.0030
2758.00,0.0030
2757.00,0.0030
2756.00,0.0030
2755.00,0.0030
2754.00,0.0030
2753.00,0.0030
2752.00,0.0030
2751.00,0.0030
2750.00,0.0030
2749.00,0.0030
2748.00,0.0029
2747.00,0.0029
2746.00,0.0029
2745.00,0.0030
2744.00,0.0029
2743.00,0.0029
2742.00,0.0029
2741.00,0.0029
2740.00,0.0029
2739.00,0.0029
2738.00,0.0029
2737.00,0.0029
2736.00,0.0029
2735.00,0.0029
2734.00,0.0029
2733.00,0.0029
2732.00,0.0029
2731.00,0.0029
2730.00,0.0029
2729.00,0.0029
2728.00,0.0029
2727.00,0.0029
2726.00,0.0029
2725.00,0.0029
2724.00,0.0029
2723.00,0.0029
2722.00,0.0029
2721.00,0.0029
2720.00,0.0029
2719.00,0.0029
2718.00,0.0029
2717.00,0.0029
2716.00,0.0029
2715.00,0.0029
2714.00,0.0029
2713.00,0.0029
2712.00,0.0029
2711.00,0.0028
2710.00,0.0028
2709.00,0.0028
2708.00,0.0028
2707.00,0.0028
2706.00,0.0028
2705.00,0.0028
2704.00,0.0028
2703.00,0.0028
2702.00,0.0028
2701.00,0.0028
2700.00,0.0028
2699.00,0.0028
2698.00,0.0028
2697.00,0.0028
2696.00,0.0028
2695.00,0.0028
2694.00,0.0028
2693.00,0.0028
2692.00,0.0028
2691.00,0.0028
2690.00,0.0028
2689.00,0.0028
2688.00,0.0028
2687.00,0.0028
2686.00,0.0028
2685.00,0.0028
2684.00,0.0028
2683.00,0.0028
2682.00,0.0028
2681.00,0.0028
2680.00,0.0028
2679.00,0.0028
2678.00,0.0028
2677.00,0.0028
2676.00,0.0028
2675.00,0.0028
2674.00,0.0028
2673.00,0.0028
2672.00,0.0028
2671.00,0.0028
2670.00,0.0028
2669.00,0.0028
2668.00,0.0028
2667.00,0.0028
2666.00,0.0028
2665.00,0.0028
2664.00,0.0029
2663.00,0.0029
2662.00,0.0029
2661.00,0.0029
2660.00,0.0030
2659.00,0.0030
2658.00,0.0030
2657.00,0.0030
2656.00,0.0030
2655.00,0.0030
2654.00,0.0030
2653.00,0.0030
2652.00,0.0030
2651.00,0.0030
2650.00,0.0030
2649.00,0.0030
2648.00,0.0030
2647.00,0.0030
2646.00,0.0030
2645.00,0.0030
2644.00,0.0030
2643.00,0.0030
2642.00,0.0030
2641.00,0.0030
2640.00,0.0030
2639.00,0.0030
2638.00,0.0030
2637.00,0.0030
2636.00,0.0030
2635.00,0.0030
2634.00,0.0030
2633.00,0.0030
2632.00,0.0030
2631.00,0.0030
2630.00,0.0030
2629.00,0.0030
2628.00,0.0029
2627.00,0.0029
2626.00,0.0029
2625.00,0.0029
2624.00,0.0029
2623.00,0.0029
2622.00,0.0030
2621.00,0.0030
2620.00,0.0030
2619.00,0.0029
2618.00,0.0029
2617.00,0.0029
2616.00,0.0029
2615.00,0.0029
2614.00,0.0029
2613.00,0.0029
2612.00,0.0029
2611.00,0.0029
2610.00,0.0029
2609.00,0.0029
2608.00,0.0029
2607.00,0.0029
2606.00,0.0029
2605.00,0.0029
2604.00,0.0029
2603.00,0.0029
2602.00,0.0029
2601.00,0.0029
2600.00,0.0029
2599.00,0.0029
2598.00,0.0029
2597.00,0.0029
2596.00,0.0028
2595.00,0.0028
2594.00,0.0028
2593.00,0.0028
2592.00,0.0028
2591.00,0.0028
2590.00,0.0028
2589.00,0.0028
2588.00,0.0028
2587.00,0.0028
2586.00,0.0028
2585.00,0.0027
2584.00,0.0028
2583.00,0.0028
2582.00,0.0028
2581.00,0.0028
2580.00,0.0028
2579.00,0.0027
2578.00,0.0027
2577.00,0.0027
2576.00,0.0027
2575.00,0.0027
2574.00,0.0027
2573.00,0.0027
2572.00,0.0027
2571.00,0.0027
2570.00,0.0027
2569.00,0.0027
2568.00,0.0027
2567.00,0.0027
2566.00,0.0027
2565.00,0.0027
2564.00,0.0027
2563.00,0.0027
2562.00,0.0027
2561.00,0.0027
2560.00,0.0027
2559.00,0.0027
2558.00,0.0027
2557.00,0.0027
2556.00,0.0027
2555.00,0.0027
2554.00,0.0027
2553.00,0.0026
2552.00,0.0026
2551.00,0.0026
2550.00,0.0026
2549.00,0.0026
2548.00,0.0026
2547.00,0.0026
2546.00,0.0026
2545.00,0.0026
2544.00,0.0026
2543.00,0.0026
2542.00,0.0026
2541.00,0.0026
2540.00,0.0026
2539.00,0.0026
2538.00,0.0026
2537.00,0.0026
2536.00,0.0026
2535.00,0.0026
2534.00,0.0026
2533.00,0.0026
2532.00,0.0026
2531.00,0.0026
2530.00,0.0026
2529.00,0.0026
2528.00,0.0026
2527.00,0.0026
2526.00,0.0026
2525.00,0.0026
2524.00,0.0026
2523.00,0.0026
2522.00,0.0026
2521.00,0.0026
2520.00,0.0026
2519.00,0.0026
2518.00,0.0026
2517.00,0.0026
2516.00,0.0026
2515.00,0.0025
2514.00,0.0025
2513.00,0.0025
2512.00,0.0025
2511.00,0.0025
2510.00,0.0026
2509.00,0.0025
2508.00,0.0025
2507.00,0.0025
2506.00,0.0025
2505.00,0.0025
2504.00,0.0025
2503.00,0.0025
2502.00,0.0025
2501.00,0.0025
2500.00,0.0025
2499.00,0.0025
2498.00,0.0026
2497.00,0.0026
2496.00,0.0026
2495.00,0.0026
2494.00,0.0026
2493.00,0.0026
2492.00,0.0026
2491.00,0.0026
2490.00,0.0026
2489.00,0.0026
2488.00,0.0026
2487.00,0.0026
2486.00,0.0026
2485.00,0.0025
2484.00,0.0025
2483.00,0.0025
2482.00,0.0025
2481.00,0.0025
2480.00,0.0025
2479.00,0.0025
2478.00,0.0025
2477.00,0.0025
2476.00,0.0025
2475.00,0.0025
2474.00,0.0025
2473.00,0.0025
2472.00,0.0025
2471.00,0.0025
2470.00,0.0025
2469.00,0.0025
2468.00,0.0026
2467.00,0.0026
2466.00,0.0026
2465.00,0.0026
2464.00,0.0026
2463.00,0.0026
2462.00,0.0026
2461.00,0.0026
2460.00,0.0026
2459.00,0.0026
2458.00,0.0026
2457.00,0.0026
2456.00,0.0026
2455.00,0.0026
2454.00,0.0026
2453.00,0.0026
2452.00,0.0026
2451.00,0.0026
2450.00,0.0026
2449.00,0.0025
2448.00,0.0025
2447.00,0.0025
2446.00,0.0025
2445.00,0.0025
2444.00,0.0025
2443.00,0.0025
2442.00,0.0025
2441.00,0.0025
2440.00,0.0025
2439.00,0.0025
2438.00,0.0025
2437.00,0.0025
2436.00,0.0025
2435.00,0.0024
2434.00,0.0024
2433.00,0.0024
2432.00,0.0024
2431.00,0.0024
2430.00,0.0024
2429.00,0.0024
2428.00,0.0024
2427.00,0.0024
2426.00,0.0024
2425.00,0.0024
2424.00,0.0024
2423.00,0.0024
2422.00,0.0024
2421.00,0.0024
2420.00,0.0024
2419.00,0.0024
2418.00,0.0024
2417.00,0.0024
2416.00,0.0024
2415.00,0.0024
2414.00,0.0024
2413.00,0.0024
2412.00,0.0024
2411.00,0.0024
2410.00,0.0024
2409.00,0.0024
2408.00,0.0023
2407.00,0.0023
2406.00,0.0022
2405.00,0.0022
2404.00,0.0022
2403.00,0.0023
2402.00,0.0023
2401.00,0.0023
2400.00,0.0023
2399.00,0.0023
2398.00,0.0023
2397.00,0.0023
2396.00,0.0023
2395.00,0.0023
2394.00,0.0023
2393.00,0.0022
2392.00,0.0022
2391.00,0.0022
2390.00,0.0022
2389.00,0.0022
2388.00,0.0022
2387.00,0.0022
2386.00,0.0022
2385.00,0.0021
2384.00,0.0021
2383.00,0.0021
2382.00,0.0021
2381.00,0.0021
2380.00,0.0021
2379.00,0.0021
2378.00,0.0020
2377.00,0.0020
2376.00,0.0020
2375.00,0.0020
2374.00,0.0020
2373.00,0.0020
2372.00,0.0020
2371.00,0.0020
2370.00,0.0020
2369.00,0.0020
2368.00,0.0020
2367.00,0.0020
2366.00,0.0020
2365.00,0.0020
2364.00,0.0020
2363.00,0.0020
2362.00,0.0020
2361.00,0.0020
2360.00,0.0020
2359.00,0.0020
2358.00,0.0020
2357.00,0.0020
2356.00,0.0020
2355.00,0.0020
2354.00,0.0020
2353.00,0.0020
2352.00,0.0020
2351.00,0.0020
2350.00,0.0020
2349.00,0.0021
2348.00,0.0021
2347.00,0.0021
2346.00,0.0021
2345.00,0.0021
2344.00,0.0021
2343.00,0.0021
2342.00,0.0022
2341.00,0.0022
2340.00,0.0022
2339.00,0.0022
2338.00,0.0022
2337.00,0.0022
2336.00,0.0023
2335.00,0.0022
2334.00,0.0022
2333.00,0.0022
2332.00,0.0022
2331.00,0.0022
2330.00,0.0022
2329.00,0.0023
2328.00,0.0025
2327.00,0.0027
2326.00,0.0029
2325.00,0.0030
2324.00,0.0029
2323.00,0.0029
2322.00,0.0028
2321.00,0.0027
2320.00,0.0026
2319.00,0.0025
2318.00,0.0025
2317.00,0.0025
2316.00,0.0025
2315.00,0.0025
2314.00,0.0025
2313.00,0.0024
2312.00,0.0024
2311.00,0.0024
2310.00,0.0024
2309.00,0.0024
2308.00,0.0025
2307.00,0.0025
2306.00,0.0025
2305.00,0.0025
2304.00,0.0025
2303.00,0.0025
2302.00,0.0025
2301.00,0.0025
2300.00,0.0025
2299.00,0.0026
2298.00,0.0026
2297.00,0.0026
2296.00,0.0027
2295.00,0.0027
2294.00,0.0028
2293.00,0.0028
2292.00,0.0029
2291.00,0.0029
2290.00,0.0029
2289.00,0.0030
2288.00,0.0030
2287.00,0.0030
2286.00,0.0030
2285.00,0.0029
2284.00,0.0029
2283.00,0.0029
2282.00,0.0028
2281.00,0.0028
2280.00,0.0028
2279.00,0.0028
2278.00,0.0027
2277.00,0.0027
2276.00,0.0027
2275.00,0.0027
2274.00,0.0027
2273.00,0.0028
2272.00,0.0027
2271.00,0.0027
2270.00,0.0027
2269.00,0.0027
2268.00,0.0027
2267.00,0.0027
2266.00,0.0026
2265.00,0.0026
2264.00,0.0026
2263.00,0.0026
2262.00,0.0026
2261.00,0.0026
2260.00,0.0026
2259.00,0.0026
2258.00,0.0026
2257.00,0.0026
2256.00,0.0025
2255.00,0.0025
2254.00,0.0025
2253.00,0.0025
2252.00,0.0025
2251.00,0.0025
2250.00,0.0025
2249.00,0.0025
2248.00,0.0025
2247.00,0.0025
2246.00,0.0025
2245.00,0.0025
2244.00,0.0025
2243.00,0.0025
2242.00,0.0025
2241.00,0.0025
2240.00,0.0025
2239.00,0.0025
2238.00,0.0025
2237.00,0.0025
2236.00,0.0025
2235.00,0.0026
2234.00,0.0026
2233.00,0.0026
2232.00,0.0026
2231.00,0.0026
2230.00,0.0025
2229.00,0.0025
2228.00,0.0025
2227.00,0.0025
2226.00,0.0024
2225.00,0.0024
2224.00,0.0024
2223.00,0.0025
2222.00,0.0025
2221.00,0.0025
2220.00,0.0025
2219.00,0.0025
2218.00,0.0025
2217.00,0.0025
2216.00,0.0025
2215.00,0.0025
2214.00,0.0026
2213.00,0.0026
2212.00,0.0026
2211.00,0.0025
2210.00,0.0025
2209.00,0.0025
2208.00,0.0024
2207.00,0.0025
2206.00,0.0025
2205.00,0.0025
2204.00,0.0025
2203.00,0.0025
2202.00,0.0025
2201.00,0.0025
2200.00,0.0025
2199.00,0.0025
2198.00,0.0025
2197.00,0.0025
2196.00,0.0026
2195.00,0.0026
2194.00,0.0026
2193.00,0.0026
2192.00,0.0026
2191.00,0.0025
2190.00,0.0025
2189.00,0.0026
2188.00,0.0027
2187.00,0.0028
2186.00,0.0028
2185.00,0.0026
2184.00,0.0024
2183.00,0.0022
2182.00,0.0021
2181.00,0.0021
2180.00,0.0022
2179.00,0.0023
2178.00,0.0023
2177.00,0.0023
2176.00,0.0023
2175.00,0.0022
2174.00,0.0023
2173.00,0.0023
2172.00,0.0025
2171.00,0.0026
2170.00,0.0027
2169.00,0.0028
2168.00,0.0029
2167.00,0.0030
2166.00,0.0030
2165.00,0.0031
2164.00,0.0032
2163.00,0.0032
2162.00,0.0030
2161.00,0.0024
2160.00,0.0016
2159.00,0.0009
2158.00,0.0005
2157.00,0.0004
2156.00,0.0006
2155.00,0.0009
2154.00,0.0011
2153.00,0.0013
2152.00,0.0014
2151.00,0.0014
2150.00,0.0014
2149.00,0.0014
2148.00,0.0014
2147.00,0.0015
2146.00,0.0015
2145.00,0.0015
2144.00,0.0015
2143.00,0.0015
2142.00,0.0014
2141.00,0.0014
2140.00,0.0014
2139.00,0.0014
2138.00,0.0014
2137.00,0.0014
2136.00,0.0013
2135.00,0.0012
2134.00,0.0011
2133.00,0.0011
2132.00,0.0011
2131.00,0.0012
2130.00,0.0013
2129.00,0.0014
2128.00,0.0015
2127.00,0.0016
2126.00,0.0017
2125.00,0.0017
2124.00,0.0018
2123.00,0.0019
2122.00,0.0019
2121.00,0.0020
2120.00,0.0020
2119.00,0.0021
2118.00,0.0021
2117.00,0.0022
2116.00,0.0022
2115.00,0.0022
2114.00,0.0022
2113.00,0.0021
2112.00,0.0022
2111.00,0.0022
2110.00,0.0022
2109.00,0.0022
2108.00,0.0023
2107.00,0.0023
2106.00,0.0023
2105.00,0.0023
2104.00,0.0023
2103.00,0.0023
2102.00,0.0023
2101.00,0.0023
2100.00,0.0023
2099.00,0.0022
2098.00,0.0021
2097.00,0.0020
2096.00,0.0019
2095.00,0.0019
2094.00,0.0019
2093.00,0.0019
2092.00,0.0020
2091.00,0.0020
2090.00,0.0020
2089.00,0.0021
2088.00,0.0021
2087.00,0.0022
2086.00,0.0022
2085.00,0.0023
2084.00,0.0023
2083.00,0.0023
2082.00,0.0023
2081.00,0.0023
2080.00,0.0023
2079.00,0.0023
2078.00,0.0023
2077.00,0.0023
2076.00,0.0022
2075.00,0.0022
2074.00,0.0022
2073.00,0.0022
2072.00,0.0022
2071.00,0.0022
2070.00,0.0022
2069.00,0.0022
2068.00,0.0021
2067.00,0.0021
2066.00,0.0021
2065.00,0.0021
2064.00,0.0021
2063.00,0.0022
2062.00,0.0022
2061.00,0.0021
2060.00,0.0021
2059.00,0.0021
2058.00,0.0022
2057.00,0.0022
2056.00,0.0022
2055.00,0.0022
2054.00,0.0023
2053.00,0.0025
2052.00,0.0027
2051.00,0.0028
2050.00,0.0027
2049.00,0.0025
2048.00,0.0023
2047.00,0.0022
2046.00,0.0022
2045.00,0.0021
2044.00,0.0022
2043.00,0.0022
2042.00,0.0023
2041.00,0.0023
2040.00,0.0023
2039.00,0.0023
2038.00,0.0022
2037.00,0.0022
2036.00,0.0021
2035.00,0.0021
2034.00,0.0020
2033.00,0.0019
2032.00,0.0018
2031.00,0.0017
2030.00,0.0017
2029.00,0.0017
2028.00,0.0017
2027.00,0.0016
2026.00,0.0016
2025.00,0.0015
2024.00,0.0015
2023.00,0.0016
2022.00,0.0017
2021.00,0.0018
2020.00,0.0017
2019.00,0.0017
2018.00,0.0017
2017.00,0.0017
2016.00,0.0018
2015.00,0.0018
2014.00,0.0019
2013.00,0.0020
2012.00,0.0020
2011.00,0.0020
2010.00,0.0019
2009.00,0.0017
2008.00,0.0015
2007.00,0.0014
2006.00,0.0014
2005.00,0.0015
2004.00,0.0015
2003.00,0.0015
2002.00,0.0016
2001.00,0.0017
2000.00,0.0017
1999.00,0.0017
1998.00,0.0018
1997.00,0.0018
1996.00,0.0019
1995.00,0.0019
1994.00,0.0019
1993.00,0.0019
1992.00,0.0019
1991.00,0.0018
1990.00,0.0018
1989.00,0.0019
1988.00,0.0020
1987.00,0.0021
1986.00,0.0023
1985.00,0.0024
1984.00,0.0024
1983.00,0.0025
1982.00,0.0025
1981.00,0.0025
1980.00,0.0024
1979.00,0.0022
1978.00,0.0019
1977.00,0.0016
1976.00,0.0014
1975.00,0.0013
1974.00,0.0013
1973.00,0.0013
1972.00,0.0013
1971.00,0.0014
1970.00,0.0015
1969.00,0.0015
1968.00,0.0016
1967.00,0.0015
1966.00,0.0015
1965.00,0.0014
1964.00,0.0014
1963.00,0.0013
1962.00,0.0013
1961.00,0.0013
1960.00,0.0012
1959.00,0.0012
1958.00,0.0012
1957.00,0.0012
1956.00,0.0012
1955.00,0.0012
1954.00,0.0013
1953.00,0.0013
1952.00,0.0013
1951.00,0.0013
1950.00,0.0014
1949.00,0.0014
1948.00,0.0014
1947.00,0.0014
1946.00,0.0014
1945.00,0.0013
1944.00,0.0014
1943.00,0.0014
1942.00,0.0014
1941.00,0.0014
1940.00,0.0014
1939.00,0.0014
1938.00,0.0014
1937.00,0.0014
1936.00,0.0014
1935.00,0.0014
1934.00,0.0013
1933.00,0.0014
1932.00,0.0014
1931.00,0.0014
1930.00,0.0014
1929.00,0.0014
1928.00,0.0014
1927.00,0.0014
1926.00,0.0014
1925.00,0.0014
1924.00,0.0015
1923.00,0.0015
1922.00,0.0015
1921.00,0.0015
1920.00,0.0015
1919.00,0.0015
1918.00,0.0015
1917.00,0.0015
1916.00,0.0015
1915.00,0.0015
1914.00,0.0015
1913.00,0.0015
1912.00,0.0015
1911.00,0.0014
1910.00,0.0014
1909.00,0.0014
1908.00,0.0015
1907.00,0.0015
1906.00,0.0015
1905.00,0.0015
1904.00,0.0015
1903.00,0.0015
1902.00,0.0015
1901.00,0.0015
1900.00,0.0015
1899.00,0.0014
1898.00,0.0014
1897.00,0.0014
1896.00,0.0014
1895.00,0.0014
1894.00,0.0014
1893.00,0.0014
1892.00,0.0014
1891.00,0.0014
1890.00,0.0014
1889.00,0.0014
1888.00,0.0014
1887.00,0.0015
1886.00,0.0015
1885.00,0.0015
1884.00,0.0015
1883.00,0.0015
1882.00,0.0014
1881.00,0.0014
1880.00,0.0014
1879.00,0.0014
1878.00,0.0014
1877.00,0.0014
1876.00,0.0015
1875.00,0.0015
1874.00,0.0015
1873.00,0.0015
1872.00,0.0015
1871.00,0.0015
1870.00,0.0015
1869.00,0.0015
1868.00,0.0015
1867.00,0.0015
1866.00,0.0014
1865.00,0.0014
1864.00,0.0014
1863.00,0.0014
1862.00,0.0014
1861.00,0.0014
1860.00,0.0014
1859.00,0.0014
1858.00,0.0014
1857.00,0.0014
1856.00,0.0013
1855.00,0.0013
1854.00,0.0013
1853.00,0.0013
1852.00,0.0013
1851.00,0.0013
1850.00,0.0013
1849.00,0.0014
1848.00,0.0014
1847.00,0.0014
1846.00,0.0014
1845.00,0.0014
1844.00,0.0014
1843.00,0.0013
1842.00,0.0013
1841.00,0.0013
1840.00,0.0013
1839.00,0.0013
1838.00,0.0013
1837.00,0.0013
1836.00,0.0013
1835.00,0.0013
1834.00,0.0013
1833.00,0.0013
1832.00,0.0013
1831.00,0.0013
1830.00,0.0013
1829.00,0.0013
1828.00,0.0013
1827.00,0.0013
1826.00,0.0013
1825.00,0.0013
1824.00,0.0013
1823.00,0.0013
1822.00,0.0013
1821.00,0.0013
1820.00,0.0013
1819.00,0.0012
1818.00,0.0011
1817.00,0.0011
1816.00,0.0011
1815.00,0.0011
1814.00,0.0012
1813.00,0.0012
1812.00,0.0012
1811.00,0.0012
1810.00,0.0012
1809.00,0.0012
1808.00,0.0012
1807.00,0.0012
1806.00,0.0013
1805.00,0.0012
1804.00,0.0012
1803.00,0.0012
1802.00,0.0012
1801.00,0.0012
1800.00,0.0012
1799.00,0.0012
1798.00,0.0013
1797.00,0.0013
1796.00,0.0013
1795.00,0.0013
1794.00,0.0013
1793.00,0.0013
1792.00,0.0012
1791.00,0.0012
1790.00,0.0012
1789.00,0.0012
1788.00,0.0012
1787.00,0.0012
1786.00,0.0012
1785.00,0.0012
1784.00,0.0012
1783.00,0.0012
1782.00,0.0012
1781.00,0.0012
1780.00,0.0012
1779.00,0.0012
1778.00,0.0012
1777.00,0.0011
1776.00,0.0012
1775.00,0.0012
1774.00,0.0012
1773.00,0.0012
1772.00,0.0012
1771.00,0.0012
1770.00,0.0011
1769.00,0.0011
1768.00,0.0011
1767.00,0.0011
1766.00,0.0011
1765.00,0.0011
1764.00,0.0011
1763.00,0.0011
1762.00,0.0011
1761.00,0.0011
1760.00,0.0011
1759.00,0.0011
1758.00,0.0011
1757.00,0.0011
1756.00,0.0011
1755.00,0.0011
1754.00,0.0011
1753.00,0.0012
1752.00,0.0012
1751.00,0.0012
1750.00,0.0012
1749.00,0.0012
1748.00,0.0012
1747.00,0.0012
1746.00,0.0012
1745.00,0.0012
1744.00,0.0012
1743.00,0.0012
1742.00,0.0012
1741.00,0.0012
1740.00,0.0012
1739.00,0.0012
1738.00,0.0012
1737.00,0.0012
1736.00,0.0012
1735.00,0.0013
1734.00,0.0013
1733.00,0.0013
1732.00,0.0013
1731.00,0.0013
1730.00,0.0013
1729.00,0.0013
1728.00,0.0013
1727.00,0.0013
1726.00,0.0013
1725.00,0.0013
1724.00,0.0013
1723.00,0.0013
1722.00,0.0013
1721.00,0.0013
1720.00,0.0013
1719.00,0.0013
1718.00,0.0013
1717.00,0.0014
1716.00,0.0014
1715.00,0.0014
1714.00,0.0014
1713.00,0.0015
1712.00,0.0015
1711.00,0.0015
1710.00,0.0016
1709.00,0.0017
1708.00,0.0017
1707.00,0.0018
1706.00,0.0019
1705.00,0.0021
1704.00,0.0023
1703.00,0.0025
1702.00,0.0027
1701.00,0.0031
1700.00,0.0036
1699.00,0.0040
1698.00,0.0042
1697.00,0.0043
1696.00,0.0045
1695.00,0.0046
1694.00,0.0047
1693.00,0.0048
1692.00,0.0049
1691.00,0.0050
1690.00,0.0052
1689.00,0.0053
1688.00,0.0055
1687.00,0.0056
1686.00,0.0058
1685.00,0.0061
1684.00,0.0064
1683.00,0.0066
1682.00,0.0068
1681.00,0.0070
1680.00,0.0072
1679.00,0.0075
1678.00,0.0076
1677.00,0.0078
1676.00,0.0081
1675.00,0.0084
1674.00,0.0087
1673.00,0.0089
1672.00,0.0091
1671.00,0.0094
1670.00,0.0096
1669.00,0.0099
1668.00,0.0102
1667.00,0.0105
1666.00,0.0107
1665.00,0.0109
1664.00,0.0112
1663.00,0.0115
1662.00,0.0118
1661.00,0.0120
1660.00,0.0123
1659.00,0.0125
1658.00,0.0127
1657.00,0.0129
1656.00,0.0130
1655.00,0.0131
1654.00,0.0133
1653.00,0.0135
1652.00,0.0137
1651.00,0.0138
1650.00,0.0138
1649.00,0.0139
1648.00,0.0140
1647.00,0.0140
1646.00,0.0141
1645.00,0.0141
1644.00,0.0141
1643.00,0.0141
1642.00,0.0141
1641.00,0.0141
1640.00,0.0142
1639.00,0.0142
1638.00,0.0142
1637.00,0.0142
1636.00,0.0143
1635.00,0.0143
1634.00,0.0143
1633.00,0.0143
1632.00,0.0144
1631.00,0.0145
1630.00,0.0146
1629.00,0.0147
1628.00,0.0148
1627.00,0.0150
1626.00,0.0151
1625.00,0.0152
1624.00,0.0154
1623.00,0.0156
1622.00,0.0158
1621.00,0.0159
1620.00,0.0160
1619.00,0.0160
1618.00,0.0161
1617.00,0.0160
1616.00,0.0159
1615.00,0.0158
1614.00,0.0156
1613.00,0.0154
1612.00,0.0152
1611.00,0.0149
1610.00,0.0145
1609.00,0.0142
1608.00,0.0138
1607.00,0.0134
1606.00,0.0131
1605.00,0.0127
1604.00,0.0123
1603.00,0.0120
1602.00,0.0116
1601.00,0.0113
1600.00,0.0110
1599.00,0.0107
1598.00,0.0104
1597.00,0.0102
1596.00,0.0099
1595.00,0.0097
1594.00,0.0095
1593.00,0.0092
1592.00,0.0090
1591.00,0.0088
1590.00,0.0087
1589.00,0.0085
1588.00,0.0083
1587.00,0.0082
1586.00,0.0081
1585.00,0.0080
1584.00,0.0079
1583.00,0.0078
1582.00,0.0077
1581.00,0.0077
1580.00,0.0076
1579.00,0.0076
1578.00,0.0076
1577.00,0.0076
1576.00,0.0076
1575.00,0.0076
1574.00,0.0076
1573.00,0.0077
1572.00,0.0077
1571.00,0.0077
1570.00,0.0078
1569.00,0.0080
1568.00,0.0081
1567.00,0.0082
1566.00,0.0083
1565.00,0.0085
1564.00,0.0086
1563.00,0.0087
1562.00,0.0088
1561.00,0.0089
1560.00,0.0091
1559.00,0.0095
1558.00,0.0099
1557.00,0.0101
1556.00,0.0103
1555.00,0.0105
1554.00,0.0107
1553.00,0.0110
1552.00,0.0112
1551.00,0.0114
1550.00,0.0116
1549.00,0.0119
1548.00,0.0121
1547.00,0.0122
1546.00,0.0124
1545.00,0.0126
1544.00,0.0128
1543.00,0.0129
1542.00,0.0131
1541.00,0.0133
1540.00,0.0134
1539.00,0.0135
1538.00,0.0136
1537.00,0.0137
1536.00,0.0138
1535.00,0.0138
1534.00,0.0139
1533.00,0.0141
1532.00,0.0142
1531.00,0.0143
1530.00,0.0144
1529.00,0.0145
1528.00,0.0146
1527.00,0.0147
1526.00,0.0149
1525.00,0.0150
1524.00,0.0151
1523.00,0.0152
1522.00,0.0153
1521.00,0.0154
1520.00,0.0155
1519.00,0.0156
1518.00,0.0157
1517.00,0.0157
1516.00,0.0157
1515.00,0.0157
1514.00,0.0157
1513.00,0.0156
1512.00,0.0155
1511.00,0.0154
1510.00,0.0152
1509.00,0.0151
1508.00,0.0149
1507.00,0.0146
1506.00,0.0142
1505.00,0.0139
1504.00,0.0138
1503.00,0.0136
1502.00,0.0134
1501.00,0.0131
1500.00,0.0129
1499.00,0.0126
1498.00,0.0123
1497.00,0.0121
1496.00,0.0118
1495.00,0.0115
1494.00,0.0113
1493.00,0.0111
1492.00,0.0109
1491.00,0.0107
1490.00,0.0104
1489.00,0.0101
1488.00,0.0099
1487.00,0.0097
1486.00,0.0095
1485.00,0.0093
1484.00,0.0092
1483.00,0.0090
1482.00,0.0089
1481.00,0.0088
1480.00,0.0087
1479.00,0.0086
1478.00,0.0085
1477.00,0.0084
1476.00,0.0082
1475.00,0.0081
1474.00,0.0081
1473.00,0.0081
1472.00,0.0081
1471.00,0.0081
1470.00,0.0082
1469.00,0.0082
1468.00,0.0082
1467.00,0.0082
1466.00,0.0081
1465.00,0.0081
1464.00,0.0081
1463.00,0.0081
1462.00,0.0082
1461.00,0.0083
1460.00,0.0084
1459.00,0.0085
1458.00,0.0087
1457.00,0.0089
1456.00,0.0091
1455.00,0.0092
1454.00,0.0092
1453.00,0.0093
1452.00,0.0093
1451.00,0.0093
1450.00,0.0093
1449.00,0.0093
1448.00,0.0093
1447.00,0.0093
1446.00,0.0092
1445.00,0.0092
1444.00,0.0091
1443.00,0.0091
1442.00,0.0090
1441.00,0.0090
1440.00,0.0089
1439.00,0.0088
1438.00,0.0087
1437.00,0.0086
1436.00,0.0086
1435.00,0.0085
1434.00,0.0085
1433.00,0.0085
1432.00,0.0084
1431.00,0.0084
1430.00,0.0083
1429.00,0.0083
1428.00,0.0084
1427.00,0.0084
1426.00,0.0084
1425.00,0.0084
1424.00,0.0084
1423.00,0.0085
1422.00,0.0085
1421.00,0.0086
1420.00,0.0086
1419.00,0.0087
1418.00,0.0087
1417.00,0.0088
1416.00,0.0089
1415.00,0.0090
1414.00,0.0090
1413.00,0.0091
1412.00,0.0091
1411.00,0.0092
1410.00,0.0092
1409.00,0.0092
1408.00,0.0092
1407.00,0.0093
1406.00,0.0093
1405.00,0.0093
1404.00,0.0093
1403.00,0.0093
1402.00,0.0093
1401.00,0.0093
1400.00,0.0093
1399.00,0.0093
1398.00,0.0092
1397.00,0.0092
1396.00,0.0092
1395.00,0.0092
1394.00,0.0092
1393.00,0.0092
1392.00,0.0092
1391.00,0.0092
1390.00,0.0092
1389.00,0.0092
1388.00,0.0092
1387.00,0.0092
1386.00,0.0091
1385.00,0.0091
1384.00,0.0091
1383.00,0.0091
1382.00,0.0091
1381.00,0.0090
1380.00,0.0090
1379.00,0.0090
1378.00,0.0089
1377.00,0.0089
1376.00,0.0088
1375.00,0.0088
1374.00,0.0088
1373.00,0.0088
1372.00,0.0088
1371.00,0.0088
1370.00,0.0087
1369.00,0.0087
1368.00,0.0087
1367.00,0.0086
1366.00,0.0086
1365.00,0.0085
1364.00,0.0084
1363.00,0.0084
1362.00,0.0084
1361.00,0.0083
1360.00,0.0083
1359.00,0.0083
1358.00,0.0083
1357.00,0.0083
1356.00,0.0082
1355.00,0.0082
1354.00,0.0082
1353.00,0.0082
1352.00,0.0082
1351.00,0.0082
1350.00,0.0083
1349.00,0.0083
1348.00,0.0083
1347.00,0.0083
1346.00,0.0083
1345.00,0.0083
1344.00,0.0084
1343.00,0.0084
1342.00,0.0084
1341.00,0.0084
1340.00,0.0084
1339.00,0.0084
1338.00,0.0084
1337.00,0.0084
1336.00,0.0084
1335.00,0.0084
1334.00,0.0084
1333.00,0.0084
1332.00,0.0083
1331.00,0.0083
1330.00,0.0083
1329.00,0.0083
1328.00,0.0083
1327.00,0.0083
1326.00,0.0083
1325.00,0.0083
1324.00,0.0083
1323.00,0.0083
1322.00,0.0083
1321.00,0.0083
1320.00,0.0083
1319.00,0.0083
1318.00,0.0083
1317.00,0.0084
1316.00,0.0083
1315.00,0.0083
1314.00,0.0084
1313.00,0.0084
1312.00,0.0084
1311.00,0.0084
1310.00,0.0084
1309.00,0.0084
1308.00,0.0084
1307.00,0.0084
1306.00,0.0084
1305.00,0.0084
1304.00,0.0083
1303.00,0.0083
1302.00,0.0083
1301.00,0.0083
1300.00,0.0083
1299.00,0.0083
1298.00,0.0083
1297.00,0.0083
1296.00,0.0083
1295.00,0.0082
1294.00,0.0082
1293.00,0.0082
1292.00,0.0082
1291.00,0.0082
1290.00,0.0082
1289.00,0.0082
1288.00,0.0082
1287.00,0.0082
1286.00,0.0082
1285.00,0.0082
1284.00,0.0081
1283.00,0.0081
1282.00,0.0081
1281.00,0.0081
1280.00,0.0081
1279.00,0.0081
1278.00,0.0080
1277.00,0.0080
1276.00,0.0080
1275.00,0.0080
1274.00,0.0080
1273.00,0.0080
1272.00,0.0080
1271.00,0.0080
1270.00,0.0080
1269.00,0.0080
1268.00,0.0080
1267.00,0.0080
1266.00,0.0080
1265.00,0.0081
1264.00,0.0081
1263.00,0.0081
1262.00,0.0081
1261.00,0.0082
1260.00,0.0082
1259.00,0.0083
1258.00,0.0083
1257.00,0.0084
1256.00,0.0085
1255.00,0.0085
1254.00,0.0086
1253.00,0.0086
1252.00,0.0087
1251.00,0.0088
1250.00,0.0088
1249.00,0.0089
1248.00,0.0089
1247.00,0.0090
1246.00,0.0090
1245.00,0.0091
1244.00,0.0091
1243.00,0.0091
1242.00,0.0092
1241.00,0.0092
1240.00,0.0092
1239.00,0.0092
1238.00,0.0093
1237.00,0.0093
1236.00,0.0093
1235.00,0.0093
1234.00,0.0093
1233.00,0.0093
1232.00,0.0093
1231.00,0.0093
1230.00,0.0093
1229.00,0.0093
1228.00,0.0093
1227.00,0.0093
1226.00,0.0093
1225.00,0.0092
1224.00,0.0092
1223.00,0.0092
1222.00,0.0092
1221.00,0.0091
1220.00,0.0091
1219.00,0.0090
1218.00,0.0090
1217.00,0.0090
1216.00,0.0089
1215.00,0.0089
1214.00,0.0088
1213.00,0.0088
1212.00,0.0088
1211.00,0.0087
1210.00,0.0086
1209.00,0.0086
1208.00,0.0085
1207.00,0.0085
1206.00,0.0084
1205.00,0.0083
1204.00,0.0083
1203.00,0.0082
1202.00,0.0081
1201.00,0.0081
1200.00,0.0080
1199.00,0.0080
1198.00,0.0079
1197.00,0.0079
1196.00,0.0078
1195.00,0.0078
1194.00,0.0077
1193.00,0.0077
1192.00,0.0077
1191.00,0.0076
1190.00,0.0076
1189.00,0.0076
1188.00,0.0075
1187.00,0.0075
1186.00,0.0075
1185.00,0.0075
1184.00,0.0074
1183.00,0.0074
1182.00,0.0074
1181.00,0.0074
1180.00,0.0074
1179.00,0.0074
1178.00,0.0075
1177.00,0.0075
1176.00,0.0075
1175.00,0.0076
1174.00,0.0077
1173.00,0.0077
1172.00,0.0078
1171.00,0.0078
1170.00,0.0079
1169.00,0.0079
1168.00,0.0080
1167.00,0.0080
1166.00,0.0081
1165.00,0.0081
1164.00,0.0081
1163.00,0.0081
1162.00,0.0081
1161.00,0.0081
1160.00,0.0081
1159.00,0.0081
1158.00,0.0080
1157.00,0.0080
1156.00,0.0079
1155.00,0.0079
1154.00,0.0079
1153.00,0.0078
1152.00,0.0078
1151.00,0.0077
1150.00,0.0077
1149.00,0.0076
1148.00,0.0076
1147.00,0.0075
1146.00,0.0075
1145.00,0.0075
1144.00,0.0074
1143.00,0.0074
1142.00,0.0074
1141.00,0.0074
1140.00,0.0074
1139.00,0.0074
1138.00,0.0074
1137.00,0.0073
1136.00,0.0073
1135.00,0.0073
1134.00,0.0073
1133.00,0.0073
1132.00,0.0073
1131.00,0.0073
1130.00,0.0073
1129.00,0.0073
1128.00,0.0073
1127.00,0.0073
1126.00,0.0073
1125.00,0.0073
1124.00,0.0073
1123.00,0.0073
1122.00,0.0073
1121.00,0.0073
1120.00,0.0073
1119.00,0.0073
1118.00,0.0072
1117.00,0.0072
1116.00,0.0072
1115.00,0.0072
1114.00,0.0072
1113.00,0.0072
1112.00,0.0072
1111.00,0.0072
1110.00,0.0072
1109.00,0.0072
1108.00,0.0072
1107.00,0.0072
1106.00,0.0071
1105.00,0.0071
1104.00,0.0072
1103.00,0.0072
1102.00,0.0072
1101.00,0.0072
1100.00,0.0072
1099.00,0.0072
1098.00,0.0072
1097.00,0.0072
1096.00,0.0073
1095.00,0.0073
1094.00,0.0073
1093.00,0.0074
1092.00,0.0074
1091.00,0.0075
1090.00,0.0075
1089.00,0.0076
1088.00,0.0077
1087.00,0.0078
1086.00,0.0078
1085.00,0.0079
1084.00,0.0080
1083.00,0.0081
1082.00,0.0083
1081.00,0.0084
1080.00,0.0085
1079.00,0.0086
1078.00,0.0087
1077.00,0.0087
1076.00,0.0088
1075.00,0.0089
1074.00,0.0090
1073.00,0.0090
1072.00,0.0091
1071.00,0.0091
1070.00,0.0092
1069.00,0.0092
1068.00,0.0093
1067.00,0.0093
1066.00,0.0094
1065.00,0.0094
1064.00,0.0094
1063.00,0.0094
1062.00,0.0095
1061.00,0.0095
1060.00,0.0094
1059.00,0.0094
1058.00,0.0094
1057.00,0.0094
1056.00,0.0093
1055.00,0.0093
1054.00,0.0093
1053.00,0.0093
1052.00,0.0093
1051.00,0.0093
1050.00,0.0093
1049.00,0.0093
1048.00,0.0093
1047.00,0.0092
1046.00,0.0092
1045.00,0.0092
1044.00,0.0091
1043.00,0.0090
1042.00,0.0090
1041.00,0.0089
1040.00,0.0088
1039.00,0.0087
1038.00,0.0087
1037.00,0.0086
1036.00,0.0085
1035.00,0.0085
1034.00,0.0084
1033.00,0.0084
1032.00,0.0083
1031.00,0.0082
1030.00,0.0082
1029.00,0.0081
1028.00,0.0080
1027.00,0.0079
1026.00,0.0078
1025.00,0.0078
1024.00,0.0077
1023.00,0.0076
1022.00,0.0075
1021.00,0.0075
1020.00,0.0074
1019.00,0.0074
1018.00,0.0073
1017.00,0.0073
1016.00,0.0072
1015.00,0.0071
1014.00,0.0070
1013.00,0.0070
1012.00,0.0069
1011.00,0.0069
1010.00,0.0069
1009.00,0.0069
1008.00,0.0068
1007.00,0.0068
1006.00,0.0068
1005.00,0.0067
1004.00,0.0067
1003.00,0.0067
1002.00,0.0066
1001.00,0.0066
1000.00,0.0066
999.00,0.0066
998.00,0.0066
997.00,0.0065
996.00,0.0065
995.00,0.0065
994.00,0.0065
993.00,0.0065
992.00,0.0064
991.00,0.0064
990.00,0.0064
989.00,0.0064
988.00,0.0064
987.00,0.0063
986.00,0.0063
985.00,0.0063
984.00,0.0063
983.00,0.0063
982.00,0.0063
981.00,0.0063
980.00,0.0063
979.00,0.0063
978.00,0.0063
977.00,0.0063
976.00,0.0063
975.00,0.0063
974.00,0.0063
973.00,0.0063
972.00,0.0063
971.00,0.0063
970.00,0.0064
969.00,0.0064
968.00,0.0064
967.00,0.0064
966.00,0.0065
965.00,0.0065
964.00,0.0065
963.00,0.0065
962.00,0.0066
961.00,0.0066
960.00,0.0065
959.00,0.0065
958.00,0.0065
957.00,0.0065
956.00,0.0065
955.00,0.0064
954.00,0.0064
953.00,0.0063
952.00,0.0063
951.00,0.0063
950.00,0.0063
949.00,0.0063
948.00,0.0063
947.00,0.0063
946.00,0.0063
945.00,0.0062
944.00,0.0062
943.00,0.0062
942.00,0.0062
941.00,0.0062
940.00,0.0062
939.00,0.0062
938.00,0.0062
937.00,0.0063
936.00,0.0063
935.00,0.0063
934.00,0.0063
933.00,0.0063
932.00,0.0063
931.00,0.0063
930.00,0.0063
929.00,0.0063
928.00,0.0063
927.00,0.0062
926.00,0.0062
925.00,0.0062
924.00,0.0062
923.00,0.0062
922.00,0.0062
921.00,0.0062
920.00,0.0061
919.00,0.0061
918.00,0.0061
917.00,0.0061
916.00,0.0061
915.00,0.0060
914.00,0.0060
913.00,0.0060
912.00,0.0060
911.00,0.0060
910.00,0.0060
909.00,0.0060
908.00,0.0061
907.00,0.0061
906.00,0.0061
905.00,0.0061
904.00,0.0061
903.00,0.0061
902.00,0.0061
901.00,0.0061
900.00,0.0061
899.00,0.0061
898.00,0.0061
897.00,0.0061
896.00,0.0061
895.00,0.0061
894.00,0.0060
893.00,0.0060
892.00,0.0060
891.00,0.0060
890.00,0.0060
889.00,0.0060
888.00,0.0059
887.00,0.0059
886.00,0.0059
885.00,0.0058
884.00,0.0058
883.00,0.0058
882.00,0.0058
881.00,0.0058
880.00,0.0058
879.00,0.0059
878.00,0.0059
877.00,0.0059
876.00,0.0059
875.00,0.0058
874.00,0.0058
873.00,0.0058
872.00,0.0058
871.00,0.0058
870.00,0.0059
869.00,0.0059
868.00,0.0058
867.00,0.0058
866.00,0.0058
865.00,0.0058
864.00,0.0057
863.00,0.0057
862.00,0.0057
861.00,0.0057
860.00,0.0057
859.00,0.0057
858.00,0.0057
857.00,0.0057
856.00,0.0057
855.00,0.0057
854.00,0.0057
853.00,0.0057
852.00,0.0057
851.00,0.0057
850.00,0.0057
849.00,0.0057
848.00,0.0057
847.00,0.0057
846.00,0.0057
845.00,0.0057
844.00,0.0057
843.00,0.0057
842.00,0.0057
841.00,0.0057
840.00,0.0057
839.00,0.0057
838.00,0.0057
837.00,0.0057
836.00,0.0058
835.00,0.0058
834.00,0.0058
833.00,0.0059
832.00,0.0059
831.00,0.0059
830.00,0.0060
829.00,0.0060
828.00,0.0060
827.00,0.0061
826.00,0.0061
825.00,0.0061
824.00,0.0061
823.00,0.0061
822.00,0.0062
821.00,0.0062
820.00,0.0062
819.00,0.0062
818.00,0.0062
817.00,0.0062
816.00,0.0062
815.00,0.0062
814.00,0.0063
813.00,0.0063
812.00,0.0063
811.00,0.0064
810.00,0.0064
809.00,0.0064
808.00,0.0064
807.00,0.0064
806.00,0.0064
805.00,0.0065
804.00,0.0065
803.00,0.0065
802.00,0.0065
801.00,0.0065
800.00,0.0065
799.00,0.0065
798.00,0.0065
797.00,0.0065
796.00,0.0066
795.00,0.0066
794.00,0.0066
793.00,0.0067
792.00,0.0068
791.00,0.0068
790.00,0.0069
789.00,0.0070
788.00,0.0070
787.00,0.0070
786.00,0.0071
785.00,0.0071
784.00,0.0071
783.00,0.0072
782.00,0.0072
781.00,0.0073
780.00,0.0074
779.00,0.0075
778.00,0.0075
777.00,0.0076
776.00,0.0076
775.00,0.0076
774.00,0.0077
773.00,0.0077
772.00,0.0078
771.00,0.0078
770.00,0.0078
769.00,0.0079
768.00,0.0079
767.00,0.0080
766.00,0.0080
765.00,0.0081
764.00,0.0081
763.00,0.0081
762.00,0.0081
761.00,0.0081
760.00,0.0081
759.00,0.0082
758.00,0.0082
757.00,0.0083
756.00,0.0083
755.00,0.0084
754.00,0.0084
753.00,0.0085
752.00,0.0086
751.00,0.0086
750.00,0.0087
749.00,0.0087
748.00,0.0087
747.00,0.0087
746.00,0.0088
745.00,0.0088
744.00,0.0088
743.00,0.0088
742.00,0.0088
741.00,0.0088
740.00,0.0088
739.00,0.0088
738.00,0.0089
737.00,0.0089
736.00,0.0089
735.00,0.0089
734.00,0.0089
733.00,0.0089
732.00,0.0089
731.00,0.0089
730.00,0.0089
729.00,0.0090
728.00,0.0091
727.00,0.0092
726.00,0.0093
725.00,0.0094
724.00,0.0095
723.00,0.0096
722.00,0.0097
721.00,0.0098
720.00,0.0099
719.00,0.0100
718.00,0.0102
717.00,0.0104
716.00,0.0106
715.00,0.0108
714.00,0.0109
713.00,0.0111
712.00,0.0113
711.00,0.0114
710.00,0.0115
709.00,0.0117
708.00,0.0118
707.00,0.0120
706.00,0.0122
705.00,0.0123
704.00,0.0125
703.00,0.0126
702.00,0.0128
701.00,0.0129
700.00,0.0130
699.00,0.0130
698.00,0.0131
697.00,0.0131
696.00,0.0130
695.00,0.0130
694.00,0.0130
693.00,0.0130
692.00,0.0129
691.00,0.0129
690.00,0.0129
689.00,0.0130
688.00,0.0130
687.00,0.0131
686.00,0.0132
685.00,0.0132
684.00,0.0132
683.00,0.0132
682.00,0.0132
681.00,0.0133
680.00,0.0133
679.00,0.0133
678.00,0.0134
677.00,0.0134
676.00,0.0134
675.00,0.0135
674.00,0.0135
673.00,0.0135
672.00,0.0135
671.00,0.0135
670.00,0.0136
669.00,0.0137
668.00,0.0138
667.00,0.0139
666.00,0.0139
665.00,0.0139
664.00,0.0139
663.00,0.0139
662.00,0.0139
661.00,0.0139
660.00,0.0140
659.00,0.0140
658.00,0.0141
657.00,0.0141
656.00,0.0141
655.00,0.0141
654.00,0.0142
653.00,0.0142
652.00,0.0143
651.00,0.0143
650.00,0.0144
649.00,0.0144
648.00,0.0144
647.00,0.0144
646.00,0.0145
645.00,0.0146
644.00,0.0146
643.00,0.0147
642.00,0.0147
641.00,0.0148
640.00,0.0148
639.00,0.0149
638.00,0.0150
637.00,0.0151
636.00,0.0152
635.00,0.0152
634.00,0.0153
633.00,0.0153
632.00,0.0154
631.00,0.0154
630.00,0.0155
629.00,0.0155
628.00,0.0155
627.00,0.0156
626.00,0.0156
625.00,0.0157
624.00,0.0157
623.00,0.0157
622.00,0.0157
621.00,0.0157
620.00,0.0157
619.00,0.0157
618.00,0.0157
617.00,0.0156
616.00,0.0156
615.00,0.0156
614.00,0.0156
613.00,0.0155
612.00,0.0155
611.00,0.0154
610.00,0.0154
609.00,0.0155
608.00,0.0155
607.00,0.0155
606.00,0.0156
605.00,0.0156
604.00,0.0156
603.00,0.0156
602.00,0.0156
601.00,0.0156
600.00,0.0156
599.00,0.0155
598.00,0.0155
597.00,0.0155
596.00,0.0155
595.00,0.0156
594.00,0.0157
593.00,0.0157
592.00,0.0157
591.00,0.0157
590.00,0.0156
589.00,0.0156
588.00,0.0156
587.00,0.0157
586.00,0.0158
585.00,0.0158
584.00,0.0158
583.00,0.0158
582.00,0.0158
581.00,0.0158
580.00,0.0158
579.00,0.0159
578.00,0.0160
577.00,0.0160
576.00,0.0160
575.00,0.0161
574.00,0.0161
573.00,0.0161
572.00,0.0161
571.00,0.0161
570.00,0.0162
569.00,0.0162
568.00,0.0163
567.00,0.0162
566.00,0.0162
565.00,0.0162
564.00,0.0162
563.00,0.0162
562.00,0.0162
561.00,0.0163
560.00,0.0163
559.00,0.0164
558.00,0.0164
557.00,0.0164
556.00,0.0164
555.00,0.0163
554.00,0.0163
553.00,0.0163
552.00,0.0163
551.00,0.0163
550.00,0.0164
549.00,0.0165
548.00,0.0166
547.00,0.0165
546.00,0.0165
545.00,0.0165
544.00,0.0165
543.00,0.0166
542.00,0.0167
541.00,0.0167
540.00,0.0167
539.00,0.0166
538.00,0.0166
537.00,0.0166
536.00,0.0167
535.00,0.0167
534.00,0.0169
533.00,0.0170
532.00,0.0171
531.00,0.0171
530.00,0.0171
529.00,0.0170
528.00,0.0169
527.00,0.0168
526.00,0.0169
525.00,0.0170
524.00,0.0171
523.00,0.0171
522.00,0.0171
521.00,0.0171
520.00,0.0171
519.00,0.0171
518.00,0.0171
517.00,0.0171
516.00,0.0170
515.00,0.0170
514.00,0.0169
513.00,0.0168
512.00,0.0167
511.00,0.0166
510.00,0.0165
509.00,0.0164
508.00,0.0163
507.00,0.0162
506.00,0.0162
505.00,0.0162
504.00,0.0162
503.00,0.0161
502.00,0.0161
501.00,0.0162
500.00,0.0162
499.00,0.0163
498.00,0.0163
497.00,0.0164
496.00,0.0163
495.00,0.0164
494.00,0.0164
493.00,0.0165
492.00,0.0164
491.00,0.0163
490.00,0.0162
489.00,0.0161
488.00,0.0160
487.00,0.0160
486.00,0.0160
485.00,0.0162
484.00,0.0162
483.00,0.0163
482.00,0.0163
481.00,0.0164
480.00,0.0163
479.00,0.0163
478.00,0.0163
477.00,0.0162
476.00,0.0161
475.00,0.0160
474.00,0.0161
473.00,0.0161
472.00,0.0161
471.00,0.0160
470.00,0.0161
469.00,0.0161
468.00,0.0161
467.00,0.0161
466.00,0.0161
465.00,0.0161
464.00,0.0162
463.00,0.0161
462.00,0.0161
461.00,0.0161
460.00,0.0161
459.00,0.0160
458.00,0.0160
457.00,0.0160
456.00,0.0158
455.00,0.0156
454.00,0.0155
453.00,0.0155
452.00,0.0156
451.00,0.0156
450.00,0.0156
449.00,0.0156
448.00,0.0154
447.00,0.0153
446.00,0.0153
445.00,0.0153
444.00,0.0153
443.00,0.0153
442.00,0.0154
441.00,0.0154
440.00,0.0154
439.00,0.0153
438.00,0.0154
437.00,0.0154
436.00,0.0153
435.00,0.0152
434.00,0.0153
433.00,0.0154
432.00,0.0154
431.00,0.0153
430.00,0.0153
429.00,0.0153
428.00,0.0152
427.00,0.0151
426.00,0.0150
425.00,0.0149
424.00,0.0147
423.00,0.0146
422.00,0.0146
421.00,0.0146
420.00,0.0143
419.00,0.0142
418.00,0.0143
417.00,0.0145
416.00,0.0144
415.00,0.0145
414.00,0.0147
413.00,0.0150
412.00,0.0149
411.00,0.0147
410.00,0.0146
409.00,0.0145
408.00,0.0144
407.00,0.0142
406.00,0.0142
405.00,0.0141
404.00,0.0137
403.00,0.0135
402.00,0.0135
401.00,0.0134
400.00,0.0128
