PE IR       SUBTECH     SPECTRUM    ASCII       PEDS        4.00        
   -1
PE_P viridans outer 2.ASC
24/08/18
21:23:01.00
24/08/18
21:24:12.00
Yarger Lab
Sample 296 By YargerLab Date Sunday, August 18 2024
400.000000
#HDR
-1
-1
#GR
cm-1
A
1.0
0.0
4000.000000
-1.000000
3601
8
0.097989
0.008115
#DATA
4000.000000	0.014711
3999.000000	0.014698
3998.000000	0.014683
3997.000000	0.014671
3996.000000	0.014663
3995.000000	0.014662
3994.000000	0.014666
3993.000000	0.014673
3992.000000	0.014681
3991.000000	0.014687
3990.000000	0.014692
3989.000000	0.014697
3988.000000	0.014700
3987.000000	0.014700
3986.000000	0.014692
3985.000000	0.014680
3984.000000	0.014668
3983.000000	0.014664
3982.000000	0.014668
3981.000000	0.014674
3980.000000	0.014675
3979.000000	0.014671
3978.000000	0.014663
3977.000000	0.014660
3976.000000	0.014663
3975.000000	0.014670
3974.000000	0.014676
3973.000000	0.014677
3972.000000	0.014671
3971.000000	0.014660
3970.000000	0.014646
3969.000000	0.014633
3968.000000	0.014625
3967.000000	0.014623
3966.000000	0.014626
3965.000000	0.014629
3964.000000	0.014629
3963.000000	0.014626
3962.000000	0.014623
3961.000000	0.014620
3960.000000	0.014618
3959.000000	0.014614
3958.000000	0.014610
3957.000000	0.014606
3956.000000	0.014603
3955.000000	0.014601
3954.000000	0.014598
3953.000000	0.014597
3952.000000	0.014600
3951.000000	0.014605
3950.000000	0.014612
3949.000000	0.014617
3948.000000	0.014618
3947.000000	0.014615
3946.000000	0.014608
3945.000000	0.014600
3944.000000	0.014592
3943.000000	0.014586
3942.000000	0.014582
3941.000000	0.014578
3940.000000	0.014572
3939.000000	0.014564
3938.000000	0.014557
3937.000000	0.014552
3936.000000	0.014553
3935.000000	0.014555
3934.000000	0.014556
3933.000000	0.014552
3932.000000	0.014541
3931.000000	0.014527
3930.000000	0.014514
3929.000000	0.014505
3928.000000	0.014500
3927.000000	0.014499
3926.000000	0.014502
3925.000000	0.014509
3924.000000	0.014519
3923.000000	0.014528
3922.000000	0.014531
3921.000000	0.014528
3920.000000	0.014521
3919.000000	0.014515
3918.000000	0.014507
3917.000000	0.014495
3916.000000	0.014480
3915.000000	0.014467
3914.000000	0.014459
3913.000000	0.014455
3912.000000	0.014452
3911.000000	0.014450
3910.000000	0.014447
3909.000000	0.014443
3908.000000	0.014436
3907.000000	0.014429
3906.000000	0.014426
3905.000000	0.014431
3904.000000	0.014444
3903.000000	0.014460
3902.000000	0.014473
3901.000000	0.014475
3900.000000	0.014467
3899.000000	0.014454
3898.000000	0.014443
3897.000000	0.014439
3896.000000	0.014435
3895.000000	0.014427
3894.000000	0.014412
3893.000000	0.014397
3892.000000	0.014391
3891.000000	0.014394
3890.000000	0.014399
3889.000000	0.014401
3888.000000	0.014396
3887.000000	0.014382
3886.000000	0.014368
3885.000000	0.014362
3884.000000	0.014366
3883.000000	0.014370
3882.000000	0.014362
3881.000000	0.014348
3880.000000	0.014337
3879.000000	0.014334
3878.000000	0.014335
3877.000000	0.014331
3876.000000	0.014319
3875.000000	0.014306
3874.000000	0.014301
3873.000000	0.014306
3872.000000	0.014312
3871.000000	0.014311
3870.000000	0.014303
3869.000000	0.014297
3868.000000	0.014300
3867.000000	0.014304
3866.000000	0.014298
3865.000000	0.014282
3864.000000	0.014270
3863.000000	0.014265
3862.000000	0.014263
3861.000000	0.014259
3860.000000	0.014252
3859.000000	0.014244
3858.000000	0.014239
3857.000000	0.014233
3856.000000	0.014227
3855.000000	0.014219
3854.000000	0.014213
3853.000000	0.014208
3852.000000	0.014199
3851.000000	0.014190
3850.000000	0.014186
3849.000000	0.014184
3848.000000	0.014183
3847.000000	0.014181
3846.000000	0.014177
3845.000000	0.014168
3844.000000	0.014158
3843.000000	0.014147
3842.000000	0.014140
3841.000000	0.014142
3840.000000	0.014152
3839.000000	0.014168
3838.000000	0.014178
3837.000000	0.014171
3836.000000	0.014151
3835.000000	0.014127
3834.000000	0.014108
3833.000000	0.014096
3832.000000	0.014088
3831.000000	0.014080
3830.000000	0.014070
3829.000000	0.014059
3828.000000	0.014048
3827.000000	0.014041
3826.000000	0.014043
3825.000000	0.014055
3824.000000	0.014068
3823.000000	0.014070
3822.000000	0.014058
3821.000000	0.014039
3820.000000	0.014021
3819.000000	0.014005
3818.000000	0.013990
3817.000000	0.013974
3816.000000	0.013960
3815.000000	0.013954
3814.000000	0.013954
3813.000000	0.013954
3812.000000	0.013949
3811.000000	0.013941
3810.000000	0.013937
3809.000000	0.013938
3808.000000	0.013941
3807.000000	0.013943
3806.000000	0.013943
3805.000000	0.013943
3804.000000	0.013938
3803.000000	0.013923
3802.000000	0.013907
3801.000000	0.013901
3800.000000	0.013908
3799.000000	0.013918
3798.000000	0.013923
3797.000000	0.013918
3796.000000	0.013906
3795.000000	0.013890
3794.000000	0.013872
3793.000000	0.013850
3792.000000	0.013828
3791.000000	0.013811
3790.000000	0.013804
3789.000000	0.013806
3788.000000	0.013812
3787.000000	0.013816
3786.000000	0.013814
3785.000000	0.013808
3784.000000	0.013801
3783.000000	0.013794
3782.000000	0.013786
3781.000000	0.013775
3780.000000	0.013762
3779.000000	0.013749
3778.000000	0.013740
3777.000000	0.013734
3776.000000	0.013728
3775.000000	0.013720
3774.000000	0.013710
3773.000000	0.013699
3772.000000	0.013691
3771.000000	0.013686
3770.000000	0.013684
3769.000000	0.013684
3768.000000	0.013681
3767.000000	0.013672
3766.000000	0.013662
3765.000000	0.013656
3764.000000	0.013656
3763.000000	0.013659
3762.000000	0.013660
3761.000000	0.013655
3760.000000	0.013651
3759.000000	0.013652
3758.000000	0.013656
3757.000000	0.013655
3756.000000	0.013652
3755.000000	0.013652
3754.000000	0.013656
3753.000000	0.013668
3752.000000	0.013686
3751.000000	0.013706
3750.000000	0.013713
3749.000000	0.013706
3748.000000	0.013693
3747.000000	0.013682
3746.000000	0.013668
3745.000000	0.013646
3744.000000	0.013617
3743.000000	0.013589
3742.000000	0.013569
3741.000000	0.013553
3740.000000	0.013538
3739.000000	0.013525
3738.000000	0.013517
3737.000000	0.013513
3736.000000	0.013508
3735.000000	0.013496
3734.000000	0.013475
3733.000000	0.013445
3732.000000	0.013413
3731.000000	0.013390
3730.000000	0.013381
3729.000000	0.013382
3728.000000	0.013381
3727.000000	0.013369
3726.000000	0.013347
3725.000000	0.013322
3724.000000	0.013302
3723.000000	0.013289
3722.000000	0.013280
3721.000000	0.013268
3720.000000	0.013249
3719.000000	0.013223
3718.000000	0.013199
3717.000000	0.013185
3716.000000	0.013184
3715.000000	0.013192
3714.000000	0.013199
3713.000000	0.013200
3712.000000	0.013199
3711.000000	0.013196
3710.000000	0.013190
3709.000000	0.013179
3708.000000	0.013164
3707.000000	0.013144
3706.000000	0.013117
3705.000000	0.013084
3704.000000	0.013050
3703.000000	0.013021
3702.000000	0.013004
3701.000000	0.012998
3700.000000	0.012996
3699.000000	0.012995
3698.000000	0.012995
3697.000000	0.012994
3696.000000	0.012995
3695.000000	0.013000
3694.000000	0.013007
3693.000000	0.013010
3692.000000	0.013008
3691.000000	0.013000
3690.000000	0.012990
3689.000000	0.012978
3688.000000	0.012964
3687.000000	0.012955
3686.000000	0.012954
3685.000000	0.012959
3684.000000	0.012965
3683.000000	0.012973
3682.000000	0.012985
3681.000000	0.013005
3680.000000	0.013029
3679.000000	0.013059
3678.000000	0.013089
3677.000000	0.013106
3676.000000	0.013102
3675.000000	0.013090
3674.000000	0.013089
3673.000000	0.013105
3672.000000	0.013123
3671.000000	0.013126
3670.000000	0.013116
3669.000000	0.013106
3668.000000	0.013103
3667.000000	0.013103
3666.000000	0.013106
3665.000000	0.013109
3664.000000	0.013114
3663.000000	0.013124
3662.000000	0.013141
3661.000000	0.013166
3660.000000	0.013196
3659.000000	0.013228
3658.000000	0.013257
3657.000000	0.013280
3656.000000	0.013295
3655.000000	0.013307
3654.000000	0.013319
3653.000000	0.013331
3652.000000	0.013342
3651.000000	0.013357
3650.000000	0.013390
3649.000000	0.013431
3648.000000	0.013457
3647.000000	0.013465
3646.000000	0.013472
3645.000000	0.013484
3644.000000	0.013501
3643.000000	0.013518
3642.000000	0.013532
3641.000000	0.013546
3640.000000	0.013565
3639.000000	0.013593
3638.000000	0.013631
3637.000000	0.013677
3636.000000	0.013720
3635.000000	0.013753
3634.000000	0.013777
3633.000000	0.013801
3632.000000	0.013832
3631.000000	0.013866
3630.000000	0.013899
3629.000000	0.013932
3628.000000	0.013963
3627.000000	0.013995
3626.000000	0.014030
3625.000000	0.014065
3624.000000	0.014095
3623.000000	0.014117
3622.000000	0.014136
3621.000000	0.014158
3620.000000	0.014192
3619.000000	0.014239
3618.000000	0.014296
3617.000000	0.014354
3616.000000	0.014410
3615.000000	0.014463
3614.000000	0.014509
3613.000000	0.014550
3612.000000	0.014585
3611.000000	0.014616
3610.000000	0.014643
3609.000000	0.014673
3608.000000	0.014707
3607.000000	0.014743
3606.000000	0.014778
3605.000000	0.014809
3604.000000	0.014838
3603.000000	0.014866
3602.000000	0.014896
3601.000000	0.014926
3600.000000	0.014956
3599.000000	0.014990
3598.000000	0.015028
3597.000000	0.015069
3596.000000	0.015113
3595.000000	0.015159
3594.000000	0.015208
3593.000000	0.015260
3592.000000	0.015310
3591.000000	0.015354
3590.000000	0.015390
3589.000000	0.015426
3588.000000	0.015469
3587.000000	0.015520
3586.000000	0.015574
3585.000000	0.015623
3584.000000	0.015666
3583.000000	0.015705
3582.000000	0.015749
3581.000000	0.015801
3580.000000	0.015859
3579.000000	0.015917
3578.000000	0.015971
3577.000000	0.016022
3576.000000	0.016073
3575.000000	0.016127
3574.000000	0.016185
3573.000000	0.016250
3572.000000	0.016319
3571.000000	0.016387
3570.000000	0.016448
3569.000000	0.016501
3568.000000	0.016547
3567.000000	0.016594
3566.000000	0.016645
3565.000000	0.016704
3564.000000	0.016765
3563.000000	0.016819
3562.000000	0.016865
3561.000000	0.016908
3560.000000	0.016958
3559.000000	0.017020
3558.000000	0.017093
3557.000000	0.017170
3556.000000	0.017244
3555.000000	0.017309
3554.000000	0.017368
3553.000000	0.017425
3552.000000	0.017487
3551.000000	0.017556
3550.000000	0.017633
3549.000000	0.017715
3548.000000	0.017798
3547.000000	0.017872
3546.000000	0.017933
3545.000000	0.017979
3544.000000	0.018015
3543.000000	0.018051
3542.000000	0.018094
3541.000000	0.018146
3540.000000	0.018208
3539.000000	0.018277
3538.000000	0.018348
3537.000000	0.018416
3536.000000	0.018478
3535.000000	0.018533
3534.000000	0.018582
3533.000000	0.018627
3532.000000	0.018674
3531.000000	0.018727
3530.000000	0.018792
3529.000000	0.018868
3528.000000	0.018950
3527.000000	0.019031
3526.000000	0.019107
3525.000000	0.019173
3524.000000	0.019230
3523.000000	0.019280
3522.000000	0.019328
3521.000000	0.019376
3520.000000	0.019424
3519.000000	0.019474
3518.000000	0.019530
3517.000000	0.019591
3516.000000	0.019656
3515.000000	0.019721
3514.000000	0.019787
3513.000000	0.019852
3512.000000	0.019913
3511.000000	0.019969
3510.000000	0.020020
3509.000000	0.020075
3508.000000	0.020139
3507.000000	0.020210
3506.000000	0.020287
3505.000000	0.020365
3504.000000	0.020439
3503.000000	0.020508
3502.000000	0.020573
3501.000000	0.020639
3500.000000	0.020707
3499.000000	0.020775
3498.000000	0.020842
3497.000000	0.020905
3496.000000	0.020965
3495.000000	0.021021
3494.000000	0.021075
3493.000000	0.021125
3492.000000	0.021175
3491.000000	0.021229
3490.000000	0.021290
3489.000000	0.021363
3488.000000	0.021443
3487.000000	0.021521
3486.000000	0.021592
3485.000000	0.021655
3484.000000	0.021715
3483.000000	0.021779
3482.000000	0.021849
3481.000000	0.021924
3480.000000	0.021996
3479.000000	0.022062
3478.000000	0.022124
3477.000000	0.022186
3476.000000	0.022251
3475.000000	0.022322
3474.000000	0.022400
3473.000000	0.022482
3472.000000	0.022564
3471.000000	0.022644
3470.000000	0.022719
3469.000000	0.022790
3468.000000	0.022856
3467.000000	0.022920
3466.000000	0.022982
3465.000000	0.023042
3464.000000	0.023102
3463.000000	0.023165
3462.000000	0.023235
3461.000000	0.023309
3460.000000	0.023380
3459.000000	0.023444
3458.000000	0.023502
3457.000000	0.023557
3456.000000	0.023615
3455.000000	0.023678
3454.000000	0.023747
3453.000000	0.023821
3452.000000	0.023894
3451.000000	0.023961
3450.000000	0.024023
3449.000000	0.024084
3448.000000	0.024147
3447.000000	0.024216
3446.000000	0.024292
3445.000000	0.024370
3444.000000	0.024442
3443.000000	0.024505
3442.000000	0.024565
3441.000000	0.024631
3440.000000	0.024707
3439.000000	0.024790
3438.000000	0.024871
3437.000000	0.024945
3436.000000	0.025008
3435.000000	0.025064
3434.000000	0.025124
3433.000000	0.025191
3432.000000	0.025264
3431.000000	0.025338
3430.000000	0.025411
3429.000000	0.025482
3428.000000	0.025547
3427.000000	0.025609
3426.000000	0.025672
3425.000000	0.025742
3424.000000	0.025817
3423.000000	0.025891
3422.000000	0.025959
3421.000000	0.026023
3420.000000	0.026083
3419.000000	0.026144
3418.000000	0.026209
3417.000000	0.026279
3416.000000	0.026353
3415.000000	0.026426
3414.000000	0.026493
3413.000000	0.026555
3412.000000	0.026614
3411.000000	0.026677
3410.000000	0.026743
3409.000000	0.026812
3408.000000	0.026884
3407.000000	0.026954
3406.000000	0.027023
3405.000000	0.027087
3404.000000	0.027146
3403.000000	0.027202
3402.000000	0.027259
3401.000000	0.027319
3400.000000	0.027380
3399.000000	0.027439
3398.000000	0.027495
3397.000000	0.027548
3396.000000	0.027598
3395.000000	0.027647
3394.000000	0.027702
3393.000000	0.027766
3392.000000	0.027836
3391.000000	0.027903
3390.000000	0.027963
3389.000000	0.028019
3388.000000	0.028075
3387.000000	0.028136
3386.000000	0.028205
3385.000000	0.028279
3384.000000	0.028353
3383.000000	0.028421
3382.000000	0.028482
3381.000000	0.028542
3380.000000	0.028603
3379.000000	0.028669
3378.000000	0.028740
3377.000000	0.028812
3376.000000	0.028881
3375.000000	0.028945
3374.000000	0.029007
3373.000000	0.029072
3372.000000	0.029146
3371.000000	0.029228
3370.000000	0.029316
3369.000000	0.029406
3368.000000	0.029495
3367.000000	0.029583
3366.000000	0.029672
3365.000000	0.029765
3364.000000	0.029860
3363.000000	0.029954
3362.000000	0.030049
3361.000000	0.030149
3360.000000	0.030255
3359.000000	0.030362
3358.000000	0.030467
3357.000000	0.030571
3356.000000	0.030676
3355.000000	0.030780
3354.000000	0.030883
3353.000000	0.030987
3352.000000	0.031096
3351.000000	0.031213
3350.000000	0.031340
3349.000000	0.031473
3348.000000	0.031601
3347.000000	0.031719
3346.000000	0.031827
3345.000000	0.031933
3344.000000	0.032047
3343.000000	0.032172
3342.000000	0.032305
3341.000000	0.032441
3340.000000	0.032578
3339.000000	0.032723
3338.000000	0.032879
3337.000000	0.033047
3336.000000	0.033222
3335.000000	0.033399
3334.000000	0.033579
3333.000000	0.033758
3332.000000	0.033935
3331.000000	0.034108
3330.000000	0.034274
3329.000000	0.034436
3328.000000	0.034597
3327.000000	0.034765
3326.000000	0.034949
3325.000000	0.035156
3324.000000	0.035382
3323.000000	0.035617
3322.000000	0.035851
3321.000000	0.036081
3320.000000	0.036308
3319.000000	0.036535
3318.000000	0.036767
3317.000000	0.037006
3316.000000	0.037250
3315.000000	0.037496
3314.000000	0.037742
3313.000000	0.037982
3312.000000	0.038214
3311.000000	0.038441
3310.000000	0.038675
3309.000000	0.038925
3308.000000	0.039193
3307.000000	0.039480
3306.000000	0.039788
3305.000000	0.040116
3304.000000	0.040457
3303.000000	0.040799
3302.000000	0.041130
3301.000000	0.041445
3300.000000	0.041744
3299.000000	0.042029
3298.000000	0.042309
3297.000000	0.042594
3296.000000	0.042890
3295.000000	0.043197
3294.000000	0.043514
3293.000000	0.043838
3292.000000	0.044170
3291.000000	0.044507
3290.000000	0.044844
3289.000000	0.045171
3288.000000	0.045481
3287.000000	0.045767
3286.000000	0.046036
3285.000000	0.046293
3284.000000	0.046542
3283.000000	0.046780
3282.000000	0.047002
3281.000000	0.047205
3280.000000	0.047385
3279.000000	0.047539
3278.000000	0.047667
3277.000000	0.047770
3276.000000	0.047852
3275.000000	0.047916
3274.000000	0.047963
3273.000000	0.047993
3272.000000	0.048011
3271.000000	0.048022
3270.000000	0.048025
3269.000000	0.048016
3268.000000	0.047984
3267.000000	0.047921
3266.000000	0.047826
3265.000000	0.047700
3264.000000	0.047547
3263.000000	0.047372
3262.000000	0.047182
3261.000000	0.046981
3260.000000	0.046766
3259.000000	0.046536
3258.000000	0.046294
3257.000000	0.046051
3256.000000	0.045818
3255.000000	0.045597
3254.000000	0.045383
3253.000000	0.045163
3252.000000	0.044922
3251.000000	0.044657
3250.000000	0.044372
3249.000000	0.044082
3248.000000	0.043803
3247.000000	0.043547
3246.000000	0.043317
3245.000000	0.043109
3244.000000	0.042910
3243.000000	0.042709
3242.000000	0.042502
3241.000000	0.042287
3240.000000	0.042066
3239.000000	0.041843
3238.000000	0.041616
3237.000000	0.041383
3236.000000	0.041144
3235.000000	0.040911
3234.000000	0.040703
3233.000000	0.040532
3232.000000	0.040388
3231.000000	0.040254
3230.000000	0.040116
3229.000000	0.039971
3228.000000	0.039820
3227.000000	0.039668
3226.000000	0.039516
3225.000000	0.039365
3224.000000	0.039214
3223.000000	0.039062
3222.000000	0.038911
3221.000000	0.038765
3220.000000	0.038627
3219.000000	0.038496
3218.000000	0.038373
3217.000000	0.038251
3216.000000	0.038126
3215.000000	0.037997
3214.000000	0.037873
3213.000000	0.037760
3212.000000	0.037654
3211.000000	0.037546
3210.000000	0.037431
3209.000000	0.037309
3208.000000	0.037186
3207.000000	0.037063
3206.000000	0.036943
3205.000000	0.036829
3204.000000	0.036717
3203.000000	0.036608
3202.000000	0.036499
3201.000000	0.036389
3200.000000	0.036274
3199.000000	0.036153
3198.000000	0.036033
3197.000000	0.035918
3196.000000	0.035809
3195.000000	0.035699
3194.000000	0.035582
3193.000000	0.035460
3192.000000	0.035332
3191.000000	0.035205
3190.000000	0.035081
3189.000000	0.034966
3188.000000	0.034860
3187.000000	0.034758
3186.000000	0.034652
3185.000000	0.034538
3184.000000	0.034416
3183.000000	0.034289
3182.000000	0.034163
3181.000000	0.034040
3180.000000	0.033919
3179.000000	0.033796
3178.000000	0.033670
3177.000000	0.033543
3176.000000	0.033418
3175.000000	0.033297
3174.000000	0.033180
3173.000000	0.033066
3172.000000	0.032952
3171.000000	0.032838
3170.000000	0.032723
3169.000000	0.032607
3168.000000	0.032489
3167.000000	0.032367
3166.000000	0.032243
3165.000000	0.032117
3164.000000	0.031992
3163.000000	0.031871
3162.000000	0.031756
3161.000000	0.031643
3160.000000	0.031530
3159.000000	0.031416
3158.000000	0.031301
3157.000000	0.031184
3156.000000	0.031062
3155.000000	0.030934
3154.000000	0.030809
3153.000000	0.030697
3152.000000	0.030598
3151.000000	0.030509
3150.000000	0.030422
3149.000000	0.030333
3148.000000	0.030239
3147.000000	0.030140
3146.000000	0.030041
3145.000000	0.029943
3144.000000	0.029845
3143.000000	0.029743
3142.000000	0.029638
3141.000000	0.029535
3140.000000	0.029443
3139.000000	0.029364
3138.000000	0.029296
3137.000000	0.029228
3136.000000	0.029154
3135.000000	0.029069
3134.000000	0.028984
3133.000000	0.028908
3132.000000	0.028842
3131.000000	0.028779
3130.000000	0.028714
3129.000000	0.028646
3128.000000	0.028579
3127.000000	0.028512
3126.000000	0.028443
3125.000000	0.028369
3124.000000	0.028291
3123.000000	0.028212
3122.000000	0.028135
3121.000000	0.028067
3120.000000	0.028006
3119.000000	0.027953
3118.000000	0.027910
3117.000000	0.027880
3116.000000	0.027866
3115.000000	0.027864
3114.000000	0.027863
3113.000000	0.027855
3112.000000	0.027833
3111.000000	0.027800
3110.000000	0.027766
3109.000000	0.027743
3108.000000	0.027736
3107.000000	0.027743
3106.000000	0.027752
3105.000000	0.027754
3104.000000	0.027742
3103.000000	0.027719
3102.000000	0.027695
3101.000000	0.027682
3100.000000	0.027688
3099.000000	0.027708
3098.000000	0.027735
3097.000000	0.027761
3096.000000	0.027780
3095.000000	0.027785
3094.000000	0.027776
3093.000000	0.027754
3092.000000	0.027732
3091.000000	0.027724
3090.000000	0.027736
3089.000000	0.027760
3088.000000	0.027778
3087.000000	0.027780
3086.000000	0.027768
3085.000000	0.027753
3084.000000	0.027741
3083.000000	0.027734
3082.000000	0.027730
3081.000000	0.027731
3080.000000	0.027740
3079.000000	0.027762
3078.000000	0.027800
3077.000000	0.027850
3076.000000	0.027900
3075.000000	0.027938
3074.000000	0.027952
3073.000000	0.027943
3072.000000	0.027915
3071.000000	0.027878
3070.000000	0.027838
3069.000000	0.027800
3068.000000	0.027773
3067.000000	0.027762
3066.000000	0.027766
3065.000000	0.027775
3064.000000	0.027779
3063.000000	0.027775
3062.000000	0.027760
3061.000000	0.027728
3060.000000	0.027675
3059.000000	0.027604
3058.000000	0.027527
3057.000000	0.027459
3056.000000	0.027403
3055.000000	0.027353
3054.000000	0.027294
3053.000000	0.027222
3052.000000	0.027142
3051.000000	0.027068
3050.000000	0.027006
3049.000000	0.026948
3048.000000	0.026878
3047.000000	0.026791
3046.000000	0.026693
3045.000000	0.026593
3044.000000	0.026496
3043.000000	0.026410
3042.000000	0.026346
3041.000000	0.026307
3040.000000	0.026280
3039.000000	0.026244
3038.000000	0.026181
3037.000000	0.026091
3036.000000	0.025990
3035.000000	0.025897
3034.000000	0.025828
3033.000000	0.025782
3032.000000	0.025745
3031.000000	0.025707
3030.000000	0.025667
3029.000000	0.025621
3028.000000	0.025558
3027.000000	0.025475
3026.000000	0.025380
3025.000000	0.025292
3024.000000	0.025218
3023.000000	0.025147
3022.000000	0.025070
3021.000000	0.024987
3020.000000	0.024902
3019.000000	0.024818
3018.000000	0.024730
3017.000000	0.024638
3016.000000	0.024544
3015.000000	0.024456
3014.000000	0.024385
3013.000000	0.024339
3012.000000	0.024322
3011.000000	0.024330
3010.000000	0.024348
3009.000000	0.024361
3008.000000	0.024359
3007.000000	0.024341
3006.000000	0.024314
3005.000000	0.024287
3004.000000	0.024261
3003.000000	0.024237
3002.000000	0.024213
3001.000000	0.024186
3000.000000	0.024159
2999.000000	0.024138
2998.000000	0.024133
2997.000000	0.024146
2996.000000	0.024167
2995.000000	0.024190
2994.000000	0.024218
2993.000000	0.024262
2992.000000	0.024326
2991.000000	0.024404
2990.000000	0.024487
2989.000000	0.024569
2988.000000	0.024647
2987.000000	0.024721
2986.000000	0.024792
2985.000000	0.024865
2984.000000	0.024938
2983.000000	0.025009
2982.000000	0.025078
2981.000000	0.025146
2980.000000	0.025218
2979.000000	0.025295
2978.000000	0.025373
2977.000000	0.025447
2976.000000	0.025518
2975.000000	0.025590
2974.000000	0.025665
2973.000000	0.025738
2972.000000	0.025800
2971.000000	0.025848
2970.000000	0.025886
2969.000000	0.025920
2968.000000	0.025948
2967.000000	0.025964
2966.000000	0.025965
2965.000000	0.025951
2964.000000	0.025930
2963.000000	0.025908
2962.000000	0.025889
2961.000000	0.025872
2960.000000	0.025848
2959.000000	0.025811
2958.000000	0.025765
2957.000000	0.025712
2956.000000	0.025656
2955.000000	0.025601
2954.000000	0.025556
2953.000000	0.025530
2952.000000	0.025520
2951.000000	0.025516
2950.000000	0.025509
2949.000000	0.025499
2948.000000	0.025491
2947.000000	0.025494
2946.000000	0.025512
2945.000000	0.025549
2944.000000	0.025601
2943.000000	0.025661
2942.000000	0.025725
2941.000000	0.025789
2940.000000	0.025849
2939.000000	0.025900
2938.000000	0.025939
2937.000000	0.025965
2936.000000	0.025977
2935.000000	0.025969
2934.000000	0.025938
2933.000000	0.025880
2932.000000	0.025799
2931.000000	0.025705
2930.000000	0.025608
2929.000000	0.025508
2928.000000	0.025392
2927.000000	0.025252
2926.000000	0.025086
2925.000000	0.024902
2924.000000	0.024701
2923.000000	0.024486
2922.000000	0.024256
2921.000000	0.024014
2920.000000	0.023767
2919.000000	0.023525
2918.000000	0.023311
2917.000000	0.023154
2916.000000	0.023077
2915.000000	0.023089
2914.000000	0.023176
2913.000000	0.023306
2912.000000	0.023439
2911.000000	0.023548
2910.000000	0.023623
2909.000000	0.023667
2908.000000	0.023686
2907.000000	0.023684
2906.000000	0.023670
2905.000000	0.023652
2904.000000	0.023634
2903.000000	0.023614
2902.000000	0.023594
2901.000000	0.023575
2900.000000	0.023556
2899.000000	0.023536
2898.000000	0.023515
2897.000000	0.023501
2896.000000	0.023497
2895.000000	0.023503
2894.000000	0.023512
2893.000000	0.023523
2892.000000	0.023535
2891.000000	0.023549
2890.000000	0.023566
2889.000000	0.023586
2888.000000	0.023610
2887.000000	0.023641
2886.000000	0.023681
2885.000000	0.023729
2884.000000	0.023777
2883.000000	0.023823
2882.000000	0.023867
2881.000000	0.023912
2880.000000	0.023956
2879.000000	0.023996
2878.000000	0.024027
2877.000000	0.024043
2876.000000	0.024042
2875.000000	0.024027
2874.000000	0.024007
2873.000000	0.023986
2872.000000	0.023959
2871.000000	0.023915
2870.000000	0.023849
2869.000000	0.023765
2868.000000	0.023667
2867.000000	0.023560
2866.000000	0.023446
2865.000000	0.023326
2864.000000	0.023201
2863.000000	0.023075
2862.000000	0.022952
2861.000000	0.022835
2860.000000	0.022723
2859.000000	0.022612
2858.000000	0.022497
2857.000000	0.022377
2856.000000	0.022246
2855.000000	0.022103
2854.000000	0.021940
2853.000000	0.021753
2852.000000	0.021538
2851.000000	0.021313
2850.000000	0.021119
2849.000000	0.021005
2848.000000	0.020995
2847.000000	0.021079
2846.000000	0.021213
2845.000000	0.021352
2844.000000	0.021461
2843.000000	0.021530
2842.000000	0.021563
2841.000000	0.021572
2840.000000	0.021564
2839.000000	0.021547
2838.000000	0.021526
2837.000000	0.021505
2836.000000	0.021483
2835.000000	0.021461
2834.000000	0.021439
2833.000000	0.021420
2832.000000	0.021399
2831.000000	0.021369
2830.000000	0.021332
2829.000000	0.021296
2828.000000	0.021266
2827.000000	0.021242
2826.000000	0.021218
2825.000000	0.021190
2824.000000	0.021157
2823.000000	0.021124
2822.000000	0.021097
2821.000000	0.021078
2820.000000	0.021061
2819.000000	0.021041
2818.000000	0.021015
2817.000000	0.020989
2816.000000	0.020964
2815.000000	0.020938
2814.000000	0.020911
2813.000000	0.020883
2812.000000	0.020855
2811.000000	0.020828
2810.000000	0.020805
2809.000000	0.020783
2808.000000	0.020761
2807.000000	0.020738
2806.000000	0.020715
2805.000000	0.020696
2804.000000	0.020679
2803.000000	0.020663
2802.000000	0.020646
2801.000000	0.020626
2800.000000	0.020602
2799.000000	0.020576
2798.000000	0.020554
2797.000000	0.020539
2796.000000	0.020529
2795.000000	0.020515
2794.000000	0.020495
2793.000000	0.020466
2792.000000	0.020433
2791.000000	0.020400
2790.000000	0.020373
2789.000000	0.020354
2788.000000	0.020342
2787.000000	0.020333
2786.000000	0.020327
2785.000000	0.020319
2784.000000	0.020308
2783.000000	0.020291
2782.000000	0.020271
2781.000000	0.020251
2780.000000	0.020230
2779.000000	0.020206
2778.000000	0.020179
2777.000000	0.020151
2776.000000	0.020122
2775.000000	0.020095
2774.000000	0.020075
2773.000000	0.020062
2772.000000	0.020052
2771.000000	0.020039
2770.000000	0.020021
2769.000000	0.020001
2768.000000	0.019976
2767.000000	0.019949
2766.000000	0.019923
2765.000000	0.019902
2764.000000	0.019885
2763.000000	0.019869
2762.000000	0.019851
2761.000000	0.019831
2760.000000	0.019809
2759.000000	0.019781
2758.000000	0.019752
2757.000000	0.019724
2756.000000	0.019701
2755.000000	0.019681
2754.000000	0.019663
2753.000000	0.019645
2752.000000	0.019624
2751.000000	0.019599
2750.000000	0.019578
2749.000000	0.019563
2748.000000	0.019553
2747.000000	0.019542
2746.000000	0.019527
2745.000000	0.019506
2744.000000	0.019479
2743.000000	0.019449
2742.000000	0.019420
2741.000000	0.019398
2740.000000	0.019380
2739.000000	0.019365
2738.000000	0.019348
2737.000000	0.019330
2736.000000	0.019307
2735.000000	0.019281
2734.000000	0.019254
2733.000000	0.019228
2732.000000	0.019202
2731.000000	0.019178
2730.000000	0.019159
2729.000000	0.019143
2728.000000	0.019126
2727.000000	0.019103
2726.000000	0.019079
2725.000000	0.019058
2724.000000	0.019039
2723.000000	0.019017
2722.000000	0.018992
2721.000000	0.018967
2720.000000	0.018945
2719.000000	0.018922
2718.000000	0.018895
2717.000000	0.018865
2716.000000	0.018835
2715.000000	0.018809
2714.000000	0.018790
2713.000000	0.018775
2712.000000	0.018760
2711.000000	0.018739
2710.000000	0.018716
2709.000000	0.018695
2708.000000	0.018677
2707.000000	0.018657
2706.000000	0.018633
2705.000000	0.018608
2704.000000	0.018583
2703.000000	0.018561
2702.000000	0.018541
2701.000000	0.018525
2700.000000	0.018512
2699.000000	0.018498
2698.000000	0.018485
2697.000000	0.018472
2696.000000	0.018457
2695.000000	0.018437
2694.000000	0.018413
2693.000000	0.018389
2692.000000	0.018367
2691.000000	0.018347
2690.000000	0.018328
2689.000000	0.018310
2688.000000	0.018291
2687.000000	0.018269
2686.000000	0.018247
2685.000000	0.018229
2684.000000	0.018215
2683.000000	0.018202
2682.000000	0.018189
2681.000000	0.018176
2680.000000	0.018161
2679.000000	0.018143
2678.000000	0.018126
2677.000000	0.018112
2676.000000	0.018102
2675.000000	0.018093
2674.000000	0.018081
2673.000000	0.018070
2672.000000	0.018057
2671.000000	0.018042
2670.000000	0.018029
2669.000000	0.018023
2668.000000	0.018026
2667.000000	0.018041
2666.000000	0.018065
2665.000000	0.018098
2664.000000	0.018133
2663.000000	0.018163
2662.000000	0.018184
2661.000000	0.018197
2660.000000	0.018204
2659.000000	0.018208
2658.000000	0.018209
2657.000000	0.018207
2656.000000	0.018202
2655.000000	0.018195
2654.000000	0.018187
2653.000000	0.018179
2652.000000	0.018166
2651.000000	0.018147
2650.000000	0.018127
2649.000000	0.018110
2648.000000	0.018094
2647.000000	0.018076
2646.000000	0.018056
2645.000000	0.018038
2644.000000	0.018025
2643.000000	0.018015
2642.000000	0.018006
2641.000000	0.017993
2640.000000	0.017971
2639.000000	0.017942
2638.000000	0.017913
2637.000000	0.017890
2636.000000	0.017868
2635.000000	0.017841
2634.000000	0.017810
2633.000000	0.017781
2632.000000	0.017755
2631.000000	0.017733
2630.000000	0.017716
2629.000000	0.017709
2628.000000	0.017704
2627.000000	0.017692
2626.000000	0.017670
2625.000000	0.017642
2624.000000	0.017609
2623.000000	0.017574
2622.000000	0.017544
2621.000000	0.017521
2620.000000	0.017505
2619.000000	0.017493
2618.000000	0.017482
2617.000000	0.017471
2616.000000	0.017451
2615.000000	0.017417
2614.000000	0.017377
2613.000000	0.017346
2612.000000	0.017326
2611.000000	0.017309
2610.000000	0.017292
2609.000000	0.017277
2608.000000	0.017264
2607.000000	0.017247
2606.000000	0.017224
2605.000000	0.017197
2604.000000	0.017170
2603.000000	0.017145
2602.000000	0.017125
2601.000000	0.017112
2600.000000	0.017100
2599.000000	0.017083
2598.000000	0.017065
2597.000000	0.017050
2596.000000	0.017038
2595.000000	0.017023
2594.000000	0.017002
2593.000000	0.016975
2592.000000	0.016945
2591.000000	0.016913
2590.000000	0.016886
2589.000000	0.016869
2588.000000	0.016856
2587.000000	0.016837
2586.000000	0.016811
2585.000000	0.016786
2584.000000	0.016765
2583.000000	0.016743
2582.000000	0.016721
2581.000000	0.016703
2580.000000	0.016691
2579.000000	0.016680
2578.000000	0.016669
2577.000000	0.016659
2576.000000	0.016646
2575.000000	0.016628
2574.000000	0.016608
2573.000000	0.016590
2572.000000	0.016573
2571.000000	0.016550
2570.000000	0.016522
2569.000000	0.016491
2568.000000	0.016462
2567.000000	0.016438
2566.000000	0.016422
2565.000000	0.016414
2564.000000	0.016407
2563.000000	0.016392
2562.000000	0.016372
2561.000000	0.016354
2560.000000	0.016341
2559.000000	0.016332
2558.000000	0.016328
2557.000000	0.016329
2556.000000	0.016325
2555.000000	0.016307
2554.000000	0.016275
2553.000000	0.016242
2552.000000	0.016218
2551.000000	0.016204
2550.000000	0.016198
2549.000000	0.016195
2548.000000	0.016187
2547.000000	0.016170
2546.000000	0.016148
2545.000000	0.016125
2544.000000	0.016102
2543.000000	0.016080
2542.000000	0.016063
2541.000000	0.016057
2540.000000	0.016055
2539.000000	0.016047
2538.000000	0.016029
2537.000000	0.016009
2536.000000	0.015986
2535.000000	0.015962
2534.000000	0.015941
2533.000000	0.015930
2532.000000	0.015922
2531.000000	0.015908
2530.000000	0.015893
2529.000000	0.015888
2528.000000	0.015893
2527.000000	0.015896
2526.000000	0.015889
2525.000000	0.015878
2524.000000	0.015867
2523.000000	0.015855
2522.000000	0.015840
2521.000000	0.015822
2520.000000	0.015802
2519.000000	0.015776
2518.000000	0.015751
2517.000000	0.015734
2516.000000	0.015727
2515.000000	0.015722
2514.000000	0.015715
2513.000000	0.015704
2512.000000	0.015690
2511.000000	0.015670
2510.000000	0.015649
2509.000000	0.015633
2508.000000	0.015624
2507.000000	0.015618
2506.000000	0.015612
2505.000000	0.015605
2504.000000	0.015595
2503.000000	0.015584
2502.000000	0.015579
2501.000000	0.015583
2500.000000	0.015586
2499.000000	0.015579
2498.000000	0.015563
2497.000000	0.015549
2496.000000	0.015536
2495.000000	0.015524
2494.000000	0.015513
2493.000000	0.015508
2492.000000	0.015506
2491.000000	0.015501
2490.000000	0.015492
2489.000000	0.015484
2488.000000	0.015475
2487.000000	0.015459
2486.000000	0.015437
2485.000000	0.015412
2484.000000	0.015386
2483.000000	0.015363
2482.000000	0.015350
2481.000000	0.015349
2480.000000	0.015349
2479.000000	0.015342
2478.000000	0.015333
2477.000000	0.015329
2476.000000	0.015327
2475.000000	0.015319
2474.000000	0.015305
2473.000000	0.015292
2472.000000	0.015279
2471.000000	0.015263
2470.000000	0.015250
2469.000000	0.015250
2468.000000	0.015263
2467.000000	0.015281
2466.000000	0.015300
2465.000000	0.015320
2464.000000	0.015329
2463.000000	0.015318
2462.000000	0.015294
2461.000000	0.015276
2460.000000	0.015273
2459.000000	0.015276
2458.000000	0.015280
2457.000000	0.015283
2456.000000	0.015283
2455.000000	0.015276
2454.000000	0.015262
2453.000000	0.015249
2452.000000	0.015236
2451.000000	0.015218
2450.000000	0.015198
2449.000000	0.015183
2448.000000	0.015171
2447.000000	0.015151
2446.000000	0.015118
2445.000000	0.015079
2444.000000	0.015042
2443.000000	0.015009
2442.000000	0.014986
2441.000000	0.014974
2440.000000	0.014972
2439.000000	0.014974
2438.000000	0.014979
2437.000000	0.014985
2436.000000	0.014980
2435.000000	0.014956
2434.000000	0.014919
2433.000000	0.014886
2432.000000	0.014862
2431.000000	0.014841
2430.000000	0.014816
2429.000000	0.014790
2428.000000	0.014764
2427.000000	0.014740
2426.000000	0.014724
2425.000000	0.014719
2424.000000	0.014717
2423.000000	0.014714
2422.000000	0.014709
2421.000000	0.014706
2420.000000	0.014697
2419.000000	0.014677
2418.000000	0.014653
2417.000000	0.014637
2416.000000	0.014627
2415.000000	0.014614
2414.000000	0.014601
2413.000000	0.014596
2412.000000	0.014593
2411.000000	0.014576
2410.000000	0.014540
2409.000000	0.014495
2408.000000	0.014456
2407.000000	0.014427
2406.000000	0.014410
2405.000000	0.014403
2404.000000	0.014397
2403.000000	0.014381
2402.000000	0.014357
2401.000000	0.014332
2400.000000	0.014311
2399.000000	0.014291
2398.000000	0.014273
2397.000000	0.014257
2396.000000	0.014244
2395.000000	0.014232
2394.000000	0.014228
2393.000000	0.014237
2392.000000	0.014246
2391.000000	0.014236
2390.000000	0.014204
2389.000000	0.014158
2388.000000	0.014109
2387.000000	0.014062
2386.000000	0.014020
2385.000000	0.013980
2384.000000	0.013934
2383.000000	0.013874
2382.000000	0.013805
2381.000000	0.013743
2380.000000	0.013700
2379.000000	0.013677
2378.000000	0.013679
2377.000000	0.013702
2376.000000	0.013733
2375.000000	0.013748
2374.000000	0.013739
2373.000000	0.013709
2372.000000	0.013664
2371.000000	0.013606
2370.000000	0.013549
2369.000000	0.013510
2368.000000	0.013497
2367.000000	0.013504
2366.000000	0.013526
2365.000000	0.013558
2364.000000	0.013589
2363.000000	0.013614
2362.000000	0.013639
2361.000000	0.013666
2360.000000	0.013679
2359.000000	0.013666
2358.000000	0.013646
2357.000000	0.013642
2356.000000	0.013657
2355.000000	0.013671
2354.000000	0.013663
2353.000000	0.013627
2352.000000	0.013583
2351.000000	0.013566
2350.000000	0.013605
2349.000000	0.013703
2348.000000	0.013825
2347.000000	0.013912
2346.000000	0.013925
2345.000000	0.013886
2344.000000	0.013852
2343.000000	0.013850
2342.000000	0.013872
2341.000000	0.013908
2340.000000	0.013943
2339.000000	0.013957
2338.000000	0.013948
2337.000000	0.013933
2336.000000	0.013928
2335.000000	0.013931
2334.000000	0.013930
2333.000000	0.013915
2332.000000	0.013879
2331.000000	0.013841
2330.000000	0.013857
2329.000000	0.013999
2328.000000	0.014290
2327.000000	0.014650
2326.000000	0.014942
2325.000000	0.015051
2324.000000	0.014959
2323.000000	0.014747
2322.000000	0.014525
2321.000000	0.014365
2320.000000	0.014273
2319.000000	0.014221
2318.000000	0.014187
2317.000000	0.014159
2316.000000	0.014126
2315.000000	0.014076
2314.000000	0.014015
2313.000000	0.013955
2312.000000	0.013900
2311.000000	0.013851
2310.000000	0.013813
2309.000000	0.013797
2308.000000	0.013803
2307.000000	0.013823
2306.000000	0.013850
2305.000000	0.013881
2304.000000	0.013913
2303.000000	0.013938
2302.000000	0.013960
2301.000000	0.013983
2300.000000	0.014008
2299.000000	0.014033
2298.000000	0.014063
2297.000000	0.014111
2296.000000	0.014178
2295.000000	0.014258
2294.000000	0.014345
2293.000000	0.014435
2292.000000	0.014512
2291.000000	0.014568
2290.000000	0.014610
2289.000000	0.014653
2288.000000	0.014688
2287.000000	0.014689
2286.000000	0.014651
2285.000000	0.014588
2284.000000	0.014518
2283.000000	0.014450
2282.000000	0.014392
2281.000000	0.014348
2280.000000	0.014313
2279.000000	0.014274
2278.000000	0.014232
2277.000000	0.014195
2276.000000	0.014166
2275.000000	0.014139
2274.000000	0.014116
2273.000000	0.014100
2272.000000	0.014076
2271.000000	0.014032
2270.000000	0.013978
2269.000000	0.013933
2268.000000	0.013891
2267.000000	0.013838
2266.000000	0.013781
2265.000000	0.013745
2264.000000	0.013739
2263.000000	0.013755
2262.000000	0.013791
2261.000000	0.013840
2260.000000	0.013872
2259.000000	0.013850
2258.000000	0.013779
2257.000000	0.013696
2256.000000	0.013630
2255.000000	0.013589
2254.000000	0.013571
2253.000000	0.013575
2252.000000	0.013577
2251.000000	0.013562
2250.000000	0.013546
2249.000000	0.013557
2248.000000	0.013586
2247.000000	0.013600
2246.000000	0.013587
2245.000000	0.013570
2244.000000	0.013561
2243.000000	0.013562
2242.000000	0.013580
2241.000000	0.013617
2240.000000	0.013642
2239.000000	0.013615
2238.000000	0.013544
2237.000000	0.013474
2236.000000	0.013436
2235.000000	0.013420
2234.000000	0.013422
2233.000000	0.013445
2232.000000	0.013474
2231.000000	0.013477
2230.000000	0.013446
2229.000000	0.013409
2228.000000	0.013387
2227.000000	0.013377
2226.000000	0.013374
2225.000000	0.013372
2224.000000	0.013353
2223.000000	0.013300
2222.000000	0.013241
2221.000000	0.013222
2220.000000	0.013246
2219.000000	0.013276
2218.000000	0.013289
2217.000000	0.013292
2216.000000	0.013295
2215.000000	0.013292
2214.000000	0.013283
2213.000000	0.013272
2212.000000	0.013251
2211.000000	0.013215
2210.000000	0.013186
2209.000000	0.013191
2208.000000	0.013213
2207.000000	0.013220
2206.000000	0.013211
2205.000000	0.013198
2204.000000	0.013177
2203.000000	0.013145
2202.000000	0.013129
2201.000000	0.013155
2200.000000	0.013189
2199.000000	0.013191
2198.000000	0.013173
2197.000000	0.013175
2196.000000	0.013186
2195.000000	0.013168
2194.000000	0.013136
2193.000000	0.013138
2192.000000	0.013176
2191.000000	0.013208
2190.000000	0.013222
2189.000000	0.013247
2188.000000	0.013285
2187.000000	0.013295
2186.000000	0.013246
2185.000000	0.013135
2184.000000	0.012960
2183.000000	0.012751
2182.000000	0.012603
2181.000000	0.012600
2180.000000	0.012701
2179.000000	0.012774
2178.000000	0.012746
2177.000000	0.012659
2176.000000	0.012588
2175.000000	0.012579
2174.000000	0.012663
2173.000000	0.012847
2172.000000	0.013087
2171.000000	0.013321
2170.000000	0.013525
2169.000000	0.013693
2168.000000	0.013786
2167.000000	0.013779
2166.000000	0.013750
2165.000000	0.013824
2164.000000	0.013984
2163.000000	0.014003
2162.000000	0.013592
2161.000000	0.012647
2160.000000	0.011381
2159.000000	0.010245
2158.000000	0.009623
2157.000000	0.009556
2156.000000	0.009784
2155.000000	0.010053
2154.000000	0.010293
2153.000000	0.010529
2152.000000	0.010733
2151.000000	0.010847
2150.000000	0.010883
2149.000000	0.010890
2148.000000	0.010878
2147.000000	0.010837
2146.000000	0.010806
2145.000000	0.010838
2144.000000	0.010915
2143.000000	0.010977
2142.000000	0.011007
2141.000000	0.011031
2140.000000	0.011044
2139.000000	0.011005
2138.000000	0.010891
2137.000000	0.010722
2136.000000	0.010541
2135.000000	0.010410
2134.000000	0.010397
2133.000000	0.010514
2132.000000	0.010685
2131.000000	0.010836
2130.000000	0.010960
2129.000000	0.011088
2128.000000	0.011216
2127.000000	0.011319
2126.000000	0.011408
2125.000000	0.011511
2124.000000	0.011615
2123.000000	0.011682
2122.000000	0.011710
2121.000000	0.011734
2120.000000	0.011777
2119.000000	0.011845
2118.000000	0.011943
2117.000000	0.012066
2116.000000	0.012174
2115.000000	0.012232
2114.000000	0.012252
2113.000000	0.012266
2112.000000	0.012273
2111.000000	0.012249
2110.000000	0.012205
2109.000000	0.012172
2108.000000	0.012151
2107.000000	0.012113
2106.000000	0.012066
2105.000000	0.012043
2104.000000	0.012050
2103.000000	0.012057
2102.000000	0.012052
2101.000000	0.012049
2100.000000	0.012046
2099.000000	0.012006
2098.000000	0.011910
2097.000000	0.011778
2096.000000	0.011651
2095.000000	0.011574
2094.000000	0.011587
2093.000000	0.011686
2092.000000	0.011807
2091.000000	0.011885
2090.000000	0.011914
2089.000000	0.011933
2088.000000	0.011961
2087.000000	0.011986
2086.000000	0.012005
2085.000000	0.012034
2084.000000	0.012068
2083.000000	0.012096
2082.000000	0.012123
2081.000000	0.012154
2080.000000	0.012160
2079.000000	0.012117
2078.000000	0.012054
2077.000000	0.012019
2076.000000	0.012011
2075.000000	0.011994
2074.000000	0.011956
2073.000000	0.011916
2072.000000	0.011874
2071.000000	0.011818
2070.000000	0.011766
2069.000000	0.011740
2068.000000	0.011728
2067.000000	0.011707
2066.000000	0.011695
2065.000000	0.011717
2064.000000	0.011750
2063.000000	0.011755
2062.000000	0.011740
2061.000000	0.011730
2060.000000	0.011714
2059.000000	0.011682
2058.000000	0.011662
2057.000000	0.011674
2056.000000	0.011703
2055.000000	0.011770
2054.000000	0.011977
2053.000000	0.012340
2052.000000	0.012668
2051.000000	0.012711
2050.000000	0.012444
2049.000000	0.012096
2048.000000	0.011869
2047.000000	0.011769
2046.000000	0.011724
2045.000000	0.011705
2044.000000	0.011683
2043.000000	0.011614
2042.000000	0.011522
2041.000000	0.011490
2040.000000	0.011543
2039.000000	0.011619
2038.000000	0.011674
2037.000000	0.011696
2036.000000	0.011628
2035.000000	0.011426
2034.000000	0.011166
2033.000000	0.010982
2032.000000	0.010883
2031.000000	0.010777
2030.000000	0.010656
2029.000000	0.010601
2028.000000	0.010618
2027.000000	0.010631
2026.000000	0.010614
2025.000000	0.010601
2024.000000	0.010577
2023.000000	0.010502
2022.000000	0.010426
2021.000000	0.010428
2020.000000	0.010482
2019.000000	0.010495
2018.000000	0.010467
2017.000000	0.010470
2016.000000	0.010496
2015.000000	0.010481
2014.000000	0.010460
2013.000000	0.010527
2012.000000	0.010671
2011.000000	0.010769
2010.000000	0.010745
2009.000000	0.010611
2008.000000	0.010382
2007.000000	0.010109
2006.000000	0.009928
2005.000000	0.009944
2004.000000	0.010079
2003.000000	0.010177
2002.000000	0.010209
2001.000000	0.010253
2000.000000	0.010322
1999.000000	0.010360
1998.000000	0.010375
1997.000000	0.010436
1996.000000	0.010542
1995.000000	0.010615
1994.000000	0.010629
1993.000000	0.010629
1992.000000	0.010634
1991.000000	0.010638
1990.000000	0.010680
1989.000000	0.010803
1988.000000	0.010948
1987.000000	0.011018
1986.000000	0.011031
1985.000000	0.011093
1984.000000	0.011249
1983.000000	0.011446
1982.000000	0.011619
1981.000000	0.011672
1980.000000	0.011441
1979.000000	0.010869
1978.000000	0.010199
1977.000000	0.009777
1976.000000	0.009656
1975.000000	0.009625
1974.000000	0.009568
1973.000000	0.009546
1972.000000	0.009577
1971.000000	0.009583
1970.000000	0.009551
1969.000000	0.009554
1968.000000	0.009593
1967.000000	0.009595
1966.000000	0.009561
1965.000000	0.009550
1964.000000	0.009539
1963.000000	0.009449
1962.000000	0.009299
1961.000000	0.009191
1960.000000	0.009158
1959.000000	0.009158
1958.000000	0.009194
1957.000000	0.009287
1956.000000	0.009376
1955.000000	0.009375
1954.000000	0.009312
1953.000000	0.009289
1952.000000	0.009324
1951.000000	0.009349
1950.000000	0.009352
1949.000000	0.009382
1948.000000	0.009429
1947.000000	0.009435
1946.000000	0.009403
1945.000000	0.009400
1944.000000	0.009438
1943.000000	0.009463
1942.000000	0.009464
1941.000000	0.009480
1940.000000	0.009499
1939.000000	0.009476
1938.000000	0.009419
1937.000000	0.009383
1936.000000	0.009368
1935.000000	0.009337
1934.000000	0.009300
1933.000000	0.009297
1932.000000	0.009317
1931.000000	0.009310
1930.000000	0.009284
1929.000000	0.009292
1928.000000	0.009325
1927.000000	0.009326
1926.000000	0.009293
1925.000000	0.009292
1924.000000	0.009351
1923.000000	0.009423
1922.000000	0.009465
1921.000000	0.009483
1920.000000	0.009482
1919.000000	0.009460
1918.000000	0.009440
1917.000000	0.009453
1916.000000	0.009479
1915.000000	0.009471
1914.000000	0.009435
1913.000000	0.009414
1912.000000	0.009409
1911.000000	0.009388
1910.000000	0.009360
1909.000000	0.009369
1908.000000	0.009409
1907.000000	0.009434
1906.000000	0.009429
1905.000000	0.009425
1904.000000	0.009429
1903.000000	0.009419
1902.000000	0.009399
1901.000000	0.009392
1900.000000	0.009385
1899.000000	0.009346
1898.000000	0.009289
1897.000000	0.009265
1896.000000	0.009279
1895.000000	0.009288
1894.000000	0.009274
1893.000000	0.009252
1892.000000	0.009226
1891.000000	0.009189
1890.000000	0.009168
1889.000000	0.009189
1888.000000	0.009217
1887.000000	0.009199
1886.000000	0.009152
1885.000000	0.009130
1884.000000	0.009135
1883.000000	0.009126
1882.000000	0.009099
1881.000000	0.009092
1880.000000	0.009108
1879.000000	0.009112
1878.000000	0.009101
1877.000000	0.009108
1876.000000	0.009128
1875.000000	0.009118
1874.000000	0.009067
1873.000000	0.009006
1872.000000	0.008945
1871.000000	0.008879
1870.000000	0.008842
1869.000000	0.008881
1868.000000	0.008964
1867.000000	0.009007
1866.000000	0.008992
1865.000000	0.008964
1864.000000	0.008940
1863.000000	0.008906
1862.000000	0.008871
1861.000000	0.008866
1860.000000	0.008884
1859.000000	0.008886
1858.000000	0.008869
1857.000000	0.008860
1856.000000	0.008860
1855.000000	0.008840
1854.000000	0.008806
1853.000000	0.008789
1852.000000	0.008782
1851.000000	0.008752
1850.000000	0.008701
1849.000000	0.008660
1848.000000	0.008627
1847.000000	0.008579
1846.000000	0.008538
1845.000000	0.008565
1844.000000	0.008648
1843.000000	0.008688
1842.000000	0.008656
1841.000000	0.008612
1840.000000	0.008587
1839.000000	0.008563
1838.000000	0.008544
1837.000000	0.008556
1836.000000	0.008588
1835.000000	0.008589
1834.000000	0.008545
1833.000000	0.008482
1832.000000	0.008422
1831.000000	0.008373
1830.000000	0.008361
1829.000000	0.008393
1828.000000	0.008426
1827.000000	0.008421
1826.000000	0.008410
1825.000000	0.008445
1824.000000	0.008505
1823.000000	0.008522
1822.000000	0.008483
1821.000000	0.008418
1820.000000	0.008338
1819.000000	0.008233
1818.000000	0.008139
1817.000000	0.008115
1816.000000	0.008153
1815.000000	0.008193
1814.000000	0.008209
1813.000000	0.008233
1812.000000	0.008281
1811.000000	0.008321
1810.000000	0.008335
1809.000000	0.008344
1808.000000	0.008353
1807.000000	0.008340
1806.000000	0.008302
1805.000000	0.008267
1804.000000	0.008241
1803.000000	0.008210
1802.000000	0.008186
1801.000000	0.008205
1800.000000	0.008262
1799.000000	0.008307
1798.000000	0.008318
1797.000000	0.008315
1796.000000	0.008300
1795.000000	0.008257
1794.000000	0.008207
1793.000000	0.008214
1792.000000	0.008287
1791.000000	0.008341
1790.000000	0.008343
1789.000000	0.008329
1788.000000	0.008316
1787.000000	0.008292
1786.000000	0.008267
1785.000000	0.008271
1784.000000	0.008286
1783.000000	0.008271
1782.000000	0.008239
1781.000000	0.008240
1780.000000	0.008269
1779.000000	0.008265
1778.000000	0.008215
1777.000000	0.008171
1776.000000	0.008164
1775.000000	0.008172
1774.000000	0.008180
1773.000000	0.008225
1772.000000	0.008292
1771.000000	0.008306
1770.000000	0.008285
1769.000000	0.008309
1768.000000	0.008373
1767.000000	0.008394
1766.000000	0.008347
1765.000000	0.008290
1764.000000	0.008265
1763.000000	0.008270
1762.000000	0.008298
1761.000000	0.008345
1760.000000	0.008379
1759.000000	0.008372
1758.000000	0.008360
1757.000000	0.008402
1756.000000	0.008472
1755.000000	0.008499
1754.000000	0.008491
1753.000000	0.008510
1752.000000	0.008562
1751.000000	0.008583
1750.000000	0.008558
1749.000000	0.008572
1748.000000	0.008650
1747.000000	0.008709
1746.000000	0.008723
1745.000000	0.008750
1744.000000	0.008808
1743.000000	0.008844
1742.000000	0.008851
1741.000000	0.008915
1740.000000	0.009060
1739.000000	0.009175
1738.000000	0.009213
1737.000000	0.009275
1736.000000	0.009439
1735.000000	0.009680
1734.000000	0.009904
1733.000000	0.010018
1732.000000	0.010024
1731.000000	0.009991
1730.000000	0.010000
1729.000000	0.010107
1728.000000	0.010262
1727.000000	0.010375
1726.000000	0.010440
1725.000000	0.010547
1724.000000	0.010725
1723.000000	0.010871
1722.000000	0.010925
1721.000000	0.010972
1720.000000	0.011117
1719.000000	0.011366
1718.000000	0.011667
1717.000000	0.011976
1716.000000	0.012244
1715.000000	0.012426
1714.000000	0.012581
1713.000000	0.012821
1712.000000	0.013155
1711.000000	0.013498
1710.000000	0.013828
1709.000000	0.014209
1708.000000	0.014703
1707.000000	0.015334
1706.000000	0.016152
1705.000000	0.017155
1704.000000	0.018180
1703.000000	0.019164
1702.000000	0.020399
1701.000000	0.022584
1700.000000	0.025626
1699.000000	0.028199
1698.000000	0.029880
1697.000000	0.031344
1696.000000	0.032881
1695.000000	0.034120
1694.000000	0.034769
1693.000000	0.035104
1692.000000	0.035452
1691.000000	0.035911
1690.000000	0.036484
1689.000000	0.037156
1688.000000	0.037868
1687.000000	0.038558
1686.000000	0.039281
1685.000000	0.040388
1684.000000	0.041950
1683.000000	0.043326
1682.000000	0.044298
1681.000000	0.045226
1680.000000	0.046255
1679.000000	0.047270
1678.000000	0.048194
1677.000000	0.049199
1676.000000	0.050519
1675.000000	0.052059
1674.000000	0.053429
1673.000000	0.054506
1672.000000	0.055510
1671.000000	0.056675
1670.000000	0.058130
1669.000000	0.059768
1668.000000	0.061278
1667.000000	0.062451
1666.000000	0.063371
1665.000000	0.064289
1664.000000	0.065434
1663.000000	0.066824
1662.000000	0.068242
1661.000000	0.069512
1660.000000	0.070634
1659.000000	0.071615
1658.000000	0.072450
1657.000000	0.073164
1656.000000	0.073851
1655.000000	0.074615
1654.000000	0.075892
1653.000000	0.077868
1652.000000	0.079444
1651.000000	0.079971
1650.000000	0.080032
1649.000000	0.080222
1648.000000	0.080894
1647.000000	0.082012
1646.000000	0.083153
1645.000000	0.084005
1644.000000	0.084606
1643.000000	0.085091
1642.000000	0.085562
1641.000000	0.086083
1640.000000	0.086638
1639.000000	0.087153
1638.000000	0.087630
1637.000000	0.088283
1636.000000	0.089341
1635.000000	0.090525
1634.000000	0.091369
1633.000000	0.091902
1632.000000	0.092349
1631.000000	0.092792
1630.000000	0.093252
1629.000000	0.093810
1628.000000	0.094502
1627.000000	0.095180
1626.000000	0.095702
1625.000000	0.096138
1624.000000	0.096663
1623.000000	0.097263
1622.000000	0.097717
1621.000000	0.097930
1620.000000	0.097989
1619.000000	0.097947
1618.000000	0.097769
1617.000000	0.097450
1616.000000	0.097007
1615.000000	0.096391
1614.000000	0.095583
1613.000000	0.094640
1612.000000	0.093606
1611.000000	0.092465
1610.000000	0.091194
1609.000000	0.089811
1608.000000	0.088356
1607.000000	0.086839
1606.000000	0.085243
1605.000000	0.083553
1604.000000	0.081783
1603.000000	0.079957
1602.000000	0.078096
1601.000000	0.076220
1600.000000	0.074363
1599.000000	0.072554
1598.000000	0.070794
1597.000000	0.069060
1596.000000	0.067350
1595.000000	0.065697
1594.000000	0.064125
1593.000000	0.062612
1592.000000	0.061136
1591.000000	0.059717
1590.000000	0.058373
1589.000000	0.057087
1588.000000	0.055847
1587.000000	0.054690
1586.000000	0.053645
1585.000000	0.052683
1584.000000	0.051771
1583.000000	0.050944
1582.000000	0.050237
1581.000000	0.049624
1580.000000	0.049088
1579.000000	0.048688
1578.000000	0.048477
1577.000000	0.048413
1576.000000	0.048397
1575.000000	0.048366
1574.000000	0.048323
1573.000000	0.048287
1572.000000	0.048293
1571.000000	0.048476
1570.000000	0.048991
1569.000000	0.049712
1568.000000	0.050348
1567.000000	0.050885
1566.000000	0.051500
1565.000000	0.052239
1564.000000	0.052994
1563.000000	0.053646
1562.000000	0.054197
1561.000000	0.054680
1560.000000	0.055554
1559.000000	0.057376
1558.000000	0.059286
1557.000000	0.060400
1556.000000	0.061104
1555.000000	0.061881
1554.000000	0.062843
1553.000000	0.063785
1552.000000	0.064586
1551.000000	0.065401
1550.000000	0.066377
1549.000000	0.067393
1548.000000	0.068220
1547.000000	0.068865
1546.000000	0.069517
1545.000000	0.070292
1544.000000	0.071102
1543.000000	0.071855
1542.000000	0.072671
1541.000000	0.073804
1540.000000	0.075239
1539.000000	0.076520
1538.000000	0.077291
1537.000000	0.077648
1536.000000	0.077877
1535.000000	0.078287
1534.000000	0.079129
1533.000000	0.080277
1532.000000	0.081293
1531.000000	0.082031
1530.000000	0.082641
1529.000000	0.083262
1528.000000	0.083972
1527.000000	0.084809
1526.000000	0.085726
1525.000000	0.086547
1524.000000	0.087191
1523.000000	0.087846
1522.000000	0.088786
1521.000000	0.089874
1520.000000	0.090644
1519.000000	0.091048
1518.000000	0.091406
1517.000000	0.091867
1516.000000	0.092278
1515.000000	0.092450
1514.000000	0.092350
1513.000000	0.092002
1512.000000	0.091453
1511.000000	0.090800
1510.000000	0.090103
1509.000000	0.089313
1508.000000	0.088333
1507.000000	0.087170
1506.000000	0.086003
1505.000000	0.084872
1504.000000	0.083654
1503.000000	0.082348
1502.000000	0.080964
1501.000000	0.079469
1500.000000	0.077905
1499.000000	0.076359
1498.000000	0.074804
1497.000000	0.073123
1496.000000	0.071347
1495.000000	0.069635
1494.000000	0.068029
1493.000000	0.066441
1492.000000	0.064784
1491.000000	0.063040
1490.000000	0.061273
1489.000000	0.059607
1488.000000	0.058129
1487.000000	0.056804
1486.000000	0.055560
1485.000000	0.054383
1484.000000	0.053284
1483.000000	0.052249
1482.000000	0.051264
1481.000000	0.050368
1480.000000	0.049598
1479.000000	0.048931
1478.000000	0.048319
1477.000000	0.047788
1476.000000	0.047395
1475.000000	0.047128
1474.000000	0.046941
1473.000000	0.046848
1472.000000	0.046863
1471.000000	0.046890
1470.000000	0.046840
1469.000000	0.046721
1468.000000	0.046583
1467.000000	0.046464
1466.000000	0.046410
1465.000000	0.046478
1464.000000	0.046659
1463.000000	0.046856
1462.000000	0.046998
1461.000000	0.047114
1460.000000	0.047303
1459.000000	0.047679
1458.000000	0.048396
1457.000000	0.049427
1456.000000	0.050340
1455.000000	0.050823
1454.000000	0.051026
1453.000000	0.051164
1452.000000	0.051292
1451.000000	0.051361
1450.000000	0.051339
1449.000000	0.051254
1448.000000	0.051133
1447.000000	0.050964
1446.000000	0.050710
1445.000000	0.050356
1444.000000	0.049918
1443.000000	0.049421
1442.000000	0.048877
1441.000000	0.048307
1440.000000	0.047738
1439.000000	0.047178
1438.000000	0.046607
1437.000000	0.046048
1436.000000	0.045565
1435.000000	0.045157
1434.000000	0.044764
1433.000000	0.044361
1432.000000	0.043979
1431.000000	0.043663
1430.000000	0.043431
1429.000000	0.043271
1428.000000	0.043162
1427.000000	0.043080
1426.000000	0.043018
1425.000000	0.043003
1424.000000	0.043062
1423.000000	0.043161
1422.000000	0.043239
1421.000000	0.043302
1420.000000	0.043452
1419.000000	0.043762
1418.000000	0.044116
1417.000000	0.044385
1416.000000	0.044597
1415.000000	0.044801
1414.000000	0.045005
1413.000000	0.045213
1412.000000	0.045437
1411.000000	0.045669
1410.000000	0.045873
1409.000000	0.046029
1408.000000	0.046138
1407.000000	0.046214
1406.000000	0.046283
1405.000000	0.046367
1404.000000	0.046448
1403.000000	0.046468
1402.000000	0.046394
1401.000000	0.046263
1400.000000	0.046150
1399.000000	0.046083
1398.000000	0.046022
1397.000000	0.045940
1396.000000	0.045863
1395.000000	0.045829
1394.000000	0.045830
1393.000000	0.045822
1392.000000	0.045775
1391.000000	0.045692
1390.000000	0.045593
1389.000000	0.045507
1388.000000	0.045452
1387.000000	0.045408
1386.000000	0.045326
1385.000000	0.045192
1384.000000	0.045027
1383.000000	0.044853
1382.000000	0.044677
1381.000000	0.044507
1380.000000	0.044349
1379.000000	0.044201
1378.000000	0.044051
1377.000000	0.043893
1376.000000	0.043750
1375.000000	0.043652
1374.000000	0.043608
1373.000000	0.043589
1372.000000	0.043554
1371.000000	0.043471
1370.000000	0.043334
1369.000000	0.043156
1368.000000	0.042949
1367.000000	0.042702
1366.000000	0.042405
1365.000000	0.042073
1364.000000	0.041755
1363.000000	0.041492
1362.000000	0.041282
1361.000000	0.041095
1360.000000	0.040910
1359.000000	0.040722
1358.000000	0.040535
1357.000000	0.040357
1356.000000	0.040199
1355.000000	0.040062
1354.000000	0.039940
1353.000000	0.039827
1352.000000	0.039726
1351.000000	0.039645
1350.000000	0.039584
1349.000000	0.039542
1348.000000	0.039518
1347.000000	0.039505
1346.000000	0.039494
1345.000000	0.039481
1344.000000	0.039464
1343.000000	0.039438
1342.000000	0.039404
1341.000000	0.039378
1340.000000	0.039381
1339.000000	0.039410
1338.000000	0.039437
1337.000000	0.039446
1336.000000	0.039434
1335.000000	0.039401
1334.000000	0.039350
1333.000000	0.039286
1332.000000	0.039222
1331.000000	0.039164
1330.000000	0.039103
1329.000000	0.039038
1328.000000	0.038977
1327.000000	0.038922
1326.000000	0.038867
1325.000000	0.038810
1324.000000	0.038756
1323.000000	0.038706
1322.000000	0.038656
1321.000000	0.038608
1320.000000	0.038574
1319.000000	0.038557
1318.000000	0.038543
1317.000000	0.038519
1316.000000	0.038482
1315.000000	0.038438
1314.000000	0.038392
1313.000000	0.038350
1312.000000	0.038311
1311.000000	0.038270
1310.000000	0.038213
1309.000000	0.038143
1308.000000	0.038075
1307.000000	0.038016
1306.000000	0.037959
1305.000000	0.037894
1304.000000	0.037823
1303.000000	0.037750
1302.000000	0.037672
1301.000000	0.037590
1300.000000	0.037506
1299.000000	0.037427
1298.000000	0.037351
1297.000000	0.037283
1296.000000	0.037231
1295.000000	0.037199
1294.000000	0.037182
1293.000000	0.037171
1292.000000	0.037164
1291.000000	0.037157
1290.000000	0.037148
1289.000000	0.037138
1288.000000	0.037129
1287.000000	0.037118
1286.000000	0.037097
1285.000000	0.037063
1284.000000	0.037022
1283.000000	0.036973
1282.000000	0.036914
1281.000000	0.036843
1280.000000	0.036769
1279.000000	0.036699
1278.000000	0.036633
1277.000000	0.036574
1276.000000	0.036524
1275.000000	0.036482
1274.000000	0.036444
1273.000000	0.036416
1272.000000	0.036412
1271.000000	0.036438
1270.000000	0.036486
1269.000000	0.036550
1268.000000	0.036630
1267.000000	0.036729
1266.000000	0.036847
1265.000000	0.036985
1264.000000	0.037152
1263.000000	0.037351
1262.000000	0.037581
1261.000000	0.037846
1260.000000	0.038149
1259.000000	0.038479
1258.000000	0.038820
1257.000000	0.039167
1256.000000	0.039526
1255.000000	0.039895
1254.000000	0.040261
1253.000000	0.040620
1252.000000	0.040972
1251.000000	0.041314
1250.000000	0.041633
1249.000000	0.041927
1248.000000	0.042205
1247.000000	0.042467
1246.000000	0.042708
1245.000000	0.042926
1244.000000	0.043127
1243.000000	0.043308
1242.000000	0.043466
1241.000000	0.043600
1240.000000	0.043715
1239.000000	0.043808
1238.000000	0.043875
1237.000000	0.043920
1236.000000	0.043952
1235.000000	0.043968
1234.000000	0.043959
1233.000000	0.043931
1232.000000	0.043889
1231.000000	0.043833
1230.000000	0.043754
1229.000000	0.043650
1228.000000	0.043526
1227.000000	0.043384
1226.000000	0.043222
1225.000000	0.043043
1224.000000	0.042851
1223.000000	0.042640
1222.000000	0.042410
1221.000000	0.042168
1220.000000	0.041924
1219.000000	0.041672
1218.000000	0.041402
1217.000000	0.041107
1216.000000	0.040791
1215.000000	0.040460
1214.000000	0.040115
1213.000000	0.039757
1212.000000	0.039389
1211.000000	0.039013
1210.000000	0.038626
1209.000000	0.038227
1208.000000	0.037818
1207.000000	0.037397
1206.000000	0.036968
1205.000000	0.036538
1204.000000	0.036118
1203.000000	0.035711
1202.000000	0.035313
1201.000000	0.034924
1200.000000	0.034553
1199.000000	0.034205
1198.000000	0.033878
1197.000000	0.033571
1196.000000	0.033289
1195.000000	0.033032
1194.000000	0.032792
1193.000000	0.032568
1192.000000	0.032367
1191.000000	0.032194
1190.000000	0.032041
1189.000000	0.031896
1188.000000	0.031760
1187.000000	0.031644
1186.000000	0.031552
1185.000000	0.031484
1184.000000	0.031438
1183.000000	0.031416
1182.000000	0.031417
1181.000000	0.031444
1180.000000	0.031505
1179.000000	0.031606
1178.000000	0.031749
1177.000000	0.031931
1176.000000	0.032152
1175.000000	0.032407
1174.000000	0.032681
1173.000000	0.032964
1172.000000	0.033250
1171.000000	0.033531
1170.000000	0.033797
1169.000000	0.034049
1168.000000	0.034293
1167.000000	0.034537
1166.000000	0.034775
1165.000000	0.035000
1164.000000	0.035204
1163.000000	0.035377
1162.000000	0.035508
1161.000000	0.035591
1160.000000	0.035631
1159.000000	0.035631
1158.000000	0.035593
1157.000000	0.035519
1156.000000	0.035410
1155.000000	0.035264
1154.000000	0.035078
1153.000000	0.034859
1152.000000	0.034621
1151.000000	0.034369
1150.000000	0.034105
1149.000000	0.033830
1148.000000	0.033550
1147.000000	0.033271
1146.000000	0.032993
1145.000000	0.032728
1144.000000	0.032487
1143.000000	0.032277
1142.000000	0.032092
1141.000000	0.031926
1140.000000	0.031779
1139.000000	0.031651
1138.000000	0.031536
1137.000000	0.031438
1136.000000	0.031362
1135.000000	0.031308
1134.000000	0.031264
1133.000000	0.031223
1132.000000	0.031186
1131.000000	0.031153
1130.000000	0.031117
1129.000000	0.031074
1128.000000	0.031027
1127.000000	0.030976
1126.000000	0.030918
1125.000000	0.030855
1124.000000	0.030793
1123.000000	0.030732
1122.000000	0.030666
1121.000000	0.030595
1120.000000	0.030528
1119.000000	0.030476
1118.000000	0.030439
1117.000000	0.030407
1116.000000	0.030373
1115.000000	0.030331
1114.000000	0.030284
1113.000000	0.030247
1112.000000	0.030231
1111.000000	0.030234
1110.000000	0.030246
1109.000000	0.030270
1108.000000	0.030316
1107.000000	0.030386
1106.000000	0.030466
1105.000000	0.030548
1104.000000	0.030635
1103.000000	0.030723
1102.000000	0.030806
1101.000000	0.030889
1100.000000	0.030986
1099.000000	0.031108
1098.000000	0.031253
1097.000000	0.031421
1096.000000	0.031628
1095.000000	0.031884
1094.000000	0.032184
1093.000000	0.032518
1092.000000	0.032883
1091.000000	0.033279
1090.000000	0.033709
1089.000000	0.034181
1088.000000	0.034703
1087.000000	0.035262
1086.000000	0.035838
1085.000000	0.036420
1084.000000	0.037015
1083.000000	0.037621
1082.000000	0.038229
1081.000000	0.038832
1080.000000	0.039432
1079.000000	0.040023
1078.000000	0.040587
1077.000000	0.041115
1076.000000	0.041604
1075.000000	0.042046
1074.000000	0.042435
1073.000000	0.042780
1072.000000	0.043093
1071.000000	0.043370
1070.000000	0.043606
1069.000000	0.043800
1068.000000	0.043958
1067.000000	0.044072
1066.000000	0.044140
1065.000000	0.044175
1064.000000	0.044190
1063.000000	0.044174
1062.000000	0.044107
1061.000000	0.043991
1060.000000	0.043841
1059.000000	0.043665
1058.000000	0.043462
1057.000000	0.043240
1056.000000	0.043015
1055.000000	0.042789
1054.000000	0.042556
1053.000000	0.042314
1052.000000	0.042065
1051.000000	0.041811
1050.000000	0.041554
1049.000000	0.041302
1048.000000	0.041056
1047.000000	0.040802
1046.000000	0.040520
1045.000000	0.040208
1044.000000	0.039871
1043.000000	0.039515
1042.000000	0.039144
1041.000000	0.038764
1040.000000	0.038382
1039.000000	0.037995
1038.000000	0.037605
1037.000000	0.037229
1036.000000	0.036881
1035.000000	0.036558
1034.000000	0.036242
1033.000000	0.035923
1032.000000	0.035595
1031.000000	0.035251
1030.000000	0.034883
1029.000000	0.034490
1028.000000	0.034080
1027.000000	0.033656
1026.000000	0.033225
1025.000000	0.032800
1024.000000	0.032392
1023.000000	0.031998
1022.000000	0.031608
1021.000000	0.031224
1020.000000	0.030854
1019.000000	0.030500
1018.000000	0.030156
1017.000000	0.029826
1016.000000	0.029524
1015.000000	0.029250
1014.000000	0.028986
1013.000000	0.028724
1012.000000	0.028470
1011.000000	0.028230
1010.000000	0.027998
1009.000000	0.027771
1008.000000	0.027562
1007.000000	0.027385
1006.000000	0.027236
1005.000000	0.027094
1004.000000	0.026947
1003.000000	0.026792
1002.000000	0.026635
1001.000000	0.026486
1000.000000	0.026350
999.000000	0.026232
998.000000	0.026128
997.000000	0.026034
996.000000	0.025946
995.000000	0.025854
994.000000	0.025750
993.000000	0.025634
992.000000	0.025512
991.000000	0.025389
990.000000	0.025270
989.000000	0.025159
988.000000	0.025063
987.000000	0.024978
986.000000	0.024894
985.000000	0.024807
984.000000	0.024720
983.000000	0.024639
982.000000	0.024569
981.000000	0.024523
980.000000	0.024508
979.000000	0.024520
978.000000	0.024539
977.000000	0.024548
976.000000	0.024547
975.000000	0.024545
974.000000	0.024547
973.000000	0.024566
972.000000	0.024616
971.000000	0.024699
970.000000	0.024805
969.000000	0.024927
968.000000	0.025068
967.000000	0.025233
966.000000	0.025412
965.000000	0.025593
964.000000	0.025762
963.000000	0.025899
962.000000	0.025983
961.000000	0.026004
960.000000	0.025971
959.000000	0.025902
958.000000	0.025807
957.000000	0.025693
956.000000	0.025568
955.000000	0.025438
954.000000	0.025301
953.000000	0.025162
952.000000	0.025035
951.000000	0.024929
950.000000	0.024834
949.000000	0.024744
948.000000	0.024660
947.000000	0.024589
946.000000	0.024530
945.000000	0.024477
944.000000	0.024423
943.000000	0.024369
942.000000	0.024314
941.000000	0.024262
940.000000	0.024218
939.000000	0.024183
938.000000	0.024152
937.000000	0.024121
936.000000	0.024091
935.000000	0.024063
934.000000	0.024033
933.000000	0.023999
932.000000	0.023966
931.000000	0.023932
930.000000	0.023892
929.000000	0.023839
928.000000	0.023770
927.000000	0.023688
926.000000	0.023591
925.000000	0.023480
924.000000	0.023360
923.000000	0.023237
922.000000	0.023114
921.000000	0.022992
920.000000	0.022878
919.000000	0.022778
918.000000	0.022695
917.000000	0.022631
916.000000	0.022584
915.000000	0.022547
914.000000	0.022515
913.000000	0.022489
912.000000	0.022480
911.000000	0.022488
910.000000	0.022507
909.000000	0.022536
908.000000	0.022582
907.000000	0.022647
906.000000	0.022722
905.000000	0.022795
904.000000	0.022860
903.000000	0.022915
902.000000	0.022950
901.000000	0.022956
900.000000	0.022929
899.000000	0.022877
898.000000	0.022811
897.000000	0.022742
896.000000	0.022672
895.000000	0.022592
894.000000	0.022498
893.000000	0.022395
892.000000	0.022296
891.000000	0.022200
890.000000	0.022102
889.000000	0.022003
888.000000	0.021911
887.000000	0.021840
886.000000	0.021792
885.000000	0.021764
884.000000	0.021741
883.000000	0.021707
882.000000	0.021661
881.000000	0.021621
880.000000	0.021600
879.000000	0.021589
878.000000	0.021574
877.000000	0.021559
876.000000	0.021557
875.000000	0.021567
874.000000	0.021574
873.000000	0.021571
872.000000	0.021563
871.000000	0.021556
870.000000	0.021550
869.000000	0.021550
868.000000	0.021558
867.000000	0.021562
866.000000	0.021547
865.000000	0.021516
864.000000	0.021487
863.000000	0.021466
862.000000	0.021441
861.000000	0.021409
860.000000	0.021388
859.000000	0.021394
858.000000	0.021425
857.000000	0.021471
856.000000	0.021525
855.000000	0.021586
854.000000	0.021645
853.000000	0.021695
852.000000	0.021733
851.000000	0.021761
850.000000	0.021787
849.000000	0.021819
848.000000	0.021861
847.000000	0.021906
846.000000	0.021945
845.000000	0.021987
844.000000	0.022051
843.000000	0.022149
842.000000	0.022270
841.000000	0.022401
840.000000	0.022538
839.000000	0.022686
838.000000	0.022850
837.000000	0.023033
836.000000	0.023232
835.000000	0.023440
834.000000	0.023656
833.000000	0.023882
832.000000	0.024117
831.000000	0.024352
830.000000	0.024573
829.000000	0.024773
828.000000	0.024947
827.000000	0.025086
826.000000	0.025194
825.000000	0.025293
824.000000	0.025402
823.000000	0.025521
822.000000	0.025644
821.000000	0.025773
820.000000	0.025908
819.000000	0.026044
818.000000	0.026179
817.000000	0.026333
816.000000	0.026525
815.000000	0.026745
814.000000	0.026961
813.000000	0.027151
812.000000	0.027313
811.000000	0.027449
810.000000	0.027564
809.000000	0.027665
808.000000	0.027764
807.000000	0.027868
806.000000	0.027978
805.000000	0.028095
804.000000	0.028214
803.000000	0.028322
802.000000	0.028424
801.000000	0.028544
800.000000	0.028695
799.000000	0.028869
798.000000	0.029051
797.000000	0.029243
796.000000	0.029455
795.000000	0.029679
794.000000	0.029905
793.000000	0.030138
792.000000	0.030390
791.000000	0.030663
790.000000	0.030946
789.000000	0.031232
788.000000	0.031522
787.000000	0.031817
786.000000	0.032119
785.000000	0.032435
784.000000	0.032756
783.000000	0.033062
782.000000	0.033343
781.000000	0.033616
780.000000	0.033899
779.000000	0.034190
778.000000	0.034479
777.000000	0.034769
776.000000	0.035056
775.000000	0.035324
774.000000	0.035566
773.000000	0.035792
772.000000	0.036008
771.000000	0.036197
770.000000	0.036352
769.000000	0.036489
768.000000	0.036629
767.000000	0.036766
766.000000	0.036885
765.000000	0.036986
764.000000	0.037077
763.000000	0.037160
762.000000	0.037246
761.000000	0.037357
760.000000	0.037499
759.000000	0.037650
758.000000	0.037791
757.000000	0.037934
756.000000	0.038098
755.000000	0.038276
754.000000	0.038461
753.000000	0.038658
752.000000	0.038873
751.000000	0.039091
750.000000	0.039293
749.000000	0.039477
748.000000	0.039642
747.000000	0.039784
746.000000	0.039913
745.000000	0.040051
744.000000	0.040194
743.000000	0.040313
742.000000	0.040401
741.000000	0.040493
740.000000	0.040622
739.000000	0.040784
738.000000	0.040965
737.000000	0.041181
736.000000	0.041440
735.000000	0.041727
734.000000	0.042028
733.000000	0.042362
732.000000	0.042742
731.000000	0.043158
730.000000	0.043604
729.000000	0.044104
728.000000	0.044674
727.000000	0.045285
726.000000	0.045907
725.000000	0.046551
724.000000	0.047229
723.000000	0.047913
722.000000	0.048580
721.000000	0.049257
720.000000	0.049989
719.000000	0.050770
718.000000	0.051558
717.000000	0.052334
716.000000	0.053098
715.000000	0.053844
714.000000	0.054569
713.000000	0.055290
712.000000	0.056017
711.000000	0.056736
710.000000	0.057427
709.000000	0.058100
708.000000	0.058773
707.000000	0.059444
706.000000	0.060112
705.000000	0.060786
704.000000	0.061453
703.000000	0.062060
702.000000	0.062569
701.000000	0.062983
700.000000	0.063313
699.000000	0.063549
698.000000	0.063688
697.000000	0.063762
696.000000	0.063802
695.000000	0.063809
694.000000	0.063789
693.000000	0.063770
692.000000	0.063781
691.000000	0.063813
690.000000	0.063853
689.000000	0.063902
688.000000	0.063964
687.000000	0.064022
686.000000	0.064073
685.000000	0.064132
684.000000	0.064199
683.000000	0.064248
682.000000	0.064268
681.000000	0.064281
680.000000	0.064309
679.000000	0.064340
678.000000	0.064361
677.000000	0.064383
676.000000	0.064419
675.000000	0.064453
674.000000	0.064466
673.000000	0.064460
672.000000	0.064445
671.000000	0.064426
670.000000	0.064409
669.000000	0.064437
668.000000	0.064623
667.000000	0.064854
666.000000	0.064919
665.000000	0.064937
664.000000	0.065018
663.000000	0.065117
662.000000	0.065181
661.000000	0.065228
660.000000	0.065303
659.000000	0.065402
658.000000	0.065511
657.000000	0.065650
656.000000	0.065821
655.000000	0.065978
654.000000	0.066094
653.000000	0.066215
652.000000	0.066386
651.000000	0.066586
650.000000	0.066780
649.000000	0.066983
648.000000	0.067209
647.000000	0.067438
646.000000	0.067656
645.000000	0.067891
644.000000	0.068151
643.000000	0.068397
642.000000	0.068616
641.000000	0.068855
640.000000	0.069138
639.000000	0.069416
638.000000	0.069639
637.000000	0.069841
636.000000	0.070068
635.000000	0.070318
634.000000	0.070563
633.000000	0.070806
632.000000	0.071039
631.000000	0.071231
630.000000	0.071384
629.000000	0.071542
628.000000	0.071707
627.000000	0.071817
626.000000	0.071851
625.000000	0.071865
624.000000	0.071898
623.000000	0.071911
622.000000	0.071870
621.000000	0.071807
620.000000	0.071744
619.000000	0.071642
618.000000	0.071470
617.000000	0.071270
616.000000	0.071088
615.000000	0.070907
614.000000	0.070700
613.000000	0.070480
612.000000	0.070256
611.000000	0.070021
610.000000	0.069800
609.000000	0.069650
608.000000	0.069563
607.000000	0.069461
606.000000	0.069311
605.000000	0.069166
604.000000	0.069060
603.000000	0.068956
602.000000	0.068838
601.000000	0.068760
600.000000	0.068753
599.000000	0.068764
598.000000	0.068747
597.000000	0.068727
596.000000	0.068727
595.000000	0.068706
594.000000	0.068646
593.000000	0.068608
592.000000	0.068633
591.000000	0.068670
590.000000	0.068669
589.000000	0.068671
588.000000	0.068724
587.000000	0.068795
586.000000	0.068836
585.000000	0.068866
584.000000	0.068912
583.000000	0.068955
582.000000	0.068987
581.000000	0.069055
580.000000	0.069177
579.000000	0.069288
578.000000	0.069347
577.000000	0.069401
576.000000	0.069487
575.000000	0.069560
574.000000	0.069588
573.000000	0.069626
572.000000	0.069724
571.000000	0.069845
570.000000	0.069941
569.000000	0.070036
568.000000	0.070142
567.000000	0.070211
566.000000	0.070230
565.000000	0.070276
564.000000	0.070397
563.000000	0.070528
562.000000	0.070602
561.000000	0.070644
560.000000	0.070689
559.000000	0.070703
558.000000	0.070672
557.000000	0.070664
556.000000	0.070729
555.000000	0.070812
554.000000	0.070855
553.000000	0.070882
552.000000	0.070915
551.000000	0.070908
550.000000	0.070853
549.000000	0.070833
548.000000	0.070890
547.000000	0.070942
546.000000	0.070924
545.000000	0.070901
544.000000	0.070936
543.000000	0.070971
542.000000	0.070943
541.000000	0.070897
540.000000	0.070900
539.000000	0.070932
538.000000	0.070956
537.000000	0.071007
536.000000	0.071102
535.000000	0.071169
534.000000	0.071150
533.000000	0.071099
532.000000	0.071082
531.000000	0.071077
530.000000	0.071054
529.000000	0.071047
528.000000	0.071080
527.000000	0.071109
526.000000	0.071116
525.000000	0.071172
524.000000	0.071305
523.000000	0.071420
522.000000	0.071449
521.000000	0.071449
520.000000	0.071480
519.000000	0.071494
518.000000	0.071442
517.000000	0.071379
516.000000	0.071356
515.000000	0.071306
514.000000	0.071165
513.000000	0.070982
512.000000	0.070828
511.000000	0.070708
510.000000	0.070625
509.000000	0.070626
508.000000	0.070715
507.000000	0.070790
506.000000	0.070774
505.000000	0.070720
504.000000	0.070690
503.000000	0.070664
502.000000	0.070633
501.000000	0.070646
500.000000	0.070696
499.000000	0.070667
498.000000	0.070504
497.000000	0.070295
496.000000	0.070130
495.000000	0.069982
494.000000	0.069824
493.000000	0.069717
492.000000	0.069698
491.000000	0.069693
490.000000	0.069648
489.000000	0.069616
488.000000	0.069635
487.000000	0.069642
486.000000	0.069593
485.000000	0.069547
484.000000	0.069523
483.000000	0.069437
482.000000	0.069266
481.000000	0.069141
480.000000	0.069140
479.000000	0.069186
478.000000	0.069214
477.000000	0.069280
476.000000	0.069400
475.000000	0.069458
474.000000	0.069386
473.000000	0.069288
472.000000	0.069255
471.000000	0.069230
470.000000	0.069213
469.000000	0.069332
468.000000	0.069593
467.000000	0.069793
466.000000	0.069806
465.000000	0.069755
464.000000	0.069751
463.000000	0.069737
462.000000	0.069685
461.000000	0.069710
460.000000	0.069816
459.000000	0.069800
458.000000	0.069565
457.000000	0.069333
456.000000	0.069258
455.000000	0.069178
454.000000	0.068990
453.000000	0.068850
452.000000	0.068881
451.000000	0.068931
450.000000	0.068851
449.000000	0.068728
448.000000	0.068656
447.000000	0.068543
446.000000	0.068315
445.000000	0.068090
444.000000	0.067946
443.000000	0.067747
442.000000	0.067392
441.000000	0.067018
440.000000	0.066734
439.000000	0.066440
438.000000	0.066053
437.000000	0.065665
436.000000	0.065329
435.000000	0.064927
434.000000	0.064426
433.000000	0.064001
432.000000	0.063744
431.000000	0.063514
430.000000	0.063215
429.000000	0.062980
428.000000	0.062886
427.000000	0.062755
426.000000	0.062436
425.000000	0.062067
424.000000	0.061812
423.000000	0.061552
422.000000	0.061136
421.000000	0.060680
420.000000	0.060367
419.000000	0.060147
418.000000	0.059874
417.000000	0.059677
416.000000	0.059586
415.000000	0.059413
414.000000	0.059135
413.000000	0.058979
412.000000	0.059023
411.000000	0.058987
410.000000	0.058688
409.000000	0.058367
408.000000	0.058238
407.000000	0.058097
406.000000	0.057726
405.000000	0.057284
404.000000	0.056942
403.000000	0.056573
402.000000	0.056171
401.000000	0.056123
400.000000	0.056575
