PE IR       SUBTECH     SPECTRUM    ASCII       PEDS        4.00        
   -1
PE_P viridans outer 16.ASC
24/08/18
23:17:29.00
24/08/18
23:18:11.00
Yarger Lab
Sample 310 By YargerLab Date Sunday, August 18 2024
400.000000
#HDR
-1
-1
#GR
cm-1
A
1.0
0.0
4000.000000
-1.000000
3601
8
0.045408
0.003613
#DATA
4000.000000	0.006539
3999.000000	0.006538
3998.000000	0.006531
3997.000000	0.006521
3996.000000	0.006508
3995.000000	0.006496
3994.000000	0.006490
3993.000000	0.006493
3992.000000	0.006502
3991.000000	0.006516
3990.000000	0.006531
3989.000000	0.006543
3988.000000	0.006551
3987.000000	0.006552
3986.000000	0.006546
3985.000000	0.006535
3984.000000	0.006523
3983.000000	0.006517
3982.000000	0.006521
3981.000000	0.006531
3980.000000	0.006541
3979.000000	0.006545
3978.000000	0.006544
3977.000000	0.006541
3976.000000	0.006539
3975.000000	0.006540
3974.000000	0.006539
3973.000000	0.006536
3972.000000	0.006531
3971.000000	0.006525
3970.000000	0.006521
3969.000000	0.006520
3968.000000	0.006522
3967.000000	0.006525
3966.000000	0.006529
3965.000000	0.006530
3964.000000	0.006528
3963.000000	0.006521
3962.000000	0.006514
3961.000000	0.006510
3960.000000	0.006510
3959.000000	0.006510
3958.000000	0.006508
3957.000000	0.006501
3956.000000	0.006492
3955.000000	0.006481
3954.000000	0.006473
3953.000000	0.006471
3952.000000	0.006479
3951.000000	0.006496
3950.000000	0.006519
3949.000000	0.006539
3948.000000	0.006550
3947.000000	0.006549
3946.000000	0.006541
3945.000000	0.006529
3944.000000	0.006516
3943.000000	0.006506
3942.000000	0.006501
3941.000000	0.006499
3940.000000	0.006495
3939.000000	0.006490
3938.000000	0.006487
3937.000000	0.006490
3936.000000	0.006501
3935.000000	0.006514
3934.000000	0.006519
3933.000000	0.006511
3932.000000	0.006493
3931.000000	0.006475
3930.000000	0.006466
3929.000000	0.006465
3928.000000	0.006470
3927.000000	0.006475
3926.000000	0.006480
3925.000000	0.006487
3924.000000	0.006496
3923.000000	0.006505
3922.000000	0.006512
3921.000000	0.006513
3920.000000	0.006510
3919.000000	0.006505
3918.000000	0.006497
3917.000000	0.006485
3916.000000	0.006470
3915.000000	0.006458
3914.000000	0.006450
3913.000000	0.006448
3912.000000	0.006450
3911.000000	0.006456
3910.000000	0.006462
3909.000000	0.006464
3908.000000	0.006462
3907.000000	0.006461
3906.000000	0.006470
3905.000000	0.006491
3904.000000	0.006517
3903.000000	0.006533
3902.000000	0.006532
3901.000000	0.006519
3900.000000	0.006502
3899.000000	0.006489
3898.000000	0.006484
3897.000000	0.006483
3896.000000	0.006482
3895.000000	0.006478
3894.000000	0.006472
3893.000000	0.006466
3892.000000	0.006465
3891.000000	0.006466
3890.000000	0.006467
3889.000000	0.006469
3888.000000	0.006469
3887.000000	0.006463
3886.000000	0.006452
3885.000000	0.006446
3884.000000	0.006447
3883.000000	0.006449
3882.000000	0.006440
3881.000000	0.006423
3880.000000	0.006410
3879.000000	0.006410
3878.000000	0.006420
3877.000000	0.006430
3876.000000	0.006427
3875.000000	0.006413
3874.000000	0.006404
3873.000000	0.006410
3872.000000	0.006423
3871.000000	0.006430
3870.000000	0.006424
3869.000000	0.006416
3868.000000	0.006418
3867.000000	0.006425
3866.000000	0.006422
3865.000000	0.006412
3864.000000	0.006407
3863.000000	0.006412
3862.000000	0.006419
3861.000000	0.006418
3860.000000	0.006405
3859.000000	0.006385
3858.000000	0.006359
3857.000000	0.006336
3856.000000	0.006323
3855.000000	0.006317
3854.000000	0.006314
3853.000000	0.006304
3852.000000	0.006292
3851.000000	0.006295
3850.000000	0.006314
3849.000000	0.006339
3848.000000	0.006364
3847.000000	0.006383
3846.000000	0.006392
3845.000000	0.006389
3844.000000	0.006375
3843.000000	0.006356
3842.000000	0.006339
3841.000000	0.006329
3840.000000	0.006327
3839.000000	0.006330
3838.000000	0.006331
3837.000000	0.006326
3836.000000	0.006317
3835.000000	0.006308
3834.000000	0.006304
3833.000000	0.006303
3832.000000	0.006304
3831.000000	0.006305
3830.000000	0.006305
3829.000000	0.006299
3828.000000	0.006289
3827.000000	0.006279
3826.000000	0.006276
3825.000000	0.006289
3824.000000	0.006310
3823.000000	0.006323
3822.000000	0.006315
3821.000000	0.006293
3820.000000	0.006273
3819.000000	0.006258
3818.000000	0.006247
3817.000000	0.006232
3816.000000	0.006217
3815.000000	0.006210
3814.000000	0.006217
3813.000000	0.006233
3812.000000	0.006247
3811.000000	0.006258
3810.000000	0.006266
3809.000000	0.006275
3808.000000	0.006277
3807.000000	0.006269
3806.000000	0.006255
3805.000000	0.006244
3804.000000	0.006232
3803.000000	0.006214
3802.000000	0.006192
3801.000000	0.006181
3800.000000	0.006189
3799.000000	0.006208
3798.000000	0.006226
3797.000000	0.006234
3796.000000	0.006233
3795.000000	0.006230
3794.000000	0.006225
3793.000000	0.006218
3792.000000	0.006206
3791.000000	0.006193
3790.000000	0.006184
3789.000000	0.006183
3788.000000	0.006186
3787.000000	0.006188
3786.000000	0.006188
3785.000000	0.006186
3784.000000	0.006187
3783.000000	0.006191
3782.000000	0.006191
3781.000000	0.006184
3780.000000	0.006171
3779.000000	0.006158
3778.000000	0.006151
3777.000000	0.006150
3776.000000	0.006153
3775.000000	0.006155
3774.000000	0.006157
3773.000000	0.006165
3772.000000	0.006176
3771.000000	0.006184
3770.000000	0.006184
3769.000000	0.006178
3768.000000	0.006171
3767.000000	0.006168
3766.000000	0.006168
3765.000000	0.006170
3764.000000	0.006173
3763.000000	0.006177
3762.000000	0.006176
3761.000000	0.006167
3760.000000	0.006160
3759.000000	0.006161
3758.000000	0.006169
3757.000000	0.006176
3756.000000	0.006178
3755.000000	0.006178
3754.000000	0.006177
3753.000000	0.006178
3752.000000	0.006190
3751.000000	0.006211
3750.000000	0.006225
3749.000000	0.006221
3748.000000	0.006207
3747.000000	0.006190
3746.000000	0.006169
3745.000000	0.006139
3744.000000	0.006104
3743.000000	0.006085
3742.000000	0.006088
3741.000000	0.006103
3740.000000	0.006118
3739.000000	0.006127
3738.000000	0.006133
3737.000000	0.006130
3736.000000	0.006118
3735.000000	0.006100
3734.000000	0.006080
3733.000000	0.006057
3732.000000	0.006032
3731.000000	0.006012
3730.000000	0.006010
3729.000000	0.006026
3728.000000	0.006050
3727.000000	0.006069
3726.000000	0.006077
3725.000000	0.006076
3724.000000	0.006067
3723.000000	0.006050
3722.000000	0.006028
3721.000000	0.006001
3720.000000	0.005974
3719.000000	0.005952
3718.000000	0.005939
3717.000000	0.005937
3716.000000	0.005944
3715.000000	0.005951
3714.000000	0.005952
3713.000000	0.005947
3712.000000	0.005944
3711.000000	0.005947
3710.000000	0.005950
3709.000000	0.005947
3708.000000	0.005938
3707.000000	0.005924
3706.000000	0.005906
3705.000000	0.005881
3704.000000	0.005850
3703.000000	0.005817
3702.000000	0.005794
3701.000000	0.005786
3700.000000	0.005792
3699.000000	0.005803
3698.000000	0.005812
3697.000000	0.005813
3696.000000	0.005812
3695.000000	0.005814
3694.000000	0.005816
3693.000000	0.005810
3692.000000	0.005789
3691.000000	0.005762
3690.000000	0.005739
3689.000000	0.005725
3688.000000	0.005719
3687.000000	0.005727
3686.000000	0.005750
3685.000000	0.005782
3684.000000	0.005813
3683.000000	0.005842
3682.000000	0.005864
3681.000000	0.005876
3680.000000	0.005881
3679.000000	0.005886
3678.000000	0.005893
3677.000000	0.005889
3676.000000	0.005861
3675.000000	0.005821
3674.000000	0.005797
3673.000000	0.005799
3672.000000	0.005813
3671.000000	0.005823
3670.000000	0.005829
3669.000000	0.005838
3668.000000	0.005851
3667.000000	0.005862
3666.000000	0.005866
3665.000000	0.005866
3664.000000	0.005867
3663.000000	0.005873
3662.000000	0.005886
3661.000000	0.005903
3660.000000	0.005920
3659.000000	0.005934
3658.000000	0.005943
3657.000000	0.005946
3656.000000	0.005946
3655.000000	0.005950
3654.000000	0.005964
3653.000000	0.005983
3652.000000	0.005997
3651.000000	0.006012
3650.000000	0.006043
3649.000000	0.006077
3648.000000	0.006090
3647.000000	0.006083
3646.000000	0.006078
3645.000000	0.006081
3644.000000	0.006087
3643.000000	0.006088
3642.000000	0.006084
3641.000000	0.006083
3640.000000	0.006088
3639.000000	0.006100
3638.000000	0.006117
3637.000000	0.006138
3636.000000	0.006159
3635.000000	0.006175
3634.000000	0.006185
3633.000000	0.006196
3632.000000	0.006213
3631.000000	0.006234
3630.000000	0.006254
3629.000000	0.006269
3628.000000	0.006282
3627.000000	0.006299
3626.000000	0.006322
3625.000000	0.006344
3624.000000	0.006354
3623.000000	0.006354
3622.000000	0.006351
3621.000000	0.006355
3620.000000	0.006375
3619.000000	0.006411
3618.000000	0.006453
3617.000000	0.006495
3616.000000	0.006536
3615.000000	0.006575
3614.000000	0.006609
3613.000000	0.006640
3612.000000	0.006669
3611.000000	0.006694
3610.000000	0.006710
3609.000000	0.006714
3608.000000	0.006710
3607.000000	0.006705
3606.000000	0.006705
3605.000000	0.006709
3604.000000	0.006714
3603.000000	0.006721
3602.000000	0.006731
3601.000000	0.006742
3600.000000	0.006754
3599.000000	0.006771
3598.000000	0.006793
3597.000000	0.006821
3596.000000	0.006852
3595.000000	0.006884
3594.000000	0.006914
3593.000000	0.006942
3592.000000	0.006964
3591.000000	0.006982
3590.000000	0.006994
3589.000000	0.007005
3588.000000	0.007018
3587.000000	0.007037
3586.000000	0.007060
3585.000000	0.007084
3584.000000	0.007106
3583.000000	0.007124
3582.000000	0.007141
3581.000000	0.007157
3580.000000	0.007175
3579.000000	0.007197
3578.000000	0.007223
3577.000000	0.007249
3576.000000	0.007273
3575.000000	0.007294
3574.000000	0.007316
3573.000000	0.007343
3572.000000	0.007377
3571.000000	0.007415
3570.000000	0.007457
3569.000000	0.007499
3568.000000	0.007540
3567.000000	0.007578
3566.000000	0.007612
3565.000000	0.007645
3564.000000	0.007677
3563.000000	0.007702
3562.000000	0.007713
3561.000000	0.007717
3560.000000	0.007725
3559.000000	0.007747
3558.000000	0.007784
3557.000000	0.007828
3556.000000	0.007868
3555.000000	0.007903
3554.000000	0.007934
3553.000000	0.007966
3552.000000	0.007999
3551.000000	0.008033
3550.000000	0.008069
3549.000000	0.008110
3548.000000	0.008158
3547.000000	0.008208
3546.000000	0.008250
3545.000000	0.008276
3544.000000	0.008287
3543.000000	0.008289
3542.000000	0.008292
3541.000000	0.008305
3540.000000	0.008329
3539.000000	0.008363
3538.000000	0.008398
3537.000000	0.008429
3536.000000	0.008454
3535.000000	0.008477
3534.000000	0.008504
3533.000000	0.008535
3532.000000	0.008570
3531.000000	0.008607
3530.000000	0.008647
3529.000000	0.008687
3528.000000	0.008729
3527.000000	0.008771
3526.000000	0.008811
3525.000000	0.008846
3524.000000	0.008873
3523.000000	0.008890
3522.000000	0.008900
3521.000000	0.008908
3520.000000	0.008916
3519.000000	0.008929
3518.000000	0.008952
3517.000000	0.008984
3516.000000	0.009022
3515.000000	0.009058
3514.000000	0.009093
3513.000000	0.009125
3512.000000	0.009155
3511.000000	0.009184
3510.000000	0.009213
3509.000000	0.009242
3508.000000	0.009270
3507.000000	0.009298
3506.000000	0.009330
3505.000000	0.009370
3504.000000	0.009417
3503.000000	0.009464
3502.000000	0.009504
3501.000000	0.009534
3500.000000	0.009557
3499.000000	0.009577
3498.000000	0.009598
3497.000000	0.009623
3496.000000	0.009653
3495.000000	0.009685
3494.000000	0.009712
3493.000000	0.009735
3492.000000	0.009756
3491.000000	0.009782
3490.000000	0.009819
3489.000000	0.009864
3488.000000	0.009912
3487.000000	0.009958
3486.000000	0.009998
3485.000000	0.010031
3484.000000	0.010055
3483.000000	0.010071
3482.000000	0.010086
3481.000000	0.010106
3480.000000	0.010133
3479.000000	0.010163
3478.000000	0.010191
3477.000000	0.010217
3476.000000	0.010245
3475.000000	0.010281
3474.000000	0.010326
3473.000000	0.010376
3472.000000	0.010427
3471.000000	0.010474
3470.000000	0.010514
3469.000000	0.010546
3468.000000	0.010570
3467.000000	0.010590
3466.000000	0.010610
3465.000000	0.010635
3464.000000	0.010667
3463.000000	0.010705
3462.000000	0.010748
3461.000000	0.010792
3460.000000	0.010829
3459.000000	0.010858
3458.000000	0.010878
3457.000000	0.010892
3456.000000	0.010905
3455.000000	0.010920
3454.000000	0.010940
3453.000000	0.010968
3452.000000	0.011003
3451.000000	0.011044
3450.000000	0.011084
3449.000000	0.011119
3448.000000	0.011148
3447.000000	0.011178
3446.000000	0.011213
3445.000000	0.011253
3444.000000	0.011295
3443.000000	0.011339
3442.000000	0.011383
3441.000000	0.011428
3440.000000	0.011469
3439.000000	0.011504
3438.000000	0.011533
3437.000000	0.011561
3436.000000	0.011592
3435.000000	0.011625
3434.000000	0.011659
3433.000000	0.011690
3432.000000	0.011716
3431.000000	0.011742
3430.000000	0.011772
3429.000000	0.011806
3428.000000	0.011839
3427.000000	0.011868
3426.000000	0.011898
3425.000000	0.011933
3424.000000	0.011974
3423.000000	0.012015
3422.000000	0.012050
3421.000000	0.012079
3420.000000	0.012104
3419.000000	0.012130
3418.000000	0.012159
3417.000000	0.012192
3416.000000	0.012225
3415.000000	0.012257
3414.000000	0.012286
3413.000000	0.012314
3412.000000	0.012343
3411.000000	0.012373
3410.000000	0.012406
3409.000000	0.012440
3408.000000	0.012473
3407.000000	0.012504
3406.000000	0.012532
3405.000000	0.012562
3404.000000	0.012596
3403.000000	0.012632
3402.000000	0.012667
3401.000000	0.012699
3400.000000	0.012725
3399.000000	0.012746
3398.000000	0.012765
3397.000000	0.012782
3396.000000	0.012799
3395.000000	0.012818
3394.000000	0.012843
3393.000000	0.012876
3392.000000	0.012913
3391.000000	0.012946
3390.000000	0.012974
3389.000000	0.012996
3388.000000	0.013015
3387.000000	0.013034
3386.000000	0.013056
3385.000000	0.013085
3384.000000	0.013119
3383.000000	0.013158
3382.000000	0.013199
3381.000000	0.013240
3380.000000	0.013280
3379.000000	0.013319
3378.000000	0.013359
3377.000000	0.013398
3376.000000	0.013434
3375.000000	0.013462
3374.000000	0.013486
3373.000000	0.013511
3372.000000	0.013541
3371.000000	0.013577
3370.000000	0.013619
3369.000000	0.013663
3368.000000	0.013704
3367.000000	0.013740
3366.000000	0.013772
3365.000000	0.013805
3364.000000	0.013842
3363.000000	0.013884
3362.000000	0.013931
3361.000000	0.013981
3360.000000	0.014028
3359.000000	0.014073
3358.000000	0.014116
3357.000000	0.014162
3356.000000	0.014213
3355.000000	0.014268
3354.000000	0.014322
3353.000000	0.014376
3352.000000	0.014428
3351.000000	0.014479
3350.000000	0.014532
3349.000000	0.014585
3348.000000	0.014637
3347.000000	0.014684
3346.000000	0.014728
3345.000000	0.014773
3344.000000	0.014825
3343.000000	0.014887
3342.000000	0.014957
3341.000000	0.015029
3340.000000	0.015098
3339.000000	0.015166
3338.000000	0.015231
3337.000000	0.015293
3336.000000	0.015354
3335.000000	0.015418
3334.000000	0.015491
3333.000000	0.015572
3332.000000	0.015656
3331.000000	0.015737
3330.000000	0.015815
3329.000000	0.015891
3328.000000	0.015967
3327.000000	0.016048
3326.000000	0.016136
3325.000000	0.016232
3324.000000	0.016330
3323.000000	0.016423
3322.000000	0.016511
3321.000000	0.016599
3320.000000	0.016691
3319.000000	0.016788
3318.000000	0.016888
3317.000000	0.016989
3316.000000	0.017091
3315.000000	0.017195
3314.000000	0.017301
3313.000000	0.017407
3312.000000	0.017510
3311.000000	0.017612
3310.000000	0.017716
3309.000000	0.017827
3308.000000	0.017945
3307.000000	0.018068
3306.000000	0.018196
3305.000000	0.018329
3304.000000	0.018466
3303.000000	0.018603
3302.000000	0.018740
3301.000000	0.018874
3300.000000	0.019001
3299.000000	0.019122
3298.000000	0.019241
3297.000000	0.019362
3296.000000	0.019489
3295.000000	0.019618
3294.000000	0.019749
3293.000000	0.019878
3292.000000	0.020009
3291.000000	0.020142
3290.000000	0.020278
3289.000000	0.020410
3288.000000	0.020533
3287.000000	0.020642
3286.000000	0.020743
3285.000000	0.020842
3284.000000	0.020941
3283.000000	0.021036
3282.000000	0.021123
3281.000000	0.021201
3280.000000	0.021270
3279.000000	0.021330
3278.000000	0.021381
3277.000000	0.021422
3276.000000	0.021451
3275.000000	0.021468
3274.000000	0.021477
3273.000000	0.021478
3272.000000	0.021475
3271.000000	0.021467
3270.000000	0.021455
3269.000000	0.021438
3268.000000	0.021414
3267.000000	0.021381
3266.000000	0.021334
3265.000000	0.021276
3264.000000	0.021206
3263.000000	0.021128
3262.000000	0.021044
3261.000000	0.020954
3260.000000	0.020856
3259.000000	0.020751
3258.000000	0.020644
3257.000000	0.020541
3256.000000	0.020444
3255.000000	0.020353
3254.000000	0.020261
3253.000000	0.020166
3252.000000	0.020063
3251.000000	0.019950
3250.000000	0.019831
3249.000000	0.019714
3248.000000	0.019603
3247.000000	0.019501
3246.000000	0.019405
3245.000000	0.019313
3244.000000	0.019219
3243.000000	0.019121
3242.000000	0.019019
3241.000000	0.018916
3240.000000	0.018817
3239.000000	0.018725
3238.000000	0.018639
3237.000000	0.018552
3236.000000	0.018461
3235.000000	0.018368
3234.000000	0.018283
3233.000000	0.018211
3232.000000	0.018150
3231.000000	0.018092
3230.000000	0.018033
3229.000000	0.017970
3228.000000	0.017905
3227.000000	0.017839
3226.000000	0.017773
3225.000000	0.017705
3224.000000	0.017637
3223.000000	0.017571
3222.000000	0.017510
3221.000000	0.017454
3220.000000	0.017401
3219.000000	0.017348
3218.000000	0.017298
3217.000000	0.017251
3216.000000	0.017204
3215.000000	0.017154
3214.000000	0.017104
3213.000000	0.017054
3212.000000	0.017006
3211.000000	0.016956
3210.000000	0.016905
3209.000000	0.016854
3208.000000	0.016806
3207.000000	0.016759
3206.000000	0.016710
3205.000000	0.016659
3204.000000	0.016604
3203.000000	0.016545
3202.000000	0.016486
3201.000000	0.016431
3200.000000	0.016381
3199.000000	0.016335
3198.000000	0.016291
3197.000000	0.016246
3196.000000	0.016197
3195.000000	0.016144
3194.000000	0.016088
3193.000000	0.016035
3192.000000	0.015983
3191.000000	0.015929
3190.000000	0.015875
3189.000000	0.015824
3188.000000	0.015778
3187.000000	0.015737
3186.000000	0.015696
3185.000000	0.015649
3184.000000	0.015598
3183.000000	0.015543
3182.000000	0.015489
3181.000000	0.015436
3180.000000	0.015383
3179.000000	0.015329
3178.000000	0.015273
3177.000000	0.015219
3176.000000	0.015166
3175.000000	0.015114
3174.000000	0.015060
3173.000000	0.015001
3172.000000	0.014943
3171.000000	0.014890
3170.000000	0.014844
3169.000000	0.014800
3168.000000	0.014752
3167.000000	0.014699
3166.000000	0.014642
3165.000000	0.014585
3164.000000	0.014530
3163.000000	0.014478
3162.000000	0.014429
3161.000000	0.014380
3160.000000	0.014333
3159.000000	0.014288
3158.000000	0.014246
3157.000000	0.014202
3156.000000	0.014154
3155.000000	0.014101
3154.000000	0.014049
3153.000000	0.013999
3152.000000	0.013951
3151.000000	0.013902
3150.000000	0.013853
3149.000000	0.013808
3148.000000	0.013769
3147.000000	0.013731
3146.000000	0.013690
3145.000000	0.013647
3144.000000	0.013601
3143.000000	0.013554
3142.000000	0.013507
3141.000000	0.013462
3140.000000	0.013423
3139.000000	0.013390
3138.000000	0.013362
3137.000000	0.013332
3136.000000	0.013295
3135.000000	0.013252
3134.000000	0.013208
3133.000000	0.013173
3132.000000	0.013148
3131.000000	0.013129
3130.000000	0.013108
3129.000000	0.013083
3128.000000	0.013055
3127.000000	0.013028
3126.000000	0.013001
3125.000000	0.012971
3124.000000	0.012934
3123.000000	0.012891
3122.000000	0.012851
3121.000000	0.012819
3120.000000	0.012794
3119.000000	0.012773
3118.000000	0.012755
3117.000000	0.012741
3116.000000	0.012734
3115.000000	0.012733
3114.000000	0.012736
3113.000000	0.012737
3112.000000	0.012733
3111.000000	0.012721
3110.000000	0.012704
3109.000000	0.012688
3108.000000	0.012678
3107.000000	0.012673
3106.000000	0.012668
3105.000000	0.012662
3104.000000	0.012653
3103.000000	0.012642
3102.000000	0.012632
3101.000000	0.012628
3100.000000	0.012629
3099.000000	0.012636
3098.000000	0.012647
3097.000000	0.012661
3096.000000	0.012673
3095.000000	0.012679
3094.000000	0.012679
3093.000000	0.012675
3092.000000	0.012671
3091.000000	0.012672
3090.000000	0.012675
3089.000000	0.012678
3088.000000	0.012680
3087.000000	0.012680
3086.000000	0.012679
3085.000000	0.012679
3084.000000	0.012681
3083.000000	0.012683
3082.000000	0.012682
3081.000000	0.012680
3080.000000	0.012676
3079.000000	0.012676
3078.000000	0.012683
3077.000000	0.012696
3076.000000	0.012712
3075.000000	0.012726
3074.000000	0.012733
3073.000000	0.012733
3072.000000	0.012726
3071.000000	0.012712
3070.000000	0.012693
3069.000000	0.012673
3068.000000	0.012657
3067.000000	0.012650
3066.000000	0.012650
3065.000000	0.012653
3064.000000	0.012654
3063.000000	0.012650
3062.000000	0.012642
3061.000000	0.012626
3060.000000	0.012601
3059.000000	0.012569
3058.000000	0.012535
3057.000000	0.012506
3056.000000	0.012483
3055.000000	0.012463
3054.000000	0.012436
3053.000000	0.012401
3052.000000	0.012362
3051.000000	0.012329
3050.000000	0.012305
3049.000000	0.012284
3048.000000	0.012256
3047.000000	0.012218
3046.000000	0.012173
3045.000000	0.012130
3044.000000	0.012091
3043.000000	0.012058
3042.000000	0.012030
3041.000000	0.012008
3040.000000	0.011988
3039.000000	0.011966
3038.000000	0.011939
3037.000000	0.011904
3036.000000	0.011865
3035.000000	0.011824
3034.000000	0.011785
3033.000000	0.011752
3032.000000	0.011727
3031.000000	0.011710
3030.000000	0.011700
3029.000000	0.011687
3028.000000	0.011662
3027.000000	0.011620
3026.000000	0.011568
3025.000000	0.011519
3024.000000	0.011478
3023.000000	0.011445
3022.000000	0.011417
3021.000000	0.011389
3020.000000	0.011359
3019.000000	0.011324
3018.000000	0.011283
3017.000000	0.011237
3016.000000	0.011191
3015.000000	0.011150
3014.000000	0.011116
3013.000000	0.011094
3012.000000	0.011082
3011.000000	0.011078
3010.000000	0.011078
3009.000000	0.011078
3008.000000	0.011079
3007.000000	0.011077
3006.000000	0.011071
3005.000000	0.011059
3004.000000	0.011043
3003.000000	0.011028
3002.000000	0.011019
3001.000000	0.011012
3000.000000	0.011006
2999.000000	0.010998
2998.000000	0.010993
2997.000000	0.010994
2996.000000	0.010998
2995.000000	0.011003
2994.000000	0.011011
2993.000000	0.011028
2992.000000	0.011057
2991.000000	0.011095
2990.000000	0.011135
2989.000000	0.011170
2988.000000	0.011198
2987.000000	0.011221
2986.000000	0.011246
2985.000000	0.011278
2984.000000	0.011315
2983.000000	0.011353
2982.000000	0.011387
2981.000000	0.011418
2980.000000	0.011447
2979.000000	0.011476
2978.000000	0.011508
2977.000000	0.011543
2976.000000	0.011577
2975.000000	0.011608
2974.000000	0.011632
2973.000000	0.011649
2972.000000	0.011659
2971.000000	0.011665
2970.000000	0.011671
2969.000000	0.011677
2968.000000	0.011681
2967.000000	0.011681
2966.000000	0.011676
2965.000000	0.011665
2964.000000	0.011647
2963.000000	0.011625
2962.000000	0.011601
2961.000000	0.011577
2960.000000	0.011555
2959.000000	0.011535
2958.000000	0.011520
2957.000000	0.011506
2956.000000	0.011492
2955.000000	0.011476
2954.000000	0.011463
2953.000000	0.011459
2952.000000	0.011465
2951.000000	0.011473
2950.000000	0.011479
2949.000000	0.011481
2948.000000	0.011482
2947.000000	0.011483
2946.000000	0.011486
2945.000000	0.011495
2944.000000	0.011509
2943.000000	0.011530
2942.000000	0.011555
2941.000000	0.011580
2940.000000	0.011600
2939.000000	0.011609
2938.000000	0.011605
2937.000000	0.011593
2936.000000	0.011574
2935.000000	0.011549
2934.000000	0.011515
2933.000000	0.011466
2932.000000	0.011403
2931.000000	0.011331
2930.000000	0.011256
2929.000000	0.011180
2928.000000	0.011100
2927.000000	0.011010
2926.000000	0.010905
2925.000000	0.010782
2924.000000	0.010641
2923.000000	0.010486
2922.000000	0.010321
2921.000000	0.010151
2920.000000	0.009980
2919.000000	0.009812
2918.000000	0.009664
2917.000000	0.009562
2916.000000	0.009535
2915.000000	0.009594
2914.000000	0.009725
2913.000000	0.009896
2912.000000	0.010068
2911.000000	0.010212
2910.000000	0.010321
2909.000000	0.010397
2908.000000	0.010448
2907.000000	0.010479
2906.000000	0.010498
2905.000000	0.010511
2904.000000	0.010520
2903.000000	0.010526
2902.000000	0.010533
2901.000000	0.010541
2900.000000	0.010549
2899.000000	0.010552
2898.000000	0.010550
2897.000000	0.010546
2896.000000	0.010543
2895.000000	0.010542
2894.000000	0.010542
2893.000000	0.010548
2892.000000	0.010562
2891.000000	0.010582
2890.000000	0.010604
2889.000000	0.010624
2888.000000	0.010641
2887.000000	0.010662
2886.000000	0.010687
2885.000000	0.010717
2884.000000	0.010746
2883.000000	0.010773
2882.000000	0.010797
2881.000000	0.010818
2880.000000	0.010838
2879.000000	0.010857
2878.000000	0.010873
2877.000000	0.010881
2876.000000	0.010879
2875.000000	0.010869
2874.000000	0.010857
2873.000000	0.010846
2872.000000	0.010833
2871.000000	0.010811
2870.000000	0.010778
2869.000000	0.010736
2868.000000	0.010690
2867.000000	0.010642
2866.000000	0.010589
2865.000000	0.010526
2864.000000	0.010452
2863.000000	0.010376
2862.000000	0.010303
2861.000000	0.010238
2860.000000	0.010175
2859.000000	0.010110
2858.000000	0.010040
2857.000000	0.009961
2856.000000	0.009870
2855.000000	0.009763
2854.000000	0.009636
2853.000000	0.009484
2852.000000	0.009307
2851.000000	0.009124
2850.000000	0.008975
2849.000000	0.008906
2848.000000	0.008938
2847.000000	0.009058
2846.000000	0.009227
2845.000000	0.009399
2844.000000	0.009542
2843.000000	0.009647
2842.000000	0.009718
2841.000000	0.009763
2840.000000	0.009786
2839.000000	0.009794
2838.000000	0.009794
2837.000000	0.009793
2836.000000	0.009791
2835.000000	0.009787
2834.000000	0.009783
2833.000000	0.009779
2832.000000	0.009774
2831.000000	0.009764
2830.000000	0.009751
2829.000000	0.009736
2828.000000	0.009722
2827.000000	0.009710
2826.000000	0.009699
2825.000000	0.009689
2824.000000	0.009679
2823.000000	0.009668
2822.000000	0.009658
2821.000000	0.009649
2820.000000	0.009640
2819.000000	0.009629
2818.000000	0.009616
2817.000000	0.009606
2816.000000	0.009597
2815.000000	0.009588
2814.000000	0.009577
2813.000000	0.009565
2812.000000	0.009552
2811.000000	0.009542
2810.000000	0.009534
2809.000000	0.009527
2808.000000	0.009519
2807.000000	0.009509
2806.000000	0.009499
2805.000000	0.009493
2804.000000	0.009487
2803.000000	0.009478
2802.000000	0.009464
2801.000000	0.009448
2800.000000	0.009435
2799.000000	0.009426
2798.000000	0.009424
2797.000000	0.009426
2796.000000	0.009429
2795.000000	0.009427
2794.000000	0.009418
2793.000000	0.009404
2792.000000	0.009387
2791.000000	0.009369
2790.000000	0.009351
2789.000000	0.009336
2788.000000	0.009327
2787.000000	0.009320
2786.000000	0.009316
2785.000000	0.009315
2784.000000	0.009317
2783.000000	0.009318
2782.000000	0.009316
2781.000000	0.009309
2780.000000	0.009298
2779.000000	0.009283
2778.000000	0.009267
2777.000000	0.009252
2776.000000	0.009241
2775.000000	0.009232
2774.000000	0.009225
2773.000000	0.009217
2772.000000	0.009207
2771.000000	0.009196
2770.000000	0.009186
2769.000000	0.009178
2768.000000	0.009172
2767.000000	0.009165
2766.000000	0.009155
2765.000000	0.009145
2764.000000	0.009134
2763.000000	0.009123
2762.000000	0.009113
2761.000000	0.009104
2760.000000	0.009093
2759.000000	0.009081
2758.000000	0.009071
2757.000000	0.009064
2756.000000	0.009062
2755.000000	0.009060
2754.000000	0.009054
2753.000000	0.009041
2752.000000	0.009026
2751.000000	0.009012
2750.000000	0.009004
2749.000000	0.009002
2748.000000	0.009001
2747.000000	0.008998
2746.000000	0.008991
2745.000000	0.008981
2744.000000	0.008967
2743.000000	0.008952
2742.000000	0.008938
2741.000000	0.008931
2740.000000	0.008927
2739.000000	0.008924
2738.000000	0.008918
2737.000000	0.008909
2736.000000	0.008897
2735.000000	0.008883
2734.000000	0.008870
2733.000000	0.008858
2732.000000	0.008850
2731.000000	0.008844
2730.000000	0.008842
2729.000000	0.008840
2728.000000	0.008833
2727.000000	0.008820
2726.000000	0.008803
2725.000000	0.008787
2724.000000	0.008775
2723.000000	0.008766
2722.000000	0.008757
2721.000000	0.008747
2720.000000	0.008737
2719.000000	0.008726
2718.000000	0.008713
2717.000000	0.008698
2716.000000	0.008684
2715.000000	0.008672
2714.000000	0.008666
2713.000000	0.008664
2712.000000	0.008660
2711.000000	0.008652
2710.000000	0.008641
2709.000000	0.008631
2708.000000	0.008620
2707.000000	0.008605
2706.000000	0.008586
2705.000000	0.008568
2704.000000	0.008558
2703.000000	0.008557
2702.000000	0.008558
2701.000000	0.008557
2700.000000	0.008552
2699.000000	0.008546
2698.000000	0.008542
2697.000000	0.008539
2696.000000	0.008534
2695.000000	0.008525
2694.000000	0.008513
2693.000000	0.008499
2692.000000	0.008488
2691.000000	0.008481
2690.000000	0.008478
2689.000000	0.008476
2688.000000	0.008470
2687.000000	0.008456
2686.000000	0.008440
2685.000000	0.008427
2684.000000	0.008420
2683.000000	0.008418
2682.000000	0.008417
2681.000000	0.008416
2680.000000	0.008412
2679.000000	0.008405
2678.000000	0.008396
2677.000000	0.008390
2676.000000	0.008387
2675.000000	0.008386
2674.000000	0.008384
2673.000000	0.008382
2672.000000	0.008377
2671.000000	0.008370
2670.000000	0.008364
2669.000000	0.008362
2668.000000	0.008366
2667.000000	0.008380
2666.000000	0.008406
2665.000000	0.008440
2664.000000	0.008476
2663.000000	0.008509
2662.000000	0.008537
2661.000000	0.008560
2660.000000	0.008578
2659.000000	0.008591
2658.000000	0.008599
2657.000000	0.008607
2656.000000	0.008613
2655.000000	0.008619
2654.000000	0.008621
2653.000000	0.008618
2652.000000	0.008610
2651.000000	0.008600
2650.000000	0.008592
2649.000000	0.008587
2648.000000	0.008582
2647.000000	0.008573
2646.000000	0.008561
2645.000000	0.008545
2644.000000	0.008529
2643.000000	0.008514
2642.000000	0.008503
2641.000000	0.008494
2640.000000	0.008484
2639.000000	0.008471
2638.000000	0.008459
2637.000000	0.008450
2636.000000	0.008444
2635.000000	0.008436
2634.000000	0.008426
2633.000000	0.008411
2632.000000	0.008393
2631.000000	0.008372
2630.000000	0.008353
2629.000000	0.008341
2628.000000	0.008337
2627.000000	0.008338
2626.000000	0.008337
2625.000000	0.008327
2624.000000	0.008304
2623.000000	0.008275
2622.000000	0.008249
2621.000000	0.008232
2620.000000	0.008221
2619.000000	0.008212
2618.000000	0.008206
2617.000000	0.008201
2616.000000	0.008194
2615.000000	0.008181
2614.000000	0.008167
2613.000000	0.008159
2612.000000	0.008156
2611.000000	0.008149
2610.000000	0.008139
2609.000000	0.008127
2608.000000	0.008116
2607.000000	0.008101
2606.000000	0.008078
2605.000000	0.008050
2604.000000	0.008024
2603.000000	0.008005
2602.000000	0.007996
2601.000000	0.007993
2600.000000	0.007991
2599.000000	0.007982
2598.000000	0.007970
2597.000000	0.007962
2596.000000	0.007960
2595.000000	0.007959
2594.000000	0.007954
2593.000000	0.007945
2592.000000	0.007933
2591.000000	0.007917
2590.000000	0.007900
2589.000000	0.007881
2588.000000	0.007862
2587.000000	0.007844
2586.000000	0.007834
2585.000000	0.007831
2584.000000	0.007828
2583.000000	0.007819
2582.000000	0.007804
2581.000000	0.007790
2580.000000	0.007779
2579.000000	0.007773
2578.000000	0.007768
2577.000000	0.007762
2576.000000	0.007754
2575.000000	0.007742
2574.000000	0.007729
2573.000000	0.007717
2572.000000	0.007707
2571.000000	0.007697
2570.000000	0.007685
2569.000000	0.007672
2568.000000	0.007660
2567.000000	0.007652
2566.000000	0.007648
2565.000000	0.007647
2564.000000	0.007641
2563.000000	0.007626
2562.000000	0.007605
2561.000000	0.007587
2560.000000	0.007578
2559.000000	0.007578
2558.000000	0.007584
2557.000000	0.007587
2556.000000	0.007577
2555.000000	0.007553
2554.000000	0.007526
2553.000000	0.007510
2552.000000	0.007509
2551.000000	0.007517
2550.000000	0.007526
2549.000000	0.007529
2548.000000	0.007523
2547.000000	0.007506
2546.000000	0.007486
2545.000000	0.007472
2544.000000	0.007467
2543.000000	0.007468
2542.000000	0.007471
2541.000000	0.007469
2540.000000	0.007458
2539.000000	0.007435
2538.000000	0.007412
2537.000000	0.007396
2536.000000	0.007389
2535.000000	0.007386
2534.000000	0.007386
2533.000000	0.007390
2532.000000	0.007395
2531.000000	0.007391
2530.000000	0.007378
2529.000000	0.007362
2528.000000	0.007348
2527.000000	0.007339
2526.000000	0.007333
2525.000000	0.007333
2524.000000	0.007335
2523.000000	0.007330
2522.000000	0.007318
2521.000000	0.007303
2520.000000	0.007289
2519.000000	0.007281
2518.000000	0.007277
2517.000000	0.007276
2516.000000	0.007273
2515.000000	0.007265
2514.000000	0.007251
2513.000000	0.007238
2512.000000	0.007227
2511.000000	0.007220
2510.000000	0.007216
2509.000000	0.007213
2508.000000	0.007209
2507.000000	0.007204
2506.000000	0.007201
2505.000000	0.007201
2504.000000	0.007202
2503.000000	0.007202
2502.000000	0.007203
2501.000000	0.007203
2500.000000	0.007199
2499.000000	0.007190
2498.000000	0.007183
2497.000000	0.007184
2496.000000	0.007191
2495.000000	0.007192
2494.000000	0.007181
2493.000000	0.007163
2492.000000	0.007149
2491.000000	0.007144
2490.000000	0.007145
2489.000000	0.007147
2488.000000	0.007148
2487.000000	0.007148
2486.000000	0.007143
2485.000000	0.007130
2484.000000	0.007108
2483.000000	0.007087
2482.000000	0.007077
2481.000000	0.007078
2480.000000	0.007081
2479.000000	0.007078
2478.000000	0.007070
2477.000000	0.007068
2476.000000	0.007070
2475.000000	0.007075
2474.000000	0.007080
2473.000000	0.007082
2472.000000	0.007077
2471.000000	0.007063
2470.000000	0.007052
2469.000000	0.007055
2468.000000	0.007072
2467.000000	0.007091
2466.000000	0.007102
2465.000000	0.007106
2464.000000	0.007104
2463.000000	0.007101
2462.000000	0.007102
2461.000000	0.007110
2460.000000	0.007124
2459.000000	0.007135
2458.000000	0.007143
2457.000000	0.007151
2456.000000	0.007157
2455.000000	0.007155
2454.000000	0.007142
2453.000000	0.007120
2452.000000	0.007101
2451.000000	0.007090
2450.000000	0.007088
2449.000000	0.007088
2448.000000	0.007084
2447.000000	0.007072
2446.000000	0.007054
2445.000000	0.007030
2444.000000	0.007001
2443.000000	0.006972
2442.000000	0.006951
2441.000000	0.006939
2440.000000	0.006932
2439.000000	0.006926
2438.000000	0.006922
2437.000000	0.006920
2436.000000	0.006916
2435.000000	0.006902
2434.000000	0.006883
2433.000000	0.006866
2432.000000	0.006855
2431.000000	0.006848
2430.000000	0.006840
2429.000000	0.006829
2428.000000	0.006811
2427.000000	0.006788
2426.000000	0.006771
2425.000000	0.006766
2424.000000	0.006768
2423.000000	0.006768
2422.000000	0.006763
2421.000000	0.006756
2420.000000	0.006749
2419.000000	0.006739
2418.000000	0.006728
2417.000000	0.006718
2416.000000	0.006712
2415.000000	0.006711
2414.000000	0.006720
2413.000000	0.006738
2412.000000	0.006752
2411.000000	0.006747
2410.000000	0.006719
2409.000000	0.006676
2408.000000	0.006631
2407.000000	0.006594
2406.000000	0.006571
2405.000000	0.006562
2404.000000	0.006555
2403.000000	0.006544
2402.000000	0.006531
2401.000000	0.006523
2400.000000	0.006517
2399.000000	0.006508
2398.000000	0.006496
2397.000000	0.006487
2396.000000	0.006483
2395.000000	0.006481
2394.000000	0.006482
2393.000000	0.006483
2392.000000	0.006479
2391.000000	0.006465
2390.000000	0.006443
2389.000000	0.006415
2388.000000	0.006382
2387.000000	0.006343
2386.000000	0.006298
2385.000000	0.006250
2384.000000	0.006194
2383.000000	0.006130
2382.000000	0.006066
2381.000000	0.006017
2380.000000	0.005990
2379.000000	0.005991
2378.000000	0.006021
2377.000000	0.006070
2376.000000	0.006117
2375.000000	0.006138
2374.000000	0.006131
2373.000000	0.006101
2372.000000	0.006054
2371.000000	0.005997
2370.000000	0.005945
2369.000000	0.005911
2368.000000	0.005900
2367.000000	0.005912
2366.000000	0.005943
2365.000000	0.005989
2364.000000	0.006043
2363.000000	0.006099
2362.000000	0.006155
2361.000000	0.006199
2360.000000	0.006214
2359.000000	0.006199
2358.000000	0.006173
2357.000000	0.006154
2356.000000	0.006156
2355.000000	0.006174
2354.000000	0.006188
2353.000000	0.006182
2352.000000	0.006176
2351.000000	0.006204
2350.000000	0.006273
2349.000000	0.006357
2348.000000	0.006415
2347.000000	0.006416
2346.000000	0.006372
2345.000000	0.006339
2344.000000	0.006352
2343.000000	0.006385
2342.000000	0.006410
2341.000000	0.006427
2340.000000	0.006444
2339.000000	0.006460
2338.000000	0.006467
2337.000000	0.006468
2336.000000	0.006469
2335.000000	0.006461
2334.000000	0.006427
2333.000000	0.006365
2332.000000	0.006299
2331.000000	0.006265
2330.000000	0.006304
2329.000000	0.006459
2328.000000	0.006739
2327.000000	0.007079
2326.000000	0.007353
2325.000000	0.007457
2324.000000	0.007379
2323.000000	0.007198
2322.000000	0.007016
2321.000000	0.006893
2320.000000	0.006834
2319.000000	0.006816
2318.000000	0.006815
2317.000000	0.006810
2316.000000	0.006785
2315.000000	0.006734
2314.000000	0.006664
2313.000000	0.006595
2312.000000	0.006541
2311.000000	0.006505
2310.000000	0.006483
2309.000000	0.006476
2308.000000	0.006484
2307.000000	0.006503
2306.000000	0.006525
2305.000000	0.006542
2304.000000	0.006557
2303.000000	0.006577
2302.000000	0.006607
2301.000000	0.006645
2300.000000	0.006681
2299.000000	0.006708
2298.000000	0.006732
2297.000000	0.006765
2296.000000	0.006816
2295.000000	0.006886
2294.000000	0.006971
2293.000000	0.007057
2292.000000	0.007132
2291.000000	0.007189
2290.000000	0.007238
2289.000000	0.007282
2288.000000	0.007314
2287.000000	0.007315
2286.000000	0.007282
2285.000000	0.007228
2284.000000	0.007168
2283.000000	0.007113
2282.000000	0.007068
2281.000000	0.007034
2280.000000	0.007008
2279.000000	0.006986
2278.000000	0.006966
2277.000000	0.006951
2276.000000	0.006935
2275.000000	0.006908
2274.000000	0.006874
2273.000000	0.006842
2272.000000	0.006815
2271.000000	0.006787
2270.000000	0.006756
2269.000000	0.006725
2268.000000	0.006694
2267.000000	0.006658
2266.000000	0.006621
2265.000000	0.006595
2264.000000	0.006590
2263.000000	0.006612
2262.000000	0.006657
2261.000000	0.006714
2260.000000	0.006754
2259.000000	0.006753
2258.000000	0.006709
2257.000000	0.006639
2256.000000	0.006564
2255.000000	0.006501
2254.000000	0.006471
2253.000000	0.006481
2252.000000	0.006510
2251.000000	0.006526
2250.000000	0.006521
2249.000000	0.006511
2248.000000	0.006507
2247.000000	0.006512
2246.000000	0.006524
2245.000000	0.006540
2244.000000	0.006551
2243.000000	0.006552
2242.000000	0.006558
2241.000000	0.006582
2240.000000	0.006612
2239.000000	0.006618
2238.000000	0.006593
2237.000000	0.006559
2236.000000	0.006534
2235.000000	0.006518
2234.000000	0.006506
2233.000000	0.006501
2232.000000	0.006502
2231.000000	0.006499
2230.000000	0.006483
2229.000000	0.006459
2228.000000	0.006434
2227.000000	0.006411
2226.000000	0.006402
2225.000000	0.006408
2224.000000	0.006415
2223.000000	0.006402
2222.000000	0.006379
2221.000000	0.006373
2220.000000	0.006388
2219.000000	0.006404
2218.000000	0.006402
2217.000000	0.006391
2216.000000	0.006388
2215.000000	0.006396
2214.000000	0.006399
2213.000000	0.006388
2212.000000	0.006364
2211.000000	0.006344
2210.000000	0.006351
2209.000000	0.006389
2208.000000	0.006436
2207.000000	0.006464
2206.000000	0.006468
2205.000000	0.006457
2204.000000	0.006439
2203.000000	0.006426
2202.000000	0.006432
2201.000000	0.006458
2200.000000	0.006478
2199.000000	0.006471
2198.000000	0.006456
2197.000000	0.006466
2196.000000	0.006495
2195.000000	0.006503
2194.000000	0.006475
2193.000000	0.006441
2192.000000	0.006434
2191.000000	0.006458
2190.000000	0.006500
2189.000000	0.006542
2188.000000	0.006566
2187.000000	0.006561
2186.000000	0.006525
2185.000000	0.006451
2184.000000	0.006319
2183.000000	0.006143
2182.000000	0.006000
2181.000000	0.005961
2180.000000	0.006006
2179.000000	0.006041
2178.000000	0.006003
2177.000000	0.005916
2176.000000	0.005849
2175.000000	0.005860
2174.000000	0.005973
2173.000000	0.006175
2172.000000	0.006410
2171.000000	0.006618
2170.000000	0.006774
2169.000000	0.006884
2168.000000	0.006946
2167.000000	0.006968
2166.000000	0.007003
2165.000000	0.007114
2164.000000	0.007270
2163.000000	0.007302
2162.000000	0.006996
2161.000000	0.006258
2160.000000	0.005239
2159.000000	0.004289
2158.000000	0.003725
2157.000000	0.003613
2156.000000	0.003774
2155.000000	0.003990
2154.000000	0.004166
2153.000000	0.004315
2152.000000	0.004462
2151.000000	0.004600
2150.000000	0.004710
2149.000000	0.004774
2148.000000	0.004770
2147.000000	0.004703
2146.000000	0.004626
2145.000000	0.004601
2144.000000	0.004636
2143.000000	0.004688
2142.000000	0.004723
2141.000000	0.004739
2140.000000	0.004736
2139.000000	0.004703
2138.000000	0.004623
2137.000000	0.004498
2136.000000	0.004350
2135.000000	0.004231
2134.000000	0.004201
2133.000000	0.004275
2132.000000	0.004404
2131.000000	0.004532
2130.000000	0.004644
2129.000000	0.004756
2128.000000	0.004868
2127.000000	0.004966
2126.000000	0.005052
2125.000000	0.005143
2124.000000	0.005238
2123.000000	0.005314
2122.000000	0.005358
2121.000000	0.005385
2120.000000	0.005421
2119.000000	0.005484
2118.000000	0.005577
2117.000000	0.005686
2116.000000	0.005775
2115.000000	0.005819
2114.000000	0.005825
2113.000000	0.005822
2112.000000	0.005826
2111.000000	0.005836
2110.000000	0.005845
2109.000000	0.005851
2108.000000	0.005841
2107.000000	0.005805
2106.000000	0.005762
2105.000000	0.005739
2104.000000	0.005741
2103.000000	0.005749
2102.000000	0.005755
2101.000000	0.005760
2100.000000	0.005749
2099.000000	0.005690
2098.000000	0.005578
2097.000000	0.005450
2096.000000	0.005355
2095.000000	0.005322
2094.000000	0.005355
2093.000000	0.005437
2092.000000	0.005530
2091.000000	0.005598
2090.000000	0.005635
2089.000000	0.005657
2088.000000	0.005682
2087.000000	0.005708
2086.000000	0.005730
2085.000000	0.005753
2084.000000	0.005782
2083.000000	0.005821
2082.000000	0.005868
2081.000000	0.005909
2080.000000	0.005921
2079.000000	0.005893
2078.000000	0.005846
2077.000000	0.005811
2076.000000	0.005795
2075.000000	0.005778
2074.000000	0.005741
2073.000000	0.005690
2072.000000	0.005642
2071.000000	0.005613
2070.000000	0.005611
2069.000000	0.005624
2068.000000	0.005624
2067.000000	0.005607
2066.000000	0.005597
2065.000000	0.005613
2064.000000	0.005642
2063.000000	0.005660
2062.000000	0.005672
2061.000000	0.005688
2060.000000	0.005703
2059.000000	0.005710
2058.000000	0.005717
2057.000000	0.005721
2056.000000	0.005719
2055.000000	0.005759
2054.000000	0.005936
2053.000000	0.006260
2052.000000	0.006577
2051.000000	0.006673
2050.000000	0.006487
2049.000000	0.006160
2048.000000	0.005877
2047.000000	0.005713
2046.000000	0.005648
2045.000000	0.005642
2044.000000	0.005647
2043.000000	0.005624
2042.000000	0.005587
2041.000000	0.005590
2040.000000	0.005651
2039.000000	0.005730
2038.000000	0.005781
2037.000000	0.005783
2036.000000	0.005711
2035.000000	0.005564
2034.000000	0.005395
2033.000000	0.005273
2032.000000	0.005191
2031.000000	0.005094
2030.000000	0.004986
2029.000000	0.004924
2028.000000	0.004919
2027.000000	0.004910
2026.000000	0.004862
2025.000000	0.004812
2024.000000	0.004795
2023.000000	0.004806
2022.000000	0.004837
2021.000000	0.004890
2020.000000	0.004945
2019.000000	0.004963
2018.000000	0.004943
2017.000000	0.004916
2016.000000	0.004893
2015.000000	0.004867
2014.000000	0.004856
2013.000000	0.004891
2012.000000	0.004962
2011.000000	0.005014
2010.000000	0.004994
2009.000000	0.004873
2008.000000	0.004656
2007.000000	0.004417
2006.000000	0.004280
2005.000000	0.004310
2004.000000	0.004433
2003.000000	0.004538
2002.000000	0.004601
2001.000000	0.004674
2000.000000	0.004767
1999.000000	0.004837
1998.000000	0.004875
1997.000000	0.004915
1996.000000	0.004974
1995.000000	0.005030
1994.000000	0.005066
1993.000000	0.005090
1992.000000	0.005098
1991.000000	0.005086
1990.000000	0.005087
1989.000000	0.005147
1988.000000	0.005253
1987.000000	0.005348
1986.000000	0.005415
1985.000000	0.005505
1984.000000	0.005665
1983.000000	0.005893
1982.000000	0.006119
1981.000000	0.006211
1980.000000	0.006020
1979.000000	0.005533
1978.000000	0.004965
1977.000000	0.004586
1976.000000	0.004448
1975.000000	0.004402
1974.000000	0.004341
1973.000000	0.004284
1972.000000	0.004267
1971.000000	0.004269
1970.000000	0.004270
1969.000000	0.004272
1968.000000	0.004251
1967.000000	0.004190
1966.000000	0.004132
1965.000000	0.004133
1964.000000	0.004161
1963.000000	0.004131
1962.000000	0.004031
1961.000000	0.003939
1960.000000	0.003912
1959.000000	0.003945
1958.000000	0.004016
1957.000000	0.004111
1956.000000	0.004190
1955.000000	0.004212
1954.000000	0.004189
1953.000000	0.004168
1952.000000	0.004168
1951.000000	0.004170
1950.000000	0.004174
1949.000000	0.004197
1948.000000	0.004230
1947.000000	0.004237
1946.000000	0.004221
1945.000000	0.004216
1944.000000	0.004230
1943.000000	0.004238
1942.000000	0.004227
1941.000000	0.004214
1940.000000	0.004204
1939.000000	0.004187
1938.000000	0.004170
1937.000000	0.004173
1936.000000	0.004193
1935.000000	0.004204
1934.000000	0.004204
1933.000000	0.004205
1932.000000	0.004205
1931.000000	0.004197
1930.000000	0.004197
1929.000000	0.004218
1928.000000	0.004236
1927.000000	0.004217
1926.000000	0.004179
1925.000000	0.004175
1924.000000	0.004231
1923.000000	0.004311
1922.000000	0.004371
1921.000000	0.004399
1920.000000	0.004398
1919.000000	0.004374
1918.000000	0.004351
1917.000000	0.004353
1916.000000	0.004371
1915.000000	0.004376
1914.000000	0.004365
1913.000000	0.004356
1912.000000	0.004354
1911.000000	0.004344
1910.000000	0.004324
1909.000000	0.004315
1908.000000	0.004325
1907.000000	0.004337
1906.000000	0.004345
1905.000000	0.004358
1904.000000	0.004374
1903.000000	0.004376
1902.000000	0.004360
1901.000000	0.004337
1900.000000	0.004310
1899.000000	0.004272
1898.000000	0.004236
1897.000000	0.004228
1896.000000	0.004254
1895.000000	0.004287
1894.000000	0.004305
1893.000000	0.004304
1892.000000	0.004289
1891.000000	0.004264
1890.000000	0.004244
1889.000000	0.004246
1888.000000	0.004259
1887.000000	0.004262
1886.000000	0.004256
1885.000000	0.004258
1884.000000	0.004263
1883.000000	0.004253
1882.000000	0.004230
1881.000000	0.004223
1880.000000	0.004236
1879.000000	0.004249
1878.000000	0.004252
1877.000000	0.004259
1876.000000	0.004269
1875.000000	0.004263
1874.000000	0.004236
1873.000000	0.004204
1872.000000	0.004174
1871.000000	0.004140
1870.000000	0.004119
1869.000000	0.004138
1868.000000	0.004185
1867.000000	0.004219
1866.000000	0.004220
1865.000000	0.004204
1864.000000	0.004186
1863.000000	0.004169
1862.000000	0.004155
1861.000000	0.004151
1860.000000	0.004153
1859.000000	0.004147
1858.000000	0.004132
1857.000000	0.004125
1856.000000	0.004131
1855.000000	0.004131
1854.000000	0.004120
1853.000000	0.004111
1852.000000	0.004106
1851.000000	0.004093
1850.000000	0.004075
1849.000000	0.004063
1848.000000	0.004057
1847.000000	0.004039
1846.000000	0.004014
1845.000000	0.004011
1844.000000	0.004037
1843.000000	0.004056
1842.000000	0.004051
1841.000000	0.004039
1840.000000	0.004027
1839.000000	0.004007
1838.000000	0.003984
1837.000000	0.003981
1836.000000	0.003999
1835.000000	0.004011
1834.000000	0.004002
1833.000000	0.003979
1832.000000	0.003948
1831.000000	0.003917
1830.000000	0.003902
1829.000000	0.003909
1828.000000	0.003919
1827.000000	0.003916
1826.000000	0.003914
1825.000000	0.003936
1824.000000	0.003972
1823.000000	0.003988
1822.000000	0.003974
1821.000000	0.003934
1820.000000	0.003872
1819.000000	0.003794
1818.000000	0.003731
1817.000000	0.003719
1816.000000	0.003750
1815.000000	0.003789
1814.000000	0.003818
1813.000000	0.003847
1812.000000	0.003882
1811.000000	0.003910
1810.000000	0.003924
1809.000000	0.003931
1808.000000	0.003932
1807.000000	0.003923
1806.000000	0.003901
1805.000000	0.003878
1804.000000	0.003860
1803.000000	0.003847
1802.000000	0.003847
1801.000000	0.003869
1800.000000	0.003905
1799.000000	0.003938
1798.000000	0.003958
1797.000000	0.003971
1796.000000	0.003977
1795.000000	0.003968
1794.000000	0.003949
1793.000000	0.003949
1792.000000	0.003974
1791.000000	0.003992
1790.000000	0.003987
1789.000000	0.003976
1788.000000	0.003968
1787.000000	0.003958
1786.000000	0.003950
1785.000000	0.003956
1784.000000	0.003964
1783.000000	0.003960
1782.000000	0.003951
1781.000000	0.003953
1780.000000	0.003961
1779.000000	0.003949
1778.000000	0.003919
1777.000000	0.003901
1776.000000	0.003907
1775.000000	0.003921
1774.000000	0.003927
1773.000000	0.003941
1772.000000	0.003956
1771.000000	0.003947
1770.000000	0.003934
1769.000000	0.003952
1768.000000	0.003990
1767.000000	0.004007
1766.000000	0.003994
1765.000000	0.003975
1764.000000	0.003962
1763.000000	0.003953
1762.000000	0.003955
1761.000000	0.003975
1760.000000	0.003996
1759.000000	0.004002
1758.000000	0.004007
1757.000000	0.004038
1756.000000	0.004079
1755.000000	0.004095
1754.000000	0.004095
1753.000000	0.004111
1752.000000	0.004144
1751.000000	0.004159
1750.000000	0.004148
1749.000000	0.004158
1748.000000	0.004198
1747.000000	0.004227
1746.000000	0.004235
1745.000000	0.004254
1744.000000	0.004289
1743.000000	0.004305
1742.000000	0.004301
1741.000000	0.004323
1740.000000	0.004385
1739.000000	0.004433
1738.000000	0.004452
1737.000000	0.004494
1736.000000	0.004587
1735.000000	0.004710
1734.000000	0.004817
1733.000000	0.004866
1732.000000	0.004869
1731.000000	0.004860
1730.000000	0.004865
1729.000000	0.004914
1728.000000	0.004990
1727.000000	0.005048
1726.000000	0.005083
1725.000000	0.005141
1724.000000	0.005239
1723.000000	0.005324
1722.000000	0.005357
1721.000000	0.005378
1720.000000	0.005442
1719.000000	0.005567
1718.000000	0.005737
1717.000000	0.005907
1716.000000	0.006037
1715.000000	0.006126
1714.000000	0.006205
1713.000000	0.006328
1712.000000	0.006504
1711.000000	0.006684
1710.000000	0.006849
1709.000000	0.007026
1708.000000	0.007251
1707.000000	0.007544
1706.000000	0.007934
1705.000000	0.008424
1704.000000	0.008932
1703.000000	0.009420
1702.000000	0.010003
1701.000000	0.011013
1700.000000	0.012452
1699.000000	0.013717
1698.000000	0.014569
1697.000000	0.015288
1696.000000	0.016026
1695.000000	0.016649
1694.000000	0.017023
1693.000000	0.017249
1692.000000	0.017463
1691.000000	0.017716
1690.000000	0.018021
1689.000000	0.018382
1688.000000	0.018769
1687.000000	0.019129
1686.000000	0.019464
1685.000000	0.019961
1684.000000	0.020717
1683.000000	0.021434
1682.000000	0.021970
1681.000000	0.022468
1680.000000	0.022987
1679.000000	0.023482
1678.000000	0.023921
1677.000000	0.024381
1676.000000	0.024983
1675.000000	0.025718
1674.000000	0.026410
1673.000000	0.026970
1672.000000	0.027465
1671.000000	0.027999
1670.000000	0.028665
1669.000000	0.029449
1668.000000	0.030203
1667.000000	0.030802
1666.000000	0.031260
1665.000000	0.031687
1664.000000	0.032201
1663.000000	0.032844
1662.000000	0.033532
1661.000000	0.034171
1660.000000	0.034733
1659.000000	0.035209
1658.000000	0.035600
1657.000000	0.035930
1656.000000	0.036227
1655.000000	0.036507
1654.000000	0.036989
1653.000000	0.037887
1652.000000	0.038735
1651.000000	0.039105
1650.000000	0.039183
1649.000000	0.039238
1648.000000	0.039476
1647.000000	0.039947
1646.000000	0.040487
1645.000000	0.040919
1644.000000	0.041220
1643.000000	0.041436
1642.000000	0.041622
1641.000000	0.041819
1640.000000	0.042031
1639.000000	0.042221
1638.000000	0.042369
1637.000000	0.042554
1636.000000	0.042914
1635.000000	0.043384
1634.000000	0.043754
1633.000000	0.043983
1632.000000	0.044143
1631.000000	0.044265
1630.000000	0.044364
1629.000000	0.044488
1628.000000	0.044680
1627.000000	0.044885
1626.000000	0.045023
1625.000000	0.045093
1624.000000	0.045168
1623.000000	0.045283
1622.000000	0.045381
1621.000000	0.045408
1620.000000	0.045356
1619.000000	0.045214
1618.000000	0.044968
1617.000000	0.044666
1616.000000	0.044381
1615.000000	0.044092
1614.000000	0.043739
1613.000000	0.043310
1612.000000	0.042819
1611.000000	0.042284
1610.000000	0.041714
1609.000000	0.041115
1608.000000	0.040486
1607.000000	0.039823
1606.000000	0.039123
1605.000000	0.038385
1604.000000	0.037614
1603.000000	0.036820
1602.000000	0.036017
1601.000000	0.035212
1600.000000	0.034412
1599.000000	0.033629
1598.000000	0.032866
1597.000000	0.032115
1596.000000	0.031374
1595.000000	0.030656
1594.000000	0.029974
1593.000000	0.029316
1592.000000	0.028672
1591.000000	0.028048
1590.000000	0.027455
1589.000000	0.026885
1588.000000	0.026337
1587.000000	0.025824
1586.000000	0.025365
1585.000000	0.024949
1584.000000	0.024563
1583.000000	0.024218
1582.000000	0.023926
1581.000000	0.023673
1580.000000	0.023450
1579.000000	0.023282
1578.000000	0.023186
1577.000000	0.023150
1576.000000	0.023147
1575.000000	0.023158
1574.000000	0.023173
1573.000000	0.023183
1572.000000	0.023188
1571.000000	0.023254
1570.000000	0.023487
1569.000000	0.023851
1568.000000	0.024191
1567.000000	0.024468
1566.000000	0.024756
1565.000000	0.025095
1564.000000	0.025450
1563.000000	0.025761
1562.000000	0.025998
1561.000000	0.026137
1560.000000	0.026419
1559.000000	0.027235
1558.000000	0.028195
1557.000000	0.028805
1556.000000	0.029197
1555.000000	0.029571
1554.000000	0.030016
1553.000000	0.030446
1552.000000	0.030805
1551.000000	0.031162
1550.000000	0.031605
1549.000000	0.032087
1548.000000	0.032484
1547.000000	0.032778
1546.000000	0.033060
1545.000000	0.033405
1544.000000	0.033784
1543.000000	0.034140
1542.000000	0.034510
1541.000000	0.035006
1540.000000	0.035644
1539.000000	0.036251
1538.000000	0.036667
1537.000000	0.036887
1536.000000	0.036997
1535.000000	0.037139
1534.000000	0.037473
1533.000000	0.038003
1532.000000	0.038522
1531.000000	0.038916
1530.000000	0.039215
1529.000000	0.039482
1528.000000	0.039778
1527.000000	0.040149
1526.000000	0.040578
1525.000000	0.040968
1524.000000	0.041255
1523.000000	0.041511
1522.000000	0.041890
1521.000000	0.042376
1520.000000	0.042759
1519.000000	0.042967
1518.000000	0.043117
1517.000000	0.043300
1516.000000	0.043485
1515.000000	0.043584
1514.000000	0.043549
1513.000000	0.043370
1512.000000	0.043089
1511.000000	0.042780
1510.000000	0.042463
1509.000000	0.042085
1508.000000	0.041579
1507.000000	0.040966
1506.000000	0.040394
1505.000000	0.039912
1504.000000	0.039411
1503.000000	0.038835
1502.000000	0.038190
1501.000000	0.037464
1500.000000	0.036698
1499.000000	0.035949
1498.000000	0.035223
1497.000000	0.034457
1496.000000	0.033658
1495.000000	0.032900
1494.000000	0.032189
1493.000000	0.031463
1492.000000	0.030674
1491.000000	0.029838
1490.000000	0.029017
1489.000000	0.028256
1488.000000	0.027577
1487.000000	0.026968
1486.000000	0.026400
1485.000000	0.025868
1484.000000	0.025369
1483.000000	0.024892
1482.000000	0.024434
1481.000000	0.024018
1480.000000	0.023662
1479.000000	0.023344
1478.000000	0.023037
1477.000000	0.022765
1476.000000	0.022570
1475.000000	0.022447
1474.000000	0.022359
1473.000000	0.022303
1472.000000	0.022298
1471.000000	0.022320
1470.000000	0.022320
1469.000000	0.022277
1468.000000	0.022200
1467.000000	0.022111
1466.000000	0.022044
1465.000000	0.022043
1464.000000	0.022121
1463.000000	0.022234
1462.000000	0.022331
1461.000000	0.022403
1460.000000	0.022486
1459.000000	0.022646
1458.000000	0.022977
1457.000000	0.023469
1456.000000	0.023902
1455.000000	0.024139
1454.000000	0.024247
1453.000000	0.024314
1452.000000	0.024365
1451.000000	0.024382
1450.000000	0.024356
1449.000000	0.024300
1448.000000	0.024234
1447.000000	0.024163
1446.000000	0.024068
1445.000000	0.023922
1444.000000	0.023722
1443.000000	0.023486
1442.000000	0.023233
1441.000000	0.022975
1440.000000	0.022713
1439.000000	0.022435
1438.000000	0.022139
1437.000000	0.021867
1436.000000	0.021666
1435.000000	0.021525
1434.000000	0.021387
1433.000000	0.021221
1432.000000	0.021042
1431.000000	0.020886
1430.000000	0.020779
1429.000000	0.020715
1428.000000	0.020679
1427.000000	0.020653
1426.000000	0.020634
1425.000000	0.020641
1424.000000	0.020687
1423.000000	0.020747
1422.000000	0.020785
1421.000000	0.020800
1420.000000	0.020855
1419.000000	0.021015
1418.000000	0.021225
1417.000000	0.021394
1416.000000	0.021514
1415.000000	0.021609
1414.000000	0.021701
1413.000000	0.021803
1412.000000	0.021919
1411.000000	0.022035
1410.000000	0.022132
1409.000000	0.022201
1408.000000	0.022240
1407.000000	0.022262
1406.000000	0.022290
1405.000000	0.022341
1404.000000	0.022398
1403.000000	0.022422
1402.000000	0.022391
1401.000000	0.022324
1400.000000	0.022266
1399.000000	0.022244
1398.000000	0.022236
1397.000000	0.022212
1396.000000	0.022170
1395.000000	0.022131
1394.000000	0.022120
1393.000000	0.022130
1392.000000	0.022129
1391.000000	0.022101
1390.000000	0.022050
1389.000000	0.022000
1388.000000	0.021966
1387.000000	0.021939
1386.000000	0.021896
1385.000000	0.021831
1384.000000	0.021751
1383.000000	0.021664
1382.000000	0.021579
1381.000000	0.021499
1380.000000	0.021426
1379.000000	0.021360
1378.000000	0.021292
1377.000000	0.021219
1376.000000	0.021151
1375.000000	0.021101
1374.000000	0.021078
1373.000000	0.021073
1372.000000	0.021067
1371.000000	0.021040
1370.000000	0.020979
1369.000000	0.020894
1368.000000	0.020794
1367.000000	0.020675
1366.000000	0.020529
1365.000000	0.020358
1364.000000	0.020194
1363.000000	0.020069
1362.000000	0.019983
1361.000000	0.019915
1360.000000	0.019850
1359.000000	0.019780
1358.000000	0.019704
1357.000000	0.019630
1356.000000	0.019565
1355.000000	0.019513
1354.000000	0.019469
1353.000000	0.019427
1352.000000	0.019389
1351.000000	0.019361
1350.000000	0.019344
1349.000000	0.019336
1348.000000	0.019338
1347.000000	0.019346
1346.000000	0.019354
1345.000000	0.019359
1344.000000	0.019365
1343.000000	0.019374
1342.000000	0.019388
1341.000000	0.019412
1340.000000	0.019449
1339.000000	0.019487
1338.000000	0.019511
1337.000000	0.019518
1336.000000	0.019514
1335.000000	0.019504
1334.000000	0.019491
1333.000000	0.019478
1332.000000	0.019474
1331.000000	0.019479
1330.000000	0.019484
1329.000000	0.019484
1328.000000	0.019482
1327.000000	0.019483
1326.000000	0.019483
1325.000000	0.019480
1324.000000	0.019472
1323.000000	0.019459
1322.000000	0.019439
1321.000000	0.019418
1320.000000	0.019402
1319.000000	0.019389
1318.000000	0.019373
1317.000000	0.019348
1316.000000	0.019316
1315.000000	0.019281
1314.000000	0.019243
1313.000000	0.019201
1312.000000	0.019156
1311.000000	0.019107
1310.000000	0.019056
1309.000000	0.019003
1308.000000	0.018954
1307.000000	0.018912
1306.000000	0.018876
1305.000000	0.018842
1304.000000	0.018805
1303.000000	0.018763
1302.000000	0.018713
1301.000000	0.018660
1300.000000	0.018607
1299.000000	0.018561
1298.000000	0.018523
1297.000000	0.018493
1296.000000	0.018470
1295.000000	0.018455
1294.000000	0.018445
1293.000000	0.018438
1292.000000	0.018432
1291.000000	0.018426
1290.000000	0.018422
1289.000000	0.018424
1288.000000	0.018430
1287.000000	0.018435
1286.000000	0.018433
1285.000000	0.018423
1284.000000	0.018406
1283.000000	0.018383
1282.000000	0.018355
1281.000000	0.018326
1280.000000	0.018299
1279.000000	0.018274
1278.000000	0.018248
1277.000000	0.018220
1276.000000	0.018193
1275.000000	0.018169
1274.000000	0.018152
1273.000000	0.018143
1272.000000	0.018148
1271.000000	0.018165
1270.000000	0.018189
1269.000000	0.018221
1268.000000	0.018262
1267.000000	0.018309
1266.000000	0.018361
1265.000000	0.018417
1264.000000	0.018486
1263.000000	0.018576
1262.000000	0.018690
1261.000000	0.018828
1260.000000	0.018984
1259.000000	0.019146
1258.000000	0.019307
1257.000000	0.019467
1256.000000	0.019636
1255.000000	0.019815
1254.000000	0.020002
1253.000000	0.020192
1252.000000	0.020382
1251.000000	0.020563
1250.000000	0.020729
1249.000000	0.020878
1248.000000	0.021013
1247.000000	0.021137
1246.000000	0.021253
1245.000000	0.021364
1244.000000	0.021472
1243.000000	0.021569
1242.000000	0.021650
1241.000000	0.021717
1240.000000	0.021779
1239.000000	0.021834
1238.000000	0.021879
1237.000000	0.021912
1236.000000	0.021934
1235.000000	0.021945
1234.000000	0.021945
1233.000000	0.021939
1232.000000	0.021930
1231.000000	0.021917
1230.000000	0.021894
1229.000000	0.021856
1228.000000	0.021804
1227.000000	0.021742
1226.000000	0.021672
1225.000000	0.021595
1224.000000	0.021510
1223.000000	0.021416
1222.000000	0.021314
1221.000000	0.021210
1220.000000	0.021103
1219.000000	0.020987
1218.000000	0.020854
1217.000000	0.020709
1216.000000	0.020558
1215.000000	0.020406
1214.000000	0.020249
1213.000000	0.020079
1212.000000	0.019891
1211.000000	0.019690
1210.000000	0.019483
1209.000000	0.019280
1208.000000	0.019080
1207.000000	0.018880
1206.000000	0.018677
1205.000000	0.018474
1204.000000	0.018273
1203.000000	0.018074
1202.000000	0.017878
1201.000000	0.017686
1200.000000	0.017501
1199.000000	0.017325
1198.000000	0.017158
1197.000000	0.016999
1196.000000	0.016851
1195.000000	0.016716
1194.000000	0.016594
1193.000000	0.016489
1192.000000	0.016400
1191.000000	0.016321
1190.000000	0.016249
1189.000000	0.016180
1188.000000	0.016115
1187.000000	0.016058
1186.000000	0.016012
1185.000000	0.015979
1184.000000	0.015959
1183.000000	0.015949
1182.000000	0.015946
1181.000000	0.015956
1180.000000	0.015985
1179.000000	0.016037
1178.000000	0.016111
1177.000000	0.016205
1176.000000	0.016321
1175.000000	0.016456
1174.000000	0.016602
1173.000000	0.016755
1172.000000	0.016905
1171.000000	0.017046
1170.000000	0.017172
1169.000000	0.017289
1168.000000	0.017406
1167.000000	0.017524
1166.000000	0.017638
1165.000000	0.017744
1164.000000	0.017843
1163.000000	0.017932
1162.000000	0.018008
1161.000000	0.018069
1160.000000	0.018114
1159.000000	0.018137
1158.000000	0.018134
1157.000000	0.018108
1156.000000	0.018063
1155.000000	0.017999
1154.000000	0.017913
1153.000000	0.017807
1152.000000	0.017693
1151.000000	0.017574
1150.000000	0.017451
1149.000000	0.017322
1148.000000	0.017188
1147.000000	0.017048
1146.000000	0.016902
1145.000000	0.016760
1144.000000	0.016635
1143.000000	0.016533
1142.000000	0.016449
1141.000000	0.016373
1140.000000	0.016304
1139.000000	0.016243
1138.000000	0.016187
1137.000000	0.016136
1136.000000	0.016094
1135.000000	0.016065
1134.000000	0.016046
1133.000000	0.016032
1132.000000	0.016018
1131.000000	0.016003
1130.000000	0.015984
1129.000000	0.015964
1128.000000	0.015947
1127.000000	0.015934
1126.000000	0.015923
1125.000000	0.015908
1124.000000	0.015885
1123.000000	0.015854
1122.000000	0.015818
1121.000000	0.015783
1120.000000	0.015758
1119.000000	0.015743
1118.000000	0.015734
1117.000000	0.015725
1116.000000	0.015717
1115.000000	0.015707
1114.000000	0.015696
1113.000000	0.015685
1112.000000	0.015680
1111.000000	0.015682
1110.000000	0.015690
1109.000000	0.015702
1108.000000	0.015723
1107.000000	0.015754
1106.000000	0.015795
1105.000000	0.015845
1104.000000	0.015902
1103.000000	0.015959
1102.000000	0.016011
1101.000000	0.016058
1100.000000	0.016108
1099.000000	0.016165
1098.000000	0.016229
1097.000000	0.016307
1096.000000	0.016412
1095.000000	0.016552
1094.000000	0.016719
1093.000000	0.016897
1092.000000	0.017077
1091.000000	0.017263
1090.000000	0.017468
1089.000000	0.017705
1088.000000	0.017972
1087.000000	0.018252
1086.000000	0.018529
1085.000000	0.018803
1084.000000	0.019090
1083.000000	0.019393
1082.000000	0.019703
1081.000000	0.020013
1080.000000	0.020321
1079.000000	0.020622
1078.000000	0.020903
1077.000000	0.021159
1076.000000	0.021391
1075.000000	0.021599
1074.000000	0.021779
1073.000000	0.021934
1072.000000	0.022077
1071.000000	0.022212
1070.000000	0.022338
1069.000000	0.022449
1068.000000	0.022534
1067.000000	0.022585
1066.000000	0.022603
1065.000000	0.022603
1064.000000	0.022595
1063.000000	0.022578
1062.000000	0.022536
1061.000000	0.022468
1060.000000	0.022379
1059.000000	0.022280
1058.000000	0.022182
1057.000000	0.022088
1056.000000	0.021998
1055.000000	0.021907
1054.000000	0.021809
1053.000000	0.021705
1052.000000	0.021597
1051.000000	0.021484
1050.000000	0.021367
1049.000000	0.021250
1048.000000	0.021134
1047.000000	0.021013
1046.000000	0.020879
1045.000000	0.020730
1044.000000	0.020568
1043.000000	0.020395
1042.000000	0.020213
1041.000000	0.020022
1040.000000	0.019823
1039.000000	0.019619
1038.000000	0.019415
1037.000000	0.019224
1036.000000	0.019051
1035.000000	0.018886
1034.000000	0.018721
1033.000000	0.018555
1032.000000	0.018392
1031.000000	0.018229
1030.000000	0.018051
1029.000000	0.017852
1028.000000	0.017637
1027.000000	0.017417
1026.000000	0.017200
1025.000000	0.016993
1024.000000	0.016794
1023.000000	0.016596
1022.000000	0.016394
1021.000000	0.016194
1020.000000	0.016004
1019.000000	0.015823
1018.000000	0.015646
1017.000000	0.015474
1016.000000	0.015316
1015.000000	0.015177
1014.000000	0.015049
1013.000000	0.014922
1012.000000	0.014797
1011.000000	0.014677
1010.000000	0.014554
1009.000000	0.014428
1008.000000	0.014309
1007.000000	0.014211
1006.000000	0.014137
1005.000000	0.014070
1004.000000	0.013997
1003.000000	0.013917
1002.000000	0.013840
1001.000000	0.013770
1000.000000	0.013704
999.000000	0.013638
998.000000	0.013573
997.000000	0.013514
996.000000	0.013464
995.000000	0.013423
994.000000	0.013381
993.000000	0.013328
992.000000	0.013265
991.000000	0.013199
990.000000	0.013135
989.000000	0.013075
988.000000	0.013016
987.000000	0.012957
986.000000	0.012899
985.000000	0.012847
984.000000	0.012800
983.000000	0.012757
982.000000	0.012712
981.000000	0.012671
980.000000	0.012642
979.000000	0.012630
978.000000	0.012630
977.000000	0.012636
976.000000	0.012644
975.000000	0.012655
974.000000	0.012665
973.000000	0.012679
972.000000	0.012704
971.000000	0.012747
970.000000	0.012807
969.000000	0.012881
968.000000	0.012967
967.000000	0.013061
966.000000	0.013152
965.000000	0.013236
964.000000	0.013313
963.000000	0.013381
962.000000	0.013430
961.000000	0.013448
960.000000	0.013433
959.000000	0.013395
958.000000	0.013342
957.000000	0.013278
956.000000	0.013209
955.000000	0.013143
954.000000	0.013082
953.000000	0.013024
952.000000	0.012971
951.000000	0.012921
950.000000	0.012873
949.000000	0.012822
948.000000	0.012769
947.000000	0.012719
946.000000	0.012681
945.000000	0.012657
944.000000	0.012648
943.000000	0.012640
942.000000	0.012624
941.000000	0.012597
940.000000	0.012569
939.000000	0.012548
938.000000	0.012530
937.000000	0.012510
936.000000	0.012490
935.000000	0.012474
934.000000	0.012460
933.000000	0.012445
932.000000	0.012431
931.000000	0.012416
930.000000	0.012394
929.000000	0.012361
928.000000	0.012323
927.000000	0.012287
926.000000	0.012247
925.000000	0.012193
924.000000	0.012127
923.000000	0.012058
922.000000	0.011998
921.000000	0.011948
920.000000	0.011907
919.000000	0.011874
918.000000	0.011845
917.000000	0.011818
916.000000	0.011796
915.000000	0.011783
914.000000	0.011776
913.000000	0.011769
912.000000	0.011763
911.000000	0.011766
910.000000	0.011778
909.000000	0.011793
908.000000	0.011802
907.000000	0.011810
906.000000	0.011823
905.000000	0.011845
904.000000	0.011878
903.000000	0.011915
902.000000	0.011946
901.000000	0.011960
900.000000	0.011950
899.000000	0.011925
898.000000	0.011890
897.000000	0.011850
896.000000	0.011808
895.000000	0.011764
894.000000	0.011719
893.000000	0.011675
892.000000	0.011630
891.000000	0.011585
890.000000	0.011536
889.000000	0.011485
888.000000	0.011434
887.000000	0.011390
886.000000	0.011361
885.000000	0.011345
884.000000	0.011337
883.000000	0.011325
882.000000	0.011303
881.000000	0.011273
880.000000	0.011246
879.000000	0.011235
878.000000	0.011237
877.000000	0.011245
876.000000	0.011251
875.000000	0.011254
874.000000	0.011260
873.000000	0.011273
872.000000	0.011294
871.000000	0.011313
870.000000	0.011321
869.000000	0.011315
868.000000	0.011305
867.000000	0.011300
866.000000	0.011300
865.000000	0.011299
864.000000	0.011298
863.000000	0.011293
862.000000	0.011283
861.000000	0.011270
860.000000	0.011264
859.000000	0.011275
858.000000	0.011300
857.000000	0.011330
856.000000	0.011361
855.000000	0.011395
854.000000	0.011428
853.000000	0.011452
852.000000	0.011463
851.000000	0.011466
850.000000	0.011475
849.000000	0.011501
848.000000	0.011545
847.000000	0.011598
846.000000	0.011644
845.000000	0.011674
844.000000	0.011694
843.000000	0.011718
842.000000	0.011759
841.000000	0.011819
840.000000	0.011894
839.000000	0.011977
838.000000	0.012067
837.000000	0.012162
836.000000	0.012263
835.000000	0.012369
834.000000	0.012472
833.000000	0.012575
832.000000	0.012684
831.000000	0.012803
830.000000	0.012927
829.000000	0.013045
828.000000	0.013145
827.000000	0.013224
826.000000	0.013287
825.000000	0.013340
824.000000	0.013388
823.000000	0.013436
822.000000	0.013489
821.000000	0.013552
820.000000	0.013621
819.000000	0.013696
818.000000	0.013775
817.000000	0.013865
816.000000	0.013966
815.000000	0.014077
814.000000	0.014188
813.000000	0.014293
812.000000	0.014387
811.000000	0.014459
810.000000	0.014509
809.000000	0.014544
808.000000	0.014579
807.000000	0.014624
806.000000	0.014678
805.000000	0.014736
804.000000	0.014799
803.000000	0.014869
802.000000	0.014947
801.000000	0.015033
800.000000	0.015122
799.000000	0.015210
798.000000	0.015301
797.000000	0.015406
796.000000	0.015524
795.000000	0.015646
794.000000	0.015765
793.000000	0.015887
792.000000	0.016017
791.000000	0.016156
790.000000	0.016299
789.000000	0.016450
788.000000	0.016614
787.000000	0.016786
786.000000	0.016961
785.000000	0.017141
784.000000	0.017327
783.000000	0.017507
782.000000	0.017663
781.000000	0.017802
780.000000	0.017942
779.000000	0.018096
778.000000	0.018252
777.000000	0.018395
776.000000	0.018516
775.000000	0.018618
774.000000	0.018710
773.000000	0.018805
772.000000	0.018906
771.000000	0.019001
770.000000	0.019079
769.000000	0.019141
768.000000	0.019203
767.000000	0.019270
766.000000	0.019333
765.000000	0.019377
764.000000	0.019406
763.000000	0.019432
762.000000	0.019470
761.000000	0.019527
760.000000	0.019601
759.000000	0.019680
758.000000	0.019753
757.000000	0.019824
756.000000	0.019907
755.000000	0.020011
754.000000	0.020129
753.000000	0.020245
752.000000	0.020349
751.000000	0.020444
750.000000	0.020538
749.000000	0.020635
748.000000	0.020729
747.000000	0.020813
746.000000	0.020884
745.000000	0.020949
744.000000	0.021013
743.000000	0.021081
742.000000	0.021156
741.000000	0.021239
740.000000	0.021323
739.000000	0.021400
738.000000	0.021481
737.000000	0.021584
736.000000	0.021721
735.000000	0.021879
734.000000	0.022040
733.000000	0.022201
732.000000	0.022372
731.000000	0.022562
730.000000	0.022781
729.000000	0.023040
728.000000	0.023336
727.000000	0.023650
726.000000	0.023963
725.000000	0.024276
724.000000	0.024599
723.000000	0.024927
722.000000	0.025248
721.000000	0.025573
720.000000	0.025921
719.000000	0.026300
718.000000	0.026698
717.000000	0.027099
716.000000	0.027495
715.000000	0.027879
714.000000	0.028245
713.000000	0.028593
712.000000	0.028928
711.000000	0.029252
710.000000	0.029568
709.000000	0.029888
708.000000	0.030218
707.000000	0.030553
706.000000	0.030881
705.000000	0.031200
704.000000	0.031509
703.000000	0.031805
702.000000	0.032071
701.000000	0.032285
700.000000	0.032434
699.000000	0.032518
698.000000	0.032552
697.000000	0.032558
696.000000	0.032550
695.000000	0.032535
694.000000	0.032523
693.000000	0.032521
692.000000	0.032532
691.000000	0.032551
690.000000	0.032576
689.000000	0.032613
688.000000	0.032665
687.000000	0.032731
686.000000	0.032801
685.000000	0.032859
684.000000	0.032894
683.000000	0.032910
682.000000	0.032915
681.000000	0.032919
680.000000	0.032931
679.000000	0.032955
678.000000	0.032986
677.000000	0.033022
676.000000	0.033067
675.000000	0.033108
674.000000	0.033122
673.000000	0.033089
672.000000	0.033011
671.000000	0.032895
670.000000	0.032743
669.000000	0.032631
668.000000	0.032752
667.000000	0.033037
666.000000	0.033217
665.000000	0.033341
664.000000	0.033468
663.000000	0.033575
662.000000	0.033641
661.000000	0.033688
660.000000	0.033737
659.000000	0.033780
658.000000	0.033812
657.000000	0.033856
656.000000	0.033927
655.000000	0.033998
654.000000	0.034055
653.000000	0.034129
652.000000	0.034233
651.000000	0.034334
650.000000	0.034415
649.000000	0.034511
648.000000	0.034646
647.000000	0.034791
646.000000	0.034913
645.000000	0.035021
644.000000	0.035130
643.000000	0.035237
642.000000	0.035346
641.000000	0.035487
640.000000	0.035666
639.000000	0.035840
638.000000	0.035976
637.000000	0.036088
636.000000	0.036199
635.000000	0.036302
634.000000	0.036397
633.000000	0.036507
632.000000	0.036638
631.000000	0.036767
630.000000	0.036875
629.000000	0.036972
628.000000	0.037056
627.000000	0.037104
626.000000	0.037118
625.000000	0.037135
624.000000	0.037166
623.000000	0.037177
622.000000	0.037150
621.000000	0.037110
620.000000	0.037076
619.000000	0.037025
618.000000	0.036944
617.000000	0.036854
616.000000	0.036769
615.000000	0.036678
614.000000	0.036574
613.000000	0.036472
612.000000	0.036370
611.000000	0.036258
610.000000	0.036152
609.000000	0.036091
608.000000	0.036071
607.000000	0.036043
606.000000	0.035983
605.000000	0.035922
604.000000	0.035885
603.000000	0.035861
602.000000	0.035845
601.000000	0.035854
600.000000	0.035883
599.000000	0.035891
598.000000	0.035862
597.000000	0.035831
596.000000	0.035824
595.000000	0.035823
594.000000	0.035807
593.000000	0.035794
592.000000	0.035797
591.000000	0.035797
590.000000	0.035780
589.000000	0.035768
588.000000	0.035786
587.000000	0.035830
586.000000	0.035892
585.000000	0.035972
584.000000	0.036045
583.000000	0.036067
582.000000	0.036040
581.000000	0.036020
580.000000	0.036033
579.000000	0.036044
578.000000	0.036041
577.000000	0.036070
576.000000	0.036155
575.000000	0.036257
574.000000	0.036343
573.000000	0.036426
572.000000	0.036513
571.000000	0.036568
570.000000	0.036580
569.000000	0.036599
568.000000	0.036646
567.000000	0.036668
566.000000	0.036631
565.000000	0.036594
564.000000	0.036617
563.000000	0.036678
562.000000	0.036729
561.000000	0.036781
560.000000	0.036858
559.000000	0.036935
558.000000	0.036974
557.000000	0.036987
556.000000	0.037002
555.000000	0.037015
554.000000	0.037016
553.000000	0.037027
552.000000	0.037070
551.000000	0.037119
550.000000	0.037151
549.000000	0.037184
548.000000	0.037241
547.000000	0.037295
546.000000	0.037326
545.000000	0.037354
544.000000	0.037398
543.000000	0.037428
542.000000	0.037425
541.000000	0.037420
540.000000	0.037443
539.000000	0.037474
538.000000	0.037484
537.000000	0.037489
536.000000	0.037505
535.000000	0.037511
534.000000	0.037496
533.000000	0.037487
532.000000	0.037505
531.000000	0.037523
530.000000	0.037524
529.000000	0.037537
528.000000	0.037592
527.000000	0.037671
526.000000	0.037748
525.000000	0.037839
524.000000	0.037947
523.000000	0.038026
522.000000	0.038041
521.000000	0.038018
520.000000	0.037992
519.000000	0.037959
518.000000	0.037913
517.000000	0.037893
516.000000	0.037916
515.000000	0.037932
514.000000	0.037876
513.000000	0.037744
512.000000	0.037582
511.000000	0.037446
510.000000	0.037392
509.000000	0.037450
508.000000	0.037589
507.000000	0.037721
506.000000	0.037789
505.000000	0.037809
504.000000	0.037802
503.000000	0.037761
502.000000	0.037691
501.000000	0.037642
500.000000	0.037636
499.000000	0.037628
498.000000	0.037581
497.000000	0.037513
496.000000	0.037455
495.000000	0.037419
494.000000	0.037424
493.000000	0.037498
492.000000	0.037603
491.000000	0.037631
490.000000	0.037546
489.000000	0.037444
488.000000	0.037435
487.000000	0.037506
486.000000	0.037563
485.000000	0.037541
484.000000	0.037453
483.000000	0.037354
482.000000	0.037305
481.000000	0.037339
480.000000	0.037419
479.000000	0.037468
478.000000	0.037473
477.000000	0.037499
476.000000	0.037555
475.000000	0.037562
474.000000	0.037467
473.000000	0.037327
472.000000	0.037218
471.000000	0.037147
470.000000	0.037122
469.000000	0.037181
468.000000	0.037290
467.000000	0.037321
466.000000	0.037217
465.000000	0.037066
464.000000	0.036971
463.000000	0.036958
462.000000	0.037022
461.000000	0.037161
460.000000	0.037324
459.000000	0.037424
458.000000	0.037453
457.000000	0.037490
456.000000	0.037529
455.000000	0.037487
454.000000	0.037371
453.000000	0.037301
452.000000	0.037322
451.000000	0.037336
450.000000	0.037283
449.000000	0.037217
448.000000	0.037159
447.000000	0.037044
446.000000	0.036876
445.000000	0.036758
444.000000	0.036703
443.000000	0.036577
442.000000	0.036311
441.000000	0.036025
440.000000	0.035820
439.000000	0.035659
438.000000	0.035500
437.000000	0.035379
436.000000	0.035288
435.000000	0.035111
434.000000	0.034811
433.000000	0.034508
432.000000	0.034305
431.000000	0.034164
430.000000	0.034004
429.000000	0.033844
428.000000	0.033727
427.000000	0.033617
426.000000	0.033469
425.000000	0.033331
424.000000	0.033257
423.000000	0.033211
422.000000	0.033140
421.000000	0.033057
420.000000	0.032949
419.000000	0.032665
418.000000	0.032177
417.000000	0.031801
416.000000	0.031655
415.000000	0.031585
414.000000	0.031506
413.000000	0.031447
412.000000	0.031416
411.000000	0.031372
410.000000	0.031342
409.000000	0.031412
408.000000	0.031514
407.000000	0.031442
406.000000	0.031165
405.000000	0.030916
404.000000	0.030816
403.000000	0.030736
402.000000	0.030613
401.000000	0.030611
400.000000	0.030800
