Created as New Dataset,Sample 322 By YargerLab Date Monday, August 19 2024
cm-1,A
4000.00,0.0131
3999.00,0.0131
3998.00,0.0131
3997.00,0.0131
3996.00,0.0131
3995.00,0.0131
3994.00,0.0131
3993.00,0.0131
3992.00,0.0131
3991.00,0.0130
3990.00,0.0130
3989.00,0.0130
3988.00,0.0130
3987.00,0.0130
3986.00,0.0130
3985.00,0.0130
3984.00,0.0130
3983.00,0.0130
3982.00,0.0130
3981.00,0.0130
3980.00,0.0130
3979.00,0.0130
3978.00,0.0130
3977.00,0.0130
3976.00,0.0130
3975.00,0.0130
3974.00,0.0130
3973.00,0.0130
3972.00,0.0130
3971.00,0.0130
3970.00,0.0130
3969.00,0.0130
3968.00,0.0130
3967.00,0.0130
3966.00,0.0130
3965.00,0.0130
3964.00,0.0130
3963.00,0.0130
3962.00,0.0130
3961.00,0.0130
3960.00,0.0130
3959.00,0.0130
3958.00,0.0130
3957.00,0.0130
3956.00,0.0130
3955.00,0.0130
3954.00,0.0130
3953.00,0.0130
3952.00,0.0130
3951.00,0.0130
3950.00,0.0130
3949.00,0.0130
3948.00,0.0130
3947.00,0.0130
3946.00,0.0130
3945.00,0.0130
3944.00,0.0130
3943.00,0.0129
3942.00,0.0129
3941.00,0.0129
3940.00,0.0129
3939.00,0.0129
3938.00,0.0129
3937.00,0.0129
3936.00,0.0129
3935.00,0.0129
3934.00,0.0129
3933.00,0.0129
3932.00,0.0129
3931.00,0.0129
3930.00,0.0129
3929.00,0.0129
3928.00,0.0129
3927.00,0.0129
3926.00,0.0129
3925.00,0.0129
3924.00,0.0129
3923.00,0.0129
3922.00,0.0129
3921.00,0.0129
3920.00,0.0129
3919.00,0.0129
3918.00,0.0129
3917.00,0.0129
3916.00,0.0129
3915.00,0.0128
3914.00,0.0128
3913.00,0.0128
3912.00,0.0128
3911.00,0.0128
3910.00,0.0128
3909.00,0.0128
3908.00,0.0128
3907.00,0.0128
3906.00,0.0128
3905.00,0.0128
3904.00,0.0128
3903.00,0.0128
3902.00,0.0128
3901.00,0.0128
3900.00,0.0128
3899.00,0.0128
3898.00,0.0127
3897.00,0.0127
3896.00,0.0128
3895.00,0.0128
3894.00,0.0128
3893.00,0.0128
3892.00,0.0127
3891.00,0.0127
3890.00,0.0127
3889.00,0.0127
3888.00,0.0127
3887.00,0.0127
3886.00,0.0128
3885.00,0.0127
3884.00,0.0127
3883.00,0.0127
3882.00,0.0127
3881.00,0.0127
3880.00,0.0127
3879.00,0.0127
3878.00,0.0127
3877.00,0.0127
3876.00,0.0127
3875.00,0.0127
3874.00,0.0127
3873.00,0.0127
3872.00,0.0127
3871.00,0.0127
3870.00,0.0127
3869.00,0.0127
3868.00,0.0127
3867.00,0.0127
3866.00,0.0127
3865.00,0.0127
3864.00,0.0126
3863.00,0.0126
3862.00,0.0126
3861.00,0.0126
3860.00,0.0126
3859.00,0.0126
3858.00,0.0126
3857.00,0.0126
3856.00,0.0126
3855.00,0.0126
3854.00,0.0126
3853.00,0.0126
3852.00,0.0126
3851.00,0.0125
3850.00,0.0125
3849.00,0.0125
3848.00,0.0125
3847.00,0.0125
3846.00,0.0125
3845.00,0.0125
3844.00,0.0125
3843.00,0.0125
3842.00,0.0125
3841.00,0.0125
3840.00,0.0126
3839.00,0.0126
3838.00,0.0126
3837.00,0.0126
3836.00,0.0125
3835.00,0.0125
3834.00,0.0125
3833.00,0.0125
3832.00,0.0125
3831.00,0.0125
3830.00,0.0125
3829.00,0.0125
3828.00,0.0125
3827.00,0.0125
3826.00,0.0125
3825.00,0.0125
3824.00,0.0124
3823.00,0.0125
3822.00,0.0125
3821.00,0.0125
3820.00,0.0124
3819.00,0.0124
3818.00,0.0124
3817.00,0.0124
3816.00,0.0124
3815.00,0.0124
3814.00,0.0124
3813.00,0.0124
3812.00,0.0124
3811.00,0.0124
3810.00,0.0123
3809.00,0.0123
3808.00,0.0123
3807.00,0.0123
3806.00,0.0123
3805.00,0.0123
3804.00,0.0124
3803.00,0.0124
3802.00,0.0124
3801.00,0.0124
3800.00,0.0124
3799.00,0.0123
3798.00,0.0123
3797.00,0.0123
3796.00,0.0123
3795.00,0.0123
3794.00,0.0123
3793.00,0.0122
3792.00,0.0122
3791.00,0.0122
3790.00,0.0122
3789.00,0.0122
3788.00,0.0122
3787.00,0.0122
3786.00,0.0122
3785.00,0.0122
3784.00,0.0122
3783.00,0.0122
3782.00,0.0122
3781.00,0.0122
3780.00,0.0122
3779.00,0.0122
3778.00,0.0122
3777.00,0.0122
3776.00,0.0122
3775.00,0.0122
3774.00,0.0121
3773.00,0.0121
3772.00,0.0121
3771.00,0.0121
3770.00,0.0121
3769.00,0.0121
3768.00,0.0121
3767.00,0.0121
3766.00,0.0121
3765.00,0.0121
3764.00,0.0121
3763.00,0.0121
3762.00,0.0121
3761.00,0.0121
3760.00,0.0121
3759.00,0.0121
3758.00,0.0121
3757.00,0.0121
3756.00,0.0121
3755.00,0.0121
3754.00,0.0121
3753.00,0.0121
3752.00,0.0121
3751.00,0.0121
3750.00,0.0121
3749.00,0.0121
3748.00,0.0121
3747.00,0.0120
3746.00,0.0120
3745.00,0.0120
3744.00,0.0120
3743.00,0.0120
3742.00,0.0120
3741.00,0.0120
3740.00,0.0119
3739.00,0.0119
3738.00,0.0119
3737.00,0.0119
3736.00,0.0118
3735.00,0.0118
3734.00,0.0118
3733.00,0.0118
3732.00,0.0118
3731.00,0.0118
3730.00,0.0118
3729.00,0.0118
3728.00,0.0118
3727.00,0.0117
3726.00,0.0117
3725.00,0.0117
3724.00,0.0117
3723.00,0.0117
3722.00,0.0117
3721.00,0.0117
3720.00,0.0117
3719.00,0.0117
3718.00,0.0117
3717.00,0.0117
3716.00,0.0117
3715.00,0.0117
3714.00,0.0117
3713.00,0.0117
3712.00,0.0116
3711.00,0.0116
3710.00,0.0116
3709.00,0.0116
3708.00,0.0116
3707.00,0.0115
3706.00,0.0115
3705.00,0.0115
3704.00,0.0115
3703.00,0.0115
3702.00,0.0115
3701.00,0.0115
3700.00,0.0114
3699.00,0.0114
3698.00,0.0114
3697.00,0.0115
3696.00,0.0115
3695.00,0.0115
3694.00,0.0115
3693.00,0.0115
3692.00,0.0115
3691.00,0.0115
3690.00,0.0115
3689.00,0.0115
3688.00,0.0115
3687.00,0.0115
3686.00,0.0115
3685.00,0.0114
3684.00,0.0114
3683.00,0.0114
3682.00,0.0114
3681.00,0.0114
3680.00,0.0115
3679.00,0.0115
3678.00,0.0115
3677.00,0.0116
3676.00,0.0116
3675.00,0.0116
3674.00,0.0116
3673.00,0.0116
3672.00,0.0116
3671.00,0.0116
3670.00,0.0115
3669.00,0.0115
3668.00,0.0115
3667.00,0.0115
3666.00,0.0116
3665.00,0.0116
3664.00,0.0116
3663.00,0.0116
3662.00,0.0116
3661.00,0.0116
3660.00,0.0117
3659.00,0.0117
3658.00,0.0117
3657.00,0.0117
3656.00,0.0117
3655.00,0.0117
3654.00,0.0118
3653.00,0.0118
3652.00,0.0118
3651.00,0.0119
3650.00,0.0119
3649.00,0.0119
3648.00,0.0119
3647.00,0.0119
3646.00,0.0119
3645.00,0.0119
3644.00,0.0120
3643.00,0.0120
3642.00,0.0120
3641.00,0.0120
3640.00,0.0120
3639.00,0.0121
3638.00,0.0121
3637.00,0.0121
3636.00,0.0121
3635.00,0.0122
3634.00,0.0122
3633.00,0.0122
3632.00,0.0123
3631.00,0.0123
3630.00,0.0123
3629.00,0.0123
3628.00,0.0124
3627.00,0.0124
3626.00,0.0124
3625.00,0.0125
3624.00,0.0125
3623.00,0.0126
3622.00,0.0126
3621.00,0.0127
3620.00,0.0127
3619.00,0.0127
3618.00,0.0128
3617.00,0.0128
3616.00,0.0129
3615.00,0.0129
3614.00,0.0129
3613.00,0.0129
3612.00,0.0130
3611.00,0.0130
3610.00,0.0131
3609.00,0.0131
3608.00,0.0131
3607.00,0.0132
3606.00,0.0132
3605.00,0.0133
3604.00,0.0133
3603.00,0.0134
3602.00,0.0134
3601.00,0.0134
3600.00,0.0135
3599.00,0.0135
3598.00,0.0136
3597.00,0.0136
3596.00,0.0136
3595.00,0.0137
3594.00,0.0137
3593.00,0.0137
3592.00,0.0138
3591.00,0.0138
3590.00,0.0138
3589.00,0.0139
3588.00,0.0140
3587.00,0.0140
3586.00,0.0141
3585.00,0.0142
3584.00,0.0142
3583.00,0.0143
3582.00,0.0143
3581.00,0.0144
3580.00,0.0144
3579.00,0.0144
3578.00,0.0145
3577.00,0.0145
3576.00,0.0146
3575.00,0.0146
3574.00,0.0147
3573.00,0.0147
3572.00,0.0148
3571.00,0.0148
3570.00,0.0149
3569.00,0.0149
3568.00,0.0150
3567.00,0.0151
3566.00,0.0152
3565.00,0.0153
3564.00,0.0153
3563.00,0.0154
3562.00,0.0154
3561.00,0.0155
3560.00,0.0155
3559.00,0.0156
3558.00,0.0156
3557.00,0.0157
3556.00,0.0157
3555.00,0.0158
3554.00,0.0158
3553.00,0.0159
3552.00,0.0160
3551.00,0.0160
3550.00,0.0161
3549.00,0.0162
3548.00,0.0163
3547.00,0.0164
3546.00,0.0164
3545.00,0.0165
3544.00,0.0166
3543.00,0.0167
3542.00,0.0167
3541.00,0.0167
3540.00,0.0168
3539.00,0.0168
3538.00,0.0169
3537.00,0.0169
3536.00,0.0170
3535.00,0.0171
3534.00,0.0171
3533.00,0.0172
3532.00,0.0172
3531.00,0.0173
3530.00,0.0174
3529.00,0.0174
3528.00,0.0175
3527.00,0.0176
3526.00,0.0176
3525.00,0.0177
3524.00,0.0178
3523.00,0.0178
3522.00,0.0179
3521.00,0.0179
3520.00,0.0180
3519.00,0.0181
3518.00,0.0181
3517.00,0.0182
3516.00,0.0183
3515.00,0.0183
3514.00,0.0184
3513.00,0.0184
3512.00,0.0185
3511.00,0.0185
3510.00,0.0186
3509.00,0.0186
3508.00,0.0187
3507.00,0.0188
3506.00,0.0189
3505.00,0.0189
3504.00,0.0190
3503.00,0.0191
3502.00,0.0192
3501.00,0.0192
3500.00,0.0193
3499.00,0.0193
3498.00,0.0194
3497.00,0.0194
3496.00,0.0195
3495.00,0.0196
3494.00,0.0196
3493.00,0.0197
3492.00,0.0198
3491.00,0.0199
3490.00,0.0199
3489.00,0.0200
3488.00,0.0201
3487.00,0.0201
3486.00,0.0202
3485.00,0.0202
3484.00,0.0203
3483.00,0.0204
3482.00,0.0205
3481.00,0.0206
3480.00,0.0206
3479.00,0.0207
3478.00,0.0208
3477.00,0.0208
3476.00,0.0209
3475.00,0.0210
3474.00,0.0211
3473.00,0.0211
3472.00,0.0212
3471.00,0.0213
3470.00,0.0214
3469.00,0.0215
3468.00,0.0215
3467.00,0.0216
3466.00,0.0216
3465.00,0.0217
3464.00,0.0217
3463.00,0.0218
3462.00,0.0219
3461.00,0.0220
3460.00,0.0220
3459.00,0.0221
3458.00,0.0221
3457.00,0.0222
3456.00,0.0223
3455.00,0.0223
3454.00,0.0224
3453.00,0.0225
3452.00,0.0226
3451.00,0.0226
3450.00,0.0227
3449.00,0.0228
3448.00,0.0229
3447.00,0.0229
3446.00,0.0230
3445.00,0.0231
3444.00,0.0231
3443.00,0.0232
3442.00,0.0233
3441.00,0.0234
3440.00,0.0235
3439.00,0.0235
3438.00,0.0236
3437.00,0.0237
3436.00,0.0238
3435.00,0.0238
3434.00,0.0239
3433.00,0.0240
3432.00,0.0240
3431.00,0.0241
3430.00,0.0242
3429.00,0.0242
3428.00,0.0243
3427.00,0.0243
3426.00,0.0244
3425.00,0.0245
3424.00,0.0245
3423.00,0.0246
3422.00,0.0247
3421.00,0.0248
3420.00,0.0249
3419.00,0.0250
3418.00,0.0250
3417.00,0.0251
3416.00,0.0252
3415.00,0.0252
3414.00,0.0253
3413.00,0.0254
3412.00,0.0255
3411.00,0.0255
3410.00,0.0256
3409.00,0.0257
3408.00,0.0257
3407.00,0.0258
3406.00,0.0259
3405.00,0.0259
3404.00,0.0260
3403.00,0.0261
3402.00,0.0262
3401.00,0.0262
3400.00,0.0263
3399.00,0.0264
3398.00,0.0264
3397.00,0.0265
3396.00,0.0266
3395.00,0.0266
3394.00,0.0267
3393.00,0.0268
3392.00,0.0268
3391.00,0.0269
3390.00,0.0270
3389.00,0.0270
3388.00,0.0271
3387.00,0.0272
3386.00,0.0272
3385.00,0.0273
3384.00,0.0274
3383.00,0.0274
3382.00,0.0275
3381.00,0.0276
3380.00,0.0276
3379.00,0.0277
3378.00,0.0278
3377.00,0.0279
3376.00,0.0280
3375.00,0.0281
3374.00,0.0281
3373.00,0.0282
3372.00,0.0283
3371.00,0.0284
3370.00,0.0285
3369.00,0.0286
3368.00,0.0287
3367.00,0.0288
3366.00,0.0289
3365.00,0.0290
3364.00,0.0291
3363.00,0.0292
3362.00,0.0293
3361.00,0.0294
3360.00,0.0295
3359.00,0.0296
3358.00,0.0297
3357.00,0.0298
3356.00,0.0299
3355.00,0.0300
3354.00,0.0301
3353.00,0.0302
3352.00,0.0303
3351.00,0.0304
3350.00,0.0306
3349.00,0.0307
3348.00,0.0308
3347.00,0.0310
3346.00,0.0311
3345.00,0.0312
3344.00,0.0313
3343.00,0.0315
3342.00,0.0316
3341.00,0.0317
3340.00,0.0319
3339.00,0.0320
3338.00,0.0322
3337.00,0.0324
3336.00,0.0325
3335.00,0.0327
3334.00,0.0329
3333.00,0.0330
3332.00,0.0332
3331.00,0.0333
3330.00,0.0335
3329.00,0.0337
3328.00,0.0339
3327.00,0.0340
3326.00,0.0342
3325.00,0.0344
3324.00,0.0346
3323.00,0.0348
3322.00,0.0351
3321.00,0.0353
3320.00,0.0355
3319.00,0.0357
3318.00,0.0359
3317.00,0.0362
3316.00,0.0364
3315.00,0.0366
3314.00,0.0369
3313.00,0.0371
3312.00,0.0373
3311.00,0.0375
3310.00,0.0378
3309.00,0.0380
3308.00,0.0382
3307.00,0.0385
3306.00,0.0388
3305.00,0.0391
3304.00,0.0394
3303.00,0.0397
3302.00,0.0400
3301.00,0.0403
3300.00,0.0405
3299.00,0.0408
3298.00,0.0410
3297.00,0.0413
3296.00,0.0416
3295.00,0.0418
3294.00,0.0421
3293.00,0.0424
3292.00,0.0427
3291.00,0.0430
3290.00,0.0433
3289.00,0.0435
3288.00,0.0438
3287.00,0.0440
3286.00,0.0442
3285.00,0.0444
3284.00,0.0446
3283.00,0.0448
3282.00,0.0450
3281.00,0.0452
3280.00,0.0453
3279.00,0.0454
3278.00,0.0455
3277.00,0.0456
3276.00,0.0457
3275.00,0.0457
3274.00,0.0457
3273.00,0.0457
3272.00,0.0457
3271.00,0.0457
3270.00,0.0457
3269.00,0.0456
3268.00,0.0456
3267.00,0.0455
3266.00,0.0454
3265.00,0.0453
3264.00,0.0451
3263.00,0.0449
3262.00,0.0447
3261.00,0.0445
3260.00,0.0443
3259.00,0.0441
3258.00,0.0438
3257.00,0.0436
3256.00,0.0434
3255.00,0.0432
3254.00,0.0430
3253.00,0.0427
3252.00,0.0425
3251.00,0.0422
3250.00,0.0420
3249.00,0.0417
3248.00,0.0414
3247.00,0.0412
3246.00,0.0410
3245.00,0.0408
3244.00,0.0406
3243.00,0.0404
3242.00,0.0402
3241.00,0.0400
3240.00,0.0398
3239.00,0.0395
3238.00,0.0393
3237.00,0.0391
3236.00,0.0389
3235.00,0.0387
3234.00,0.0385
3233.00,0.0383
3232.00,0.0382
3231.00,0.0381
3230.00,0.0379
3229.00,0.0378
3228.00,0.0377
3227.00,0.0375
3226.00,0.0374
3225.00,0.0372
3224.00,0.0371
3223.00,0.0369
3222.00,0.0368
3221.00,0.0367
3220.00,0.0365
3219.00,0.0364
3218.00,0.0363
3217.00,0.0362
3216.00,0.0360
3215.00,0.0359
3214.00,0.0358
3213.00,0.0357
3212.00,0.0356
3211.00,0.0355
3210.00,0.0354
3209.00,0.0353
3208.00,0.0352
3207.00,0.0350
3206.00,0.0349
3205.00,0.0348
3204.00,0.0347
3203.00,0.0346
3202.00,0.0345
3201.00,0.0344
3200.00,0.0343
3199.00,0.0342
3198.00,0.0341
3197.00,0.0340
3196.00,0.0339
3195.00,0.0338
3194.00,0.0337
3193.00,0.0336
3192.00,0.0335
3191.00,0.0334
3190.00,0.0332
3189.00,0.0331
3188.00,0.0330
3187.00,0.0329
3186.00,0.0328
3185.00,0.0327
3184.00,0.0326
3183.00,0.0325
3182.00,0.0323
3181.00,0.0322
3180.00,0.0321
3179.00,0.0320
3178.00,0.0319
3177.00,0.0318
3176.00,0.0316
3175.00,0.0315
3174.00,0.0314
3173.00,0.0312
3172.00,0.0311
3171.00,0.0310
3170.00,0.0309
3169.00,0.0308
3168.00,0.0306
3167.00,0.0305
3166.00,0.0304
3165.00,0.0303
3164.00,0.0301
3163.00,0.0300
3162.00,0.0299
3161.00,0.0298
3160.00,0.0297
3159.00,0.0296
3158.00,0.0294
3157.00,0.0293
3156.00,0.0292
3155.00,0.0291
3154.00,0.0290
3153.00,0.0288
3152.00,0.0287
3151.00,0.0286
3150.00,0.0285
3149.00,0.0284
3148.00,0.0283
3147.00,0.0282
3146.00,0.0281
3145.00,0.0280
3144.00,0.0279
3143.00,0.0278
3142.00,0.0277
3141.00,0.0276
3140.00,0.0275
3139.00,0.0274
3138.00,0.0273
3137.00,0.0272
3136.00,0.0272
3135.00,0.0271
3134.00,0.0270
3133.00,0.0269
3132.00,0.0269
3131.00,0.0268
3130.00,0.0267
3129.00,0.0266
3128.00,0.0265
3127.00,0.0265
3126.00,0.0264
3125.00,0.0263
3124.00,0.0262
3123.00,0.0262
3122.00,0.0261
3121.00,0.0260
3120.00,0.0260
3119.00,0.0259
3118.00,0.0259
3117.00,0.0258
3116.00,0.0258
3115.00,0.0258
3114.00,0.0257
3113.00,0.0257
3112.00,0.0257
3111.00,0.0256
3110.00,0.0256
3109.00,0.0256
3108.00,0.0256
3107.00,0.0256
3106.00,0.0255
3105.00,0.0255
3104.00,0.0255
3103.00,0.0255
3102.00,0.0255
3101.00,0.0254
3100.00,0.0254
3099.00,0.0254
3098.00,0.0254
3097.00,0.0255
3096.00,0.0255
3095.00,0.0255
3094.00,0.0255
3093.00,0.0254
3092.00,0.0254
3091.00,0.0254
3090.00,0.0254
3089.00,0.0254
3088.00,0.0254
3087.00,0.0254
3086.00,0.0254
3085.00,0.0254
3084.00,0.0254
3083.00,0.0254
3082.00,0.0254
3081.00,0.0254
3080.00,0.0254
3079.00,0.0254
3078.00,0.0254
3077.00,0.0255
3076.00,0.0255
3075.00,0.0255
3074.00,0.0255
3073.00,0.0255
3072.00,0.0255
3071.00,0.0255
3070.00,0.0254
3069.00,0.0254
3068.00,0.0254
3067.00,0.0254
3066.00,0.0254
3065.00,0.0254
3064.00,0.0254
3063.00,0.0254
3062.00,0.0253
3061.00,0.0253
3060.00,0.0253
3059.00,0.0252
3058.00,0.0251
3057.00,0.0251
3056.00,0.0250
3055.00,0.0250
3054.00,0.0249
3053.00,0.0248
3052.00,0.0247
3051.00,0.0247
3050.00,0.0246
3049.00,0.0246
3048.00,0.0245
3047.00,0.0244
3046.00,0.0243
3045.00,0.0242
3044.00,0.0241
3043.00,0.0241
3042.00,0.0240
3041.00,0.0240
3040.00,0.0239
3039.00,0.0239
3038.00,0.0238
3037.00,0.0237
3036.00,0.0236
3035.00,0.0235
3034.00,0.0235
3033.00,0.0234
3032.00,0.0234
3031.00,0.0234
3030.00,0.0233
3029.00,0.0233
3028.00,0.0232
3027.00,0.0231
3026.00,0.0230
3025.00,0.0229
3024.00,0.0228
3023.00,0.0227
3022.00,0.0227
3021.00,0.0226
3020.00,0.0225
3019.00,0.0224
3018.00,0.0223
3017.00,0.0222
3016.00,0.0221
3015.00,0.0221
3014.00,0.0220
3013.00,0.0220
3012.00,0.0220
3011.00,0.0219
3010.00,0.0219
3009.00,0.0219
3008.00,0.0219
3007.00,0.0219
3006.00,0.0218
3005.00,0.0218
3004.00,0.0218
3003.00,0.0217
3002.00,0.0217
3001.00,0.0217
3000.00,0.0217
2999.00,0.0217
2998.00,0.0217
2997.00,0.0217
2996.00,0.0217
2995.00,0.0217
2994.00,0.0217
2993.00,0.0218
2992.00,0.0218
2991.00,0.0219
2990.00,0.0220
2989.00,0.0220
2988.00,0.0221
2987.00,0.0222
2986.00,0.0222
2985.00,0.0223
2984.00,0.0224
2983.00,0.0224
2982.00,0.0225
2981.00,0.0226
2980.00,0.0226
2979.00,0.0227
2978.00,0.0228
2977.00,0.0229
2976.00,0.0229
2975.00,0.0230
2974.00,0.0231
2973.00,0.0231
2972.00,0.0232
2971.00,0.0232
2970.00,0.0233
2969.00,0.0233
2968.00,0.0233
2967.00,0.0233
2966.00,0.0233
2965.00,0.0233
2964.00,0.0233
2963.00,0.0232
2962.00,0.0232
2961.00,0.0231
2960.00,0.0231
2959.00,0.0230
2958.00,0.0230
2957.00,0.0229
2956.00,0.0229
2955.00,0.0229
2954.00,0.0229
2953.00,0.0228
2952.00,0.0228
2951.00,0.0228
2950.00,0.0229
2949.00,0.0229
2948.00,0.0229
2947.00,0.0229
2946.00,0.0229
2945.00,0.0230
2944.00,0.0230
2943.00,0.0231
2942.00,0.0231
2941.00,0.0231
2940.00,0.0232
2939.00,0.0232
2938.00,0.0232
2937.00,0.0231
2936.00,0.0231
2935.00,0.0230
2934.00,0.0230
2933.00,0.0228
2932.00,0.0227
2931.00,0.0225
2930.00,0.0223
2929.00,0.0221
2928.00,0.0219
2927.00,0.0216
2926.00,0.0212
2925.00,0.0209
2924.00,0.0205
2923.00,0.0200
2922.00,0.0195
2921.00,0.0190
2920.00,0.0185
2919.00,0.0180
2918.00,0.0175
2917.00,0.0172
2916.00,0.0171
2915.00,0.0173
2914.00,0.0177
2913.00,0.0183
2912.00,0.0188
2911.00,0.0193
2910.00,0.0196
2909.00,0.0198
2908.00,0.0200
2907.00,0.0201
2906.00,0.0202
2905.00,0.0202
2904.00,0.0202
2903.00,0.0202
2902.00,0.0202
2901.00,0.0202
2900.00,0.0202
2899.00,0.0203
2898.00,0.0203
2897.00,0.0203
2896.00,0.0203
2895.00,0.0203
2894.00,0.0203
2893.00,0.0204
2892.00,0.0204
2891.00,0.0204
2890.00,0.0205
2889.00,0.0205
2888.00,0.0205
2887.00,0.0206
2886.00,0.0207
2885.00,0.0207
2884.00,0.0208
2883.00,0.0209
2882.00,0.0209
2881.00,0.0210
2880.00,0.0211
2879.00,0.0211
2878.00,0.0212
2877.00,0.0212
2876.00,0.0212
2875.00,0.0212
2874.00,0.0212
2873.00,0.0211
2872.00,0.0211
2871.00,0.0211
2870.00,0.0210
2869.00,0.0209
2868.00,0.0208
2867.00,0.0206
2866.00,0.0205
2865.00,0.0204
2864.00,0.0202
2863.00,0.0201
2862.00,0.0200
2861.00,0.0198
2860.00,0.0197
2859.00,0.0195
2858.00,0.0193
2857.00,0.0191
2856.00,0.0188
2855.00,0.0185
2854.00,0.0181
2853.00,0.0176
2852.00,0.0171
2851.00,0.0166
2850.00,0.0162
2849.00,0.0160
2848.00,0.0162
2847.00,0.0165
2846.00,0.0170
2845.00,0.0175
2844.00,0.0179
2843.00,0.0182
2842.00,0.0184
2841.00,0.0185
2840.00,0.0185
2839.00,0.0186
2838.00,0.0186
2837.00,0.0186
2836.00,0.0186
2835.00,0.0186
2834.00,0.0186
2833.00,0.0186
2832.00,0.0186
2831.00,0.0186
2830.00,0.0185
2829.00,0.0185
2828.00,0.0185
2827.00,0.0185
2826.00,0.0184
2825.00,0.0184
2824.00,0.0184
2823.00,0.0184
2822.00,0.0183
2821.00,0.0183
2820.00,0.0183
2819.00,0.0183
2818.00,0.0183
2817.00,0.0182
2816.00,0.0182
2815.00,0.0182
2814.00,0.0182
2813.00,0.0181
2812.00,0.0181
2811.00,0.0181
2810.00,0.0181
2809.00,0.0180
2808.00,0.0180
2807.00,0.0180
2806.00,0.0180
2805.00,0.0180
2804.00,0.0180
2803.00,0.0179
2802.00,0.0179
2801.00,0.0179
2800.00,0.0179
2799.00,0.0178
2798.00,0.0178
2797.00,0.0178
2796.00,0.0178
2795.00,0.0178
2794.00,0.0178
2793.00,0.0177
2792.00,0.0177
2791.00,0.0177
2790.00,0.0177
2789.00,0.0177
2788.00,0.0176
2787.00,0.0176
2786.00,0.0176
2785.00,0.0176
2784.00,0.0176
2783.00,0.0175
2782.00,0.0175
2781.00,0.0175
2780.00,0.0175
2779.00,0.0174
2778.00,0.0174
2777.00,0.0174
2776.00,0.0174
2775.00,0.0174
2774.00,0.0174
2773.00,0.0173
2772.00,0.0173
2771.00,0.0173
2770.00,0.0173
2769.00,0.0173
2768.00,0.0172
2767.00,0.0172
2766.00,0.0172
2765.00,0.0172
2764.00,0.0171
2763.00,0.0171
2762.00,0.0171
2761.00,0.0171
2760.00,0.0171
2759.00,0.0170
2758.00,0.0170
2757.00,0.0170
2756.00,0.0170
2755.00,0.0170
2754.00,0.0169
2753.00,0.0169
2752.00,0.0169
2751.00,0.0168
2750.00,0.0168
2749.00,0.0168
2748.00,0.0168
2747.00,0.0168
2746.00,0.0167
2745.00,0.0167
2744.00,0.0167
2743.00,0.0167
2742.00,0.0167
2741.00,0.0167
2740.00,0.0166
2739.00,0.0166
2738.00,0.0166
2737.00,0.0166
2736.00,0.0166
2735.00,0.0165
2734.00,0.0165
2733.00,0.0165
2732.00,0.0165
2731.00,0.0164
2730.00,0.0164
2729.00,0.0164
2728.00,0.0164
2727.00,0.0163
2726.00,0.0163
2725.00,0.0163
2724.00,0.0163
2723.00,0.0163
2722.00,0.0162
2721.00,0.0162
2720.00,0.0162
2719.00,0.0162
2718.00,0.0162
2717.00,0.0162
2716.00,0.0161
2715.00,0.0161
2714.00,0.0161
2713.00,0.0161
2712.00,0.0160
2711.00,0.0160
2710.00,0.0160
2709.00,0.0160
2708.00,0.0160
2707.00,0.0159
2706.00,0.0159
2705.00,0.0159
2704.00,0.0159
2703.00,0.0159
2702.00,0.0158
2701.00,0.0158
2700.00,0.0158
2699.00,0.0158
2698.00,0.0158
2697.00,0.0157
2696.00,0.0157
2695.00,0.0157
2694.00,0.0157
2693.00,0.0157
2692.00,0.0157
2691.00,0.0156
2690.00,0.0156
2689.00,0.0156
2688.00,0.0156
2687.00,0.0156
2686.00,0.0155
2685.00,0.0155
2684.00,0.0155
2683.00,0.0155
2682.00,0.0155
2681.00,0.0155
2680.00,0.0155
2679.00,0.0154
2678.00,0.0154
2677.00,0.0154
2676.00,0.0154
2675.00,0.0154
2674.00,0.0154
2673.00,0.0154
2672.00,0.0153
2671.00,0.0153
2670.00,0.0153
2669.00,0.0153
2668.00,0.0153
2667.00,0.0153
2666.00,0.0154
2665.00,0.0154
2664.00,0.0154
2663.00,0.0155
2662.00,0.0155
2661.00,0.0155
2660.00,0.0155
2659.00,0.0155
2658.00,0.0155
2657.00,0.0155
2656.00,0.0155
2655.00,0.0155
2654.00,0.0155
2653.00,0.0155
2652.00,0.0155
2651.00,0.0155
2650.00,0.0155
2649.00,0.0154
2648.00,0.0154
2647.00,0.0154
2646.00,0.0154
2645.00,0.0153
2644.00,0.0153
2643.00,0.0153
2642.00,0.0153
2641.00,0.0153
2640.00,0.0153
2639.00,0.0152
2638.00,0.0152
2637.00,0.0152
2636.00,0.0152
2635.00,0.0152
2634.00,0.0152
2633.00,0.0151
2632.00,0.0151
2631.00,0.0151
2630.00,0.0151
2629.00,0.0150
2628.00,0.0150
2627.00,0.0150
2626.00,0.0150
2625.00,0.0149
2624.00,0.0149
2623.00,0.0149
2622.00,0.0149
2621.00,0.0149
2620.00,0.0148
2619.00,0.0148
2618.00,0.0148
2617.00,0.0148
2616.00,0.0148
2615.00,0.0147
2614.00,0.0147
2613.00,0.0147
2612.00,0.0147
2611.00,0.0147
2610.00,0.0146
2609.00,0.0146
2608.00,0.0146
2607.00,0.0146
2606.00,0.0146
2605.00,0.0145
2604.00,0.0145
2603.00,0.0145
2602.00,0.0145
2601.00,0.0144
2600.00,0.0144
2599.00,0.0144
2598.00,0.0144
2597.00,0.0144
2596.00,0.0144
2595.00,0.0144
2594.00,0.0143
2593.00,0.0143
2592.00,0.0143
2591.00,0.0143
2590.00,0.0142
2589.00,0.0142
2588.00,0.0142
2587.00,0.0142
2586.00,0.0141
2585.00,0.0141
2584.00,0.0141
2583.00,0.0141
2582.00,0.0141
2581.00,0.0140
2580.00,0.0140
2579.00,0.0140
2578.00,0.0140
2577.00,0.0140
2576.00,0.0140
2575.00,0.0139
2574.00,0.0139
2573.00,0.0139
2572.00,0.0139
2571.00,0.0139
2570.00,0.0138
2569.00,0.0138
2568.00,0.0138
2567.00,0.0138
2566.00,0.0138
2565.00,0.0138
2564.00,0.0137
2563.00,0.0137
2562.00,0.0137
2561.00,0.0137
2560.00,0.0137
2559.00,0.0137
2558.00,0.0137
2557.00,0.0137
2556.00,0.0136
2555.00,0.0136
2554.00,0.0136
2553.00,0.0136
2552.00,0.0136
2551.00,0.0135
2550.00,0.0135
2549.00,0.0135
2548.00,0.0135
2547.00,0.0135
2546.00,0.0135
2545.00,0.0135
2544.00,0.0135
2543.00,0.0135
2542.00,0.0135
2541.00,0.0134
2540.00,0.0134
2539.00,0.0134
2538.00,0.0134
2537.00,0.0134
2536.00,0.0133
2535.00,0.0133
2534.00,0.0133
2533.00,0.0133
2532.00,0.0133
2531.00,0.0133
2530.00,0.0133
2529.00,0.0132
2528.00,0.0132
2527.00,0.0132
2526.00,0.0133
2525.00,0.0132
2524.00,0.0132
2523.00,0.0132
2522.00,0.0132
2521.00,0.0132
2520.00,0.0132
2519.00,0.0132
2518.00,0.0132
2517.00,0.0132
2516.00,0.0132
2515.00,0.0131
2514.00,0.0131
2513.00,0.0131
2512.00,0.0131
2511.00,0.0131
2510.00,0.0131
2509.00,0.0131
2508.00,0.0131
2507.00,0.0131
2506.00,0.0131
2505.00,0.0130
2504.00,0.0130
2503.00,0.0130
2502.00,0.0130
2501.00,0.0130
2500.00,0.0130
2499.00,0.0130
2498.00,0.0130
2497.00,0.0130
2496.00,0.0130
2495.00,0.0130
2494.00,0.0129
2493.00,0.0129
2492.00,0.0129
2491.00,0.0129
2490.00,0.0129
2489.00,0.0129
2488.00,0.0129
2487.00,0.0129
2486.00,0.0129
2485.00,0.0128
2484.00,0.0128
2483.00,0.0128
2482.00,0.0128
2481.00,0.0128
2480.00,0.0128
2479.00,0.0128
2478.00,0.0128
2477.00,0.0128
2476.00,0.0128
2475.00,0.0127
2474.00,0.0127
2473.00,0.0127
2472.00,0.0127
2471.00,0.0127
2470.00,0.0127
2469.00,0.0127
2468.00,0.0127
2467.00,0.0127
2466.00,0.0127
2465.00,0.0127
2464.00,0.0127
2463.00,0.0127
2462.00,0.0127
2461.00,0.0127
2460.00,0.0127
2459.00,0.0128
2458.00,0.0128
2457.00,0.0128
2456.00,0.0128
2455.00,0.0128
2454.00,0.0128
2453.00,0.0128
2452.00,0.0127
2451.00,0.0127
2450.00,0.0127
2449.00,0.0126
2448.00,0.0126
2447.00,0.0126
2446.00,0.0126
2445.00,0.0126
2444.00,0.0126
2443.00,0.0126
2442.00,0.0125
2441.00,0.0125
2440.00,0.0125
2439.00,0.0125
2438.00,0.0124
2437.00,0.0124
2436.00,0.0124
2435.00,0.0124
2434.00,0.0124
2433.00,0.0123
2432.00,0.0123
2431.00,0.0123
2430.00,0.0123
2429.00,0.0123
2428.00,0.0123
2427.00,0.0122
2426.00,0.0122
2425.00,0.0122
2424.00,0.0122
2423.00,0.0122
2422.00,0.0122
2421.00,0.0122
2420.00,0.0122
2419.00,0.0121
2418.00,0.0121
2417.00,0.0121
2416.00,0.0121
2415.00,0.0121
2414.00,0.0121
2413.00,0.0121
2412.00,0.0121
2411.00,0.0121
2410.00,0.0121
2409.00,0.0121
2408.00,0.0120
2407.00,0.0119
2406.00,0.0119
2405.00,0.0118
2404.00,0.0118
2403.00,0.0118
2402.00,0.0119
2401.00,0.0119
2400.00,0.0119
2399.00,0.0118
2398.00,0.0118
2397.00,0.0118
2396.00,0.0118
2395.00,0.0118
2394.00,0.0118
2393.00,0.0118
2392.00,0.0118
2391.00,0.0118
2390.00,0.0118
2389.00,0.0117
2388.00,0.0117
2387.00,0.0117
2386.00,0.0116
2385.00,0.0115
2384.00,0.0115
2383.00,0.0114
2382.00,0.0114
2381.00,0.0114
2380.00,0.0114
2379.00,0.0114
2378.00,0.0114
2377.00,0.0114
2376.00,0.0114
2375.00,0.0114
2374.00,0.0114
2373.00,0.0114
2372.00,0.0114
2371.00,0.0114
2370.00,0.0114
2369.00,0.0114
2368.00,0.0113
2367.00,0.0113
2366.00,0.0113
2365.00,0.0113
2364.00,0.0114
2363.00,0.0114
2362.00,0.0114
2361.00,0.0114
2360.00,0.0114
2359.00,0.0114
2358.00,0.0115
2357.00,0.0115
2356.00,0.0115
2355.00,0.0115
2354.00,0.0115
2353.00,0.0114
2352.00,0.0114
2351.00,0.0115
2350.00,0.0115
2349.00,0.0115
2348.00,0.0115
2347.00,0.0115
2346.00,0.0115
2345.00,0.0116
2344.00,0.0116
2343.00,0.0117
2342.00,0.0117
2341.00,0.0118
2340.00,0.0118
2339.00,0.0118
2338.00,0.0118
2337.00,0.0118
2336.00,0.0118
2335.00,0.0117
2334.00,0.0117
2333.00,0.0117
2332.00,0.0117
2331.00,0.0117
2330.00,0.0117
2329.00,0.0119
2328.00,0.0123
2327.00,0.0126
2326.00,0.0130
2325.00,0.0131
2324.00,0.0130
2323.00,0.0128
2322.00,0.0126
2321.00,0.0124
2320.00,0.0123
2319.00,0.0122
2318.00,0.0122
2317.00,0.0121
2316.00,0.0121
2315.00,0.0120
2314.00,0.0119
2313.00,0.0119
2312.00,0.0119
2311.00,0.0118
2310.00,0.0118
2309.00,0.0118
2308.00,0.0118
2307.00,0.0118
2306.00,0.0118
2305.00,0.0118
2304.00,0.0118
2303.00,0.0118
2302.00,0.0118
2301.00,0.0119
2300.00,0.0119
2299.00,0.0119
2298.00,0.0119
2297.00,0.0120
2296.00,0.0120
2295.00,0.0121
2294.00,0.0121
2293.00,0.0122
2292.00,0.0123
2291.00,0.0124
2290.00,0.0124
2289.00,0.0124
2288.00,0.0125
2287.00,0.0125
2286.00,0.0124
2285.00,0.0124
2284.00,0.0123
2283.00,0.0122
2282.00,0.0121
2281.00,0.0120
2280.00,0.0120
2279.00,0.0120
2278.00,0.0119
2277.00,0.0119
2276.00,0.0119
2275.00,0.0118
2274.00,0.0118
2273.00,0.0118
2272.00,0.0118
2271.00,0.0117
2270.00,0.0117
2269.00,0.0117
2268.00,0.0117
2267.00,0.0116
2266.00,0.0115
2265.00,0.0115
2264.00,0.0115
2263.00,0.0116
2262.00,0.0116
2261.00,0.0116
2260.00,0.0116
2259.00,0.0116
2258.00,0.0116
2257.00,0.0115
2256.00,0.0114
2255.00,0.0113
2254.00,0.0112
2253.00,0.0112
2252.00,0.0112
2251.00,0.0113
2250.00,0.0113
2249.00,0.0113
2248.00,0.0113
2247.00,0.0113
2246.00,0.0113
2245.00,0.0113
2244.00,0.0112
2243.00,0.0112
2242.00,0.0113
2241.00,0.0113
2240.00,0.0113
2239.00,0.0113
2238.00,0.0112
2237.00,0.0112
2236.00,0.0112
2235.00,0.0112
2234.00,0.0112
2233.00,0.0112
2232.00,0.0112
2231.00,0.0112
2230.00,0.0112
2229.00,0.0112
2228.00,0.0112
2227.00,0.0112
2226.00,0.0112
2225.00,0.0111
2224.00,0.0111
2223.00,0.0111
2222.00,0.0111
2221.00,0.0111
2220.00,0.0111
2219.00,0.0110
2218.00,0.0110
2217.00,0.0110
2216.00,0.0111
2215.00,0.0111
2214.00,0.0111
2213.00,0.0111
2212.00,0.0111
2211.00,0.0110
2210.00,0.0110
2209.00,0.0109
2208.00,0.0109
2207.00,0.0109
2206.00,0.0109
2205.00,0.0110
2204.00,0.0109
2203.00,0.0109
2202.00,0.0109
2201.00,0.0109
2200.00,0.0110
2199.00,0.0110
2198.00,0.0110
2197.00,0.0110
2196.00,0.0110
2195.00,0.0111
2194.00,0.0111
2193.00,0.0111
2192.00,0.0111
2191.00,0.0110
2190.00,0.0111
2189.00,0.0111
2188.00,0.0113
2187.00,0.0113
2186.00,0.0112
2185.00,0.0109
2184.00,0.0107
2183.00,0.0104
2182.00,0.0104
2181.00,0.0104
2180.00,0.0105
2179.00,0.0105
2178.00,0.0104
2177.00,0.0103
2176.00,0.0102
2175.00,0.0102
2174.00,0.0103
2173.00,0.0105
2172.00,0.0107
2171.00,0.0109
2170.00,0.0111
2169.00,0.0113
2168.00,0.0114
2167.00,0.0115
2166.00,0.0116
2165.00,0.0116
2164.00,0.0117
2163.00,0.0116
2162.00,0.0110
2161.00,0.0099
2160.00,0.0086
2159.00,0.0075
2158.00,0.0070
2157.00,0.0071
2156.00,0.0074
2155.00,0.0078
2154.00,0.0081
2153.00,0.0083
2152.00,0.0086
2151.00,0.0087
2150.00,0.0088
2149.00,0.0087
2148.00,0.0087
2147.00,0.0087
2146.00,0.0087
2145.00,0.0088
2144.00,0.0088
2143.00,0.0088
2142.00,0.0088
2141.00,0.0088
2140.00,0.0088
2139.00,0.0088
2138.00,0.0088
2137.00,0.0086
2136.00,0.0084
2135.00,0.0082
2134.00,0.0082
2133.00,0.0083
2132.00,0.0084
2131.00,0.0086
2130.00,0.0088
2129.00,0.0089
2128.00,0.0090
2127.00,0.0091
2126.00,0.0092
2125.00,0.0093
2124.00,0.0094
2123.00,0.0095
2122.00,0.0096
2121.00,0.0096
2120.00,0.0097
2119.00,0.0098
2118.00,0.0099
2117.00,0.0100
2116.00,0.0101
2115.00,0.0101
2114.00,0.0101
2113.00,0.0100
2112.00,0.0100
2111.00,0.0101
2110.00,0.0101
2109.00,0.0101
2108.00,0.0101
2107.00,0.0101
2106.00,0.0101
2105.00,0.0101
2104.00,0.0101
2103.00,0.0101
2102.00,0.0101
2101.00,0.0100
2100.00,0.0100
2099.00,0.0100
2098.00,0.0098
2097.00,0.0097
2096.00,0.0095
2095.00,0.0094
2094.00,0.0094
2093.00,0.0095
2092.00,0.0097
2091.00,0.0098
2090.00,0.0098
2089.00,0.0099
2088.00,0.0099
2087.00,0.0099
2086.00,0.0100
2085.00,0.0100
2084.00,0.0101
2083.00,0.0101
2082.00,0.0101
2081.00,0.0101
2080.00,0.0101
2079.00,0.0101
2078.00,0.0100
2077.00,0.0100
2076.00,0.0099
2075.00,0.0099
2074.00,0.0099
2073.00,0.0099
2072.00,0.0099
2071.00,0.0098
2070.00,0.0098
2069.00,0.0098
2068.00,0.0097
2067.00,0.0097
2066.00,0.0097
2065.00,0.0097
2064.00,0.0097
2063.00,0.0097
2062.00,0.0096
2061.00,0.0096
2060.00,0.0096
2059.00,0.0096
2058.00,0.0097
2057.00,0.0097
2056.00,0.0097
2055.00,0.0097
2054.00,0.0100
2053.00,0.0104
2052.00,0.0107
2051.00,0.0107
2050.00,0.0105
2049.00,0.0101
2048.00,0.0099
2047.00,0.0097
2046.00,0.0096
2045.00,0.0096
2044.00,0.0095
2043.00,0.0096
2042.00,0.0096
2041.00,0.0097
2040.00,0.0097
2039.00,0.0096
2038.00,0.0096
2037.00,0.0095
2036.00,0.0094
2035.00,0.0093
2034.00,0.0091
2033.00,0.0089
2032.00,0.0087
2031.00,0.0086
2030.00,0.0085
2029.00,0.0085
2028.00,0.0085
2027.00,0.0084
2026.00,0.0083
2025.00,0.0083
2024.00,0.0084
2023.00,0.0085
2022.00,0.0085
2021.00,0.0085
2020.00,0.0085
2019.00,0.0084
2018.00,0.0084
2017.00,0.0084
2016.00,0.0084
2015.00,0.0085
2014.00,0.0085
2013.00,0.0085
2012.00,0.0086
2011.00,0.0085
2010.00,0.0084
2009.00,0.0082
2008.00,0.0080
2007.00,0.0078
2006.00,0.0077
2005.00,0.0078
2004.00,0.0079
2003.00,0.0080
2002.00,0.0081
2001.00,0.0083
2000.00,0.0084
1999.00,0.0085
1998.00,0.0086
1997.00,0.0086
1996.00,0.0087
1995.00,0.0087
1994.00,0.0087
1993.00,0.0087
1992.00,0.0088
1991.00,0.0088
1990.00,0.0088
1989.00,0.0089
1988.00,0.0090
1987.00,0.0091
1986.00,0.0092
1985.00,0.0093
1984.00,0.0095
1983.00,0.0098
1982.00,0.0100
1981.00,0.0100
1980.00,0.0097
1979.00,0.0091
1978.00,0.0084
1977.00,0.0079
1976.00,0.0077
1975.00,0.0077
1974.00,0.0076
1973.00,0.0076
1972.00,0.0077
1971.00,0.0077
1970.00,0.0077
1969.00,0.0077
1968.00,0.0078
1967.00,0.0078
1966.00,0.0077
1965.00,0.0077
1964.00,0.0077
1963.00,0.0076
1962.00,0.0074
1961.00,0.0073
1960.00,0.0072
1959.00,0.0072
1958.00,0.0072
1957.00,0.0073
1956.00,0.0074
1955.00,0.0074
1954.00,0.0074
1953.00,0.0075
1952.00,0.0075
1951.00,0.0075
1950.00,0.0075
1949.00,0.0075
1948.00,0.0075
1947.00,0.0075
1946.00,0.0075
1945.00,0.0075
1944.00,0.0076
1943.00,0.0075
1942.00,0.0075
1941.00,0.0075
1940.00,0.0075
1939.00,0.0075
1938.00,0.0075
1937.00,0.0075
1936.00,0.0075
1935.00,0.0075
1934.00,0.0075
1933.00,0.0075
1932.00,0.0075
1931.00,0.0075
1930.00,0.0075
1929.00,0.0074
1928.00,0.0074
1927.00,0.0074
1926.00,0.0074
1925.00,0.0075
1924.00,0.0075
1923.00,0.0076
1922.00,0.0076
1921.00,0.0077
1920.00,0.0077
1919.00,0.0077
1918.00,0.0076
1917.00,0.0076
1916.00,0.0076
1915.00,0.0076
1914.00,0.0076
1913.00,0.0076
1912.00,0.0076
1911.00,0.0076
1910.00,0.0075
1909.00,0.0075
1908.00,0.0075
1907.00,0.0075
1906.00,0.0075
1905.00,0.0076
1904.00,0.0076
1903.00,0.0075
1902.00,0.0075
1901.00,0.0075
1900.00,0.0075
1899.00,0.0075
1898.00,0.0074
1897.00,0.0074
1896.00,0.0074
1895.00,0.0074
1894.00,0.0074
1893.00,0.0074
1892.00,0.0074
1891.00,0.0074
1890.00,0.0074
1889.00,0.0074
1888.00,0.0074
1887.00,0.0074
1886.00,0.0074
1885.00,0.0074
1884.00,0.0074
1883.00,0.0074
1882.00,0.0074
1881.00,0.0073
1880.00,0.0074
1879.00,0.0073
1878.00,0.0073
1877.00,0.0073
1876.00,0.0073
1875.00,0.0073
1874.00,0.0073
1873.00,0.0073
1872.00,0.0073
1871.00,0.0073
1870.00,0.0073
1869.00,0.0072
1868.00,0.0072
1867.00,0.0072
1866.00,0.0072
1865.00,0.0072
1864.00,0.0072
1863.00,0.0072
1862.00,0.0072
1861.00,0.0071
1860.00,0.0071
1859.00,0.0071
1858.00,0.0071
1857.00,0.0071
1856.00,0.0071
1855.00,0.0071
1854.00,0.0071
1853.00,0.0071
1852.00,0.0070
1851.00,0.0070
1850.00,0.0070
1849.00,0.0070
1848.00,0.0070
1847.00,0.0070
1846.00,0.0070
1845.00,0.0069
1844.00,0.0069
1843.00,0.0069
1842.00,0.0069
1841.00,0.0069
1840.00,0.0069
1839.00,0.0069
1838.00,0.0069
1837.00,0.0069
1836.00,0.0069
1835.00,0.0069
1834.00,0.0069
1833.00,0.0069
1832.00,0.0069
1831.00,0.0069
1830.00,0.0069
1829.00,0.0069
1828.00,0.0069
1827.00,0.0069
1826.00,0.0069
1825.00,0.0069
1824.00,0.0069
1823.00,0.0069
1822.00,0.0068
1821.00,0.0068
1820.00,0.0067
1819.00,0.0066
1818.00,0.0065
1817.00,0.0065
1816.00,0.0065
1815.00,0.0066
1814.00,0.0066
1813.00,0.0067
1812.00,0.0067
1811.00,0.0068
1810.00,0.0068
1809.00,0.0068
1808.00,0.0068
1807.00,0.0068
1806.00,0.0067
1805.00,0.0067
1804.00,0.0067
1803.00,0.0067
1802.00,0.0067
1801.00,0.0067
1800.00,0.0068
1799.00,0.0068
1798.00,0.0067
1797.00,0.0068
1796.00,0.0068
1795.00,0.0068
1794.00,0.0067
1793.00,0.0067
1792.00,0.0067
1791.00,0.0067
1790.00,0.0067
1789.00,0.0067
1788.00,0.0067
1787.00,0.0067
1786.00,0.0067
1785.00,0.0066
1784.00,0.0067
1783.00,0.0067
1782.00,0.0067
1781.00,0.0067
1780.00,0.0067
1779.00,0.0066
1778.00,0.0066
1777.00,0.0066
1776.00,0.0067
1775.00,0.0067
1774.00,0.0067
1773.00,0.0067
1772.00,0.0067
1771.00,0.0066
1770.00,0.0065
1769.00,0.0065
1768.00,0.0066
1767.00,0.0066
1766.00,0.0066
1765.00,0.0066
1764.00,0.0067
1763.00,0.0067
1762.00,0.0066
1761.00,0.0066
1760.00,0.0066
1759.00,0.0067
1758.00,0.0067
1757.00,0.0067
1756.00,0.0067
1755.00,0.0067
1754.00,0.0067
1753.00,0.0067
1752.00,0.0067
1751.00,0.0067
1750.00,0.0067
1749.00,0.0068
1748.00,0.0068
1747.00,0.0068
1746.00,0.0068
1745.00,0.0069
1744.00,0.0069
1743.00,0.0069
1742.00,0.0069
1741.00,0.0069
1740.00,0.0069
1739.00,0.0070
1738.00,0.0070
1737.00,0.0070
1736.00,0.0070
1735.00,0.0070
1734.00,0.0070
1733.00,0.0070
1732.00,0.0071
1731.00,0.0071
1730.00,0.0072
1729.00,0.0072
1728.00,0.0073
1727.00,0.0074
1726.00,0.0074
1725.00,0.0075
1724.00,0.0076
1723.00,0.0077
1722.00,0.0077
1721.00,0.0078
1720.00,0.0079
1719.00,0.0080
1718.00,0.0082
1717.00,0.0083
1716.00,0.0085
1715.00,0.0087
1714.00,0.0089
1713.00,0.0092
1712.00,0.0096
1711.00,0.0099
1710.00,0.0103
1709.00,0.0108
1708.00,0.0113
1707.00,0.0120
1706.00,0.0128
1705.00,0.0137
1704.00,0.0146
1703.00,0.0154
1702.00,0.0165
1701.00,0.0185
1700.00,0.0212
1699.00,0.0234
1698.00,0.0248
1697.00,0.0262
1696.00,0.0277
1695.00,0.0292
1694.00,0.0301
1693.00,0.0308
1692.00,0.0313
1691.00,0.0320
1690.00,0.0328
1689.00,0.0336
1688.00,0.0343
1687.00,0.0349
1686.00,0.0355
1685.00,0.0368
1684.00,0.0388
1683.00,0.0404
1682.00,0.0415
1681.00,0.0424
1680.00,0.0434
1679.00,0.0444
1678.00,0.0452
1677.00,0.0462
1676.00,0.0475
1675.00,0.0491
1674.00,0.0506
1673.00,0.0517
1672.00,0.0527
1671.00,0.0538
1670.00,0.0554
1669.00,0.0572
1668.00,0.0588
1667.00,0.0600
1666.00,0.0608
1665.00,0.0616
1664.00,0.0628
1663.00,0.0643
1662.00,0.0660
1661.00,0.0673
1660.00,0.0684
1659.00,0.0694
1658.00,0.0701
1657.00,0.0706
1656.00,0.0708
1655.00,0.0710
1654.00,0.0723
1653.00,0.0748
1652.00,0.0769
1651.00,0.0776
1650.00,0.0773
1649.00,0.0771
1648.00,0.0773
1647.00,0.0783
1646.00,0.0794
1645.00,0.0801
1644.00,0.0804
1643.00,0.0805
1642.00,0.0806
1641.00,0.0807
1640.00,0.0809
1639.00,0.0809
1638.00,0.0809
1637.00,0.0812
1636.00,0.0821
1635.00,0.0834
1634.00,0.0842
1633.00,0.0844
1632.00,0.0844
1631.00,0.0844
1630.00,0.0845
1629.00,0.0849
1628.00,0.0855
1627.00,0.0860
1626.00,0.0864
1625.00,0.0867
1624.00,0.0872
1623.00,0.0879
1622.00,0.0885
1621.00,0.0887
1620.00,0.0884
1619.00,0.0879
1618.00,0.0875
1617.00,0.0874
1616.00,0.0873
1615.00,0.0869
1614.00,0.0860
1613.00,0.0847
1612.00,0.0833
1611.00,0.0820
1610.00,0.0807
1609.00,0.0793
1608.00,0.0779
1607.00,0.0765
1606.00,0.0751
1605.00,0.0736
1604.00,0.0722
1603.00,0.0707
1602.00,0.0693
1601.00,0.0679
1600.00,0.0665
1599.00,0.0651
1598.00,0.0638
1597.00,0.0625
1596.00,0.0611
1595.00,0.0599
1594.00,0.0587
1593.00,0.0575
1592.00,0.0562
1591.00,0.0550
1590.00,0.0539
1589.00,0.0528
1588.00,0.0518
1587.00,0.0508
1586.00,0.0498
1585.00,0.0490
1584.00,0.0481
1583.00,0.0473
1582.00,0.0467
1581.00,0.0461
1580.00,0.0455
1579.00,0.0449
1578.00,0.0445
1577.00,0.0443
1576.00,0.0444
1575.00,0.0445
1574.00,0.0446
1573.00,0.0445
1572.00,0.0444
1571.00,0.0445
1570.00,0.0451
1569.00,0.0458
1568.00,0.0464
1567.00,0.0469
1566.00,0.0474
1565.00,0.0481
1564.00,0.0487
1563.00,0.0491
1562.00,0.0493
1561.00,0.0495
1560.00,0.0503
1559.00,0.0527
1558.00,0.0552
1557.00,0.0564
1556.00,0.0570
1555.00,0.0577
1554.00,0.0587
1553.00,0.0597
1552.00,0.0605
1551.00,0.0614
1550.00,0.0624
1549.00,0.0635
1548.00,0.0643
1547.00,0.0648
1546.00,0.0654
1545.00,0.0662
1544.00,0.0669
1543.00,0.0676
1542.00,0.0683
1541.00,0.0695
1540.00,0.0712
1539.00,0.0727
1538.00,0.0735
1537.00,0.0737
1536.00,0.0736
1535.00,0.0737
1534.00,0.0744
1533.00,0.0756
1532.00,0.0766
1531.00,0.0771
1530.00,0.0774
1529.00,0.0777
1528.00,0.0782
1527.00,0.0789
1526.00,0.0797
1525.00,0.0803
1524.00,0.0807
1523.00,0.0810
1522.00,0.0819
1521.00,0.0832
1520.00,0.0842
1519.00,0.0845
1518.00,0.0848
1517.00,0.0852
1516.00,0.0856
1515.00,0.0857
1514.00,0.0854
1513.00,0.0848
1512.00,0.0841
1511.00,0.0834
1510.00,0.0825
1509.00,0.0814
1508.00,0.0805
1507.00,0.0799
1506.00,0.0795
1505.00,0.0788
1504.00,0.0776
1503.00,0.0763
1502.00,0.0748
1501.00,0.0734
1500.00,0.0719
1499.00,0.0705
1498.00,0.0691
1497.00,0.0677
1496.00,0.0663
1495.00,0.0649
1494.00,0.0635
1493.00,0.0620
1492.00,0.0603
1491.00,0.0587
1490.00,0.0572
1489.00,0.0558
1488.00,0.0545
1487.00,0.0533
1486.00,0.0521
1485.00,0.0509
1484.00,0.0498
1483.00,0.0488
1482.00,0.0478
1481.00,0.0469
1480.00,0.0462
1479.00,0.0455
1478.00,0.0448
1477.00,0.0443
1476.00,0.0438
1475.00,0.0434
1474.00,0.0431
1473.00,0.0431
1472.00,0.0432
1471.00,0.0433
1470.00,0.0433
1469.00,0.0432
1468.00,0.0429
1467.00,0.0427
1466.00,0.0426
1465.00,0.0427
1464.00,0.0429
1463.00,0.0431
1462.00,0.0433
1461.00,0.0433
1460.00,0.0434
1459.00,0.0436
1458.00,0.0442
1457.00,0.0452
1456.00,0.0461
1455.00,0.0467
1454.00,0.0469
1453.00,0.0469
1452.00,0.0469
1451.00,0.0469
1450.00,0.0468
1449.00,0.0466
1448.00,0.0464
1447.00,0.0462
1446.00,0.0459
1445.00,0.0455
1444.00,0.0450
1443.00,0.0445
1442.00,0.0440
1441.00,0.0434
1440.00,0.0428
1439.00,0.0421
1438.00,0.0415
1437.00,0.0409
1436.00,0.0406
1435.00,0.0403
1434.00,0.0399
1433.00,0.0395
1432.00,0.0391
1431.00,0.0388
1430.00,0.0386
1429.00,0.0385
1428.00,0.0384
1427.00,0.0383
1426.00,0.0383
1425.00,0.0383
1424.00,0.0383
1423.00,0.0384
1422.00,0.0385
1421.00,0.0384
1420.00,0.0385
1419.00,0.0389
1418.00,0.0393
1417.00,0.0396
1416.00,0.0398
1415.00,0.0400
1414.00,0.0401
1413.00,0.0403
1412.00,0.0404
1411.00,0.0406
1410.00,0.0408
1409.00,0.0409
1408.00,0.0410
1407.00,0.0411
1406.00,0.0411
1405.00,0.0412
1404.00,0.0413
1403.00,0.0413
1402.00,0.0412
1401.00,0.0411
1400.00,0.0410
1399.00,0.0409
1398.00,0.0409
1397.00,0.0408
1396.00,0.0408
1395.00,0.0408
1394.00,0.0408
1393.00,0.0408
1392.00,0.0408
1391.00,0.0407
1390.00,0.0406
1389.00,0.0405
1388.00,0.0404
1387.00,0.0404
1386.00,0.0404
1385.00,0.0403
1384.00,0.0402
1383.00,0.0400
1382.00,0.0398
1381.00,0.0397
1380.00,0.0395
1379.00,0.0394
1378.00,0.0392
1377.00,0.0391
1376.00,0.0389
1375.00,0.0388
1374.00,0.0388
1373.00,0.0388
1372.00,0.0387
1371.00,0.0386
1370.00,0.0385
1369.00,0.0383
1368.00,0.0381
1367.00,0.0378
1366.00,0.0376
1365.00,0.0372
1364.00,0.0369
1363.00,0.0366
1362.00,0.0364
1361.00,0.0362
1360.00,0.0361
1359.00,0.0359
1358.00,0.0357
1357.00,0.0356
1356.00,0.0354
1355.00,0.0353
1354.00,0.0351
1353.00,0.0350
1352.00,0.0349
1351.00,0.0348
1350.00,0.0348
1349.00,0.0347
1348.00,0.0347
1347.00,0.0346
1346.00,0.0346
1345.00,0.0345
1344.00,0.0345
1343.00,0.0344
1342.00,0.0344
1341.00,0.0344
1340.00,0.0343
1339.00,0.0343
1338.00,0.0344
1337.00,0.0344
1336.00,0.0344
1335.00,0.0343
1334.00,0.0343
1333.00,0.0343
1332.00,0.0342
1331.00,0.0342
1330.00,0.0342
1329.00,0.0341
1328.00,0.0341
1327.00,0.0341
1326.00,0.0341
1325.00,0.0341
1324.00,0.0341
1323.00,0.0341
1322.00,0.0341
1321.00,0.0341
1320.00,0.0341
1319.00,0.0341
1318.00,0.0342
1317.00,0.0342
1316.00,0.0342
1315.00,0.0342
1314.00,0.0342
1313.00,0.0343
1312.00,0.0343
1311.00,0.0343
1310.00,0.0342
1309.00,0.0342
1308.00,0.0342
1307.00,0.0341
1306.00,0.0341
1305.00,0.0341
1304.00,0.0341
1303.00,0.0340
1302.00,0.0340
1301.00,0.0339
1300.00,0.0338
1299.00,0.0338
1298.00,0.0337
1297.00,0.0337
1296.00,0.0336
1295.00,0.0336
1294.00,0.0336
1293.00,0.0336
1292.00,0.0335
1291.00,0.0335
1290.00,0.0336
1289.00,0.0336
1288.00,0.0335
1287.00,0.0335
1286.00,0.0335
1285.00,0.0335
1284.00,0.0334
1283.00,0.0334
1282.00,0.0333
1281.00,0.0333
1280.00,0.0332
1279.00,0.0332
1278.00,0.0331
1277.00,0.0331
1276.00,0.0330
1275.00,0.0330
1274.00,0.0331
1273.00,0.0331
1272.00,0.0331
1271.00,0.0332
1270.00,0.0332
1269.00,0.0333
1268.00,0.0334
1267.00,0.0335
1266.00,0.0336
1265.00,0.0337
1264.00,0.0339
1263.00,0.0341
1262.00,0.0343
1261.00,0.0345
1260.00,0.0348
1259.00,0.0351
1258.00,0.0354
1257.00,0.0357
1256.00,0.0360
1255.00,0.0363
1254.00,0.0367
1253.00,0.0370
1252.00,0.0373
1251.00,0.0376
1250.00,0.0379
1249.00,0.0382
1248.00,0.0385
1247.00,0.0387
1246.00,0.0390
1245.00,0.0392
1244.00,0.0394
1243.00,0.0396
1242.00,0.0397
1241.00,0.0398
1240.00,0.0399
1239.00,0.0400
1238.00,0.0401
1237.00,0.0401
1236.00,0.0401
1235.00,0.0401
1234.00,0.0400
1233.00,0.0400
1232.00,0.0399
1231.00,0.0398
1230.00,0.0397
1229.00,0.0396
1228.00,0.0395
1227.00,0.0393
1226.00,0.0392
1225.00,0.0391
1224.00,0.0389
1223.00,0.0387
1222.00,0.0385
1221.00,0.0383
1220.00,0.0381
1219.00,0.0379
1218.00,0.0376
1217.00,0.0374
1216.00,0.0371
1215.00,0.0368
1214.00,0.0365
1213.00,0.0362
1212.00,0.0359
1211.00,0.0355
1210.00,0.0352
1209.00,0.0348
1208.00,0.0344
1207.00,0.0340
1206.00,0.0336
1205.00,0.0332
1204.00,0.0328
1203.00,0.0323
1202.00,0.0320
1201.00,0.0316
1200.00,0.0312
1199.00,0.0308
1198.00,0.0305
1197.00,0.0302
1196.00,0.0299
1195.00,0.0296
1194.00,0.0294
1193.00,0.0291
1192.00,0.0289
1191.00,0.0287
1190.00,0.0285
1189.00,0.0284
1188.00,0.0282
1187.00,0.0281
1186.00,0.0280
1185.00,0.0279
1184.00,0.0278
1183.00,0.0277
1182.00,0.0277
1181.00,0.0278
1180.00,0.0278
1179.00,0.0279
1178.00,0.0280
1177.00,0.0282
1176.00,0.0283
1175.00,0.0285
1174.00,0.0288
1173.00,0.0290
1172.00,0.0292
1171.00,0.0294
1170.00,0.0296
1169.00,0.0298
1168.00,0.0299
1167.00,0.0301
1166.00,0.0303
1165.00,0.0304
1164.00,0.0305
1163.00,0.0306
1162.00,0.0307
1161.00,0.0307
1160.00,0.0307
1159.00,0.0307
1158.00,0.0307
1157.00,0.0306
1156.00,0.0304
1155.00,0.0302
1154.00,0.0301
1153.00,0.0299
1152.00,0.0297
1151.00,0.0294
1150.00,0.0292
1149.00,0.0290
1148.00,0.0287
1147.00,0.0285
1146.00,0.0284
1145.00,0.0282
1144.00,0.0280
1143.00,0.0278
1142.00,0.0277
1141.00,0.0276
1140.00,0.0275
1139.00,0.0275
1138.00,0.0275
1137.00,0.0275
1136.00,0.0274
1135.00,0.0275
1134.00,0.0275
1133.00,0.0276
1132.00,0.0276
1131.00,0.0276
1130.00,0.0277
1129.00,0.0277
1128.00,0.0276
1127.00,0.0276
1126.00,0.0276
1125.00,0.0275
1124.00,0.0274
1123.00,0.0273
1122.00,0.0272
1121.00,0.0271
1120.00,0.0270
1119.00,0.0268
1118.00,0.0267
1117.00,0.0266
1116.00,0.0264
1115.00,0.0263
1114.00,0.0263
1113.00,0.0262
1112.00,0.0261
1111.00,0.0260
1110.00,0.0260
1109.00,0.0259
1108.00,0.0259
1107.00,0.0259
1106.00,0.0259
1105.00,0.0259
1104.00,0.0259
1103.00,0.0260
1102.00,0.0260
1101.00,0.0261
1100.00,0.0261
1099.00,0.0262
1098.00,0.0264
1097.00,0.0265
1096.00,0.0267
1095.00,0.0270
1094.00,0.0273
1093.00,0.0276
1092.00,0.0280
1091.00,0.0284
1090.00,0.0288
1089.00,0.0293
1088.00,0.0299
1087.00,0.0304
1086.00,0.0311
1085.00,0.0317
1084.00,0.0324
1083.00,0.0330
1082.00,0.0337
1081.00,0.0343
1080.00,0.0349
1079.00,0.0355
1078.00,0.0360
1077.00,0.0365
1076.00,0.0369
1075.00,0.0372
1074.00,0.0376
1073.00,0.0379
1072.00,0.0381
1071.00,0.0382
1070.00,0.0384
1069.00,0.0386
1068.00,0.0387
1067.00,0.0388
1066.00,0.0390
1065.00,0.0390
1064.00,0.0390
1063.00,0.0390
1062.00,0.0390
1061.00,0.0390
1060.00,0.0389
1059.00,0.0387
1058.00,0.0386
1057.00,0.0385
1056.00,0.0383
1055.00,0.0381
1054.00,0.0379
1053.00,0.0377
1052.00,0.0375
1051.00,0.0372
1050.00,0.0370
1049.00,0.0368
1048.00,0.0365
1047.00,0.0361
1046.00,0.0358
1045.00,0.0354
1044.00,0.0350
1043.00,0.0345
1042.00,0.0341
1041.00,0.0337
1040.00,0.0332
1039.00,0.0327
1038.00,0.0323
1037.00,0.0319
1036.00,0.0315
1035.00,0.0311
1034.00,0.0308
1033.00,0.0304
1032.00,0.0300
1031.00,0.0297
1030.00,0.0293
1029.00,0.0289
1028.00,0.0285
1027.00,0.0281
1026.00,0.0277
1025.00,0.0273
1024.00,0.0268
1023.00,0.0264
1022.00,0.0261
1021.00,0.0257
1020.00,0.0253
1019.00,0.0250
1018.00,0.0247
1017.00,0.0244
1016.00,0.0240
1015.00,0.0237
1014.00,0.0235
1013.00,0.0232
1012.00,0.0229
1011.00,0.0226
1010.00,0.0224
1009.00,0.0222
1008.00,0.0219
1007.00,0.0217
1006.00,0.0216
1005.00,0.0214
1004.00,0.0212
1003.00,0.0211
1002.00,0.0210
1001.00,0.0209
1000.00,0.0207
999.00,0.0206
998.00,0.0205
997.00,0.0204
996.00,0.0203
995.00,0.0202
994.00,0.0201
993.00,0.0201
992.00,0.0199
991.00,0.0198
990.00,0.0198
989.00,0.0197
988.00,0.0197
987.00,0.0196
986.00,0.0195
985.00,0.0195
984.00,0.0194
983.00,0.0194
982.00,0.0194
981.00,0.0193
980.00,0.0193
979.00,0.0193
978.00,0.0194
977.00,0.0194
976.00,0.0194
975.00,0.0194
974.00,0.0195
973.00,0.0196
972.00,0.0196
971.00,0.0197
970.00,0.0199
969.00,0.0200
968.00,0.0201
967.00,0.0203
966.00,0.0205
965.00,0.0207
964.00,0.0208
963.00,0.0209
962.00,0.0210
961.00,0.0211
960.00,0.0211
959.00,0.0211
958.00,0.0211
957.00,0.0210
956.00,0.0209
955.00,0.0207
954.00,0.0207
953.00,0.0206
952.00,0.0205
951.00,0.0204
950.00,0.0204
949.00,0.0204
948.00,0.0203
947.00,0.0202
946.00,0.0202
945.00,0.0202
944.00,0.0201
943.00,0.0200
942.00,0.0200
941.00,0.0200
940.00,0.0200
939.00,0.0200
938.00,0.0200
937.00,0.0201
936.00,0.0201
935.00,0.0201
934.00,0.0201
933.00,0.0201
932.00,0.0201
931.00,0.0201
930.00,0.0201
929.00,0.0201
928.00,0.0201
927.00,0.0200
926.00,0.0200
925.00,0.0200
924.00,0.0198
923.00,0.0198
922.00,0.0197
921.00,0.0196
920.00,0.0195
919.00,0.0194
918.00,0.0194
917.00,0.0193
916.00,0.0192
915.00,0.0192
914.00,0.0192
913.00,0.0192
912.00,0.0192
911.00,0.0192
910.00,0.0193
909.00,0.0194
908.00,0.0194
907.00,0.0195
906.00,0.0196
905.00,0.0197
904.00,0.0197
903.00,0.0198
902.00,0.0198
901.00,0.0199
900.00,0.0199
899.00,0.0198
898.00,0.0198
897.00,0.0198
896.00,0.0198
895.00,0.0197
894.00,0.0197
893.00,0.0196
892.00,0.0195
891.00,0.0194
890.00,0.0193
889.00,0.0192
888.00,0.0191
887.00,0.0189
886.00,0.0189
885.00,0.0189
884.00,0.0188
883.00,0.0188
882.00,0.0188
881.00,0.0188
880.00,0.0187
879.00,0.0187
878.00,0.0187
877.00,0.0187
876.00,0.0186
875.00,0.0186
874.00,0.0186
873.00,0.0186
872.00,0.0186
871.00,0.0186
870.00,0.0186
869.00,0.0186
868.00,0.0185
867.00,0.0185
866.00,0.0185
865.00,0.0185
864.00,0.0184
863.00,0.0184
862.00,0.0184
861.00,0.0185
860.00,0.0184
859.00,0.0184
858.00,0.0185
857.00,0.0186
856.00,0.0187
855.00,0.0187
854.00,0.0188
853.00,0.0189
852.00,0.0189
851.00,0.0190
850.00,0.0191
849.00,0.0192
848.00,0.0192
847.00,0.0192
846.00,0.0193
845.00,0.0193
844.00,0.0194
843.00,0.0195
842.00,0.0196
841.00,0.0198
840.00,0.0199
839.00,0.0200
838.00,0.0203
837.00,0.0205
836.00,0.0207
835.00,0.0209
834.00,0.0211
833.00,0.0213
832.00,0.0215
831.00,0.0216
830.00,0.0219
829.00,0.0221
828.00,0.0222
827.00,0.0223
826.00,0.0225
825.00,0.0227
824.00,0.0228
823.00,0.0229
822.00,0.0230
821.00,0.0232
820.00,0.0233
819.00,0.0234
818.00,0.0236
817.00,0.0238
816.00,0.0239
815.00,0.0240
814.00,0.0242
813.00,0.0244
812.00,0.0246
811.00,0.0247
810.00,0.0249
809.00,0.0251
808.00,0.0251
807.00,0.0253
806.00,0.0254
805.00,0.0255
804.00,0.0256
803.00,0.0257
802.00,0.0259
801.00,0.0261
800.00,0.0262
799.00,0.0263
798.00,0.0264
797.00,0.0266
796.00,0.0267
795.00,0.0268
794.00,0.0270
793.00,0.0273
792.00,0.0275
791.00,0.0277
790.00,0.0280
789.00,0.0282
788.00,0.0285
787.00,0.0287
786.00,0.0290
785.00,0.0292
784.00,0.0294
783.00,0.0296
782.00,0.0299
781.00,0.0302
780.00,0.0304
779.00,0.0306
778.00,0.0309
777.00,0.0312
776.00,0.0314
775.00,0.0316
774.00,0.0319
773.00,0.0321
772.00,0.0323
771.00,0.0325
770.00,0.0327
769.00,0.0329
768.00,0.0330
767.00,0.0331
766.00,0.0333
765.00,0.0334
764.00,0.0334
763.00,0.0335
762.00,0.0336
761.00,0.0338
760.00,0.0338
759.00,0.0340
758.00,0.0342
757.00,0.0344
756.00,0.0346
755.00,0.0347
754.00,0.0350
753.00,0.0352
752.00,0.0354
751.00,0.0356
750.00,0.0359
749.00,0.0361
748.00,0.0362
747.00,0.0363
746.00,0.0364
745.00,0.0366
744.00,0.0367
743.00,0.0368
742.00,0.0369
741.00,0.0371
740.00,0.0372
739.00,0.0373
738.00,0.0375
737.00,0.0377
736.00,0.0378
735.00,0.0380
734.00,0.0383
733.00,0.0386
732.00,0.0388
731.00,0.0392
730.00,0.0396
729.00,0.0401
728.00,0.0405
727.00,0.0410
726.00,0.0415
725.00,0.0421
724.00,0.0426
723.00,0.0432
722.00,0.0438
721.00,0.0444
720.00,0.0449
719.00,0.0456
718.00,0.0463
717.00,0.0470
716.00,0.0476
715.00,0.0483
714.00,0.0490
713.00,0.0496
712.00,0.0502
711.00,0.0508
710.00,0.0515
709.00,0.0522
708.00,0.0528
707.00,0.0534
706.00,0.0541
705.00,0.0547
704.00,0.0552
703.00,0.0557
702.00,0.0562
701.00,0.0566
700.00,0.0568
699.00,0.0570
698.00,0.0572
697.00,0.0573
696.00,0.0573
695.00,0.0573
694.00,0.0574
693.00,0.0574
692.00,0.0574
691.00,0.0574
690.00,0.0576
689.00,0.0577
688.00,0.0577
687.00,0.0578
686.00,0.0580
685.00,0.0581
684.00,0.0582
683.00,0.0582
682.00,0.0583
681.00,0.0584
680.00,0.0585
679.00,0.0585
678.00,0.0586
677.00,0.0587
676.00,0.0588
675.00,0.0588
674.00,0.0590
673.00,0.0590
672.00,0.0590
671.00,0.0590
670.00,0.0592
669.00,0.0595
668.00,0.0599
667.00,0.0602
666.00,0.0601
665.00,0.0600
664.00,0.0598
663.00,0.0597
662.00,0.0599
661.00,0.0600
660.00,0.0601
659.00,0.0601
658.00,0.0603
657.00,0.0604
656.00,0.0605
655.00,0.0606
654.00,0.0608
653.00,0.0610
652.00,0.0611
651.00,0.0612
650.00,0.0614
649.00,0.0616
648.00,0.0617
647.00,0.0619
646.00,0.0622
645.00,0.0624
644.00,0.0626
643.00,0.0628
642.00,0.0630
641.00,0.0632
640.00,0.0634
639.00,0.0636
638.00,0.0639
637.00,0.0642
636.00,0.0643
635.00,0.0645
634.00,0.0648
633.00,0.0650
632.00,0.0651
631.00,0.0652
630.00,0.0655
629.00,0.0657
628.00,0.0657
627.00,0.0658
626.00,0.0659
625.00,0.0660
624.00,0.0660
623.00,0.0660
622.00,0.0661
621.00,0.0661
620.00,0.0660
619.00,0.0658
618.00,0.0658
617.00,0.0657
616.00,0.0656
615.00,0.0654
614.00,0.0653
613.00,0.0651
612.00,0.0649
611.00,0.0647
610.00,0.0647
609.00,0.0646
608.00,0.0645
607.00,0.0644
606.00,0.0644
605.00,0.0644
604.00,0.0642
603.00,0.0641
602.00,0.0642
601.00,0.0642
600.00,0.0641
599.00,0.0640
598.00,0.0641
597.00,0.0641
596.00,0.0640
595.00,0.0639
594.00,0.0641
593.00,0.0642
592.00,0.0641
591.00,0.0641
590.00,0.0642
589.00,0.0642
588.00,0.0642
587.00,0.0642
586.00,0.0643
585.00,0.0645
584.00,0.0644
583.00,0.0644
582.00,0.0646
581.00,0.0648
580.00,0.0648
579.00,0.0648
578.00,0.0650
577.00,0.0651
576.00,0.0651
575.00,0.0651
574.00,0.0653
573.00,0.0655
572.00,0.0654
571.00,0.0655
570.00,0.0656
569.00,0.0658
568.00,0.0658
567.00,0.0658
566.00,0.0660
565.00,0.0661
564.00,0.0660
563.00,0.0660
562.00,0.0662
561.00,0.0663
560.00,0.0663
559.00,0.0663
558.00,0.0664
557.00,0.0665
556.00,0.0665
555.00,0.0665
554.00,0.0666
553.00,0.0667
552.00,0.0666
551.00,0.0666
550.00,0.0668
549.00,0.0669
548.00,0.0668
547.00,0.0667
546.00,0.0668
545.00,0.0669
544.00,0.0668
543.00,0.0668
542.00,0.0670
541.00,0.0671
540.00,0.0670
539.00,0.0669
538.00,0.0671
537.00,0.0672
536.00,0.0670
535.00,0.0670
534.00,0.0671
533.00,0.0673
532.00,0.0672
531.00,0.0673
530.00,0.0674
529.00,0.0675
528.00,0.0674
527.00,0.0673
526.00,0.0675
525.00,0.0677
524.00,0.0676
523.00,0.0676
522.00,0.0677
521.00,0.0678
520.00,0.0677
519.00,0.0677
518.00,0.0679
517.00,0.0680
516.00,0.0678
515.00,0.0677
514.00,0.0677
513.00,0.0677
512.00,0.0674
511.00,0.0673
510.00,0.0674
509.00,0.0674
508.00,0.0672
507.00,0.0670
506.00,0.0671
505.00,0.0671
504.00,0.0668
503.00,0.0666
502.00,0.0667
501.00,0.0668
500.00,0.0666
499.00,0.0665
498.00,0.0667
497.00,0.0668
496.00,0.0666
495.00,0.0665
494.00,0.0667
493.00,0.0667
492.00,0.0664
491.00,0.0661
490.00,0.0662
489.00,0.0663
488.00,0.0661
487.00,0.0660
486.00,0.0663
485.00,0.0664
484.00,0.0662
483.00,0.0661
482.00,0.0663
481.00,0.0664
480.00,0.0661
479.00,0.0659
478.00,0.0661
477.00,0.0662
476.00,0.0658
475.00,0.0656
474.00,0.0658
473.00,0.0661
472.00,0.0658
471.00,0.0657
470.00,0.0660
469.00,0.0663
468.00,0.0661
467.00,0.0659
466.00,0.0661
465.00,0.0662
464.00,0.0659
463.00,0.0658
462.00,0.0661
461.00,0.0662
460.00,0.0657
459.00,0.0653
458.00,0.0654
457.00,0.0657
456.00,0.0656
455.00,0.0654
454.00,0.0657
453.00,0.0659
452.00,0.0655
451.00,0.0652
450.00,0.0653
449.00,0.0652
448.00,0.0647
447.00,0.0643
446.00,0.0643
445.00,0.0642
444.00,0.0636
443.00,0.0631
442.00,0.0632
441.00,0.0632
440.00,0.0626
439.00,0.0621
438.00,0.0620
437.00,0.0619
436.00,0.0613
435.00,0.0609
434.00,0.0613
433.00,0.0614
432.00,0.0608
431.00,0.0602
430.00,0.0602
429.00,0.0601
428.00,0.0595
427.00,0.0589
426.00,0.0590
425.00,0.0591
424.00,0.0585
423.00,0.0581
422.00,0.0585
421.00,0.0587
420.00,0.0578
419.00,0.0569
418.00,0.0574
417.00,0.0577
416.00,0.0570
415.00,0.0566
414.00,0.0572
413.00,0.0578
412.00,0.0573
411.00,0.0569
410.00,0.0574
409.00,0.0576
408.00,0.0565
407.00,0.0557
406.00,0.0561
405.00,0.0564
404.00,0.0554
403.00,0.0547
402.00,0.0554
401.00,0.0554
400.00,0.0528
