PE IR       SUBTECH     SPECTRUM    ASCII       PEDS        4.00        
   -1
PE_P viridans inner 2.ASC
24/08/19
15:46:17.00
24/08/19
15:46:22.00
Yarger Lab
Sample 316 By YargerLab Date Monday, August 19 2024
400.000000
#HDR
-1
-1
#GR
cm-1
A
1.0
0.0
4000.000000
-1.000000
3601
8
0.049872
0.003338
#DATA
4000.000000	0.007415
3999.000000	0.007420
3998.000000	0.007421
3997.000000	0.007419
3996.000000	0.007418
3995.000000	0.007417
3994.000000	0.007416
3993.000000	0.007412
3992.000000	0.007405
3991.000000	0.007397
3990.000000	0.007392
3989.000000	0.007391
3988.000000	0.007394
3987.000000	0.007397
3986.000000	0.007399
3985.000000	0.007398
3984.000000	0.007395
3983.000000	0.007393
3982.000000	0.007393
3981.000000	0.007395
3980.000000	0.007397
3979.000000	0.007397
3978.000000	0.007391
3977.000000	0.007384
3976.000000	0.007376
3975.000000	0.007372
3974.000000	0.007372
3973.000000	0.007374
3972.000000	0.007376
3971.000000	0.007376
3970.000000	0.007374
3969.000000	0.007371
3968.000000	0.007368
3967.000000	0.007366
3966.000000	0.007366
3965.000000	0.007365
3964.000000	0.007365
3963.000000	0.007364
3962.000000	0.007364
3961.000000	0.007365
3960.000000	0.007366
3959.000000	0.007367
3958.000000	0.007366
3957.000000	0.007363
3956.000000	0.007360
3955.000000	0.007356
3954.000000	0.007352
3953.000000	0.007349
3952.000000	0.007346
3951.000000	0.007344
3950.000000	0.007345
3949.000000	0.007349
3948.000000	0.007354
3947.000000	0.007356
3946.000000	0.007352
3945.000000	0.007340
3944.000000	0.007325
3943.000000	0.007313
3942.000000	0.007307
3941.000000	0.007306
3940.000000	0.007306
3939.000000	0.007310
3938.000000	0.007317
3937.000000	0.007326
3936.000000	0.007334
3935.000000	0.007338
3934.000000	0.007341
3933.000000	0.007342
3932.000000	0.007336
3931.000000	0.007323
3930.000000	0.007304
3929.000000	0.007286
3928.000000	0.007276
3927.000000	0.007275
3926.000000	0.007282
3925.000000	0.007293
3924.000000	0.007302
3923.000000	0.007302
3922.000000	0.007297
3921.000000	0.007293
3920.000000	0.007293
3919.000000	0.007291
3918.000000	0.007286
3917.000000	0.007279
3916.000000	0.007275
3915.000000	0.007274
3914.000000	0.007275
3913.000000	0.007278
3912.000000	0.007283
3911.000000	0.007286
3910.000000	0.007283
3909.000000	0.007271
3908.000000	0.007255
3907.000000	0.007238
3906.000000	0.007227
3905.000000	0.007225
3904.000000	0.007226
3903.000000	0.007218
3902.000000	0.007198
3901.000000	0.007172
3900.000000	0.007151
3899.000000	0.007147
3898.000000	0.007156
3897.000000	0.007171
3896.000000	0.007184
3895.000000	0.007193
3894.000000	0.007195
3893.000000	0.007191
3892.000000	0.007186
3891.000000	0.007184
3890.000000	0.007182
3889.000000	0.007174
3888.000000	0.007162
3887.000000	0.007159
3886.000000	0.007170
3885.000000	0.007182
3884.000000	0.007178
3883.000000	0.007157
3882.000000	0.007135
3881.000000	0.007131
3880.000000	0.007145
3879.000000	0.007163
3878.000000	0.007172
3877.000000	0.007173
3876.000000	0.007174
3875.000000	0.007181
3874.000000	0.007184
3873.000000	0.007169
3872.000000	0.007133
3871.000000	0.007097
3870.000000	0.007081
3869.000000	0.007082
3868.000000	0.007077
3867.000000	0.007060
3866.000000	0.007045
3865.000000	0.007044
3864.000000	0.007052
3863.000000	0.007060
3862.000000	0.007069
3861.000000	0.007083
3860.000000	0.007096
3859.000000	0.007099
3858.000000	0.007089
3857.000000	0.007072
3856.000000	0.007060
3855.000000	0.007063
3854.000000	0.007065
3853.000000	0.007045
3852.000000	0.007018
3851.000000	0.007003
3850.000000	0.007005
3849.000000	0.007024
3848.000000	0.007049
3847.000000	0.007069
3846.000000	0.007080
3845.000000	0.007083
3844.000000	0.007079
3843.000000	0.007069
3842.000000	0.007051
3841.000000	0.007026
3840.000000	0.007004
3839.000000	0.006991
3838.000000	0.006986
3837.000000	0.006984
3836.000000	0.006982
3835.000000	0.006982
3834.000000	0.006987
3833.000000	0.006999
3832.000000	0.007018
3831.000000	0.007035
3830.000000	0.007044
3829.000000	0.007046
3828.000000	0.007048
3827.000000	0.007054
3826.000000	0.007059
3825.000000	0.007050
3824.000000	0.007021
3823.000000	0.006987
3822.000000	0.006965
3821.000000	0.006958
3820.000000	0.006950
3819.000000	0.006927
3818.000000	0.006896
3817.000000	0.006885
3816.000000	0.006904
3815.000000	0.006934
3814.000000	0.006952
3813.000000	0.006960
3812.000000	0.006973
3811.000000	0.006992
3810.000000	0.007006
3809.000000	0.007005
3808.000000	0.006994
3807.000000	0.006980
3806.000000	0.006961
3805.000000	0.006928
3804.000000	0.006887
3803.000000	0.006857
3802.000000	0.006854
3801.000000	0.006869
3800.000000	0.006878
3799.000000	0.006873
3798.000000	0.006872
3797.000000	0.006887
3796.000000	0.006915
3795.000000	0.006941
3794.000000	0.006957
3793.000000	0.006965
3792.000000	0.006971
3791.000000	0.006974
3790.000000	0.006973
3789.000000	0.006967
3788.000000	0.006958
3787.000000	0.006947
3786.000000	0.006934
3785.000000	0.006923
3784.000000	0.006912
3783.000000	0.006900
3782.000000	0.006887
3781.000000	0.006879
3780.000000	0.006883
3779.000000	0.006894
3778.000000	0.006902
3777.000000	0.006902
3776.000000	0.006898
3775.000000	0.006899
3774.000000	0.006907
3773.000000	0.006914
3772.000000	0.006918
3771.000000	0.006918
3770.000000	0.006915
3769.000000	0.006907
3768.000000	0.006892
3767.000000	0.006875
3766.000000	0.006867
3765.000000	0.006871
3764.000000	0.006877
3763.000000	0.006875
3762.000000	0.006865
3761.000000	0.006854
3760.000000	0.006844
3759.000000	0.006831
3758.000000	0.006816
3757.000000	0.006801
3756.000000	0.006786
3755.000000	0.006768
3754.000000	0.006749
3753.000000	0.006733
3752.000000	0.006720
3751.000000	0.006703
3750.000000	0.006690
3749.000000	0.006684
3748.000000	0.006673
3747.000000	0.006650
3746.000000	0.006635
3745.000000	0.006649
3744.000000	0.006682
3743.000000	0.006699
3742.000000	0.006691
3741.000000	0.006673
3740.000000	0.006664
3739.000000	0.006661
3738.000000	0.006652
3737.000000	0.006629
3736.000000	0.006589
3735.000000	0.006540
3734.000000	0.006501
3733.000000	0.006490
3732.000000	0.006513
3731.000000	0.006549
3730.000000	0.006578
3729.000000	0.006594
3728.000000	0.006600
3727.000000	0.006604
3726.000000	0.006602
3725.000000	0.006591
3724.000000	0.006575
3723.000000	0.006563
3722.000000	0.006556
3721.000000	0.006550
3720.000000	0.006546
3719.000000	0.006550
3718.000000	0.006567
3717.000000	0.006589
3716.000000	0.006602
3715.000000	0.006597
3714.000000	0.006577
3713.000000	0.006548
3712.000000	0.006516
3711.000000	0.006483
3710.000000	0.006458
3709.000000	0.006447
3708.000000	0.006452
3707.000000	0.006468
3706.000000	0.006486
3705.000000	0.006496
3704.000000	0.006497
3703.000000	0.006487
3702.000000	0.006471
3701.000000	0.006452
3700.000000	0.006437
3699.000000	0.006429
3698.000000	0.006432
3697.000000	0.006447
3696.000000	0.006467
3695.000000	0.006479
3694.000000	0.006478
3693.000000	0.006466
3692.000000	0.006442
3691.000000	0.006410
3690.000000	0.006379
3689.000000	0.006363
3688.000000	0.006368
3687.000000	0.006380
3686.000000	0.006387
3685.000000	0.006392
3684.000000	0.006403
3683.000000	0.006422
3682.000000	0.006439
3681.000000	0.006445
3680.000000	0.006439
3679.000000	0.006421
3678.000000	0.006395
3677.000000	0.006374
3676.000000	0.006372
3675.000000	0.006383
3674.000000	0.006386
3673.000000	0.006370
3672.000000	0.006350
3671.000000	0.006350
3670.000000	0.006374
3669.000000	0.006405
3668.000000	0.006432
3667.000000	0.006454
3666.000000	0.006477
3665.000000	0.006500
3664.000000	0.006522
3663.000000	0.006538
3662.000000	0.006550
3661.000000	0.006558
3660.000000	0.006563
3659.000000	0.006566
3658.000000	0.006572
3657.000000	0.006584
3656.000000	0.006596
3655.000000	0.006597
3654.000000	0.006582
3653.000000	0.006562
3652.000000	0.006551
3651.000000	0.006553
3650.000000	0.006552
3649.000000	0.006537
3648.000000	0.006522
3647.000000	0.006527
3646.000000	0.006551
3645.000000	0.006583
3644.000000	0.006617
3643.000000	0.006653
3642.000000	0.006692
3641.000000	0.006730
3640.000000	0.006758
3639.000000	0.006776
3638.000000	0.006787
3637.000000	0.006795
3636.000000	0.006802
3635.000000	0.006812
3634.000000	0.006827
3633.000000	0.006836
3632.000000	0.006831
3631.000000	0.006813
3630.000000	0.006796
3629.000000	0.006795
3628.000000	0.006809
3627.000000	0.006828
3626.000000	0.006847
3625.000000	0.006872
3624.000000	0.006904
3623.000000	0.006938
3622.000000	0.006967
3621.000000	0.006985
3620.000000	0.006995
3619.000000	0.007000
3618.000000	0.007010
3617.000000	0.007028
3616.000000	0.007051
3615.000000	0.007079
3614.000000	0.007113
3613.000000	0.007149
3612.000000	0.007182
3611.000000	0.007204
3610.000000	0.007217
3609.000000	0.007227
3608.000000	0.007248
3607.000000	0.007281
3606.000000	0.007323
3605.000000	0.007365
3604.000000	0.007401
3603.000000	0.007429
3602.000000	0.007450
3601.000000	0.007464
3600.000000	0.007475
3599.000000	0.007485
3598.000000	0.007498
3597.000000	0.007515
3596.000000	0.007536
3595.000000	0.007558
3594.000000	0.007583
3593.000000	0.007607
3592.000000	0.007631
3591.000000	0.007653
3590.000000	0.007673
3589.000000	0.007690
3588.000000	0.007706
3587.000000	0.007726
3586.000000	0.007758
3585.000000	0.007799
3584.000000	0.007842
3583.000000	0.007883
3582.000000	0.007921
3581.000000	0.007955
3580.000000	0.007988
3579.000000	0.008019
3578.000000	0.008049
3577.000000	0.008074
3576.000000	0.008096
3575.000000	0.008116
3574.000000	0.008139
3573.000000	0.008166
3572.000000	0.008198
3571.000000	0.008228
3570.000000	0.008253
3569.000000	0.008272
3568.000000	0.008286
3567.000000	0.008300
3566.000000	0.008317
3565.000000	0.008341
3564.000000	0.008375
3563.000000	0.008420
3562.000000	0.008478
3561.000000	0.008542
3560.000000	0.008606
3559.000000	0.008658
3558.000000	0.008697
3557.000000	0.008725
3556.000000	0.008750
3555.000000	0.008776
3554.000000	0.008805
3553.000000	0.008837
3552.000000	0.008870
3551.000000	0.008904
3550.000000	0.008938
3549.000000	0.008973
3548.000000	0.009010
3547.000000	0.009045
3546.000000	0.009078
3545.000000	0.009110
3544.000000	0.009143
3543.000000	0.009180
3542.000000	0.009218
3541.000000	0.009256
3540.000000	0.009291
3539.000000	0.009328
3538.000000	0.009365
3537.000000	0.009403
3536.000000	0.009439
3535.000000	0.009475
3534.000000	0.009510
3533.000000	0.009545
3532.000000	0.009578
3531.000000	0.009608
3530.000000	0.009637
3529.000000	0.009666
3528.000000	0.009696
3527.000000	0.009728
3526.000000	0.009763
3525.000000	0.009802
3524.000000	0.009842
3523.000000	0.009880
3522.000000	0.009914
3521.000000	0.009945
3520.000000	0.009976
3519.000000	0.010010
3518.000000	0.010046
3517.000000	0.010082
3516.000000	0.010115
3515.000000	0.010148
3514.000000	0.010183
3513.000000	0.010216
3512.000000	0.010245
3511.000000	0.010270
3510.000000	0.010295
3509.000000	0.010325
3508.000000	0.010360
3507.000000	0.010401
3506.000000	0.010446
3505.000000	0.010490
3504.000000	0.010529
3503.000000	0.010561
3502.000000	0.010589
3501.000000	0.010620
3500.000000	0.010654
3499.000000	0.010689
3498.000000	0.010722
3497.000000	0.010753
3496.000000	0.010785
3495.000000	0.010820
3494.000000	0.010859
3493.000000	0.010902
3492.000000	0.010947
3491.000000	0.010993
3490.000000	0.011038
3489.000000	0.011081
3488.000000	0.011120
3487.000000	0.011158
3486.000000	0.011196
3485.000000	0.011235
3484.000000	0.011272
3483.000000	0.011305
3482.000000	0.011334
3481.000000	0.011360
3480.000000	0.011386
3479.000000	0.011417
3478.000000	0.011456
3477.000000	0.011504
3476.000000	0.011555
3475.000000	0.011604
3474.000000	0.011645
3473.000000	0.011680
3472.000000	0.011717
3471.000000	0.011758
3470.000000	0.011804
3469.000000	0.011845
3468.000000	0.011877
3467.000000	0.011899
3466.000000	0.011919
3465.000000	0.011945
3464.000000	0.011980
3463.000000	0.012021
3462.000000	0.012066
3461.000000	0.012111
3460.000000	0.012150
3459.000000	0.012184
3458.000000	0.012216
3457.000000	0.012247
3456.000000	0.012278
3455.000000	0.012310
3454.000000	0.012348
3453.000000	0.012394
3452.000000	0.012445
3451.000000	0.012494
3450.000000	0.012535
3449.000000	0.012568
3448.000000	0.012591
3447.000000	0.012612
3446.000000	0.012635
3445.000000	0.012665
3444.000000	0.012704
3443.000000	0.012749
3442.000000	0.012800
3441.000000	0.012855
3440.000000	0.012906
3439.000000	0.012950
3438.000000	0.012988
3437.000000	0.013023
3436.000000	0.013059
3435.000000	0.013097
3434.000000	0.013134
3433.000000	0.013171
3432.000000	0.013208
3431.000000	0.013242
3430.000000	0.013271
3429.000000	0.013296
3428.000000	0.013324
3427.000000	0.013356
3426.000000	0.013394
3425.000000	0.013437
3424.000000	0.013481
3423.000000	0.013526
3422.000000	0.013570
3421.000000	0.013613
3420.000000	0.013651
3419.000000	0.013682
3418.000000	0.013707
3417.000000	0.013734
3416.000000	0.013768
3415.000000	0.013812
3414.000000	0.013860
3413.000000	0.013907
3412.000000	0.013950
3411.000000	0.013991
3410.000000	0.014028
3409.000000	0.014060
3408.000000	0.014087
3407.000000	0.014114
3406.000000	0.014148
3405.000000	0.014190
3404.000000	0.014236
3403.000000	0.014280
3402.000000	0.014318
3401.000000	0.014351
3400.000000	0.014382
3399.000000	0.014415
3398.000000	0.014453
3397.000000	0.014494
3396.000000	0.014534
3395.000000	0.014567
3394.000000	0.014591
3393.000000	0.014611
3392.000000	0.014633
3391.000000	0.014659
3390.000000	0.014693
3389.000000	0.014733
3388.000000	0.014776
3387.000000	0.014819
3386.000000	0.014859
3385.000000	0.014896
3384.000000	0.014931
3383.000000	0.014966
3382.000000	0.015002
3381.000000	0.015040
3380.000000	0.015081
3379.000000	0.015124
3378.000000	0.015170
3377.000000	0.015215
3376.000000	0.015259
3375.000000	0.015301
3374.000000	0.015342
3373.000000	0.015384
3372.000000	0.015429
3371.000000	0.015476
3370.000000	0.015524
3369.000000	0.015571
3368.000000	0.015614
3367.000000	0.015658
3366.000000	0.015708
3365.000000	0.015764
3364.000000	0.015822
3363.000000	0.015876
3362.000000	0.015926
3361.000000	0.015975
3360.000000	0.016026
3359.000000	0.016078
3358.000000	0.016133
3357.000000	0.016191
3356.000000	0.016251
3355.000000	0.016311
3354.000000	0.016367
3353.000000	0.016420
3352.000000	0.016472
3351.000000	0.016528
3350.000000	0.016591
3349.000000	0.016661
3348.000000	0.016735
3347.000000	0.016806
3346.000000	0.016872
3345.000000	0.016933
3344.000000	0.016992
3343.000000	0.017050
3342.000000	0.017110
3341.000000	0.017177
3340.000000	0.017250
3339.000000	0.017331
3338.000000	0.017414
3337.000000	0.017496
3336.000000	0.017575
3335.000000	0.017655
3334.000000	0.017740
3333.000000	0.017831
3332.000000	0.017923
3331.000000	0.018015
3330.000000	0.018106
3329.000000	0.018196
3328.000000	0.018284
3327.000000	0.018371
3326.000000	0.018460
3325.000000	0.018554
3324.000000	0.018655
3323.000000	0.018761
3322.000000	0.018870
3321.000000	0.018983
3320.000000	0.019101
3319.000000	0.019223
3318.000000	0.019347
3317.000000	0.019470
3316.000000	0.019591
3315.000000	0.019710
3314.000000	0.019828
3313.000000	0.019947
3312.000000	0.020067
3311.000000	0.020184
3310.000000	0.020301
3309.000000	0.020420
3308.000000	0.020547
3307.000000	0.020686
3306.000000	0.020837
3305.000000	0.020996
3304.000000	0.021156
3303.000000	0.021313
3302.000000	0.021464
3301.000000	0.021612
3300.000000	0.021757
3299.000000	0.021898
3298.000000	0.022038
3297.000000	0.022183
3296.000000	0.022334
3295.000000	0.022487
3294.000000	0.022638
3293.000000	0.022786
3292.000000	0.022932
3291.000000	0.023077
3290.000000	0.023221
3289.000000	0.023362
3288.000000	0.023502
3287.000000	0.023640
3286.000000	0.023776
3285.000000	0.023904
3284.000000	0.024022
3283.000000	0.024127
3282.000000	0.024222
3281.000000	0.024310
3280.000000	0.024395
3279.000000	0.024473
3278.000000	0.024542
3277.000000	0.024601
3276.000000	0.024649
3275.000000	0.024684
3274.000000	0.024703
3273.000000	0.024704
3272.000000	0.024694
3271.000000	0.024682
3270.000000	0.024675
3269.000000	0.024664
3268.000000	0.024642
3267.000000	0.024603
3266.000000	0.024552
3265.000000	0.024491
3264.000000	0.024420
3263.000000	0.024335
3262.000000	0.024233
3261.000000	0.024116
3260.000000	0.023991
3259.000000	0.023863
3258.000000	0.023740
3257.000000	0.023622
3256.000000	0.023508
3255.000000	0.023394
3254.000000	0.023275
3253.000000	0.023151
3252.000000	0.023023
3251.000000	0.022893
3250.000000	0.022764
3249.000000	0.022638
3248.000000	0.022518
3247.000000	0.022405
3246.000000	0.022296
3245.000000	0.022186
3244.000000	0.022068
3243.000000	0.021941
3242.000000	0.021811
3241.000000	0.021687
3240.000000	0.021573
3239.000000	0.021468
3238.000000	0.021365
3237.000000	0.021260
3236.000000	0.021151
3235.000000	0.021043
3234.000000	0.020944
3233.000000	0.020855
3232.000000	0.020774
3231.000000	0.020698
3230.000000	0.020623
3229.000000	0.020550
3228.000000	0.020477
3227.000000	0.020404
3226.000000	0.020330
3225.000000	0.020256
3224.000000	0.020181
3223.000000	0.020107
3222.000000	0.020033
3221.000000	0.019959
3220.000000	0.019887
3219.000000	0.019818
3218.000000	0.019756
3217.000000	0.019698
3216.000000	0.019643
3215.000000	0.019591
3214.000000	0.019542
3213.000000	0.019495
3212.000000	0.019443
3211.000000	0.019381
3210.000000	0.019310
3209.000000	0.019234
3208.000000	0.019161
3207.000000	0.019096
3206.000000	0.019041
3205.000000	0.018994
3204.000000	0.018951
3203.000000	0.018910
3202.000000	0.018867
3201.000000	0.018821
3200.000000	0.018771
3199.000000	0.018718
3198.000000	0.018662
3197.000000	0.018604
3196.000000	0.018542
3195.000000	0.018477
3194.000000	0.018411
3193.000000	0.018348
3192.000000	0.018292
3191.000000	0.018240
3190.000000	0.018188
3189.000000	0.018133
3188.000000	0.018076
3187.000000	0.018019
3186.000000	0.017963
3185.000000	0.017901
3184.000000	0.017832
3183.000000	0.017759
3182.000000	0.017689
3181.000000	0.017630
3180.000000	0.017578
3179.000000	0.017530
3178.000000	0.017478
3177.000000	0.017420
3176.000000	0.017359
3175.000000	0.017298
3174.000000	0.017240
3173.000000	0.017182
3172.000000	0.017120
3171.000000	0.017055
3170.000000	0.016987
3169.000000	0.016918
3168.000000	0.016849
3167.000000	0.016780
3166.000000	0.016710
3165.000000	0.016641
3164.000000	0.016573
3163.000000	0.016508
3162.000000	0.016447
3161.000000	0.016386
3160.000000	0.016322
3159.000000	0.016256
3158.000000	0.016197
3157.000000	0.016149
3156.000000	0.016108
3155.000000	0.016064
3154.000000	0.016010
3153.000000	0.015948
3152.000000	0.015883
3151.000000	0.015820
3150.000000	0.015760
3149.000000	0.015704
3148.000000	0.015650
3147.000000	0.015599
3146.000000	0.015548
3145.000000	0.015498
3144.000000	0.015450
3143.000000	0.015401
3142.000000	0.015350
3141.000000	0.015294
3140.000000	0.015237
3139.000000	0.015181
3138.000000	0.015129
3137.000000	0.015082
3136.000000	0.015038
3135.000000	0.014997
3134.000000	0.014957
3133.000000	0.014915
3132.000000	0.014867
3131.000000	0.014816
3130.000000	0.014766
3129.000000	0.014724
3128.000000	0.014690
3127.000000	0.014660
3126.000000	0.014629
3125.000000	0.014596
3124.000000	0.014559
3123.000000	0.014522
3122.000000	0.014485
3121.000000	0.014453
3120.000000	0.014425
3119.000000	0.014399
3118.000000	0.014374
3117.000000	0.014351
3116.000000	0.014333
3115.000000	0.014319
3114.000000	0.014305
3113.000000	0.014288
3112.000000	0.014264
3111.000000	0.014237
3110.000000	0.014210
3109.000000	0.014190
3108.000000	0.014180
3107.000000	0.014178
3106.000000	0.014178
3105.000000	0.014175
3104.000000	0.014168
3103.000000	0.014156
3102.000000	0.014143
3101.000000	0.014136
3100.000000	0.014138
3099.000000	0.014147
3098.000000	0.014157
3097.000000	0.014163
3096.000000	0.014165
3095.000000	0.014162
3094.000000	0.014155
3093.000000	0.014147
3092.000000	0.014144
3091.000000	0.014152
3090.000000	0.014168
3089.000000	0.014182
3088.000000	0.014184
3087.000000	0.014171
3086.000000	0.014151
3085.000000	0.014134
3084.000000	0.014126
3083.000000	0.014125
3082.000000	0.014128
3081.000000	0.014130
3080.000000	0.014129
3079.000000	0.014131
3078.000000	0.014137
3077.000000	0.014148
3076.000000	0.014158
3075.000000	0.014162
3074.000000	0.014159
3073.000000	0.014154
3072.000000	0.014151
3071.000000	0.014151
3070.000000	0.014149
3069.000000	0.014142
3068.000000	0.014130
3067.000000	0.014117
3066.000000	0.014104
3065.000000	0.014092
3064.000000	0.014085
3063.000000	0.014084
3062.000000	0.014088
3061.000000	0.014090
3060.000000	0.014080
3059.000000	0.014054
3058.000000	0.014016
3057.000000	0.013975
3056.000000	0.013936
3055.000000	0.013902
3054.000000	0.013867
3053.000000	0.013829
3052.000000	0.013788
3051.000000	0.013751
3050.000000	0.013720
3049.000000	0.013693
3048.000000	0.013661
3047.000000	0.013621
3046.000000	0.013576
3045.000000	0.013531
3044.000000	0.013486
3043.000000	0.013444
3042.000000	0.013407
3041.000000	0.013378
3040.000000	0.013352
3039.000000	0.013323
3038.000000	0.013286
3037.000000	0.013238
3036.000000	0.013187
3035.000000	0.013141
3034.000000	0.013106
3033.000000	0.013079
3032.000000	0.013058
3031.000000	0.013040
3030.000000	0.013023
3029.000000	0.013001
3028.000000	0.012968
3027.000000	0.012922
3026.000000	0.012869
3025.000000	0.012817
3024.000000	0.012769
3023.000000	0.012724
3022.000000	0.012679
3021.000000	0.012632
3020.000000	0.012586
3019.000000	0.012541
3018.000000	0.012498
3017.000000	0.012455
3016.000000	0.012415
3015.000000	0.012381
3014.000000	0.012352
3013.000000	0.012327
3012.000000	0.012301
3011.000000	0.012278
3010.000000	0.012264
3009.000000	0.012257
3008.000000	0.012250
3007.000000	0.012236
3006.000000	0.012215
3005.000000	0.012193
3004.000000	0.012179
3003.000000	0.012174
3002.000000	0.012175
3001.000000	0.012173
3000.000000	0.012164
2999.000000	0.012155
2998.000000	0.012150
2997.000000	0.012152
2996.000000	0.012154
2995.000000	0.012154
2994.000000	0.012158
2993.000000	0.012174
2992.000000	0.012203
2991.000000	0.012240
2990.000000	0.012280
2989.000000	0.012320
2988.000000	0.012358
2987.000000	0.012392
2986.000000	0.012422
2985.000000	0.012449
2984.000000	0.012477
2983.000000	0.012509
2982.000000	0.012547
2981.000000	0.012589
2980.000000	0.012629
2979.000000	0.012664
2978.000000	0.012697
2977.000000	0.012734
2976.000000	0.012777
2975.000000	0.012822
2974.000000	0.012865
2973.000000	0.012903
2972.000000	0.012933
2971.000000	0.012958
2970.000000	0.012975
2969.000000	0.012984
2968.000000	0.012984
2967.000000	0.012981
2966.000000	0.012980
2965.000000	0.012982
2964.000000	0.012979
2963.000000	0.012967
2962.000000	0.012948
2961.000000	0.012925
2960.000000	0.012900
2959.000000	0.012873
2958.000000	0.012846
2957.000000	0.012822
2956.000000	0.012803
2955.000000	0.012786
2954.000000	0.012772
2953.000000	0.012764
2952.000000	0.012762
2951.000000	0.012762
2950.000000	0.012761
2949.000000	0.012757
2948.000000	0.012752
2947.000000	0.012750
2946.000000	0.012753
2945.000000	0.012766
2944.000000	0.012789
2943.000000	0.012818
2942.000000	0.012849
2941.000000	0.012871
2940.000000	0.012882
2939.000000	0.012886
2938.000000	0.012888
2937.000000	0.012891
2936.000000	0.012890
2935.000000	0.012878
2934.000000	0.012849
2933.000000	0.012804
2932.000000	0.012746
2931.000000	0.012679
2930.000000	0.012605
2929.000000	0.012521
2928.000000	0.012424
2927.000000	0.012313
2926.000000	0.012192
2925.000000	0.012062
2924.000000	0.011921
2923.000000	0.011767
2922.000000	0.011601
2921.000000	0.011426
2920.000000	0.011247
2919.000000	0.011072
2918.000000	0.010921
2917.000000	0.010818
2916.000000	0.010783
2915.000000	0.010824
2914.000000	0.010931
2913.000000	0.011079
2912.000000	0.011235
2911.000000	0.011371
2910.000000	0.011474
2909.000000	0.011545
2908.000000	0.011588
2907.000000	0.011611
2906.000000	0.011622
2905.000000	0.011628
2904.000000	0.011633
2903.000000	0.011634
2902.000000	0.011630
2901.000000	0.011621
2900.000000	0.011611
2899.000000	0.011606
2898.000000	0.011610
2897.000000	0.011619
2896.000000	0.011630
2895.000000	0.011638
2894.000000	0.011643
2893.000000	0.011646
2892.000000	0.011649
2891.000000	0.011654
2890.000000	0.011665
2889.000000	0.011684
2888.000000	0.011707
2887.000000	0.011733
2886.000000	0.011760
2885.000000	0.011789
2884.000000	0.011819
2883.000000	0.011852
2882.000000	0.011886
2881.000000	0.011919
2880.000000	0.011949
2879.000000	0.011974
2878.000000	0.011995
2877.000000	0.012013
2876.000000	0.012025
2875.000000	0.012028
2874.000000	0.012020
2873.000000	0.012007
2872.000000	0.011989
2871.000000	0.011966
2870.000000	0.011931
2869.000000	0.011882
2868.000000	0.011817
2867.000000	0.011744
2866.000000	0.011672
2865.000000	0.011604
2864.000000	0.011538
2863.000000	0.011469
2862.000000	0.011397
2861.000000	0.011325
2860.000000	0.011254
2859.000000	0.011183
2858.000000	0.011106
2857.000000	0.011016
2856.000000	0.010910
2855.000000	0.010784
2854.000000	0.010638
2853.000000	0.010476
2852.000000	0.010307
2851.000000	0.010155
2850.000000	0.010047
2849.000000	0.010010
2848.000000	0.010054
2847.000000	0.010166
2846.000000	0.010313
2845.000000	0.010459
2844.000000	0.010574
2843.000000	0.010648
2842.000000	0.010688
2841.000000	0.010707
2840.000000	0.010714
2839.000000	0.010717
2838.000000	0.010720
2837.000000	0.010725
2836.000000	0.010729
2835.000000	0.010730
2834.000000	0.010721
2833.000000	0.010704
2832.000000	0.010682
2831.000000	0.010662
2830.000000	0.010645
2829.000000	0.010630
2828.000000	0.010613
2827.000000	0.010593
2826.000000	0.010577
2825.000000	0.010566
2824.000000	0.010558
2823.000000	0.010548
2822.000000	0.010533
2821.000000	0.010519
2820.000000	0.010509
2819.000000	0.010502
2818.000000	0.010499
2817.000000	0.010497
2816.000000	0.010492
2815.000000	0.010485
2814.000000	0.010475
2813.000000	0.010465
2812.000000	0.010453
2811.000000	0.010438
2810.000000	0.010420
2809.000000	0.010403
2808.000000	0.010391
2807.000000	0.010382
2806.000000	0.010370
2805.000000	0.010356
2804.000000	0.010338
2803.000000	0.010323
2802.000000	0.010313
2801.000000	0.010308
2800.000000	0.010302
2799.000000	0.010291
2798.000000	0.010276
2797.000000	0.010263
2796.000000	0.010255
2795.000000	0.010251
2794.000000	0.010248
2793.000000	0.010243
2792.000000	0.010237
2791.000000	0.010230
2790.000000	0.010221
2789.000000	0.010209
2788.000000	0.010195
2787.000000	0.010179
2786.000000	0.010164
2785.000000	0.010152
2784.000000	0.010143
2783.000000	0.010136
2782.000000	0.010128
2781.000000	0.010117
2780.000000	0.010103
2779.000000	0.010087
2778.000000	0.010071
2777.000000	0.010057
2776.000000	0.010044
2775.000000	0.010033
2774.000000	0.010023
2773.000000	0.010015
2772.000000	0.010008
2771.000000	0.010004
2770.000000	0.010001
2769.000000	0.009995
2768.000000	0.009984
2767.000000	0.009969
2766.000000	0.009957
2765.000000	0.009948
2764.000000	0.009940
2763.000000	0.009930
2762.000000	0.009918
2761.000000	0.009905
2760.000000	0.009891
2759.000000	0.009875
2758.000000	0.009860
2757.000000	0.009848
2756.000000	0.009840
2755.000000	0.009831
2754.000000	0.009820
2753.000000	0.009807
2752.000000	0.009793
2751.000000	0.009780
2750.000000	0.009769
2749.000000	0.009757
2748.000000	0.009743
2747.000000	0.009730
2746.000000	0.009718
2745.000000	0.009709
2744.000000	0.009701
2743.000000	0.009693
2742.000000	0.009686
2741.000000	0.009677
2740.000000	0.009666
2739.000000	0.009652
2738.000000	0.009640
2737.000000	0.009633
2736.000000	0.009628
2735.000000	0.009620
2734.000000	0.009607
2733.000000	0.009592
2732.000000	0.009578
2731.000000	0.009565
2730.000000	0.009555
2729.000000	0.009545
2728.000000	0.009531
2727.000000	0.009515
2726.000000	0.009498
2725.000000	0.009484
2724.000000	0.009473
2723.000000	0.009466
2722.000000	0.009464
2721.000000	0.009463
2720.000000	0.009461
2719.000000	0.009453
2718.000000	0.009441
2717.000000	0.009428
2716.000000	0.009416
2715.000000	0.009403
2714.000000	0.009387
2713.000000	0.009373
2712.000000	0.009361
2711.000000	0.009350
2710.000000	0.009340
2709.000000	0.009326
2708.000000	0.009311
2707.000000	0.009297
2706.000000	0.009289
2705.000000	0.009285
2704.000000	0.009282
2703.000000	0.009275
2702.000000	0.009265
2701.000000	0.009253
2700.000000	0.009241
2699.000000	0.009229
2698.000000	0.009216
2697.000000	0.009202
2696.000000	0.009190
2695.000000	0.009182
2694.000000	0.009177
2693.000000	0.009176
2692.000000	0.009172
2691.000000	0.009164
2690.000000	0.009152
2689.000000	0.009137
2688.000000	0.009122
2687.000000	0.009108
2686.000000	0.009099
2685.000000	0.009096
2684.000000	0.009096
2683.000000	0.009094
2682.000000	0.009089
2681.000000	0.009080
2680.000000	0.009066
2679.000000	0.009052
2678.000000	0.009041
2677.000000	0.009036
2676.000000	0.009033
2675.000000	0.009027
2674.000000	0.009020
2673.000000	0.009015
2672.000000	0.009014
2671.000000	0.009014
2670.000000	0.009014
2669.000000	0.009014
2668.000000	0.009021
2667.000000	0.009039
2666.000000	0.009069
2665.000000	0.009106
2664.000000	0.009142
2663.000000	0.009172
2662.000000	0.009198
2661.000000	0.009225
2660.000000	0.009250
2659.000000	0.009269
2658.000000	0.009279
2657.000000	0.009281
2656.000000	0.009278
2655.000000	0.009271
2654.000000	0.009266
2653.000000	0.009264
2652.000000	0.009266
2651.000000	0.009267
2650.000000	0.009265
2649.000000	0.009259
2648.000000	0.009252
2647.000000	0.009244
2646.000000	0.009234
2645.000000	0.009220
2644.000000	0.009202
2643.000000	0.009182
2642.000000	0.009163
2641.000000	0.009149
2640.000000	0.009136
2639.000000	0.009124
2638.000000	0.009111
2637.000000	0.009100
2636.000000	0.009090
2635.000000	0.009082
2634.000000	0.009074
2633.000000	0.009063
2632.000000	0.009047
2631.000000	0.009030
2630.000000	0.009017
2629.000000	0.009009
2628.000000	0.008997
2627.000000	0.008980
2626.000000	0.008960
2625.000000	0.008945
2624.000000	0.008937
2623.000000	0.008932
2622.000000	0.008928
2621.000000	0.008920
2620.000000	0.008907
2619.000000	0.008887
2618.000000	0.008863
2617.000000	0.008842
2616.000000	0.008828
2615.000000	0.008816
2614.000000	0.008804
2613.000000	0.008788
2612.000000	0.008767
2611.000000	0.008742
2610.000000	0.008722
2609.000000	0.008711
2608.000000	0.008708
2607.000000	0.008705
2606.000000	0.008700
2605.000000	0.008692
2604.000000	0.008681
2603.000000	0.008662
2602.000000	0.008638
2601.000000	0.008615
2600.000000	0.008599
2599.000000	0.008589
2598.000000	0.008584
2597.000000	0.008580
2596.000000	0.008573
2595.000000	0.008559
2594.000000	0.008539
2593.000000	0.008517
2592.000000	0.008496
2591.000000	0.008478
2590.000000	0.008467
2589.000000	0.008460
2588.000000	0.008452
2587.000000	0.008434
2586.000000	0.008408
2585.000000	0.008382
2584.000000	0.008366
2583.000000	0.008360
2582.000000	0.008355
2581.000000	0.008345
2580.000000	0.008327
2579.000000	0.008306
2578.000000	0.008290
2577.000000	0.008281
2576.000000	0.008275
2575.000000	0.008267
2574.000000	0.008257
2573.000000	0.008247
2572.000000	0.008236
2571.000000	0.008223
2570.000000	0.008209
2569.000000	0.008194
2568.000000	0.008178
2567.000000	0.008161
2566.000000	0.008147
2565.000000	0.008138
2564.000000	0.008134
2563.000000	0.008134
2562.000000	0.008138
2561.000000	0.008144
2560.000000	0.008146
2559.000000	0.008138
2558.000000	0.008123
2557.000000	0.008107
2556.000000	0.008095
2555.000000	0.008080
2554.000000	0.008061
2553.000000	0.008042
2552.000000	0.008028
2551.000000	0.008022
2550.000000	0.008023
2549.000000	0.008030
2548.000000	0.008039
2547.000000	0.008042
2546.000000	0.008037
2545.000000	0.008029
2544.000000	0.008020
2543.000000	0.008011
2542.000000	0.007996
2541.000000	0.007973
2540.000000	0.007942
2539.000000	0.007911
2538.000000	0.007893
2537.000000	0.007893
2536.000000	0.007901
2535.000000	0.007906
2534.000000	0.007901
2533.000000	0.007892
2532.000000	0.007878
2531.000000	0.007859
2530.000000	0.007834
2529.000000	0.007812
2528.000000	0.007802
2527.000000	0.007811
2526.000000	0.007834
2525.000000	0.007858
2524.000000	0.007869
2523.000000	0.007861
2522.000000	0.007843
2521.000000	0.007827
2520.000000	0.007815
2519.000000	0.007805
2518.000000	0.007798
2517.000000	0.007794
2516.000000	0.007789
2515.000000	0.007778
2514.000000	0.007763
2513.000000	0.007752
2512.000000	0.007746
2511.000000	0.007743
2510.000000	0.007739
2509.000000	0.007735
2508.000000	0.007734
2507.000000	0.007739
2506.000000	0.007747
2505.000000	0.007751
2504.000000	0.007747
2503.000000	0.007738
2502.000000	0.007728
2501.000000	0.007722
2500.000000	0.007719
2499.000000	0.007716
2498.000000	0.007714
2497.000000	0.007711
2496.000000	0.007703
2495.000000	0.007689
2494.000000	0.007671
2493.000000	0.007651
2492.000000	0.007634
2491.000000	0.007625
2490.000000	0.007625
2489.000000	0.007632
2488.000000	0.007633
2487.000000	0.007623
2486.000000	0.007604
2485.000000	0.007585
2484.000000	0.007573
2483.000000	0.007571
2482.000000	0.007576
2481.000000	0.007582
2480.000000	0.007580
2479.000000	0.007570
2478.000000	0.007560
2477.000000	0.007558
2476.000000	0.007560
2475.000000	0.007561
2474.000000	0.007559
2473.000000	0.007559
2472.000000	0.007560
2471.000000	0.007565
2470.000000	0.007574
2469.000000	0.007586
2468.000000	0.007592
2467.000000	0.007589
2466.000000	0.007582
2465.000000	0.007579
2464.000000	0.007579
2463.000000	0.007581
2462.000000	0.007586
2461.000000	0.007594
2460.000000	0.007603
2459.000000	0.007614
2458.000000	0.007633
2457.000000	0.007656
2456.000000	0.007672
2455.000000	0.007670
2454.000000	0.007653
2453.000000	0.007634
2452.000000	0.007616
2451.000000	0.007596
2450.000000	0.007573
2449.000000	0.007550
2448.000000	0.007530
2447.000000	0.007511
2446.000000	0.007494
2445.000000	0.007482
2444.000000	0.007472
2443.000000	0.007458
2442.000000	0.007444
2441.000000	0.007435
2440.000000	0.007428
2439.000000	0.007418
2438.000000	0.007405
2437.000000	0.007393
2436.000000	0.007382
2435.000000	0.007364
2434.000000	0.007342
2433.000000	0.007325
2432.000000	0.007317
2431.000000	0.007314
2430.000000	0.007309
2429.000000	0.007297
2428.000000	0.007277
2427.000000	0.007259
2426.000000	0.007251
2425.000000	0.007257
2424.000000	0.007264
2423.000000	0.007260
2422.000000	0.007242
2421.000000	0.007222
2420.000000	0.007205
2419.000000	0.007188
2418.000000	0.007171
2417.000000	0.007160
2416.000000	0.007159
2415.000000	0.007161
2414.000000	0.007162
2413.000000	0.007161
2412.000000	0.007162
2411.000000	0.007162
2410.000000	0.007149
2409.000000	0.007116
2408.000000	0.007065
2407.000000	0.007013
2406.000000	0.006980
2405.000000	0.006974
2404.000000	0.006982
2403.000000	0.006989
2402.000000	0.006988
2401.000000	0.006984
2400.000000	0.006977
2399.000000	0.006966
2398.000000	0.006955
2397.000000	0.006948
2396.000000	0.006945
2395.000000	0.006941
2394.000000	0.006935
2393.000000	0.006933
2392.000000	0.006936
2391.000000	0.006939
2390.000000	0.006934
2389.000000	0.006919
2388.000000	0.006899
2387.000000	0.006877
2386.000000	0.006855
2385.000000	0.006826
2384.000000	0.006787
2383.000000	0.006740
2382.000000	0.006694
2381.000000	0.006658
2380.000000	0.006634
2379.000000	0.006621
2378.000000	0.006617
2377.000000	0.006622
2376.000000	0.006633
2375.000000	0.006644
2374.000000	0.006650
2373.000000	0.006650
2372.000000	0.006638
2371.000000	0.006616
2370.000000	0.006591
2369.000000	0.006571
2368.000000	0.006553
2367.000000	0.006534
2366.000000	0.006521
2365.000000	0.006522
2364.000000	0.006537
2363.000000	0.006558
2362.000000	0.006576
2361.000000	0.006591
2360.000000	0.006600
2359.000000	0.006605
2358.000000	0.006612
2357.000000	0.006623
2356.000000	0.006636
2355.000000	0.006636
2354.000000	0.006610
2353.000000	0.006564
2352.000000	0.006531
2351.000000	0.006546
2350.000000	0.006609
2349.000000	0.006697
2348.000000	0.006773
2347.000000	0.006801
2346.000000	0.006783
2345.000000	0.006764
2344.000000	0.006784
2343.000000	0.006828
2342.000000	0.006870
2341.000000	0.006902
2340.000000	0.006922
2339.000000	0.006930
2338.000000	0.006931
2337.000000	0.006936
2336.000000	0.006947
2335.000000	0.006954
2334.000000	0.006944
2333.000000	0.006917
2332.000000	0.006882
2331.000000	0.006869
2330.000000	0.006927
2329.000000	0.007113
2328.000000	0.007436
2327.000000	0.007823
2326.000000	0.008141
2325.000000	0.008274
2324.000000	0.008206
2323.000000	0.008015
2322.000000	0.007809
2321.000000	0.007657
2320.000000	0.007566
2319.000000	0.007523
2318.000000	0.007508
2317.000000	0.007502
2316.000000	0.007482
2315.000000	0.007441
2314.000000	0.007388
2313.000000	0.007338
2312.000000	0.007296
2311.000000	0.007260
2310.000000	0.007229
2309.000000	0.007209
2308.000000	0.007204
2307.000000	0.007213
2306.000000	0.007232
2305.000000	0.007257
2304.000000	0.007281
2303.000000	0.007301
2302.000000	0.007317
2301.000000	0.007331
2300.000000	0.007347
2299.000000	0.007367
2298.000000	0.007395
2297.000000	0.007434
2296.000000	0.007482
2295.000000	0.007544
2294.000000	0.007623
2293.000000	0.007713
2292.000000	0.007792
2291.000000	0.007849
2290.000000	0.007887
2289.000000	0.007912
2288.000000	0.007922
2287.000000	0.007911
2286.000000	0.007883
2285.000000	0.007844
2284.000000	0.007795
2283.000000	0.007734
2282.000000	0.007667
2281.000000	0.007606
2280.000000	0.007554
2279.000000	0.007514
2278.000000	0.007486
2277.000000	0.007466
2276.000000	0.007440
2275.000000	0.007405
2274.000000	0.007372
2273.000000	0.007354
2272.000000	0.007345
2271.000000	0.007332
2270.000000	0.007308
2269.000000	0.007272
2268.000000	0.007215
2267.000000	0.007141
2266.000000	0.007077
2265.000000	0.007054
2264.000000	0.007073
2263.000000	0.007108
2262.000000	0.007141
2261.000000	0.007169
2260.000000	0.007190
2259.000000	0.007191
2258.000000	0.007155
2257.000000	0.007082
2256.000000	0.006988
2255.000000	0.006903
2254.000000	0.006858
2253.000000	0.006860
2252.000000	0.006883
2251.000000	0.006898
2250.000000	0.006902
2249.000000	0.006904
2248.000000	0.006910
2247.000000	0.006914
2246.000000	0.006919
2245.000000	0.006932
2244.000000	0.006953
2243.000000	0.006977
2242.000000	0.006998
2241.000000	0.007010
2240.000000	0.007000
2239.000000	0.006972
2238.000000	0.006950
2237.000000	0.006958
2236.000000	0.006983
2235.000000	0.006997
2234.000000	0.006991
2233.000000	0.006974
2232.000000	0.006952
2231.000000	0.006922
2230.000000	0.006892
2229.000000	0.006874
2228.000000	0.006869
2227.000000	0.006867
2226.000000	0.006872
2225.000000	0.006892
2224.000000	0.006916
2223.000000	0.006919
2222.000000	0.006892
2221.000000	0.006843
2220.000000	0.006784
2219.000000	0.006733
2218.000000	0.006717
2217.000000	0.006746
2216.000000	0.006796
2215.000000	0.006830
2214.000000	0.006838
2213.000000	0.006835
2212.000000	0.006818
2211.000000	0.006775
2210.000000	0.006716
2209.000000	0.006677
2208.000000	0.006681
2207.000000	0.006715
2206.000000	0.006756
2205.000000	0.006785
2204.000000	0.006796
2203.000000	0.006795
2202.000000	0.006797
2201.000000	0.006808
2200.000000	0.006821
2199.000000	0.006834
2198.000000	0.006866
2197.000000	0.006928
2196.000000	0.006992
2195.000000	0.007019
2194.000000	0.006997
2193.000000	0.006940
2192.000000	0.006870
2191.000000	0.006811
2190.000000	0.006801
2189.000000	0.006857
2188.000000	0.006934
2187.000000	0.006960
2186.000000	0.006887
2185.000000	0.006722
2184.000000	0.006502
2183.000000	0.006292
2182.000000	0.006169
2181.000000	0.006167
2180.000000	0.006231
2179.000000	0.006269
2178.000000	0.006244
2177.000000	0.006186
2176.000000	0.006146
2175.000000	0.006161
2174.000000	0.006252
2173.000000	0.006409
2172.000000	0.006590
2171.000000	0.006760
2170.000000	0.006924
2169.000000	0.007100
2168.000000	0.007262
2167.000000	0.007381
2166.000000	0.007482
2165.000000	0.007614
2164.000000	0.007732
2163.000000	0.007648
2162.000000	0.007138
2161.000000	0.006141
2160.000000	0.004897
2159.000000	0.003851
2158.000000	0.003338
2157.000000	0.003351
2156.000000	0.003635
2155.000000	0.003953
2154.000000	0.004225
2153.000000	0.004455
2152.000000	0.004630
2151.000000	0.004724
2150.000000	0.004749
2149.000000	0.004746
2148.000000	0.004742
2147.000000	0.004754
2146.000000	0.004801
2145.000000	0.004883
2144.000000	0.004961
2143.000000	0.004998
2142.000000	0.005000
2141.000000	0.004987
2140.000000	0.004959
2139.000000	0.004899
2138.000000	0.004799
2137.000000	0.004659
2136.000000	0.004489
2135.000000	0.004340
2134.000000	0.004291
2133.000000	0.004377
2132.000000	0.004539
2131.000000	0.004695
2130.000000	0.004816
2129.000000	0.004920
2128.000000	0.005024
2127.000000	0.005126
2126.000000	0.005231
2125.000000	0.005340
2124.000000	0.005435
2123.000000	0.005503
2122.000000	0.005563
2121.000000	0.005645
2120.000000	0.005747
2119.000000	0.005846
2118.000000	0.005936
2117.000000	0.006016
2116.000000	0.006071
2115.000000	0.006082
2114.000000	0.006065
2113.000000	0.006052
2112.000000	0.006054
2111.000000	0.006058
2110.000000	0.006060
2109.000000	0.006071
2108.000000	0.006086
2107.000000	0.006095
2106.000000	0.006098
2105.000000	0.006109
2104.000000	0.006121
2103.000000	0.006115
2102.000000	0.006092
2101.000000	0.006068
2100.000000	0.006041
2099.000000	0.005975
2098.000000	0.005850
2097.000000	0.005695
2096.000000	0.005562
2095.000000	0.005500
2094.000000	0.005528
2093.000000	0.005625
2092.000000	0.005740
2091.000000	0.005833
2090.000000	0.005903
2089.000000	0.005968
2088.000000	0.006033
2087.000000	0.006088
2086.000000	0.006132
2085.000000	0.006167
2084.000000	0.006185
2083.000000	0.006176
2082.000000	0.006155
2081.000000	0.006151
2080.000000	0.006168
2079.000000	0.006186
2078.000000	0.006188
2077.000000	0.006172
2076.000000	0.006137
2075.000000	0.006088
2074.000000	0.006038
2073.000000	0.006001
2072.000000	0.005971
2071.000000	0.005946
2070.000000	0.005940
2069.000000	0.005965
2068.000000	0.005991
2067.000000	0.005977
2066.000000	0.005929
2065.000000	0.005888
2064.000000	0.005878
2063.000000	0.005884
2062.000000	0.005891
2061.000000	0.005897
2060.000000	0.005915
2059.000000	0.005950
2058.000000	0.005992
2057.000000	0.006013
2056.000000	0.006008
2055.000000	0.006056
2054.000000	0.006267
2053.000000	0.006626
2052.000000	0.006934
2051.000000	0.006969
2050.000000	0.006709
2049.000000	0.006348
2048.000000	0.006085
2047.000000	0.005959
2046.000000	0.005918
2045.000000	0.005922
2044.000000	0.005947
2043.000000	0.005965
2042.000000	0.005970
2041.000000	0.005975
2040.000000	0.005980
2039.000000	0.005971
2038.000000	0.005949
2037.000000	0.005921
2036.000000	0.005859
2035.000000	0.005737
2034.000000	0.005587
2033.000000	0.005453
2032.000000	0.005324
2031.000000	0.005177
2030.000000	0.005059
2029.000000	0.005036
2028.000000	0.005069
2027.000000	0.005050
2026.000000	0.004947
2025.000000	0.004840
2024.000000	0.004796
2023.000000	0.004807
2022.000000	0.004840
2021.000000	0.004874
2020.000000	0.004879
2019.000000	0.004839
2018.000000	0.004794
2017.000000	0.004812
2016.000000	0.004895
2015.000000	0.004985
2014.000000	0.005048
2013.000000	0.005094
2012.000000	0.005125
2011.000000	0.005123
2010.000000	0.005077
2009.000000	0.004972
2008.000000	0.004788
2007.000000	0.004552
2006.000000	0.004367
2005.000000	0.004316
2004.000000	0.004379
2003.000000	0.004486
2002.000000	0.004613
2001.000000	0.004763
2000.000000	0.004898
1999.000000	0.004983
1998.000000	0.005048
1997.000000	0.005141
1996.000000	0.005235
1995.000000	0.005267
1994.000000	0.005244
1993.000000	0.005235
1992.000000	0.005271
1991.000000	0.005321
1990.000000	0.005372
1989.000000	0.005451
1988.000000	0.005554
1987.000000	0.005643
1986.000000	0.005708
1985.000000	0.005782
1984.000000	0.005889
1983.000000	0.006031
1982.000000	0.006186
1981.000000	0.006263
1980.000000	0.006107
1979.000000	0.005652
1978.000000	0.005073
1977.000000	0.004638
1976.000000	0.004420
1975.000000	0.004291
1974.000000	0.004164
1973.000000	0.004083
1972.000000	0.004094
1971.000000	0.004166
1970.000000	0.004252
1969.000000	0.004331
1968.000000	0.004375
1967.000000	0.004363
1966.000000	0.004332
1965.000000	0.004331
1964.000000	0.004338
1963.000000	0.004289
1962.000000	0.004180
1961.000000	0.004058
1960.000000	0.003949
1959.000000	0.003861
1958.000000	0.003839
1957.000000	0.003922
1956.000000	0.004061
1955.000000	0.004161
1954.000000	0.004192
1953.000000	0.004198
1952.000000	0.004214
1951.000000	0.004238
1950.000000	0.004266
1949.000000	0.004301
1948.000000	0.004309
1947.000000	0.004258
1946.000000	0.004181
1945.000000	0.004148
1944.000000	0.004170
1943.000000	0.004201
1942.000000	0.004211
1941.000000	0.004217
1940.000000	0.004223
1939.000000	0.004211
1938.000000	0.004193
1937.000000	0.004194
1936.000000	0.004211
1935.000000	0.004213
1934.000000	0.004201
1933.000000	0.004205
1932.000000	0.004226
1931.000000	0.004234
1930.000000	0.004221
1929.000000	0.004212
1928.000000	0.004214
1927.000000	0.004210
1926.000000	0.004200
1925.000000	0.004215
1924.000000	0.004271
1923.000000	0.004341
1922.000000	0.004395
1921.000000	0.004423
1920.000000	0.004427
1919.000000	0.004410
1918.000000	0.004394
1917.000000	0.004398
1916.000000	0.004413
1915.000000	0.004413
1914.000000	0.004394
1913.000000	0.004373
1912.000000	0.004352
1911.000000	0.004322
1910.000000	0.004296
1909.000000	0.004300
1908.000000	0.004331
1907.000000	0.004368
1906.000000	0.004400
1905.000000	0.004431
1904.000000	0.004450
1903.000000	0.004443
1902.000000	0.004423
1901.000000	0.004414
1900.000000	0.004411
1899.000000	0.004390
1898.000000	0.004360
1897.000000	0.004347
1896.000000	0.004355
1895.000000	0.004356
1894.000000	0.004345
1893.000000	0.004339
1892.000000	0.004343
1891.000000	0.004338
1890.000000	0.004321
1889.000000	0.004311
1888.000000	0.004316
1887.000000	0.004320
1886.000000	0.004325
1885.000000	0.004343
1884.000000	0.004366
1883.000000	0.004372
1882.000000	0.004361
1881.000000	0.004354
1880.000000	0.004351
1879.000000	0.004332
1878.000000	0.004300
1877.000000	0.004273
1876.000000	0.004262
1875.000000	0.004254
1874.000000	0.004246
1873.000000	0.004247
1872.000000	0.004250
1871.000000	0.004238
1870.000000	0.004218
1869.000000	0.004209
1868.000000	0.004218
1867.000000	0.004227
1866.000000	0.004234
1865.000000	0.004242
1864.000000	0.004246
1863.000000	0.004232
1862.000000	0.004212
1861.000000	0.004211
1860.000000	0.004224
1859.000000	0.004226
1858.000000	0.004214
1857.000000	0.004207
1856.000000	0.004207
1855.000000	0.004193
1854.000000	0.004166
1853.000000	0.004148
1852.000000	0.004143
1851.000000	0.004132
1850.000000	0.004112
1849.000000	0.004101
1848.000000	0.004094
1847.000000	0.004075
1846.000000	0.004054
1845.000000	0.004059
1844.000000	0.004079
1843.000000	0.004077
1842.000000	0.004060
1841.000000	0.004058
1840.000000	0.004074
1839.000000	0.004084
1838.000000	0.004079
1837.000000	0.004071
1836.000000	0.004069
1835.000000	0.004059
1834.000000	0.004037
1833.000000	0.004019
1832.000000	0.004016
1831.000000	0.004027
1830.000000	0.004039
1829.000000	0.004044
1828.000000	0.004040
1827.000000	0.004030
1826.000000	0.004033
1825.000000	0.004056
1824.000000	0.004076
1823.000000	0.004071
1822.000000	0.004048
1821.000000	0.004015
1820.000000	0.003960
1819.000000	0.003875
1818.000000	0.003792
1817.000000	0.003760
1816.000000	0.003784
1815.000000	0.003822
1814.000000	0.003853
1813.000000	0.003886
1812.000000	0.003929
1811.000000	0.003968
1810.000000	0.003993
1809.000000	0.004014
1808.000000	0.004033
1807.000000	0.004034
1806.000000	0.004018
1805.000000	0.004003
1804.000000	0.004001
1803.000000	0.004002
1802.000000	0.004002
1801.000000	0.004006
1800.000000	0.004014
1799.000000	0.004014
1798.000000	0.004010
1797.000000	0.004016
1796.000000	0.004024
1795.000000	0.004010
1794.000000	0.003983
1793.000000	0.003977
1792.000000	0.003996
1791.000000	0.004010
1790.000000	0.004010
1789.000000	0.004011
1788.000000	0.004013
1787.000000	0.004009
1786.000000	0.004002
1785.000000	0.004009
1784.000000	0.004023
1783.000000	0.004018
1782.000000	0.004003
1781.000000	0.003994
1780.000000	0.003985
1779.000000	0.003958
1778.000000	0.003925
1777.000000	0.003921
1776.000000	0.003944
1775.000000	0.003958
1774.000000	0.003957
1773.000000	0.003963
1772.000000	0.003961
1771.000000	0.003932
1770.000000	0.003903
1769.000000	0.003911
1768.000000	0.003951
1767.000000	0.003980
1766.000000	0.003981
1765.000000	0.003973
1764.000000	0.003969
1763.000000	0.003965
1762.000000	0.003958
1761.000000	0.003958
1760.000000	0.003964
1759.000000	0.003959
1758.000000	0.003951
1757.000000	0.003963
1756.000000	0.003982
1755.000000	0.003981
1754.000000	0.003965
1753.000000	0.003965
1752.000000	0.003986
1751.000000	0.003989
1750.000000	0.003961
1749.000000	0.003947
1748.000000	0.003959
1747.000000	0.003964
1746.000000	0.003959
1745.000000	0.003973
1744.000000	0.004000
1743.000000	0.004003
1742.000000	0.003981
1741.000000	0.003982
1740.000000	0.004024
1739.000000	0.004055
1738.000000	0.004057
1737.000000	0.004062
1736.000000	0.004097
1735.000000	0.004147
1734.000000	0.004150
1733.000000	0.004129
1732.000000	0.004139
1731.000000	0.004160
1730.000000	0.004178
1729.000000	0.004213
1728.000000	0.004265
1727.000000	0.004303
1726.000000	0.004323
1725.000000	0.004357
1724.000000	0.004415
1723.000000	0.004457
1722.000000	0.004467
1721.000000	0.004487
1720.000000	0.004555
1719.000000	0.004651
1718.000000	0.004716
1717.000000	0.004760
1716.000000	0.004840
1715.000000	0.004940
1714.000000	0.005049
1713.000000	0.005202
1712.000000	0.005403
1711.000000	0.005611
1710.000000	0.005808
1709.000000	0.006029
1708.000000	0.006309
1707.000000	0.006663
1706.000000	0.007114
1705.000000	0.007662
1704.000000	0.008228
1703.000000	0.008749
1702.000000	0.009402
1701.000000	0.010568
1700.000000	0.012141
1699.000000	0.013434
1698.000000	0.014278
1697.000000	0.015035
1696.000000	0.015905
1695.000000	0.016688
1694.000000	0.017206
1693.000000	0.017567
1692.000000	0.017917
1691.000000	0.018312
1690.000000	0.018761
1689.000000	0.019254
1688.000000	0.019736
1687.000000	0.020151
1686.000000	0.020578
1685.000000	0.021276
1684.000000	0.022265
1683.000000	0.023149
1682.000000	0.023795
1681.000000	0.024390
1680.000000	0.025033
1679.000000	0.025661
1678.000000	0.026224
1677.000000	0.026826
1676.000000	0.027619
1675.000000	0.028546
1674.000000	0.029376
1673.000000	0.030031
1672.000000	0.030627
1671.000000	0.031313
1670.000000	0.032176
1669.000000	0.033165
1668.000000	0.034093
1667.000000	0.034827
1666.000000	0.035403
1665.000000	0.035969
1664.000000	0.036678
1663.000000	0.037543
1662.000000	0.038427
1661.000000	0.039211
1660.000000	0.039885
1659.000000	0.040467
1658.000000	0.040965
1657.000000	0.041378
1656.000000	0.041693
1655.000000	0.041984
1654.000000	0.042549
1653.000000	0.043510
1652.000000	0.044323
1651.000000	0.044638
1650.000000	0.044656
1649.000000	0.044651
1648.000000	0.044816
1647.000000	0.045182
1646.000000	0.045588
1645.000000	0.045896
1644.000000	0.046098
1643.000000	0.046223
1642.000000	0.046312
1641.000000	0.046411
1640.000000	0.046526
1639.000000	0.046609
1638.000000	0.046637
1637.000000	0.046721
1636.000000	0.047001
1635.000000	0.047396
1634.000000	0.047694
1633.000000	0.047860
1632.000000	0.047963
1631.000000	0.048042
1630.000000	0.048131
1629.000000	0.048289
1628.000000	0.048539
1627.000000	0.048800
1626.000000	0.048986
1625.000000	0.049126
1624.000000	0.049316
1623.000000	0.049569
1622.000000	0.049780
1621.000000	0.049872
1620.000000	0.049842
1619.000000	0.049697
1618.000000	0.049441
1617.000000	0.049105
1616.000000	0.048722
1615.000000	0.048280
1614.000000	0.047740
1613.000000	0.047094
1612.000000	0.046365
1611.000000	0.045572
1610.000000	0.044733
1609.000000	0.043873
1608.000000	0.043021
1607.000000	0.042193
1606.000000	0.041380
1605.000000	0.040559
1604.000000	0.039719
1603.000000	0.038877
1602.000000	0.038057
1601.000000	0.037261
1600.000000	0.036487
1599.000000	0.035740
1598.000000	0.035017
1597.000000	0.034301
1596.000000	0.033586
1595.000000	0.032891
1594.000000	0.032227
1593.000000	0.031579
1592.000000	0.030932
1591.000000	0.030300
1590.000000	0.029700
1589.000000	0.029122
1588.000000	0.028557
1587.000000	0.028020
1586.000000	0.027528
1585.000000	0.027065
1584.000000	0.026613
1583.000000	0.026194
1582.000000	0.025844
1581.000000	0.025557
1580.000000	0.025309
1579.000000	0.025101
1578.000000	0.024951
1577.000000	0.024855
1576.000000	0.024798
1575.000000	0.024794
1574.000000	0.024843
1573.000000	0.024892
1572.000000	0.024928
1571.000000	0.025037
1570.000000	0.025316
1569.000000	0.025703
1568.000000	0.026051
1567.000000	0.026354
1566.000000	0.026708
1565.000000	0.027144
1564.000000	0.027591
1563.000000	0.027969
1562.000000	0.028245
1561.000000	0.028486
1560.000000	0.028994
1559.000000	0.030012
1558.000000	0.031101
1557.000000	0.031797
1556.000000	0.032251
1555.000000	0.032737
1554.000000	0.033337
1553.000000	0.033942
1552.000000	0.034467
1551.000000	0.034992
1550.000000	0.035600
1549.000000	0.036216
1548.000000	0.036709
1547.000000	0.037086
1546.000000	0.037468
1545.000000	0.037917
1544.000000	0.038368
1543.000000	0.038762
1542.000000	0.039168
1541.000000	0.039725
1540.000000	0.040451
1539.000000	0.041145
1538.000000	0.041616
1537.000000	0.041865
1536.000000	0.041999
1535.000000	0.042187
1534.000000	0.042598
1533.000000	0.043181
1532.000000	0.043705
1531.000000	0.044076
1530.000000	0.044363
1529.000000	0.044646
1528.000000	0.044966
1527.000000	0.045347
1526.000000	0.045776
1525.000000	0.046165
1524.000000	0.046448
1523.000000	0.046709
1522.000000	0.047110
1521.000000	0.047620
1520.000000	0.048005
1519.000000	0.048191
1518.000000	0.048300
1517.000000	0.048421
1516.000000	0.048520
1515.000000	0.048512
1514.000000	0.048354
1513.000000	0.048049
1512.000000	0.047643
1511.000000	0.047202
1510.000000	0.046741
1509.000000	0.046208
1508.000000	0.045548
1507.000000	0.044780
1506.000000	0.044057
1505.000000	0.043434
1504.000000	0.042822
1503.000000	0.042166
1502.000000	0.041444
1501.000000	0.040656
1500.000000	0.039840
1499.000000	0.039031
1498.000000	0.038195
1497.000000	0.037280
1496.000000	0.036345
1495.000000	0.035492
1494.000000	0.034711
1493.000000	0.033925
1492.000000	0.033086
1491.000000	0.032192
1490.000000	0.031274
1489.000000	0.030408
1488.000000	0.029658
1487.000000	0.029006
1486.000000	0.028401
1485.000000	0.027830
1484.000000	0.027294
1483.000000	0.026781
1482.000000	0.026284
1481.000000	0.025825
1480.000000	0.025433
1479.000000	0.025098
1478.000000	0.024794
1477.000000	0.024528
1476.000000	0.024324
1475.000000	0.024170
1474.000000	0.024043
1473.000000	0.023962
1472.000000	0.023953
1471.000000	0.023980
1470.000000	0.023981
1469.000000	0.023944
1468.000000	0.023887
1467.000000	0.023834
1466.000000	0.023813
1465.000000	0.023861
1464.000000	0.023976
1463.000000	0.024111
1462.000000	0.024225
1461.000000	0.024323
1460.000000	0.024436
1459.000000	0.024609
1458.000000	0.024913
1457.000000	0.025350
1456.000000	0.025752
1455.000000	0.025990
1454.000000	0.026101
1453.000000	0.026164
1452.000000	0.026206
1451.000000	0.026214
1450.000000	0.026167
1449.000000	0.026074
1448.000000	0.025954
1447.000000	0.025811
1446.000000	0.025634
1445.000000	0.025417
1444.000000	0.025166
1443.000000	0.024897
1442.000000	0.024617
1441.000000	0.024325
1440.000000	0.024024
1439.000000	0.023712
1438.000000	0.023390
1437.000000	0.023076
1436.000000	0.022807
1435.000000	0.022594
1434.000000	0.022401
1433.000000	0.022199
1432.000000	0.022005
1431.000000	0.021849
1430.000000	0.021743
1429.000000	0.021678
1428.000000	0.021644
1427.000000	0.021623
1426.000000	0.021610
1425.000000	0.021620
1424.000000	0.021671
1423.000000	0.021748
1422.000000	0.021809
1421.000000	0.021848
1420.000000	0.021920
1419.000000	0.022061
1418.000000	0.022226
1417.000000	0.022368
1416.000000	0.022490
1415.000000	0.022604
1414.000000	0.022710
1413.000000	0.022810
1412.000000	0.022913
1411.000000	0.023024
1410.000000	0.023124
1409.000000	0.023201
1408.000000	0.023256
1407.000000	0.023298
1406.000000	0.023332
1405.000000	0.023363
1404.000000	0.023384
1403.000000	0.023380
1402.000000	0.023336
1401.000000	0.023264
1400.000000	0.023202
1399.000000	0.023166
1398.000000	0.023134
1397.000000	0.023087
1396.000000	0.023041
1395.000000	0.023018
1394.000000	0.023023
1393.000000	0.023032
1392.000000	0.023027
1391.000000	0.023006
1390.000000	0.022975
1389.000000	0.022942
1388.000000	0.022916
1387.000000	0.022891
1386.000000	0.022853
1385.000000	0.022796
1384.000000	0.022727
1383.000000	0.022651
1382.000000	0.022566
1381.000000	0.022475
1380.000000	0.022382
1379.000000	0.022292
1378.000000	0.022200
1377.000000	0.022103
1376.000000	0.022013
1375.000000	0.021946
1374.000000	0.021905
1373.000000	0.021874
1372.000000	0.021835
1371.000000	0.021775
1370.000000	0.021696
1369.000000	0.021600
1368.000000	0.021487
1367.000000	0.021355
1366.000000	0.021204
1365.000000	0.021044
1364.000000	0.020893
1363.000000	0.020757
1362.000000	0.020636
1361.000000	0.020529
1360.000000	0.020433
1359.000000	0.020341
1358.000000	0.020247
1357.000000	0.020154
1356.000000	0.020070
1355.000000	0.020002
1354.000000	0.019946
1353.000000	0.019893
1352.000000	0.019842
1351.000000	0.019797
1350.000000	0.019757
1349.000000	0.019723
1348.000000	0.019695
1347.000000	0.019669
1346.000000	0.019641
1345.000000	0.019614
1344.000000	0.019590
1343.000000	0.019571
1342.000000	0.019552
1341.000000	0.019532
1340.000000	0.019522
1339.000000	0.019525
1338.000000	0.019538
1337.000000	0.019551
1336.000000	0.019559
1335.000000	0.019555
1334.000000	0.019537
1333.000000	0.019508
1332.000000	0.019480
1331.000000	0.019462
1330.000000	0.019453
1329.000000	0.019448
1328.000000	0.019445
1327.000000	0.019445
1326.000000	0.019444
1325.000000	0.019441
1324.000000	0.019440
1323.000000	0.019442
1322.000000	0.019447
1321.000000	0.019453
1320.000000	0.019465
1319.000000	0.019485
1318.000000	0.019508
1317.000000	0.019526
1316.000000	0.019539
1315.000000	0.019551
1314.000000	0.019566
1313.000000	0.019582
1312.000000	0.019594
1311.000000	0.019599
1310.000000	0.019592
1309.000000	0.019578
1308.000000	0.019566
1307.000000	0.019559
1306.000000	0.019549
1305.000000	0.019531
1304.000000	0.019509
1303.000000	0.019488
1302.000000	0.019467
1301.000000	0.019440
1300.000000	0.019407
1299.000000	0.019373
1298.000000	0.019340
1297.000000	0.019312
1296.000000	0.019290
1295.000000	0.019275
1294.000000	0.019265
1293.000000	0.019263
1292.000000	0.019267
1291.000000	0.019274
1290.000000	0.019276
1289.000000	0.019269
1288.000000	0.019258
1287.000000	0.019250
1286.000000	0.019242
1285.000000	0.019227
1284.000000	0.019206
1283.000000	0.019181
1282.000000	0.019152
1281.000000	0.019119
1280.000000	0.019084
1279.000000	0.019047
1278.000000	0.019011
1277.000000	0.018984
1276.000000	0.018971
1275.000000	0.018970
1274.000000	0.018978
1273.000000	0.018993
1272.000000	0.019015
1271.000000	0.019045
1270.000000	0.019080
1269.000000	0.019118
1268.000000	0.019164
1267.000000	0.019223
1266.000000	0.019291
1265.000000	0.019369
1264.000000	0.019459
1263.000000	0.019564
1262.000000	0.019684
1261.000000	0.019820
1260.000000	0.019977
1259.000000	0.020151
1258.000000	0.020332
1257.000000	0.020514
1256.000000	0.020696
1255.000000	0.020876
1254.000000	0.021053
1253.000000	0.021226
1252.000000	0.021401
1251.000000	0.021575
1250.000000	0.021743
1249.000000	0.021904
1248.000000	0.022061
1247.000000	0.022208
1246.000000	0.022340
1245.000000	0.022452
1244.000000	0.022552
1243.000000	0.022640
1242.000000	0.022714
1241.000000	0.022775
1240.000000	0.022826
1239.000000	0.022868
1238.000000	0.022897
1237.000000	0.022908
1236.000000	0.022903
1235.000000	0.022886
1234.000000	0.022861
1233.000000	0.022832
1232.000000	0.022800
1231.000000	0.022761
1230.000000	0.022709
1229.000000	0.022649
1228.000000	0.022586
1227.000000	0.022522
1226.000000	0.022449
1225.000000	0.022364
1224.000000	0.022269
1223.000000	0.022164
1222.000000	0.022049
1221.000000	0.021923
1220.000000	0.021792
1219.000000	0.021658
1218.000000	0.021517
1217.000000	0.021365
1216.000000	0.021203
1215.000000	0.021036
1214.000000	0.020864
1213.000000	0.020683
1212.000000	0.020490
1211.000000	0.020286
1210.000000	0.020075
1209.000000	0.019860
1208.000000	0.019640
1207.000000	0.019413
1206.000000	0.019178
1205.000000	0.018939
1204.000000	0.018703
1203.000000	0.018473
1202.000000	0.018246
1201.000000	0.018024
1200.000000	0.017810
1199.000000	0.017610
1198.000000	0.017426
1197.000000	0.017256
1196.000000	0.017098
1195.000000	0.016950
1194.000000	0.016810
1193.000000	0.016678
1192.000000	0.016560
1191.000000	0.016456
1190.000000	0.016362
1189.000000	0.016273
1188.000000	0.016188
1187.000000	0.016110
1186.000000	0.016041
1185.000000	0.015988
1184.000000	0.015957
1183.000000	0.015949
1182.000000	0.015960
1181.000000	0.015981
1180.000000	0.016017
1179.000000	0.016075
1178.000000	0.016157
1177.000000	0.016260
1176.000000	0.016380
1175.000000	0.016513
1174.000000	0.016650
1173.000000	0.016785
1172.000000	0.016919
1171.000000	0.017051
1170.000000	0.017176
1169.000000	0.017290
1168.000000	0.017395
1167.000000	0.017499
1166.000000	0.017596
1165.000000	0.017679
1164.000000	0.017743
1163.000000	0.017790
1162.000000	0.017822
1161.000000	0.017842
1160.000000	0.017849
1159.000000	0.017839
1158.000000	0.017809
1157.000000	0.017754
1156.000000	0.017677
1155.000000	0.017582
1154.000000	0.017473
1153.000000	0.017358
1152.000000	0.017239
1151.000000	0.017118
1150.000000	0.016989
1149.000000	0.016856
1148.000000	0.016725
1147.000000	0.016600
1146.000000	0.016479
1145.000000	0.016364
1144.000000	0.016264
1143.000000	0.016188
1142.000000	0.016133
1141.000000	0.016091
1140.000000	0.016055
1139.000000	0.016024
1138.000000	0.015999
1137.000000	0.015983
1136.000000	0.015985
1135.000000	0.016006
1134.000000	0.016039
1133.000000	0.016070
1132.000000	0.016097
1131.000000	0.016120
1130.000000	0.016138
1129.000000	0.016150
1128.000000	0.016154
1127.000000	0.016147
1126.000000	0.016121
1125.000000	0.016074
1124.000000	0.016013
1123.000000	0.015948
1122.000000	0.015884
1121.000000	0.015817
1120.000000	0.015748
1119.000000	0.015678
1118.000000	0.015606
1117.000000	0.015528
1116.000000	0.015451
1115.000000	0.015385
1114.000000	0.015336
1113.000000	0.015297
1112.000000	0.015264
1111.000000	0.015234
1110.000000	0.015207
1109.000000	0.015186
1108.000000	0.015177
1107.000000	0.015180
1106.000000	0.015190
1105.000000	0.015202
1104.000000	0.015216
1103.000000	0.015234
1102.000000	0.015256
1101.000000	0.015288
1100.000000	0.015337
1099.000000	0.015406
1098.000000	0.015491
1097.000000	0.015591
1096.000000	0.015714
1095.000000	0.015866
1094.000000	0.016040
1093.000000	0.016228
1092.000000	0.016435
1091.000000	0.016668
1090.000000	0.016929
1089.000000	0.017214
1088.000000	0.017525
1087.000000	0.017863
1086.000000	0.018227
1085.000000	0.018605
1084.000000	0.018986
1083.000000	0.019360
1082.000000	0.019724
1081.000000	0.020076
1080.000000	0.020411
1079.000000	0.020724
1078.000000	0.021011
1077.000000	0.021274
1076.000000	0.021514
1075.000000	0.021727
1074.000000	0.021906
1073.000000	0.022054
1072.000000	0.022175
1071.000000	0.022271
1070.000000	0.022342
1069.000000	0.022400
1068.000000	0.022460
1067.000000	0.022520
1066.000000	0.022569
1065.000000	0.022602
1064.000000	0.022621
1063.000000	0.022625
1062.000000	0.022611
1061.000000	0.022580
1060.000000	0.022532
1059.000000	0.022461
1058.000000	0.022366
1057.000000	0.022257
1056.000000	0.022149
1055.000000	0.022046
1054.000000	0.021938
1053.000000	0.021815
1052.000000	0.021680
1051.000000	0.021537
1050.000000	0.021386
1049.000000	0.021221
1048.000000	0.021039
1047.000000	0.020838
1046.000000	0.020618
1045.000000	0.020381
1044.000000	0.020129
1043.000000	0.019861
1042.000000	0.019584
1041.000000	0.019311
1040.000000	0.019053
1039.000000	0.018810
1038.000000	0.018577
1037.000000	0.018351
1036.000000	0.018135
1035.000000	0.017930
1034.000000	0.017729
1033.000000	0.017525
1032.000000	0.017317
1031.000000	0.017105
1030.000000	0.016888
1029.000000	0.016668
1028.000000	0.016447
1027.000000	0.016223
1026.000000	0.015990
1025.000000	0.015750
1024.000000	0.015510
1023.000000	0.015284
1022.000000	0.015080
1021.000000	0.014903
1020.000000	0.014747
1019.000000	0.014597
1018.000000	0.014432
1017.000000	0.014248
1016.000000	0.014063
1015.000000	0.013891
1014.000000	0.013734
1013.000000	0.013584
1012.000000	0.013439
1011.000000	0.013301
1010.000000	0.013169
1009.000000	0.013041
1008.000000	0.012923
1007.000000	0.012818
1006.000000	0.012725
1005.000000	0.012640
1004.000000	0.012562
1003.000000	0.012486
1002.000000	0.012409
1001.000000	0.012334
1000.000000	0.012272
999.000000	0.012229
998.000000	0.012195
997.000000	0.012153
996.000000	0.012103
995.000000	0.012051
994.000000	0.012003
993.000000	0.011955
992.000000	0.011907
991.000000	0.011860
990.000000	0.011812
989.000000	0.011761
988.000000	0.011713
987.000000	0.011677
986.000000	0.011654
985.000000	0.011636
984.000000	0.011614
983.000000	0.011583
982.000000	0.011547
981.000000	0.011520
980.000000	0.011518
979.000000	0.011540
978.000000	0.011569
977.000000	0.011589
976.000000	0.011605
975.000000	0.011626
974.000000	0.011654
973.000000	0.011686
972.000000	0.011728
971.000000	0.011788
970.000000	0.011864
969.000000	0.011949
968.000000	0.012045
967.000000	0.012159
966.000000	0.012283
965.000000	0.012400
964.000000	0.012498
963.000000	0.012571
962.000000	0.012617
961.000000	0.012639
960.000000	0.012640
959.000000	0.012624
958.000000	0.012585
957.000000	0.012526
956.000000	0.012455
955.000000	0.012385
954.000000	0.012321
953.000000	0.012262
952.000000	0.012216
951.000000	0.012187
950.000000	0.012166
949.000000	0.012140
948.000000	0.012106
947.000000	0.012068
946.000000	0.012032
945.000000	0.012000
944.000000	0.011976
943.000000	0.011962
942.000000	0.011950
941.000000	0.011935
940.000000	0.011927
939.000000	0.011936
938.000000	0.011959
937.000000	0.011980
936.000000	0.011991
935.000000	0.011997
934.000000	0.011999
933.000000	0.011999
932.000000	0.011998
931.000000	0.011997
930.000000	0.011992
929.000000	0.011977
928.000000	0.011956
927.000000	0.011935
926.000000	0.011914
925.000000	0.011882
924.000000	0.011838
923.000000	0.011791
922.000000	0.011746
921.000000	0.011699
920.000000	0.011645
919.000000	0.011585
918.000000	0.011524
917.000000	0.011466
916.000000	0.011420
915.000000	0.011400
914.000000	0.011408
913.000000	0.011436
912.000000	0.011476
911.000000	0.011519
910.000000	0.011561
909.000000	0.011598
908.000000	0.011634
907.000000	0.011674
906.000000	0.011718
905.000000	0.011760
904.000000	0.011801
903.000000	0.011839
902.000000	0.011868
901.000000	0.011880
900.000000	0.011878
899.000000	0.011868
898.000000	0.011847
897.000000	0.011813
896.000000	0.011770
895.000000	0.011728
894.000000	0.011690
893.000000	0.011649
892.000000	0.011599
891.000000	0.011542
890.000000	0.011480
889.000000	0.011411
888.000000	0.011342
887.000000	0.011278
886.000000	0.011227
885.000000	0.011190
884.000000	0.011171
883.000000	0.011162
882.000000	0.011154
881.000000	0.011142
880.000000	0.011133
879.000000	0.011138
878.000000	0.011149
877.000000	0.011149
876.000000	0.011134
875.000000	0.011119
874.000000	0.011115
873.000000	0.011123
872.000000	0.011130
871.000000	0.011128
870.000000	0.011111
869.000000	0.011082
868.000000	0.011054
867.000000	0.011036
866.000000	0.011029
865.000000	0.011021
864.000000	0.011009
863.000000	0.011001
862.000000	0.011005
861.000000	0.011018
860.000000	0.011035
859.000000	0.011054
858.000000	0.011075
857.000000	0.011103
856.000000	0.011142
855.000000	0.011191
854.000000	0.011238
853.000000	0.011272
852.000000	0.011298
851.000000	0.011327
850.000000	0.011365
849.000000	0.011404
848.000000	0.011436
847.000000	0.011465
846.000000	0.011504
845.000000	0.011561
844.000000	0.011636
843.000000	0.011718
842.000000	0.011802
841.000000	0.011884
840.000000	0.011965
839.000000	0.012047
838.000000	0.012133
837.000000	0.012226
836.000000	0.012330
835.000000	0.012442
834.000000	0.012557
833.000000	0.012675
832.000000	0.012799
831.000000	0.012930
830.000000	0.013061
829.000000	0.013184
828.000000	0.013295
827.000000	0.013395
826.000000	0.013485
825.000000	0.013569
824.000000	0.013652
823.000000	0.013733
822.000000	0.013809
821.000000	0.013878
820.000000	0.013945
819.000000	0.014016
818.000000	0.014095
817.000000	0.014185
816.000000	0.014284
815.000000	0.014385
814.000000	0.014484
813.000000	0.014585
812.000000	0.014689
811.000000	0.014794
810.000000	0.014891
809.000000	0.014975
808.000000	0.015048
807.000000	0.015115
806.000000	0.015182
805.000000	0.015258
804.000000	0.015350
803.000000	0.015457
802.000000	0.015563
801.000000	0.015656
800.000000	0.015728
799.000000	0.015788
798.000000	0.015852
797.000000	0.015939
796.000000	0.016051
795.000000	0.016178
794.000000	0.016304
793.000000	0.016432
792.000000	0.016568
791.000000	0.016714
790.000000	0.016865
789.000000	0.017016
788.000000	0.017170
787.000000	0.017320
786.000000	0.017460
785.000000	0.017591
784.000000	0.017724
783.000000	0.017871
782.000000	0.018033
781.000000	0.018206
780.000000	0.018374
779.000000	0.018523
778.000000	0.018652
777.000000	0.018780
776.000000	0.018921
775.000000	0.019071
774.000000	0.019209
773.000000	0.019324
772.000000	0.019415
771.000000	0.019494
770.000000	0.019571
769.000000	0.019659
768.000000	0.019758
767.000000	0.019854
766.000000	0.019935
765.000000	0.020002
764.000000	0.020068
763.000000	0.020136
762.000000	0.020200
761.000000	0.020260
760.000000	0.020325
759.000000	0.020403
758.000000	0.020488
757.000000	0.020579
756.000000	0.020679
755.000000	0.020792
754.000000	0.020919
753.000000	0.021058
752.000000	0.021212
751.000000	0.021371
750.000000	0.021519
749.000000	0.021642
748.000000	0.021734
747.000000	0.021802
746.000000	0.021862
745.000000	0.021926
744.000000	0.021998
743.000000	0.022070
742.000000	0.022145
741.000000	0.022232
740.000000	0.022332
739.000000	0.022434
738.000000	0.022529
737.000000	0.022626
736.000000	0.022743
735.000000	0.022884
734.000000	0.023049
733.000000	0.023240
732.000000	0.023457
731.000000	0.023695
730.000000	0.023946
729.000000	0.024213
728.000000	0.024502
727.000000	0.024807
726.000000	0.025122
725.000000	0.025447
724.000000	0.025784
723.000000	0.026125
722.000000	0.026470
721.000000	0.026830
720.000000	0.027219
719.000000	0.027629
718.000000	0.028040
717.000000	0.028441
716.000000	0.028832
715.000000	0.029216
714.000000	0.029594
713.000000	0.029968
712.000000	0.030338
711.000000	0.030699
710.000000	0.031056
709.000000	0.031417
708.000000	0.031783
707.000000	0.032141
706.000000	0.032481
705.000000	0.032808
704.000000	0.033116
703.000000	0.033386
702.000000	0.033606
701.000000	0.033785
700.000000	0.033933
699.000000	0.034043
698.000000	0.034099
697.000000	0.034105
696.000000	0.034082
695.000000	0.034055
694.000000	0.034041
693.000000	0.034047
692.000000	0.034067
691.000000	0.034088
690.000000	0.034111
689.000000	0.034155
688.000000	0.034227
687.000000	0.034307
686.000000	0.034370
685.000000	0.034410
684.000000	0.034435
683.000000	0.034457
682.000000	0.034488
681.000000	0.034533
680.000000	0.034583
679.000000	0.034618
678.000000	0.034636
677.000000	0.034660
676.000000	0.034704
675.000000	0.034765
674.000000	0.034829
673.000000	0.034877
672.000000	0.034909
671.000000	0.034953
670.000000	0.035040
669.000000	0.035170
668.000000	0.035377
667.000000	0.035548
666.000000	0.035495
665.000000	0.035342
664.000000	0.035261
663.000000	0.035259
662.000000	0.035297
661.000000	0.035349
660.000000	0.035418
659.000000	0.035490
658.000000	0.035561
657.000000	0.035644
656.000000	0.035738
655.000000	0.035824
654.000000	0.035895
653.000000	0.035967
652.000000	0.036054
651.000000	0.036146
650.000000	0.036237
649.000000	0.036334
648.000000	0.036445
647.000000	0.036559
646.000000	0.036673
645.000000	0.036796
644.000000	0.036926
643.000000	0.037047
642.000000	0.037166
641.000000	0.037301
640.000000	0.037452
639.000000	0.037586
638.000000	0.037691
637.000000	0.037790
636.000000	0.037899
635.000000	0.038002
634.000000	0.038093
633.000000	0.038193
632.000000	0.038315
631.000000	0.038437
630.000000	0.038534
629.000000	0.038610
628.000000	0.038673
627.000000	0.038712
626.000000	0.038726
625.000000	0.038735
624.000000	0.038755
623.000000	0.038766
622.000000	0.038753
621.000000	0.038718
620.000000	0.038665
619.000000	0.038585
618.000000	0.038477
617.000000	0.038367
616.000000	0.038263
615.000000	0.038149
614.000000	0.038027
613.000000	0.037924
612.000000	0.037845
611.000000	0.037757
610.000000	0.037649
609.000000	0.037560
608.000000	0.037527
607.000000	0.037532
606.000000	0.037531
605.000000	0.037511
604.000000	0.037486
603.000000	0.037460
602.000000	0.037431
601.000000	0.037411
600.000000	0.037397
599.000000	0.037367
598.000000	0.037312
597.000000	0.037262
596.000000	0.037260
595.000000	0.037305
594.000000	0.037363
593.000000	0.037406
592.000000	0.037421
591.000000	0.037407
590.000000	0.037383
589.000000	0.037379
588.000000	0.037403
587.000000	0.037438
586.000000	0.037474
585.000000	0.037519
584.000000	0.037574
583.000000	0.037625
582.000000	0.037667
581.000000	0.037723
580.000000	0.037791
579.000000	0.037842
578.000000	0.037868
577.000000	0.037904
576.000000	0.037971
575.000000	0.038036
574.000000	0.038057
573.000000	0.038043
572.000000	0.038020
571.000000	0.038000
570.000000	0.037997
569.000000	0.038032
568.000000	0.038104
567.000000	0.038170
566.000000	0.038209
565.000000	0.038247
564.000000	0.038315
563.000000	0.038401
562.000000	0.038480
561.000000	0.038551
560.000000	0.038611
559.000000	0.038632
558.000000	0.038603
557.000000	0.038563
556.000000	0.038550
555.000000	0.038556
554.000000	0.038554
553.000000	0.038551
552.000000	0.038564
551.000000	0.038588
550.000000	0.038619
549.000000	0.038667
548.000000	0.038724
547.000000	0.038747
546.000000	0.038721
545.000000	0.038686
544.000000	0.038680
543.000000	0.038690
542.000000	0.038685
541.000000	0.038672
540.000000	0.038669
539.000000	0.038672
538.000000	0.038675
537.000000	0.038686
536.000000	0.038696
535.000000	0.038682
534.000000	0.038655
533.000000	0.038671
532.000000	0.038752
531.000000	0.038847
530.000000	0.038890
529.000000	0.038883
528.000000	0.038861
527.000000	0.038842
526.000000	0.038834
525.000000	0.038850
524.000000	0.038886
523.000000	0.038919
522.000000	0.038943
521.000000	0.038991
520.000000	0.039073
519.000000	0.039145
518.000000	0.039165
517.000000	0.039139
516.000000	0.039083
515.000000	0.038985
514.000000	0.038859
513.000000	0.038755
512.000000	0.038693
511.000000	0.038638
510.000000	0.038570
509.000000	0.038530
508.000000	0.038557
507.000000	0.038610
506.000000	0.038619
505.000000	0.038577
504.000000	0.038518
503.000000	0.038467
502.000000	0.038440
501.000000	0.038454
500.000000	0.038496
499.000000	0.038517
498.000000	0.038491
497.000000	0.038446
496.000000	0.038402
495.000000	0.038337
494.000000	0.038231
493.000000	0.038119
492.000000	0.038055
491.000000	0.038051
490.000000	0.038084
489.000000	0.038120
488.000000	0.038120
487.000000	0.038053
486.000000	0.037956
485.000000	0.037921
484.000000	0.037979
483.000000	0.038059
482.000000	0.038097
481.000000	0.038117
480.000000	0.038147
479.000000	0.038147
478.000000	0.038073
477.000000	0.037947
476.000000	0.037826
475.000000	0.037735
474.000000	0.037692
473.000000	0.037720
472.000000	0.037790
471.000000	0.037824
470.000000	0.037811
469.000000	0.037816
468.000000	0.037858
467.000000	0.037882
466.000000	0.037870
465.000000	0.037886
464.000000	0.037958
463.000000	0.038001
462.000000	0.037933
461.000000	0.037794
460.000000	0.037677
459.000000	0.037622
458.000000	0.037623
457.000000	0.037650
456.000000	0.037635
455.000000	0.037526
454.000000	0.037377
453.000000	0.037304
452.000000	0.037333
451.000000	0.037348
450.000000	0.037275
449.000000	0.037169
448.000000	0.037088
447.000000	0.036978
446.000000	0.036762
445.000000	0.036470
444.000000	0.036188
443.000000	0.035976
442.000000	0.035874
441.000000	0.035894
440.000000	0.035976
439.000000	0.036010
438.000000	0.035941
437.000000	0.035808
436.000000	0.035643
435.000000	0.035430
434.000000	0.035173
433.000000	0.034908
432.000000	0.034613
431.000000	0.034243
430.000000	0.033872
429.000000	0.033668
428.000000	0.033667
427.000000	0.033714
426.000000	0.033679
425.000000	0.033620
424.000000	0.033632
423.000000	0.033636
422.000000	0.033519
421.000000	0.033340
420.000000	0.033255
419.000000	0.033259
418.000000	0.033156
417.000000	0.032922
416.000000	0.032674
415.000000	0.032428
414.000000	0.032158
413.000000	0.031894
412.000000	0.031683
411.000000	0.031540
410.000000	0.031504
409.000000	0.031644
408.000000	0.031912
407.000000	0.032092
406.000000	0.032011
405.000000	0.031729
404.000000	0.031357
403.000000	0.030863
402.000000	0.030166
401.000000	0.029367
400.000000	0.028641
