PE IR       SUBTECH     SPECTRUM    ASCII       PEDS        4.00        
   -1
PE_P viridans outer 5.ASC
24/08/18
21:48:40.00
24/08/18
21:49:39.00
Yarger Lab
Sample 299 By YargerLab Date Sunday, August 18 2024
400.000000
#HDR
-1
-1
#GR
cm-1
A
1.0
0.0
4000.000000
-1.000000
3601
8
0.096567
0.007493
#DATA
4000.000000	0.014315
3999.000000	0.014311
3998.000000	0.014306
3997.000000	0.014303
3996.000000	0.014299
3995.000000	0.014294
3994.000000	0.014288
3993.000000	0.014286
3992.000000	0.014287
3991.000000	0.014294
3990.000000	0.014302
3989.000000	0.014312
3988.000000	0.014319
3987.000000	0.014320
3986.000000	0.014313
3985.000000	0.014299
3984.000000	0.014286
3983.000000	0.014280
3982.000000	0.014281
3981.000000	0.014287
3980.000000	0.014291
3979.000000	0.014292
3978.000000	0.014291
3977.000000	0.014290
3976.000000	0.014292
3975.000000	0.014294
3974.000000	0.014295
3973.000000	0.014293
3972.000000	0.014288
3971.000000	0.014280
3970.000000	0.014270
3969.000000	0.014263
3968.000000	0.014259
3967.000000	0.014258
3966.000000	0.014256
3965.000000	0.014253
3964.000000	0.014246
3963.000000	0.014240
3962.000000	0.014237
3961.000000	0.014237
3960.000000	0.014237
3959.000000	0.014234
3958.000000	0.014229
3957.000000	0.014223
3956.000000	0.014219
3955.000000	0.014218
3954.000000	0.014219
3953.000000	0.014221
3952.000000	0.014225
3951.000000	0.014227
3950.000000	0.014225
3949.000000	0.014220
3948.000000	0.014214
3947.000000	0.014213
3946.000000	0.014219
3945.000000	0.014226
3944.000000	0.014227
3943.000000	0.014220
3942.000000	0.014205
3941.000000	0.014190
3940.000000	0.014176
3939.000000	0.014165
3938.000000	0.014160
3937.000000	0.014161
3936.000000	0.014170
3935.000000	0.014181
3934.000000	0.014188
3933.000000	0.014185
3932.000000	0.014171
3931.000000	0.014151
3930.000000	0.014136
3929.000000	0.014132
3928.000000	0.014138
3927.000000	0.014146
3926.000000	0.014147
3925.000000	0.014141
3924.000000	0.014133
3923.000000	0.014130
3922.000000	0.014132
3921.000000	0.014136
3920.000000	0.014138
3919.000000	0.014134
3918.000000	0.014126
3917.000000	0.014114
3916.000000	0.014100
3915.000000	0.014086
3914.000000	0.014076
3913.000000	0.014070
3912.000000	0.014068
3911.000000	0.014065
3910.000000	0.014061
3909.000000	0.014056
3908.000000	0.014049
3907.000000	0.014042
3906.000000	0.014036
3905.000000	0.014038
3904.000000	0.014049
3903.000000	0.014070
3902.000000	0.014093
3901.000000	0.014107
3900.000000	0.014106
3899.000000	0.014091
3898.000000	0.014074
3897.000000	0.014063
3896.000000	0.014058
3895.000000	0.014052
3894.000000	0.014043
3893.000000	0.014032
3892.000000	0.014022
3891.000000	0.014015
3890.000000	0.014014
3889.000000	0.014013
3888.000000	0.014009
3887.000000	0.014001
3886.000000	0.013995
3885.000000	0.013995
3884.000000	0.013998
3883.000000	0.014000
3882.000000	0.013992
3881.000000	0.013973
3880.000000	0.013953
3879.000000	0.013947
3878.000000	0.013954
3877.000000	0.013963
3876.000000	0.013962
3875.000000	0.013949
3874.000000	0.013932
3873.000000	0.013922
3872.000000	0.013919
3871.000000	0.013917
3870.000000	0.013910
3869.000000	0.013903
3868.000000	0.013902
3867.000000	0.013906
3866.000000	0.013908
3865.000000	0.013903
3864.000000	0.013892
3863.000000	0.013880
3862.000000	0.013876
3861.000000	0.013877
3860.000000	0.013876
3859.000000	0.013864
3858.000000	0.013840
3857.000000	0.013806
3856.000000	0.013776
3855.000000	0.013765
3854.000000	0.013776
3853.000000	0.013784
3852.000000	0.013782
3851.000000	0.013784
3850.000000	0.013793
3849.000000	0.013807
3848.000000	0.013819
3847.000000	0.013826
3846.000000	0.013823
3845.000000	0.013810
3844.000000	0.013789
3843.000000	0.013766
3842.000000	0.013751
3841.000000	0.013749
3840.000000	0.013759
3839.000000	0.013771
3838.000000	0.013775
3837.000000	0.013767
3836.000000	0.013750
3835.000000	0.013730
3834.000000	0.013712
3833.000000	0.013701
3832.000000	0.013697
3831.000000	0.013698
3830.000000	0.013701
3829.000000	0.013702
3828.000000	0.013698
3827.000000	0.013688
3826.000000	0.013681
3825.000000	0.013683
3824.000000	0.013693
3823.000000	0.013704
3822.000000	0.013705
3821.000000	0.013690
3820.000000	0.013667
3819.000000	0.013648
3818.000000	0.013635
3817.000000	0.013624
3816.000000	0.013614
3815.000000	0.013605
3814.000000	0.013598
3813.000000	0.013592
3812.000000	0.013585
3811.000000	0.013573
3810.000000	0.013558
3809.000000	0.013548
3808.000000	0.013546
3807.000000	0.013549
3806.000000	0.013551
3805.000000	0.013551
3804.000000	0.013546
3803.000000	0.013536
3802.000000	0.013527
3801.000000	0.013525
3800.000000	0.013528
3799.000000	0.013529
3798.000000	0.013523
3797.000000	0.013508
3796.000000	0.013490
3795.000000	0.013474
3794.000000	0.013460
3793.000000	0.013450
3792.000000	0.013442
3791.000000	0.013432
3790.000000	0.013424
3789.000000	0.013419
3788.000000	0.013414
3787.000000	0.013405
3786.000000	0.013392
3785.000000	0.013382
3784.000000	0.013377
3783.000000	0.013377
3782.000000	0.013375
3781.000000	0.013368
3780.000000	0.013353
3779.000000	0.013337
3778.000000	0.013328
3777.000000	0.013330
3776.000000	0.013337
3775.000000	0.013339
3774.000000	0.013335
3773.000000	0.013325
3772.000000	0.013314
3771.000000	0.013307
3770.000000	0.013306
3769.000000	0.013309
3768.000000	0.013311
3767.000000	0.013307
3766.000000	0.013297
3765.000000	0.013290
3764.000000	0.013289
3763.000000	0.013292
3762.000000	0.013298
3761.000000	0.013301
3760.000000	0.013298
3759.000000	0.013288
3758.000000	0.013277
3757.000000	0.013271
3756.000000	0.013267
3755.000000	0.013258
3754.000000	0.013247
3753.000000	0.013241
3752.000000	0.013244
3751.000000	0.013255
3750.000000	0.013273
3749.000000	0.013294
3748.000000	0.013308
3747.000000	0.013304
3746.000000	0.013290
3745.000000	0.013279
3744.000000	0.013265
3743.000000	0.013240
3742.000000	0.013212
3741.000000	0.013187
3740.000000	0.013164
3739.000000	0.013144
3738.000000	0.013132
3737.000000	0.013127
3736.000000	0.013116
3735.000000	0.013086
3734.000000	0.013048
3733.000000	0.013026
3732.000000	0.013020
3731.000000	0.013022
3730.000000	0.013024
3729.000000	0.013027
3728.000000	0.013027
3727.000000	0.013019
3726.000000	0.012999
3725.000000	0.012971
3724.000000	0.012941
3723.000000	0.012912
3722.000000	0.012887
3721.000000	0.012866
3720.000000	0.012848
3719.000000	0.012831
3718.000000	0.012817
3717.000000	0.012809
3716.000000	0.012806
3715.000000	0.012805
3714.000000	0.012807
3713.000000	0.012815
3712.000000	0.012823
3711.000000	0.012820
3710.000000	0.012813
3709.000000	0.012808
3708.000000	0.012800
3707.000000	0.012781
3706.000000	0.012749
3705.000000	0.012710
3704.000000	0.012673
3703.000000	0.012639
3702.000000	0.012614
3701.000000	0.012604
3700.000000	0.012607
3699.000000	0.012616
3698.000000	0.012624
3697.000000	0.012628
3696.000000	0.012629
3695.000000	0.012629
3694.000000	0.012630
3693.000000	0.012632
3692.000000	0.012629
3691.000000	0.012611
3690.000000	0.012585
3689.000000	0.012563
3688.000000	0.012558
3687.000000	0.012566
3686.000000	0.012578
3685.000000	0.012588
3684.000000	0.012595
3683.000000	0.012600
3682.000000	0.012608
3681.000000	0.012622
3680.000000	0.012640
3679.000000	0.012656
3678.000000	0.012669
3677.000000	0.012676
3676.000000	0.012669
3675.000000	0.012648
3674.000000	0.012641
3673.000000	0.012662
3672.000000	0.012697
3671.000000	0.012727
3670.000000	0.012736
3669.000000	0.012730
3668.000000	0.012725
3667.000000	0.012726
3666.000000	0.012728
3665.000000	0.012732
3664.000000	0.012741
3663.000000	0.012757
3662.000000	0.012780
3661.000000	0.012806
3660.000000	0.012827
3659.000000	0.012843
3658.000000	0.012859
3657.000000	0.012877
3656.000000	0.012896
3655.000000	0.012915
3654.000000	0.012935
3653.000000	0.012957
3652.000000	0.012982
3651.000000	0.013013
3650.000000	0.013047
3649.000000	0.013072
3648.000000	0.013079
3647.000000	0.013079
3646.000000	0.013084
3645.000000	0.013096
3644.000000	0.013109
3643.000000	0.013121
3642.000000	0.013135
3641.000000	0.013160
3640.000000	0.013196
3639.000000	0.013237
3638.000000	0.013276
3637.000000	0.013311
3636.000000	0.013340
3635.000000	0.013363
3634.000000	0.013383
3633.000000	0.013404
3632.000000	0.013430
3631.000000	0.013461
3630.000000	0.013496
3629.000000	0.013525
3628.000000	0.013548
3627.000000	0.013579
3626.000000	0.013623
3625.000000	0.013667
3624.000000	0.013699
3623.000000	0.013714
3622.000000	0.013722
3621.000000	0.013737
3620.000000	0.013767
3619.000000	0.013807
3618.000000	0.013857
3617.000000	0.013913
3616.000000	0.013968
3615.000000	0.014014
3614.000000	0.014053
3613.000000	0.014092
3612.000000	0.014133
3611.000000	0.014174
3610.000000	0.014215
3609.000000	0.014257
3608.000000	0.014295
3607.000000	0.014326
3606.000000	0.014354
3605.000000	0.014384
3604.000000	0.014416
3603.000000	0.014448
3602.000000	0.014481
3601.000000	0.014513
3600.000000	0.014543
3599.000000	0.014571
3598.000000	0.014604
3597.000000	0.014648
3596.000000	0.014695
3595.000000	0.014740
3594.000000	0.014783
3593.000000	0.014826
3592.000000	0.014870
3591.000000	0.014913
3590.000000	0.014955
3589.000000	0.015002
3588.000000	0.015050
3587.000000	0.015093
3586.000000	0.015137
3585.000000	0.015186
3584.000000	0.015234
3583.000000	0.015274
3582.000000	0.015311
3581.000000	0.015350
3580.000000	0.015392
3579.000000	0.015432
3578.000000	0.015473
3577.000000	0.015520
3576.000000	0.015573
3575.000000	0.015628
3574.000000	0.015684
3573.000000	0.015741
3572.000000	0.015798
3571.000000	0.015853
3570.000000	0.015910
3569.000000	0.015974
3568.000000	0.016036
3567.000000	0.016086
3566.000000	0.016129
3565.000000	0.016180
3564.000000	0.016240
3563.000000	0.016296
3562.000000	0.016344
3561.000000	0.016386
3560.000000	0.016429
3559.000000	0.016474
3558.000000	0.016527
3557.000000	0.016587
3556.000000	0.016651
3555.000000	0.016713
3554.000000	0.016773
3553.000000	0.016834
3552.000000	0.016895
3551.000000	0.016957
3550.000000	0.017021
3549.000000	0.017091
3548.000000	0.017166
3547.000000	0.017237
3546.000000	0.017298
3545.000000	0.017346
3544.000000	0.017384
3543.000000	0.017417
3542.000000	0.017454
3541.000000	0.017503
3540.000000	0.017560
3539.000000	0.017619
3538.000000	0.017676
3537.000000	0.017735
3536.000000	0.017796
3535.000000	0.017855
3534.000000	0.017911
3533.000000	0.017967
3532.000000	0.018024
3531.000000	0.018080
3530.000000	0.018137
3529.000000	0.018198
3528.000000	0.018267
3527.000000	0.018342
3526.000000	0.018420
3525.000000	0.018494
3524.000000	0.018557
3523.000000	0.018608
3522.000000	0.018655
3521.000000	0.018705
3520.000000	0.018757
3519.000000	0.018806
3518.000000	0.018853
3517.000000	0.018904
3516.000000	0.018960
3515.000000	0.019018
3514.000000	0.019074
3513.000000	0.019128
3512.000000	0.019181
3511.000000	0.019233
3510.000000	0.019287
3509.000000	0.019348
3508.000000	0.019412
3507.000000	0.019478
3506.000000	0.019544
3505.000000	0.019614
3504.000000	0.019685
3503.000000	0.019753
3502.000000	0.019816
3501.000000	0.019878
3500.000000	0.019939
3499.000000	0.019997
3498.000000	0.020054
3497.000000	0.020113
3496.000000	0.020173
3495.000000	0.020230
3494.000000	0.020282
3493.000000	0.020333
3492.000000	0.020387
3491.000000	0.020446
3490.000000	0.020511
3489.000000	0.020582
3488.000000	0.020653
3487.000000	0.020720
3486.000000	0.020782
3485.000000	0.020841
3484.000000	0.020897
3483.000000	0.020953
3482.000000	0.021013
3481.000000	0.021079
3480.000000	0.021149
3479.000000	0.021217
3478.000000	0.021281
3477.000000	0.021343
3476.000000	0.021403
3475.000000	0.021464
3474.000000	0.021531
3473.000000	0.021604
3472.000000	0.021679
3471.000000	0.021750
3470.000000	0.021816
3469.000000	0.021877
3468.000000	0.021933
3467.000000	0.021986
3466.000000	0.022040
3465.000000	0.022102
3464.000000	0.022172
3463.000000	0.022248
3462.000000	0.022325
3461.000000	0.022401
3460.000000	0.022468
3459.000000	0.022522
3458.000000	0.022569
3457.000000	0.022617
3456.000000	0.022670
3455.000000	0.022727
3454.000000	0.022785
3453.000000	0.022844
3452.000000	0.022902
3451.000000	0.022953
3450.000000	0.023001
3449.000000	0.023053
3448.000000	0.023112
3447.000000	0.023178
3446.000000	0.023249
3445.000000	0.023323
3444.000000	0.023392
3443.000000	0.023455
3442.000000	0.023515
3441.000000	0.023577
3440.000000	0.023643
3439.000000	0.023709
3438.000000	0.023773
3437.000000	0.023836
3436.000000	0.023893
3435.000000	0.023946
3434.000000	0.024000
3433.000000	0.024061
3432.000000	0.024129
3431.000000	0.024199
3430.000000	0.024269
3429.000000	0.024336
3428.000000	0.024395
3427.000000	0.024446
3426.000000	0.024498
3425.000000	0.024561
3424.000000	0.024631
3423.000000	0.024696
3422.000000	0.024752
3421.000000	0.024806
3420.000000	0.024860
3419.000000	0.024917
3418.000000	0.024975
3417.000000	0.025035
3416.000000	0.025095
3415.000000	0.025157
3414.000000	0.025221
3413.000000	0.025288
3412.000000	0.025354
3411.000000	0.025416
3410.000000	0.025473
3409.000000	0.025529
3408.000000	0.025583
3407.000000	0.025633
3406.000000	0.025679
3405.000000	0.025728
3404.000000	0.025780
3403.000000	0.025835
3402.000000	0.025892
3401.000000	0.025952
3400.000000	0.026013
3399.000000	0.026069
3398.000000	0.026121
3397.000000	0.026169
3396.000000	0.026213
3395.000000	0.026256
3394.000000	0.026302
3393.000000	0.026358
3392.000000	0.026420
3391.000000	0.026482
3390.000000	0.026543
3389.000000	0.026606
3388.000000	0.026668
3387.000000	0.026729
3386.000000	0.026790
3385.000000	0.026853
3384.000000	0.026915
3383.000000	0.026971
3382.000000	0.027022
3381.000000	0.027075
3380.000000	0.027134
3379.000000	0.027197
3378.000000	0.027264
3377.000000	0.027334
3376.000000	0.027404
3375.000000	0.027470
3374.000000	0.027530
3373.000000	0.027586
3372.000000	0.027640
3371.000000	0.027696
3370.000000	0.027760
3369.000000	0.027839
3368.000000	0.027928
3367.000000	0.028022
3366.000000	0.028116
3365.000000	0.028209
3364.000000	0.028298
3363.000000	0.028383
3362.000000	0.028471
3361.000000	0.028565
3360.000000	0.028665
3359.000000	0.028764
3358.000000	0.028863
3357.000000	0.028962
3356.000000	0.029063
3355.000000	0.029160
3354.000000	0.029252
3353.000000	0.029341
3352.000000	0.029436
3351.000000	0.029542
3350.000000	0.029662
3349.000000	0.029789
3348.000000	0.029911
3347.000000	0.030017
3346.000000	0.030115
3345.000000	0.030215
3344.000000	0.030325
3343.000000	0.030441
3342.000000	0.030560
3341.000000	0.030685
3340.000000	0.030815
3339.000000	0.030955
3338.000000	0.031107
3337.000000	0.031272
3336.000000	0.031444
3335.000000	0.031614
3334.000000	0.031782
3333.000000	0.031950
3332.000000	0.032119
3331.000000	0.032283
3330.000000	0.032438
3329.000000	0.032587
3328.000000	0.032735
3327.000000	0.032894
3326.000000	0.033076
3325.000000	0.033285
3324.000000	0.033510
3323.000000	0.033733
3322.000000	0.033947
3321.000000	0.034155
3320.000000	0.034363
3319.000000	0.034576
3318.000000	0.034797
3317.000000	0.035030
3316.000000	0.035271
3315.000000	0.035512
3314.000000	0.035747
3313.000000	0.035973
3312.000000	0.036188
3311.000000	0.036397
3310.000000	0.036610
3309.000000	0.036839
3308.000000	0.037088
3307.000000	0.037357
3306.000000	0.037649
3305.000000	0.037964
3304.000000	0.038292
3303.000000	0.038619
3302.000000	0.038936
3301.000000	0.039242
3300.000000	0.039532
3299.000000	0.039803
3298.000000	0.040061
3297.000000	0.040319
3296.000000	0.040590
3295.000000	0.040877
3294.000000	0.041180
3293.000000	0.041500
3292.000000	0.041828
3291.000000	0.042157
3290.000000	0.042479
3289.000000	0.042788
3288.000000	0.043079
3287.000000	0.043350
3286.000000	0.043604
3285.000000	0.043845
3284.000000	0.044073
3283.000000	0.044286
3282.000000	0.044483
3281.000000	0.044667
3280.000000	0.044834
3279.000000	0.044973
3278.000000	0.045083
3277.000000	0.045169
3276.000000	0.045237
3275.000000	0.045289
3274.000000	0.045320
3273.000000	0.045338
3272.000000	0.045350
3271.000000	0.045364
3270.000000	0.045377
3269.000000	0.045375
3268.000000	0.045345
3267.000000	0.045280
3266.000000	0.045186
3265.000000	0.045067
3264.000000	0.044927
3263.000000	0.044765
3262.000000	0.044587
3261.000000	0.044398
3260.000000	0.044192
3259.000000	0.043967
3258.000000	0.043725
3257.000000	0.043484
3256.000000	0.043255
3255.000000	0.043043
3254.000000	0.042838
3253.000000	0.042625
3252.000000	0.042390
3251.000000	0.042124
3250.000000	0.041836
3249.000000	0.041548
3248.000000	0.041283
3247.000000	0.041055
3246.000000	0.040862
3245.000000	0.040688
3244.000000	0.040513
3243.000000	0.040321
3242.000000	0.040114
3241.000000	0.039898
3240.000000	0.039681
3239.000000	0.039463
3238.000000	0.039238
3237.000000	0.039002
3236.000000	0.038757
3235.000000	0.038522
3234.000000	0.038321
3233.000000	0.038168
3232.000000	0.038047
3231.000000	0.037933
3230.000000	0.037808
3229.000000	0.037674
3228.000000	0.037537
3227.000000	0.037398
3226.000000	0.037258
3225.000000	0.037117
3224.000000	0.036975
3223.000000	0.036832
3222.000000	0.036688
3221.000000	0.036550
3220.000000	0.036421
3219.000000	0.036300
3218.000000	0.036181
3217.000000	0.036061
3216.000000	0.035936
3215.000000	0.035811
3214.000000	0.035696
3213.000000	0.035594
3212.000000	0.035498
3211.000000	0.035397
3210.000000	0.035289
3209.000000	0.035175
3208.000000	0.035060
3207.000000	0.034943
3206.000000	0.034825
3205.000000	0.034708
3204.000000	0.034590
3203.000000	0.034471
3202.000000	0.034354
3201.000000	0.034243
3200.000000	0.034139
3199.000000	0.034037
3198.000000	0.033936
3197.000000	0.033835
3196.000000	0.033730
3195.000000	0.033618
3194.000000	0.033504
3193.000000	0.033392
3192.000000	0.033279
3191.000000	0.033160
3190.000000	0.033041
3189.000000	0.032929
3188.000000	0.032827
3187.000000	0.032728
3186.000000	0.032624
3185.000000	0.032516
3184.000000	0.032404
3183.000000	0.032290
3182.000000	0.032174
3181.000000	0.032059
3180.000000	0.031942
3179.000000	0.031822
3178.000000	0.031699
3177.000000	0.031577
3176.000000	0.031461
3175.000000	0.031348
3174.000000	0.031237
3173.000000	0.031126
3172.000000	0.031015
3171.000000	0.030906
3170.000000	0.030802
3169.000000	0.030702
3168.000000	0.030599
3167.000000	0.030490
3166.000000	0.030376
3165.000000	0.030262
3164.000000	0.030150
3163.000000	0.030036
3162.000000	0.029921
3161.000000	0.029807
3160.000000	0.029698
3159.000000	0.029590
3158.000000	0.029480
3157.000000	0.029365
3156.000000	0.029242
3155.000000	0.029113
3154.000000	0.028990
3153.000000	0.028887
3152.000000	0.028806
3151.000000	0.028736
3150.000000	0.028664
3149.000000	0.028584
3148.000000	0.028494
3147.000000	0.028397
3146.000000	0.028301
3145.000000	0.028211
3144.000000	0.028124
3143.000000	0.028031
3142.000000	0.027930
3141.000000	0.027828
3140.000000	0.027740
3139.000000	0.027668
3138.000000	0.027607
3137.000000	0.027547
3136.000000	0.027478
3135.000000	0.027401
3134.000000	0.027322
3133.000000	0.027251
3132.000000	0.027190
3131.000000	0.027134
3130.000000	0.027079
3129.000000	0.027028
3128.000000	0.026975
3127.000000	0.026918
3126.000000	0.026851
3125.000000	0.026775
3124.000000	0.026692
3123.000000	0.026602
3122.000000	0.026514
3121.000000	0.026437
3120.000000	0.026373
3119.000000	0.026320
3118.000000	0.026277
3117.000000	0.026248
3116.000000	0.026239
3115.000000	0.026245
3114.000000	0.026255
3113.000000	0.026255
3112.000000	0.026236
3111.000000	0.026205
3110.000000	0.026177
3109.000000	0.026165
3108.000000	0.026171
3107.000000	0.026183
3106.000000	0.026191
3105.000000	0.026189
3104.000000	0.026174
3103.000000	0.026148
3102.000000	0.026119
3101.000000	0.026104
3100.000000	0.026112
3099.000000	0.026137
3098.000000	0.026168
3097.000000	0.026197
3096.000000	0.026218
3095.000000	0.026225
3094.000000	0.026214
3093.000000	0.026188
3092.000000	0.026159
3091.000000	0.026141
3090.000000	0.026140
3089.000000	0.026150
3088.000000	0.026154
3087.000000	0.026145
3086.000000	0.026131
3085.000000	0.026126
3084.000000	0.026133
3083.000000	0.026144
3082.000000	0.026147
3081.000000	0.026140
3080.000000	0.026134
3079.000000	0.026141
3078.000000	0.026172
3077.000000	0.026226
3076.000000	0.026289
3075.000000	0.026338
3074.000000	0.026363
3073.000000	0.026362
3072.000000	0.026336
3071.000000	0.026289
3070.000000	0.026229
3069.000000	0.026175
3068.000000	0.026144
3067.000000	0.026140
3066.000000	0.026153
3065.000000	0.026169
3064.000000	0.026179
3063.000000	0.026178
3062.000000	0.026163
3061.000000	0.026128
3060.000000	0.026071
3059.000000	0.025998
3058.000000	0.025921
3057.000000	0.025853
3056.000000	0.025795
3055.000000	0.025737
3054.000000	0.025669
3053.000000	0.025591
3052.000000	0.025513
3051.000000	0.025447
3050.000000	0.025398
3049.000000	0.025351
3048.000000	0.025288
3047.000000	0.025202
3046.000000	0.025101
3045.000000	0.024996
3044.000000	0.024896
3043.000000	0.024811
3042.000000	0.024756
3041.000000	0.024735
3040.000000	0.024731
3039.000000	0.024713
3038.000000	0.024658
3037.000000	0.024567
3036.000000	0.024459
3035.000000	0.024361
3034.000000	0.024290
3033.000000	0.024246
3032.000000	0.024217
3031.000000	0.024187
3030.000000	0.024152
3029.000000	0.024108
3028.000000	0.024045
3027.000000	0.023961
3026.000000	0.023866
3025.000000	0.023781
3024.000000	0.023711
3023.000000	0.023646
3022.000000	0.023575
3021.000000	0.023494
3020.000000	0.023409
3019.000000	0.023321
3018.000000	0.023228
3017.000000	0.023134
3016.000000	0.023044
3015.000000	0.022966
3014.000000	0.022906
3013.000000	0.022869
3012.000000	0.022853
3011.000000	0.022856
3010.000000	0.022868
3009.000000	0.022879
3008.000000	0.022880
3007.000000	0.022864
3006.000000	0.022836
3005.000000	0.022805
3004.000000	0.022782
3003.000000	0.022765
3002.000000	0.022750
3001.000000	0.022728
3000.000000	0.022700
2999.000000	0.022676
2998.000000	0.022668
2997.000000	0.022677
2996.000000	0.022694
2995.000000	0.022708
2994.000000	0.022725
2993.000000	0.022762
2992.000000	0.022827
2991.000000	0.022910
2990.000000	0.023000
2989.000000	0.023084
2988.000000	0.023159
2987.000000	0.023225
2986.000000	0.023286
2985.000000	0.023347
2984.000000	0.023408
2983.000000	0.023465
2982.000000	0.023518
2981.000000	0.023574
2980.000000	0.023638
2979.000000	0.023710
2978.000000	0.023785
2977.000000	0.023861
2976.000000	0.023936
2975.000000	0.024009
2974.000000	0.024080
2973.000000	0.024146
2972.000000	0.024203
2971.000000	0.024251
2970.000000	0.024294
2969.000000	0.024333
2968.000000	0.024364
2967.000000	0.024377
2966.000000	0.024371
2965.000000	0.024351
2964.000000	0.024327
2963.000000	0.024304
2962.000000	0.024284
2961.000000	0.024266
2960.000000	0.024243
2959.000000	0.024211
2958.000000	0.024170
2957.000000	0.024126
2956.000000	0.024076
2955.000000	0.024022
2954.000000	0.023973
2953.000000	0.023939
2952.000000	0.023921
2951.000000	0.023908
2950.000000	0.023893
2949.000000	0.023875
2948.000000	0.023862
2947.000000	0.023860
2946.000000	0.023874
2945.000000	0.023906
2944.000000	0.023955
2943.000000	0.024014
2942.000000	0.024077
2941.000000	0.024138
2940.000000	0.024191
2939.000000	0.024233
2938.000000	0.024264
2937.000000	0.024287
2936.000000	0.024301
2935.000000	0.024296
2934.000000	0.024263
2933.000000	0.024200
2932.000000	0.024113
2931.000000	0.024015
2930.000000	0.023916
2929.000000	0.023817
2928.000000	0.023708
2927.000000	0.023576
2926.000000	0.023419
2925.000000	0.023242
2924.000000	0.023049
2923.000000	0.022842
2922.000000	0.022622
2921.000000	0.022392
2920.000000	0.022157
2919.000000	0.021923
2918.000000	0.021712
2917.000000	0.021553
2916.000000	0.021472
2915.000000	0.021480
2914.000000	0.021568
2913.000000	0.021703
2912.000000	0.021840
2911.000000	0.021948
2910.000000	0.022016
2909.000000	0.022054
2908.000000	0.022070
2907.000000	0.022070
2906.000000	0.022060
2905.000000	0.022045
2904.000000	0.022028
2903.000000	0.022007
2902.000000	0.021984
2901.000000	0.021964
2900.000000	0.021946
2899.000000	0.021926
2898.000000	0.021906
2897.000000	0.021895
2896.000000	0.021895
2895.000000	0.021902
2894.000000	0.021910
2893.000000	0.021917
2892.000000	0.021925
2891.000000	0.021935
2890.000000	0.021948
2889.000000	0.021966
2888.000000	0.021990
2887.000000	0.022019
2886.000000	0.022057
2885.000000	0.022102
2884.000000	0.022151
2883.000000	0.022199
2882.000000	0.022244
2881.000000	0.022289
2880.000000	0.022332
2879.000000	0.022370
2878.000000	0.022397
2877.000000	0.022412
2876.000000	0.022410
2875.000000	0.022395
2874.000000	0.022375
2873.000000	0.022354
2872.000000	0.022328
2871.000000	0.022286
2870.000000	0.022223
2869.000000	0.022146
2868.000000	0.022061
2867.000000	0.021966
2866.000000	0.021862
2865.000000	0.021748
2864.000000	0.021628
2863.000000	0.021507
2862.000000	0.021390
2861.000000	0.021282
2860.000000	0.021182
2859.000000	0.021082
2858.000000	0.020979
2857.000000	0.020868
2856.000000	0.020747
2855.000000	0.020610
2854.000000	0.020451
2853.000000	0.020269
2852.000000	0.020061
2851.000000	0.019844
2850.000000	0.019657
2849.000000	0.019549
2848.000000	0.019545
2847.000000	0.019631
2846.000000	0.019766
2845.000000	0.019903
2844.000000	0.020013
2843.000000	0.020081
2842.000000	0.020111
2841.000000	0.020115
2840.000000	0.020105
2839.000000	0.020090
2838.000000	0.020073
2837.000000	0.020055
2836.000000	0.020037
2835.000000	0.020017
2834.000000	0.020000
2833.000000	0.019989
2832.000000	0.019980
2831.000000	0.019966
2830.000000	0.019939
2829.000000	0.019905
2828.000000	0.019869
2827.000000	0.019834
2826.000000	0.019803
2825.000000	0.019774
2824.000000	0.019749
2823.000000	0.019728
2822.000000	0.019712
2821.000000	0.019699
2820.000000	0.019683
2819.000000	0.019659
2818.000000	0.019629
2817.000000	0.019600
2816.000000	0.019575
2815.000000	0.019554
2814.000000	0.019532
2813.000000	0.019508
2812.000000	0.019484
2811.000000	0.019463
2810.000000	0.019449
2809.000000	0.019438
2808.000000	0.019424
2807.000000	0.019403
2806.000000	0.019379
2805.000000	0.019360
2804.000000	0.019344
2803.000000	0.019326
2802.000000	0.019302
2801.000000	0.019273
2800.000000	0.019245
2799.000000	0.019223
2798.000000	0.019208
2797.000000	0.019201
2796.000000	0.019194
2795.000000	0.019181
2794.000000	0.019159
2793.000000	0.019135
2792.000000	0.019114
2791.000000	0.019095
2790.000000	0.019078
2789.000000	0.019066
2788.000000	0.019058
2787.000000	0.019050
2786.000000	0.019039
2785.000000	0.019026
2784.000000	0.019011
2783.000000	0.018992
2782.000000	0.018971
2781.000000	0.018951
2780.000000	0.018931
2779.000000	0.018908
2778.000000	0.018881
2777.000000	0.018854
2776.000000	0.018828
2775.000000	0.018804
2774.000000	0.018786
2773.000000	0.018771
2772.000000	0.018758
2771.000000	0.018742
2770.000000	0.018724
2769.000000	0.018710
2768.000000	0.018700
2767.000000	0.018690
2766.000000	0.018676
2765.000000	0.018660
2764.000000	0.018644
2763.000000	0.018626
2762.000000	0.018607
2761.000000	0.018585
2760.000000	0.018558
2759.000000	0.018525
2758.000000	0.018492
2757.000000	0.018466
2756.000000	0.018448
2755.000000	0.018434
2754.000000	0.018422
2753.000000	0.018409
2752.000000	0.018393
2751.000000	0.018371
2750.000000	0.018346
2749.000000	0.018323
2748.000000	0.018305
2747.000000	0.018287
2746.000000	0.018268
2745.000000	0.018250
2744.000000	0.018231
2743.000000	0.018211
2742.000000	0.018190
2741.000000	0.018170
2740.000000	0.018150
2739.000000	0.018130
2738.000000	0.018109
2737.000000	0.018090
2736.000000	0.018073
2735.000000	0.018056
2734.000000	0.018037
2733.000000	0.018021
2732.000000	0.018007
2731.000000	0.017992
2730.000000	0.017971
2729.000000	0.017946
2728.000000	0.017919
2727.000000	0.017892
2726.000000	0.017868
2725.000000	0.017849
2724.000000	0.017831
2723.000000	0.017812
2722.000000	0.017793
2721.000000	0.017774
2720.000000	0.017755
2719.000000	0.017735
2718.000000	0.017714
2717.000000	0.017692
2716.000000	0.017670
2715.000000	0.017648
2714.000000	0.017628
2713.000000	0.017610
2712.000000	0.017594
2711.000000	0.017576
2710.000000	0.017557
2709.000000	0.017538
2708.000000	0.017518
2707.000000	0.017494
2706.000000	0.017466
2705.000000	0.017438
2704.000000	0.017416
2703.000000	0.017398
2702.000000	0.017386
2701.000000	0.017377
2700.000000	0.017367
2699.000000	0.017352
2698.000000	0.017335
2697.000000	0.017317
2696.000000	0.017299
2695.000000	0.017278
2694.000000	0.017257
2693.000000	0.017240
2692.000000	0.017228
2691.000000	0.017215
2690.000000	0.017201
2689.000000	0.017187
2688.000000	0.017173
2687.000000	0.017157
2686.000000	0.017136
2685.000000	0.017114
2684.000000	0.017096
2683.000000	0.017080
2682.000000	0.017066
2681.000000	0.017055
2680.000000	0.017043
2679.000000	0.017028
2678.000000	0.017013
2677.000000	0.017002
2676.000000	0.016997
2675.000000	0.016993
2674.000000	0.016985
2673.000000	0.016972
2672.000000	0.016958
2671.000000	0.016942
2670.000000	0.016930
2669.000000	0.016926
2668.000000	0.016933
2667.000000	0.016950
2666.000000	0.016975
2665.000000	0.017006
2664.000000	0.017036
2663.000000	0.017062
2662.000000	0.017083
2661.000000	0.017101
2660.000000	0.017115
2659.000000	0.017123
2658.000000	0.017126
2657.000000	0.017125
2656.000000	0.017122
2655.000000	0.017117
2654.000000	0.017107
2653.000000	0.017092
2652.000000	0.017072
2651.000000	0.017048
2650.000000	0.017027
2649.000000	0.017013
2648.000000	0.017001
2647.000000	0.016984
2646.000000	0.016961
2645.000000	0.016940
2644.000000	0.016924
2643.000000	0.016911
2642.000000	0.016898
2641.000000	0.016883
2640.000000	0.016864
2639.000000	0.016840
2638.000000	0.016815
2637.000000	0.016797
2636.000000	0.016783
2635.000000	0.016767
2634.000000	0.016746
2633.000000	0.016722
2632.000000	0.016700
2631.000000	0.016677
2630.000000	0.016654
2629.000000	0.016632
2628.000000	0.016614
2627.000000	0.016600
2626.000000	0.016589
2625.000000	0.016575
2624.000000	0.016551
2623.000000	0.016516
2622.000000	0.016478
2621.000000	0.016449
2620.000000	0.016433
2619.000000	0.016422
2618.000000	0.016412
2617.000000	0.016402
2616.000000	0.016386
2615.000000	0.016358
2614.000000	0.016320
2613.000000	0.016287
2612.000000	0.016265
2611.000000	0.016255
2610.000000	0.016250
2609.000000	0.016246
2608.000000	0.016237
2607.000000	0.016218
2606.000000	0.016189
2605.000000	0.016158
2604.000000	0.016129
2603.000000	0.016101
2602.000000	0.016078
2601.000000	0.016063
2600.000000	0.016051
2599.000000	0.016032
2598.000000	0.016005
2597.000000	0.015980
2596.000000	0.015960
2595.000000	0.015942
2594.000000	0.015920
2593.000000	0.015894
2592.000000	0.015867
2591.000000	0.015842
2590.000000	0.015825
2589.000000	0.015816
2588.000000	0.015804
2587.000000	0.015782
2586.000000	0.015757
2585.000000	0.015742
2584.000000	0.015736
2583.000000	0.015725
2582.000000	0.015704
2581.000000	0.015680
2580.000000	0.015660
2579.000000	0.015641
2578.000000	0.015622
2577.000000	0.015604
2576.000000	0.015586
2575.000000	0.015566
2574.000000	0.015544
2573.000000	0.015530
2572.000000	0.015523
2571.000000	0.015515
2570.000000	0.015501
2569.000000	0.015481
2568.000000	0.015459
2567.000000	0.015434
2566.000000	0.015409
2565.000000	0.015388
2564.000000	0.015369
2563.000000	0.015347
2562.000000	0.015322
2561.000000	0.015302
2560.000000	0.015291
2559.000000	0.015283
2558.000000	0.015278
2557.000000	0.015275
2556.000000	0.015271
2555.000000	0.015260
2554.000000	0.015242
2553.000000	0.015226
2552.000000	0.015212
2551.000000	0.015199
2550.000000	0.015189
2549.000000	0.015183
2548.000000	0.015176
2547.000000	0.015158
2546.000000	0.015129
2545.000000	0.015101
2544.000000	0.015081
2543.000000	0.015065
2542.000000	0.015049
2541.000000	0.015035
2540.000000	0.015022
2539.000000	0.015009
2538.000000	0.014997
2537.000000	0.014988
2536.000000	0.014980
2535.000000	0.014968
2534.000000	0.014957
2533.000000	0.014951
2532.000000	0.014947
2531.000000	0.014933
2530.000000	0.014908
2529.000000	0.014881
2528.000000	0.014859
2527.000000	0.014839
2526.000000	0.014825
2525.000000	0.014821
2524.000000	0.014823
2523.000000	0.014816
2522.000000	0.014796
2521.000000	0.014771
2520.000000	0.014749
2519.000000	0.014733
2518.000000	0.014719
2517.000000	0.014707
2516.000000	0.014694
2515.000000	0.014682
2514.000000	0.014673
2513.000000	0.014669
2512.000000	0.014664
2511.000000	0.014652
2510.000000	0.014637
2509.000000	0.014628
2508.000000	0.014626
2507.000000	0.014622
2506.000000	0.014613
2505.000000	0.014603
2504.000000	0.014595
2503.000000	0.014589
2502.000000	0.014585
2501.000000	0.014583
2500.000000	0.014578
2499.000000	0.014564
2498.000000	0.014543
2497.000000	0.014527
2496.000000	0.014518
2495.000000	0.014514
2494.000000	0.014512
2493.000000	0.014510
2492.000000	0.014504
2491.000000	0.014490
2490.000000	0.014477
2489.000000	0.014473
2488.000000	0.014478
2487.000000	0.014479
2486.000000	0.014471
2485.000000	0.014453
2484.000000	0.014425
2483.000000	0.014393
2482.000000	0.014364
2481.000000	0.014347
2480.000000	0.014338
2479.000000	0.014330
2478.000000	0.014327
2477.000000	0.014334
2476.000000	0.014343
2475.000000	0.014344
2474.000000	0.014334
2473.000000	0.014324
2472.000000	0.014315
2471.000000	0.014304
2470.000000	0.014292
2469.000000	0.014287
2468.000000	0.014289
2467.000000	0.014291
2466.000000	0.014292
2465.000000	0.014294
2464.000000	0.014293
2463.000000	0.014283
2462.000000	0.014274
2461.000000	0.014282
2460.000000	0.014303
2459.000000	0.014321
2458.000000	0.014327
2457.000000	0.014329
2456.000000	0.014331
2455.000000	0.014326
2454.000000	0.014314
2453.000000	0.014302
2452.000000	0.014292
2451.000000	0.014278
2450.000000	0.014254
2449.000000	0.014226
2448.000000	0.014197
2447.000000	0.014166
2446.000000	0.014135
2445.000000	0.014107
2444.000000	0.014082
2443.000000	0.014057
2442.000000	0.014034
2441.000000	0.014018
2440.000000	0.014006
2439.000000	0.013994
2438.000000	0.013979
2437.000000	0.013966
2436.000000	0.013953
2435.000000	0.013933
2434.000000	0.013905
2433.000000	0.013879
2432.000000	0.013861
2431.000000	0.013845
2430.000000	0.013827
2429.000000	0.013808
2428.000000	0.013788
2427.000000	0.013768
2426.000000	0.013757
2425.000000	0.013762
2424.000000	0.013771
2423.000000	0.013767
2422.000000	0.013747
2421.000000	0.013725
2420.000000	0.013709
2419.000000	0.013695
2418.000000	0.013682
2417.000000	0.013669
2416.000000	0.013657
2415.000000	0.013646
2414.000000	0.013638
2413.000000	0.013638
2412.000000	0.013634
2411.000000	0.013613
2410.000000	0.013574
2409.000000	0.013529
2408.000000	0.013488
2407.000000	0.013455
2406.000000	0.013434
2405.000000	0.013424
2404.000000	0.013415
2403.000000	0.013395
2402.000000	0.013368
2401.000000	0.013348
2400.000000	0.013336
2399.000000	0.013325
2398.000000	0.013311
2397.000000	0.013302
2396.000000	0.013300
2395.000000	0.013301
2394.000000	0.013300
2393.000000	0.013300
2392.000000	0.013297
2391.000000	0.013284
2390.000000	0.013260
2389.000000	0.013228
2388.000000	0.013192
2387.000000	0.013151
2386.000000	0.013111
2385.000000	0.013068
2384.000000	0.013011
2383.000000	0.012934
2382.000000	0.012848
2381.000000	0.012777
2380.000000	0.012733
2379.000000	0.012717
2378.000000	0.012730
2377.000000	0.012768
2376.000000	0.012812
2375.000000	0.012837
2374.000000	0.012831
2373.000000	0.012804
2372.000000	0.012764
2371.000000	0.012714
2370.000000	0.012664
2369.000000	0.012633
2368.000000	0.012624
2367.000000	0.012628
2366.000000	0.012641
2365.000000	0.012666
2364.000000	0.012695
2363.000000	0.012719
2362.000000	0.012737
2361.000000	0.012751
2360.000000	0.012753
2359.000000	0.012740
2358.000000	0.012724
2357.000000	0.012722
2356.000000	0.012732
2355.000000	0.012739
2354.000000	0.012733
2353.000000	0.012705
2352.000000	0.012665
2351.000000	0.012640
2350.000000	0.012670
2349.000000	0.012770
2348.000000	0.012913
2347.000000	0.013027
2346.000000	0.013051
2345.000000	0.013002
2344.000000	0.012952
2343.000000	0.012942
2342.000000	0.012962
2341.000000	0.012988
2340.000000	0.013010
2339.000000	0.013020
2338.000000	0.013022
2337.000000	0.013024
2336.000000	0.013029
2335.000000	0.013023
2334.000000	0.012997
2333.000000	0.012954
2332.000000	0.012905
2331.000000	0.012870
2330.000000	0.012903
2329.000000	0.013071
2328.000000	0.013391
2327.000000	0.013782
2326.000000	0.014092
2325.000000	0.014203
2324.000000	0.014101
2323.000000	0.013875
2322.000000	0.013643
2321.000000	0.013478
2320.000000	0.013389
2319.000000	0.013347
2318.000000	0.013327
2317.000000	0.013315
2316.000000	0.013296
2315.000000	0.013257
2314.000000	0.013198
2313.000000	0.013131
2312.000000	0.013065
2311.000000	0.013006
2310.000000	0.012958
2309.000000	0.012932
2308.000000	0.012928
2307.000000	0.012937
2306.000000	0.012954
2305.000000	0.012980
2304.000000	0.013013
2303.000000	0.013046
2302.000000	0.013075
2301.000000	0.013107
2300.000000	0.013140
2299.000000	0.013168
2298.000000	0.013192
2297.000000	0.013224
2296.000000	0.013278
2295.000000	0.013351
2294.000000	0.013434
2293.000000	0.013516
2292.000000	0.013585
2291.000000	0.013637
2290.000000	0.013686
2289.000000	0.013746
2288.000000	0.013806
2287.000000	0.013832
2286.000000	0.013805
2285.000000	0.013736
2284.000000	0.013648
2283.000000	0.013555
2282.000000	0.013466
2281.000000	0.013394
2280.000000	0.013345
2279.000000	0.013314
2278.000000	0.013299
2277.000000	0.013295
2276.000000	0.013293
2275.000000	0.013278
2274.000000	0.013255
2273.000000	0.013236
2272.000000	0.013223
2271.000000	0.013198
2270.000000	0.013151
2269.000000	0.013085
2268.000000	0.013007
2267.000000	0.012921
2266.000000	0.012847
2265.000000	0.012812
2264.000000	0.012823
2263.000000	0.012865
2262.000000	0.012920
2261.000000	0.012977
2260.000000	0.013013
2259.000000	0.012996
2258.000000	0.012919
2257.000000	0.012806
2256.000000	0.012695
2255.000000	0.012615
2254.000000	0.012587
2253.000000	0.012610
2252.000000	0.012650
2251.000000	0.012668
2250.000000	0.012661
2249.000000	0.012650
2248.000000	0.012643
2247.000000	0.012633
2246.000000	0.012630
2245.000000	0.012650
2244.000000	0.012688
2243.000000	0.012714
2242.000000	0.012719
2241.000000	0.012725
2240.000000	0.012737
2239.000000	0.012733
2238.000000	0.012701
2237.000000	0.012658
2236.000000	0.012626
2235.000000	0.012603
2234.000000	0.012584
2233.000000	0.012576
2232.000000	0.012580
2231.000000	0.012583
2230.000000	0.012577
2229.000000	0.012564
2228.000000	0.012545
2227.000000	0.012520
2226.000000	0.012503
2225.000000	0.012501
2224.000000	0.012501
2223.000000	0.012478
2222.000000	0.012440
2221.000000	0.012418
2220.000000	0.012413
2219.000000	0.012399
2218.000000	0.012364
2217.000000	0.012329
2216.000000	0.012320
2215.000000	0.012337
2214.000000	0.012367
2213.000000	0.012394
2212.000000	0.012398
2211.000000	0.012376
2210.000000	0.012351
2209.000000	0.012345
2208.000000	0.012348
2207.000000	0.012329
2206.000000	0.012292
2205.000000	0.012265
2204.000000	0.012260
2203.000000	0.012268
2202.000000	0.012287
2201.000000	0.012317
2200.000000	0.012337
2199.000000	0.012324
2198.000000	0.012299
2197.000000	0.012303
2196.000000	0.012334
2195.000000	0.012358
2194.000000	0.012360
2193.000000	0.012363
2192.000000	0.012371
2191.000000	0.012370
2190.000000	0.012369
2189.000000	0.012394
2188.000000	0.012440
2187.000000	0.012461
2186.000000	0.012421
2185.000000	0.012315
2184.000000	0.012144
2183.000000	0.011943
2182.000000	0.011800
2181.000000	0.011791
2180.000000	0.011872
2179.000000	0.011908
2178.000000	0.011819
2177.000000	0.011657
2176.000000	0.011532
2175.000000	0.011515
2174.000000	0.011630
2173.000000	0.011861
2172.000000	0.012146
2171.000000	0.012414
2170.000000	0.012624
2169.000000	0.012767
2168.000000	0.012828
2167.000000	0.012817
2166.000000	0.012813
2165.000000	0.012916
2164.000000	0.013086
2163.000000	0.013085
2162.000000	0.012628
2161.000000	0.011633
2160.000000	0.010360
2159.000000	0.009280
2158.000000	0.008734
2157.000000	0.008718
2156.000000	0.008969
2155.000000	0.009244
2154.000000	0.009472
2153.000000	0.009680
2152.000000	0.009867
2151.000000	0.009993
2150.000000	0.010051
2149.000000	0.010068
2148.000000	0.010055
2147.000000	0.010012
2146.000000	0.009971
2145.000000	0.009974
2144.000000	0.010010
2143.000000	0.010032
2142.000000	0.010026
2141.000000	0.010019
2140.000000	0.010020
2139.000000	0.010005
2138.000000	0.009944
2137.000000	0.009832
2136.000000	0.009690
2135.000000	0.009570
2134.000000	0.009540
2133.000000	0.009617
2132.000000	0.009744
2131.000000	0.009862
2130.000000	0.009977
2129.000000	0.010125
2128.000000	0.010294
2127.000000	0.010438
2126.000000	0.010547
2125.000000	0.010654
2124.000000	0.010774
2123.000000	0.010879
2122.000000	0.010948
2121.000000	0.010990
2120.000000	0.011029
2119.000000	0.011087
2118.000000	0.011174
2117.000000	0.011279
2116.000000	0.011362
2115.000000	0.011394
2114.000000	0.011395
2113.000000	0.011403
2112.000000	0.011421
2111.000000	0.011419
2110.000000	0.011391
2109.000000	0.011361
2108.000000	0.011341
2107.000000	0.011316
2106.000000	0.011281
2105.000000	0.011257
2104.000000	0.011254
2103.000000	0.011259
2102.000000	0.011261
2101.000000	0.011263
2100.000000	0.011256
2099.000000	0.011213
2098.000000	0.011121
2097.000000	0.010996
2096.000000	0.010868
2095.000000	0.010773
2094.000000	0.010750
2093.000000	0.010809
2092.000000	0.010907
2091.000000	0.010989
2090.000000	0.011038
2089.000000	0.011074
2088.000000	0.011106
2087.000000	0.011129
2086.000000	0.011147
2085.000000	0.011171
2084.000000	0.011200
2083.000000	0.011222
2082.000000	0.011241
2081.000000	0.011265
2080.000000	0.011282
2079.000000	0.011268
2078.000000	0.011232
2077.000000	0.011201
2076.000000	0.011178
2075.000000	0.011142
2074.000000	0.011089
2073.000000	0.011033
2072.000000	0.010980
2071.000000	0.010928
2070.000000	0.010895
2069.000000	0.010892
2068.000000	0.010897
2067.000000	0.010876
2066.000000	0.010837
2065.000000	0.010816
2064.000000	0.010822
2063.000000	0.010839
2062.000000	0.010860
2061.000000	0.010887
2060.000000	0.010910
2059.000000	0.010917
2058.000000	0.010910
2057.000000	0.010895
2056.000000	0.010882
2055.000000	0.010930
2054.000000	0.011134
2053.000000	0.011483
2052.000000	0.011783
2051.000000	0.011810
2050.000000	0.011547
2049.000000	0.011196
2048.000000	0.010946
2047.000000	0.010821
2046.000000	0.010767
2045.000000	0.010765
2044.000000	0.010792
2043.000000	0.010801
2042.000000	0.010781
2041.000000	0.010782
2040.000000	0.010831
2039.000000	0.010902
2038.000000	0.010960
2037.000000	0.010970
2036.000000	0.010875
2035.000000	0.010637
2034.000000	0.010328
2033.000000	0.010076
2032.000000	0.009929
2031.000000	0.009845
2030.000000	0.009812
2029.000000	0.009852
2028.000000	0.009924
2027.000000	0.009936
2026.000000	0.009869
2025.000000	0.009790
2024.000000	0.009730
2023.000000	0.009660
2022.000000	0.009587
2021.000000	0.009570
2020.000000	0.009618
2019.000000	0.009668
2018.000000	0.009678
2017.000000	0.009666
2016.000000	0.009649
2015.000000	0.009626
2014.000000	0.009627
2013.000000	0.009696
2012.000000	0.009807
2011.000000	0.009865
2010.000000	0.009805
2009.000000	0.009627
2008.000000	0.009378
2007.000000	0.009140
2006.000000	0.009016
2005.000000	0.009045
2004.000000	0.009155
2003.000000	0.009257
2002.000000	0.009350
2001.000000	0.009474
2000.000000	0.009603
1999.000000	0.009677
1998.000000	0.009706
1997.000000	0.009752
1996.000000	0.009825
1995.000000	0.009875
1994.000000	0.009884
1993.000000	0.009878
1992.000000	0.009863
1991.000000	0.009834
1990.000000	0.009832
1989.000000	0.009908
1988.000000	0.010032
1987.000000	0.010124
1986.000000	0.010171
1985.000000	0.010251
1984.000000	0.010426
1983.000000	0.010674
1982.000000	0.010905
1981.000000	0.010965
1980.000000	0.010694
1979.000000	0.010090
1978.000000	0.009408
1977.000000	0.008946
1976.000000	0.008750
1975.000000	0.008664
1974.000000	0.008598
1973.000000	0.008590
1972.000000	0.008650
1971.000000	0.008716
1970.000000	0.008753
1969.000000	0.008776
1968.000000	0.008779
1967.000000	0.008746
1966.000000	0.008719
1965.000000	0.008744
1964.000000	0.008762
1963.000000	0.008685
1962.000000	0.008536
1961.000000	0.008424
1960.000000	0.008395
1959.000000	0.008410
1958.000000	0.008453
1957.000000	0.008537
1956.000000	0.008631
1955.000000	0.008668
1954.000000	0.008648
1953.000000	0.008630
1952.000000	0.008639
1951.000000	0.008646
1950.000000	0.008649
1949.000000	0.008667
1948.000000	0.008681
1947.000000	0.008650
1946.000000	0.008597
1945.000000	0.008589
1944.000000	0.008646
1943.000000	0.008716
1942.000000	0.008759
1941.000000	0.008779
1940.000000	0.008768
1939.000000	0.008712
1938.000000	0.008634
1937.000000	0.008587
1936.000000	0.008587
1935.000000	0.008603
1934.000000	0.008622
1933.000000	0.008648
1932.000000	0.008663
1931.000000	0.008644
1930.000000	0.008614
1929.000000	0.008619
1928.000000	0.008652
1927.000000	0.008667
1926.000000	0.008657
1925.000000	0.008659
1924.000000	0.008691
1923.000000	0.008724
1922.000000	0.008744
1921.000000	0.008763
1920.000000	0.008785
1919.000000	0.008791
1918.000000	0.008784
1917.000000	0.008780
1916.000000	0.008777
1915.000000	0.008756
1914.000000	0.008728
1913.000000	0.008724
1912.000000	0.008738
1911.000000	0.008740
1910.000000	0.008724
1909.000000	0.008707
1908.000000	0.008689
1907.000000	0.008657
1906.000000	0.008626
1905.000000	0.008628
1904.000000	0.008656
1903.000000	0.008676
1902.000000	0.008677
1901.000000	0.008676
1900.000000	0.008667
1899.000000	0.008635
1898.000000	0.008593
1897.000000	0.008572
1896.000000	0.008576
1895.000000	0.008577
1894.000000	0.008566
1893.000000	0.008559
1892.000000	0.008552
1891.000000	0.008530
1890.000000	0.008500
1889.000000	0.008483
1888.000000	0.008473
1887.000000	0.008454
1886.000000	0.008438
1885.000000	0.008450
1884.000000	0.008473
1883.000000	0.008469
1882.000000	0.008443
1881.000000	0.008431
1880.000000	0.008439
1879.000000	0.008443
1878.000000	0.008438
1877.000000	0.008440
1876.000000	0.008446
1875.000000	0.008437
1874.000000	0.008413
1873.000000	0.008393
1872.000000	0.008366
1871.000000	0.008319
1870.000000	0.008274
1869.000000	0.008272
1868.000000	0.008298
1867.000000	0.008301
1866.000000	0.008279
1865.000000	0.008270
1864.000000	0.008282
1863.000000	0.008288
1862.000000	0.008282
1861.000000	0.008276
1860.000000	0.008266
1859.000000	0.008234
1858.000000	0.008194
1857.000000	0.008173
1856.000000	0.008170
1855.000000	0.008157
1854.000000	0.008134
1853.000000	0.008127
1852.000000	0.008132
1851.000000	0.008126
1850.000000	0.008109
1849.000000	0.008093
1848.000000	0.008060
1847.000000	0.007988
1846.000000	0.007912
1845.000000	0.007893
1844.000000	0.007926
1843.000000	0.007944
1842.000000	0.007924
1841.000000	0.007905
1840.000000	0.007904
1839.000000	0.007905
1838.000000	0.007903
1837.000000	0.007917
1836.000000	0.007946
1835.000000	0.007958
1834.000000	0.007945
1833.000000	0.007926
1832.000000	0.007908
1831.000000	0.007882
1830.000000	0.007854
1829.000000	0.007838
1828.000000	0.007827
1827.000000	0.007801
1826.000000	0.007776
1825.000000	0.007779
1824.000000	0.007797
1823.000000	0.007799
1822.000000	0.007780
1821.000000	0.007752
1820.000000	0.007703
1819.000000	0.007618
1818.000000	0.007528
1817.000000	0.007493
1816.000000	0.007523
1815.000000	0.007573
1814.000000	0.007619
1813.000000	0.007667
1812.000000	0.007712
1811.000000	0.007728
1810.000000	0.007715
1809.000000	0.007706
1808.000000	0.007713
1807.000000	0.007714
1806.000000	0.007708
1805.000000	0.007714
1804.000000	0.007723
1803.000000	0.007709
1802.000000	0.007678
1801.000000	0.007669
1800.000000	0.007689
1799.000000	0.007712
1798.000000	0.007728
1797.000000	0.007747
1796.000000	0.007755
1795.000000	0.007730
1794.000000	0.007693
1793.000000	0.007687
1792.000000	0.007708
1791.000000	0.007704
1790.000000	0.007679
1789.000000	0.007675
1788.000000	0.007690
1787.000000	0.007690
1786.000000	0.007673
1785.000000	0.007672
1784.000000	0.007692
1783.000000	0.007699
1782.000000	0.007691
1781.000000	0.007694
1780.000000	0.007698
1779.000000	0.007675
1778.000000	0.007638
1777.000000	0.007625
1776.000000	0.007632
1775.000000	0.007630
1774.000000	0.007631
1773.000000	0.007673
1772.000000	0.007724
1771.000000	0.007706
1770.000000	0.007636
1769.000000	0.007605
1768.000000	0.007636
1767.000000	0.007669
1766.000000	0.007674
1765.000000	0.007675
1764.000000	0.007686
1763.000000	0.007690
1762.000000	0.007681
1761.000000	0.007691
1760.000000	0.007719
1759.000000	0.007728
1758.000000	0.007723
1757.000000	0.007748
1756.000000	0.007796
1755.000000	0.007817
1754.000000	0.007813
1753.000000	0.007842
1752.000000	0.007915
1751.000000	0.007961
1750.000000	0.007951
1749.000000	0.007951
1748.000000	0.007999
1747.000000	0.008045
1746.000000	0.008072
1745.000000	0.008117
1744.000000	0.008181
1743.000000	0.008218
1742.000000	0.008227
1741.000000	0.008279
1740.000000	0.008401
1739.000000	0.008500
1738.000000	0.008518
1737.000000	0.008529
1736.000000	0.008622
1735.000000	0.008791
1734.000000	0.008958
1733.000000	0.009090
1732.000000	0.009176
1731.000000	0.009205
1730.000000	0.009226
1729.000000	0.009313
1728.000000	0.009456
1727.000000	0.009579
1726.000000	0.009671
1725.000000	0.009793
1724.000000	0.009962
1723.000000	0.010108
1722.000000	0.010180
1721.000000	0.010235
1720.000000	0.010353
1719.000000	0.010546
1718.000000	0.010791
1717.000000	0.011074
1716.000000	0.011340
1715.000000	0.011520
1714.000000	0.011672
1713.000000	0.011922
1712.000000	0.012278
1711.000000	0.012645
1710.000000	0.012996
1709.000000	0.013402
1708.000000	0.013914
1707.000000	0.014549
1706.000000	0.015367
1705.000000	0.016361
1704.000000	0.017322
1703.000000	0.018176
1702.000000	0.019297
1701.000000	0.021418
1700.000000	0.024391
1699.000000	0.026855
1698.000000	0.028385
1697.000000	0.029720
1696.000000	0.031258
1695.000000	0.032603
1694.000000	0.033353
1693.000000	0.033703
1692.000000	0.034006
1691.000000	0.034446
1690.000000	0.035039
1689.000000	0.035705
1688.000000	0.036311
1687.000000	0.036833
1686.000000	0.037476
1685.000000	0.038721
1684.000000	0.040587
1683.000000	0.042165
1682.000000	0.043119
1681.000000	0.043939
1680.000000	0.044878
1679.000000	0.045826
1678.000000	0.046660
1677.000000	0.047564
1676.000000	0.048866
1675.000000	0.050500
1674.000000	0.051963
1673.000000	0.053016
1672.000000	0.053908
1671.000000	0.055006
1670.000000	0.056522
1669.000000	0.058280
1668.000000	0.059836
1667.000000	0.060944
1666.000000	0.061718
1665.000000	0.062471
1664.000000	0.063532
1663.000000	0.064982
1662.000000	0.066526
1661.000000	0.067843
1660.000000	0.068906
1659.000000	0.069785
1658.000000	0.070499
1657.000000	0.070958
1656.000000	0.071217
1655.000000	0.071569
1654.000000	0.072973
1653.000000	0.075812
1652.000000	0.078173
1651.000000	0.078871
1650.000000	0.078646
1649.000000	0.078391
1648.000000	0.078829
1647.000000	0.080138
1646.000000	0.081669
1645.000000	0.082735
1644.000000	0.083321
1643.000000	0.083669
1642.000000	0.083992
1641.000000	0.084415
1640.000000	0.084858
1639.000000	0.085165
1638.000000	0.085387
1637.000000	0.085982
1636.000000	0.087412
1635.000000	0.089169
1634.000000	0.090308
1633.000000	0.090758
1632.000000	0.090937
1631.000000	0.091113
1630.000000	0.091435
1629.000000	0.092002
1628.000000	0.092790
1627.000000	0.093526
1626.000000	0.093993
1625.000000	0.094333
1624.000000	0.094896
1623.000000	0.095733
1622.000000	0.096410
1621.000000	0.096567
1620.000000	0.096279
1619.000000	0.095830
1618.000000	0.095530
1617.000000	0.095582
1616.000000	0.095742
1615.000000	0.095486
1614.000000	0.094654
1613.000000	0.093489
1612.000000	0.092263
1611.000000	0.091071
1610.000000	0.089849
1609.000000	0.088531
1608.000000	0.087126
1607.000000	0.085641
1606.000000	0.084036
1605.000000	0.082295
1604.000000	0.080472
1603.000000	0.078636
1602.000000	0.076790
1601.000000	0.074905
1600.000000	0.073011
1599.000000	0.071170
1598.000000	0.069388
1597.000000	0.067625
1596.000000	0.065891
1595.000000	0.064248
1594.000000	0.062708
1593.000000	0.061212
1592.000000	0.059736
1591.000000	0.058329
1590.000000	0.057012
1589.000000	0.055743
1588.000000	0.054508
1587.000000	0.053365
1586.000000	0.052346
1585.000000	0.051402
1584.000000	0.050498
1583.000000	0.049692
1582.000000	0.049024
1581.000000	0.048420
1580.000000	0.047803
1579.000000	0.047233
1578.000000	0.046862
1577.000000	0.046791
1576.000000	0.046972
1575.000000	0.047182
1574.000000	0.047209
1573.000000	0.047035
1572.000000	0.046831
1571.000000	0.046894
1570.000000	0.047426
1569.000000	0.048194
1568.000000	0.048801
1567.000000	0.049244
1566.000000	0.049755
1565.000000	0.050387
1564.000000	0.051006
1563.000000	0.051423
1562.000000	0.051643
1561.000000	0.051816
1560.000000	0.052590
1559.000000	0.054747
1558.000000	0.057058
1557.000000	0.058173
1556.000000	0.058669
1555.000000	0.059264
1554.000000	0.060132
1553.000000	0.061007
1552.000000	0.061687
1551.000000	0.062374
1550.000000	0.063261
1549.000000	0.064191
1548.000000	0.064886
1547.000000	0.065368
1546.000000	0.065876
1545.000000	0.066536
1544.000000	0.067222
1543.000000	0.067820
1542.000000	0.068490
1541.000000	0.069616
1540.000000	0.071307
1539.000000	0.072920
1538.000000	0.073814
1537.000000	0.074022
1536.000000	0.073935
1535.000000	0.074078
1534.000000	0.074881
1533.000000	0.076144
1532.000000	0.077194
1531.000000	0.077824
1530.000000	0.078272
1529.000000	0.078736
1528.000000	0.079322
1527.000000	0.080097
1526.000000	0.080992
1525.000000	0.081730
1524.000000	0.082180
1523.000000	0.082653
1522.000000	0.083639
1521.000000	0.084982
1520.000000	0.085925
1519.000000	0.086287
1518.000000	0.086519
1517.000000	0.086932
1516.000000	0.087373
1515.000000	0.087514
1514.000000	0.087288
1513.000000	0.086802
1512.000000	0.086164
1511.000000	0.085418
1510.000000	0.084531
1509.000000	0.083491
1508.000000	0.082454
1507.000000	0.081709
1506.000000	0.081121
1505.000000	0.080264
1504.000000	0.079043
1503.000000	0.077585
1502.000000	0.076017
1501.000000	0.074410
1500.000000	0.072812
1499.000000	0.071285
1498.000000	0.069805
1497.000000	0.068291
1496.000000	0.066758
1495.000000	0.065267
1494.000000	0.063767
1493.000000	0.062178
1492.000000	0.060504
1491.000000	0.058825
1490.000000	0.057224
1489.000000	0.055737
1488.000000	0.054369
1487.000000	0.053106
1486.000000	0.051907
1485.000000	0.050763
1484.000000	0.049684
1483.000000	0.048679
1482.000000	0.047755
1481.000000	0.046927
1480.000000	0.046203
1479.000000	0.045559
1478.000000	0.044971
1477.000000	0.044455
1476.000000	0.044046
1475.000000	0.043745
1474.000000	0.043562
1473.000000	0.043540
1472.000000	0.043649
1471.000000	0.043736
1470.000000	0.043695
1469.000000	0.043543
1468.000000	0.043346
1467.000000	0.043171
1466.000000	0.043091
1465.000000	0.043171
1464.000000	0.043377
1463.000000	0.043592
1462.000000	0.043726
1461.000000	0.043779
1460.000000	0.043838
1459.000000	0.044072
1458.000000	0.044727
1457.000000	0.045810
1456.000000	0.046826
1455.000000	0.047385
1454.000000	0.047585
1453.000000	0.047651
1452.000000	0.047711
1451.000000	0.047745
1450.000000	0.047701
1449.000000	0.047591
1448.000000	0.047460
1447.000000	0.047298
1446.000000	0.047046
1445.000000	0.046679
1444.000000	0.046226
1443.000000	0.045736
1442.000000	0.045217
1441.000000	0.044652
1440.000000	0.044043
1439.000000	0.043418
1438.000000	0.042812
1437.000000	0.042285
1436.000000	0.041895
1435.000000	0.041589
1434.000000	0.041249
1433.000000	0.040848
1432.000000	0.040467
1431.000000	0.040183
1430.000000	0.039995
1429.000000	0.039858
1428.000000	0.039760
1427.000000	0.039686
1426.000000	0.039631
1425.000000	0.039625
1424.000000	0.039697
1423.000000	0.039791
1422.000000	0.039821
1421.000000	0.039820
1420.000000	0.039961
1419.000000	0.040342
1418.000000	0.040777
1417.000000	0.041071
1416.000000	0.041264
1415.000000	0.041453
1414.000000	0.041654
1413.000000	0.041851
1412.000000	0.042063
1411.000000	0.042298
1410.000000	0.042511
1409.000000	0.042654
1408.000000	0.042744
1407.000000	0.042820
1406.000000	0.042905
1405.000000	0.043005
1404.000000	0.043099
1403.000000	0.043139
1402.000000	0.043082
1401.000000	0.042955
1400.000000	0.042850
1399.000000	0.042812
1398.000000	0.042776
1397.000000	0.042680
1396.000000	0.042577
1395.000000	0.042550
1394.000000	0.042585
1393.000000	0.042598
1392.000000	0.042552
1391.000000	0.042463
1390.000000	0.042353
1389.000000	0.042245
1388.000000	0.042180
1387.000000	0.042165
1386.000000	0.042132
1385.000000	0.042022
1384.000000	0.041854
1383.000000	0.041685
1382.000000	0.041530
1381.000000	0.041374
1380.000000	0.041220
1379.000000	0.041090
1378.000000	0.040972
1377.000000	0.040841
1376.000000	0.040719
1375.000000	0.040658
1374.000000	0.040663
1373.000000	0.040665
1372.000000	0.040623
1371.000000	0.040541
1370.000000	0.040423
1369.000000	0.040263
1368.000000	0.040067
1367.000000	0.039841
1366.000000	0.039577
1365.000000	0.039272
1364.000000	0.038969
1363.000000	0.038730
1362.000000	0.038551
1361.000000	0.038377
1360.000000	0.038192
1359.000000	0.038011
1358.000000	0.037839
1357.000000	0.037666
1356.000000	0.037507
1355.000000	0.037388
1354.000000	0.037299
1353.000000	0.037209
1352.000000	0.037118
1351.000000	0.037055
1350.000000	0.037025
1349.000000	0.037005
1348.000000	0.036988
1347.000000	0.036994
1346.000000	0.037022
1345.000000	0.037047
1344.000000	0.037062
1343.000000	0.037085
1342.000000	0.037119
1341.000000	0.037161
1340.000000	0.037224
1339.000000	0.037323
1338.000000	0.037437
1337.000000	0.037532
1336.000000	0.037613
1335.000000	0.037701
1334.000000	0.037797
1333.000000	0.037885
1332.000000	0.037975
1331.000000	0.038089
1330.000000	0.038222
1329.000000	0.038346
1328.000000	0.038461
1327.000000	0.038588
1326.000000	0.038719
1325.000000	0.038826
1324.000000	0.038905
1323.000000	0.038970
1322.000000	0.039016
1321.000000	0.039020
1320.000000	0.038986
1319.000000	0.038930
1318.000000	0.038843
1317.000000	0.038698
1316.000000	0.038508
1315.000000	0.038313
1314.000000	0.038126
1313.000000	0.037926
1312.000000	0.037710
1311.000000	0.037494
1310.000000	0.037282
1309.000000	0.037062
1308.000000	0.036846
1307.000000	0.036660
1306.000000	0.036499
1305.000000	0.036333
1304.000000	0.036159
1303.000000	0.036000
1302.000000	0.035855
1301.000000	0.035705
1300.000000	0.035552
1299.000000	0.035420
1298.000000	0.035309
1297.000000	0.035197
1296.000000	0.035087
1295.000000	0.035008
1294.000000	0.034959
1293.000000	0.034913
1292.000000	0.034859
1291.000000	0.034817
1290.000000	0.034788
1289.000000	0.034752
1288.000000	0.034710
1287.000000	0.034677
1286.000000	0.034649
1285.000000	0.034602
1284.000000	0.034535
1283.000000	0.034471
1282.000000	0.034410
1281.000000	0.034332
1280.000000	0.034244
1279.000000	0.034173
1278.000000	0.034115
1277.000000	0.034046
1276.000000	0.033970
1275.000000	0.033914
1274.000000	0.033883
1273.000000	0.033856
1272.000000	0.033837
1271.000000	0.033856
1270.000000	0.033911
1269.000000	0.033973
1268.000000	0.034039
1267.000000	0.034130
1266.000000	0.034251
1265.000000	0.034383
1264.000000	0.034531
1263.000000	0.034724
1262.000000	0.034963
1261.000000	0.035219
1260.000000	0.035491
1259.000000	0.035794
1258.000000	0.036120
1257.000000	0.036442
1256.000000	0.036762
1255.000000	0.037106
1254.000000	0.037464
1253.000000	0.037805
1252.000000	0.038125
1251.000000	0.038443
1250.000000	0.038755
1249.000000	0.039031
1248.000000	0.039273
1247.000000	0.039509
1246.000000	0.039743
1245.000000	0.039948
1244.000000	0.040121
1243.000000	0.040284
1242.000000	0.040435
1241.000000	0.040552
1240.000000	0.040640
1239.000000	0.040724
1238.000000	0.040805
1237.000000	0.040854
1236.000000	0.040871
1235.000000	0.040882
1234.000000	0.040885
1233.000000	0.040856
1232.000000	0.040795
1231.000000	0.040730
1230.000000	0.040664
1229.000000	0.040568
1228.000000	0.040440
1227.000000	0.040306
1226.000000	0.040171
1225.000000	0.040008
1224.000000	0.039817
1223.000000	0.039625
1222.000000	0.039434
1221.000000	0.039214
1220.000000	0.038963
1219.000000	0.038706
1218.000000	0.038445
1217.000000	0.038156
1216.000000	0.037840
1215.000000	0.037531
1214.000000	0.037230
1213.000000	0.036902
1212.000000	0.036537
1211.000000	0.036169
1210.000000	0.035809
1209.000000	0.035430
1208.000000	0.035027
1207.000000	0.034625
1206.000000	0.034230
1205.000000	0.033820
1204.000000	0.033399
1203.000000	0.033000
1202.000000	0.032628
1201.000000	0.032258
1200.000000	0.031892
1199.000000	0.031565
1198.000000	0.031278
1197.000000	0.030998
1196.000000	0.030719
1195.000000	0.030473
1194.000000	0.030260
1193.000000	0.030050
1192.000000	0.029844
1191.000000	0.029678
1190.000000	0.029550
1189.000000	0.029417
1188.000000	0.029274
1187.000000	0.029163
1186.000000	0.029098
1185.000000	0.029043
1184.000000	0.028983
1183.000000	0.028950
1182.000000	0.028956
1181.000000	0.028976
1180.000000	0.029010
1179.000000	0.029097
1178.000000	0.029241
1177.000000	0.029410
1176.000000	0.029593
1175.000000	0.029817
1174.000000	0.030079
1173.000000	0.030338
1172.000000	0.030580
1171.000000	0.030829
1170.000000	0.031083
1169.000000	0.031305
1168.000000	0.031494
1167.000000	0.031690
1166.000000	0.031899
1165.000000	0.032084
1164.000000	0.032232
1163.000000	0.032369
1162.000000	0.032491
1161.000000	0.032562
1160.000000	0.032579
1159.000000	0.032577
1158.000000	0.032558
1157.000000	0.032483
1156.000000	0.032347
1155.000000	0.032192
1154.000000	0.032028
1153.000000	0.031820
1152.000000	0.031568
1151.000000	0.031317
1150.000000	0.031077
1149.000000	0.030810
1148.000000	0.030511
1147.000000	0.030226
1146.000000	0.029969
1145.000000	0.029711
1144.000000	0.029453
1143.000000	0.029241
1142.000000	0.029079
1141.000000	0.028922
1140.000000	0.028758
1139.000000	0.028623
1138.000000	0.028526
1137.000000	0.028426
1136.000000	0.028321
1135.000000	0.028249
1134.000000	0.028211
1133.000000	0.028159
1132.000000	0.028080
1131.000000	0.028017
1130.000000	0.027978
1129.000000	0.027926
1128.000000	0.027852
1127.000000	0.027795
1126.000000	0.027756
1125.000000	0.027691
1124.000000	0.027595
1123.000000	0.027518
1122.000000	0.027469
1121.000000	0.027403
1120.000000	0.027314
1119.000000	0.027252
1118.000000	0.027228
1117.000000	0.027191
1116.000000	0.027126
1115.000000	0.027078
1114.000000	0.027062
1113.000000	0.027038
1112.000000	0.027002
1111.000000	0.026998
1110.000000	0.027034
1109.000000	0.027060
1108.000000	0.027067
1107.000000	0.027102
1106.000000	0.027176
1105.000000	0.027243
1104.000000	0.027291
1103.000000	0.027364
1102.000000	0.027465
1101.000000	0.027545
1100.000000	0.027604
1099.000000	0.027703
1098.000000	0.027854
1097.000000	0.028009
1096.000000	0.028168
1095.000000	0.028395
1094.000000	0.028698
1093.000000	0.029015
1092.000000	0.029324
1091.000000	0.029680
1090.000000	0.030109
1089.000000	0.030564
1088.000000	0.031032
1087.000000	0.031552
1086.000000	0.032119
1085.000000	0.032676
1084.000000	0.033212
1083.000000	0.033779
1082.000000	0.034381
1081.000000	0.034956
1080.000000	0.035483
1079.000000	0.036010
1078.000000	0.036541
1077.000000	0.037015
1076.000000	0.037420
1075.000000	0.037811
1074.000000	0.038198
1073.000000	0.038525
1072.000000	0.038782
1071.000000	0.039030
1070.000000	0.039277
1069.000000	0.039463
1068.000000	0.039564
1067.000000	0.039639
1066.000000	0.039713
1065.000000	0.039740
1064.000000	0.039702
1063.000000	0.039648
1062.000000	0.039585
1061.000000	0.039458
1060.000000	0.039253
1059.000000	0.039036
1058.000000	0.038832
1057.000000	0.038599
1056.000000	0.038331
1055.000000	0.038083
1054.000000	0.037871
1053.000000	0.037636
1052.000000	0.037366
1051.000000	0.037123
1050.000000	0.036926
1049.000000	0.036709
1048.000000	0.036445
1047.000000	0.036182
1046.000000	0.035927
1045.000000	0.035622
1044.000000	0.035256
1043.000000	0.034894
1042.000000	0.034560
1041.000000	0.034201
1040.000000	0.033804
1039.000000	0.033433
1038.000000	0.033108
1037.000000	0.032772
1036.000000	0.032404
1035.000000	0.032061
1034.000000	0.031765
1033.000000	0.031462
1032.000000	0.031121
1031.000000	0.030783
1030.000000	0.030454
1029.000000	0.030082
1028.000000	0.029659
1027.000000	0.029247
1026.000000	0.028866
1025.000000	0.028467
1024.000000	0.028045
1023.000000	0.027661
1022.000000	0.027330
1021.000000	0.026993
1020.000000	0.026632
1019.000000	0.026302
1018.000000	0.026019
1017.000000	0.025730
1016.000000	0.025426
1015.000000	0.025161
1014.000000	0.024943
1013.000000	0.024704
1012.000000	0.024430
1011.000000	0.024182
1010.000000	0.023982
1009.000000	0.023779
1008.000000	0.023562
1007.000000	0.023388
1006.000000	0.023271
1005.000000	0.023144
1004.000000	0.022988
1003.000000	0.022856
1002.000000	0.022765
1001.000000	0.022656
1000.000000	0.022507
999.000000	0.022376
998.000000	0.022286
997.000000	0.022189
996.000000	0.022077
995.000000	0.022001
994.000000	0.021962
993.000000	0.021890
992.000000	0.021765
991.000000	0.021649
990.000000	0.021571
989.000000	0.021483
988.000000	0.021372
987.000000	0.021295
986.000000	0.021266
985.000000	0.021224
984.000000	0.021146
983.000000	0.021088
982.000000	0.021076
981.000000	0.021063
980.000000	0.021031
979.000000	0.021032
978.000000	0.021076
977.000000	0.021102
976.000000	0.021092
975.000000	0.021109
974.000000	0.021179
973.000000	0.021254
972.000000	0.021315
971.000000	0.021414
970.000000	0.021567
969.000000	0.021723
968.000000	0.021863
967.000000	0.022038
966.000000	0.022257
965.000000	0.022456
964.000000	0.022598
963.000000	0.022717
962.000000	0.022818
961.000000	0.022848
960.000000	0.022802
959.000000	0.022747
958.000000	0.022710
957.000000	0.022639
956.000000	0.022522
955.000000	0.022416
954.000000	0.022342
953.000000	0.022249
952.000000	0.022124
951.000000	0.022029
950.000000	0.021983
949.000000	0.021929
948.000000	0.021851
947.000000	0.021801
946.000000	0.021791
945.000000	0.021756
944.000000	0.021674
943.000000	0.021611
942.000000	0.021597
941.000000	0.021583
940.000000	0.021542
939.000000	0.021524
938.000000	0.021539
937.000000	0.021529
936.000000	0.021476
935.000000	0.021442
934.000000	0.021450
933.000000	0.021444
932.000000	0.021403
931.000000	0.021378
930.000000	0.021385
929.000000	0.021363
928.000000	0.021287
927.000000	0.021211
926.000000	0.021159
925.000000	0.021079
924.000000	0.020959
923.000000	0.020858
922.000000	0.020791
921.000000	0.020698
920.000000	0.020566
919.000000	0.020468
918.000000	0.020435
917.000000	0.020404
916.000000	0.020346
915.000000	0.020313
914.000000	0.020325
913.000000	0.020324
912.000000	0.020289
911.000000	0.020281
910.000000	0.020324
909.000000	0.020357
908.000000	0.020360
907.000000	0.020391
906.000000	0.020466
905.000000	0.020520
904.000000	0.020530
903.000000	0.020560
902.000000	0.020626
901.000000	0.020655
900.000000	0.020612
899.000000	0.020561
898.000000	0.020537
897.000000	0.020488
896.000000	0.020393
895.000000	0.020312
894.000000	0.020269
893.000000	0.020204
892.000000	0.020097
891.000000	0.020016
890.000000	0.019982
889.000000	0.019925
888.000000	0.019824
887.000000	0.019750
886.000000	0.019733
885.000000	0.019703
884.000000	0.019625
883.000000	0.019568
882.000000	0.019566
881.000000	0.019557
880.000000	0.019515
879.000000	0.019499
878.000000	0.019538
877.000000	0.019570
876.000000	0.019568
875.000000	0.019592
874.000000	0.019658
873.000000	0.019693
872.000000	0.019674
871.000000	0.019674
870.000000	0.019718
869.000000	0.019732
868.000000	0.019692
867.000000	0.019674
866.000000	0.019706
865.000000	0.019716
864.000000	0.019675
863.000000	0.019654
862.000000	0.019684
861.000000	0.019697
860.000000	0.019667
859.000000	0.019670
858.000000	0.019738
857.000000	0.019804
856.000000	0.019834
855.000000	0.019889
854.000000	0.019992
853.000000	0.020071
852.000000	0.020093
851.000000	0.020123
850.000000	0.020191
849.000000	0.020239
848.000000	0.020248
847.000000	0.020294
846.000000	0.020394
845.000000	0.020471
844.000000	0.020500
843.000000	0.020569
842.000000	0.020721
841.000000	0.020878
840.000000	0.020992
839.000000	0.021126
838.000000	0.021313
837.000000	0.021497
836.000000	0.021651
835.000000	0.021842
834.000000	0.022096
833.000000	0.022336
832.000000	0.022531
831.000000	0.022750
830.000000	0.023018
829.000000	0.023247
828.000000	0.023393
827.000000	0.023528
826.000000	0.023691
825.000000	0.023815
824.000000	0.023882
823.000000	0.023981
822.000000	0.024147
821.000000	0.024297
820.000000	0.024402
819.000000	0.024543
818.000000	0.024752
817.000000	0.024947
816.000000	0.025089
815.000000	0.025253
814.000000	0.025469
813.000000	0.025659
812.000000	0.025785
811.000000	0.025921
810.000000	0.026096
809.000000	0.026236
808.000000	0.026316
807.000000	0.026426
806.000000	0.026605
805.000000	0.026762
804.000000	0.026847
803.000000	0.026938
802.000000	0.027095
801.000000	0.027265
800.000000	0.027419
799.000000	0.027622
798.000000	0.027889
797.000000	0.028133
796.000000	0.028320
795.000000	0.028532
794.000000	0.028806
793.000000	0.029068
792.000000	0.029290
791.000000	0.029554
790.000000	0.029897
789.000000	0.030234
788.000000	0.030519
787.000000	0.030824
786.000000	0.031191
785.000000	0.031551
784.000000	0.031865
783.000000	0.032199
782.000000	0.032577
781.000000	0.032919
780.000000	0.033193
779.000000	0.033474
778.000000	0.033797
777.000000	0.034078
776.000000	0.034273
775.000000	0.034455
774.000000	0.034669
773.000000	0.034857
772.000000	0.034994
771.000000	0.035149
770.000000	0.035351
769.000000	0.035518
768.000000	0.035610
767.000000	0.035697
766.000000	0.035816
765.000000	0.035900
764.000000	0.035927
763.000000	0.035980
762.000000	0.036101
761.000000	0.036216
760.000000	0.036291
759.000000	0.036402
758.000000	0.036579
757.000000	0.036738
756.000000	0.036841
755.000000	0.036974
754.000000	0.037183
753.000000	0.037390
752.000000	0.037545
751.000000	0.037713
750.000000	0.037931
749.000000	0.038117
748.000000	0.038223
747.000000	0.038320
746.000000	0.038458
745.000000	0.038578
744.000000	0.038644
743.000000	0.038727
742.000000	0.038865
741.000000	0.038993
740.000000	0.039085
739.000000	0.039218
738.000000	0.039429
737.000000	0.039651
736.000000	0.039852
735.000000	0.040101
734.000000	0.040422
733.000000	0.040736
732.000000	0.041021
731.000000	0.041377
730.000000	0.041850
729.000000	0.042359
728.000000	0.042857
727.000000	0.043411
726.000000	0.044053
725.000000	0.044701
724.000000	0.045306
723.000000	0.045932
722.000000	0.046615
721.000000	0.047292
720.000000	0.047946
719.000000	0.048658
718.000000	0.049442
717.000000	0.050194
716.000000	0.050874
715.000000	0.051570
714.000000	0.052316
713.000000	0.053018
712.000000	0.053632
711.000000	0.054257
710.000000	0.054955
709.000000	0.055644
708.000000	0.056274
707.000000	0.056917
706.000000	0.057611
705.000000	0.058261
704.000000	0.058811
703.000000	0.059334
702.000000	0.059865
701.000000	0.060296
700.000000	0.060561
699.000000	0.060745
698.000000	0.060918
697.000000	0.061020
696.000000	0.061018
695.000000	0.061009
694.000000	0.061042
693.000000	0.061037
692.000000	0.060968
691.000000	0.060955
690.000000	0.061060
689.000000	0.061171
688.000000	0.061205
687.000000	0.061241
686.000000	0.061337
685.000000	0.061399
684.000000	0.061377
683.000000	0.061376
682.000000	0.061454
681.000000	0.061514
680.000000	0.061501
679.000000	0.061513
678.000000	0.061601
677.000000	0.061664
676.000000	0.061652
675.000000	0.061674
674.000000	0.061772
673.000000	0.061811
672.000000	0.061708
671.000000	0.061578
670.000000	0.061540
669.000000	0.061583
668.000000	0.061758
667.000000	0.062070
666.000000	0.062282
665.000000	0.062345
664.000000	0.062366
663.000000	0.062460
662.000000	0.062623
661.000000	0.062728
660.000000	0.062740
659.000000	0.062791
658.000000	0.062945
657.000000	0.063100
656.000000	0.063199
655.000000	0.063328
654.000000	0.063535
653.000000	0.063727
652.000000	0.063857
651.000000	0.064019
650.000000	0.064256
649.000000	0.064477
648.000000	0.064647
647.000000	0.064876
646.000000	0.065204
645.000000	0.065509
644.000000	0.065725
643.000000	0.065958
642.000000	0.066270
641.000000	0.066559
640.000000	0.066769
639.000000	0.066996
638.000000	0.067291
637.000000	0.067545
636.000000	0.067713
635.000000	0.067916
634.000000	0.068221
633.000000	0.068508
632.000000	0.068704
631.000000	0.068912
630.000000	0.069193
629.000000	0.069424
628.000000	0.069522
627.000000	0.069584
626.000000	0.069686
625.000000	0.069740
624.000000	0.069694
623.000000	0.069663
622.000000	0.069713
621.000000	0.069727
620.000000	0.069634
619.000000	0.069538
618.000000	0.069499
617.000000	0.069391
616.000000	0.069143
615.000000	0.068889
614.000000	0.068728
613.000000	0.068556
612.000000	0.068308
611.000000	0.068104
610.000000	0.068019
609.000000	0.067930
608.000000	0.067760
607.000000	0.067624
606.000000	0.067593
605.000000	0.067530
604.000000	0.067360
603.000000	0.067224
602.000000	0.067217
601.000000	0.067208
600.000000	0.067107
599.000000	0.067030
598.000000	0.067041
597.000000	0.067010
596.000000	0.066879
595.000000	0.066809
594.000000	0.066874
593.000000	0.066914
592.000000	0.066840
591.000000	0.066810
590.000000	0.066907
589.000000	0.066957
588.000000	0.066869
587.000000	0.066816
586.000000	0.066917
585.000000	0.067020
584.000000	0.067009
583.000000	0.067025
582.000000	0.067157
581.000000	0.067244
580.000000	0.067187
579.000000	0.067165
578.000000	0.067298
577.000000	0.067430
576.000000	0.067446
575.000000	0.067478
574.000000	0.067607
573.000000	0.067672
572.000000	0.067611
571.000000	0.067619
570.000000	0.067786
569.000000	0.067900
568.000000	0.067842
567.000000	0.067820
566.000000	0.067971
565.000000	0.068108
564.000000	0.068101
563.000000	0.068118
562.000000	0.068265
561.000000	0.068353
560.000000	0.068285
559.000000	0.068268
558.000000	0.068418
557.000000	0.068527
556.000000	0.068473
555.000000	0.068466
554.000000	0.068629
553.000000	0.068735
552.000000	0.068641
551.000000	0.068565
550.000000	0.068671
549.000000	0.068768
548.000000	0.068720
547.000000	0.068714
546.000000	0.068858
545.000000	0.068922
544.000000	0.068790
543.000000	0.068718
542.000000	0.068865
541.000000	0.069005
540.000000	0.068973
539.000000	0.068969
538.000000	0.069122
537.000000	0.069213
536.000000	0.069116
535.000000	0.069076
534.000000	0.069241
533.000000	0.069366
532.000000	0.069305
531.000000	0.069309
530.000000	0.069532
529.000000	0.069710
528.000000	0.069658
527.000000	0.069625
526.000000	0.069825
525.000000	0.070033
524.000000	0.070067
523.000000	0.070144
522.000000	0.070400
521.000000	0.070575
520.000000	0.070491
519.000000	0.070390
518.000000	0.070449
517.000000	0.070421
516.000000	0.070166
515.000000	0.069981
514.000000	0.070026
513.000000	0.070005
512.000000	0.069749
511.000000	0.069559
510.000000	0.069645
509.000000	0.069739
508.000000	0.069639
507.000000	0.069588
506.000000	0.069730
505.000000	0.069747
504.000000	0.069476
503.000000	0.069284
502.000000	0.069425
501.000000	0.069551
500.000000	0.069382
499.000000	0.069189
498.000000	0.069190
497.000000	0.069129
496.000000	0.068841
495.000000	0.068658
494.000000	0.068801
493.000000	0.068943
492.000000	0.068822
491.000000	0.068727
490.000000	0.068870
489.000000	0.068918
488.000000	0.068645
487.000000	0.068387
486.000000	0.068393
485.000000	0.068343
484.000000	0.068029
483.000000	0.067856
482.000000	0.068046
481.000000	0.068143
480.000000	0.067855
479.000000	0.067622
478.000000	0.067788
477.000000	0.067935
476.000000	0.067667
475.000000	0.067329
474.000000	0.067333
473.000000	0.067415
472.000000	0.067276
471.000000	0.067276
470.000000	0.067636
469.000000	0.067868
468.000000	0.067690
467.000000	0.067570
466.000000	0.067806
465.000000	0.067895
464.000000	0.067523
463.000000	0.067243
462.000000	0.067479
461.000000	0.067737
460.000000	0.067552
459.000000	0.067357
458.000000	0.067618
457.000000	0.067838
456.000000	0.067586
455.000000	0.067372
454.000000	0.067514
453.000000	0.067506
452.000000	0.067049
451.000000	0.066742
450.000000	0.066985
449.000000	0.067207
448.000000	0.066940
447.000000	0.066657
446.000000	0.066805
445.000000	0.066914
444.000000	0.066545
443.000000	0.066151
442.000000	0.066112
441.000000	0.065903
440.000000	0.065194
439.000000	0.064599
438.000000	0.064527
437.000000	0.064398
436.000000	0.063749
435.000000	0.063198
434.000000	0.063235
433.000000	0.063250
432.000000	0.062749
431.000000	0.062301
430.000000	0.062339
429.000000	0.062183
428.000000	0.061367
427.000000	0.060670
426.000000	0.060761
425.000000	0.060946
424.000000	0.060477
423.000000	0.059987
422.000000	0.060113
421.000000	0.060057
420.000000	0.058998
419.000000	0.058017
418.000000	0.058327
417.000000	0.058607
416.000000	0.058028
415.000000	0.057685
414.000000	0.058226
413.000000	0.058629
412.000000	0.058045
411.000000	0.057425
410.000000	0.057596
409.000000	0.057553
408.000000	0.056591
407.000000	0.056017
406.000000	0.056696
405.000000	0.057071
404.000000	0.056034
403.000000	0.055225
402.000000	0.056158
401.000000	0.057275
400.000000	0.056691
