PE IR       SUBTECH     SPECTRUM    ASCII       PEDS        4.00        
   -1
PE_P viridans inner 10.ASC
24/08/19
16:44:17.00
24/08/19
16:45:19.00
Yarger Lab
Sample 324 By YargerLab Date Monday, August 19 2024
400.000000
#HDR
-1
-1
#GR
cm-1
A
1.0
0.0
4000.000000
-1.000000
3601
8
0.070393
0.005987
#DATA
4000.000000	0.011756
3999.000000	0.011763
3998.000000	0.011774
3997.000000	0.011786
3996.000000	0.011767
3995.000000	0.011769
3994.000000	0.011765
3993.000000	0.011758
3992.000000	0.011750
3991.000000	0.011744
3990.000000	0.011743
3989.000000	0.011746
3988.000000	0.011751
3987.000000	0.011755
3986.000000	0.011759
3985.000000	0.011763
3984.000000	0.011766
3983.000000	0.011767
3982.000000	0.011767
3981.000000	0.011767
3980.000000	0.011767
3979.000000	0.011765
3978.000000	0.011760
3977.000000	0.011752
3976.000000	0.011743
3975.000000	0.011737
3974.000000	0.011735
3973.000000	0.011733
3972.000000	0.011732
3971.000000	0.011728
3970.000000	0.011722
3969.000000	0.011716
3968.000000	0.011714
3967.000000	0.011716
3966.000000	0.011722
3965.000000	0.011728
3964.000000	0.011730
3963.000000	0.011728
3962.000000	0.011723
3961.000000	0.011720
3960.000000	0.011718
3959.000000	0.011718
3958.000000	0.011718
3957.000000	0.011718
3956.000000	0.011716
3955.000000	0.011712
3954.000000	0.011707
3953.000000	0.011700
3952.000000	0.011695
3951.000000	0.011694
3950.000000	0.011700
3949.000000	0.011711
3948.000000	0.011720
3947.000000	0.011718
3946.000000	0.011700
3945.000000	0.011675
3944.000000	0.011652
3943.000000	0.011642
3942.000000	0.011644
3941.000000	0.011649
3940.000000	0.011651
3939.000000	0.011649
3938.000000	0.011648
3937.000000	0.011649
3936.000000	0.011650
3935.000000	0.011649
3934.000000	0.011650
3933.000000	0.011652
3932.000000	0.011650
3931.000000	0.011640
3930.000000	0.011619
3929.000000	0.011594
3928.000000	0.011572
3927.000000	0.011561
3926.000000	0.011566
3925.000000	0.011586
3924.000000	0.011610
3923.000000	0.011625
3922.000000	0.011629
3921.000000	0.011625
3920.000000	0.011619
3919.000000	0.011613
3918.000000	0.011609
3917.000000	0.011605
3916.000000	0.011597
3915.000000	0.011585
3914.000000	0.011571
3913.000000	0.011560
3912.000000	0.011556
3911.000000	0.011556
3910.000000	0.011554
3909.000000	0.011547
3908.000000	0.011535
3907.000000	0.011522
3906.000000	0.011518
3905.000000	0.011527
3904.000000	0.011543
3903.000000	0.011553
3902.000000	0.011546
3901.000000	0.011527
3900.000000	0.011506
3899.000000	0.011491
3898.000000	0.011485
3897.000000	0.011485
3896.000000	0.011489
3895.000000	0.011491
3894.000000	0.011488
3893.000000	0.011482
3892.000000	0.011478
3891.000000	0.011480
3890.000000	0.011483
3889.000000	0.011483
3888.000000	0.011475
3887.000000	0.011465
3886.000000	0.011458
3885.000000	0.011454
3884.000000	0.011445
3883.000000	0.011430
3882.000000	0.011420
3881.000000	0.011426
3880.000000	0.011444
3879.000000	0.011455
3878.000000	0.011452
3877.000000	0.011440
3876.000000	0.011427
3875.000000	0.011419
3874.000000	0.011414
3873.000000	0.011399
3872.000000	0.011370
3871.000000	0.011341
3870.000000	0.011331
3869.000000	0.011336
3868.000000	0.011339
3867.000000	0.011331
3866.000000	0.011320
3865.000000	0.011317
3864.000000	0.011323
3863.000000	0.011332
3862.000000	0.011343
3861.000000	0.011358
3860.000000	0.011372
3859.000000	0.011376
3858.000000	0.011367
3857.000000	0.011347
3856.000000	0.011322
3855.000000	0.011299
3854.000000	0.011287
3853.000000	0.011275
3852.000000	0.011250
3851.000000	0.011226
3850.000000	0.011222
3849.000000	0.011236
3848.000000	0.011258
3847.000000	0.011278
3846.000000	0.011288
3845.000000	0.011291
3844.000000	0.011287
3843.000000	0.011279
3842.000000	0.011268
3841.000000	0.011259
3840.000000	0.011253
3839.000000	0.011252
3838.000000	0.011248
3837.000000	0.011238
3836.000000	0.011223
3835.000000	0.011211
3834.000000	0.011207
3833.000000	0.011212
3832.000000	0.011222
3831.000000	0.011230
3830.000000	0.011230
3829.000000	0.011223
3828.000000	0.011215
3827.000000	0.011209
3826.000000	0.011209
3825.000000	0.011207
3824.000000	0.011195
3823.000000	0.011173
3822.000000	0.011155
3821.000000	0.011152
3820.000000	0.011152
3819.000000	0.011139
3818.000000	0.011121
3817.000000	0.011111
3816.000000	0.011116
3815.000000	0.011124
3814.000000	0.011127
3813.000000	0.011132
3812.000000	0.011142
3811.000000	0.011155
3810.000000	0.011158
3809.000000	0.011147
3808.000000	0.011126
3807.000000	0.011107
3806.000000	0.011094
3805.000000	0.011082
3804.000000	0.011071
3803.000000	0.011066
3802.000000	0.011072
3801.000000	0.011082
3800.000000	0.011081
3799.000000	0.011071
3798.000000	0.011065
3797.000000	0.011068
3796.000000	0.011075
3795.000000	0.011071
3794.000000	0.011057
3793.000000	0.011042
3792.000000	0.011033
3791.000000	0.011028
3790.000000	0.011024
3789.000000	0.011018
3788.000000	0.011011
3787.000000	0.011002
3786.000000	0.010994
3785.000000	0.010987
3784.000000	0.010980
3783.000000	0.010970
3782.000000	0.010959
3781.000000	0.010955
3780.000000	0.010962
3779.000000	0.010973
3778.000000	0.010980
3777.000000	0.010980
3776.000000	0.010978
3775.000000	0.010981
3774.000000	0.010988
3773.000000	0.010994
3772.000000	0.010993
3771.000000	0.010983
3770.000000	0.010968
3769.000000	0.010952
3768.000000	0.010934
3767.000000	0.010918
3766.000000	0.010911
3765.000000	0.010911
3764.000000	0.010910
3763.000000	0.010900
3762.000000	0.010884
3761.000000	0.010871
3760.000000	0.010868
3759.000000	0.010870
3758.000000	0.010872
3757.000000	0.010874
3756.000000	0.010873
3755.000000	0.010864
3754.000000	0.010848
3753.000000	0.010829
3752.000000	0.010816
3751.000000	0.010808
3750.000000	0.010797
3749.000000	0.010782
3748.000000	0.010764
3747.000000	0.010743
3746.000000	0.010732
3745.000000	0.010741
3744.000000	0.010756
3743.000000	0.010753
3742.000000	0.010737
3741.000000	0.010727
3740.000000	0.010727
3739.000000	0.010729
3738.000000	0.010719
3737.000000	0.010699
3736.000000	0.010676
3735.000000	0.010656
3734.000000	0.010638
3733.000000	0.010626
3732.000000	0.010615
3731.000000	0.010604
3730.000000	0.010592
3729.000000	0.010585
3728.000000	0.010587
3727.000000	0.010594
3726.000000	0.010600
3725.000000	0.010599
3724.000000	0.010589
3723.000000	0.010575
3722.000000	0.010565
3721.000000	0.010557
3720.000000	0.010552
3719.000000	0.010550
3718.000000	0.010553
3717.000000	0.010558
3716.000000	0.010558
3715.000000	0.010545
3714.000000	0.010520
3713.000000	0.010488
3712.000000	0.010455
3711.000000	0.010427
3710.000000	0.010404
3709.000000	0.010392
3708.000000	0.010386
3707.000000	0.010386
3706.000000	0.010389
3705.000000	0.010393
3704.000000	0.010394
3703.000000	0.010389
3702.000000	0.010380
3701.000000	0.010371
3700.000000	0.010364
3699.000000	0.010361
3698.000000	0.010366
3697.000000	0.010379
3696.000000	0.010393
3695.000000	0.010400
3694.000000	0.010397
3693.000000	0.010386
3692.000000	0.010366
3691.000000	0.010340
3690.000000	0.010318
3689.000000	0.010306
3688.000000	0.010301
3687.000000	0.010301
3686.000000	0.010306
3685.000000	0.010315
3684.000000	0.010325
3683.000000	0.010332
3682.000000	0.010334
3681.000000	0.010334
3680.000000	0.010333
3679.000000	0.010329
3678.000000	0.010321
3677.000000	0.010319
3676.000000	0.010332
3675.000000	0.010344
3674.000000	0.010335
3673.000000	0.010307
3672.000000	0.010278
3671.000000	0.010267
3670.000000	0.010280
3669.000000	0.010303
3668.000000	0.010319
3667.000000	0.010331
3666.000000	0.010349
3665.000000	0.010375
3664.000000	0.010403
3663.000000	0.010428
3662.000000	0.010447
3661.000000	0.010464
3660.000000	0.010478
3659.000000	0.010487
3658.000000	0.010490
3657.000000	0.010494
3656.000000	0.010497
3655.000000	0.010496
3654.000000	0.010494
3653.000000	0.010496
3652.000000	0.010505
3651.000000	0.010521
3650.000000	0.010542
3649.000000	0.010556
3648.000000	0.010555
3647.000000	0.010550
3646.000000	0.010558
3645.000000	0.010580
3644.000000	0.010611
3643.000000	0.010644
3642.000000	0.010676
3641.000000	0.010706
3640.000000	0.010728
3639.000000	0.010742
3638.000000	0.010751
3637.000000	0.010762
3636.000000	0.010779
3635.000000	0.010801
3634.000000	0.010828
3633.000000	0.010855
3632.000000	0.010871
3631.000000	0.010873
3630.000000	0.010870
3629.000000	0.010879
3628.000000	0.010894
3627.000000	0.010906
3626.000000	0.010922
3625.000000	0.010954
3624.000000	0.010999
3623.000000	0.011047
3622.000000	0.011085
3621.000000	0.011106
3620.000000	0.011114
3619.000000	0.011118
3618.000000	0.011130
3617.000000	0.011154
3616.000000	0.011187
3615.000000	0.011223
3614.000000	0.011266
3613.000000	0.011317
3612.000000	0.011365
3611.000000	0.011397
3610.000000	0.011409
3609.000000	0.011415
3608.000000	0.011433
3607.000000	0.011465
3606.000000	0.011506
3605.000000	0.011545
3604.000000	0.011576
3603.000000	0.011601
3602.000000	0.011627
3601.000000	0.011659
3600.000000	0.011692
3599.000000	0.011718
3598.000000	0.011738
3597.000000	0.011758
3596.000000	0.011782
3595.000000	0.011814
3594.000000	0.011856
3593.000000	0.011905
3592.000000	0.011950
3591.000000	0.011983
3590.000000	0.012001
3589.000000	0.012016
3588.000000	0.012040
3587.000000	0.012078
3586.000000	0.012123
3585.000000	0.012171
3584.000000	0.012214
3583.000000	0.012250
3582.000000	0.012282
3581.000000	0.012313
3580.000000	0.012343
3579.000000	0.012373
3578.000000	0.012404
3577.000000	0.012442
3576.000000	0.012485
3575.000000	0.012529
3574.000000	0.012571
3573.000000	0.012609
3572.000000	0.012643
3571.000000	0.012670
3570.000000	0.012693
3569.000000	0.012723
3568.000000	0.012764
3567.000000	0.012812
3566.000000	0.012857
3565.000000	0.012903
3564.000000	0.012955
3563.000000	0.013016
3562.000000	0.013082
3561.000000	0.013147
3560.000000	0.013203
3559.000000	0.013247
3558.000000	0.013282
3557.000000	0.013316
3556.000000	0.013352
3555.000000	0.013393
3554.000000	0.013437
3553.000000	0.013483
3552.000000	0.013529
3551.000000	0.013573
3550.000000	0.013619
3549.000000	0.013672
3548.000000	0.013731
3547.000000	0.013790
3546.000000	0.013844
3545.000000	0.013892
3544.000000	0.013937
3543.000000	0.013981
3542.000000	0.014022
3541.000000	0.014060
3540.000000	0.014095
3539.000000	0.014130
3538.000000	0.014171
3537.000000	0.014221
3536.000000	0.014275
3535.000000	0.014327
3534.000000	0.014375
3533.000000	0.014419
3532.000000	0.014460
3531.000000	0.014500
3530.000000	0.014542
3529.000000	0.014590
3528.000000	0.014642
3527.000000	0.014692
3526.000000	0.014739
3525.000000	0.014788
3524.000000	0.014839
3523.000000	0.014889
3522.000000	0.014938
3521.000000	0.014983
3520.000000	0.015026
3519.000000	0.015070
3518.000000	0.015118
3517.000000	0.015171
3516.000000	0.015226
3515.000000	0.015278
3514.000000	0.015324
3513.000000	0.015366
3512.000000	0.015402
3511.000000	0.015434
3510.000000	0.015469
3509.000000	0.015512
3508.000000	0.015560
3507.000000	0.015612
3506.000000	0.015669
3505.000000	0.015731
3504.000000	0.015793
3503.000000	0.015847
3502.000000	0.015892
3501.000000	0.015933
3500.000000	0.015975
3499.000000	0.016019
3498.000000	0.016065
3497.000000	0.016112
3496.000000	0.016161
3495.000000	0.016210
3494.000000	0.016259
3493.000000	0.016313
3492.000000	0.016367
3491.000000	0.016421
3490.000000	0.016473
3489.000000	0.016524
3488.000000	0.016573
3487.000000	0.016618
3486.000000	0.016663
3485.000000	0.016713
3484.000000	0.016768
3483.000000	0.016825
3482.000000	0.016883
3481.000000	0.016938
3480.000000	0.016986
3479.000000	0.017028
3478.000000	0.017072
3477.000000	0.017122
3476.000000	0.017176
3475.000000	0.017229
3474.000000	0.017280
3473.000000	0.017334
3472.000000	0.017397
3471.000000	0.017466
3470.000000	0.017536
3469.000000	0.017599
3468.000000	0.017648
3467.000000	0.017683
3466.000000	0.017711
3465.000000	0.017744
3464.000000	0.017786
3463.000000	0.017838
3462.000000	0.017894
3461.000000	0.017951
3460.000000	0.018004
3459.000000	0.018054
3458.000000	0.018105
3457.000000	0.018158
3456.000000	0.018210
3455.000000	0.018258
3454.000000	0.018307
3453.000000	0.018361
3452.000000	0.018418
3451.000000	0.018475
3450.000000	0.018528
3449.000000	0.018578
3448.000000	0.018623
3447.000000	0.018663
3446.000000	0.018700
3445.000000	0.018744
3444.000000	0.018798
3443.000000	0.018862
3442.000000	0.018934
3441.000000	0.019008
3440.000000	0.019077
3439.000000	0.019138
3438.000000	0.019192
3437.000000	0.019246
3436.000000	0.019299
3435.000000	0.019348
3434.000000	0.019394
3433.000000	0.019443
3432.000000	0.019495
3431.000000	0.019546
3430.000000	0.019593
3429.000000	0.019633
3428.000000	0.019671
3427.000000	0.019708
3426.000000	0.019752
3425.000000	0.019806
3424.000000	0.019868
3423.000000	0.019931
3422.000000	0.019992
3421.000000	0.020049
3420.000000	0.020103
3419.000000	0.020153
3418.000000	0.020201
3417.000000	0.020254
3416.000000	0.020310
3415.000000	0.020368
3414.000000	0.020425
3413.000000	0.020483
3412.000000	0.020543
3411.000000	0.020600
3410.000000	0.020651
3409.000000	0.020695
3408.000000	0.020736
3407.000000	0.020777
3406.000000	0.020826
3405.000000	0.020884
3404.000000	0.020949
3403.000000	0.021012
3402.000000	0.021066
3401.000000	0.021111
3400.000000	0.021150
3399.000000	0.021189
3398.000000	0.021233
3397.000000	0.021285
3396.000000	0.021338
3395.000000	0.021385
3394.000000	0.021427
3393.000000	0.021470
3392.000000	0.021515
3391.000000	0.021563
3390.000000	0.021616
3389.000000	0.021676
3388.000000	0.021739
3387.000000	0.021798
3386.000000	0.021849
3385.000000	0.021895
3384.000000	0.021939
3383.000000	0.021983
3382.000000	0.022032
3381.000000	0.022085
3380.000000	0.022142
3379.000000	0.022199
3378.000000	0.022258
3377.000000	0.022318
3376.000000	0.022380
3375.000000	0.022440
3374.000000	0.022501
3373.000000	0.022564
3372.000000	0.022629
3371.000000	0.022696
3370.000000	0.022764
3369.000000	0.022836
3368.000000	0.022909
3367.000000	0.022979
3366.000000	0.023049
3365.000000	0.023124
3364.000000	0.023205
3363.000000	0.023286
3362.000000	0.023364
3361.000000	0.023435
3360.000000	0.023501
3359.000000	0.023567
3358.000000	0.023638
3357.000000	0.023720
3356.000000	0.023807
3355.000000	0.023891
3354.000000	0.023970
3353.000000	0.024048
3352.000000	0.024130
3351.000000	0.024219
3350.000000	0.024313
3349.000000	0.024410
3348.000000	0.024506
3347.000000	0.024598
3346.000000	0.024689
3345.000000	0.024782
3344.000000	0.024878
3343.000000	0.024978
3342.000000	0.025079
3341.000000	0.025180
3340.000000	0.025281
3339.000000	0.025386
3338.000000	0.025499
3337.000000	0.025623
3336.000000	0.025752
3335.000000	0.025879
3334.000000	0.026002
3333.000000	0.026125
3332.000000	0.026252
3331.000000	0.026382
3330.000000	0.026514
3329.000000	0.026645
3328.000000	0.026771
3327.000000	0.026897
3326.000000	0.027029
3325.000000	0.027172
3324.000000	0.027327
3323.000000	0.027487
3322.000000	0.027650
3321.000000	0.027815
3320.000000	0.027980
3319.000000	0.028147
3318.000000	0.028318
3317.000000	0.028495
3316.000000	0.028676
3315.000000	0.028858
3314.000000	0.029038
3313.000000	0.029213
3312.000000	0.029381
3311.000000	0.029543
3310.000000	0.029706
3309.000000	0.029877
3308.000000	0.030062
3307.000000	0.030263
3306.000000	0.030482
3305.000000	0.030715
3304.000000	0.030951
3303.000000	0.031182
3302.000000	0.031406
3301.000000	0.031624
3300.000000	0.031837
3299.000000	0.032042
3298.000000	0.032244
3297.000000	0.032449
3296.000000	0.032660
3295.000000	0.032871
3294.000000	0.033084
3293.000000	0.033301
3292.000000	0.033524
3291.000000	0.033749
3290.000000	0.033970
3289.000000	0.034183
3288.000000	0.034384
3287.000000	0.034572
3286.000000	0.034750
3285.000000	0.034924
3284.000000	0.035092
3283.000000	0.035249
3282.000000	0.035392
3281.000000	0.035523
3280.000000	0.035642
3279.000000	0.035745
3278.000000	0.035833
3277.000000	0.035903
3276.000000	0.035956
3275.000000	0.035990
3274.000000	0.036005
3273.000000	0.036004
3272.000000	0.035997
3271.000000	0.035994
3270.000000	0.035993
3269.000000	0.035986
3268.000000	0.035957
3267.000000	0.035901
3266.000000	0.035820
3265.000000	0.035721
3264.000000	0.035606
3263.000000	0.035475
3262.000000	0.035330
3261.000000	0.035174
3260.000000	0.035008
3259.000000	0.034833
3258.000000	0.034655
3257.000000	0.034482
3256.000000	0.034316
3255.000000	0.034152
3254.000000	0.033980
3253.000000	0.033796
3252.000000	0.033602
3251.000000	0.033402
3250.000000	0.033202
3249.000000	0.033011
3248.000000	0.032836
3247.000000	0.032676
3246.000000	0.032525
3245.000000	0.032372
3244.000000	0.032210
3243.000000	0.032042
3242.000000	0.031876
3241.000000	0.031715
3240.000000	0.031558
3239.000000	0.031399
3238.000000	0.031235
3237.000000	0.031066
3236.000000	0.030894
3235.000000	0.030729
3234.000000	0.030584
3233.000000	0.030466
3232.000000	0.030368
3231.000000	0.030275
3230.000000	0.030177
3229.000000	0.030072
3228.000000	0.029961
3227.000000	0.029849
3226.000000	0.029738
3225.000000	0.029629
3224.000000	0.029519
3223.000000	0.029404
3222.000000	0.029289
3221.000000	0.029181
3220.000000	0.029086
3219.000000	0.029001
3218.000000	0.028920
3217.000000	0.028837
3216.000000	0.028748
3215.000000	0.028658
3214.000000	0.028573
3213.000000	0.028495
3212.000000	0.028417
3211.000000	0.028334
3210.000000	0.028246
3209.000000	0.028156
3208.000000	0.028068
3207.000000	0.027984
3206.000000	0.027905
3205.000000	0.027834
3204.000000	0.027766
3203.000000	0.027698
3202.000000	0.027628
3201.000000	0.027557
3200.000000	0.027485
3199.000000	0.027411
3198.000000	0.027335
3197.000000	0.027256
3196.000000	0.027175
3195.000000	0.027091
3194.000000	0.027003
3193.000000	0.026916
3192.000000	0.026830
3191.000000	0.026746
3190.000000	0.026661
3189.000000	0.026574
3188.000000	0.026486
3187.000000	0.026399
3186.000000	0.026316
3185.000000	0.026238
3184.000000	0.026159
3183.000000	0.026075
3182.000000	0.025987
3181.000000	0.025903
3180.000000	0.025827
3179.000000	0.025756
3178.000000	0.025684
3177.000000	0.025603
3176.000000	0.025515
3175.000000	0.025422
3174.000000	0.025332
3173.000000	0.025243
3172.000000	0.025151
3171.000000	0.025057
3170.000000	0.024964
3169.000000	0.024874
3168.000000	0.024787
3167.000000	0.024698
3166.000000	0.024607
3165.000000	0.024516
3164.000000	0.024427
3163.000000	0.024337
3162.000000	0.024246
3161.000000	0.024156
3160.000000	0.024067
3159.000000	0.023979
3158.000000	0.023894
3157.000000	0.023813
3156.000000	0.023736
3155.000000	0.023657
3154.000000	0.023573
3153.000000	0.023486
3152.000000	0.023398
3151.000000	0.023314
3150.000000	0.023234
3149.000000	0.023159
3148.000000	0.023086
3147.000000	0.023015
3146.000000	0.022944
3145.000000	0.022876
3144.000000	0.022808
3143.000000	0.022737
3142.000000	0.022663
3141.000000	0.022587
3140.000000	0.022512
3139.000000	0.022441
3138.000000	0.022374
3137.000000	0.022309
3136.000000	0.022244
3135.000000	0.022178
3134.000000	0.022114
3133.000000	0.022053
3132.000000	0.021993
3131.000000	0.021931
3130.000000	0.021871
3129.000000	0.021816
3128.000000	0.021769
3127.000000	0.021722
3126.000000	0.021670
3125.000000	0.021612
3124.000000	0.021552
3123.000000	0.021492
3122.000000	0.021437
3121.000000	0.021387
3120.000000	0.021340
3119.000000	0.021296
3118.000000	0.021256
3117.000000	0.021223
3116.000000	0.021199
3115.000000	0.021182
3114.000000	0.021164
3113.000000	0.021142
3112.000000	0.021112
3111.000000	0.021077
3110.000000	0.021044
3109.000000	0.021020
3108.000000	0.021006
3107.000000	0.021000
3106.000000	0.020994
3105.000000	0.020986
3104.000000	0.020975
3103.000000	0.020961
3102.000000	0.020945
3101.000000	0.020930
3100.000000	0.020921
3099.000000	0.020919
3098.000000	0.020926
3097.000000	0.020936
3096.000000	0.020944
3095.000000	0.020941
3094.000000	0.020929
3093.000000	0.020917
3092.000000	0.020916
3091.000000	0.020927
3090.000000	0.020944
3089.000000	0.020956
3088.000000	0.020958
3087.000000	0.020950
3086.000000	0.020939
3085.000000	0.020928
3084.000000	0.020920
3083.000000	0.020916
3082.000000	0.020913
3081.000000	0.020913
3080.000000	0.020914
3079.000000	0.020920
3078.000000	0.020935
3077.000000	0.020958
3076.000000	0.020984
3075.000000	0.021003
3074.000000	0.021010
3073.000000	0.021006
3072.000000	0.020996
3071.000000	0.020982
3070.000000	0.020963
3069.000000	0.020939
3068.000000	0.020914
3067.000000	0.020895
3066.000000	0.020884
3065.000000	0.020880
3064.000000	0.020879
3063.000000	0.020879
3062.000000	0.020877
3061.000000	0.020867
3060.000000	0.020844
3059.000000	0.020806
3058.000000	0.020756
3057.000000	0.020706
3056.000000	0.020661
3055.000000	0.020618
3054.000000	0.020568
3053.000000	0.020507
3052.000000	0.020444
3051.000000	0.020391
3050.000000	0.020355
3049.000000	0.020325
3048.000000	0.020286
3047.000000	0.020229
3046.000000	0.020159
3045.000000	0.020086
3044.000000	0.020017
3043.000000	0.019958
3042.000000	0.019914
3041.000000	0.019888
3040.000000	0.019869
3039.000000	0.019839
3038.000000	0.019787
3037.000000	0.019715
3036.000000	0.019635
3035.000000	0.019566
3034.000000	0.019515
3033.000000	0.019481
3032.000000	0.019457
3031.000000	0.019434
3030.000000	0.019405
3029.000000	0.019366
3028.000000	0.019311
3027.000000	0.019242
3026.000000	0.019171
3025.000000	0.019107
3024.000000	0.019050
3023.000000	0.018993
3022.000000	0.018929
3021.000000	0.018860
3020.000000	0.018791
3019.000000	0.018727
3018.000000	0.018664
3017.000000	0.018601
3016.000000	0.018540
3015.000000	0.018486
3014.000000	0.018444
3013.000000	0.018411
3012.000000	0.018384
3011.000000	0.018360
3010.000000	0.018340
3009.000000	0.018325
3008.000000	0.018309
3007.000000	0.018286
3006.000000	0.018256
3005.000000	0.018225
3004.000000	0.018203
3003.000000	0.018192
3002.000000	0.018186
3001.000000	0.018178
3000.000000	0.018164
2999.000000	0.018148
2998.000000	0.018139
2997.000000	0.018137
2996.000000	0.018139
2995.000000	0.018142
2994.000000	0.018149
2993.000000	0.018170
2992.000000	0.018204
2991.000000	0.018249
2990.000000	0.018296
2989.000000	0.018342
2988.000000	0.018385
2987.000000	0.018426
2986.000000	0.018466
2985.000000	0.018508
2984.000000	0.018555
2983.000000	0.018606
2982.000000	0.018662
2981.000000	0.018720
2980.000000	0.018778
2979.000000	0.018834
2978.000000	0.018886
2977.000000	0.018936
2976.000000	0.018984
2975.000000	0.019028
2974.000000	0.019071
2973.000000	0.019114
2972.000000	0.019156
2971.000000	0.019192
2970.000000	0.019218
2969.000000	0.019233
2968.000000	0.019237
2967.000000	0.019234
2966.000000	0.019224
2965.000000	0.019206
2964.000000	0.019179
2963.000000	0.019141
2962.000000	0.019095
2961.000000	0.019045
2960.000000	0.018996
2959.000000	0.018951
2958.000000	0.018914
2957.000000	0.018884
2956.000000	0.018861
2955.000000	0.018849
2954.000000	0.018849
2953.000000	0.018859
2952.000000	0.018874
2951.000000	0.018885
2950.000000	0.018890
2949.000000	0.018892
2948.000000	0.018897
2947.000000	0.018910
2946.000000	0.018934
2945.000000	0.018966
2944.000000	0.019003
2943.000000	0.019037
2942.000000	0.019068
2941.000000	0.019090
2940.000000	0.019103
2939.000000	0.019103
2938.000000	0.019093
2937.000000	0.019072
2936.000000	0.019040
2935.000000	0.018991
2934.000000	0.018921
2933.000000	0.018829
2932.000000	0.018717
2931.000000	0.018587
2930.000000	0.018433
2929.000000	0.018247
2928.000000	0.018019
2927.000000	0.017746
2926.000000	0.017431
2925.000000	0.017077
2924.000000	0.016685
2923.000000	0.016246
2922.000000	0.015758
2921.000000	0.015225
2920.000000	0.014668
2919.000000	0.014124
2918.000000	0.013662
2917.000000	0.013367
2916.000000	0.013320
2915.000000	0.013551
2914.000000	0.014015
2913.000000	0.014603
2912.000000	0.015194
2911.000000	0.015697
2910.000000	0.016082
2909.000000	0.016357
2908.000000	0.016547
2907.000000	0.016675
2906.000000	0.016759
2905.000000	0.016813
2904.000000	0.016849
2903.000000	0.016873
2902.000000	0.016892
2901.000000	0.016907
2900.000000	0.016922
2899.000000	0.016937
2898.000000	0.016954
2897.000000	0.016972
2896.000000	0.016993
2895.000000	0.017016
2894.000000	0.017037
2893.000000	0.017055
2892.000000	0.017072
2891.000000	0.017093
2890.000000	0.017122
2889.000000	0.017159
2888.000000	0.017203
2887.000000	0.017252
2886.000000	0.017305
2885.000000	0.017363
2884.000000	0.017424
2883.000000	0.017486
2882.000000	0.017547
2881.000000	0.017602
2880.000000	0.017650
2879.000000	0.017690
2878.000000	0.017725
2877.000000	0.017754
2876.000000	0.017773
2875.000000	0.017781
2874.000000	0.017777
2873.000000	0.017763
2872.000000	0.017740
2871.000000	0.017705
2870.000000	0.017658
2869.000000	0.017595
2868.000000	0.017519
2867.000000	0.017432
2866.000000	0.017339
2865.000000	0.017241
2864.000000	0.017138
2863.000000	0.017028
2862.000000	0.016913
2861.000000	0.016796
2860.000000	0.016675
2859.000000	0.016542
2858.000000	0.016386
2857.000000	0.016194
2856.000000	0.015950
2855.000000	0.015636
2854.000000	0.015235
2853.000000	0.014741
2852.000000	0.014182
2851.000000	0.013633
2850.000000	0.013214
2849.000000	0.013045
2848.000000	0.013184
2847.000000	0.013587
2846.000000	0.014127
2845.000000	0.014667
2844.000000	0.015111
2843.000000	0.015430
2842.000000	0.015643
2841.000000	0.015779
2840.000000	0.015864
2839.000000	0.015918
2838.000000	0.015953
2837.000000	0.015978
2836.000000	0.015995
2835.000000	0.016003
2834.000000	0.016000
2833.000000	0.015988
2832.000000	0.015974
2831.000000	0.015960
2830.000000	0.015948
2829.000000	0.015934
2828.000000	0.015913
2827.000000	0.015886
2826.000000	0.015859
2825.000000	0.015838
2824.000000	0.015822
2823.000000	0.015807
2822.000000	0.015791
2821.000000	0.015775
2820.000000	0.015761
2819.000000	0.015751
2818.000000	0.015742
2817.000000	0.015731
2816.000000	0.015718
2815.000000	0.015704
2814.000000	0.015688
2813.000000	0.015671
2812.000000	0.015652
2811.000000	0.015632
2810.000000	0.015613
2809.000000	0.015597
2808.000000	0.015585
2807.000000	0.015575
2806.000000	0.015567
2805.000000	0.015557
2804.000000	0.015544
2803.000000	0.015531
2802.000000	0.015516
2801.000000	0.015499
2800.000000	0.015480
2799.000000	0.015456
2798.000000	0.015433
2797.000000	0.015412
2796.000000	0.015397
2795.000000	0.015388
2794.000000	0.015380
2793.000000	0.015371
2792.000000	0.015357
2791.000000	0.015340
2790.000000	0.015325
2789.000000	0.015312
2788.000000	0.015302
2787.000000	0.015292
2786.000000	0.015281
2785.000000	0.015267
2784.000000	0.015249
2783.000000	0.015228
2782.000000	0.015207
2781.000000	0.015191
2780.000000	0.015179
2779.000000	0.015169
2778.000000	0.015159
2777.000000	0.015146
2776.000000	0.015132
2775.000000	0.015116
2774.000000	0.015099
2773.000000	0.015083
2772.000000	0.015066
2771.000000	0.015049
2770.000000	0.015031
2769.000000	0.015013
2768.000000	0.014996
2767.000000	0.014982
2766.000000	0.014968
2765.000000	0.014956
2764.000000	0.014942
2763.000000	0.014924
2762.000000	0.014902
2761.000000	0.014877
2760.000000	0.014855
2759.000000	0.014840
2758.000000	0.014833
2757.000000	0.014831
2756.000000	0.014826
2755.000000	0.014813
2754.000000	0.014790
2753.000000	0.014764
2752.000000	0.014741
2751.000000	0.014723
2750.000000	0.014708
2749.000000	0.014691
2748.000000	0.014672
2747.000000	0.014651
2746.000000	0.014632
2745.000000	0.014616
2744.000000	0.014602
2743.000000	0.014591
2742.000000	0.014582
2741.000000	0.014571
2740.000000	0.014558
2739.000000	0.014541
2738.000000	0.014524
2737.000000	0.014509
2736.000000	0.014496
2735.000000	0.014485
2734.000000	0.014471
2733.000000	0.014454
2732.000000	0.014434
2731.000000	0.014412
2730.000000	0.014392
2729.000000	0.014376
2728.000000	0.014365
2727.000000	0.014357
2726.000000	0.014347
2725.000000	0.014333
2724.000000	0.014314
2723.000000	0.014294
2722.000000	0.014277
2721.000000	0.014266
2720.000000	0.014254
2719.000000	0.014239
2718.000000	0.014219
2717.000000	0.014199
2716.000000	0.014180
2715.000000	0.014163
2714.000000	0.014147
2713.000000	0.014133
2712.000000	0.014119
2711.000000	0.014104
2710.000000	0.014087
2709.000000	0.014065
2708.000000	0.014040
2707.000000	0.014017
2706.000000	0.014000
2705.000000	0.013989
2704.000000	0.013980
2703.000000	0.013967
2702.000000	0.013954
2701.000000	0.013942
2700.000000	0.013932
2699.000000	0.013921
2698.000000	0.013907
2697.000000	0.013888
2696.000000	0.013868
2695.000000	0.013848
2694.000000	0.013833
2693.000000	0.013824
2692.000000	0.013819
2691.000000	0.013815
2690.000000	0.013807
2689.000000	0.013794
2688.000000	0.013776
2687.000000	0.013755
2686.000000	0.013736
2685.000000	0.013721
2684.000000	0.013710
2683.000000	0.013703
2682.000000	0.013697
2681.000000	0.013690
2680.000000	0.013677
2679.000000	0.013659
2678.000000	0.013642
2677.000000	0.013632
2676.000000	0.013628
2675.000000	0.013623
2674.000000	0.013614
2673.000000	0.013603
2672.000000	0.013591
2671.000000	0.013582
2670.000000	0.013576
2669.000000	0.013574
2668.000000	0.013580
2667.000000	0.013596
2666.000000	0.013621
2665.000000	0.013649
2664.000000	0.013674
2663.000000	0.013691
2662.000000	0.013701
2661.000000	0.013708
2660.000000	0.013716
2659.000000	0.013725
2658.000000	0.013730
2657.000000	0.013729
2656.000000	0.013721
2655.000000	0.013707
2654.000000	0.013693
2653.000000	0.013685
2652.000000	0.013681
2651.000000	0.013677
2650.000000	0.013668
2649.000000	0.013654
2648.000000	0.013637
2647.000000	0.013620
2646.000000	0.013604
2645.000000	0.013588
2644.000000	0.013570
2643.000000	0.013552
2642.000000	0.013534
2641.000000	0.013516
2640.000000	0.013498
2639.000000	0.013480
2638.000000	0.013464
2637.000000	0.013454
2636.000000	0.013450
2635.000000	0.013446
2634.000000	0.013435
2633.000000	0.013414
2632.000000	0.013384
2631.000000	0.013354
2630.000000	0.013328
2629.000000	0.013310
2628.000000	0.013295
2627.000000	0.013281
2626.000000	0.013268
2625.000000	0.013258
2624.000000	0.013251
2623.000000	0.013242
2622.000000	0.013230
2621.000000	0.013217
2620.000000	0.013198
2619.000000	0.013173
2618.000000	0.013144
2617.000000	0.013117
2616.000000	0.013100
2615.000000	0.013087
2614.000000	0.013072
2613.000000	0.013050
2612.000000	0.013022
2611.000000	0.012995
2610.000000	0.012976
2609.000000	0.012968
2608.000000	0.012962
2607.000000	0.012951
2606.000000	0.012932
2605.000000	0.012914
2604.000000	0.012899
2603.000000	0.012885
2602.000000	0.012869
2601.000000	0.012852
2600.000000	0.012836
2599.000000	0.012823
2598.000000	0.012811
2597.000000	0.012798
2596.000000	0.012782
2595.000000	0.012760
2594.000000	0.012734
2593.000000	0.012707
2592.000000	0.012683
2591.000000	0.012662
2590.000000	0.012645
2589.000000	0.012630
2588.000000	0.012614
2587.000000	0.012595
2586.000000	0.012576
2585.000000	0.012561
2584.000000	0.012555
2583.000000	0.012553
2582.000000	0.012546
2581.000000	0.012532
2580.000000	0.012509
2579.000000	0.012482
2578.000000	0.012459
2577.000000	0.012443
2576.000000	0.012434
2575.000000	0.012425
2574.000000	0.012411
2573.000000	0.012394
2572.000000	0.012377
2571.000000	0.012361
2570.000000	0.012347
2569.000000	0.012335
2568.000000	0.012322
2567.000000	0.012306
2566.000000	0.012289
2565.000000	0.012272
2564.000000	0.012259
2563.000000	0.012249
2562.000000	0.012242
2561.000000	0.012239
2560.000000	0.012236
2559.000000	0.012227
2558.000000	0.012213
2557.000000	0.012201
2556.000000	0.012195
2555.000000	0.012192
2554.000000	0.012187
2553.000000	0.012179
2552.000000	0.012168
2551.000000	0.012155
2550.000000	0.012142
2549.000000	0.012131
2548.000000	0.012124
2547.000000	0.012117
2546.000000	0.012105
2545.000000	0.012088
2544.000000	0.012068
2543.000000	0.012047
2542.000000	0.012027
2541.000000	0.012010
2540.000000	0.011997
2539.000000	0.011986
2538.000000	0.011974
2537.000000	0.011962
2536.000000	0.011950
2535.000000	0.011936
2534.000000	0.011921
2533.000000	0.011906
2532.000000	0.011897
2531.000000	0.011890
2530.000000	0.011884
2529.000000	0.011880
2528.000000	0.011879
2527.000000	0.011883
2526.000000	0.011889
2525.000000	0.011888
2524.000000	0.011875
2523.000000	0.011852
2522.000000	0.011828
2521.000000	0.011808
2520.000000	0.011791
2519.000000	0.011777
2518.000000	0.011768
2517.000000	0.011768
2516.000000	0.011768
2515.000000	0.011757
2514.000000	0.011735
2513.000000	0.011712
2512.000000	0.011701
2511.000000	0.011703
2510.000000	0.011709
2509.000000	0.011711
2508.000000	0.011704
2507.000000	0.011690
2506.000000	0.011673
2505.000000	0.011662
2504.000000	0.011660
2503.000000	0.011664
2502.000000	0.011667
2501.000000	0.011667
2500.000000	0.011667
2499.000000	0.011671
2498.000000	0.011678
2497.000000	0.011682
2496.000000	0.011675
2495.000000	0.011656
2494.000000	0.011630
2493.000000	0.011604
2492.000000	0.011583
2491.000000	0.011568
2490.000000	0.011560
2489.000000	0.011558
2488.000000	0.011557
2487.000000	0.011552
2486.000000	0.011537
2485.000000	0.011516
2484.000000	0.011495
2483.000000	0.011484
2482.000000	0.011487
2481.000000	0.011499
2480.000000	0.011512
2479.000000	0.011517
2478.000000	0.011509
2477.000000	0.011492
2476.000000	0.011472
2475.000000	0.011456
2474.000000	0.011446
2473.000000	0.011440
2472.000000	0.011435
2471.000000	0.011433
2470.000000	0.011437
2469.000000	0.011449
2468.000000	0.011462
2467.000000	0.011467
2466.000000	0.011466
2465.000000	0.011465
2464.000000	0.011469
2463.000000	0.011477
2462.000000	0.011484
2461.000000	0.011486
2460.000000	0.011481
2459.000000	0.011475
2458.000000	0.011478
2457.000000	0.011492
2456.000000	0.011510
2455.000000	0.011514
2454.000000	0.011499
2453.000000	0.011470
2452.000000	0.011436
2451.000000	0.011401
2450.000000	0.011370
2449.000000	0.011348
2448.000000	0.011340
2447.000000	0.011339
2446.000000	0.011338
2445.000000	0.011330
2444.000000	0.011316
2443.000000	0.011295
2442.000000	0.011271
2441.000000	0.011247
2440.000000	0.011226
2439.000000	0.011210
2438.000000	0.011202
2437.000000	0.011204
2436.000000	0.011209
2435.000000	0.011205
2434.000000	0.011185
2433.000000	0.011157
2432.000000	0.011131
2431.000000	0.011113
2430.000000	0.011100
2429.000000	0.011089
2428.000000	0.011077
2427.000000	0.011064
2426.000000	0.011052
2425.000000	0.011042
2424.000000	0.011033
2423.000000	0.011024
2422.000000	0.011012
2421.000000	0.010997
2420.000000	0.010982
2419.000000	0.010965
2418.000000	0.010949
2417.000000	0.010936
2416.000000	0.010928
2415.000000	0.010924
2414.000000	0.010921
2413.000000	0.010921
2412.000000	0.010921
2411.000000	0.010918
2410.000000	0.010905
2409.000000	0.010877
2408.000000	0.010835
2407.000000	0.010788
2406.000000	0.010751
2405.000000	0.010732
2404.000000	0.010730
2403.000000	0.010732
2402.000000	0.010732
2401.000000	0.010729
2400.000000	0.010726
2399.000000	0.010721
2398.000000	0.010714
2397.000000	0.010707
2396.000000	0.010701
2395.000000	0.010696
2394.000000	0.010687
2393.000000	0.010676
2392.000000	0.010666
2391.000000	0.010658
2390.000000	0.010650
2389.000000	0.010638
2388.000000	0.010620
2387.000000	0.010598
2386.000000	0.010574
2385.000000	0.010544
2384.000000	0.010507
2383.000000	0.010465
2382.000000	0.010428
2381.000000	0.010404
2380.000000	0.010394
2379.000000	0.010393
2378.000000	0.010392
2377.000000	0.010390
2376.000000	0.010389
2375.000000	0.010392
2374.000000	0.010396
2373.000000	0.010395
2372.000000	0.010382
2371.000000	0.010355
2370.000000	0.010321
2369.000000	0.010293
2368.000000	0.010280
2367.000000	0.010283
2366.000000	0.010297
2365.000000	0.010317
2364.000000	0.010334
2363.000000	0.010340
2362.000000	0.010339
2361.000000	0.010336
2360.000000	0.010339
2359.000000	0.010346
2358.000000	0.010352
2357.000000	0.010355
2356.000000	0.010347
2355.000000	0.010319
2354.000000	0.010274
2353.000000	0.010240
2352.000000	0.010250
2351.000000	0.010306
2350.000000	0.010387
2349.000000	0.010463
2348.000000	0.010506
2347.000000	0.010511
2346.000000	0.010502
2345.000000	0.010508
2344.000000	0.010528
2343.000000	0.010549
2342.000000	0.010567
2341.000000	0.010581
2340.000000	0.010590
2339.000000	0.010592
2338.000000	0.010590
2337.000000	0.010586
2336.000000	0.010579
2335.000000	0.010563
2334.000000	0.010538
2333.000000	0.010515
2332.000000	0.010503
2331.000000	0.010510
2330.000000	0.010564
2329.000000	0.010710
2328.000000	0.010967
2327.000000	0.011280
2326.000000	0.011538
2325.000000	0.011646
2324.000000	0.011586
2323.000000	0.011425
2322.000000	0.011252
2321.000000	0.011118
2320.000000	0.011030
2319.000000	0.010975
2318.000000	0.010939
2317.000000	0.010910
2316.000000	0.010878
2315.000000	0.010841
2314.000000	0.010810
2313.000000	0.010791
2312.000000	0.010781
2311.000000	0.010768
2310.000000	0.010748
2309.000000	0.010728
2308.000000	0.010718
2307.000000	0.010722
2306.000000	0.010735
2305.000000	0.010749
2304.000000	0.010759
2303.000000	0.010768
2302.000000	0.010779
2301.000000	0.010793
2300.000000	0.010809
2299.000000	0.010830
2298.000000	0.010857
2297.000000	0.010890
2296.000000	0.010926
2295.000000	0.010969
2294.000000	0.011024
2293.000000	0.011086
2292.000000	0.011145
2291.000000	0.011190
2290.000000	0.011224
2289.000000	0.011248
2288.000000	0.011257
2287.000000	0.011239
2286.000000	0.011195
2285.000000	0.011133
2284.000000	0.011064
2283.000000	0.010997
2282.000000	0.010937
2281.000000	0.010890
2280.000000	0.010858
2279.000000	0.010837
2278.000000	0.010819
2277.000000	0.010795
2276.000000	0.010766
2275.000000	0.010739
2274.000000	0.010719
2273.000000	0.010705
2272.000000	0.010689
2271.000000	0.010667
2270.000000	0.010645
2269.000000	0.010624
2268.000000	0.010597
2267.000000	0.010559
2266.000000	0.010513
2265.000000	0.010476
2264.000000	0.010458
2263.000000	0.010458
2262.000000	0.010467
2261.000000	0.010476
2260.000000	0.010475
2259.000000	0.010456
2258.000000	0.010415
2257.000000	0.010350
2256.000000	0.010274
2255.000000	0.010213
2254.000000	0.010190
2253.000000	0.010196
2252.000000	0.010206
2251.000000	0.010199
2250.000000	0.010183
2249.000000	0.010175
2248.000000	0.010182
2247.000000	0.010197
2246.000000	0.010212
2245.000000	0.010221
2244.000000	0.010224
2243.000000	0.010224
2242.000000	0.010228
2241.000000	0.010229
2240.000000	0.010217
2239.000000	0.010192
2238.000000	0.010174
2237.000000	0.010181
2236.000000	0.010208
2235.000000	0.010238
2234.000000	0.010254
2233.000000	0.010251
2232.000000	0.010225
2231.000000	0.010183
2230.000000	0.010139
2229.000000	0.010105
2228.000000	0.010076
2227.000000	0.010047
2226.000000	0.010030
2225.000000	0.010035
2224.000000	0.010055
2223.000000	0.010067
2222.000000	0.010060
2221.000000	0.010037
2220.000000	0.010008
2219.000000	0.009981
2218.000000	0.009969
2217.000000	0.009982
2216.000000	0.010013
2215.000000	0.010044
2214.000000	0.010061
2213.000000	0.010061
2212.000000	0.010043
2211.000000	0.010006
2210.000000	0.009961
2209.000000	0.009928
2208.000000	0.009918
2207.000000	0.009927
2206.000000	0.009938
2205.000000	0.009946
2204.000000	0.009954
2203.000000	0.009968
2202.000000	0.009983
2201.000000	0.009989
2200.000000	0.009973
2199.000000	0.009946
2198.000000	0.009933
2197.000000	0.009949
2196.000000	0.009987
2195.000000	0.010022
2194.000000	0.010042
2193.000000	0.010047
2192.000000	0.010037
2191.000000	0.010021
2190.000000	0.010018
2189.000000	0.010057
2188.000000	0.010135
2187.000000	0.010206
2186.000000	0.010204
2185.000000	0.010089
2184.000000	0.009894
2183.000000	0.009703
2182.000000	0.009599
2181.000000	0.009597
2180.000000	0.009639
2179.000000	0.009650
2178.000000	0.009595
2177.000000	0.009499
2176.000000	0.009421
2175.000000	0.009411
2174.000000	0.009481
2173.000000	0.009608
2172.000000	0.009759
2171.000000	0.009913
2170.000000	0.010062
2169.000000	0.010192
2168.000000	0.010284
2167.000000	0.010341
2166.000000	0.010401
2165.000000	0.010510
2164.000000	0.010637
2163.000000	0.010632
2162.000000	0.010272
2161.000000	0.009436
2160.000000	0.008301
2159.000000	0.007290
2158.000000	0.006754
2157.000000	0.006720
2156.000000	0.006969
2155.000000	0.007275
2154.000000	0.007534
2153.000000	0.007728
2152.000000	0.007860
2151.000000	0.007929
2150.000000	0.007955
2149.000000	0.007965
2148.000000	0.007989
2147.000000	0.008034
2146.000000	0.008092
2145.000000	0.008139
2144.000000	0.008163
2143.000000	0.008176
2142.000000	0.008205
2141.000000	0.008249
2140.000000	0.008278
2139.000000	0.008257
2138.000000	0.008171
2137.000000	0.008025
2136.000000	0.007847
2135.000000	0.007696
2134.000000	0.007635
2133.000000	0.007682
2132.000000	0.007800
2131.000000	0.007940
2130.000000	0.008077
2129.000000	0.008207
2128.000000	0.008323
2127.000000	0.008417
2126.000000	0.008496
2125.000000	0.008570
2124.000000	0.008640
2123.000000	0.008704
2122.000000	0.008770
2121.000000	0.008845
2120.000000	0.008924
2119.000000	0.008998
2118.000000	0.009064
2117.000000	0.009128
2116.000000	0.009182
2115.000000	0.009215
2114.000000	0.009229
2113.000000	0.009234
2112.000000	0.009236
2111.000000	0.009227
2110.000000	0.009206
2109.000000	0.009180
2108.000000	0.009157
2107.000000	0.009138
2106.000000	0.009130
2105.000000	0.009137
2104.000000	0.009152
2103.000000	0.009163
2102.000000	0.009164
2101.000000	0.009159
2100.000000	0.009144
2099.000000	0.009106
2098.000000	0.009023
2097.000000	0.008896
2096.000000	0.008761
2095.000000	0.008674
2094.000000	0.008669
2093.000000	0.008727
2092.000000	0.008798
2091.000000	0.008850
2090.000000	0.008891
2089.000000	0.008943
2088.000000	0.009003
2087.000000	0.009055
2086.000000	0.009089
2085.000000	0.009111
2084.000000	0.009124
2083.000000	0.009130
2082.000000	0.009134
2081.000000	0.009144
2080.000000	0.009156
2079.000000	0.009153
2078.000000	0.009122
2077.000000	0.009066
2076.000000	0.009006
2075.000000	0.008964
2074.000000	0.008953
2073.000000	0.008966
2072.000000	0.008978
2071.000000	0.008970
2070.000000	0.008945
2069.000000	0.008916
2068.000000	0.008890
2067.000000	0.008867
2066.000000	0.008847
2065.000000	0.008831
2064.000000	0.008824
2063.000000	0.008820
2062.000000	0.008815
2061.000000	0.008811
2060.000000	0.008821
2059.000000	0.008857
2058.000000	0.008897
2057.000000	0.008898
2056.000000	0.008867
2055.000000	0.008897
2054.000000	0.009087
2053.000000	0.009399
2052.000000	0.009655
2051.000000	0.009687
2050.000000	0.009496
2049.000000	0.009229
2048.000000	0.009031
2047.000000	0.008934
2046.000000	0.008890
2045.000000	0.008857
2044.000000	0.008823
2043.000000	0.008800
2042.000000	0.008802
2041.000000	0.008815
2040.000000	0.008802
2039.000000	0.008747
2038.000000	0.008683
2037.000000	0.008640
2036.000000	0.008604
2035.000000	0.008538
2034.000000	0.008437
2033.000000	0.008322
2032.000000	0.008204
2031.000000	0.008088
2030.000000	0.007995
2029.000000	0.007945
2028.000000	0.007915
2027.000000	0.007859
2026.000000	0.007775
2025.000000	0.007712
2024.000000	0.007713
2023.000000	0.007765
2022.000000	0.007817
2021.000000	0.007821
2020.000000	0.007764
2019.000000	0.007683
2018.000000	0.007640
2017.000000	0.007671
2016.000000	0.007750
2015.000000	0.007831
2014.000000	0.007894
2013.000000	0.007942
2012.000000	0.007969
2011.000000	0.007958
2010.000000	0.007894
2009.000000	0.007768
2008.000000	0.007585
2007.000000	0.007393
2006.000000	0.007261
2005.000000	0.007229
2004.000000	0.007278
2003.000000	0.007369
2002.000000	0.007484
2001.000000	0.007609
2000.000000	0.007710
1999.000000	0.007766
1998.000000	0.007796
1997.000000	0.007838
1996.000000	0.007896
1995.000000	0.007948
1994.000000	0.007985
1993.000000	0.008015
1992.000000	0.008036
1991.000000	0.008041
1990.000000	0.008046
1989.000000	0.008076
1988.000000	0.008137
1987.000000	0.008212
1986.000000	0.008295
1985.000000	0.008400
1984.000000	0.008542
1983.000000	0.008720
1982.000000	0.008891
1981.000000	0.008944
1980.000000	0.008757
1979.000000	0.008317
1978.000000	0.007793
1977.000000	0.007405
1976.000000	0.007229
1975.000000	0.007182
1974.000000	0.007162
1973.000000	0.007130
1972.000000	0.007087
1971.000000	0.007048
1970.000000	0.007040
1969.000000	0.007078
1968.000000	0.007137
1967.000000	0.007176
1966.000000	0.007184
1965.000000	0.007175
1964.000000	0.007145
1963.000000	0.007078
1962.000000	0.006988
1961.000000	0.006910
1960.000000	0.006856
1959.000000	0.006818
1958.000000	0.006805
1957.000000	0.006827
1956.000000	0.006866
1955.000000	0.006890
1954.000000	0.006891
1953.000000	0.006886
1952.000000	0.006887
1951.000000	0.006898
1950.000000	0.006925
1949.000000	0.006968
1948.000000	0.007010
1947.000000	0.007028
1946.000000	0.007020
1945.000000	0.006995
1944.000000	0.006952
1943.000000	0.006899
1942.000000	0.006863
1941.000000	0.006867
1940.000000	0.006893
1939.000000	0.006912
1938.000000	0.006924
1937.000000	0.006942
1936.000000	0.006962
1935.000000	0.006966
1934.000000	0.006960
1933.000000	0.006959
1932.000000	0.006958
1931.000000	0.006946
1930.000000	0.006931
1929.000000	0.006926
1928.000000	0.006927
1927.000000	0.006916
1926.000000	0.006897
1925.000000	0.006892
1924.000000	0.006923
1923.000000	0.006986
1922.000000	0.007056
1921.000000	0.007101
1920.000000	0.007094
1919.000000	0.007045
1918.000000	0.006998
1917.000000	0.006991
1916.000000	0.007010
1915.000000	0.007016
1914.000000	0.007000
1913.000000	0.006979
1912.000000	0.006959
1911.000000	0.006933
1910.000000	0.006901
1909.000000	0.006882
1908.000000	0.006892
1907.000000	0.006926
1906.000000	0.006966
1905.000000	0.006993
1904.000000	0.006995
1903.000000	0.006978
1902.000000	0.006961
1901.000000	0.006957
1900.000000	0.006957
1899.000000	0.006943
1898.000000	0.006918
1897.000000	0.006897
1896.000000	0.006886
1895.000000	0.006876
1894.000000	0.006871
1893.000000	0.006873
1892.000000	0.006876
1891.000000	0.006872
1890.000000	0.006869
1889.000000	0.006878
1888.000000	0.006890
1887.000000	0.006886
1886.000000	0.006869
1885.000000	0.006855
1884.000000	0.006846
1883.000000	0.006832
1882.000000	0.006808
1881.000000	0.006788
1880.000000	0.006775
1879.000000	0.006764
1878.000000	0.006756
1877.000000	0.006762
1876.000000	0.006771
1875.000000	0.006767
1874.000000	0.006750
1873.000000	0.006733
1872.000000	0.006715
1871.000000	0.006685
1870.000000	0.006648
1869.000000	0.006629
1868.000000	0.006640
1867.000000	0.006661
1866.000000	0.006667
1865.000000	0.006657
1864.000000	0.006637
1863.000000	0.006609
1862.000000	0.006581
1861.000000	0.006564
1860.000000	0.006560
1859.000000	0.006558
1858.000000	0.006556
1857.000000	0.006562
1856.000000	0.006573
1855.000000	0.006574
1854.000000	0.006559
1853.000000	0.006539
1852.000000	0.006519
1851.000000	0.006490
1850.000000	0.006456
1849.000000	0.006438
1848.000000	0.006438
1847.000000	0.006440
1846.000000	0.006433
1845.000000	0.006437
1844.000000	0.006462
1843.000000	0.006485
1842.000000	0.006477
1841.000000	0.006448
1840.000000	0.006417
1839.000000	0.006391
1838.000000	0.006372
1837.000000	0.006367
1836.000000	0.006373
1835.000000	0.006378
1834.000000	0.006372
1833.000000	0.006361
1832.000000	0.006341
1831.000000	0.006314
1830.000000	0.006303
1829.000000	0.006324
1828.000000	0.006348
1827.000000	0.006344
1826.000000	0.006326
1825.000000	0.006330
1824.000000	0.006354
1823.000000	0.006366
1822.000000	0.006349
1821.000000	0.006306
1820.000000	0.006234
1819.000000	0.006133
1818.000000	0.006039
1817.000000	0.005999
1816.000000	0.006018
1815.000000	0.006055
1814.000000	0.006077
1813.000000	0.006088
1812.000000	0.006108
1811.000000	0.006141
1810.000000	0.006179
1809.000000	0.006211
1808.000000	0.006227
1807.000000	0.006224
1806.000000	0.006208
1805.000000	0.006191
1804.000000	0.006173
1803.000000	0.006149
1802.000000	0.006129
1801.000000	0.006130
1800.000000	0.006148
1799.000000	0.006166
1798.000000	0.006174
1797.000000	0.006178
1796.000000	0.006183
1795.000000	0.006175
1794.000000	0.006152
1793.000000	0.006138
1792.000000	0.006149
1791.000000	0.006170
1790.000000	0.006177
1789.000000	0.006167
1788.000000	0.006146
1787.000000	0.006117
1786.000000	0.006093
1785.000000	0.006092
1784.000000	0.006110
1783.000000	0.006112
1782.000000	0.006088
1781.000000	0.006067
1780.000000	0.006062
1779.000000	0.006055
1778.000000	0.006032
1777.000000	0.006015
1776.000000	0.006024
1775.000000	0.006048
1774.000000	0.006068
1773.000000	0.006090
1772.000000	0.006108
1771.000000	0.006092
1770.000000	0.006045
1769.000000	0.006013
1768.000000	0.006022
1767.000000	0.006046
1766.000000	0.006053
1765.000000	0.006038
1764.000000	0.006015
1763.000000	0.005991
1762.000000	0.005987
1761.000000	0.006022
1760.000000	0.006061
1759.000000	0.006063
1758.000000	0.006039
1757.000000	0.006045
1756.000000	0.006094
1755.000000	0.006133
1754.000000	0.006140
1753.000000	0.006146
1752.000000	0.006169
1751.000000	0.006181
1750.000000	0.006169
1749.000000	0.006166
1748.000000	0.006193
1747.000000	0.006215
1746.000000	0.006213
1745.000000	0.006209
1744.000000	0.006217
1743.000000	0.006221
1742.000000	0.006221
1741.000000	0.006244
1740.000000	0.006301
1739.000000	0.006350
1738.000000	0.006368
1737.000000	0.006387
1736.000000	0.006434
1735.000000	0.006485
1734.000000	0.006525
1733.000000	0.006565
1732.000000	0.006567
1731.000000	0.006511
1730.000000	0.006452
1729.000000	0.006454
1728.000000	0.006507
1727.000000	0.006544
1726.000000	0.006548
1725.000000	0.006566
1724.000000	0.006624
1723.000000	0.006685
1722.000000	0.006719
1721.000000	0.006758
1720.000000	0.006838
1719.000000	0.006951
1718.000000	0.007080
1717.000000	0.007238
1716.000000	0.007402
1715.000000	0.007515
1714.000000	0.007603
1713.000000	0.007747
1712.000000	0.007968
1711.000000	0.008217
1710.000000	0.008478
1709.000000	0.008789
1708.000000	0.009179
1707.000000	0.009650
1706.000000	0.010246
1705.000000	0.010995
1704.000000	0.011787
1703.000000	0.012557
1702.000000	0.013503
1701.000000	0.015088
1700.000000	0.017254
1699.000000	0.019106
1698.000000	0.020308
1697.000000	0.021341
1696.000000	0.022521
1695.000000	0.023638
1694.000000	0.024384
1693.000000	0.024848
1692.000000	0.025272
1691.000000	0.025785
1690.000000	0.026395
1689.000000	0.027068
1688.000000	0.027750
1687.000000	0.028409
1686.000000	0.029114
1685.000000	0.030100
1684.000000	0.031420
1683.000000	0.032620
1682.000000	0.033468
1681.000000	0.034221
1680.000000	0.035061
1679.000000	0.035940
1678.000000	0.036782
1677.000000	0.037674
1676.000000	0.038778
1675.000000	0.040042
1674.000000	0.041194
1673.000000	0.042126
1672.000000	0.042991
1671.000000	0.043976
1670.000000	0.045170
1669.000000	0.046492
1668.000000	0.047730
1667.000000	0.048743
1666.000000	0.049589
1665.000000	0.050443
1664.000000	0.051458
1663.000000	0.052639
1662.000000	0.053826
1661.000000	0.054893
1660.000000	0.055845
1659.000000	0.056706
1658.000000	0.057469
1657.000000	0.058138
1656.000000	0.058754
1655.000000	0.059377
1654.000000	0.060211
1653.000000	0.061400
1652.000000	0.062441
1651.000000	0.062870
1650.000000	0.062926
1649.000000	0.062977
1648.000000	0.063228
1647.000000	0.063681
1646.000000	0.064171
1645.000000	0.064560
1644.000000	0.064830
1643.000000	0.065024
1642.000000	0.065192
1641.000000	0.065381
1640.000000	0.065604
1639.000000	0.065821
1638.000000	0.066002
1637.000000	0.066205
1636.000000	0.066540
1635.000000	0.066963
1634.000000	0.067292
1633.000000	0.067486
1632.000000	0.067645
1631.000000	0.067823
1630.000000	0.068022
1629.000000	0.068267
1628.000000	0.068595
1627.000000	0.068954
1626.000000	0.069251
1625.000000	0.069491
1624.000000	0.069752
1623.000000	0.070051
1622.000000	0.070287
1621.000000	0.070393
1620.000000	0.070393
1619.000000	0.070293
1618.000000	0.070027
1617.000000	0.069549
1616.000000	0.068936
1615.000000	0.068245
1614.000000	0.067443
1613.000000	0.066518
1612.000000	0.065499
1611.000000	0.064401
1610.000000	0.063226
1609.000000	0.061992
1608.000000	0.060753
1607.000000	0.059559
1606.000000	0.058397
1605.000000	0.057223
1604.000000	0.056025
1603.000000	0.054831
1602.000000	0.053666
1601.000000	0.052525
1600.000000	0.051409
1599.000000	0.050338
1598.000000	0.049308
1597.000000	0.048282
1596.000000	0.047248
1595.000000	0.046244
1594.000000	0.045288
1593.000000	0.044352
1592.000000	0.043420
1591.000000	0.042523
1590.000000	0.041682
1589.000000	0.040868
1588.000000	0.040066
1587.000000	0.039307
1586.000000	0.038613
1585.000000	0.037952
1584.000000	0.037306
1583.000000	0.036715
1582.000000	0.036217
1581.000000	0.035793
1580.000000	0.035424
1579.000000	0.035141
1578.000000	0.034968
1577.000000	0.034860
1576.000000	0.034780
1575.000000	0.034761
1574.000000	0.034789
1573.000000	0.034815
1572.000000	0.034858
1571.000000	0.035019
1570.000000	0.035396
1569.000000	0.035899
1568.000000	0.036349
1567.000000	0.036747
1566.000000	0.037212
1565.000000	0.037772
1564.000000	0.038355
1563.000000	0.038896
1562.000000	0.039410
1561.000000	0.039934
1560.000000	0.040694
1559.000000	0.042039
1558.000000	0.043511
1557.000000	0.044435
1556.000000	0.045001
1555.000000	0.045628
1554.000000	0.046446
1553.000000	0.047288
1552.000000	0.048011
1551.000000	0.048723
1550.000000	0.049559
1549.000000	0.050436
1548.000000	0.051185
1547.000000	0.051806
1546.000000	0.052428
1545.000000	0.053109
1544.000000	0.053788
1543.000000	0.054425
1542.000000	0.055093
1541.000000	0.055872
1540.000000	0.056758
1539.000000	0.057608
1538.000000	0.058217
1537.000000	0.058542
1536.000000	0.058740
1535.000000	0.059023
1534.000000	0.059554
1533.000000	0.060268
1532.000000	0.060921
1531.000000	0.061431
1530.000000	0.061876
1529.000000	0.062309
1528.000000	0.062762
1527.000000	0.063291
1526.000000	0.063900
1525.000000	0.064471
1524.000000	0.064921
1523.000000	0.065358
1522.000000	0.065957
1521.000000	0.066659
1520.000000	0.067204
1519.000000	0.067527
1518.000000	0.067760
1517.000000	0.067969
1516.000000	0.068119
1515.000000	0.068158
1514.000000	0.068044
1513.000000	0.067741
1512.000000	0.067277
1511.000000	0.066771
1510.000000	0.066283
1509.000000	0.065722
1508.000000	0.064898
1507.000000	0.063778
1506.000000	0.062690
1505.000000	0.061794
1504.000000	0.060920
1503.000000	0.060008
1502.000000	0.059049
1501.000000	0.058005
1500.000000	0.056889
1499.000000	0.055753
1498.000000	0.054568
1497.000000	0.053242
1496.000000	0.051855
1495.000000	0.050594
1494.000000	0.049474
1493.000000	0.048371
1492.000000	0.047184
1491.000000	0.045880
1490.000000	0.044509
1489.000000	0.043188
1488.000000	0.042022
1487.000000	0.041019
1486.000000	0.040109
1485.000000	0.039251
1484.000000	0.038447
1483.000000	0.037687
1482.000000	0.036957
1481.000000	0.036278
1480.000000	0.035697
1479.000000	0.035211
1478.000000	0.034768
1477.000000	0.034346
1476.000000	0.033986
1475.000000	0.033716
1474.000000	0.033513
1473.000000	0.033376
1472.000000	0.033346
1471.000000	0.033394
1470.000000	0.033414
1469.000000	0.033366
1468.000000	0.033285
1467.000000	0.033209
1466.000000	0.033156
1465.000000	0.033150
1464.000000	0.033229
1463.000000	0.033386
1462.000000	0.033575
1461.000000	0.033770
1460.000000	0.033996
1459.000000	0.034307
1458.000000	0.034777
1457.000000	0.035401
1456.000000	0.035973
1455.000000	0.036306
1454.000000	0.036436
1453.000000	0.036483
1452.000000	0.036509
1451.000000	0.036514
1450.000000	0.036469
1449.000000	0.036347
1448.000000	0.036165
1447.000000	0.035957
1446.000000	0.035721
1445.000000	0.035427
1444.000000	0.035071
1443.000000	0.034685
1442.000000	0.034288
1441.000000	0.033883
1440.000000	0.033475
1439.000000	0.033075
1438.000000	0.032657
1437.000000	0.032209
1436.000000	0.031804
1435.000000	0.031494
1434.000000	0.031222
1433.000000	0.030933
1432.000000	0.030646
1431.000000	0.030408
1430.000000	0.030238
1429.000000	0.030124
1428.000000	0.030060
1427.000000	0.030039
1426.000000	0.030033
1425.000000	0.030038
1424.000000	0.030084
1423.000000	0.030184
1422.000000	0.030300
1421.000000	0.030397
1420.000000	0.030505
1419.000000	0.030680
1418.000000	0.030893
1417.000000	0.031064
1416.000000	0.031201
1415.000000	0.031350
1414.000000	0.031511
1413.000000	0.031656
1412.000000	0.031786
1411.000000	0.031923
1410.000000	0.032066
1409.000000	0.032187
1408.000000	0.032274
1407.000000	0.032340
1406.000000	0.032391
1405.000000	0.032431
1404.000000	0.032463
1403.000000	0.032479
1402.000000	0.032456
1401.000000	0.032380
1400.000000	0.032284
1399.000000	0.032219
1398.000000	0.032181
1397.000000	0.032126
1396.000000	0.032054
1395.000000	0.032015
1394.000000	0.032024
1393.000000	0.032037
1392.000000	0.032016
1391.000000	0.031972
1390.000000	0.031919
1389.000000	0.031856
1388.000000	0.031794
1387.000000	0.031750
1386.000000	0.031709
1385.000000	0.031632
1384.000000	0.031515
1383.000000	0.031388
1382.000000	0.031264
1381.000000	0.031131
1380.000000	0.030990
1379.000000	0.030866
1378.000000	0.030757
1377.000000	0.030638
1376.000000	0.030508
1375.000000	0.030400
1374.000000	0.030335
1373.000000	0.030290
1372.000000	0.030238
1371.000000	0.030168
1370.000000	0.030070
1369.000000	0.029930
1368.000000	0.029760
1367.000000	0.029582
1366.000000	0.029392
1365.000000	0.029169
1364.000000	0.028920
1363.000000	0.028694
1362.000000	0.028518
1361.000000	0.028375
1360.000000	0.028246
1359.000000	0.028130
1358.000000	0.028020
1357.000000	0.027900
1356.000000	0.027776
1355.000000	0.027672
1354.000000	0.027592
1353.000000	0.027511
1352.000000	0.027429
1351.000000	0.027363
1350.000000	0.027312
1349.000000	0.027257
1348.000000	0.027200
1347.000000	0.027163
1346.000000	0.027144
1345.000000	0.027118
1344.000000	0.027084
1343.000000	0.027058
1342.000000	0.027040
1341.000000	0.027011
1340.000000	0.026980
1339.000000	0.026977
1338.000000	0.027000
1337.000000	0.027014
1336.000000	0.027008
1335.000000	0.027001
1334.000000	0.026991
1333.000000	0.026962
1332.000000	0.026919
1331.000000	0.026890
1330.000000	0.026880
1329.000000	0.026865
1328.000000	0.026844
1327.000000	0.026840
1326.000000	0.026854
1325.000000	0.026861
1324.000000	0.026855
1323.000000	0.026858
1322.000000	0.026872
1321.000000	0.026878
1320.000000	0.026877
1319.000000	0.026893
1318.000000	0.026926
1317.000000	0.026946
1316.000000	0.026951
1315.000000	0.026964
1314.000000	0.026989
1313.000000	0.027004
1312.000000	0.027005
1311.000000	0.027007
1310.000000	0.027011
1309.000000	0.026998
1308.000000	0.026972
1307.000000	0.026958
1306.000000	0.026955
1305.000000	0.026936
1304.000000	0.026899
1303.000000	0.026866
1302.000000	0.026843
1301.000000	0.026805
1300.000000	0.026753
1299.000000	0.026711
1298.000000	0.026685
1297.000000	0.026653
1296.000000	0.026610
1295.000000	0.026580
1294.000000	0.026566
1293.000000	0.026550
1292.000000	0.026531
1291.000000	0.026529
1290.000000	0.026541
1289.000000	0.026539
1288.000000	0.026523
1287.000000	0.026519
1286.000000	0.026525
1285.000000	0.026510
1284.000000	0.026468
1283.000000	0.026426
1282.000000	0.026395
1281.000000	0.026349
1280.000000	0.026286
1279.000000	0.026229
1278.000000	0.026191
1277.000000	0.026159
1276.000000	0.026134
1275.000000	0.026136
1274.000000	0.026163
1273.000000	0.026186
1272.000000	0.026202
1271.000000	0.026235
1270.000000	0.026289
1269.000000	0.026337
1268.000000	0.026380
1267.000000	0.026447
1266.000000	0.026543
1265.000000	0.026644
1264.000000	0.026749
1263.000000	0.026886
1262.000000	0.027058
1261.000000	0.027236
1260.000000	0.027421
1259.000000	0.027641
1258.000000	0.027895
1257.000000	0.028150
1256.000000	0.028392
1255.000000	0.028642
1254.000000	0.028902
1253.000000	0.029151
1252.000000	0.029386
1251.000000	0.029632
1250.000000	0.029886
1249.000000	0.030115
1248.000000	0.030314
1247.000000	0.030505
1246.000000	0.030691
1245.000000	0.030849
1244.000000	0.030974
1243.000000	0.031095
1242.000000	0.031215
1241.000000	0.031306
1240.000000	0.031364
1239.000000	0.031412
1238.000000	0.031460
1237.000000	0.031482
1236.000000	0.031476
1235.000000	0.031465
1234.000000	0.031452
1233.000000	0.031414
1232.000000	0.031346
1231.000000	0.031279
1230.000000	0.031221
1229.000000	0.031148
1228.000000	0.031054
1227.000000	0.030959
1226.000000	0.030863
1225.000000	0.030742
1224.000000	0.030594
1223.000000	0.030449
1222.000000	0.030311
1221.000000	0.030155
1220.000000	0.029977
1219.000000	0.029803
1218.000000	0.029633
1217.000000	0.029430
1216.000000	0.029193
1215.000000	0.028955
1214.000000	0.028728
1213.000000	0.028481
1212.000000	0.028207
1211.000000	0.027936
1210.000000	0.027676
1209.000000	0.027398
1208.000000	0.027093
1207.000000	0.026789
1206.000000	0.026490
1205.000000	0.026171
1204.000000	0.025831
1203.000000	0.025511
1202.000000	0.025217
1201.000000	0.024918
1200.000000	0.024605
1199.000000	0.024317
1198.000000	0.024069
1197.000000	0.023833
1196.000000	0.023603
1195.000000	0.023406
1194.000000	0.023244
1193.000000	0.023078
1192.000000	0.022901
1191.000000	0.022748
1190.000000	0.022630
1189.000000	0.022514
1188.000000	0.022388
1187.000000	0.022286
1186.000000	0.022222
1185.000000	0.022165
1184.000000	0.022107
1183.000000	0.022082
1182.000000	0.022096
1181.000000	0.022116
1180.000000	0.022139
1179.000000	0.022202
1178.000000	0.022314
1177.000000	0.022440
1176.000000	0.022571
1175.000000	0.022740
1174.000000	0.022948
1173.000000	0.023147
1172.000000	0.023316
1171.000000	0.023485
1170.000000	0.023661
1169.000000	0.023809
1168.000000	0.023928
1167.000000	0.024060
1166.000000	0.024214
1165.000000	0.024342
1164.000000	0.024424
1163.000000	0.024498
1162.000000	0.024575
1161.000000	0.024617
1160.000000	0.024607
1159.000000	0.024579
1158.000000	0.024547
1157.000000	0.024477
1156.000000	0.024362
1155.000000	0.024240
1154.000000	0.024123
1153.000000	0.023976
1152.000000	0.023791
1151.000000	0.023612
1150.000000	0.023451
1149.000000	0.023273
1148.000000	0.023073
1147.000000	0.022896
1146.000000	0.022756
1145.000000	0.022613
1144.000000	0.022457
1143.000000	0.022334
1142.000000	0.022260
1141.000000	0.022197
1140.000000	0.022127
1139.000000	0.022083
1138.000000	0.022070
1137.000000	0.022051
1136.000000	0.022021
1135.000000	0.022025
1134.000000	0.022071
1133.000000	0.022107
1132.000000	0.022120
1131.000000	0.022147
1130.000000	0.022194
1129.000000	0.022207
1128.000000	0.022171
1127.000000	0.022136
1126.000000	0.022119
1125.000000	0.022076
1124.000000	0.021993
1123.000000	0.021916
1122.000000	0.021862
1121.000000	0.021788
1120.000000	0.021679
1119.000000	0.021574
1118.000000	0.021490
1117.000000	0.021387
1116.000000	0.021265
1115.000000	0.021177
1114.000000	0.021133
1113.000000	0.021082
1112.000000	0.021004
1111.000000	0.020951
1110.000000	0.020940
1109.000000	0.020924
1108.000000	0.020887
1107.000000	0.020882
1106.000000	0.020926
1105.000000	0.020967
1104.000000	0.020986
1103.000000	0.021026
1102.000000	0.021099
1101.000000	0.021156
1100.000000	0.021189
1099.000000	0.021252
1098.000000	0.021365
1097.000000	0.021475
1096.000000	0.021577
1095.000000	0.021736
1094.000000	0.021978
1093.000000	0.022248
1092.000000	0.022520
1091.000000	0.022839
1090.000000	0.023221
1089.000000	0.023612
1088.000000	0.023994
1087.000000	0.024417
1086.000000	0.024892
1085.000000	0.025362
1084.000000	0.025809
1083.000000	0.026286
1082.000000	0.026801
1081.000000	0.027286
1080.000000	0.027710
1079.000000	0.028123
1078.000000	0.028545
1077.000000	0.028922
1076.000000	0.029225
1075.000000	0.029502
1074.000000	0.029765
1073.000000	0.029965
1072.000000	0.030091
1071.000000	0.030206
1070.000000	0.030341
1069.000000	0.030450
1068.000000	0.030515
1067.000000	0.030582
1066.000000	0.030665
1065.000000	0.030712
1064.000000	0.030709
1063.000000	0.030709
1062.000000	0.030725
1061.000000	0.030692
1060.000000	0.030589
1059.000000	0.030475
1058.000000	0.030376
1057.000000	0.030241
1056.000000	0.030062
1055.000000	0.029905
1054.000000	0.029790
1053.000000	0.029652
1052.000000	0.029459
1051.000000	0.029262
1050.000000	0.029083
1049.000000	0.028863
1048.000000	0.028580
1047.000000	0.028294
1046.000000	0.028029
1045.000000	0.027733
1044.000000	0.027384
1043.000000	0.027038
1042.000000	0.026713
1041.000000	0.026359
1040.000000	0.025972
1039.000000	0.025619
1038.000000	0.025320
1037.000000	0.025018
1036.000000	0.024694
1035.000000	0.024407
1034.000000	0.024174
1033.000000	0.023930
1032.000000	0.023649
1031.000000	0.023376
1030.000000	0.023122
1029.000000	0.022827
1028.000000	0.022480
1027.000000	0.022149
1026.000000	0.021856
1025.000000	0.021549
1024.000000	0.021213
1023.000000	0.020916
1022.000000	0.020676
1021.000000	0.020433
1020.000000	0.020164
1019.000000	0.019926
1018.000000	0.019728
1017.000000	0.019502
1016.000000	0.019235
1015.000000	0.018999
1014.000000	0.018820
1013.000000	0.018636
1012.000000	0.018422
1011.000000	0.018239
1010.000000	0.018105
1009.000000	0.017956
1008.000000	0.017772
1007.000000	0.017616
1006.000000	0.017517
1005.000000	0.017414
1004.000000	0.017276
1003.000000	0.017155
1002.000000	0.017072
1001.000000	0.016979
1000.000000	0.016863
999.000000	0.016782
998.000000	0.016745
997.000000	0.016686
996.000000	0.016585
995.000000	0.016505
994.000000	0.016472
993.000000	0.016426
992.000000	0.016341
991.000000	0.016272
990.000000	0.016240
989.000000	0.016189
988.000000	0.016098
987.000000	0.016032
986.000000	0.016015
985.000000	0.015990
984.000000	0.015926
983.000000	0.015871
982.000000	0.015852
981.000000	0.015829
980.000000	0.015800
979.000000	0.015824
978.000000	0.015903
977.000000	0.015958
976.000000	0.015957
975.000000	0.015968
974.000000	0.016027
973.000000	0.016085
972.000000	0.016120
971.000000	0.016186
970.000000	0.016301
969.000000	0.016412
968.000000	0.016502
967.000000	0.016628
966.000000	0.016804
965.000000	0.016958
964.000000	0.017055
963.000000	0.017140
962.000000	0.017228
961.000000	0.017261
960.000000	0.017223
959.000000	0.017177
958.000000	0.017150
957.000000	0.017090
956.000000	0.016986
955.000000	0.016898
954.000000	0.016849
953.000000	0.016781
952.000000	0.016681
951.000000	0.016615
950.000000	0.016600
949.000000	0.016569
948.000000	0.016494
947.000000	0.016437
946.000000	0.016424
945.000000	0.016399
944.000000	0.016337
943.000000	0.016297
942.000000	0.016297
941.000000	0.016282
940.000000	0.016238
939.000000	0.016229
938.000000	0.016272
937.000000	0.016295
936.000000	0.016271
935.000000	0.016267
934.000000	0.016311
933.000000	0.016340
932.000000	0.016322
931.000000	0.016311
930.000000	0.016328
929.000000	0.016313
928.000000	0.016249
927.000000	0.016202
926.000000	0.016196
925.000000	0.016162
924.000000	0.016078
923.000000	0.016010
922.000000	0.015988
921.000000	0.015947
920.000000	0.015852
919.000000	0.015763
918.000000	0.015711
917.000000	0.015645
916.000000	0.015555
915.000000	0.015514
914.000000	0.015548
913.000000	0.015587
912.000000	0.015593
911.000000	0.015624
910.000000	0.015703
909.000000	0.015765
908.000000	0.015781
907.000000	0.015819
906.000000	0.015903
905.000000	0.015967
904.000000	0.015980
903.000000	0.016005
902.000000	0.016064
901.000000	0.016090
900.000000	0.016055
899.000000	0.016028
898.000000	0.016040
897.000000	0.016027
896.000000	0.015958
895.000000	0.015899
894.000000	0.015876
893.000000	0.015819
892.000000	0.015703
891.000000	0.015603
890.000000	0.015556
889.000000	0.015497
888.000000	0.015393
887.000000	0.015310
886.000000	0.015276
885.000000	0.015230
884.000000	0.015153
883.000000	0.015119
882.000000	0.015150
881.000000	0.015168
880.000000	0.015137
879.000000	0.015130
878.000000	0.015173
877.000000	0.015182
876.000000	0.015124
875.000000	0.015085
874.000000	0.015104
873.000000	0.015107
872.000000	0.015062
871.000000	0.015044
870.000000	0.015079
869.000000	0.015085
868.000000	0.015025
867.000000	0.014980
866.000000	0.014988
865.000000	0.014977
864.000000	0.014917
863.000000	0.014891
862.000000	0.014936
861.000000	0.014975
860.000000	0.014970
859.000000	0.014992
858.000000	0.015069
857.000000	0.015126
856.000000	0.015128
855.000000	0.015154
854.000000	0.015241
853.000000	0.015312
852.000000	0.015326
851.000000	0.015354
850.000000	0.015429
849.000000	0.015474
848.000000	0.015458
847.000000	0.015463
846.000000	0.015539
845.000000	0.015621
844.000000	0.015675
843.000000	0.015769
842.000000	0.015924
841.000000	0.016055
840.000000	0.016127
839.000000	0.016224
838.000000	0.016388
837.000000	0.016542
836.000000	0.016646
835.000000	0.016778
834.000000	0.016972
833.000000	0.017149
832.000000	0.017267
831.000000	0.017407
830.000000	0.017603
829.000000	0.017769
828.000000	0.017855
827.000000	0.017943
826.000000	0.018080
825.000000	0.018190
824.000000	0.018239
823.000000	0.018314
822.000000	0.018455
821.000000	0.018578
820.000000	0.018647
819.000000	0.018747
818.000000	0.018912
817.000000	0.019053
816.000000	0.019131
815.000000	0.019232
814.000000	0.019398
813.000000	0.019545
812.000000	0.019631
811.000000	0.019735
810.000000	0.019897
809.000000	0.020029
808.000000	0.020091
807.000000	0.020165
806.000000	0.020298
805.000000	0.020415
804.000000	0.020479
803.000000	0.020576
802.000000	0.020742
801.000000	0.020881
800.000000	0.020939
799.000000	0.020997
798.000000	0.021112
797.000000	0.021221
796.000000	0.021295
795.000000	0.021420
794.000000	0.021634
793.000000	0.021847
792.000000	0.022009
791.000000	0.022190
790.000000	0.022419
789.000000	0.022616
788.000000	0.022748
787.000000	0.022902
786.000000	0.023121
785.000000	0.023326
784.000000	0.023480
783.000000	0.023664
782.000000	0.023915
781.000000	0.024147
780.000000	0.024318
779.000000	0.024501
778.000000	0.024731
777.000000	0.024930
776.000000	0.025071
775.000000	0.025240
774.000000	0.025465
773.000000	0.025649
772.000000	0.025751
771.000000	0.025861
770.000000	0.026031
769.000000	0.026180
768.000000	0.026261
767.000000	0.026349
766.000000	0.026484
765.000000	0.026587
764.000000	0.026627
763.000000	0.026693
762.000000	0.026822
761.000000	0.026925
760.000000	0.026969
759.000000	0.027047
758.000000	0.027203
757.000000	0.027348
756.000000	0.027440
755.000000	0.027574
754.000000	0.027796
753.000000	0.028014
752.000000	0.028168
751.000000	0.028334
750.000000	0.028551
749.000000	0.028729
748.000000	0.028819
747.000000	0.028906
746.000000	0.029045
745.000000	0.029160
744.000000	0.029211
743.000000	0.029282
742.000000	0.029420
741.000000	0.029545
740.000000	0.029620
739.000000	0.029729
738.000000	0.029913
737.000000	0.030086
736.000000	0.030205
735.000000	0.030360
734.000000	0.030592
733.000000	0.030813
732.000000	0.030985
731.000000	0.031212
730.000000	0.031561
729.000000	0.031944
728.000000	0.032302
727.000000	0.032701
726.000000	0.033181
725.000000	0.033657
724.000000	0.034081
723.000000	0.034533
722.000000	0.035047
721.000000	0.035539
720.000000	0.035979
719.000000	0.036473
718.000000	0.037068
717.000000	0.037655
716.000000	0.038166
715.000000	0.038688
714.000000	0.039275
713.000000	0.039833
712.000000	0.040309
711.000000	0.040793
710.000000	0.041344
709.000000	0.041872
708.000000	0.042323
707.000000	0.042783
706.000000	0.043306
705.000000	0.043794
704.000000	0.044177
703.000000	0.044535
702.000000	0.044914
701.000000	0.045216
700.000000	0.045385
699.000000	0.045514
698.000000	0.045663
697.000000	0.045739
696.000000	0.045696
695.000000	0.045652
694.000000	0.045687
693.000000	0.045721
692.000000	0.045693
691.000000	0.045695
690.000000	0.045786
689.000000	0.045873
688.000000	0.045893
687.000000	0.045938
686.000000	0.046057
685.000000	0.046139
684.000000	0.046131
683.000000	0.046147
682.000000	0.046251
681.000000	0.046333
680.000000	0.046324
679.000000	0.046332
678.000000	0.046424
677.000000	0.046503
676.000000	0.046506
675.000000	0.046542
674.000000	0.046662
673.000000	0.046746
672.000000	0.046728
671.000000	0.046740
670.000000	0.046868
669.000000	0.047000
668.000000	0.047063
667.000000	0.047157
666.000000	0.047265
665.000000	0.047284
664.000000	0.047218
663.000000	0.047198
662.000000	0.047287
661.000000	0.047384
660.000000	0.047421
659.000000	0.047496
658.000000	0.047660
657.000000	0.047794
656.000000	0.047832
655.000000	0.047902
654.000000	0.048078
653.000000	0.048231
652.000000	0.048276
651.000000	0.048327
650.000000	0.048470
649.000000	0.048608
648.000000	0.048680
647.000000	0.048805
646.000000	0.049045
645.000000	0.049263
644.000000	0.049377
643.000000	0.049504
642.000000	0.049719
641.000000	0.049906
640.000000	0.050001
639.000000	0.050136
638.000000	0.050386
637.000000	0.050609
636.000000	0.050707
635.000000	0.050801
634.000000	0.050987
633.000000	0.051158
632.000000	0.051238
631.000000	0.051341
630.000000	0.051531
629.000000	0.051674
628.000000	0.051692
627.000000	0.051719
626.000000	0.051836
625.000000	0.051908
624.000000	0.051848
623.000000	0.051792
622.000000	0.051831
621.000000	0.051831
620.000000	0.051695
619.000000	0.051560
618.000000	0.051527
617.000000	0.051474
616.000000	0.051306
615.000000	0.051146
614.000000	0.051070
613.000000	0.050935
612.000000	0.050663
611.000000	0.050422
610.000000	0.050339
609.000000	0.050290
608.000000	0.050173
607.000000	0.050108
606.000000	0.050160
605.000000	0.050159
604.000000	0.050015
603.000000	0.049902
602.000000	0.049936
601.000000	0.049954
600.000000	0.049839
599.000000	0.049740
598.000000	0.049768
597.000000	0.049785
596.000000	0.049703
595.000000	0.049681
594.000000	0.049810
593.000000	0.049906
592.000000	0.049845
591.000000	0.049793
590.000000	0.049872
589.000000	0.049923
588.000000	0.049846
587.000000	0.049818
586.000000	0.049953
585.000000	0.050075
584.000000	0.050060
583.000000	0.050069
582.000000	0.050217
581.000000	0.050323
580.000000	0.050267
579.000000	0.050239
578.000000	0.050382
577.000000	0.050531
576.000000	0.050550
575.000000	0.050587
574.000000	0.050732
573.000000	0.050800
572.000000	0.050700
571.000000	0.050652
570.000000	0.050784
569.000000	0.050891
568.000000	0.050843
567.000000	0.050849
566.000000	0.051027
565.000000	0.051144
564.000000	0.051054
563.000000	0.050989
562.000000	0.051124
561.000000	0.051258
560.000000	0.051224
559.000000	0.051193
558.000000	0.051300
557.000000	0.051355
556.000000	0.051250
555.000000	0.051219
554.000000	0.051392
553.000000	0.051516
552.000000	0.051422
551.000000	0.051343
550.000000	0.051456
549.000000	0.051560
548.000000	0.051506
547.000000	0.051502
546.000000	0.051667
545.000000	0.051748
544.000000	0.051616
543.000000	0.051538
542.000000	0.051659
541.000000	0.051711
540.000000	0.051531
539.000000	0.051402
538.000000	0.051517
537.000000	0.051615
536.000000	0.051505
535.000000	0.051444
534.000000	0.051632
533.000000	0.051811
532.000000	0.051772
531.000000	0.051731
530.000000	0.051869
529.000000	0.051963
528.000000	0.051862
527.000000	0.051826
526.000000	0.052027
525.000000	0.052163
524.000000	0.052038
523.000000	0.051937
522.000000	0.052059
521.000000	0.052144
520.000000	0.052015
519.000000	0.051961
518.000000	0.052168
517.000000	0.052294
516.000000	0.052106
515.000000	0.051925
514.000000	0.051985
513.000000	0.052002
512.000000	0.051760
511.000000	0.051547
510.000000	0.051586
509.000000	0.051606
508.000000	0.051392
507.000000	0.051220
506.000000	0.051285
505.000000	0.051286
504.000000	0.051031
503.000000	0.050860
502.000000	0.051001
501.000000	0.051105
500.000000	0.050945
499.000000	0.050869
498.000000	0.051097
497.000000	0.051271
496.000000	0.051122
495.000000	0.050964
494.000000	0.051045
493.000000	0.051053
492.000000	0.050761
491.000000	0.050528
490.000000	0.050600
489.000000	0.050612
488.000000	0.050332
487.000000	0.050156
486.000000	0.050373
485.000000	0.050588
484.000000	0.050469
483.000000	0.050362
482.000000	0.050535
481.000000	0.050605
480.000000	0.050340
479.000000	0.050182
478.000000	0.050409
477.000000	0.050547
476.000000	0.050252
475.000000	0.049985
474.000000	0.050158
473.000000	0.050355
472.000000	0.050167
471.000000	0.050026
470.000000	0.050256
469.000000	0.050362
468.000000	0.050031
467.000000	0.049795
466.000000	0.050040
465.000000	0.050262
464.000000	0.050075
463.000000	0.049942
462.000000	0.050201
461.000000	0.050324
460.000000	0.049933
459.000000	0.049597
458.000000	0.049809
457.000000	0.049968
456.000000	0.049611
455.000000	0.049356
454.000000	0.049594
453.000000	0.049751
452.000000	0.049417
451.000000	0.049133
450.000000	0.049270
449.000000	0.049254
448.000000	0.048707
447.000000	0.048249
446.000000	0.048340
445.000000	0.048398
444.000000	0.047984
443.000000	0.047718
442.000000	0.048026
441.000000	0.048181
440.000000	0.047678
439.000000	0.047174
438.000000	0.047184
437.000000	0.047141
436.000000	0.046572
435.000000	0.046116
434.000000	0.046226
433.000000	0.046182
432.000000	0.045495
431.000000	0.044927
430.000000	0.045076
429.000000	0.045217
428.000000	0.044737
427.000000	0.044280
426.000000	0.044388
425.000000	0.044334
424.000000	0.043628
423.000000	0.043265
422.000000	0.043887
421.000000	0.044332
420.000000	0.043512
419.000000	0.042628
418.000000	0.043056
417.000000	0.043312
416.000000	0.042527
415.000000	0.042023
414.000000	0.042555
413.000000	0.042974
412.000000	0.042407
411.000000	0.042046
410.000000	0.042782
409.000000	0.043204
408.000000	0.042226
407.000000	0.041340
406.000000	0.041885
405.000000	0.042443
404.000000	0.041640
403.000000	0.040806
402.000000	0.041273
401.000000	0.041455
400.000000	0.039815
