3997.70460,0.00864
3995.64498,0.00856
3993.58537,0.00841
3991.52576,0.00830
3989.46615,0.00828
3987.40654,0.00840
3985.34693,0.00861
3983.28732,0.00862
3981.22771,0.00842
3979.16810,0.00831
3977.10849,0.00839
3975.04888,0.00840
3972.98927,0.00830
3970.92965,0.00826
3968.87004,0.00828
3966.81043,0.00828
3964.75082,0.00828
3962.69121,0.00834
3960.63160,0.00841
3958.57199,0.00842
3956.51238,0.00839
3954.45277,0.00836
3952.39316,0.00839
3950.33355,0.00844
3948.27394,0.00845
3946.21432,0.00842
3944.15471,0.00840
3942.09510,0.00850
3940.03549,0.00865
3937.97588,0.00868
3935.91627,0.00853
3933.85666,0.00834
3931.79705,0.00828
3929.73744,0.00837
3927.67783,0.00843
3925.61822,0.00842
3923.55861,0.00846
3921.49900,0.00852
3919.43938,0.00844
3917.37977,0.00825
3915.32016,0.00812
3913.26055,0.00802
3911.20094,0.00797
3909.14133,0.00805
3907.08172,0.00829
3905.02211,0.00858
3902.96250,0.00865
3900.90289,0.00844
3898.84328,0.00821
3896.78367,0.00811
3894.72405,0.00805
3892.66444,0.00807
3890.60483,0.00813
3888.54522,0.00806
3886.48561,0.00791
3884.42600,0.00787
3882.36639,0.00787
3880.30678,0.00781
3878.24717,0.00786
3876.18756,0.00801
3874.12795,0.00816
3872.06834,0.00825
3870.00872,0.00827
3867.94911,0.00824
3865.88950,0.00829
3863.82989,0.00831
3861.77028,0.00815
3859.71067,0.00801
3857.65106,0.00804
3855.59145,0.00822
3853.53184,0.00837
3851.47223,0.00834
3849.41262,0.00827
3847.35301,0.00819
3845.29339,0.00804
3843.23378,0.00796
3841.17417,0.00809
3839.11456,0.00823
3837.05495,0.00814
3834.99534,0.00795
3832.93573,0.00797
3830.87612,0.00812
3828.81651,0.00815
3826.75690,0.00801
3824.69729,0.00784
3822.63768,0.00779
3820.57807,0.00798
3818.51845,0.00825
3816.45884,0.00823
3814.39923,0.00802
3812.33962,0.00789
3810.28001,0.00783
3808.22040,0.00781
3806.16079,0.00783
3804.10118,0.00778
3802.04157,0.00765
3799.98196,0.00766
3797.92235,0.00783
3795.86274,0.00801
3793.80312,0.00814
3791.74351,0.00815
3789.68390,0.00808
3787.62429,0.00797
3785.56468,0.00785
3783.50507,0.00778
3781.44546,0.00772
3779.38585,0.00769
3777.32624,0.00785
3775.26663,0.00809
3773.20702,0.00819
3771.14741,0.00812
3769.08779,0.00796
3767.02818,0.00785
3764.96857,0.00785
3762.90896,0.00790
3760.84935,0.00793
3758.78974,0.00795
3756.73013,0.00793
3754.67052,0.00787
3752.61091,0.00774
3750.55130,0.00765
3748.49169,0.00760
3746.43208,0.00744
3744.37246,0.00722
3742.31285,0.00715
3740.25324,0.00728
3738.19363,0.00764
3736.13402,0.00809
3734.07441,0.00822
3732.01480,0.00803
3729.95519,0.00786
3727.89558,0.00775
3725.83597,0.00760
3723.77636,0.00749
3721.71675,0.00752
3719.65714,0.00758
3717.59752,0.00755
3715.53791,0.00754
3713.47830,0.00765
3711.41869,0.00778
3709.35908,0.00779
3707.29947,0.00775
3705.23986,0.00779
3703.18025,0.00791
3701.12064,0.00800
3699.06103,0.00795
3697.00142,0.00777
3694.94181,0.00763
3692.88219,0.00761
3690.82258,0.00770
3688.76297,0.00790
3686.70336,0.00816
3684.64375,0.00827
3682.58414,0.00812
3680.52453,0.00784
3678.46492,0.00782
3676.40531,0.00815
3674.34570,0.00832
3672.28609,0.00815
3670.22648,0.00823
3668.16686,0.00855
3666.10725,0.00865
3664.04764,0.00863
3661.98803,0.00871
3659.92842,0.00882
3657.86881,0.00882
3655.80920,0.00881
3653.74959,0.00893
3651.68998,0.00913
3649.63037,0.00951
3647.57076,0.00990
3645.51115,0.01005
3643.45153,0.01013
3641.39192,0.01020
3639.33231,0.01024
3637.27270,0.01031
3635.21309,0.01045
3633.15348,0.01060
3631.09387,0.01066
3629.03426,0.01061
3626.97465,0.01074
3624.91504,0.01114
3622.85543,0.01149
3620.79582,0.01163
3618.73621,0.01177
3616.67659,0.01199
3614.61698,0.01224
3612.55737,0.01254
3610.49776,0.01282
3608.43815,0.01294
3606.37854,0.01295
3604.31893,0.01312
3602.25932,0.01341
3600.19971,0.01365
3598.14010,0.01383
3596.08049,0.01401
3594.02088,0.01421
3591.96126,0.01449
3589.90165,0.01483
3587.84204,0.01523
3585.78243,0.01553
3583.72282,0.01567
3581.66321,0.01588
3579.60360,0.01620
3577.54399,0.01653
3575.48438,0.01683
3573.42477,0.01710
3571.36516,0.01735
3569.30555,0.01765
3567.24593,0.01800
3565.18632,0.01832
3563.12671,0.01855
3561.06710,0.01879
3559.00749,0.01906
3556.94788,0.01925
3554.88827,0.01933
3552.82866,0.01948
3550.76905,0.01971
3548.70944,0.01990
3546.64983,0.02007
3544.59022,0.02031
3542.53060,0.02063
3540.47099,0.02099
3538.41138,0.02132
3536.35177,0.02156
3534.29216,0.02184
3532.23255,0.02220
3530.17294,0.02251
3528.11333,0.02276
3526.05372,0.02299
3523.99411,0.02318
3521.93450,0.02335
3519.87489,0.02363
3517.81528,0.02407
3515.75566,0.02456
3513.69605,0.02496
3511.63644,0.02526
3509.57683,0.02548
3507.51722,0.02563
3505.45761,0.02581
3503.39800,0.02604
3501.33839,0.02627
3499.27878,0.02647
3497.21917,0.02665
3495.15956,0.02683
3493.09995,0.02708
3491.04033,0.02746
3488.98072,0.02781
3486.92111,0.02802
3484.86150,0.02835
3482.80189,0.02884
3480.74228,0.02914
3478.68267,0.02928
3476.62306,0.02957
3474.56345,0.02993
3472.50384,0.03016
3470.44423,0.03041
3468.38462,0.03081
3466.32500,0.03114
3464.26539,0.03131
3462.20578,0.03149
3460.14617,0.03173
3458.08656,0.03207
3456.02695,0.03242
3453.96734,0.03258
3451.90773,0.03267
3449.84812,0.03300
3447.78851,0.03356
3445.72890,0.03401
3443.66929,0.03416
3441.60967,0.03420
3439.55006,0.03426
3437.49045,0.03439
3435.43084,0.03470
3433.37123,0.03526
3431.31162,0.03579
3429.25201,0.03606
3427.19240,0.03623
3425.13279,0.03644
3423.07318,0.03667
3421.01357,0.03692
3418.95396,0.03718
3416.89435,0.03735
3414.83473,0.03748
3412.77512,0.03773
3410.71551,0.03802
3408.65590,0.03829
3406.59629,0.03855
3404.53668,0.03884
3402.47707,0.03915
3400.41746,0.03938
3398.35785,0.03959
3396.29824,0.03982
3394.23863,0.04004
3392.17902,0.04022
3390.11940,0.04034
3388.05979,0.04039
3386.00018,0.04054
3383.94057,0.04092
3381.88096,0.04126
3379.82135,0.04137
3377.76174,0.04146
3375.70213,0.04167
3373.64252,0.04199
3371.58291,0.04237
3369.52330,0.04264
3367.46369,0.04289
3365.40407,0.04316
3363.34446,0.04322
3361.28485,0.04320
3359.22524,0.04339
3357.16563,0.04371
3355.10602,0.04402
3353.04641,0.04429
3350.98680,0.04454
3348.92719,0.04481
3346.86758,0.04503
3344.80797,0.04511
3342.74836,0.04516
3340.68874,0.04538
3338.62913,0.04575
3336.56952,0.04597
3334.50991,0.04604
3332.45030,0.04627
3330.39069,0.04665
3328.33108,0.04694
3326.27147,0.04714
3324.21186,0.04736
3322.15225,0.04760
3320.09264,0.04788
3318.03303,0.04822
3315.97342,0.04861
3313.91380,0.04902
3311.85419,0.04937
3309.79458,0.04966
3307.73497,0.04987
3305.67536,0.05007
3303.61575,0.05036
3301.55614,0.05076
3299.49653,0.05115
3297.43692,0.05142
3295.37731,0.05167
3293.31770,0.05186
3291.25809,0.05189
3289.19847,0.05204
3287.13886,0.05244
3285.07925,0.05273
3283.01964,0.05274
3280.96003,0.05272
3278.90042,0.05276
3276.84081,0.05286
3274.78120,0.05299
3272.72159,0.05303
3270.66198,0.05285
3268.60237,0.05265
3266.54276,0.05259
3264.48314,0.05257
3262.42353,0.05253
3260.36392,0.05237
3258.30431,0.05214
3256.24470,0.05203
3254.18509,0.05196
3252.12548,0.05185
3250.06587,0.05186
3248.00626,0.05196
3245.94665,0.05180
3243.88704,0.05136
3241.82743,0.05109
3239.76781,0.05112
3237.70820,0.05115
3235.64859,0.05109
3233.58898,0.05107
3231.52937,0.05105
3229.46976,0.05098
3227.41015,0.05089
3225.35054,0.05085
3223.29093,0.05092
3221.23132,0.05106
3219.17171,0.05109
3217.11210,0.05098
3215.05248,0.05091
3212.99287,0.05099
3210.93326,0.05114
3208.87365,0.05120
3206.81404,0.05121
3204.75443,0.05125
3202.69482,0.05127
3200.63521,0.05126
3198.57560,0.05137
3196.51599,0.05147
3194.45638,0.05132
3192.39677,0.05103
3190.33716,0.05078
3188.27754,0.05066
3186.21793,0.05069
3184.15832,0.05084
3182.09871,0.05093
3180.03910,0.05076
3177.97949,0.05059
3175.91988,0.05061
3173.86027,0.05049
3171.80066,0.05028
3169.74105,0.05028
3167.68144,0.05040
3165.62183,0.05047
3163.56221,0.05038
3161.50260,0.05020
3159.44299,0.05007
3157.38338,0.05003
3155.32377,0.04999
3153.26416,0.04988
3151.20455,0.04980
3149.14494,0.04970
3147.08533,0.04957
3145.02572,0.04960
3142.96611,0.04968
3140.90650,0.04952
3138.84688,0.04925
3136.78727,0.04921
3134.72766,0.04933
3132.66805,0.04935
3130.60844,0.04930
3128.54883,0.04924
3126.48922,0.04916
3124.42961,0.04915
3122.37000,0.04918
3120.31039,0.04916
3118.25078,0.04915
3116.19117,0.04925
3114.13155,0.04942
3112.07194,0.04954
3110.01233,0.04955
3107.95272,0.04947
3105.89311,0.04939
3103.83350,0.04950
3101.77389,0.04971
3099.71428,0.04983
3097.65467,0.04990
3095.59506,0.05001
3093.53545,0.05018
3091.47584,0.05026
3089.41623,0.05022
3087.35661,0.05027
3085.29700,0.05043
3083.23739,0.05055
3081.17778,0.05069
3079.11817,0.05087
3077.05856,0.05102
3074.99895,0.05111
3072.93934,0.05110
3070.87973,0.05100
3068.82012,0.05099
3066.76051,0.05105
3064.70090,0.05102
3062.64128,0.05096
3060.58167,0.05097
3058.52206,0.05106
3056.46245,0.05111
3054.40284,0.05107
3052.34323,0.05099
3050.28362,0.05089
3048.22401,0.05074
3046.16440,0.05058
3044.10479,0.05042
3042.04518,0.05025
3039.98557,0.05016
3037.92595,0.05008
3035.86634,0.04993
3033.80673,0.04969
3031.74712,0.04943
3029.68751,0.04929
3027.62790,0.04921
3025.56829,0.04902
3023.50868,0.04874
3021.44907,0.04857
3019.38946,0.04851
3017.32985,0.04835
3015.27024,0.04812
3013.21062,0.04796
3011.15101,0.04789
3009.09140,0.04789
3007.03179,0.04783
3004.97218,0.04765
3002.91257,0.04746
3000.85296,0.04737
2998.79335,0.04739
2996.73374,0.04747
2994.67413,0.04753
2992.61452,0.04762
2990.55491,0.04780
2988.49530,0.04804
2986.43568,0.04827
2984.37607,0.04857
2982.31646,0.04898
2980.25685,0.04944
2978.19724,0.04990
2976.13763,0.05032
2974.07802,0.05068
2972.01841,0.05112
2969.95880,0.05165
2967.89919,0.05212
2965.83958,0.05248
2963.77997,0.05272
2961.72035,0.05294
2959.66074,0.05307
2957.60113,0.05291
2955.54152,0.05259
2953.48191,0.05234
2951.42230,0.05215
2949.36269,0.05196
2947.30308,0.05183
2945.24347,0.05178
2943.18386,0.05183
2941.12425,0.05196
2939.06464,0.05214
2937.00502,0.05232
2934.94541,0.05249
2932.88580,0.05265
2930.82619,0.05273
2928.76658,0.05267
2926.70697,0.05247
2924.64736,0.05221
2922.58775,0.05190
2920.52814,0.05155
2918.46853,0.05130
2916.40892,0.05097
2914.34931,0.05037
2912.28969,0.04969
2910.23008,0.04918
2908.17047,0.04876
2906.11086,0.04828
2904.05125,0.04788
2901.99164,0.04771
2899.93203,0.04758
2897.87242,0.04724
2895.81281,0.04685
2893.75320,0.04660
2891.69359,0.04641
2889.63398,0.04623
2887.57437,0.04608
2885.51475,0.04599
2883.45514,0.04604
2881.39553,0.04613
2879.33592,0.04614
2877.27631,0.04612
2875.21670,0.04606
2873.15709,0.04595
2871.09748,0.04572
2869.03787,0.04542
2866.97826,0.04513
2864.91865,0.04476
2862.85904,0.04430
2860.79942,0.04388
2858.73981,0.04356
2856.68020,0.04327
2854.62059,0.04298
2852.56098,0.04274
2850.50137,0.04255
2848.44176,0.04230
2846.38215,0.04190
2844.32254,0.04138
2842.26293,0.04082
2840.20332,0.04037
2838.14371,0.04011
2836.08409,0.03982
2834.02448,0.03944
2831.96487,0.03911
2829.90526,0.03887
2827.84565,0.03870
2825.78604,0.03854
2823.72643,0.03838
2821.66682,0.03819
2819.60721,0.03791
2817.54760,0.03761
2815.48799,0.03734
2813.42838,0.03705
2811.36876,0.03683
2809.30915,0.03670
2807.24954,0.03653
2805.18993,0.03626
2803.13032,0.03598
2801.07071,0.03580
2799.01110,0.03572
2796.95149,0.03559
2794.89188,0.03532
2792.83227,0.03499
2790.77266,0.03477
2788.71305,0.03464
2786.65344,0.03453
2784.59382,0.03445
2782.53421,0.03428
2780.47460,0.03405
2778.41499,0.03395
2776.35538,0.03395
2774.29577,0.03387
2772.23616,0.03369
2770.17655,0.03356
2768.11694,0.03354
2766.05733,0.03344
2763.99772,0.03322
2761.93811,0.03296
2759.87849,0.03274
2757.81888,0.03263
2755.75927,0.03253
2753.69966,0.03239
2751.64005,0.03226
2749.58044,0.03217
2747.52083,0.03210
2745.46122,0.03197
2743.40161,0.03180
2741.34200,0.03170
2739.28239,0.03159
2737.22278,0.03142
2735.16316,0.03129
2733.10355,0.03121
2731.04394,0.03113
2728.98433,0.03104
2726.92472,0.03093
2724.86511,0.03080
2722.80550,0.03064
2720.74589,0.03047
2718.68628,0.03037
2716.62667,0.03024
2714.56706,0.03007
2712.50745,0.02996
2710.44783,0.02984
2708.38822,0.02971
2706.32861,0.02960
2704.26900,0.02943
2702.20939,0.02930
2700.14978,0.02923
2698.09017,0.02914
2696.03056,0.02906
2693.97095,0.02901
2691.91134,0.02892
2689.85173,0.02875
2687.79212,0.02857
2685.73251,0.02847
2683.67289,0.02841
2681.61328,0.02833
2679.55367,0.02817
2677.49406,0.02801
2675.43445,0.02797
2673.37484,0.02801
2671.31523,0.02799
2669.25562,0.02793
2667.19601,0.02778
2665.13640,0.02762
2663.07679,0.02762
2661.01718,0.02766
2658.95756,0.02758
2656.89795,0.02749
2654.83834,0.02746
2652.77873,0.02743
2650.71912,0.02742
2648.65951,0.02739
2646.59990,0.02727
2644.54029,0.02715
2642.48068,0.02703
2640.42107,0.02687
2638.36146,0.02673
2636.30185,0.02664
2634.24223,0.02654
2632.18262,0.02646
2630.12301,0.02644
2628.06340,0.02649
2626.00379,0.02652
2623.94418,0.02641
2621.88457,0.02626
2619.82496,0.02616
2617.76535,0.02592
2615.70574,0.02561
2613.64613,0.02555
2611.58652,0.02567
2609.52690,0.02567
2607.46729,0.02554
2605.40768,0.02532
2603.34807,0.02505
2601.28846,0.02491
2599.22885,0.02494
2597.16924,0.02493
2595.10963,0.02484
2593.05002,0.02474
2590.99041,0.02461
2588.93080,0.02449
2586.87119,0.02438
2584.81158,0.02428
2582.75196,0.02420
2580.69235,0.02398
2578.63274,0.02372
2576.57313,0.02358
2574.51352,0.02341
2572.45391,0.02321
2570.39430,0.02309
2568.33469,0.02300
2566.27508,0.02291
2564.21547,0.02280
2562.15586,0.02273
2560.09625,0.02272
2558.03663,0.02262
2555.97702,0.02244
2553.91741,0.02234
2551.85780,0.02237
2549.79819,0.02250
2547.73858,0.02242
2545.67897,0.02200
2543.61936,0.02168
2541.55975,0.02165
2539.50014,0.02168
2537.44053,0.02163
2535.38092,0.02146
2533.32130,0.02139
2531.26169,0.02147
2529.20208,0.02138
2527.14247,0.02116
2525.08286,0.02100
2523.02325,0.02100
2520.96364,0.02110
2518.90403,0.02106
2516.84442,0.02089
2514.78481,0.02081
2512.72520,0.02089
2510.66559,0.02086
2508.60597,0.02055
2506.54636,0.02019
2504.48675,0.01993
2502.42714,0.01986
2500.36753,0.01996
2498.30792,0.02001
2496.24831,0.01992
2494.18870,0.01985
2492.12909,0.01978
2490.06948,0.01960
2488.00987,0.01945
2485.95026,0.01938
2483.89065,0.01931
2481.83103,0.01921
2479.77142,0.01907
2477.71181,0.01891
2475.65220,0.01879
2473.59259,0.01872
2471.53298,0.01871
2469.47337,0.01868
2467.41376,0.01862
2465.35415,0.01855
2463.29454,0.01846
2461.23493,0.01846
2459.17532,0.01852
2457.11570,0.01839
2455.05609,0.01814
2452.99648,0.01804
2450.93687,0.01804
2448.87726,0.01800
2446.81765,0.01797
2444.75804,0.01796
2442.69843,0.01782
2440.63882,0.01756
2438.57921,0.01731
2436.51960,0.01717
2434.45999,0.01713
2432.40037,0.01702
2430.34076,0.01677
2428.28115,0.01655
2426.22154,0.01648
2424.16193,0.01649
2422.10232,0.01654
2420.04271,0.01656
2417.98310,0.01655
2415.92349,0.01655
2413.86388,0.01652
2411.80427,0.01652
2409.74466,0.01654
2407.68504,0.01643
2405.62543,0.01632
2403.56582,0.01625
2401.50621,0.01613
2399.44660,0.01596
2397.38699,0.01598
2395.32738,0.01608
2393.26777,0.01613
2391.20816,0.01609
2389.14855,0.01598
2387.08894,0.01585
2385.02933,0.01576
2382.96972,0.01575
2380.91010,0.01580
2378.85049,0.01575
2376.79088,0.01549
2374.73127,0.01521
2372.67166,0.01523
2370.61205,0.01550
2368.55244,0.01563
2366.49283,0.01553
2364.43322,0.01550
2362.37361,0.01572
2360.31400,0.01597
2358.25439,0.01595
2356.19477,0.01573
2354.13516,0.01560
2352.07555,0.01569
2350.01594,0.01576
2347.95633,0.01560
2345.89672,0.01529
2343.83711,0.01506
2341.77750,0.01497
2339.71789,0.01494
2337.65828,0.01487
2335.59867,0.01481
2333.53906,0.01488
2331.47944,0.01496
2329.41983,0.01500
2327.36022,0.01505
2325.30061,0.01505
2323.24100,0.01486
2321.18139,0.01467
2319.12178,0.01462
2317.06217,0.01459
2315.00256,0.01455
2312.94295,0.01458
2310.88334,0.01463
2308.82373,0.01451
2306.76411,0.01426
2304.70450,0.01406
2302.64489,0.01395
2300.58528,0.01386
2298.52567,0.01382
2296.46606,0.01384
2294.40645,0.01388
2292.34684,0.01388
2290.28723,0.01379
2288.22762,0.01368
2286.16801,0.01359
2284.10840,0.01344
2282.04878,0.01323
2279.98917,0.01302
2277.92956,0.01293
2275.86995,0.01290
2273.81034,0.01268
2271.75073,0.01241
2269.69112,0.01235
2267.63151,0.01237
2265.57190,0.01224
2263.51229,0.01194
2261.45268,0.01172
2259.39307,0.01189
2257.33346,0.01233
2255.27384,0.01258
2253.21423,0.01242
2251.15462,0.01209
2249.09501,0.01183
2247.03540,0.01176
2244.97579,0.01175
2242.91618,0.01162
2240.85657,0.01117
2238.79696,0.01070
2236.73735,0.01055
2234.67774,0.01062
2232.61813,0.01064
2230.55851,0.01051
2228.49890,0.01037
2226.43929,0.01026
2224.37968,0.01039
2222.32007,0.01071
2220.26046,0.01073
2218.20085,0.01063
2216.14124,0.01093
2214.08163,0.01132
2212.02202,0.01132
2209.96241,0.01107
2207.90280,0.01064
2205.84318,0.01013
2203.78357,0.01002
2201.72396,0.01032
2199.66435,0.01057
2197.60474,0.01054
2195.54513,0.01032
2193.48552,0.01006
2191.42591,0.00990
2189.36630,0.00979
2187.30669,0.00959
2185.24708,0.00938
2183.18747,0.00917
2181.12785,0.00889
2179.06824,0.00890
2177.00863,0.00924
2174.94902,0.00970
2172.88941,0.01024
2170.82980,0.01062
2168.77019,0.01051
2166.71058,0.00993
2164.65097,0.00925
2162.59136,0.00873
2160.53175,0.00793
2158.47214,0.00726
2156.41253,0.00786
2154.35291,0.00893
2152.29330,0.00925
2150.23369,0.00897
2148.17408,0.00869
2146.11447,0.00901
2144.05486,0.00982
2141.99525,0.01017
2139.93564,0.00995
2137.87603,0.00975
2135.81642,0.00981
2133.75681,0.01011
2131.69720,0.01039
2129.63758,0.01049
2127.57797,0.01060
2125.51836,0.01066
2123.45875,0.01045
2121.39914,0.01030
2119.33953,0.01045
2117.27992,0.01068
2115.22031,0.01084
2113.16070,0.01097
2111.10109,0.01095
2109.04148,0.01070
2106.98187,0.01047
2104.92225,0.01069
2102.86264,0.01130
2100.80303,0.01168
2098.74342,0.01133
2096.68381,0.01051
2094.62420,0.00996
2092.56459,0.01018
2090.50498,0.01082
2088.44537,0.01114
2086.38576,0.01100
2084.32615,0.01086
2082.26654,0.01094
2080.20692,0.01106
2078.14731,0.01073
2076.08770,0.01005
2074.02809,0.00983
2071.96848,0.01020
2069.90887,0.01049
2067.84926,0.01050
2065.78965,0.01050
2063.73004,0.01053
2061.67043,0.01037
2059.61082,0.01021
2057.55121,0.01037
2055.49160,0.01046
2053.43198,0.01039
2051.37237,0.01036
2049.31276,0.01028
2047.25315,0.01027
2045.19354,0.01008
2043.13393,0.00926
2041.07432,0.00839
2039.01471,0.00828
2036.95510,0.00868
2034.89549,0.00887
2032.83588,0.00879
2030.77627,0.00865
2028.71665,0.00864
2026.65704,0.00891
2024.59743,0.00931
2022.53782,0.00945
2020.47821,0.00915
2018.41860,0.00870
2016.35899,0.00819
2014.29938,0.00759
2012.23977,0.00729
2010.18016,0.00744
2008.12055,0.00769
2006.06094,0.00772
2004.00132,0.00765
2001.94171,0.00792
1999.88210,0.00867
1997.82249,0.00921
1995.76288,0.00913
1993.70327,0.00911
1991.64366,0.00940
1989.58405,0.00975
1987.52444,0.01000
1985.46483,0.00984
1983.40522,0.00949
1981.34561,0.00938
1979.28599,0.00920
1977.22638,0.00883
1975.16677,0.00855
1973.10716,0.00819
1971.04755,0.00772
1968.98794,0.00775
1966.92833,0.00834
1964.86872,0.00876
1962.80911,0.00884
1960.74950,0.00889
1958.68989,0.00879
1956.63028,0.00860
1954.57067,0.00870
1952.51105,0.00889
1950.45144,0.00895
1948.39183,0.00906
1946.33222,0.00898
1944.27261,0.00865
1942.21300,0.00851
1940.15339,0.00866
1938.09378,0.00899
1936.03417,0.00937
1933.97456,0.00953
1931.91495,0.00946
1929.85534,0.00943
1927.79572,0.00959
1925.73611,0.00973
1923.67650,0.00962
1921.61689,0.00946
1919.55728,0.00950
1917.49767,0.00966
1915.43806,0.00978
1913.37845,0.00973
1911.31884,0.00956
1909.25923,0.00933
1907.19962,0.00907
1905.14001,0.00901
1903.08039,0.00926
1901.02078,0.00959
1898.96117,0.00970
1896.90156,0.00963
1894.84195,0.00956
1892.78234,0.00945
1890.72273,0.00925
1888.66312,0.00917
1886.60351,0.00933
1884.54390,0.00952
1882.48429,0.00953
1880.42468,0.00935
1878.36506,0.00914
1876.30545,0.00903
1874.24584,0.00905
1872.18623,0.00927
1870.12662,0.00968
1868.06701,0.00988
1866.00740,0.00963
1863.94779,0.00930
1861.88818,0.00919
1859.82857,0.00920
1857.76896,0.00925
1855.70935,0.00932
1853.64974,0.00941
1851.59012,0.00939
1849.53051,0.00917
1847.47090,0.00891
1845.41129,0.00885
1843.35168,0.00904
1841.29207,0.00923
1839.23246,0.00933
1837.17285,0.00937
1835.11324,0.00936
1833.05363,0.00931
1830.99402,0.00921
1828.93441,0.00907
1826.87479,0.00893
1824.81518,0.00889
1822.75557,0.00899
1820.69596,0.00911
1818.63635,0.00917
1816.57674,0.00913
1814.51713,0.00911
1812.45752,0.00918
1810.39791,0.00926
1808.33830,0.00924
1806.27869,0.00914
1804.21908,0.00912
1802.15946,0.00924
1800.09985,0.00940
1798.04024,0.00944
1795.98063,0.00938
1793.92102,0.00932
1791.86141,0.00933
1789.80180,0.00937
1787.74219,0.00944
1785.68258,0.00957
1783.62297,0.00968
1781.56336,0.00976
1779.50375,0.00985
1777.44413,0.00996
1775.38452,0.00999
1773.32491,0.00996
1771.26530,0.01006
1769.20569,0.01031
1767.14608,0.01049
1765.08647,0.01056
1763.02686,0.01071
1760.96725,0.01100
1758.90764,0.01132
1756.84803,0.01159
1754.78842,0.01185
1752.72881,0.01223
1750.66919,0.01281
1748.60958,0.01343
1746.54997,0.01391
1744.49036,0.01430
1742.43075,0.01478
1740.37114,0.01543
1738.31153,0.01610
1736.25192,0.01665
1734.19231,0.01736
1732.13270,0.01830
1730.07309,0.01915
1728.01348,0.01983
1725.95386,0.02040
1723.89425,0.02100
1721.83464,0.02161
1719.77503,0.02215
1717.71542,0.02278
1715.65581,0.02363
1713.59620,0.02443
1711.53659,0.02508
1709.47698,0.02568
1707.41737,0.02643
1705.35776,0.02747
1703.29815,0.02866
1701.23853,0.03020
1699.17892,0.03234
1697.11931,0.03458
1695.05970,0.03677
1693.00009,0.03873
1690.94048,0.04057
1688.88087,0.04251
1686.82126,0.04457
1684.76165,0.04724
1682.70204,0.05026
1680.64243,0.05252
1678.58282,0.05436
1676.52320,0.05650
1674.46359,0.05892
1672.40398,0.06112
1670.34437,0.06341
1668.28476,0.06600
1666.22515,0.06822
1664.16554,0.07019
1662.10593,0.07245
1660.04632,0.07462
1657.98671,0.07626
1655.92710,0.07768
1653.86749,0.07965
1651.80788,0.08176
1649.74826,0.08277
1647.68865,0.08344
1645.62904,0.08443
1643.56943,0.08522
1641.50982,0.08565
1639.45021,0.08592
1637.39060,0.08616
1635.33099,0.08644
1633.27138,0.08653
1631.21177,0.08633
1629.15216,0.08596
1627.09255,0.08548
1625.03293,0.08491
1622.97332,0.08419
1620.91371,0.08335
1618.85410,0.08240
1616.79449,0.08132
1614.73488,0.08030
1612.67527,0.07949
1610.61566,0.07877
1608.55605,0.07804
1606.49644,0.07725
1604.43683,0.07636
1602.37722,0.07545
1600.31760,0.07468
1598.25799,0.07409
1596.19838,0.07366
1594.13877,0.07337
1592.07916,0.07321
1590.01955,0.07318
1587.95994,0.07320
1585.90033,0.07323
1583.84072,0.07319
1581.78111,0.07294
1579.72150,0.07241
1577.66189,0.07165
1575.60227,0.07084
1573.54266,0.07021
1571.48305,0.06970
1569.42344,0.06917
1567.36383,0.06871
1565.30422,0.06839
1563.24461,0.06811
1561.18500,0.06793
1559.12539,0.06825
1557.06578,0.06907
1555.00617,0.06973
1552.94656,0.07018
1550.88695,0.07058
1548.82733,0.07093
1546.76772,0.07124
1544.70811,0.07151
1542.64850,0.07165
1540.58889,0.07175
1538.52928,0.07198
1536.46967,0.07213
1534.41006,0.07217
1532.35045,0.07225
1530.29084,0.07240
1528.23123,0.07264
1526.17162,0.07298
1524.11200,0.07338
1522.05239,0.07392
1519.99278,0.07452
1517.93317,0.07483
1515.87356,0.07456
1513.81395,0.07367
1511.75434,0.07229
1509.69473,0.07042
1507.63512,0.06769
1505.57551,0.06452
1503.51590,0.06238
1501.45629,0.06092
1499.39667,0.05924
1497.33706,0.05716
1495.27745,0.05510
1493.21784,0.05343
1491.15823,0.05190
1489.09862,0.05025
1487.03901,0.04878
1484.97940,0.04767
1482.91979,0.04682
1480.86018,0.04615
1478.80057,0.04577
1476.74096,0.04572
1474.68134,0.04596
1472.62173,0.04641
1470.56212,0.04682
1468.50251,0.04707
1466.44290,0.04732
1464.38329,0.04767
1462.32368,0.04804
1460.26407,0.04834
1458.20446,0.04870
1456.14485,0.04914
1454.08524,0.04941
1452.02563,0.04943
1449.96602,0.04929
1447.90640,0.04913
1445.84679,0.04899
1443.78718,0.04882
1441.72757,0.04860
1439.66796,0.04833
1437.60835,0.04798
1435.54874,0.04759
1433.48913,0.04729
1431.42952,0.04724
1429.36991,0.04758
1427.31030,0.04823
1425.25069,0.04918
1423.19107,0.05040
1421.13146,0.05184
1419.07185,0.05367
1417.01224,0.05567
1414.95263,0.05738
1412.89302,0.05887
1410.83341,0.06027
1408.77380,0.06149
1406.71419,0.06238
1404.65458,0.06293
1402.59497,0.06317
1400.53536,0.06313
1398.47574,0.06286
1396.41613,0.06243
1394.35652,0.06184
1392.29691,0.06122
1390.23730,0.06064
1388.17769,0.05994
1386.11808,0.05901
1384.05847,0.05799
1381.99886,0.05698
1379.93925,0.05597
1377.87964,0.05497
1375.82003,0.05402
1373.76041,0.05316
1371.70080,0.05245
1369.64119,0.05194
1367.58158,0.05158
1365.52197,0.05128
1363.46236,0.05094
1361.40275,0.05060
1359.34314,0.05036
1357.28353,0.05023
1355.22392,0.05022
1353.16431,0.05030
1351.10470,0.05033
1349.04508,0.05025
1346.98547,0.05005
1344.92586,0.04979
1342.86625,0.04958
1340.80664,0.04943
1338.74703,0.04932
1336.68742,0.04933
1334.62781,0.04953
1332.56820,0.04974
1330.50859,0.04966
1328.44898,0.04919
1326.38937,0.04854
1324.32976,0.04791
1322.27014,0.04740
1320.21053,0.04704
1318.15092,0.04679
1316.09131,0.04656
1314.03170,0.04625
1311.97209,0.04589
1309.91248,0.04551
1307.85287,0.04508
1305.79326,0.04458
1303.73365,0.04408
1301.67404,0.04370
1299.61443,0.04339
1297.55481,0.04292
1295.49520,0.04227
1293.43559,0.04167
1291.37598,0.04118
1289.31637,0.04070
1287.25676,0.04021
1285.19715,0.03983
1283.13754,0.03952
1281.07793,0.03924
1279.01832,0.03908
1276.95871,0.03904
1274.89910,0.03902
1272.83948,0.03896
1270.77987,0.03894
1268.72026,0.03901
1266.66065,0.03909
1264.60104,0.03909
1262.54143,0.03906
1260.48182,0.03912
1258.42221,0.03930
1256.36260,0.03953
1254.30299,0.03980
1252.24338,0.04007
1250.18377,0.04040
1248.12415,0.04085
1246.06454,0.04127
1244.00493,0.04146
1241.94532,0.04143
1239.88571,0.04133
1237.82610,0.04121
1235.76649,0.04104
1233.70688,0.04082
1231.64727,0.04057
1229.58766,0.04033
1227.52805,0.04012
1225.46844,0.03990
1223.40883,0.03963
1221.34921,0.03933
1219.28960,0.03899
1217.22999,0.03868
1215.17038,0.03846
1213.11077,0.03818
1211.05116,0.03775
1208.99155,0.03726
1206.93194,0.03677
1204.87233,0.03632
1202.81272,0.03592
1200.75311,0.03555
1198.69350,0.03521
1196.63388,0.03486
1194.57427,0.03448
1192.51466,0.03418
1190.45505,0.03400
1188.39544,0.03385
1186.33583,0.03360
1184.27622,0.03325
1182.21661,0.03296
1180.15700,0.03284
1178.09739,0.03291
1176.03778,0.03308
1173.97817,0.03328
1171.91855,0.03345
1169.85894,0.03357
1167.79933,0.03369
1165.73972,0.03389
1163.68011,0.03414
1161.62050,0.03436
1159.56089,0.03455
1157.50128,0.03472
1155.44167,0.03481
1153.38206,0.03474
1151.32245,0.03462
1149.26284,0.03452
1147.20322,0.03432
1145.14361,0.03403
1143.08400,0.03379
1141.02439,0.03363
1138.96478,0.03352
1136.90517,0.03350
1134.84556,0.03353
1132.78595,0.03358
1130.72634,0.03369
1128.66673,0.03384
1126.60712,0.03401
1124.54751,0.03420
1122.48790,0.03431
1120.42828,0.03440
1118.36867,0.03461
1116.30906,0.03488
1114.24945,0.03511
1112.18984,0.03523
1110.13023,0.03521
1108.07062,0.03511
1106.01101,0.03504
1103.95140,0.03505
1101.89179,0.03505
1099.83218,0.03503
1097.77257,0.03500
1095.71295,0.03499
1093.65334,0.03505
1091.59373,0.03516
1089.53412,0.03532
1087.47451,0.03560
1085.41490,0.03590
1083.35529,0.03613
1081.29568,0.03643
1079.23607,0.03688
1077.17646,0.03728
1075.11685,0.03745
1073.05724,0.03753
1070.99762,0.03764
1068.93801,0.03774
1066.87840,0.03780
1064.81879,0.03783
1062.75918,0.03788
1060.69957,0.03793
1058.63996,0.03789
1056.58035,0.03780
1054.52074,0.03777
1052.46113,0.03785
1050.40152,0.03798
1048.34191,0.03814
1046.28229,0.03840
1044.22268,0.03876
1042.16307,0.03905
1040.10346,0.03913
1038.04385,0.03909
1035.98424,0.03908
1033.92463,0.03903
1031.86502,0.03885
1029.80541,0.03858
1027.74580,0.03835
1025.68619,0.03817
1023.62658,0.03795
1021.56697,0.03761
1019.50735,0.03720
1017.44774,0.03679
1015.38813,0.03634
1013.32852,0.03583
1011.26891,0.03532
1009.20930,0.03483
1007.14969,0.03444
1005.09008,0.03414
1003.03047,0.03388
1000.97086,0.03353
998.91125,0.03311
996.85164,0.03273
994.79202,0.03232
992.73241,0.03180
990.67280,0.03115
988.61319,0.03051
986.55358,0.02997
984.49397,0.02941
982.43436,0.02880
980.37475,0.02826
978.31514,0.02778
976.25553,0.02735
974.19592,0.02696
972.13631,0.02653
970.07669,0.02604
968.01708,0.02561
965.95747,0.02528
963.89786,0.02496
961.83825,0.02462
959.77864,0.02429
957.71903,0.02400
955.65942,0.02375
953.59981,0.02356
951.54020,0.02336
949.48059,0.02322
947.42098,0.02323
945.36136,0.02328
943.30175,0.02329
941.24214,0.02321
939.18253,0.02302
937.12292,0.02284
935.06331,0.02278
933.00370,0.02277
930.94409,0.02278
928.88448,0.02272
926.82487,0.02257
924.76526,0.02250
922.70565,0.02252
920.64604,0.02243
918.58642,0.02219
916.52681,0.02198
914.46720,0.02181
912.40759,0.02166
910.34798,0.02161
908.28837,0.02169
906.22876,0.02182
904.16915,0.02193
902.10954,0.02195
900.04993,0.02194
897.99032,0.02194
895.93071,0.02199
893.87109,0.02197
891.81148,0.02180
889.75187,0.02168
887.69226,0.02166
885.63265,0.02154
883.57304,0.02134
881.51343,0.02120
879.45382,0.02115
877.39421,0.02126
875.33460,0.02128
873.27499,0.02107
871.21538,0.02095
869.15576,0.02099
867.09615,0.02096
865.03654,0.02083
862.97693,0.02074
860.91732,0.02074
858.85771,0.02082
856.79810,0.02095
854.73849,0.02113
852.67888,0.02136
850.61927,0.02170
848.55966,0.02204
846.50005,0.02223
844.44043,0.02237
842.38082,0.02246
840.32121,0.02235
838.26160,0.02209
836.20199,0.02190
834.14238,0.02184
832.08277,0.02190
830.02316,0.02211
827.96355,0.02239
825.90394,0.02251
823.84433,0.02241
821.78472,0.02241
819.72511,0.02261
817.66549,0.02262
815.60588,0.02245
813.54627,0.02251
811.48666,0.02291
809.42705,0.02338
807.36744,0.02355
805.30783,0.02354
803.24822,0.02368
801.18861,0.02385
799.12900,0.02377
797.06939,0.02359
795.00978,0.02364
792.95016,0.02388
790.89055,0.02411
788.83094,0.02436
786.77133,0.02465
784.71172,0.02494
782.65211,0.02519
780.59250,0.02527
778.53289,0.02527
776.47328,0.02550
774.41367,0.02593
772.35406,0.02639
770.29445,0.02670
768.23483,0.02679
766.17522,0.02685
764.11561,0.02693
762.05600,0.02680
759.99639,0.02662
757.93678,0.02670
755.87717,0.02698
753.81756,0.02720
751.75795,0.02724
749.69834,0.02724
747.63873,0.02728
745.57912,0.02734
743.51950,0.02749
741.45989,0.02772
739.40028,0.02787
737.34067,0.02793
735.28106,0.02791
733.22145,0.02782
731.16184,0.02776
729.10223,0.02782
727.04262,0.02801
724.98301,0.02823
722.92340,0.02843
720.86379,0.02873
718.80418,0.02903
716.74456,0.02914
714.68495,0.02936
712.62534,0.02981
710.56573,0.03021
708.50612,0.03054
706.44651,0.03094
704.38690,0.03136
702.32729,0.03160
700.26768,0.03163
698.20807,0.03165
696.14846,0.03180
694.08885,0.03200
692.02923,0.03204
689.96962,0.03187
687.91001,0.03180
685.85040,0.03193
683.79079,0.03204
681.73118,0.03221
679.67157,0.03248
677.61196,0.03272
675.55235,0.03290
673.49274,0.03306
671.43313,0.03309
669.37352,0.03302
667.31390,0.03330
665.25429,0.03351
663.19468,0.03360
661.13507,0.03356
659.07546,0.03347
657.01585,0.03365
654.95624,0.03404
652.89663,0.03410
650.83702,0.03376
648.77741,0.03350
646.71780,0.03341
644.65819,0.03335
642.59857,0.03347
640.53896,0.03369
638.47935,0.03370
636.41974,0.03356
634.36013,0.03355
632.30052,0.03375
630.24091,0.03401
628.18130,0.03419
626.12169,0.03418
624.06208,0.03402
622.00247,0.03388
619.94286,0.03382
617.88325,0.03369
615.82363,0.03346
613.76402,0.03332
611.70441,0.03339
609.64480,0.03333
607.58519,0.03299
605.52558,0.03270
603.46597,0.03268
601.40636,0.03275
599.34675,0.03265
597.28714,0.03242
595.22753,0.03240
593.16792,0.03271
591.10830,0.03300
589.04869,0.03296
586.98908,0.03272
584.92947,0.03265
582.86986,0.03285
580.81025,0.03299
578.75064,0.03302
576.69103,0.03315
574.63142,0.03326
572.57181,0.03324
570.51220,0.03331
568.45259,0.03353
566.39297,0.03377
564.33336,0.03374
562.27375,0.03337
560.21414,0.03316
558.15453,0.03334
556.09492,0.03365
554.03531,0.03381
551.97570,0.03362
549.91609,0.03331
547.85648,0.03357
545.79687,0.03433
543.73726,0.03496
541.67764,0.03524
539.61803,0.03534
537.55842,0.03539
535.49881,0.03537
533.43920,0.03517
531.37959,0.03486
529.31998,0.03467
527.26037,0.03464
525.20076,0.03457
523.14115,0.03453
521.08154,0.03459
519.02193,0.03434
516.96232,0.03379
514.90270,0.03346
512.84309,0.03330
510.78348,0.03289
508.72387,0.03224
506.66426,0.03181
504.60465,0.03168
502.54504,0.03136
500.48543,0.03057
498.42582,0.02972
496.36621,0.02938
494.30660,0.02977
492.24699,0.03032
490.18737,0.03028
488.12776,0.02977
486.06815,0.02924
484.00854,0.02890
481.94893,0.02870
479.88932,0.02837
477.82971,0.02798
475.77010,0.02788
473.71049,0.02816
471.65088,0.02845
469.59127,0.02824
467.53166,0.02782
465.47204,0.02769
463.41243,0.02770
461.35282,0.02776
459.29321,0.02794
457.23360,0.02806
455.17399,0.02776
453.11438,0.02692
451.05477,0.02626
448.99516,0.02633
446.93555,0.02663
444.87594,0.02665
442.81633,0.02653
440.75671,0.02649
438.69710,0.02677
436.63749,0.02722
434.57788,0.02725
432.51827,0.02677
430.45866,0.02638
428.39905,0.02649
426.33944,0.02702
424.27983,0.02761
422.22022,0.02765
420.16061,0.02674
418.10100,0.02528
416.04138,0.02421
413.98177,0.02370
411.92216,0.02333
409.86255,0.02295
407.80294,0.02276
405.74333,0.02301
403.68372,0.02379
401.62411,0.02468
399.56450,0.02509
