PE IR       SUBTECH     SPECTRUM    ASCII       PEDS        4.00        
   -1
post_Nitrile_glove_PE_8_18_24.ASC
24/08/19
20:42:23.00
24/08/19
20:42:33.00
Yarger Lab
Sample 348 By YargerLab Date Monday, August 19 2024
400.000000
#HDR
-1
-1
#GR
cm-1
A
1.0
0.0
4000.000000
-1.000000
3601
8
0.217077
0.007745
#DATA
4000.000000	0.008590
3999.000000	0.008578
3998.000000	0.008537
3997.000000	0.008511
3996.000000	0.008488
3995.000000	0.008471
3994.000000	0.008459
3993.000000	0.008451
3992.000000	0.008443
3991.000000	0.008435
3990.000000	0.008429
3989.000000	0.008426
3988.000000	0.008428
3987.000000	0.008433
3986.000000	0.008440
3985.000000	0.008447
3984.000000	0.008451
3983.000000	0.008451
3982.000000	0.008447
3981.000000	0.008441
3980.000000	0.008436
3979.000000	0.008432
3978.000000	0.008429
3977.000000	0.008423
3976.000000	0.008415
3975.000000	0.008404
3974.000000	0.008394
3973.000000	0.008386
3972.000000	0.008380
3971.000000	0.008375
3970.000000	0.008371
3969.000000	0.008369
3968.000000	0.008370
3967.000000	0.008374
3966.000000	0.008381
3965.000000	0.008388
3964.000000	0.008392
3963.000000	0.008394
3962.000000	0.008393
3961.000000	0.008392
3960.000000	0.008390
3959.000000	0.008387
3958.000000	0.008382
3957.000000	0.008378
3956.000000	0.008379
3955.000000	0.008384
3954.000000	0.008392
3953.000000	0.008400
3952.000000	0.008406
3951.000000	0.008412
3950.000000	0.008423
3949.000000	0.008440
3948.000000	0.008460
3947.000000	0.008471
3946.000000	0.008467
3945.000000	0.008450
3944.000000	0.008425
3943.000000	0.008404
3942.000000	0.008391
3941.000000	0.008387
3940.000000	0.008383
3939.000000	0.008377
3938.000000	0.008369
3937.000000	0.008367
3936.000000	0.008374
3935.000000	0.008391
3934.000000	0.008411
3933.000000	0.008425
3932.000000	0.008428
3931.000000	0.008416
3930.000000	0.008396
3929.000000	0.008372
3928.000000	0.008351
3927.000000	0.008339
3926.000000	0.008339
3925.000000	0.008350
3924.000000	0.008370
3923.000000	0.008393
3922.000000	0.008416
3921.000000	0.008432
3920.000000	0.008440
3919.000000	0.008439
3918.000000	0.008431
3917.000000	0.008414
3916.000000	0.008391
3915.000000	0.008368
3914.000000	0.008348
3913.000000	0.008333
3912.000000	0.008322
3911.000000	0.008317
3910.000000	0.008319
3909.000000	0.008323
3908.000000	0.008324
3907.000000	0.008323
3906.000000	0.008327
3905.000000	0.008346
3904.000000	0.008375
3903.000000	0.008398
3902.000000	0.008399
3901.000000	0.008376
3900.000000	0.008341
3899.000000	0.008313
3898.000000	0.008301
3897.000000	0.008304
3896.000000	0.008311
3895.000000	0.008313
3894.000000	0.008308
3893.000000	0.008303
3892.000000	0.008303
3891.000000	0.008306
3890.000000	0.008310
3889.000000	0.008317
3888.000000	0.008331
3887.000000	0.008344
3886.000000	0.008348
3885.000000	0.008341
3884.000000	0.008329
3883.000000	0.008314
3882.000000	0.008298
3881.000000	0.008289
3880.000000	0.008296
3879.000000	0.008314
3878.000000	0.008332
3877.000000	0.008342
3876.000000	0.008342
3875.000000	0.008335
3874.000000	0.008327
3873.000000	0.008330
3872.000000	0.008345
3871.000000	0.008360
3870.000000	0.008364
3869.000000	0.008357
3868.000000	0.008348
3867.000000	0.008342
3866.000000	0.008329
3865.000000	0.008307
3864.000000	0.008288
3863.000000	0.008289
3862.000000	0.008309
3861.000000	0.008338
3860.000000	0.008360
3859.000000	0.008362
3858.000000	0.008342
3857.000000	0.008315
3856.000000	0.008298
3855.000000	0.008291
3854.000000	0.008287
3853.000000	0.008279
3852.000000	0.008261
3851.000000	0.008244
3850.000000	0.008242
3849.000000	0.008251
3848.000000	0.008261
3847.000000	0.008267
3846.000000	0.008271
3845.000000	0.008278
3844.000000	0.008287
3843.000000	0.008294
3842.000000	0.008296
3841.000000	0.008291
3840.000000	0.008279
3839.000000	0.008258
3838.000000	0.008234
3837.000000	0.008210
3836.000000	0.008190
3835.000000	0.008176
3834.000000	0.008173
3833.000000	0.008182
3832.000000	0.008193
3831.000000	0.008200
3830.000000	0.008204
3829.000000	0.008210
3828.000000	0.008220
3827.000000	0.008230
3826.000000	0.008234
3825.000000	0.008236
3824.000000	0.008238
3823.000000	0.008236
3822.000000	0.008224
3821.000000	0.008210
3820.000000	0.008198
3819.000000	0.008183
3818.000000	0.008171
3817.000000	0.008160
3816.000000	0.008145
3815.000000	0.008129
3814.000000	0.008125
3813.000000	0.008134
3812.000000	0.008146
3811.000000	0.008150
3810.000000	0.008150
3809.000000	0.008158
3808.000000	0.008173
3807.000000	0.008184
3806.000000	0.008184
3805.000000	0.008181
3804.000000	0.008183
3803.000000	0.008187
3802.000000	0.008181
3801.000000	0.008168
3800.000000	0.008154
3799.000000	0.008144
3798.000000	0.008140
3797.000000	0.008137
3796.000000	0.008128
3795.000000	0.008111
3794.000000	0.008093
3793.000000	0.008079
3792.000000	0.008069
3791.000000	0.008060
3790.000000	0.008054
3789.000000	0.008054
3788.000000	0.008055
3787.000000	0.008058
3786.000000	0.008062
3785.000000	0.008067
3784.000000	0.008067
3783.000000	0.008062
3782.000000	0.008057
3781.000000	0.008058
3780.000000	0.008066
3779.000000	0.008079
3778.000000	0.008091
3777.000000	0.008098
3776.000000	0.008097
3775.000000	0.008090
3774.000000	0.008080
3773.000000	0.008076
3772.000000	0.008079
3771.000000	0.008080
3770.000000	0.008077
3769.000000	0.008073
3768.000000	0.008072
3767.000000	0.008073
3766.000000	0.008077
3765.000000	0.008080
3764.000000	0.008082
3763.000000	0.008085
3762.000000	0.008092
3761.000000	0.008101
3760.000000	0.008109
3759.000000	0.008119
3758.000000	0.008132
3757.000000	0.008146
3756.000000	0.008154
3755.000000	0.008158
3754.000000	0.008161
3753.000000	0.008166
3752.000000	0.008180
3751.000000	0.008205
3750.000000	0.008225
3749.000000	0.008211
3748.000000	0.008164
3747.000000	0.008107
3746.000000	0.008066
3745.000000	0.008046
3744.000000	0.008039
3743.000000	0.008038
3742.000000	0.008048
3741.000000	0.008070
3740.000000	0.008090
3739.000000	0.008103
3738.000000	0.008107
3737.000000	0.008099
3736.000000	0.008076
3735.000000	0.008050
3734.000000	0.008042
3733.000000	0.008056
3732.000000	0.008072
3731.000000	0.008075
3730.000000	0.008079
3729.000000	0.008101
3728.000000	0.008139
3727.000000	0.008173
3726.000000	0.008189
3725.000000	0.008195
3724.000000	0.008190
3723.000000	0.008170
3722.000000	0.008135
3721.000000	0.008095
3720.000000	0.008061
3719.000000	0.008038
3718.000000	0.008028
3717.000000	0.008025
3716.000000	0.008025
3715.000000	0.008029
3714.000000	0.008037
3713.000000	0.008042
3712.000000	0.008040
3711.000000	0.008030
3710.000000	0.008015
3709.000000	0.008002
3708.000000	0.007990
3707.000000	0.007972
3706.000000	0.007946
3705.000000	0.007913
3704.000000	0.007871
3703.000000	0.007822
3702.000000	0.007778
3701.000000	0.007753
3700.000000	0.007745
3699.000000	0.007747
3698.000000	0.007758
3697.000000	0.007774
3696.000000	0.007790
3695.000000	0.007806
3694.000000	0.007819
3693.000000	0.007826
3692.000000	0.007823
3691.000000	0.007816
3690.000000	0.007819
3689.000000	0.007834
3688.000000	0.007843
3687.000000	0.007836
3686.000000	0.007828
3685.000000	0.007833
3684.000000	0.007849
3683.000000	0.007871
3682.000000	0.007900
3681.000000	0.007937
3680.000000	0.007972
3679.000000	0.007998
3678.000000	0.008027
3677.000000	0.008061
3676.000000	0.008093
3675.000000	0.008109
3674.000000	0.008112
3673.000000	0.008114
3672.000000	0.008122
3671.000000	0.008131
3670.000000	0.008146
3669.000000	0.008182
3668.000000	0.008233
3667.000000	0.008283
3666.000000	0.008327
3665.000000	0.008363
3664.000000	0.008389
3663.000000	0.008401
3662.000000	0.008400
3661.000000	0.008389
3660.000000	0.008371
3659.000000	0.008349
3658.000000	0.008331
3657.000000	0.008319
3656.000000	0.008306
3655.000000	0.008288
3654.000000	0.008273
3653.000000	0.008271
3652.000000	0.008281
3651.000000	0.008292
3650.000000	0.008305
3649.000000	0.008311
3648.000000	0.008291
3647.000000	0.008244
3646.000000	0.008196
3645.000000	0.008162
3644.000000	0.008137
3643.000000	0.008115
3642.000000	0.008095
3641.000000	0.008081
3640.000000	0.008076
3639.000000	0.008070
3638.000000	0.008062
3637.000000	0.008055
3636.000000	0.008055
3635.000000	0.008058
3634.000000	0.008062
3633.000000	0.008067
3632.000000	0.008076
3631.000000	0.008082
3630.000000	0.008077
3629.000000	0.008069
3628.000000	0.008065
3627.000000	0.008065
3626.000000	0.008072
3625.000000	0.008091
3624.000000	0.008115
3623.000000	0.008136
3622.000000	0.008152
3621.000000	0.008161
3620.000000	0.008161
3619.000000	0.008161
3618.000000	0.008170
3617.000000	0.008191
3616.000000	0.008211
3615.000000	0.008219
3614.000000	0.008218
3613.000000	0.008224
3612.000000	0.008241
3611.000000	0.008257
3610.000000	0.008259
3609.000000	0.008244
3608.000000	0.008224
3607.000000	0.008216
3606.000000	0.008225
3605.000000	0.008243
3604.000000	0.008256
3603.000000	0.008258
3602.000000	0.008257
3601.000000	0.008264
3600.000000	0.008278
3599.000000	0.008293
3598.000000	0.008308
3597.000000	0.008324
3596.000000	0.008338
3595.000000	0.008348
3594.000000	0.008362
3593.000000	0.008386
3592.000000	0.008414
3591.000000	0.008435
3590.000000	0.008444
3589.000000	0.008443
3588.000000	0.008437
3587.000000	0.008434
3586.000000	0.008443
3585.000000	0.008462
3584.000000	0.008481
3583.000000	0.008493
3582.000000	0.008503
3581.000000	0.008516
3580.000000	0.008533
3579.000000	0.008548
3578.000000	0.008557
3577.000000	0.008564
3576.000000	0.008571
3575.000000	0.008582
3574.000000	0.008599
3573.000000	0.008623
3572.000000	0.008647
3571.000000	0.008667
3570.000000	0.008690
3569.000000	0.008724
3568.000000	0.008762
3567.000000	0.008788
3566.000000	0.008797
3565.000000	0.008804
3564.000000	0.008814
3563.000000	0.008825
3562.000000	0.008833
3561.000000	0.008843
3560.000000	0.008852
3559.000000	0.008859
3558.000000	0.008866
3557.000000	0.008876
3556.000000	0.008887
3555.000000	0.008899
3554.000000	0.008912
3553.000000	0.008931
3552.000000	0.008957
3551.000000	0.008987
3550.000000	0.009023
3549.000000	0.009064
3548.000000	0.009103
3547.000000	0.009129
3546.000000	0.009141
3545.000000	0.009147
3544.000000	0.009149
3543.000000	0.009149
3542.000000	0.009150
3541.000000	0.009153
3540.000000	0.009156
3539.000000	0.009158
3538.000000	0.009162
3537.000000	0.009173
3536.000000	0.009191
3535.000000	0.009212
3534.000000	0.009238
3533.000000	0.009270
3532.000000	0.009304
3531.000000	0.009333
3530.000000	0.009356
3529.000000	0.009379
3528.000000	0.009404
3527.000000	0.009428
3526.000000	0.009449
3525.000000	0.009472
3524.000000	0.009492
3523.000000	0.009506
3522.000000	0.009517
3521.000000	0.009529
3520.000000	0.009541
3519.000000	0.009551
3518.000000	0.009561
3517.000000	0.009577
3516.000000	0.009597
3515.000000	0.009615
3514.000000	0.009632
3513.000000	0.009651
3512.000000	0.009667
3511.000000	0.009677
3510.000000	0.009685
3509.000000	0.009698
3508.000000	0.009721
3507.000000	0.009749
3506.000000	0.009781
3505.000000	0.009818
3504.000000	0.009852
3503.000000	0.009873
3502.000000	0.009880
3501.000000	0.009882
3500.000000	0.009885
3499.000000	0.009890
3498.000000	0.009901
3497.000000	0.009920
3496.000000	0.009944
3495.000000	0.009967
3494.000000	0.009989
3493.000000	0.010017
3492.000000	0.010049
3491.000000	0.010079
3490.000000	0.010104
3489.000000	0.010124
3488.000000	0.010139
3487.000000	0.010151
3486.000000	0.010165
3485.000000	0.010187
3484.000000	0.010213
3483.000000	0.010235
3482.000000	0.010252
3481.000000	0.010266
3480.000000	0.010278
3479.000000	0.010284
3478.000000	0.010293
3477.000000	0.010311
3476.000000	0.010335
3475.000000	0.010355
3474.000000	0.010368
3473.000000	0.010379
3472.000000	0.010391
3471.000000	0.010404
3470.000000	0.010421
3469.000000	0.010443
3468.000000	0.010462
3467.000000	0.010473
3466.000000	0.010479
3465.000000	0.010491
3464.000000	0.010509
3463.000000	0.010529
3462.000000	0.010553
3461.000000	0.010584
3460.000000	0.010615
3459.000000	0.010639
3458.000000	0.010656
3457.000000	0.010672
3456.000000	0.010687
3455.000000	0.010698
3454.000000	0.010707
3453.000000	0.010720
3452.000000	0.010739
3451.000000	0.010763
3450.000000	0.010791
3449.000000	0.010820
3448.000000	0.010840
3447.000000	0.010848
3446.000000	0.010853
3445.000000	0.010867
3444.000000	0.010893
3443.000000	0.010922
3442.000000	0.010948
3441.000000	0.010972
3440.000000	0.010990
3439.000000	0.011000
3438.000000	0.011004
3437.000000	0.011011
3436.000000	0.011024
3435.000000	0.011042
3434.000000	0.011065
3433.000000	0.011095
3432.000000	0.011124
3431.000000	0.011143
3430.000000	0.011154
3429.000000	0.011165
3428.000000	0.011183
3427.000000	0.011206
3426.000000	0.011234
3425.000000	0.011267
3424.000000	0.011301
3423.000000	0.011331
3422.000000	0.011359
3421.000000	0.011390
3420.000000	0.011420
3419.000000	0.011439
3418.000000	0.011447
3417.000000	0.011450
3416.000000	0.011452
3415.000000	0.011455
3414.000000	0.011466
3413.000000	0.011488
3412.000000	0.011517
3411.000000	0.011540
3410.000000	0.011556
3409.000000	0.011575
3408.000000	0.011602
3407.000000	0.011631
3406.000000	0.011649
3405.000000	0.011650
3404.000000	0.011628
3403.000000	0.011593
3402.000000	0.011563
3401.000000	0.011564
3400.000000	0.011599
3399.000000	0.011656
3398.000000	0.011716
3397.000000	0.011762
3396.000000	0.011781
3395.000000	0.011768
3394.000000	0.011738
3393.000000	0.011720
3392.000000	0.011735
3391.000000	0.011787
3390.000000	0.011867
3389.000000	0.011956
3388.000000	0.012032
3387.000000	0.012089
3386.000000	0.012132
3385.000000	0.012166
3384.000000	0.012190
3383.000000	0.012198
3382.000000	0.012199
3381.000000	0.012205
3380.000000	0.012220
3379.000000	0.012240
3378.000000	0.012266
3377.000000	0.012302
3376.000000	0.012344
3375.000000	0.012373
3374.000000	0.012374
3373.000000	0.012341
3372.000000	0.012280
3371.000000	0.012212
3370.000000	0.012167
3369.000000	0.012171
3368.000000	0.012226
3367.000000	0.012319
3366.000000	0.012428
3365.000000	0.012530
3364.000000	0.012602
3363.000000	0.012636
3362.000000	0.012648
3361.000000	0.012669
3360.000000	0.012713
3359.000000	0.012772
3358.000000	0.012830
3357.000000	0.012878
3356.000000	0.012905
3355.000000	0.012899
3354.000000	0.012859
3353.000000	0.012805
3352.000000	0.012770
3351.000000	0.012781
3350.000000	0.012845
3349.000000	0.012942
3348.000000	0.013032
3347.000000	0.013081
3346.000000	0.013087
3345.000000	0.013074
3344.000000	0.013068
3343.000000	0.013079
3342.000000	0.013099
3341.000000	0.013124
3340.000000	0.013152
3339.000000	0.013193
3338.000000	0.013257
3337.000000	0.013341
3336.000000	0.013429
3335.000000	0.013502
3334.000000	0.013561
3333.000000	0.013615
3332.000000	0.013666
3331.000000	0.013711
3330.000000	0.013749
3329.000000	0.013777
3328.000000	0.013795
3327.000000	0.013809
3326.000000	0.013834
3325.000000	0.013884
3324.000000	0.013950
3323.000000	0.014015
3322.000000	0.014072
3321.000000	0.014121
3320.000000	0.014165
3319.000000	0.014199
3318.000000	0.014228
3317.000000	0.014261
3316.000000	0.014298
3315.000000	0.014330
3314.000000	0.014350
3313.000000	0.014359
3312.000000	0.014356
3311.000000	0.014345
3310.000000	0.014335
3309.000000	0.014332
3308.000000	0.014341
3307.000000	0.014360
3306.000000	0.014397
3305.000000	0.014455
3304.000000	0.014524
3303.000000	0.014587
3302.000000	0.014639
3301.000000	0.014684
3300.000000	0.014719
3299.000000	0.014740
3298.000000	0.014755
3297.000000	0.014779
3296.000000	0.014814
3295.000000	0.014852
3294.000000	0.014889
3293.000000	0.014931
3292.000000	0.014979
3291.000000	0.015031
3290.000000	0.015082
3289.000000	0.015130
3288.000000	0.015171
3287.000000	0.015201
3286.000000	0.015226
3285.000000	0.015254
3284.000000	0.015284
3283.000000	0.015314
3282.000000	0.015345
3281.000000	0.015382
3280.000000	0.015421
3279.000000	0.015457
3278.000000	0.015490
3277.000000	0.015527
3276.000000	0.015566
3275.000000	0.015600
3274.000000	0.015626
3273.000000	0.015655
3272.000000	0.015695
3271.000000	0.015746
3270.000000	0.015810
3269.000000	0.015885
3268.000000	0.015960
3267.000000	0.016022
3266.000000	0.016074
3265.000000	0.016128
3264.000000	0.016187
3263.000000	0.016247
3262.000000	0.016306
3261.000000	0.016367
3260.000000	0.016430
3259.000000	0.016495
3258.000000	0.016566
3257.000000	0.016649
3256.000000	0.016739
3255.000000	0.016826
3254.000000	0.016904
3253.000000	0.016981
3252.000000	0.017058
3251.000000	0.017134
3250.000000	0.017210
3249.000000	0.017291
3248.000000	0.017380
3247.000000	0.017473
3246.000000	0.017567
3245.000000	0.017661
3244.000000	0.017749
3243.000000	0.017826
3242.000000	0.017896
3241.000000	0.017968
3240.000000	0.018044
3239.000000	0.018117
3238.000000	0.018184
3237.000000	0.018247
3236.000000	0.018306
3235.000000	0.018361
3234.000000	0.018419
3233.000000	0.018490
3232.000000	0.018571
3231.000000	0.018651
3230.000000	0.018725
3229.000000	0.018797
3228.000000	0.018865
3227.000000	0.018927
3226.000000	0.018988
3225.000000	0.019055
3224.000000	0.019130
3223.000000	0.019205
3222.000000	0.019281
3221.000000	0.019362
3220.000000	0.019449
3219.000000	0.019537
3218.000000	0.019625
3217.000000	0.019712
3216.000000	0.019800
3215.000000	0.019887
3214.000000	0.019982
3213.000000	0.020087
3212.000000	0.020194
3211.000000	0.020293
3210.000000	0.020385
3209.000000	0.020478
3208.000000	0.020574
3207.000000	0.020665
3206.000000	0.020748
3205.000000	0.020829
3204.000000	0.020910
3203.000000	0.020990
3202.000000	0.021068
3201.000000	0.021147
3200.000000	0.021225
3199.000000	0.021296
3198.000000	0.021364
3197.000000	0.021435
3196.000000	0.021507
3195.000000	0.021572
3194.000000	0.021634
3193.000000	0.021704
3192.000000	0.021786
3191.000000	0.021871
3190.000000	0.021954
3189.000000	0.022037
3188.000000	0.022120
3187.000000	0.022203
3186.000000	0.022289
3185.000000	0.022380
3184.000000	0.022473
3183.000000	0.022560
3182.000000	0.022642
3181.000000	0.022727
3180.000000	0.022818
3179.000000	0.022914
3178.000000	0.023018
3177.000000	0.023134
3176.000000	0.023261
3175.000000	0.023397
3174.000000	0.023544
3173.000000	0.023705
3172.000000	0.023875
3171.000000	0.024041
3170.000000	0.024196
3169.000000	0.024336
3168.000000	0.024454
3167.000000	0.024544
3166.000000	0.024615
3165.000000	0.024677
3164.000000	0.024738
3163.000000	0.024793
3162.000000	0.024848
3161.000000	0.024910
3160.000000	0.024979
3159.000000	0.025053
3158.000000	0.025136
3157.000000	0.025231
3156.000000	0.025335
3155.000000	0.025435
3154.000000	0.025532
3153.000000	0.025639
3152.000000	0.025761
3151.000000	0.025891
3150.000000	0.026022
3149.000000	0.026151
3148.000000	0.026277
3147.000000	0.026397
3146.000000	0.026515
3145.000000	0.026637
3144.000000	0.026763
3143.000000	0.026888
3142.000000	0.027012
3141.000000	0.027140
3140.000000	0.027272
3139.000000	0.027402
3138.000000	0.027534
3137.000000	0.027677
3136.000000	0.027827
3135.000000	0.027978
3134.000000	0.028129
3133.000000	0.028289
3132.000000	0.028458
3131.000000	0.028632
3130.000000	0.028809
3129.000000	0.028993
3128.000000	0.029182
3127.000000	0.029369
3126.000000	0.029554
3125.000000	0.029740
3124.000000	0.029931
3123.000000	0.030123
3122.000000	0.030317
3121.000000	0.030513
3120.000000	0.030704
3119.000000	0.030880
3118.000000	0.031043
3117.000000	0.031206
3116.000000	0.031376
3115.000000	0.031553
3114.000000	0.031738
3113.000000	0.031935
3112.000000	0.032137
3111.000000	0.032333
3110.000000	0.032520
3109.000000	0.032699
3108.000000	0.032874
3107.000000	0.033046
3106.000000	0.033223
3105.000000	0.033414
3104.000000	0.033621
3103.000000	0.033841
3102.000000	0.034076
3101.000000	0.034329
3100.000000	0.034596
3099.000000	0.034870
3098.000000	0.035151
3097.000000	0.035442
3096.000000	0.035733
3095.000000	0.036001
3094.000000	0.036225
3093.000000	0.036405
3092.000000	0.036547
3091.000000	0.036666
3090.000000	0.036780
3089.000000	0.036911
3088.000000	0.037072
3087.000000	0.037264
3086.000000	0.037488
3085.000000	0.037750
3084.000000	0.038056
3083.000000	0.038420
3082.000000	0.038882
3081.000000	0.039500
3080.000000	0.040357
3079.000000	0.041560
3078.000000	0.043216
3077.000000	0.045364
3076.000000	0.047867
3075.000000	0.050405
3074.000000	0.052564
3073.000000	0.054002
3072.000000	0.054566
3071.000000	0.054331
3070.000000	0.053539
3069.000000	0.052484
3068.000000	0.051421
3067.000000	0.050519
3066.000000	0.049849
3065.000000	0.049393
3064.000000	0.049056
3063.000000	0.048720
3062.000000	0.048296
3061.000000	0.047755
3060.000000	0.047121
3059.000000	0.046446
3058.000000	0.045792
3057.000000	0.045213
3056.000000	0.044737
3055.000000	0.044370
3054.000000	0.044102
3053.000000	0.043921
3052.000000	0.043805
3051.000000	0.043728
3050.000000	0.043677
3049.000000	0.043654
3048.000000	0.043663
3047.000000	0.043704
3046.000000	0.043782
3045.000000	0.043901
3044.000000	0.044063
3043.000000	0.044262
3042.000000	0.044489
3041.000000	0.044740
3040.000000	0.045007
3039.000000	0.045282
3038.000000	0.045563
3037.000000	0.045850
3036.000000	0.046137
3035.000000	0.046409
3034.000000	0.046660
3033.000000	0.046894
3032.000000	0.047124
3031.000000	0.047356
3030.000000	0.047592
3029.000000	0.047836
3028.000000	0.048087
3027.000000	0.048343
3026.000000	0.048602
3025.000000	0.048860
3024.000000	0.049110
3023.000000	0.049352
3022.000000	0.049594
3021.000000	0.049842
3020.000000	0.050090
3019.000000	0.050326
3018.000000	0.050553
3017.000000	0.050778
3016.000000	0.051001
3015.000000	0.051212
3014.000000	0.051404
3013.000000	0.051573
3012.000000	0.051709
3011.000000	0.051807
3010.000000	0.051878
3009.000000	0.051944
3008.000000	0.052016
3007.000000	0.052095
3006.000000	0.052187
3005.000000	0.052299
3004.000000	0.052429
3003.000000	0.052564
3002.000000	0.052697
3001.000000	0.052825
3000.000000	0.052942
2999.000000	0.053035
2998.000000	0.053100
2997.000000	0.053143
2996.000000	0.053170
2995.000000	0.053183
2994.000000	0.053183
2993.000000	0.053175
2992.000000	0.053157
2991.000000	0.053129
2990.000000	0.053106
2989.000000	0.053109
2988.000000	0.053155
2987.000000	0.053255
2986.000000	0.053427
2985.000000	0.053683
2984.000000	0.053997
2983.000000	0.054301
2982.000000	0.054518
2981.000000	0.054609
2980.000000	0.054583
2979.000000	0.054484
2978.000000	0.054374
2977.000000	0.054297
2976.000000	0.054268
2975.000000	0.054276
2974.000000	0.054310
2973.000000	0.054358
2972.000000	0.054403
2971.000000	0.054422
2970.000000	0.054406
2969.000000	0.054366
2968.000000	0.054319
2967.000000	0.054274
2966.000000	0.054233
2965.000000	0.054196
2964.000000	0.054157
2963.000000	0.054107
2962.000000	0.054048
2961.000000	0.053992
2960.000000	0.053947
2959.000000	0.053917
2958.000000	0.053906
2957.000000	0.053921
2956.000000	0.053964
2955.000000	0.054028
2954.000000	0.054100
2953.000000	0.054167
2952.000000	0.054217
2951.000000	0.054246
2950.000000	0.054262
2949.000000	0.054276
2948.000000	0.054279
2947.000000	0.054253
2946.000000	0.054187
2945.000000	0.054079
2944.000000	0.053931
2943.000000	0.053746
2942.000000	0.053538
2941.000000	0.053326
2940.000000	0.053118
2939.000000	0.052910
2938.000000	0.052703
2937.000000	0.052502
2936.000000	0.052313
2935.000000	0.052140
2934.000000	0.051987
2933.000000	0.051862
2932.000000	0.051760
2931.000000	0.051665
2930.000000	0.051569
2929.000000	0.051477
2928.000000	0.051399
2927.000000	0.051342
2926.000000	0.051317
2925.000000	0.051324
2924.000000	0.051352
2923.000000	0.051387
2922.000000	0.051422
2921.000000	0.051463
2920.000000	0.051501
2919.000000	0.051529
2918.000000	0.051555
2917.000000	0.051617
2916.000000	0.051757
2915.000000	0.051991
2914.000000	0.052306
2913.000000	0.052665
2912.000000	0.053021
2911.000000	0.053340
2910.000000	0.053612
2909.000000	0.053847
2908.000000	0.054056
2907.000000	0.054245
2906.000000	0.054422
2905.000000	0.054601
2904.000000	0.054794
2903.000000	0.055005
2902.000000	0.055234
2901.000000	0.055483
2900.000000	0.055747
2899.000000	0.056021
2898.000000	0.056299
2897.000000	0.056581
2896.000000	0.056858
2895.000000	0.057123
2894.000000	0.057376
2893.000000	0.057622
2892.000000	0.057866
2891.000000	0.058101
2890.000000	0.058324
2889.000000	0.058530
2888.000000	0.058708
2887.000000	0.058851
2886.000000	0.058963
2885.000000	0.059053
2884.000000	0.059125
2883.000000	0.059175
2882.000000	0.059209
2881.000000	0.059236
2880.000000	0.059266
2879.000000	0.059299
2878.000000	0.059336
2877.000000	0.059379
2876.000000	0.059423
2875.000000	0.059451
2874.000000	0.059450
2873.000000	0.059414
2872.000000	0.059339
2871.000000	0.059221
2870.000000	0.059061
2869.000000	0.058870
2868.000000	0.058652
2867.000000	0.058413
2866.000000	0.058167
2865.000000	0.057934
2864.000000	0.057733
2863.000000	0.057577
2862.000000	0.057485
2861.000000	0.057474
2860.000000	0.057550
2859.000000	0.057706
2858.000000	0.057936
2857.000000	0.058235
2856.000000	0.058590
2855.000000	0.058977
2854.000000	0.059373
2853.000000	0.059761
2852.000000	0.060134
2851.000000	0.060502
2850.000000	0.060900
2849.000000	0.061366
2848.000000	0.061905
2847.000000	0.062473
2846.000000	0.063012
2845.000000	0.063481
2844.000000	0.063866
2843.000000	0.064176
2842.000000	0.064433
2841.000000	0.064656
2840.000000	0.064856
2839.000000	0.065036
2838.000000	0.065194
2837.000000	0.065333
2836.000000	0.065448
2835.000000	0.065532
2834.000000	0.065581
2833.000000	0.065599
2832.000000	0.065589
2831.000000	0.065554
2830.000000	0.065497
2829.000000	0.065419
2828.000000	0.065319
2827.000000	0.065192
2826.000000	0.065043
2825.000000	0.064879
2824.000000	0.064703
2823.000000	0.064513
2822.000000	0.064309
2821.000000	0.064097
2820.000000	0.063876
2819.000000	0.063640
2818.000000	0.063388
2817.000000	0.063125
2816.000000	0.062854
2815.000000	0.062570
2814.000000	0.062272
2813.000000	0.061960
2812.000000	0.061632
2811.000000	0.061283
2810.000000	0.060917
2809.000000	0.060544
2808.000000	0.060168
2807.000000	0.059784
2806.000000	0.059388
2805.000000	0.058983
2804.000000	0.058572
2803.000000	0.058158
2802.000000	0.057748
2801.000000	0.057349
2800.000000	0.056958
2799.000000	0.056565
2798.000000	0.056167
2797.000000	0.055770
2796.000000	0.055378
2795.000000	0.054988
2794.000000	0.054600
2793.000000	0.054221
2792.000000	0.053856
2791.000000	0.053505
2790.000000	0.053174
2789.000000	0.052877
2788.000000	0.052623
2787.000000	0.052421
2786.000000	0.052275
2785.000000	0.052186
2784.000000	0.052136
2783.000000	0.052088
2782.000000	0.052009
2781.000000	0.051877
2780.000000	0.051681
2779.000000	0.051421
2778.000000	0.051111
2777.000000	0.050777
2776.000000	0.050435
2775.000000	0.050090
2774.000000	0.049752
2773.000000	0.049440
2772.000000	0.049176
2771.000000	0.048969
2770.000000	0.048822
2769.000000	0.048732
2768.000000	0.048679
2767.000000	0.048640
2766.000000	0.048589
2765.000000	0.048513
2764.000000	0.048400
2763.000000	0.048248
2762.000000	0.048068
2761.000000	0.047884
2760.000000	0.047710
2759.000000	0.047551
2758.000000	0.047407
2757.000000	0.047272
2756.000000	0.047133
2755.000000	0.046972
2754.000000	0.046782
2753.000000	0.046571
2752.000000	0.046340
2751.000000	0.046087
2750.000000	0.045815
2749.000000	0.045534
2748.000000	0.045258
2747.000000	0.044997
2746.000000	0.044766
2745.000000	0.044582
2744.000000	0.044452
2743.000000	0.044372
2742.000000	0.044340
2741.000000	0.044363
2740.000000	0.044439
2739.000000	0.044563
2738.000000	0.044731
2737.000000	0.044942
2736.000000	0.045190
2735.000000	0.045459
2734.000000	0.045738
2733.000000	0.046017
2732.000000	0.046286
2731.000000	0.046530
2730.000000	0.046738
2729.000000	0.046906
2728.000000	0.047025
2727.000000	0.047083
2726.000000	0.047076
2725.000000	0.047011
2724.000000	0.046895
2723.000000	0.046733
2722.000000	0.046537
2721.000000	0.046314
2720.000000	0.046067
2719.000000	0.045791
2718.000000	0.045492
2717.000000	0.045188
2716.000000	0.044893
2715.000000	0.044611
2714.000000	0.044351
2713.000000	0.044127
2712.000000	0.043951
2711.000000	0.043827
2710.000000	0.043765
2709.000000	0.043781
2708.000000	0.043886
2707.000000	0.044084
2706.000000	0.044378
2705.000000	0.044769
2704.000000	0.045254
2703.000000	0.045824
2702.000000	0.046474
2701.000000	0.047203
2700.000000	0.047999
2699.000000	0.048837
2698.000000	0.049699
2697.000000	0.050572
2696.000000	0.051445
2695.000000	0.052301
2694.000000	0.053130
2693.000000	0.053927
2692.000000	0.054684
2691.000000	0.055391
2690.000000	0.056046
2689.000000	0.056657
2688.000000	0.057227
2687.000000	0.057757
2686.000000	0.058251
2685.000000	0.058715
2684.000000	0.059149
2683.000000	0.059543
2682.000000	0.059896
2681.000000	0.060214
2680.000000	0.060500
2679.000000	0.060748
2678.000000	0.060958
2677.000000	0.061136
2676.000000	0.061284
2675.000000	0.061399
2674.000000	0.061484
2673.000000	0.061550
2672.000000	0.061599
2671.000000	0.061628
2670.000000	0.061638
2669.000000	0.061639
2668.000000	0.061636
2667.000000	0.061626
2666.000000	0.061605
2665.000000	0.061572
2664.000000	0.061524
2663.000000	0.061455
2662.000000	0.061363
2661.000000	0.061252
2660.000000	0.061124
2659.000000	0.060978
2658.000000	0.060811
2657.000000	0.060630
2656.000000	0.060434
2655.000000	0.060224
2654.000000	0.060007
2653.000000	0.059799
2652.000000	0.059615
2651.000000	0.059457
2650.000000	0.059328
2649.000000	0.059235
2648.000000	0.059171
2647.000000	0.059116
2646.000000	0.059045
2645.000000	0.058946
2644.000000	0.058811
2643.000000	0.058633
2642.000000	0.058417
2641.000000	0.058174
2640.000000	0.057913
2639.000000	0.057636
2638.000000	0.057344
2637.000000	0.057041
2636.000000	0.056718
2635.000000	0.056361
2634.000000	0.055964
2633.000000	0.055539
2632.000000	0.055098
2631.000000	0.054650
2630.000000	0.054209
2629.000000	0.053792
2628.000000	0.053410
2627.000000	0.053062
2626.000000	0.052757
2625.000000	0.052508
2624.000000	0.052324
2623.000000	0.052203
2622.000000	0.052144
2621.000000	0.052149
2620.000000	0.052204
2619.000000	0.052300
2618.000000	0.052440
2617.000000	0.052648
2616.000000	0.052936
2615.000000	0.053298
2614.000000	0.053723
2613.000000	0.054203
2612.000000	0.054716
2611.000000	0.055224
2610.000000	0.055697
2609.000000	0.056115
2608.000000	0.056451
2607.000000	0.056673
2606.000000	0.056767
2605.000000	0.056747
2604.000000	0.056627
2603.000000	0.056411
2602.000000	0.056111
2601.000000	0.055753
2600.000000	0.055356
2599.000000	0.054922
2598.000000	0.054460
2597.000000	0.053991
2596.000000	0.053532
2595.000000	0.053091
2594.000000	0.052680
2593.000000	0.052319
2592.000000	0.052023
2591.000000	0.051795
2590.000000	0.051645
2589.000000	0.051595
2588.000000	0.051650
2587.000000	0.051799
2586.000000	0.052041
2585.000000	0.052389
2584.000000	0.052849
2583.000000	0.053406
2582.000000	0.054048
2581.000000	0.054779
2580.000000	0.055587
2579.000000	0.056448
2578.000000	0.057340
2577.000000	0.058256
2576.000000	0.059184
2575.000000	0.060097
2574.000000	0.060972
2573.000000	0.061799
2572.000000	0.062569
2571.000000	0.063266
2570.000000	0.063891
2569.000000	0.064453
2568.000000	0.064954
2567.000000	0.065387
2566.000000	0.065752
2565.000000	0.066067
2564.000000	0.066346
2563.000000	0.066583
2562.000000	0.066780
2561.000000	0.066949
2560.000000	0.067093
2559.000000	0.067200
2558.000000	0.067262
2557.000000	0.067289
2556.000000	0.067285
2555.000000	0.067241
2554.000000	0.067153
2553.000000	0.067031
2552.000000	0.066880
2551.000000	0.066694
2550.000000	0.066481
2549.000000	0.066258
2548.000000	0.066031
2547.000000	0.065778
2546.000000	0.065485
2545.000000	0.065162
2544.000000	0.064826
2543.000000	0.064482
2542.000000	0.064134
2541.000000	0.063793
2540.000000	0.063455
2539.000000	0.063105
2538.000000	0.062742
2537.000000	0.062385
2536.000000	0.062049
2535.000000	0.061721
2534.000000	0.061386
2533.000000	0.061043
2532.000000	0.060694
2531.000000	0.060339
2530.000000	0.059983
2529.000000	0.059640
2528.000000	0.059312
2527.000000	0.058983
2526.000000	0.058645
2525.000000	0.058305
2524.000000	0.057971
2523.000000	0.057639
2522.000000	0.057307
2521.000000	0.056984
2520.000000	0.056671
2519.000000	0.056364
2518.000000	0.056066
2517.000000	0.055791
2516.000000	0.055538
2515.000000	0.055284
2514.000000	0.055027
2513.000000	0.054781
2512.000000	0.054558
2511.000000	0.054347
2510.000000	0.054144
2509.000000	0.053955
2508.000000	0.053779
2507.000000	0.053601
2506.000000	0.053414
2505.000000	0.053228
2504.000000	0.053040
2503.000000	0.052831
2502.000000	0.052590
2501.000000	0.052333
2500.000000	0.052068
2499.000000	0.051788
2498.000000	0.051490
2497.000000	0.051189
2496.000000	0.050893
2495.000000	0.050592
2494.000000	0.050283
2493.000000	0.049984
2492.000000	0.049707
2491.000000	0.049448
2490.000000	0.049208
2489.000000	0.048990
2488.000000	0.048786
2487.000000	0.048581
2486.000000	0.048374
2485.000000	0.048188
2484.000000	0.048034
2483.000000	0.047900
2482.000000	0.047770
2481.000000	0.047646
2480.000000	0.047526
2479.000000	0.047398
2478.000000	0.047259
2477.000000	0.047123
2476.000000	0.046987
2475.000000	0.046834
2474.000000	0.046662
2473.000000	0.046489
2472.000000	0.046324
2471.000000	0.046152
2470.000000	0.045966
2469.000000	0.045774
2468.000000	0.045577
2467.000000	0.045361
2466.000000	0.045124
2465.000000	0.044880
2464.000000	0.044638
2463.000000	0.044391
2462.000000	0.044139
2461.000000	0.043900
2460.000000	0.043679
2459.000000	0.043464
2458.000000	0.043255
2457.000000	0.043059
2456.000000	0.042872
2455.000000	0.042673
2454.000000	0.042460
2453.000000	0.042254
2452.000000	0.042067
2451.000000	0.041884
2450.000000	0.041694
2449.000000	0.041505
2448.000000	0.041322
2447.000000	0.041138
2446.000000	0.040954
2445.000000	0.040787
2444.000000	0.040638
2443.000000	0.040488
2442.000000	0.040328
2441.000000	0.040174
2440.000000	0.040034
2439.000000	0.039898
2438.000000	0.039761
2437.000000	0.039637
2436.000000	0.039523
2435.000000	0.039402
2434.000000	0.039272
2433.000000	0.039154
2432.000000	0.039055
2431.000000	0.038962
2430.000000	0.038863
2429.000000	0.038763
2428.000000	0.038664
2427.000000	0.038557
2426.000000	0.038447
2425.000000	0.038349
2424.000000	0.038260
2423.000000	0.038166
2422.000000	0.038068
2421.000000	0.037985
2420.000000	0.037910
2419.000000	0.037816
2418.000000	0.037701
2417.000000	0.037593
2416.000000	0.037510
2415.000000	0.037429
2414.000000	0.037329
2413.000000	0.037216
2412.000000	0.037096
2411.000000	0.036957
2410.000000	0.036790
2409.000000	0.036609
2408.000000	0.036427
2407.000000	0.036247
2406.000000	0.036077
2405.000000	0.035937
2404.000000	0.035829
2403.000000	0.035733
2402.000000	0.035636
2401.000000	0.035543
2400.000000	0.035451
2399.000000	0.035344
2398.000000	0.035218
2397.000000	0.035092
2396.000000	0.034971
2395.000000	0.034840
2394.000000	0.034697
2393.000000	0.034564
2392.000000	0.034452
2391.000000	0.034344
2390.000000	0.034220
2389.000000	0.034082
2388.000000	0.033931
2387.000000	0.033763
2386.000000	0.033582
2385.000000	0.033400
2384.000000	0.033217
2383.000000	0.033019
2382.000000	0.032810
2381.000000	0.032616
2380.000000	0.032451
2379.000000	0.032307
2378.000000	0.032181
2377.000000	0.032090
2376.000000	0.032035
2375.000000	0.031988
2374.000000	0.031930
2373.000000	0.031870
2372.000000	0.031813
2371.000000	0.031740
2370.000000	0.031642
2369.000000	0.031544
2368.000000	0.031458
2367.000000	0.031367
2366.000000	0.031265
2365.000000	0.031173
2364.000000	0.031098
2363.000000	0.031015
2362.000000	0.030911
2361.000000	0.030808
2360.000000	0.030724
2359.000000	0.030644
2358.000000	0.030566
2357.000000	0.030510
2356.000000	0.030476
2355.000000	0.030433
2354.000000	0.030361
2353.000000	0.030277
2352.000000	0.030200
2351.000000	0.030139
2350.000000	0.030105
2349.000000	0.030106
2348.000000	0.030108
2347.000000	0.030053
2346.000000	0.029940
2345.000000	0.029836
2344.000000	0.029781
2343.000000	0.029748
2342.000000	0.029697
2341.000000	0.029640
2340.000000	0.029590
2339.000000	0.029534
2338.000000	0.029467
2337.000000	0.029406
2336.000000	0.029349
2335.000000	0.029273
2334.000000	0.029174
2333.000000	0.029093
2332.000000	0.029055
2331.000000	0.029060
2330.000000	0.029127
2329.000000	0.029294
2328.000000	0.029561
2327.000000	0.029824
2326.000000	0.029950
2325.000000	0.029862
2324.000000	0.029584
2323.000000	0.029215
2322.000000	0.028873
2321.000000	0.028630
2320.000000	0.028477
2319.000000	0.028363
2318.000000	0.028256
2317.000000	0.028152
2316.000000	0.028043
2315.000000	0.027911
2314.000000	0.027766
2313.000000	0.027646
2312.000000	0.027566
2311.000000	0.027503
2310.000000	0.027444
2309.000000	0.027407
2308.000000	0.027403
2307.000000	0.027413
2306.000000	0.027422
2305.000000	0.027436
2304.000000	0.027452
2303.000000	0.027454
2302.000000	0.027441
2301.000000	0.027430
2300.000000	0.027428
2299.000000	0.027418
2298.000000	0.027398
2297.000000	0.027387
2296.000000	0.027392
2295.000000	0.027396
2294.000000	0.027402
2293.000000	0.027426
2292.000000	0.027460
2291.000000	0.027470
2290.000000	0.027445
2289.000000	0.027409
2288.000000	0.027368
2287.000000	0.027293
2286.000000	0.027174
2285.000000	0.027038
2284.000000	0.026896
2283.000000	0.026729
2282.000000	0.026540
2281.000000	0.026372
2280.000000	0.026242
2279.000000	0.026119
2278.000000	0.025986
2277.000000	0.025867
2276.000000	0.025769
2275.000000	0.025665
2274.000000	0.025545
2273.000000	0.025441
2272.000000	0.025367
2271.000000	0.025296
2270.000000	0.025218
2269.000000	0.025160
2268.000000	0.025123
2267.000000	0.025069
2266.000000	0.025001
2265.000000	0.024979
2264.000000	0.025023
2263.000000	0.025081
2262.000000	0.025114
2261.000000	0.025140
2260.000000	0.025169
2259.000000	0.025161
2258.000000	0.025089
2257.000000	0.024989
2256.000000	0.024902
2255.000000	0.024829
2254.000000	0.024787
2253.000000	0.024809
2252.000000	0.024882
2251.000000	0.024937
2250.000000	0.024951
2249.000000	0.024963
2248.000000	0.024991
2247.000000	0.024990
2246.000000	0.024946
2245.000000	0.024900
2244.000000	0.024872
2243.000000	0.024827
2242.000000	0.024757
2241.000000	0.024706
2240.000000	0.024676
2239.000000	0.024608
2238.000000	0.024479
2237.000000	0.024341
2236.000000	0.024214
2235.000000	0.024052
2234.000000	0.023839
2233.000000	0.023623
2232.000000	0.023422
2231.000000	0.023187
2230.000000	0.022915
2229.000000	0.022682
2228.000000	0.022529
2227.000000	0.022407
2226.000000	0.022289
2225.000000	0.022219
2224.000000	0.022204
2223.000000	0.022184
2222.000000	0.022128
2221.000000	0.022084
2220.000000	0.022064
2219.000000	0.022012
2218.000000	0.021923
2217.000000	0.021873
2216.000000	0.021887
2215.000000	0.021889
2214.000000	0.021834
2213.000000	0.021768
2212.000000	0.021712
2211.000000	0.021620
2210.000000	0.021489
2209.000000	0.021394
2208.000000	0.021355
2207.000000	0.021300
2206.000000	0.021206
2205.000000	0.021145
2204.000000	0.021145
2203.000000	0.021132
2202.000000	0.021074
2201.000000	0.021038
2200.000000	0.021056
2199.000000	0.021065
2198.000000	0.021046
2197.000000	0.021071
2196.000000	0.021164
2195.000000	0.021239
2194.000000	0.021254
2193.000000	0.021276
2192.000000	0.021337
2191.000000	0.021383
2190.000000	0.021403
2189.000000	0.021472
2188.000000	0.021585
2187.000000	0.021618
2186.000000	0.021509
2185.000000	0.021341
2184.000000	0.021174
2183.000000	0.020984
2182.000000	0.020811
2181.000000	0.020770
2180.000000	0.020838
2179.000000	0.020824
2178.000000	0.020645
2177.000000	0.020443
2176.000000	0.020357
2175.000000	0.020357
2174.000000	0.020390
2173.000000	0.020493
2172.000000	0.020661
2171.000000	0.020787
2170.000000	0.020837
2169.000000	0.020897
2168.000000	0.020984
2167.000000	0.020992
2166.000000	0.020917
2165.000000	0.020918
2164.000000	0.021018
2163.000000	0.020915
2162.000000	0.020279
2161.000000	0.019118
2160.000000	0.017761
2159.000000	0.016615
2158.000000	0.016001
2157.000000	0.015999
2156.000000	0.016342
2155.000000	0.016644
2154.000000	0.016771
2153.000000	0.016842
2152.000000	0.016913
2151.000000	0.016888
2150.000000	0.016748
2149.000000	0.016630
2148.000000	0.016606
2147.000000	0.016601
2146.000000	0.016579
2145.000000	0.016610
2144.000000	0.016704
2143.000000	0.016768
2142.000000	0.016773
2141.000000	0.016799
2140.000000	0.016857
2139.000000	0.016840
2138.000000	0.016703
2137.000000	0.016526
2136.000000	0.016379
2135.000000	0.016258
2134.000000	0.016200
2133.000000	0.016286
2132.000000	0.016503
2131.000000	0.016736
2130.000000	0.016931
2129.000000	0.017131
2128.000000	0.017341
2127.000000	0.017501
2126.000000	0.017602
2125.000000	0.017715
2124.000000	0.017869
2123.000000	0.018008
2122.000000	0.018112
2121.000000	0.018231
2120.000000	0.018375
2119.000000	0.018484
2118.000000	0.018539
2117.000000	0.018599
2116.000000	0.018682
2115.000000	0.018728
2114.000000	0.018719
2113.000000	0.018724
2112.000000	0.018778
2111.000000	0.018827
2110.000000	0.018841
2109.000000	0.018868
2108.000000	0.018926
2107.000000	0.018958
2106.000000	0.018951
2105.000000	0.018981
2104.000000	0.019086
2103.000000	0.019207
2102.000000	0.019314
2101.000000	0.019453
2100.000000	0.019635
2099.000000	0.019778
2098.000000	0.019846
2097.000000	0.019909
2096.000000	0.020045
2095.000000	0.020250
2094.000000	0.020510
2093.000000	0.020829
2092.000000	0.021147
2091.000000	0.021351
2090.000000	0.021410
2089.000000	0.021405
2088.000000	0.021379
2087.000000	0.021283
2086.000000	0.021097
2085.000000	0.020893
2084.000000	0.020703
2083.000000	0.020468
2082.000000	0.020167
2081.000000	0.019870
2080.000000	0.019612
2079.000000	0.019331
2078.000000	0.018997
2077.000000	0.018677
2076.000000	0.018406
2075.000000	0.018136
2074.000000	0.017859
2073.000000	0.017650
2072.000000	0.017521
2071.000000	0.017376
2070.000000	0.017175
2069.000000	0.016994
2068.000000	0.016864
2067.000000	0.016702
2066.000000	0.016479
2065.000000	0.016300
2064.000000	0.016220
2063.000000	0.016155
2062.000000	0.016046
2061.000000	0.015956
2060.000000	0.015928
2059.000000	0.015890
2058.000000	0.015794
2057.000000	0.015695
2056.000000	0.015655
2055.000000	0.015686
2054.000000	0.015841
2053.000000	0.016157
2052.000000	0.016478
2051.000000	0.016530
2050.000000	0.016267
2049.000000	0.015958
2048.000000	0.015811
2047.000000	0.015745
2046.000000	0.015657
2045.000000	0.015632
2044.000000	0.015718
2043.000000	0.015789
2042.000000	0.015775
2041.000000	0.015772
2040.000000	0.015811
2039.000000	0.015760
2038.000000	0.015601
2037.000000	0.015518
2036.000000	0.015569
2035.000000	0.015566
2034.000000	0.015427
2033.000000	0.015338
2032.000000	0.015393
2031.000000	0.015429
2030.000000	0.015363
2029.000000	0.015346
2028.000000	0.015429
2027.000000	0.015434
2026.000000	0.015298
2025.000000	0.015221
2024.000000	0.015304
2023.000000	0.015373
2022.000000	0.015327
2021.000000	0.015302
2020.000000	0.015356
2019.000000	0.015324
2018.000000	0.015146
2017.000000	0.015021
2016.000000	0.015066
2015.000000	0.015133
2014.000000	0.015131
2013.000000	0.015187
2012.000000	0.015342
2011.000000	0.015422
2010.000000	0.015329
2009.000000	0.015183
2008.000000	0.015052
2007.000000	0.014846
2006.000000	0.014603
2005.000000	0.014531
2004.000000	0.014670
2003.000000	0.014829
2002.000000	0.014944
2001.000000	0.015163
2000.000000	0.015511
1999.000000	0.015806
1998.000000	0.015984
1997.000000	0.016219
1996.000000	0.016595
1995.000000	0.016968
1994.000000	0.017253
1993.000000	0.017551
1992.000000	0.017877
1991.000000	0.018048
1990.000000	0.018003
1989.000000	0.017924
1988.000000	0.017915
1987.000000	0.017851
1986.000000	0.017689
1985.000000	0.017624
1984.000000	0.017790
1983.000000	0.018062
1982.000000	0.018291
1981.000000	0.018459
1980.000000	0.018491
1979.000000	0.018237
1978.000000	0.017821
1977.000000	0.017658
1976.000000	0.017925
1975.000000	0.018397
1974.000000	0.018901
1973.000000	0.019467
1972.000000	0.019946
1971.000000	0.019981
1970.000000	0.019480
1969.000000	0.018760
1968.000000	0.018090
1967.000000	0.017439
1966.000000	0.016818
1965.000000	0.016421
1964.000000	0.016275
1963.000000	0.016150
1962.000000	0.015951
1961.000000	0.015857
1960.000000	0.015951
1959.000000	0.016071
1958.000000	0.016139
1957.000000	0.016281
1956.000000	0.016525
1955.000000	0.016689
1954.000000	0.016694
1953.000000	0.016685
1952.000000	0.016742
1951.000000	0.016754
1950.000000	0.016684
1949.000000	0.016666
1948.000000	0.016745
1947.000000	0.016783
1946.000000	0.016746
1945.000000	0.016792
1944.000000	0.016997
1943.000000	0.017238
1942.000000	0.017461
1941.000000	0.017809
1940.000000	0.018336
1939.000000	0.018911
1938.000000	0.019452
1937.000000	0.020026
1936.000000	0.020614
1935.000000	0.021033
1934.000000	0.021182
1933.000000	0.021170
1932.000000	0.021113
1931.000000	0.020991
1930.000000	0.020829
1929.000000	0.020774
1928.000000	0.020890
1927.000000	0.021068
1926.000000	0.021237
1925.000000	0.021479
1924.000000	0.021836
1923.000000	0.022189
1922.000000	0.022450
1921.000000	0.022691
1920.000000	0.022975
1919.000000	0.023239
1918.000000	0.023434
1917.000000	0.023614
1916.000000	0.023768
1915.000000	0.023752
1914.000000	0.023495
1913.000000	0.023096
1912.000000	0.022666
1911.000000	0.022201
1910.000000	0.021719
1909.000000	0.021345
1908.000000	0.021130
1907.000000	0.020966
1906.000000	0.020774
1905.000000	0.020621
1904.000000	0.020542
1903.000000	0.020455
1902.000000	0.020320
1901.000000	0.020214
1900.000000	0.020169
1899.000000	0.020100
1898.000000	0.019974
1897.000000	0.019880
1896.000000	0.019856
1895.000000	0.019804
1894.000000	0.019685
1893.000000	0.019598
1892.000000	0.019592
1891.000000	0.019565
1890.000000	0.019455
1889.000000	0.019354
1888.000000	0.019326
1887.000000	0.019291
1886.000000	0.019197
1885.000000	0.019115
1884.000000	0.019085
1883.000000	0.019035
1882.000000	0.018926
1881.000000	0.018837
1880.000000	0.018807
1879.000000	0.018761
1878.000000	0.018662
1877.000000	0.018591
1876.000000	0.018585
1875.000000	0.018558
1874.000000	0.018464
1873.000000	0.018379
1872.000000	0.018350
1871.000000	0.018294
1870.000000	0.018149
1869.000000	0.017993
1868.000000	0.017902
1867.000000	0.017811
1866.000000	0.017685
1865.000000	0.017590
1864.000000	0.017543
1863.000000	0.017466
1862.000000	0.017334
1861.000000	0.017232
1860.000000	0.017193
1859.000000	0.017136
1858.000000	0.017025
1857.000000	0.016952
1856.000000	0.016961
1855.000000	0.016965
1854.000000	0.016916
1853.000000	0.016891
1852.000000	0.016929
1851.000000	0.016969
1850.000000	0.016978
1849.000000	0.017030
1848.000000	0.017162
1847.000000	0.017291
1846.000000	0.017355
1845.000000	0.017401
1844.000000	0.017464
1843.000000	0.017496
1842.000000	0.017530
1841.000000	0.017660
1840.000000	0.017870
1839.000000	0.018039
1838.000000	0.018132
1837.000000	0.018257
1836.000000	0.018468
1835.000000	0.018679
1834.000000	0.018858
1833.000000	0.019094
1832.000000	0.019433
1831.000000	0.019793
1830.000000	0.020097
1829.000000	0.020400
1828.000000	0.020735
1827.000000	0.021025
1826.000000	0.021224
1825.000000	0.021385
1824.000000	0.021523
1823.000000	0.021551
1822.000000	0.021439
1821.000000	0.021263
1820.000000	0.021079
1819.000000	0.020861
1818.000000	0.020635
1817.000000	0.020524
1816.000000	0.020568
1815.000000	0.020656
1814.000000	0.020717
1813.000000	0.020809
1812.000000	0.020967
1811.000000	0.021111
1810.000000	0.021201
1809.000000	0.021323
1808.000000	0.021519
1807.000000	0.021715
1806.000000	0.021873
1805.000000	0.022065
1804.000000	0.022330
1803.000000	0.022607
1802.000000	0.022865
1801.000000	0.023160
1800.000000	0.023503
1799.000000	0.023792
1798.000000	0.023995
1797.000000	0.024210
1796.000000	0.024487
1795.000000	0.024755
1794.000000	0.024961
1793.000000	0.025153
1792.000000	0.025350
1791.000000	0.025454
1790.000000	0.025447
1789.000000	0.025415
1788.000000	0.025363
1787.000000	0.025185
1786.000000	0.024840
1785.000000	0.024443
1784.000000	0.024099
1783.000000	0.023767
1782.000000	0.023395
1781.000000	0.023020
1780.000000	0.022701
1779.000000	0.022399
1778.000000	0.022090
1777.000000	0.021838
1776.000000	0.021677
1775.000000	0.021531
1774.000000	0.021310
1773.000000	0.021018
1772.000000	0.020687
1771.000000	0.020313
1770.000000	0.019944
1769.000000	0.019682
1768.000000	0.019508
1767.000000	0.019304
1766.000000	0.019069
1765.000000	0.018920
1764.000000	0.018869
1763.000000	0.018759
1762.000000	0.018514
1761.000000	0.018317
1760.000000	0.018320
1759.000000	0.018426
1758.000000	0.018538
1757.000000	0.018713
1756.000000	0.018990
1755.000000	0.019269
1754.000000	0.019495
1753.000000	0.019754
1752.000000	0.020066
1751.000000	0.020260
1750.000000	0.020241
1749.000000	0.020186
1748.000000	0.020152
1747.000000	0.019973
1746.000000	0.019603
1745.000000	0.019207
1744.000000	0.018876
1743.000000	0.018511
1742.000000	0.018096
1741.000000	0.017792
1740.000000	0.017635
1739.000000	0.017444
1738.000000	0.017231
1737.000000	0.017232
1736.000000	0.017519
1735.000000	0.017814
1734.000000	0.017856
1733.000000	0.017964
1732.000000	0.018451
1731.000000	0.019124
1730.000000	0.019831
1729.000000	0.020724
1728.000000	0.021905
1727.000000	0.023238
1726.000000	0.024668
1725.000000	0.026399
1724.000000	0.028540
1723.000000	0.030796
1722.000000	0.032878
1721.000000	0.034895
1720.000000	0.037129
1719.000000	0.039677
1718.000000	0.042479
1717.000000	0.045462
1716.000000	0.048419
1715.000000	0.051054
1714.000000	0.053374
1713.000000	0.055736
1712.000000	0.058399
1711.000000	0.061340
1710.000000	0.064567
1709.000000	0.068271
1708.000000	0.072609
1707.000000	0.077567
1706.000000	0.082969
1705.000000	0.088304
1704.000000	0.092843
1703.000000	0.096347
1702.000000	0.099363
1701.000000	0.103033
1700.000000	0.107764
1699.000000	0.112149
1698.000000	0.115624
1697.000000	0.119465
1696.000000	0.124961
1695.000000	0.131546
1694.000000	0.137759
1693.000000	0.143514
1692.000000	0.149564
1691.000000	0.156389
1690.000000	0.163895
1689.000000	0.171462
1688.000000	0.178270
1687.000000	0.183815
1686.000000	0.188204
1685.000000	0.192197
1684.000000	0.196281
1683.000000	0.199422
1682.000000	0.200671
1681.000000	0.200312
1680.000000	0.199008
1679.000000	0.197310
1678.000000	0.195241
1677.000000	0.192285
1676.000000	0.188130
1675.000000	0.183491
1674.000000	0.179441
1673.000000	0.175866
1672.000000	0.171886
1671.000000	0.166884
1670.000000	0.160957
1669.000000	0.154955
1668.000000	0.149780
1667.000000	0.145576
1666.000000	0.141826
1665.000000	0.137852
1664.000000	0.133327
1663.000000	0.128638
1662.000000	0.124534
1661.000000	0.121127
1660.000000	0.118015
1659.000000	0.115008
1658.000000	0.112143
1657.000000	0.109404
1656.000000	0.106656
1655.000000	0.103646
1654.000000	0.099949
1653.000000	0.095859
1652.000000	0.092827
1651.000000	0.090917
1650.000000	0.089202
1649.000000	0.086961
1648.000000	0.083935
1647.000000	0.080584
1646.000000	0.077729
1645.000000	0.075479
1644.000000	0.073471
1643.000000	0.071543
1642.000000	0.069660
1641.000000	0.067768
1640.000000	0.065912
1639.000000	0.064227
1638.000000	0.062699
1637.000000	0.061078
1636.000000	0.059227
1635.000000	0.057525
1634.000000	0.056246
1633.000000	0.055178
1632.000000	0.054131
1631.000000	0.053146
1630.000000	0.052318
1629.000000	0.051663
1628.000000	0.051185
1627.000000	0.050939
1626.000000	0.050904
1625.000000	0.050960
1624.000000	0.051138
1623.000000	0.051713
1622.000000	0.052847
1621.000000	0.054292
1620.000000	0.055651
1619.000000	0.056465
1618.000000	0.056089
1617.000000	0.054140
1616.000000	0.051505
1615.000000	0.049623
1614.000000	0.048858
1613.000000	0.048916
1612.000000	0.049717
1611.000000	0.051479
1610.000000	0.054340
1609.000000	0.058204
1608.000000	0.062885
1607.000000	0.068134
1606.000000	0.073589
1605.000000	0.078875
1604.000000	0.083679
1603.000000	0.087499
1602.000000	0.089599
1601.000000	0.089394
1600.000000	0.086797
1599.000000	0.082169
1598.000000	0.076173
1597.000000	0.069623
1596.000000	0.063221
1595.000000	0.057460
1594.000000	0.052617
1593.000000	0.048854
1592.000000	0.046397
1591.000000	0.045775
1590.000000	0.047736
1589.000000	0.052858
1588.000000	0.061079
1587.000000	0.071322
1586.000000	0.081532
1585.000000	0.089476
1584.000000	0.093899
1583.000000	0.094820
1582.000000	0.093064
1581.000000	0.089813
1580.000000	0.086143
1579.000000	0.082534
1578.000000	0.078776
1577.000000	0.074532
1576.000000	0.070195
1575.000000	0.066752
1574.000000	0.064385
1573.000000	0.062568
1572.000000	0.060913
1571.000000	0.059294
1570.000000	0.057707
1569.000000	0.056230
1568.000000	0.054958
1567.000000	0.053844
1566.000000	0.052699
1565.000000	0.051443
1564.000000	0.050223
1563.000000	0.049223
1562.000000	0.048387
1561.000000	0.047550
1560.000000	0.046689
1559.000000	0.046070
1558.000000	0.045694
1557.000000	0.045313
1556.000000	0.044935
1555.000000	0.044611
1554.000000	0.044301
1553.000000	0.043929
1552.000000	0.043513
1551.000000	0.043090
1550.000000	0.042614
1549.000000	0.042050
1548.000000	0.041445
1547.000000	0.040856
1546.000000	0.040254
1545.000000	0.039611
1544.000000	0.039013
1543.000000	0.038579
1542.000000	0.038260
1541.000000	0.037896
1540.000000	0.037439
1539.000000	0.037019
1538.000000	0.036679
1537.000000	0.036375
1536.000000	0.036091
1535.000000	0.035836
1534.000000	0.035585
1533.000000	0.035304
1532.000000	0.035069
1531.000000	0.034948
1530.000000	0.034876
1529.000000	0.034767
1528.000000	0.034626
1527.000000	0.034495
1526.000000	0.034337
1525.000000	0.034073
1524.000000	0.033705
1523.000000	0.033204
1522.000000	0.032411
1521.000000	0.031308
1520.000000	0.030244
1519.000000	0.029398
1518.000000	0.028561
1517.000000	0.027551
1516.000000	0.026521
1515.000000	0.025688
1514.000000	0.025022
1513.000000	0.024403
1512.000000	0.023831
1511.000000	0.023346
1510.000000	0.022942
1509.000000	0.022611
1508.000000	0.022394
1507.000000	0.022217
1506.000000	0.021988
1505.000000	0.021915
1504.000000	0.022204
1503.000000	0.022903
1502.000000	0.024159
1501.000000	0.026357
1500.000000	0.029899
1499.000000	0.034612
1498.000000	0.039237
1497.000000	0.041665
1496.000000	0.040630
1495.000000	0.037191
1494.000000	0.033196
1493.000000	0.029550
1492.000000	0.026391
1491.000000	0.023704
1490.000000	0.021531
1489.000000	0.019909
1488.000000	0.018770
1487.000000	0.017961
1486.000000	0.017345
1485.000000	0.016882
1484.000000	0.016566
1483.000000	0.016367
1482.000000	0.016217
1481.000000	0.016095
1480.000000	0.016036
1479.000000	0.016051
1478.000000	0.016109
1477.000000	0.016213
1476.000000	0.016409
1475.000000	0.016716
1474.000000	0.017119
1473.000000	0.017592
1472.000000	0.018128
1471.000000	0.018744
1470.000000	0.019510
1469.000000	0.020504
1468.000000	0.021771
1467.000000	0.023343
1466.000000	0.025294
1465.000000	0.027609
1464.000000	0.029962
1463.000000	0.031994
1462.000000	0.033738
1461.000000	0.035541
1460.000000	0.037941
1459.000000	0.042325
1458.000000	0.052074
1457.000000	0.070253
1456.000000	0.092148
1455.000000	0.109379
1454.000000	0.118538
1453.000000	0.118803
1452.000000	0.110694
1451.000000	0.097410
1450.000000	0.083161
1449.000000	0.070382
1448.000000	0.059886
1447.000000	0.052091
1446.000000	0.046939
1445.000000	0.043692
1444.000000	0.041650
1443.000000	0.040572
1442.000000	0.040426
1441.000000	0.041081
1440.000000	0.042374
1439.000000	0.044405
1438.000000	0.047706
1437.000000	0.052873
1436.000000	0.059473
1435.000000	0.066291
1434.000000	0.073014
1433.000000	0.080092
1432.000000	0.087733
1431.000000	0.095644
1430.000000	0.103328
1429.000000	0.110219
1428.000000	0.115704
1427.000000	0.119676
1426.000000	0.122758
1425.000000	0.125566
1424.000000	0.128033
1423.000000	0.129744
1422.000000	0.130656
1421.000000	0.130806
1420.000000	0.129815
1419.000000	0.127495
1418.000000	0.124585
1417.000000	0.121622
1416.000000	0.118252
1415.000000	0.114255
1414.000000	0.109939
1413.000000	0.105549
1412.000000	0.101000
1411.000000	0.096340
1410.000000	0.091937
1409.000000	0.087988
1408.000000	0.084346
1407.000000	0.080924
1406.000000	0.077860
1405.000000	0.075218
1404.000000	0.072915
1403.000000	0.070919
1402.000000	0.069171
1401.000000	0.067362
1400.000000	0.065122
1399.000000	0.062522
1398.000000	0.060004
1397.000000	0.057690
1396.000000	0.055308
1395.000000	0.052817
1394.000000	0.050554
1393.000000	0.048699
1392.000000	0.047117
1391.000000	0.045705
1390.000000	0.044465
1389.000000	0.043323
1388.000000	0.042171
1387.000000	0.041081
1386.000000	0.040204
1385.000000	0.039483
1384.000000	0.038748
1383.000000	0.037977
1382.000000	0.037234
1381.000000	0.036487
1380.000000	0.035670
1379.000000	0.034852
1378.000000	0.034143
1377.000000	0.033510
1376.000000	0.032840
1375.000000	0.032138
1374.000000	0.031496
1373.000000	0.030927
1372.000000	0.030400
1371.000000	0.029942
1370.000000	0.029566
1369.000000	0.029187
1368.000000	0.028756
1367.000000	0.028363
1366.000000	0.028087
1365.000000	0.027857
1364.000000	0.027580
1363.000000	0.027308
1362.000000	0.027154
1361.000000	0.027117
1360.000000	0.027153
1359.000000	0.027309
1358.000000	0.027639
1357.000000	0.028107
1356.000000	0.028661
1355.000000	0.029297
1354.000000	0.029961
1353.000000	0.030496
1352.000000	0.030796
1351.000000	0.030925
1350.000000	0.030989
1349.000000	0.031014
1348.000000	0.031022
1347.000000	0.031107
1346.000000	0.031345
1345.000000	0.031714
1344.000000	0.032189
1343.000000	0.032835
1342.000000	0.033738
1341.000000	0.034943
1340.000000	0.036516
1339.000000	0.038599
1338.000000	0.041313
1337.000000	0.044734
1336.000000	0.049037
1335.000000	0.054555
1334.000000	0.061669
1333.000000	0.070657
1332.000000	0.081589
1331.000000	0.094189
1330.000000	0.107704
1329.000000	0.121065
1328.000000	0.133200
1327.000000	0.143254
1326.000000	0.150674
1325.000000	0.155151
1324.000000	0.156385
1323.000000	0.154041
1322.000000	0.148041
1321.000000	0.138880
1320.000000	0.127818
1319.000000	0.116590
1318.000000	0.106662
1317.000000	0.098563
1316.000000	0.091976
1315.000000	0.086412
1314.000000	0.081669
1313.000000	0.077871
1312.000000	0.075355
1311.000000	0.074591
1310.000000	0.075958
1309.000000	0.079573
1308.000000	0.085223
1307.000000	0.092316
1306.000000	0.099991
1305.000000	0.107387
1304.000000	0.113989
1303.000000	0.119788
1302.000000	0.125154
1301.000000	0.130563
1300.000000	0.136412
1299.000000	0.142961
1298.000000	0.150289
1297.000000	0.158230
1296.000000	0.166382
1295.000000	0.174234
1294.000000	0.181292
1293.000000	0.187102
1292.000000	0.191286
1291.000000	0.193615
1290.000000	0.194095
1289.000000	0.192913
1288.000000	0.190332
1287.000000	0.186736
1286.000000	0.182574
1285.000000	0.178194
1284.000000	0.173801
1283.000000	0.169589
1282.000000	0.165822
1281.000000	0.162741
1280.000000	0.160457
1279.000000	0.158949
1278.000000	0.158046
1277.000000	0.157391
1276.000000	0.156519
1275.000000	0.155028
1274.000000	0.152664
1273.000000	0.149323
1272.000000	0.145084
1271.000000	0.140246
1270.000000	0.135201
1269.000000	0.130238
1268.000000	0.125507
1267.000000	0.121120
1266.000000	0.117147
1265.000000	0.113560
1264.000000	0.110285
1263.000000	0.107319
1262.000000	0.104685
1261.000000	0.102341
1260.000000	0.100234
1259.000000	0.098359
1258.000000	0.096688
1257.000000	0.095090
1256.000000	0.093431
1255.000000	0.091688
1254.000000	0.089886
1253.000000	0.088005
1252.000000	0.086036
1251.000000	0.084065
1250.000000	0.082190
1249.000000	0.080415
1248.000000	0.078712
1247.000000	0.077109
1246.000000	0.075617
1245.000000	0.074165
1244.000000	0.072685
1243.000000	0.071203
1242.000000	0.069756
1241.000000	0.068302
1240.000000	0.066798
1239.000000	0.065292
1238.000000	0.063842
1237.000000	0.062423
1236.000000	0.061013
1235.000000	0.059674
1234.000000	0.058458
1233.000000	0.057323
1232.000000	0.056232
1231.000000	0.055234
1230.000000	0.054376
1229.000000	0.053610
1228.000000	0.052887
1227.000000	0.052245
1226.000000	0.051713
1225.000000	0.051238
1224.000000	0.050774
1223.000000	0.050366
1222.000000	0.050053
1221.000000	0.049790
1220.000000	0.049560
1219.000000	0.049455
1218.000000	0.049561
1217.000000	0.049855
1216.000000	0.050270
1215.000000	0.050748
1214.000000	0.051146
1213.000000	0.051230
1212.000000	0.050880
1211.000000	0.050208
1210.000000	0.049400
1209.000000	0.048529
1208.000000	0.047617
1207.000000	0.046740
1206.000000	0.045949
1205.000000	0.045196
1204.000000	0.044452
1203.000000	0.043792
1202.000000	0.043282
1201.000000	0.042887
1200.000000	0.042589
1199.000000	0.042496
1198.000000	0.042721
1197.000000	0.043297
1196.000000	0.044304
1195.000000	0.045998
1194.000000	0.048755
1193.000000	0.052976
1192.000000	0.059161
1191.000000	0.067679
1190.000000	0.078183
1189.000000	0.089171
1188.000000	0.098367
1187.000000	0.103850
1186.000000	0.105184
1185.000000	0.103600
1184.000000	0.101154
1183.000000	0.099624
1182.000000	0.099648
1181.000000	0.100566
1180.000000	0.100953
1179.000000	0.099493
1178.000000	0.095704
1177.000000	0.090054
1176.000000	0.083572
1175.000000	0.077297
1174.000000	0.071875
1173.000000	0.067551
1172.000000	0.064405
1171.000000	0.062415
1170.000000	0.061233
1169.000000	0.060183
1168.000000	0.058681
1167.000000	0.056646
1166.000000	0.054384
1165.000000	0.052208
1164.000000	0.050285
1163.000000	0.048691
1162.000000	0.047412
1161.000000	0.046339
1160.000000	0.045387
1159.000000	0.044571
1158.000000	0.043901
1157.000000	0.043296
1156.000000	0.042706
1155.000000	0.042194
1154.000000	0.041820
1153.000000	0.041535
1152.000000	0.041282
1151.000000	0.041089
1150.000000	0.040970
1149.000000	0.040842
1148.000000	0.040642
1147.000000	0.040416
1146.000000	0.040216
1145.000000	0.040003
1144.000000	0.039769
1143.000000	0.039615
1142.000000	0.039630
1141.000000	0.039810
1140.000000	0.040169
1139.000000	0.040836
1138.000000	0.041949
1137.000000	0.043578
1136.000000	0.045897
1135.000000	0.049269
1134.000000	0.054120
1133.000000	0.060729
1132.000000	0.069063
1131.000000	0.078488
1130.000000	0.087524
1129.000000	0.094136
1128.000000	0.096702
1127.000000	0.094930
1126.000000	0.089849
1125.000000	0.083086
1124.000000	0.076109
1123.000000	0.069853
1122.000000	0.064636
1121.000000	0.060291
1120.000000	0.056560
1119.000000	0.053343
1118.000000	0.050615
1117.000000	0.048278
1116.000000	0.046266
1115.000000	0.044618
1114.000000	0.043341
1113.000000	0.042325
1112.000000	0.041480
1111.000000	0.040858
1110.000000	0.040516
1109.000000	0.040423
1108.000000	0.040625
1107.000000	0.041347
1106.000000	0.042855
1105.000000	0.045269
1104.000000	0.048481
1103.000000	0.051999
1102.000000	0.054840
1101.000000	0.055919
1100.000000	0.054853
1099.000000	0.052292
1098.000000	0.049294
1097.000000	0.046561
1096.000000	0.044310
1095.000000	0.042569
1094.000000	0.041282
1093.000000	0.040275
1092.000000	0.039397
1091.000000	0.038645
1090.000000	0.038038
1089.000000	0.037481
1088.000000	0.036906
1087.000000	0.036398
1086.000000	0.036052
1085.000000	0.035838
1084.000000	0.035731
1083.000000	0.035865
1082.000000	0.036415
1081.000000	0.037513
1080.000000	0.039513
1079.000000	0.043187
1078.000000	0.049475
1077.000000	0.058757
1076.000000	0.070156
1075.000000	0.081299
1074.000000	0.089138
1073.000000	0.091688
1072.000000	0.089317
1071.000000	0.084164
1070.000000	0.078308
1069.000000	0.072748
1068.000000	0.067713
1067.000000	0.063338
1066.000000	0.059713
1065.000000	0.056715
1064.000000	0.054194
1063.000000	0.052173
1062.000000	0.050662
1061.000000	0.049470
1060.000000	0.048443
1059.000000	0.047636
1058.000000	0.047107
1057.000000	0.046711
1056.000000	0.046321
1055.000000	0.046018
1054.000000	0.045877
1053.000000	0.045756
1052.000000	0.045522
1051.000000	0.045268
1050.000000	0.045095
1049.000000	0.044884
1048.000000	0.044517
1047.000000	0.044101
1046.000000	0.043746
1045.000000	0.043344
1044.000000	0.042792
1043.000000	0.042212
1042.000000	0.041726
1041.000000	0.041236
1040.000000	0.040636
1039.000000	0.040051
1038.000000	0.039597
1037.000000	0.039152
1036.000000	0.038604
1035.000000	0.038130
1034.000000	0.038004
1033.000000	0.038546
1032.000000	0.040831
1031.000000	0.046928
1030.000000	0.058424
1029.000000	0.073894
1028.000000	0.088091
1027.000000	0.094742
1026.000000	0.091416
1025.000000	0.081288
1024.000000	0.069797
1023.000000	0.060598
1022.000000	0.054477
1021.000000	0.050671
1020.000000	0.048300
1019.000000	0.046770
1018.000000	0.045565
1017.000000	0.044362
1016.000000	0.043231
1015.000000	0.042412
1014.000000	0.041880
1013.000000	0.041404
1012.000000	0.040923
1011.000000	0.040551
1010.000000	0.040247
1009.000000	0.039847
1008.000000	0.039382
1007.000000	0.039027
1006.000000	0.038826
1005.000000	0.038986
1004.000000	0.040387
1003.000000	0.043952
1002.000000	0.049094
1001.000000	0.053364
1000.000000	0.054466
999.000000	0.052478
998.000000	0.049462
997.000000	0.047128
996.000000	0.045561
995.000000	0.044061
994.000000	0.042355
993.000000	0.040773
992.000000	0.039720
991.000000	0.039335
990.000000	0.039500
989.000000	0.039918
988.000000	0.040269
987.000000	0.040415
986.000000	0.040457
985.000000	0.040574
984.000000	0.040895
983.000000	0.041482
982.000000	0.042338
981.000000	0.043428
980.000000	0.044748
979.000000	0.046354
978.000000	0.048228
977.000000	0.050169
976.000000	0.051923
975.000000	0.053413
974.000000	0.054764
973.000000	0.056139
972.000000	0.057625
971.000000	0.059216
970.000000	0.060838
969.000000	0.062368
968.000000	0.063718
967.000000	0.064874
966.000000	0.065819
965.000000	0.066502
964.000000	0.066912
963.000000	0.067150
962.000000	0.067363
961.000000	0.067662
960.000000	0.068161
959.000000	0.069016
958.000000	0.070338
957.000000	0.072138
956.000000	0.074400
955.000000	0.077130
954.000000	0.080289
953.000000	0.083759
952.000000	0.087432
951.000000	0.091273
950.000000	0.095235
949.000000	0.099216
948.000000	0.103142
947.000000	0.107030
946.000000	0.110861
945.000000	0.114438
944.000000	0.117416
943.000000	0.119555
942.000000	0.121021
941.000000	0.122520
940.000000	0.125031
939.000000	0.129154
938.000000	0.134554
937.000000	0.140135
936.000000	0.144796
935.000000	0.148044
934.000000	0.149926
933.000000	0.150637
932.000000	0.150391
931.000000	0.149457
930.000000	0.148116
929.000000	0.146561
928.000000	0.144938
927.000000	0.143419
926.000000	0.142098
925.000000	0.140904
924.000000	0.139718
923.000000	0.138501
922.000000	0.137226
921.000000	0.135781
920.000000	0.134057
919.000000	0.132065
918.000000	0.129847
917.000000	0.127376
916.000000	0.124632
915.000000	0.121704
914.000000	0.118685
913.000000	0.115560
912.000000	0.112307
911.000000	0.109001
910.000000	0.105723
909.000000	0.102446
908.000000	0.099144
907.000000	0.095892
906.000000	0.092765
905.000000	0.089735
904.000000	0.086776
903.000000	0.083960
902.000000	0.081339
901.000000	0.078850
900.000000	0.076439
899.000000	0.074169
898.000000	0.072095
897.000000	0.070149
896.000000	0.068267
895.000000	0.066501
894.000000	0.064893
893.000000	0.063368
892.000000	0.061868
891.000000	0.060448
890.000000	0.059152
889.000000	0.057908
888.000000	0.056661
887.000000	0.055476
886.000000	0.054405
885.000000	0.053383
884.000000	0.052357
883.000000	0.051391
882.000000	0.050523
881.000000	0.049669
880.000000	0.048775
879.000000	0.047921
878.000000	0.047155
877.000000	0.046388
876.000000	0.045564
875.000000	0.044769
874.000000	0.044070
873.000000	0.043401
872.000000	0.042715
871.000000	0.042091
870.000000	0.041570
869.000000	0.041058
868.000000	0.040506
867.000000	0.040015
866.000000	0.039643
865.000000	0.039297
864.000000	0.038907
863.000000	0.038565
862.000000	0.038373
861.000000	0.038348
860.000000	0.038558
859.000000	0.039127
858.000000	0.039939
857.000000	0.040552
856.000000	0.040587
855.000000	0.040064
854.000000	0.039229
853.000000	0.038246
852.000000	0.037216
851.000000	0.036311
850.000000	0.035647
849.000000	0.035155
848.000000	0.034735
847.000000	0.034425
846.000000	0.034281
845.000000	0.034226
844.000000	0.034187
843.000000	0.034224
842.000000	0.034393
841.000000	0.034606
840.000000	0.034789
839.000000	0.035025
838.000000	0.035395
837.000000	0.035829
836.000000	0.036242
835.000000	0.036683
834.000000	0.037187
833.000000	0.037628
832.000000	0.037896
831.000000	0.038072
830.000000	0.038257
829.000000	0.038386
828.000000	0.038379
827.000000	0.038346
826.000000	0.038454
825.000000	0.038724
824.000000	0.039201
823.000000	0.040115
822.000000	0.041666
821.000000	0.043727
820.000000	0.045979
819.000000	0.048152
818.000000	0.050024
817.000000	0.051535
816.000000	0.053320
815.000000	0.056897
814.000000	0.063613
813.000000	0.073001
812.000000	0.082393
811.000000	0.088699
810.000000	0.090941
809.000000	0.090836
808.000000	0.090889
807.000000	0.092212
806.000000	0.094060
805.000000	0.094979
804.000000	0.094038
803.000000	0.091180
802.000000	0.086850
801.000000	0.081632
800.000000	0.076129
799.000000	0.070837
798.000000	0.066008
797.000000	0.061695
796.000000	0.057945
795.000000	0.054815
794.000000	0.052229
793.000000	0.050000
792.000000	0.048024
791.000000	0.046316
790.000000	0.044840
789.000000	0.043480
788.000000	0.042205
787.000000	0.041075
786.000000	0.040080
785.000000	0.039111
784.000000	0.038134
783.000000	0.037231
782.000000	0.036417
781.000000	0.035601
780.000000	0.034757
779.000000	0.033971
778.000000	0.033274
777.000000	0.032590
776.000000	0.031900
775.000000	0.031283
774.000000	0.030756
773.000000	0.030228
772.000000	0.029672
771.000000	0.029181
770.000000	0.028798
769.000000	0.028451
768.000000	0.028107
767.000000	0.027824
766.000000	0.027606
765.000000	0.027360
764.000000	0.027061
763.000000	0.026793
762.000000	0.026584
761.000000	0.026361
760.000000	0.026111
759.000000	0.025926
758.000000	0.025833
757.000000	0.025740
756.000000	0.025611
755.000000	0.025522
754.000000	0.025503
753.000000	0.025478
752.000000	0.025414
751.000000	0.025382
750.000000	0.025397
749.000000	0.025367
748.000000	0.025245
747.000000	0.025100
746.000000	0.024966
745.000000	0.024780
744.000000	0.024523
743.000000	0.024279
742.000000	0.024093
741.000000	0.023920
740.000000	0.023741
739.000000	0.023610
738.000000	0.023532
737.000000	0.023443
736.000000	0.023338
735.000000	0.023302
734.000000	0.023377
733.000000	0.023519
732.000000	0.023710
731.000000	0.023981
730.000000	0.024296
729.000000	0.024569
728.000000	0.024808
727.000000	0.025127
726.000000	0.025588
725.000000	0.026158
724.000000	0.026839
723.000000	0.027709
722.000000	0.028822
721.000000	0.030177
720.000000	0.031850
719.000000	0.034134
718.000000	0.037607
717.000000	0.043170
716.000000	0.051891
715.000000	0.064497
714.000000	0.080789
713.000000	0.099535
712.000000	0.119044
711.000000	0.138118
710.000000	0.156680
709.000000	0.175281
708.000000	0.193522
707.000000	0.208775
706.000000	0.217077
705.000000	0.216225
704.000000	0.207963
703.000000	0.196442
702.000000	0.184965
701.000000	0.174629
700.000000	0.165217
699.000000	0.156336
698.000000	0.147712
697.000000	0.139217
696.000000	0.130973
695.000000	0.123223
694.000000	0.116049
693.000000	0.109425
692.000000	0.103481
691.000000	0.098560
690.000000	0.095291
689.000000	0.094930
688.000000	0.099181
687.000000	0.108751
686.000000	0.121661
685.000000	0.133245
684.000000	0.138560
683.000000	0.135499
682.000000	0.125664
681.000000	0.112548
680.000000	0.099328
679.000000	0.087786
678.000000	0.078434
677.000000	0.071200
676.000000	0.065962
675.000000	0.063013
674.000000	0.063673
673.000000	0.070068
672.000000	0.083337
671.000000	0.102477
670.000000	0.125495
669.000000	0.149740
668.000000	0.169304
667.000000	0.177162
666.000000	0.173977
665.000000	0.164965
664.000000	0.153457
663.000000	0.141486
662.000000	0.130692
661.000000	0.121614
660.000000	0.113956
659.000000	0.107607
658.000000	0.102508
657.000000	0.098125
656.000000	0.093971
655.000000	0.090201
654.000000	0.087028
653.000000	0.084138
652.000000	0.081250
651.000000	0.078621
650.000000	0.076470
649.000000	0.074492
648.000000	0.072430
647.000000	0.070560
646.000000	0.069086
645.000000	0.067698
644.000000	0.066150
643.000000	0.064716
642.000000	0.063612
641.000000	0.062559
640.000000	0.061336
639.000000	0.060213
638.000000	0.059410
637.000000	0.058665
636.000000	0.057765
635.000000	0.056943
634.000000	0.056365
633.000000	0.055744
632.000000	0.054907
631.000000	0.054148
630.000000	0.053667
629.000000	0.053176
628.000000	0.052463
627.000000	0.051790
626.000000	0.051353
625.000000	0.050896
624.000000	0.050240
623.000000	0.049667
622.000000	0.049447
621.000000	0.049564
620.000000	0.050184
619.000000	0.051649
618.000000	0.053540
617.000000	0.054515
616.000000	0.053711
615.000000	0.051783
614.000000	0.049920
613.000000	0.048534
612.000000	0.047452
611.000000	0.046666
610.000000	0.046216
609.000000	0.045813
608.000000	0.045242
607.000000	0.044735
606.000000	0.044474
605.000000	0.044163
604.000000	0.043580
603.000000	0.043028
602.000000	0.042769
601.000000	0.042532
600.000000	0.042060
599.000000	0.041612
598.000000	0.041421
597.000000	0.041231
596.000000	0.040823
595.000000	0.040480
594.000000	0.040434
593.000000	0.040407
592.000000	0.040144
591.000000	0.039912
590.000000	0.039944
589.000000	0.039959
588.000000	0.039739
587.000000	0.039570
586.000000	0.039677
585.000000	0.039743
584.000000	0.039503
583.000000	0.039241
582.000000	0.039219
581.000000	0.039155
580.000000	0.038816
579.000000	0.038512
578.000000	0.038519
577.000000	0.038568
576.000000	0.038434
575.000000	0.038434
574.000000	0.038816
573.000000	0.039268
572.000000	0.039569
571.000000	0.040083
570.000000	0.041133
569.000000	0.042484
568.000000	0.043966
567.000000	0.046000
566.000000	0.048953
565.000000	0.052618
564.000000	0.056863
563.000000	0.062080
562.000000	0.068508
561.000000	0.075721
560.000000	0.083264
559.000000	0.091099
558.000000	0.099030
557.000000	0.106324
556.000000	0.112397
555.000000	0.117304
554.000000	0.121213
553.000000	0.123969
552.000000	0.125566
551.000000	0.126493
550.000000	0.127179
549.000000	0.127525
548.000000	0.127432
547.000000	0.127244
546.000000	0.127208
545.000000	0.127026
544.000000	0.126436
543.000000	0.125694
542.000000	0.125001
541.000000	0.124022
540.000000	0.122470
539.000000	0.120608
538.000000	0.118697
537.000000	0.116489
536.000000	0.113808
535.000000	0.111060
534.000000	0.108601
533.000000	0.106161
532.000000	0.103478
531.000000	0.100878
530.000000	0.098674
529.000000	0.096584
528.000000	0.094341
527.000000	0.092257
526.000000	0.090624
525.000000	0.089097
524.000000	0.087402
523.000000	0.085903
522.000000	0.084859
521.000000	0.083879
520.000000	0.082633
519.000000	0.081459
518.000000	0.080616
517.000000	0.079631
516.000000	0.078167
515.000000	0.076706
514.000000	0.075629
513.000000	0.074552
512.000000	0.073152
511.000000	0.071844
510.000000	0.070980
509.000000	0.070124
508.000000	0.068878
507.000000	0.067628
506.000000	0.066760
505.000000	0.065891
504.000000	0.064689
503.000000	0.063588
502.000000	0.062969
501.000000	0.062360
500.000000	0.061361
499.000000	0.060396
498.000000	0.059807
497.000000	0.059172
496.000000	0.058166
495.000000	0.057247
494.000000	0.056753
493.000000	0.056178
492.000000	0.055137
491.000000	0.054181
490.000000	0.053763
489.000000	0.053373
488.000000	0.052572
487.000000	0.051845
486.000000	0.051610
485.000000	0.051353
484.000000	0.050623
483.000000	0.049966
482.000000	0.049816
481.000000	0.049598
480.000000	0.048885
479.000000	0.048269
478.000000	0.048209
477.000000	0.048071
476.000000	0.047343
475.000000	0.046664
474.000000	0.046660
473.000000	0.046746
472.000000	0.046270
471.000000	0.045829
470.000000	0.045950
469.000000	0.045959
468.000000	0.045369
467.000000	0.044893
466.000000	0.045073
465.000000	0.045164
464.000000	0.044590
463.000000	0.044075
462.000000	0.044222
461.000000	0.044289
460.000000	0.043623
459.000000	0.042965
458.000000	0.043060
457.000000	0.043080
456.000000	0.042336
455.000000	0.041764
454.000000	0.042035
453.000000	0.042374
452.000000	0.042091
451.000000	0.041852
450.000000	0.042223
449.000000	0.042443
448.000000	0.041950
447.000000	0.041584
446.000000	0.042046
445.000000	0.042545
444.000000	0.042428
443.000000	0.042566
442.000000	0.043663
441.000000	0.044770
440.000000	0.045166
439.000000	0.045799
438.000000	0.047534
437.000000	0.049732
436.000000	0.051759
435.000000	0.054434
434.000000	0.058233
433.000000	0.061762
432.000000	0.063620
431.000000	0.064146
430.000000	0.063971
429.000000	0.062440
428.000000	0.059221
427.000000	0.055770
426.000000	0.053386
425.000000	0.051291
424.000000	0.048603
423.000000	0.046495
422.000000	0.045944
421.000000	0.045476
420.000000	0.043559
419.000000	0.041840
418.000000	0.042396
417.000000	0.043111
416.000000	0.042464
415.000000	0.042076
414.000000	0.043054
413.000000	0.043855
412.000000	0.043124
411.000000	0.042447
410.000000	0.043351
409.000000	0.044226
408.000000	0.043493
407.000000	0.042798
406.000000	0.043725
405.000000	0.044428
404.000000	0.043269
403.000000	0.042317
402.000000	0.043443
401.000000	0.044316
400.000000	0.042400
