3997.70460,0.13413
3995.64498,0.13426
3993.58537,0.13464
3991.52576,0.13538
3989.46615,0.13614
3987.40654,0.13660
3985.34693,0.13671
3983.28732,0.13643
3981.22771,0.13584
3979.16810,0.13529
3977.10849,0.13506
3975.04888,0.13489
3972.98927,0.13451
3970.92965,0.13415
3968.87004,0.13405
3966.81043,0.13408
3964.75082,0.13415
3962.69121,0.13424
3960.63160,0.13422
3958.57199,0.13423
3956.51238,0.13436
3954.45277,0.13451
3952.39316,0.13474
3950.33355,0.13485
3948.27394,0.13449
3946.21432,0.13394
3944.15471,0.13413
3942.09510,0.13469
3940.03549,0.13492
3937.97588,0.13487
3935.91627,0.13450
3933.85666,0.13421
3931.79705,0.13393
3929.73744,0.13346
3927.67783,0.13332
3925.61822,0.13363
3923.55861,0.13352
3921.49900,0.13325
3919.43938,0.13342
3917.37977,0.13347
3915.32016,0.13300
3913.26055,0.13261
3911.20094,0.13264
3909.14133,0.13269
3907.08172,0.13300
3905.02211,0.13338
3902.96250,0.13313
3900.90289,0.13310
3898.84328,0.13329
3896.78367,0.13284
3894.72405,0.13287
3892.66444,0.13373
3890.60483,0.13355
3888.54522,0.13279
3886.48561,0.13322
3884.42600,0.13311
3882.36639,0.13305
3880.30678,0.13334
3878.24717,0.13245
3876.18756,0.13229
3874.12795,0.13280
3872.06834,0.13299
3870.00872,0.13304
3867.94911,0.13212
3865.88950,0.13227
3863.82989,0.13289
3861.77028,0.13249
3859.71067,0.13184
3857.65106,0.13190
3855.59145,0.13379
3853.53184,0.13580
3851.47223,0.13480
3849.41262,0.13372
3847.35301,0.13386
3845.29339,0.13423
3843.23378,0.13403
3841.17417,0.13369
3839.11456,0.13397
3837.05495,0.13388
3834.99534,0.13357
3832.93573,0.13384
3830.87612,0.13374
3828.81651,0.13328
3826.75690,0.13282
3824.69729,0.13215
3822.63768,0.13269
3820.57807,0.13284
3818.51845,0.13239
3816.45884,0.13337
3814.39923,0.13316
3812.33962,0.13234
3810.28001,0.13241
3808.22040,0.13305
3806.16079,0.13272
3804.10118,0.13236
3802.04157,0.13345
3799.98196,0.13323
3797.92235,0.13307
3795.86274,0.13346
3793.80312,0.13305
3791.74351,0.13266
3789.68390,0.13243
3787.62429,0.13227
3785.56468,0.13225
3783.50507,0.13189
3781.44546,0.13181
3779.38585,0.13214
3777.32624,0.13196
3775.26663,0.13181
3773.20702,0.13195
3771.14741,0.13236
3769.08779,0.13215
3767.02818,0.13173
3764.96857,0.13160
3762.90896,0.13138
3760.84935,0.13186
3758.78974,0.13197
3756.73013,0.13112
3754.67052,0.13083
3752.61091,0.13157
3750.55130,0.13135
3748.49169,0.12990
3746.43208,0.13058
3744.37246,0.13189
3742.31285,0.13023
3740.25324,0.12897
3738.19363,0.12945
3736.13402,0.13034
3734.07441,0.13052
3732.01480,0.13014
3729.95519,0.12951
3727.89558,0.12971
3725.83597,0.13016
3723.77636,0.13028
3721.71675,0.13056
3719.65714,0.13063
3717.59752,0.13025
3715.53791,0.12997
3713.47830,0.13070
3711.41869,0.13148
3709.35908,0.13111
3707.29947,0.13044
3705.23986,0.13036
3703.18025,0.13088
3701.12064,0.13091
3699.06103,0.13034
3697.00142,0.13016
3694.94181,0.12996
3692.88219,0.13003
3690.82258,0.13089
3688.76297,0.13146
3686.70336,0.13079
3684.64375,0.13026
3682.58414,0.13025
3680.52453,0.13013
3678.46492,0.13050
3676.40531,0.13189
3674.34570,0.13149
3672.28609,0.13084
3670.22648,0.13229
3668.16686,0.13238
3666.10725,0.13165
3664.04764,0.13163
3661.98803,0.13175
3659.92842,0.13182
3657.86881,0.13239
3655.80920,0.13247
3653.74959,0.13169
3651.68998,0.13245
3649.63037,0.13398
3647.57076,0.13415
3645.51115,0.13342
3643.45153,0.13327
3641.39192,0.13360
3639.33231,0.13358
3637.27270,0.13333
3635.21309,0.13324
3633.15348,0.13329
3631.09387,0.13444
3629.03426,0.13616
3626.97465,0.13547
3624.91504,0.13440
3622.85543,0.13465
3620.79582,0.13571
3618.73621,0.13599
3616.67659,0.13522
3614.61698,0.13533
3612.55737,0.13591
3610.49776,0.13626
3608.43815,0.13680
3606.37854,0.13675
3604.31893,0.13660
3602.25932,0.13704
3600.19971,0.13735
3598.14010,0.13726
3596.08049,0.13750
3594.02088,0.13781
3591.96126,0.13783
3589.90165,0.13852
3587.84204,0.13980
3585.78243,0.13998
3583.72282,0.13974
3581.66321,0.14002
3579.60360,0.14042
3577.54399,0.14087
3575.48438,0.14140
3573.42477,0.14160
3571.36516,0.14167
3569.30555,0.14253
3567.24593,0.14361
3565.18632,0.14347
3563.12671,0.14327
3561.06710,0.14382
3559.00749,0.14432
3556.94788,0.14449
3554.88827,0.14469
3552.82866,0.14492
3550.76905,0.14484
3548.70944,0.14493
3546.64983,0.14542
3544.59022,0.14582
3542.53060,0.14616
3540.47099,0.14661
3538.41138,0.14714
3536.35177,0.14756
3534.29216,0.14778
3532.23255,0.14806
3530.17294,0.14846
3528.11333,0.14879
3526.05372,0.14919
3523.99411,0.14973
3521.93450,0.14999
3519.87489,0.15005
3517.81528,0.15025
3515.75566,0.15057
3513.69605,0.15098
3511.63644,0.15148
3509.57683,0.15176
3507.51722,0.15164
3505.45761,0.15188
3503.39800,0.15243
3501.33839,0.15256
3499.27878,0.15285
3497.21917,0.15354
3495.15956,0.15397
3493.09995,0.15397
3491.04033,0.15414
3488.98072,0.15469
3486.92111,0.15519
3484.86150,0.15560
3482.80189,0.15615
3480.74228,0.15638
3478.68267,0.15635
3476.62306,0.15671
3474.56345,0.15727
3472.50384,0.15753
3470.44423,0.15762
3468.38462,0.15782
3466.32500,0.15805
3464.26539,0.15834
3462.20578,0.15879
3460.14617,0.15910
3458.08656,0.15940
3456.02695,0.15980
3453.96734,0.16014
3451.90773,0.16032
3449.84812,0.16043
3447.78851,0.16081
3445.72890,0.16118
3443.66929,0.16157
3441.60967,0.16201
3439.55006,0.16229
3437.49045,0.16264
3435.43084,0.16303
3433.37123,0.16330
3431.31162,0.16341
3429.25201,0.16345
3427.19240,0.16348
3425.13279,0.16347
3423.07318,0.16373
3421.01357,0.16431
3418.95396,0.16463
3416.89435,0.16474
3414.83473,0.16509
3412.77512,0.16557
3410.71551,0.16590
3408.65590,0.16609
3406.59629,0.16622
3404.53668,0.16646
3402.47707,0.16685
3400.41746,0.16717
3398.35785,0.16737
3396.29824,0.16740
3394.23863,0.16755
3392.17902,0.16781
3390.11940,0.16793
3388.05979,0.16798
3386.00018,0.16803
3383.94057,0.16824
3381.88096,0.16861
3379.82135,0.16889
3377.76174,0.16902
3375.70213,0.16923
3373.64252,0.16961
3371.58291,0.17002
3369.52330,0.17031
3367.46369,0.17052
3365.40407,0.17066
3363.34446,0.17072
3361.28485,0.17081
3359.22524,0.17097
3357.16563,0.17117
3355.10602,0.17145
3353.04641,0.17193
3350.98680,0.17246
3348.92719,0.17269
3346.86758,0.17276
3344.80797,0.17295
3342.74836,0.17317
3340.68874,0.17339
3338.62913,0.17377
3336.56952,0.17405
3334.50991,0.17406
3332.45030,0.17417
3330.39069,0.17454
3328.33108,0.17486
3326.27147,0.17506
3324.21186,0.17525
3322.15225,0.17550
3320.09264,0.17588
3318.03303,0.17634
3315.97342,0.17686
3313.91380,0.17734
3311.85419,0.17757
3309.79458,0.17781
3307.73497,0.17834
3305.67536,0.17889
3303.61575,0.17919
3301.55614,0.17932
3299.49653,0.17953
3297.43692,0.17981
3295.37731,0.18003
3293.31770,0.18017
3291.25809,0.18025
3289.19847,0.18046
3287.13886,0.18086
3285.07925,0.18110
3283.01964,0.18113
3280.96003,0.18111
3278.90042,0.18106
3276.84081,0.18116
3274.78120,0.18138
3272.72159,0.18152
3270.66198,0.18142
3268.60237,0.18121
3266.54276,0.18107
3264.48314,0.18086
3262.42353,0.18058
3260.36392,0.18032
3258.30431,0.18010
3256.24470,0.18003
3254.18509,0.18007
3252.12548,0.18002
3250.06587,0.17995
3248.00626,0.17990
3245.94665,0.17969
3243.88704,0.17924
3241.82743,0.17888
3239.76781,0.17883
3237.70820,0.17888
3235.64859,0.17889
3233.58898,0.17882
3231.52937,0.17874
3229.46976,0.17872
3227.41015,0.17861
3225.35054,0.17851
3223.29093,0.17876
3221.23132,0.17929
3219.17171,0.17973
3217.11210,0.17986
3215.05248,0.17978
3212.99287,0.17968
3210.93326,0.17973
3208.87365,0.17980
3206.81404,0.17963
3204.75443,0.17936
3202.69482,0.17924
3200.63521,0.17929
3198.57560,0.17946
3196.51599,0.17951
3194.45638,0.17928
3192.39677,0.17905
3190.33716,0.17911
3188.27754,0.17925
3186.21793,0.17918
3184.15832,0.17910
3182.09871,0.17907
3180.03910,0.17894
3177.97949,0.17878
3175.91988,0.17875
3173.86027,0.17880
3171.80066,0.17903
3169.74105,0.17948
3167.68144,0.17981
3165.62183,0.17981
3163.56221,0.17953
3161.50260,0.17911
3159.44299,0.17879
3157.38338,0.17865
3155.32377,0.17860
3153.26416,0.17869
3151.20455,0.17889
3149.14494,0.17892
3147.08533,0.17885
3145.02572,0.17884
3142.96611,0.17875
3140.90650,0.17852
3138.84688,0.17834
3136.78727,0.17830
3134.72766,0.17846
3132.66805,0.17855
3130.60844,0.17848
3128.54883,0.17851
3126.48922,0.17857
3124.42961,0.17856
3122.37000,0.17851
3120.31039,0.17842
3118.25078,0.17848
3116.19117,0.17869
3114.13155,0.17876
3112.07194,0.17857
3110.01233,0.17820
3107.95272,0.17791
3105.89311,0.17787
3103.83350,0.17809
3101.77389,0.17854
3099.71428,0.17939
3097.65467,0.18088
3095.59506,0.18233
3093.53545,0.18280
3091.47584,0.18305
3089.41623,0.18471
3087.35661,0.18767
3085.29700,0.18983
3083.23739,0.19024
3081.17778,0.18965
3079.11817,0.18895
3077.05856,0.18894
3074.99895,0.18966
3072.93934,0.19049
3070.87973,0.19167
3068.82012,0.19333
3066.76051,0.19561
3064.70090,0.20208
3062.64128,0.21279
3060.58167,0.21986
3058.52206,0.22074
3056.46245,0.22130
3054.40284,0.22518
3052.34323,0.23292
3050.28362,0.24312
3048.22401,0.24863
3046.16440,0.24366
3044.10479,0.23326
3042.04518,0.22502
3039.98557,0.21989
3037.92595,0.21527
3035.86634,0.21111
3033.80673,0.21029
3031.74712,0.21381
3029.68751,0.21856
3027.62790,0.22092
3025.56829,0.22025
3023.50868,0.21802
3021.44907,0.21569
3019.38946,0.21357
3017.32985,0.21151
3015.27024,0.20959
3013.21062,0.20808
3011.15101,0.20701
3009.09140,0.20665
3007.03179,0.20804
3004.97218,0.21157
3002.91257,0.21504
3000.85296,0.21569
2998.79335,0.21386
2996.73374,0.21170
2994.67413,0.21018
2992.61452,0.20907
2990.55491,0.20816
2988.49530,0.20760
2986.43568,0.20754
2984.37607,0.20798
2982.31646,0.20865
2980.25685,0.20919
2978.19724,0.20954
2976.13763,0.20982
2974.07802,0.21027
2972.01841,0.21122
2969.95880,0.21274
2967.89919,0.21452
2965.83958,0.21635
2963.77997,0.21776
2961.72035,0.21833
2959.66074,0.21820
2957.60113,0.21776
2955.54152,0.21733
2953.48191,0.21684
2951.42230,0.21612
2949.36269,0.21570
2947.30308,0.21599
2945.24347,0.21620
2943.18386,0.21573
2941.12425,0.21507
2939.06464,0.21489
2937.00502,0.21540
2934.94541,0.21647
2932.88580,0.21770
2930.82619,0.21891
2928.76658,0.22036
2926.70697,0.22239
2924.64736,0.22508
2922.58775,0.22823
2920.52814,0.23158
2918.46853,0.23448
2916.40892,0.23511
2914.34931,0.23192
2912.28969,0.22618
2910.23008,0.22080
2908.17047,0.21715
2906.11086,0.21490
2904.05125,0.21352
2901.99164,0.21280
2899.93203,0.21248
2897.87242,0.21222
2895.81281,0.21196
2893.75320,0.21171
2891.69359,0.21135
2889.63398,0.21093
2887.57437,0.21065
2885.51475,0.21060
2883.45514,0.21057
2881.39553,0.21043
2879.33592,0.21040
2877.27631,0.21064
2875.21670,0.21080
2873.15709,0.21066
2871.09748,0.21025
2869.03787,0.20954
2866.97826,0.20873
2864.91865,0.20809
2862.85904,0.20770
2860.79942,0.20786
2858.73981,0.20872
2856.68020,0.21020
2854.62059,0.21271
2852.56098,0.21698
2850.50137,0.22208
2848.44176,0.22428
2846.38215,0.22138
2844.32254,0.21599
2842.26293,0.21152
2840.20332,0.20890
2838.14371,0.20768
2836.08409,0.20712
2834.02448,0.20676
2831.96487,0.20631
2829.90526,0.20570
2827.84565,0.20513
2825.78604,0.20461
2823.72643,0.20401
2821.66682,0.20344
2819.60721,0.20297
2817.54760,0.20255
2815.48799,0.20218
2813.42838,0.20175
2811.36876,0.20113
2809.30915,0.20049
2807.24954,0.19996
2805.18993,0.19938
2803.13032,0.19861
2801.07071,0.19780
2799.01110,0.19703
2796.95149,0.19628
2794.89188,0.19551
2792.83227,0.19476
2790.77266,0.19419
2788.71305,0.19367
2786.65344,0.19309
2784.59382,0.19264
2782.53421,0.19232
2780.47460,0.19201
2778.41499,0.19162
2776.35538,0.19102
2774.29577,0.19028
2772.23616,0.18965
2770.17655,0.18927
2768.11694,0.18905
2766.05733,0.18886
2763.99772,0.18861
2761.93811,0.18827
2759.87849,0.18789
2757.81888,0.18758
2755.75927,0.18731
2753.69966,0.18694
2751.64005,0.18647
2749.58044,0.18599
2747.52083,0.18548
2745.46122,0.18499
2743.40161,0.18477
2741.34200,0.18483
2739.28239,0.18483
2737.22278,0.18477
2735.16316,0.18489
2733.10355,0.18510
2731.04394,0.18529
2728.98433,0.18543
2726.92472,0.18539
2724.86511,0.18510
2722.80550,0.18463
2720.74589,0.18417
2718.68628,0.18379
2716.62667,0.18341
2714.56706,0.18297
2712.50745,0.18250
2710.44783,0.18205
2708.38822,0.18175
2706.32861,0.18166
2704.26900,0.18175
2702.20939,0.18213
2700.14978,0.18284
2698.09017,0.18367
2696.03056,0.18450
2693.97095,0.18533
2691.91134,0.18621
2689.85173,0.18704
2687.79212,0.18769
2685.73251,0.18829
2683.67289,0.18890
2681.61328,0.18941
2679.55367,0.18974
2677.49406,0.18997
2675.43445,0.19031
2673.37484,0.19070
2671.31523,0.19095
2669.25562,0.19109
2667.19601,0.19110
2665.13640,0.19093
2663.07679,0.19073
2661.01718,0.19057
2658.95756,0.19035
2656.89795,0.19001
2654.83834,0.18970
2652.77873,0.18955
2650.71912,0.18944
2648.65951,0.18910
2646.59990,0.18850
2644.54029,0.18789
2642.48068,0.18737
2640.42107,0.18686
2638.36146,0.18633
2636.30185,0.18586
2634.24223,0.18537
2632.18262,0.18471
2630.12301,0.18394
2628.06340,0.18328
2626.00379,0.18268
2623.94418,0.18199
2621.88457,0.18138
2619.82496,0.18100
2617.76535,0.18076
2615.70574,0.18059
2613.64613,0.18067
2611.58652,0.18105
2609.52690,0.18149
2607.46729,0.18179
2605.40768,0.18184
2603.34807,0.18164
2601.28846,0.18127
2599.22885,0.18063
2597.16924,0.17978
2595.10963,0.17899
2593.05002,0.17840
2590.99041,0.17796
2588.93080,0.17753
2586.87119,0.17712
2584.81158,0.17706
2582.75196,0.17746
2580.69235,0.17798
2578.63274,0.17846
2576.57313,0.17898
2574.51352,0.17971
2572.45391,0.18055
2570.39430,0.18116
2568.33469,0.18170
2566.27508,0.18237
2564.21547,0.18275
2562.15586,0.18275
2560.09625,0.18281
2558.03663,0.18302
2555.97702,0.18316
2553.91741,0.18320
2551.85780,0.18312
2549.79819,0.18298
2547.73858,0.18269
2545.67897,0.18205
2543.61936,0.18145
2541.55975,0.18132
2539.50014,0.18142
2537.44053,0.18139
2535.38092,0.18111
2533.32130,0.18079
2531.26169,0.18056
2529.20208,0.18018
2527.14247,0.17960
2525.08286,0.17906
2523.02325,0.17864
2520.96364,0.17830
2518.90403,0.17796
2516.84442,0.17769
2514.78481,0.17756
2512.72520,0.17740
2510.66559,0.17702
2508.60597,0.17655
2506.54636,0.17615
2504.48675,0.17581
2502.42714,0.17552
2500.36753,0.17516
2498.30792,0.17464
2496.24831,0.17425
2494.18870,0.17404
2492.12909,0.17370
2490.06948,0.17329
2488.00987,0.17292
2485.95026,0.17245
2483.89065,0.17189
2481.83103,0.17148
2479.77142,0.17123
2477.71181,0.17109
2475.65220,0.17111
2473.59259,0.17123
2471.53298,0.17124
2469.47337,0.17103
2467.41376,0.17081
2465.35415,0.17062
2463.29454,0.17032
2461.23493,0.16975
2459.17532,0.16905
2457.11570,0.16861
2455.05609,0.16846
2452.99648,0.16831
2450.93687,0.16800
2448.87726,0.16746
2446.81765,0.16691
2444.75804,0.16664
2442.69843,0.16655
2440.63882,0.16644
2438.57921,0.16622
2436.51960,0.16589
2434.45999,0.16562
2432.40037,0.16538
2430.34076,0.16512
2428.28115,0.16499
2426.22154,0.16524
2424.16193,0.16602
2422.10232,0.16682
2420.04271,0.16689
2417.98310,0.16643
2415.92349,0.16605
2413.86388,0.16577
2411.80427,0.16552
2409.74466,0.16524
2407.68504,0.16491
2405.62543,0.16462
2403.56582,0.16440
2401.50621,0.16414
2399.44660,0.16367
2397.38699,0.16333
2395.32738,0.16314
2393.26777,0.16306
2391.20816,0.16303
2389.14855,0.16301
2387.08894,0.16312
2385.02933,0.16341
2382.96972,0.16375
2380.91010,0.16385
2378.85049,0.16354
2376.79088,0.16308
2374.73127,0.16242
2372.67166,0.16232
2370.61205,0.16260
2368.55244,0.16222
2366.49283,0.16189
2364.43322,0.16132
2362.37361,0.16105
2360.31400,0.16176
2358.25439,0.16187
2356.19477,0.16229
2354.13516,0.16292
2352.07555,0.16341
2350.01594,0.16452
2347.95633,0.16364
2345.89672,0.16190
2343.83711,0.16138
2341.77750,0.16058
2339.71789,0.16109
2337.65828,0.16158
2335.59867,0.16116
2333.53906,0.16127
2331.47944,0.16098
2329.41983,0.16152
2327.36022,0.16104
2325.30061,0.16068
2323.24100,0.15961
2321.18139,0.15867
2319.12178,0.15797
2317.06217,0.15734
2315.00256,0.15678
2312.94295,0.15631
2310.88334,0.15595
2308.82373,0.15581
2306.76411,0.15579
2304.70450,0.15583
2302.64489,0.15574
2300.58528,0.15552
2298.52567,0.15524
2296.46606,0.15503
2294.40645,0.15475
2292.34684,0.15445
2290.28723,0.15427
2288.22762,0.15398
2286.16801,0.15300
2284.10840,0.15138
2282.04878,0.14981
2279.98917,0.14864
2277.92956,0.14772
2275.86995,0.14701
2273.81034,0.14630
2271.75073,0.14538
2269.69112,0.14451
2267.63151,0.14382
2265.57190,0.14321
2263.51229,0.14264
2261.45268,0.14204
2259.39307,0.14142
2257.33346,0.14102
2255.27384,0.14088
2253.21423,0.14067
2251.15462,0.14021
2249.09501,0.13953
2247.03540,0.13902
2244.97579,0.13855
2242.91618,0.13772
2240.85657,0.13643
2238.79696,0.13533
2236.73735,0.13489
2234.67774,0.13456
2232.61813,0.13396
2230.55851,0.13339
2228.49890,0.13286
2226.43929,0.13220
2224.37968,0.13162
2222.32007,0.13127
2220.26046,0.13081
2218.20085,0.13002
2216.14124,0.12925
2214.08163,0.12889
2212.02202,0.12893
2209.96241,0.12894
2207.90280,0.12809
2205.84318,0.12662
2203.78357,0.12599
2201.72396,0.12619
2199.66435,0.12605
2197.60474,0.12527
2195.54513,0.12428
2193.48552,0.12349
2191.42591,0.12292
2189.36630,0.12205
2187.30669,0.12094
2185.24708,0.11999
2183.18747,0.11906
2181.12785,0.11829
2179.06824,0.11811
2177.00863,0.11827
2174.94902,0.11817
2172.88941,0.11815
2170.82980,0.11842
2168.77019,0.11780
2166.71058,0.11562
2164.65097,0.11291
2162.59136,0.11042
2160.53175,0.10800
2158.47214,0.10722
2156.41253,0.10933
2154.35291,0.11249
2152.29330,0.11526
2150.23369,0.11711
2148.17408,0.11828
2146.11447,0.11972
2144.05486,0.12110
2141.99525,0.12187
2139.93564,0.12260
2137.87603,0.12385
2135.81642,0.12551
2133.75681,0.12712
2131.69720,0.12855
2129.63758,0.12986
2127.57797,0.13118
2125.51836,0.13234
2123.45875,0.13290
2121.39914,0.13309
2119.33953,0.13318
2117.27992,0.13314
2115.22031,0.13317
2113.16070,0.13345
2111.10109,0.13368
2109.04148,0.13365
2106.98187,0.13360
2104.92225,0.13378
2102.86264,0.13416
2100.80303,0.13434
2098.74342,0.13397
2096.68381,0.13335
2094.62420,0.13307
2092.56459,0.13339
2090.50498,0.13397
2088.44537,0.13422
2086.38576,0.13404
2084.32615,0.13356
2082.26654,0.13286
2080.20692,0.13222
2078.14731,0.13166
2076.08770,0.13086
2074.02809,0.12975
2071.96848,0.12869
2069.90887,0.12791
2067.84926,0.12730
2065.78965,0.12668
2063.73004,0.12601
2061.67043,0.12513
2059.61082,0.12429
2057.55121,0.12414
2055.49160,0.12440
2053.43198,0.12390
2051.37237,0.12219
2049.31276,0.11992
2047.25315,0.11796
2045.19354,0.11638
2043.13393,0.11479
2041.07432,0.11332
2039.01471,0.11240
2036.95510,0.11146
2034.89549,0.10993
2032.83588,0.10860
2030.77627,0.10836
2028.71665,0.10905
2026.65704,0.10974
2024.59743,0.10996
2022.53782,0.11005
2020.47821,0.10990
2018.41860,0.10942
2016.35899,0.10877
2014.29938,0.10819
2012.23977,0.10825
2010.18016,0.10845
2008.12055,0.10833
2006.06094,0.10887
2004.00132,0.11060
2001.94171,0.11255
1999.88210,0.11414
1997.82249,0.11502
1995.76288,0.11485
1993.70327,0.11462
1991.64366,0.11510
1989.58405,0.11581
1987.52444,0.11618
1985.46483,0.11556
1983.40522,0.11426
1981.34561,0.11258
1979.28599,0.11049
1977.22638,0.10925
1975.16677,0.10961
1973.10716,0.11013
1971.04755,0.11001
1968.98794,0.11025
1966.92833,0.11108
1964.86872,0.11169
1962.80911,0.11263
1960.74950,0.11503
1958.68989,0.11966
1956.63028,0.12578
1954.57067,0.13051
1952.51105,0.13175
1950.45144,0.13102
1948.39183,0.13082
1946.33222,0.13167
1944.27261,0.13342
1942.21300,0.13542
1940.15339,0.13637
1938.09378,0.13661
1936.03417,0.13648
1933.97456,0.13592
1931.91495,0.13529
1929.85534,0.13543
1927.79572,0.13668
1925.73611,0.13880
1923.67650,0.14138
1921.61689,0.14279
1919.55728,0.14294
1917.49767,0.14258
1915.43806,0.14196
1913.37845,0.14234
1911.31884,0.14422
1909.25923,0.14680
1907.19962,0.14836
1905.14001,0.14826
1903.08039,0.14711
1901.02078,0.14561
1898.96117,0.14420
1896.90156,0.14325
1894.84195,0.14245
1892.78234,0.14149
1890.72273,0.14107
1888.66312,0.14079
1886.60351,0.14034
1884.54390,0.14010
1882.48429,0.13967
1880.42468,0.13913
1878.36506,0.13870
1876.30545,0.13832
1874.24584,0.13789
1872.18623,0.13777
1870.12662,0.13860
1868.06701,0.13962
1866.00740,0.14005
1863.94779,0.14071
1861.88818,0.14203
1859.82857,0.14388
1857.76896,0.14580
1855.70935,0.14693
1853.64974,0.14689
1851.59012,0.14625
1849.53051,0.14592
1847.47090,0.14650
1845.41129,0.14849
1843.35168,0.15009
1841.29207,0.14928
1839.23246,0.14753
1837.17285,0.14575
1835.11324,0.14408
1833.05363,0.14316
1830.99402,0.14351
1828.93441,0.14405
1826.87479,0.14501
1824.81518,0.14707
1822.75557,0.14884
1820.69596,0.15043
1818.63635,0.15226
1816.57674,0.15350
1814.51713,0.15347
1812.45752,0.15277
1810.39791,0.15170
1808.33830,0.15035
1806.27869,0.14922
1804.21908,0.14873
1802.15946,0.14901
1800.09985,0.14927
1798.04024,0.14888
1795.98063,0.14876
1793.92102,0.15018
1791.86141,0.15248
1789.80180,0.15390
1787.74219,0.15534
1785.68258,0.15704
1783.62297,0.15738
1781.56336,0.15608
1779.50375,0.15363
1777.44413,0.15093
1775.38452,0.14939
1773.32491,0.14915
1771.26530,0.14852
1769.20569,0.14742
1767.14608,0.14653
1765.08647,0.14567
1763.02686,0.14567
1760.96725,0.14555
1758.90764,0.14526
1756.84803,0.14544
1754.78842,0.14522
1752.72881,0.14595
1750.66919,0.14781
1748.60958,0.14919
1746.54997,0.15019
1744.49036,0.15155
1742.43075,0.15383
1740.37114,0.15737
1738.31153,0.16058
1736.25192,0.16360
1734.19231,0.16669
1732.13270,0.16688
1730.07309,0.16633
1728.01348,0.16665
1725.95386,0.16789
1723.89425,0.16991
1721.83464,0.17199
1719.77503,0.17578
1717.71542,0.18175
1715.65581,0.18648
1713.59620,0.18885
1711.53659,0.19073
1709.47698,0.19388
1707.41737,0.19913
1705.35776,0.20514
1703.29815,0.21007
1701.23853,0.21654
1699.17892,0.22371
1697.11931,0.23135
1695.05970,0.24001
1693.00009,0.24724
1690.94048,0.25502
1688.88087,0.26318
1686.82126,0.27134
1684.76165,0.28174
1682.70204,0.28951
1680.64243,0.29193
1678.58282,0.29313
1676.52320,0.29589
1674.46359,0.29860
1672.40398,0.29929
1670.34437,0.29899
1668.28476,0.29587
1666.22515,0.29101
1664.16554,0.28800
1662.10593,0.28581
1660.04632,0.28252
1657.98671,0.27903
1655.92710,0.27762
1653.86749,0.27888
1651.80788,0.27656
1649.74826,0.27234
1647.68865,0.27107
1645.62904,0.26900
1643.56943,0.26521
1641.50982,0.26210
1639.45021,0.25983
1637.39060,0.25903
1635.33099,0.25803
1633.27138,0.25430
1631.21177,0.25092
1629.15216,0.24901
1627.09255,0.24711
1625.03293,0.24573
1622.97332,0.24486
1620.91371,0.24322
1618.85410,0.24233
1616.79449,0.24087
1614.73488,0.23642
1612.67527,0.23284
1610.61566,0.23247
1608.55605,0.23475
1606.49644,0.23886
1604.43683,0.24352
1602.37722,0.24580
1600.31760,0.24279
1598.25799,0.23906
1596.19838,0.24979
1594.13877,0.27902
1592.07916,0.30014
1590.01955,0.29466
1587.95994,0.28160
1585.90033,0.27711
1583.84072,0.27629
1581.78111,0.27287
1579.72150,0.26747
1577.66189,0.26259
1575.60227,0.25734
1573.54266,0.25218
1571.48305,0.25168
1569.42344,0.25449
1567.36383,0.25517
1565.30422,0.25281
1563.24461,0.24860
1561.18500,0.24613
1559.12539,0.24517
1557.06578,0.24075
1555.00617,0.23741
1552.94656,0.23570
1550.88695,0.23409
1548.82733,0.23203
1546.76772,0.23002
1544.70811,0.22897
1542.64850,0.22869
1540.58889,0.22882
1538.52928,0.22556
1536.46967,0.22119
1534.41006,0.21921
1532.35045,0.21647
1530.29084,0.21254
1528.23123,0.20949
1526.17162,0.20692
1524.11200,0.20815
1522.05239,0.21677
1519.99278,0.22457
1517.93317,0.22306
1515.87356,0.21437
1513.81395,0.20704
1511.75434,0.20679
1509.69473,0.21387
1507.63512,0.23263
1505.57551,0.25878
1503.51590,0.27227
1501.45629,0.27240
1499.39667,0.26742
1497.33706,0.25960
1495.27745,0.24774
1493.21784,0.23568
1491.15823,0.22649
1489.09862,0.21838
1487.03901,0.21142
1484.97940,0.20687
1482.91979,0.20438
1480.86018,0.20268
1478.80057,0.20127
1476.74096,0.20101
1474.68134,0.20216
1472.62173,0.20350
1470.56212,0.20272
1468.50251,0.20217
1466.44290,0.20438
1464.38329,0.20703
1462.32368,0.20740
1460.26407,0.20942
1458.20446,0.22127
1456.14485,0.24268
1454.08524,0.25767
1452.02563,0.25795
1449.96602,0.24707
1447.90640,0.23309
1445.84679,0.22242
1443.78718,0.21651
1441.72757,0.21322
1439.66796,0.21240
1437.60835,0.21640
1435.54874,0.22391
1433.48913,0.23236
1431.42952,0.24224
1429.36991,0.25166
1427.31030,0.25806
1425.25069,0.26249
1423.19107,0.26568
1421.13146,0.26831
1419.07185,0.27045
1417.01224,0.26970
1414.95263,0.26682
1412.89302,0.26322
1410.83341,0.25877
1408.77380,0.25383
1406.71419,0.24936
1404.65458,0.24518
1402.59497,0.24077
1400.53536,0.23665
1398.47574,0.23170
1396.41613,0.22748
1394.35652,0.23319
1392.29691,0.25835
1390.23730,0.29332
1388.17769,0.31042
1386.11808,0.29974
1384.05847,0.27949
1381.99886,0.26061
1379.93925,0.24378
1377.87964,0.23055
1375.82003,0.22188
1373.76041,0.21668
1371.70080,0.21399
1369.64119,0.21382
1367.58158,0.21505
1365.52197,0.21787
1363.46236,0.22272
1361.40275,0.22460
1359.34314,0.22003
1357.28353,0.21367
1355.22392,0.20992
1353.16431,0.20872
1351.10470,0.20835
1349.04508,0.20744
1346.98547,0.20544
1344.92586,0.20303
1342.86625,0.20143
1340.80664,0.20163
1338.74703,0.20348
1336.68742,0.20695
1334.62781,0.21345
1332.56820,0.22421
1330.50859,0.23865
1328.44898,0.25387
1326.38937,0.26627
1324.32976,0.27316
1322.27014,0.27287
1320.21053,0.26554
1318.15092,0.25412
1316.09131,0.24271
1314.03170,0.23339
1311.97209,0.22699
1309.91248,0.22534
1307.85287,0.22955
1305.79326,0.23772
1303.73365,0.24647
1301.67404,0.25380
1299.61443,0.26026
1297.55481,0.26728
1295.49520,0.27488
1293.43559,0.28160
1291.37598,0.28600
1289.31637,0.28743
1287.25676,0.28606
1285.19715,0.28269
1283.13754,0.27826
1281.07793,0.27388
1279.01832,0.27249
1276.95871,0.28275
1274.89910,0.31325
1272.83948,0.35136
1270.77987,0.36390
1268.72026,0.34282
1266.66065,0.31457
1264.60104,0.29646
1262.54143,0.28615
1260.48182,0.27816
1258.42221,0.27161
1256.36260,0.26756
1254.30299,0.26601
1252.24338,0.26617
1250.18377,0.26779
1248.12415,0.27188
1246.06454,0.27819
1244.00493,0.28120
1241.94532,0.27544
1239.88571,0.26378
1237.82610,0.25259
1235.76649,0.24424
1233.70688,0.23795
1231.64727,0.23272
1229.58766,0.22797
1227.52805,0.22329
1225.46844,0.21852
1223.40883,0.21374
1221.34921,0.20960
1219.28960,0.20841
1217.22999,0.21397
1215.17038,0.22848
1213.11077,0.24836
1211.05116,0.26378
1208.99155,0.26589
1206.93194,0.25599
1204.87233,0.24282
1202.81272,0.23234
1200.75311,0.22525
1198.69350,0.22054
1196.63388,0.21769
1194.57427,0.21725
1192.51466,0.22097
1190.45505,0.23020
1188.39544,0.24217
1186.33583,0.25001
1184.27622,0.25121
1182.21661,0.25091
1180.15700,0.25267
1178.09739,0.25407
1176.03778,0.25138
1173.97817,0.24449
1171.91855,0.23678
1169.85894,0.23108
1167.79933,0.22692
1165.73972,0.22294
1163.68011,0.21914
1161.62050,0.21596
1159.56089,0.21341
1157.50128,0.21110
1155.44167,0.20869
1153.38206,0.20612
1151.32245,0.20361
1149.26284,0.20131
1147.20322,0.19988
1145.14361,0.20219
1143.08400,0.20907
1141.02439,0.21193
1138.96478,0.20571
1136.90517,0.19792
1134.84556,0.19410
1132.78595,0.19774
1130.72634,0.21943
1128.66673,0.26089
1126.60712,0.29756
1124.54751,0.31423
1122.48790,0.31789
1120.42828,0.30439
1118.36867,0.27984
1116.30906,0.25997
1114.24945,0.24714
1112.18984,0.23854
1110.13023,0.23266
1108.07062,0.22887
1106.01101,0.22739
1103.95140,0.22849
1101.89179,0.23031
1099.83218,0.22954
1097.77257,0.22572
1095.71295,0.22140
1093.65334,0.21846
1091.59373,0.21726
1089.53412,0.21711
1087.47451,0.21685
1085.41490,0.21605
1083.35529,0.21517
1081.29568,0.21513
1079.23607,0.21804
1077.17646,0.22679
1075.11685,0.23987
1073.05724,0.24914
1070.99762,0.24940
1068.93801,0.24415
1066.87840,0.23816
1064.81879,0.23322
1062.75918,0.22958
1060.69957,0.22688
1058.63996,0.22473
1056.58035,0.22298
1054.52074,0.22157
1052.46113,0.22027
1050.40152,0.21883
1048.34191,0.21718
1046.28229,0.21530
1044.22268,0.21322
1042.16307,0.21109
1040.10346,0.20894
1038.04385,0.20675
1035.98424,0.20444
1033.92463,0.20235
1031.86502,0.20366
1029.80541,0.21378
1027.74580,0.22823
1025.68619,0.23108
1023.62658,0.22021
1021.56697,0.20791
1019.50735,0.19912
1017.44774,0.19128
1015.38813,0.18210
1013.32852,0.17194
1011.26891,0.17128
1009.20930,0.19938
1007.14969,0.24551
1005.09008,0.26670
1003.03047,0.26047
1000.97086,0.25172
998.91125,0.24206
996.85164,0.23091
994.79202,0.22204
992.73241,0.21540
990.67280,0.21046
988.61319,0.20674
986.55358,0.20357
984.49397,0.20265
982.43436,0.20728
980.37475,0.21445
978.31514,0.21658
976.25553,0.21415
974.19592,0.21167
972.13631,0.20957
970.07669,0.20749
968.01708,0.20612
965.95747,0.20846
963.89786,0.22235
961.83825,0.25446
959.77864,0.29094
957.71903,0.30084
955.65942,0.28209
953.59981,0.26160
951.54020,0.25220
949.48059,0.25050
947.42098,0.25201
945.36136,0.25461
943.30175,0.25720
941.24214,0.25967
939.18253,0.26367
937.12292,0.26957
935.06331,0.27475
933.00370,0.27709
930.94409,0.27697
928.88448,0.27553
926.82487,0.27372
924.76526,0.27220
922.70565,0.27089
920.64604,0.26932
918.58642,0.26737
916.52681,0.26513
914.46720,0.26244
912.40759,0.25920
910.34798,0.25557
908.28837,0.25175
906.22876,0.24786
904.16915,0.24401
902.10954,0.24040
900.04993,0.23705
897.99032,0.23384
895.93071,0.23079
893.87109,0.22782
891.81148,0.22471
889.75187,0.22176
887.69226,0.21927
885.63265,0.21721
883.57304,0.21551
881.51343,0.21390
879.45382,0.21214
877.39421,0.21020
875.33460,0.20817
873.27499,0.20635
871.21538,0.20485
869.15576,0.20348
867.09615,0.20209
865.03654,0.20052
862.97693,0.19886
860.91732,0.19772
858.85771,0.19762
856.79810,0.19798
854.73849,0.19758
852.67888,0.19631
850.61927,0.19583
848.55966,0.20061
846.50005,0.21406
844.44043,0.22467
842.38082,0.21863
840.32121,0.20538
838.26160,0.19733
836.20199,0.19417
834.14238,0.19315
832.08277,0.19312
830.02316,0.19318
827.96355,0.19278
825.90394,0.19333
823.84433,0.19661
821.78472,0.20159
819.72511,0.20521
817.66549,0.20562
815.60588,0.20516
813.54627,0.20916
811.48666,0.21630
809.42705,0.21936
807.36744,0.21854
805.30783,0.21752
803.24822,0.21514
801.18861,0.21377
799.12900,0.21893
797.06939,0.22475
795.00978,0.23169
792.95016,0.26361
790.89055,0.32561
788.83094,0.38210
786.77133,0.40778
784.71172,0.41870
782.65211,0.43506
780.59250,0.46345
778.53289,0.49924
776.47328,0.52676
774.41367,0.53392
772.35406,0.52581
770.29445,0.51211
768.23483,0.49653
766.17522,0.47996
764.11561,0.46299
762.05600,0.44639
759.99639,0.43056
757.93678,0.41491
755.87717,0.39940
753.81756,0.38595
751.75795,0.37587
749.69834,0.36820
747.63873,0.35966
745.57912,0.34750
743.51950,0.33304
741.45989,0.31910
739.40028,0.30706
737.34067,0.29725
735.28106,0.29018
733.22145,0.28685
731.16184,0.28656
729.10223,0.28630
727.04262,0.28407
724.98301,0.28019
722.92340,0.27619
720.86379,0.27352
718.80418,0.27375
716.74456,0.27878
714.68495,0.29247
712.62534,0.31438
710.56573,0.34018
708.50612,0.36579
706.44651,0.38564
704.38690,0.39383
702.32729,0.39081
700.26768,0.38149
698.20807,0.36808
696.14846,0.35186
694.08885,0.33574
692.02923,0.32115
689.96962,0.31002
687.91001,0.30830
685.85040,0.31786
683.79079,0.32683
681.73118,0.32158
679.67157,0.30413
677.61196,0.28510
675.55235,0.27110
673.49274,0.26722
671.43313,0.28050
669.37352,0.31096
667.31390,0.33513
665.25429,0.34769
663.19468,0.33790
661.13507,0.32395
659.07546,0.31271
657.01585,0.30400
654.95624,0.29653
652.89663,0.28936
650.83702,0.28259
648.77741,0.27624
646.71780,0.27058
644.65819,0.26574
642.59857,0.26192
640.53896,0.25851
638.47935,0.25508
636.41974,0.25167
634.36013,0.24837
632.30052,0.24535
630.24091,0.24218
628.18130,0.23801
626.12169,0.23304
624.06208,0.22644
622.00247,0.21986
619.94286,0.23290
617.88325,0.27589
615.82363,0.30870
613.76402,0.30086
611.70441,0.27960
609.64480,0.26504
607.58519,0.25661
605.52558,0.25159
603.46597,0.24831
601.40636,0.24583
599.34675,0.24338
597.28714,0.24086
595.22753,0.23888
593.16792,0.23759
591.10830,0.23634
589.04869,0.23493
586.98908,0.23360
584.92947,0.23263
582.86986,0.23233
580.81025,0.23263
578.75064,0.23290
576.69103,0.23290
574.63142,0.23225
572.57181,0.23131
570.51220,0.23100
568.45259,0.23167
566.39297,0.23379
564.33336,0.23862
562.27375,0.24726
560.21414,0.25892
558.15453,0.27132
556.09492,0.28202
554.03531,0.28946
551.97570,0.29366
549.91609,0.29589
547.85648,0.29745
545.79687,0.29842
543.73726,0.29828
541.67764,0.29728
539.61803,0.29563
537.55842,0.29302
535.49881,0.28935
533.43920,0.28490
531.37959,0.28005
529.31998,0.27535
527.26037,0.27151
525.20076,0.26804
523.14115,0.26449
521.08154,0.26153
519.02193,0.25900
516.96232,0.25604
514.90270,0.25263
512.84309,0.24963
510.78348,0.24687
508.72387,0.24404
506.66426,0.24127
504.60465,0.23881
502.54504,0.23613
500.48543,0.23238
498.42582,0.22880
496.36621,0.22594
494.30660,0.22394
492.24699,0.22405
490.18737,0.22859
488.12776,0.24518
486.06815,0.28964
484.00854,0.36892
481.94893,0.45117
479.88932,0.48442
477.82971,0.46257
475.77010,0.43367
473.71049,0.44447
471.65088,0.48127
469.59127,0.48257
467.53166,0.44018
465.47204,0.39328
463.41243,0.35963
461.35282,0.33592
459.29321,0.31871
457.23360,0.30574
455.17399,0.29568
453.11438,0.28805
451.05477,0.28218
448.99516,0.27798
446.93555,0.27408
444.87594,0.27018
442.81633,0.26750
440.75671,0.26604
438.69710,0.26601
436.63749,0.26773
434.57788,0.27100
432.51827,0.27434
430.45866,0.27444
428.39905,0.27001
426.33944,0.26365
424.27983,0.25845
422.22022,0.25648
420.16061,0.25659
418.10100,0.25261
416.04138,0.24571
413.98177,0.24195
411.92216,0.24070
409.86255,0.24021
407.80294,0.24001
405.74333,0.23969
403.68372,0.23871
401.62411,0.23716
399.56450,0.23573
