3997.70460,0.01072
3995.64498,0.01057
3993.58537,0.01037
3991.52576,0.01024
3989.46615,0.01026
3987.40654,0.01045
3985.34693,0.01070
3983.28732,0.01071
3981.22771,0.01049
3979.16810,0.01037
3977.10849,0.01045
3975.04888,0.01047
3972.98927,0.01039
3970.92965,0.01038
3968.87004,0.01046
3966.81043,0.01050
3964.75082,0.01042
3962.69121,0.01033
3960.63160,0.01034
3958.57199,0.01037
3956.51238,0.01029
3954.45277,0.01020
3952.39316,0.01033
3950.33355,0.01053
3948.27394,0.01056
3946.21432,0.01048
3944.15471,0.01044
3942.09510,0.01052
3940.03549,0.01063
3937.97588,0.01064
3935.91627,0.01053
3933.85666,0.01037
3931.79705,0.01029
3929.73744,0.01032
3927.67783,0.01038
3925.61822,0.01039
3923.55861,0.01041
3921.49900,0.01045
3919.43938,0.01044
3917.37977,0.01032
3915.32016,0.01008
3913.26055,0.00990
3911.20094,0.00991
3909.14133,0.01012
3907.08172,0.01044
3905.02211,0.01069
3902.96250,0.01074
3900.90289,0.01065
3898.84328,0.01054
3896.78367,0.01037
3894.72405,0.01023
3892.66444,0.01027
3890.60483,0.01039
3888.54522,0.01032
3886.48561,0.01019
3884.42600,0.01019
3882.36639,0.01026
3880.30678,0.01032
3878.24717,0.01033
3876.18756,0.01023
3874.12795,0.01010
3872.06834,0.01010
3870.00872,0.01027
3867.94911,0.01039
3865.88950,0.01035
3863.82989,0.01023
3861.77028,0.01014
3859.71067,0.01015
3857.65106,0.01024
3855.59145,0.01043
3853.53184,0.01064
3851.47223,0.01057
3849.41262,0.01025
3847.35301,0.00996
3845.29339,0.00985
3843.23378,0.00993
3841.17417,0.01007
3839.11456,0.01019
3837.05495,0.01026
3834.99534,0.01029
3832.93573,0.01020
3830.87612,0.01000
3828.81651,0.00987
3826.75690,0.00995
3824.69729,0.01017
3822.63768,0.01043
3820.57807,0.01061
3818.51845,0.01048
3816.45884,0.01013
3814.39923,0.00980
3812.33962,0.00967
3810.28001,0.00966
3808.22040,0.00963
3806.16079,0.00963
3804.10118,0.00973
3802.04157,0.00993
3799.98196,0.01017
3797.92235,0.01029
3795.86274,0.01021
3793.80312,0.01003
3791.74351,0.00992
3789.68390,0.00987
3787.62429,0.00977
3785.56468,0.00967
3783.50507,0.00963
3781.44546,0.00961
3779.38585,0.00965
3777.32624,0.00984
3775.26663,0.01004
3773.20702,0.01007
3771.14741,0.00996
3769.08779,0.00980
3767.02818,0.00966
3764.96857,0.00965
3762.90896,0.00979
3760.84935,0.00995
3758.78974,0.01004
3756.73013,0.01014
3754.67052,0.01040
3752.61091,0.01059
3750.55130,0.01033
3748.49169,0.00981
3746.43208,0.00955
3744.37246,0.00961
3742.31285,0.00964
3740.25324,0.00952
3738.19363,0.00951
3736.13402,0.00980
3734.07441,0.01018
3732.01480,0.01018
3729.95519,0.00992
3727.89558,0.00975
3725.83597,0.00966
3723.77636,0.00955
3721.71675,0.00945
3719.65714,0.00937
3717.59752,0.00934
3715.53791,0.00945
3713.47830,0.00970
3711.41869,0.00999
3709.35908,0.00998
3707.29947,0.00979
3705.23986,0.00972
3703.18025,0.00987
3701.12064,0.01005
3699.06103,0.01003
3697.00142,0.00982
3694.94181,0.00958
3692.88219,0.00951
3690.82258,0.00974
3688.76297,0.01007
3686.70336,0.01024
3684.64375,0.01021
3682.58414,0.01002
3680.52453,0.00986
3678.46492,0.01004
3676.40531,0.01046
3674.34570,0.01058
3672.28609,0.01033
3670.22648,0.01030
3668.16686,0.01051
3666.10725,0.01062
3664.04764,0.01068
3661.98803,0.01074
3659.92842,0.01073
3657.86881,0.01071
3655.80920,0.01076
3653.74959,0.01080
3651.68998,0.01091
3649.63037,0.01147
3647.57076,0.01221
3645.51115,0.01239
3643.45153,0.01219
3641.39192,0.01200
3639.33231,0.01186
3637.27270,0.01177
3635.21309,0.01177
3633.15348,0.01191
3631.09387,0.01223
3629.03426,0.01258
3626.97465,0.01267
3624.91504,0.01262
3622.85543,0.01267
3620.79582,0.01283
3618.73621,0.01306
3616.67659,0.01332
3614.61698,0.01358
3612.55737,0.01382
3610.49776,0.01397
3608.43815,0.01408
3606.37854,0.01416
3604.31893,0.01426
3602.25932,0.01444
3600.19971,0.01455
3598.14010,0.01458
3596.08049,0.01459
3594.02088,0.01472
3591.96126,0.01502
3589.90165,0.01531
3587.84204,0.01566
3585.78243,0.01595
3583.72282,0.01604
3581.66321,0.01612
3579.60360,0.01639
3577.54399,0.01670
3575.48438,0.01689
3573.42477,0.01703
3571.36516,0.01719
3569.30555,0.01737
3567.24593,0.01763
3565.18632,0.01786
3563.12671,0.01800
3561.06710,0.01821
3559.00749,0.01846
3556.94788,0.01863
3554.88827,0.01873
3552.82866,0.01882
3550.76905,0.01881
3548.70944,0.01879
3546.64983,0.01895
3544.59022,0.01931
3542.53060,0.01973
3540.47099,0.02003
3538.41138,0.02017
3536.35177,0.02030
3534.29216,0.02056
3532.23255,0.02083
3530.17294,0.02099
3528.11333,0.02108
3526.05372,0.02122
3523.99411,0.02137
3521.93450,0.02144
3519.87489,0.02152
3517.81528,0.02174
3515.75566,0.02206
3513.69605,0.02244
3511.63644,0.02279
3509.57683,0.02298
3507.51722,0.02302
3505.45761,0.02312
3503.39800,0.02328
3501.33839,0.02340
3499.27878,0.02359
3497.21917,0.02391
3495.15956,0.02422
3493.09995,0.02446
3491.04033,0.02466
3488.98072,0.02483
3486.92111,0.02500
3484.86150,0.02529
3482.80189,0.02566
3480.74228,0.02576
3478.68267,0.02555
3476.62306,0.02552
3474.56345,0.02580
3472.50384,0.02612
3470.44423,0.02640
3468.38462,0.02666
3466.32500,0.02685
3464.26539,0.02703
3462.20578,0.02720
3460.14617,0.02736
3458.08656,0.02764
3456.02695,0.02786
3453.96734,0.02784
3451.90773,0.02785
3449.84812,0.02810
3447.78851,0.02840
3445.72890,0.02859
3443.66929,0.02873
3441.60967,0.02895
3439.55006,0.02919
3437.49045,0.02925
3435.43084,0.02928
3433.37123,0.02958
3431.31162,0.03000
3429.25201,0.03018
3427.19240,0.03013
3425.13279,0.03020
3423.07318,0.03048
3421.01357,0.03075
3418.95396,0.03089
3416.89435,0.03098
3414.83473,0.03116
3412.77512,0.03136
3410.71551,0.03149
3408.65590,0.03165
3406.59629,0.03183
3404.53668,0.03199
3402.47707,0.03223
3400.41746,0.03244
3398.35785,0.03257
3396.29824,0.03275
3394.23863,0.03305
3392.17902,0.03322
3390.11940,0.03317
3388.05979,0.03309
3386.00018,0.03313
3383.94057,0.03328
3381.88096,0.03347
3379.82135,0.03360
3377.76174,0.03377
3375.70213,0.03397
3373.64252,0.03419
3371.58291,0.03448
3369.52330,0.03469
3367.46369,0.03481
3365.40407,0.03494
3363.34446,0.03494
3361.28485,0.03487
3359.22524,0.03498
3357.16563,0.03515
3355.10602,0.03530
3353.04641,0.03556
3350.98680,0.03583
3348.92719,0.03603
3346.86758,0.03620
3344.80797,0.03628
3342.74836,0.03638
3340.68874,0.03672
3338.62913,0.03710
3336.56952,0.03725
3334.50991,0.03732
3332.45030,0.03748
3330.39069,0.03771
3328.33108,0.03794
3326.27147,0.03815
3324.21186,0.03835
3322.15225,0.03856
3320.09264,0.03880
3318.03303,0.03897
3315.97342,0.03916
3313.91380,0.03944
3311.85419,0.03971
3309.79458,0.03999
3307.73497,0.04034
3305.67536,0.04063
3303.61575,0.04088
3301.55614,0.04115
3299.49653,0.04140
3297.43692,0.04158
3295.37731,0.04172
3293.31770,0.04191
3291.25809,0.04218
3289.19847,0.04243
3287.13886,0.04258
3285.07925,0.04261
3283.01964,0.04261
3280.96003,0.04264
3278.90042,0.04263
3276.84081,0.04265
3274.78120,0.04280
3272.72159,0.04286
3270.66198,0.04265
3268.60237,0.04231
3266.54276,0.04213
3264.48314,0.04219
3262.42353,0.04232
3260.36392,0.04233
3258.30431,0.04226
3256.24470,0.04215
3254.18509,0.04200
3252.12548,0.04187
3250.06587,0.04182
3248.00626,0.04180
3245.94665,0.04163
3243.88704,0.04132
3241.82743,0.04115
3239.76781,0.04123
3237.70820,0.04132
3235.64859,0.04140
3233.58898,0.04150
3231.52937,0.04152
3229.46976,0.04141
3227.41015,0.04132
3225.35054,0.04133
3223.29093,0.04138
3221.23132,0.04138
3219.17171,0.04140
3217.11210,0.04152
3215.05248,0.04166
3212.99287,0.04176
3210.93326,0.04187
3208.87365,0.04197
3206.81404,0.04200
3204.75443,0.04202
3202.69482,0.04209
3200.63521,0.04219
3198.57560,0.04228
3196.51599,0.04225
3194.45638,0.04209
3192.39677,0.04201
3190.33716,0.04217
3188.27754,0.04240
3186.21793,0.04241
3184.15832,0.04226
3182.09871,0.04223
3180.03910,0.04224
3177.97949,0.04224
3175.91988,0.04237
3173.86027,0.04243
3171.80066,0.04237
3169.74105,0.04247
3167.68144,0.04272
3165.62183,0.04289
3163.56221,0.04287
3161.50260,0.04274
3159.44299,0.04259
3157.38338,0.04245
3155.32377,0.04242
3153.26416,0.04260
3151.20455,0.04282
3149.14494,0.04280
3147.08533,0.04272
3145.02572,0.04285
3142.96611,0.04307
3140.90650,0.04320
3138.84688,0.04322
3136.78727,0.04318
3134.72766,0.04315
3132.66805,0.04310
3130.60844,0.04312
3128.54883,0.04323
3126.48922,0.04341
3124.42961,0.04365
3122.37000,0.04392
3120.31039,0.04411
3118.25078,0.04426
3116.19117,0.04447
3114.13155,0.04476
3112.07194,0.04503
3110.01233,0.04524
3107.95272,0.04537
3105.89311,0.04544
3103.83350,0.04559
3101.77389,0.04583
3099.71428,0.04603
3097.65467,0.04627
3095.59506,0.04667
3093.53545,0.04710
3091.47584,0.04738
3089.41623,0.04753
3087.35661,0.04779
3085.29700,0.04817
3083.23739,0.04849
3081.17778,0.04892
3079.11817,0.04972
3077.05856,0.05108
3074.99895,0.05297
3072.93934,0.05476
3070.87973,0.05558
3068.82012,0.05538
3066.76051,0.05473
3064.70090,0.05418
3062.64128,0.05385
3060.58167,0.05351
3058.52206,0.05297
3056.46245,0.05245
3054.40284,0.05217
3052.34323,0.05207
3050.28362,0.05200
3048.22401,0.05196
3046.16440,0.05200
3044.10479,0.05220
3042.04518,0.05260
3039.98557,0.05309
3037.92595,0.05352
3035.86634,0.05386
3033.80673,0.05412
3031.74712,0.05433
3029.68751,0.05459
3027.62790,0.05484
3025.56829,0.05499
3023.50868,0.05509
3021.44907,0.05525
3019.38946,0.05545
3017.32985,0.05562
3015.27024,0.05581
3013.21062,0.05608
3011.15101,0.05635
3009.09140,0.05657
3007.03179,0.05669
3004.97218,0.05677
3002.91257,0.05690
3000.85296,0.05707
2998.79335,0.05727
2996.73374,0.05749
2994.67413,0.05769
2992.61452,0.05794
2990.55491,0.05837
2988.49530,0.05901
2986.43568,0.05969
2984.37607,0.06038
2982.31646,0.06113
2980.25685,0.06190
2978.19724,0.06263
2976.13763,0.06342
2974.07802,0.06433
2972.01841,0.06533
2969.95880,0.06633
2967.89919,0.06734
2965.83958,0.06848
2963.77997,0.06980
2961.72035,0.07117
2959.66074,0.07237
2957.60113,0.07325
2955.54152,0.07377
2953.48191,0.07376
2951.42230,0.07336
2949.36269,0.07312
2947.30308,0.07328
2945.24347,0.07387
2943.18386,0.07488
2941.12425,0.07631
2939.06464,0.07802
2937.00502,0.07991
2934.94541,0.08211
2932.88580,0.08465
2930.82619,0.08744
2928.76658,0.09065
2926.70697,0.09456
2924.64736,0.09953
2922.58775,0.10587
2920.52814,0.11332
2918.46853,0.12039
2916.40892,0.12337
2914.34931,0.11874
2912.28969,0.10852
2910.23008,0.09852
2908.17047,0.09167
2906.11086,0.08733
2904.05125,0.08439
2901.99164,0.08223
2899.93203,0.08041
2897.87242,0.07872
2895.81281,0.07723
2893.75320,0.07590
2891.69359,0.07455
2889.63398,0.07319
2887.57437,0.07195
2885.51475,0.07080
2883.45514,0.06980
2881.39553,0.06911
2879.33592,0.06872
2877.27631,0.06857
2875.21670,0.06853
2873.15709,0.06842
2871.09748,0.06816
2869.03787,0.06781
2866.97826,0.06762
2864.91865,0.06787
2862.85904,0.06868
2860.79942,0.07008
2858.73981,0.07211
2856.68020,0.07509
2854.62059,0.08002
2852.56098,0.08797
2850.50137,0.09696
2848.44176,0.10034
2846.38215,0.09445
2844.32254,0.08451
2842.26293,0.07658
2840.20332,0.07166
2838.14371,0.06843
2836.08409,0.06596
2834.02448,0.06394
2831.96487,0.06221
2829.90526,0.06071
2827.84565,0.05946
2825.78604,0.05841
2823.72643,0.05746
2821.66682,0.05665
2819.60721,0.05599
2817.54760,0.05538
2815.48799,0.05476
2813.42838,0.05416
2811.36876,0.05357
2809.30915,0.05306
2807.24954,0.05261
2805.18993,0.05207
2803.13032,0.05150
2801.07071,0.05105
2799.01110,0.05061
2796.95149,0.05010
2794.89188,0.04955
2792.83227,0.04898
2790.77266,0.04852
2788.71305,0.04814
2786.65344,0.04777
2784.59382,0.04749
2782.53421,0.04720
2780.47460,0.04687
2778.41499,0.04655
2776.35538,0.04619
2774.29577,0.04582
2772.23616,0.04550
2770.17655,0.04527
2768.11694,0.04511
2766.05733,0.04491
2763.99772,0.04464
2761.93811,0.04432
2759.87849,0.04394
2757.81888,0.04364
2755.75927,0.04348
2753.69966,0.04329
2751.64005,0.04300
2749.58044,0.04268
2747.52083,0.04233
2745.46122,0.04196
2743.40161,0.04168
2741.34200,0.04159
2739.28239,0.04152
2737.22278,0.04144
2735.16316,0.04153
2733.10355,0.04174
2731.04394,0.04187
2728.98433,0.04194
2726.92472,0.04198
2724.86511,0.04193
2722.80550,0.04174
2720.74589,0.04149
2718.68628,0.04123
2716.62667,0.04085
2714.56706,0.04040
2712.50745,0.04001
2710.44783,0.03972
2708.38822,0.03958
2706.32861,0.03954
2704.26900,0.03954
2702.20939,0.03971
2700.14978,0.04019
2698.09017,0.04082
2696.03056,0.04146
2693.97095,0.04217
2691.91134,0.04292
2689.85173,0.04349
2687.79212,0.04386
2685.73251,0.04420
2683.67289,0.04459
2681.61328,0.04497
2679.55367,0.04527
2677.49406,0.04553
2675.43445,0.04576
2673.37484,0.04587
2671.31523,0.04582
2669.25562,0.04577
2667.19601,0.04580
2665.13640,0.04586
2663.07679,0.04591
2661.01718,0.04587
2658.95756,0.04571
2656.89795,0.04548
2654.83834,0.04527
2652.77873,0.04505
2650.71912,0.04481
2648.65951,0.04461
2646.59990,0.04450
2644.54029,0.04446
2642.48068,0.04435
2640.42107,0.04414
2638.36146,0.04390
2636.30185,0.04363
2634.24223,0.04327
2632.18262,0.04285
2630.12301,0.04250
2628.06340,0.04222
2626.00379,0.04189
2623.94418,0.04150
2621.88457,0.04117
2619.82496,0.04097
2617.76535,0.04086
2615.70574,0.04083
2613.64613,0.04100
2611.58652,0.04132
2609.52690,0.04160
2607.46729,0.04175
2605.40768,0.04174
2603.34807,0.04158
2601.28846,0.04139
2599.22885,0.04112
2597.16924,0.04067
2595.10963,0.04009
2593.05002,0.03953
2590.99041,0.03908
2588.93080,0.03876
2586.87119,0.03867
2584.81158,0.03880
2582.75196,0.03892
2580.69235,0.03908
2578.63274,0.03956
2576.57313,0.04027
2574.51352,0.04093
2572.45391,0.04153
2570.39430,0.04209
2568.33469,0.04258
2566.27508,0.04290
2564.21547,0.04301
2562.15586,0.04318
2560.09625,0.04354
2558.03663,0.04375
2555.97702,0.04366
2553.91741,0.04364
2551.85780,0.04384
2549.79819,0.04394
2547.73858,0.04361
2545.67897,0.04296
2543.61936,0.04251
2541.55975,0.04245
2539.50014,0.04244
2537.44053,0.04226
2535.38092,0.04193
2533.32130,0.04165
2531.26169,0.04139
2529.20208,0.04103
2527.14247,0.04084
2525.08286,0.04077
2523.02325,0.04049
2520.96364,0.04016
2518.90403,0.03995
2516.84442,0.03977
2514.78481,0.03962
2512.72520,0.03949
2510.66559,0.03921
2508.60597,0.03880
2506.54636,0.03845
2504.48675,0.03819
2502.42714,0.03798
2500.36753,0.03782
2498.30792,0.03761
2496.24831,0.03727
2494.18870,0.03697
2492.12909,0.03682
2490.06948,0.03672
2488.00987,0.03658
2485.95026,0.03632
2483.89065,0.03597
2481.83103,0.03568
2479.77142,0.03544
2477.71181,0.03523
2475.65220,0.03502
2473.59259,0.03486
2471.53298,0.03478
2469.47337,0.03471
2467.41376,0.03463
2465.35415,0.03453
2463.29454,0.03441
2461.23493,0.03417
2459.17532,0.03380
2457.11570,0.03339
2455.05609,0.03307
2452.99648,0.03297
2450.93687,0.03289
2448.87726,0.03261
2446.81765,0.03237
2444.75804,0.03219
2442.69843,0.03192
2440.63882,0.03170
2438.57921,0.03146
2436.51960,0.03118
2434.45999,0.03099
2432.40037,0.03083
2430.34076,0.03063
2428.28115,0.03054
2426.22154,0.03060
2424.16193,0.03060
2422.10232,0.03046
2420.04271,0.03031
2417.98310,0.03016
2415.92349,0.03001
2413.86388,0.02991
2411.80427,0.02989
2409.74466,0.02988
2407.68504,0.02973
2405.62543,0.02961
2403.56582,0.02958
2401.50621,0.02940
2399.44660,0.02908
2397.38699,0.02895
2395.32738,0.02893
2393.26777,0.02889
2391.20816,0.02879
2389.14855,0.02862
2387.08894,0.02842
2385.02933,0.02824
2382.96972,0.02814
2380.91010,0.02814
2378.85049,0.02813
2376.79088,0.02808
2374.73127,0.02751
2372.67166,0.02750
2370.61205,0.02823
2368.55244,0.02832
2366.49283,0.02832
2364.43322,0.02777
2362.37361,0.02737
2360.31400,0.02799
2358.25439,0.02780
2356.19477,0.02781
2354.13516,0.02802
2352.07555,0.02823
2350.01594,0.02867
2347.95633,0.02754
2345.89672,0.02729
2343.83711,0.02839
2341.77750,0.02712
2339.71789,0.02519
2337.65828,0.02417
2335.59867,0.02616
2333.53906,0.02978
2331.47944,0.03104
2329.41983,0.03042
2327.36022,0.02673
2325.30061,0.02420
2323.24100,0.02193
2321.18139,0.02137
2319.12178,0.02183
2317.06217,0.02236
2315.00256,0.02269
2312.94295,0.02308
2310.88334,0.02323
2308.82373,0.02311
2306.76411,0.02319
2304.70450,0.02336
2302.64489,0.02348
2300.58528,0.02354
2298.52567,0.02358
2296.46606,0.02362
2294.40645,0.02363
2292.34684,0.02356
2290.28723,0.02341
2288.22762,0.02321
2286.16801,0.02304
2284.10840,0.02288
2282.04878,0.02264
2279.98917,0.02236
2277.92956,0.02214
2275.86995,0.02197
2273.81034,0.02178
2271.75073,0.02158
2269.69112,0.02148
2267.63151,0.02139
2265.57190,0.02123
2263.51229,0.02097
2261.45268,0.02076
2259.39307,0.02068
2257.33346,0.02073
2255.27384,0.02091
2253.21423,0.02100
2251.15462,0.02092
2249.09501,0.02089
2247.03540,0.02123
2244.97579,0.02185
2242.91618,0.02264
2240.85657,0.02344
2238.79696,0.02402
2236.73735,0.02399
2234.67774,0.02317
2232.61813,0.02192
2230.55851,0.02061
2228.49890,0.01940
2226.43929,0.01859
2224.37968,0.01852
2222.32007,0.01874
2220.26046,0.01850
2218.20085,0.01791
2216.14124,0.01759
2214.08163,0.01768
2212.02202,0.01770
2209.96241,0.01757
2207.90280,0.01727
2205.84318,0.01674
2203.78357,0.01655
2201.72396,0.01665
2199.66435,0.01655
2197.60474,0.01661
2195.54513,0.01679
2193.48552,0.01662
2191.42591,0.01651
2189.36630,0.01640
2187.30669,0.01597
2185.24708,0.01553
2183.18747,0.01502
2181.12785,0.01450
2179.06824,0.01468
2177.00863,0.01539
2174.94902,0.01535
2172.88941,0.01501
2170.82980,0.01557
2168.77019,0.01615
2166.71058,0.01556
2164.65097,0.01434
2162.59136,0.01367
2160.53175,0.01352
2158.47214,0.01326
2156.41253,0.01319
2154.35291,0.01340
2152.29330,0.01358
2150.23369,0.01353
2148.17408,0.01342
2146.11447,0.01382
2144.05486,0.01447
2141.99525,0.01461
2139.93564,0.01452
2137.87603,0.01475
2135.81642,0.01520
2133.75681,0.01553
2131.69720,0.01564
2129.63758,0.01573
2127.57797,0.01596
2125.51836,0.01627
2123.45875,0.01643
2121.39914,0.01634
2119.33953,0.01611
2117.27992,0.01598
2115.22031,0.01620
2113.16070,0.01654
2111.10109,0.01672
2109.04148,0.01670
2106.98187,0.01657
2104.92225,0.01669
2102.86264,0.01703
2100.80303,0.01731
2098.74342,0.01729
2096.68381,0.01698
2094.62420,0.01685
2092.56459,0.01713
2090.50498,0.01759
2088.44537,0.01799
2086.38576,0.01801
2084.32615,0.01758
2082.26654,0.01718
2080.20692,0.01702
2078.14731,0.01664
2076.08770,0.01615
2074.02809,0.01608
2071.96848,0.01627
2069.90887,0.01626
2067.84926,0.01597
2065.78965,0.01565
2063.73004,0.01545
2061.67043,0.01507
2059.61082,0.01483
2057.55121,0.01520
2055.49160,0.01549
2053.43198,0.01514
2051.37237,0.01448
2049.31276,0.01394
2047.25315,0.01379
2045.19354,0.01371
2043.13393,0.01327
2041.07432,0.01278
2039.01471,0.01275
2036.95510,0.01298
2034.89549,0.01300
2032.83588,0.01272
2030.77627,0.01244
2028.71665,0.01235
2026.65704,0.01240
2024.59743,0.01258
2022.53782,0.01282
2020.47821,0.01271
2018.41860,0.01233
2016.35899,0.01195
2014.29938,0.01169
2012.23977,0.01174
2010.18016,0.01170
2008.12055,0.01155
2006.06094,0.01180
2004.00132,0.01219
2001.94171,0.01244
1999.88210,0.01277
1997.82249,0.01302
1995.76288,0.01302
1993.70327,0.01333
1991.64366,0.01421
1989.58405,0.01501
1987.52444,0.01508
1985.46483,0.01459
1983.40522,0.01423
1981.34561,0.01430
1979.28599,0.01432
1977.22638,0.01414
1975.16677,0.01410
1973.10716,0.01398
1971.04755,0.01362
1968.98794,0.01353
1966.92833,0.01366
1964.86872,0.01346
1962.80911,0.01331
1960.74950,0.01353
1958.68989,0.01376
1956.63028,0.01392
1954.57067,0.01415
1952.51105,0.01427
1950.45144,0.01406
1948.39183,0.01383
1946.33222,0.01389
1944.27261,0.01404
1942.21300,0.01413
1940.15339,0.01447
1938.09378,0.01527
1936.03417,0.01618
1933.97456,0.01665
1931.91495,0.01657
1929.85534,0.01639
1927.79572,0.01659
1925.73611,0.01705
1923.67650,0.01737
1921.61689,0.01738
1919.55728,0.01728
1917.49767,0.01746
1915.43806,0.01789
1913.37845,0.01799
1911.31884,0.01756
1909.25923,0.01699
1907.19962,0.01668
1905.14001,0.01671
1903.08039,0.01685
1901.02078,0.01677
1898.96117,0.01646
1896.90156,0.01627
1894.84195,0.01637
1892.78234,0.01656
1890.72273,0.01659
1888.66312,0.01647
1886.60351,0.01638
1884.54390,0.01641
1882.48429,0.01645
1880.42468,0.01639
1878.36506,0.01627
1876.30545,0.01612
1874.24584,0.01597
1872.18623,0.01592
1870.12662,0.01593
1868.06701,0.01596
1866.00740,0.01589
1863.94779,0.01574
1861.88818,0.01554
1859.82857,0.01540
1857.76896,0.01542
1855.70935,0.01554
1853.64974,0.01557
1851.59012,0.01549
1849.53051,0.01532
1847.47090,0.01509
1845.41129,0.01499
1843.35168,0.01516
1841.29207,0.01546
1839.23246,0.01567
1837.17285,0.01575
1835.11324,0.01583
1833.05363,0.01607
1830.99402,0.01645
1828.93441,0.01683
1826.87479,0.01708
1824.81518,0.01719
1822.75557,0.01721
1820.69596,0.01718
1818.63635,0.01711
1816.57674,0.01702
1814.51713,0.01694
1812.45752,0.01693
1810.39791,0.01702
1808.33830,0.01715
1806.27869,0.01730
1804.21908,0.01757
1802.15946,0.01799
1800.09985,0.01838
1798.04024,0.01858
1795.98063,0.01870
1793.92102,0.01890
1791.86141,0.01914
1789.80180,0.01927
1787.74219,0.01933
1785.68258,0.01938
1783.62297,0.01941
1781.56336,0.01938
1779.50375,0.01931
1777.44413,0.01921
1775.38452,0.01915
1773.32491,0.01916
1771.26530,0.01914
1769.20569,0.01905
1767.14608,0.01889
1765.08647,0.01864
1763.02686,0.01838
1760.96725,0.01821
1758.90764,0.01819
1756.84803,0.01829
1754.78842,0.01847
1752.72881,0.01880
1750.66919,0.01938
1748.60958,0.01996
1746.54997,0.02023
1744.49036,0.02032
1742.43075,0.02045
1740.37114,0.02069
1738.31153,0.02096
1736.25192,0.02136
1734.19231,0.02223
1732.13270,0.02346
1730.07309,0.02461
1728.01348,0.02581
1725.95386,0.02732
1723.89425,0.02931
1721.83464,0.03157
1719.77503,0.03417
1717.71542,0.03773
1715.65581,0.04172
1713.59620,0.04491
1711.53659,0.04770
1709.47698,0.05105
1707.41737,0.05559
1705.35776,0.06100
1703.29815,0.06574
1701.23853,0.07005
1699.17892,0.07512
1697.11931,0.08071
1695.05970,0.08686
1693.00009,0.09285
1690.94048,0.09878
1688.88087,0.10498
1686.82126,0.11046
1684.76165,0.11529
1682.70204,0.11871
1680.64243,0.11919
1678.58282,0.11818
1676.52320,0.11726
1674.46359,0.11656
1672.40398,0.11562
1670.34437,0.11442
1668.28476,0.11323
1666.22515,0.11201
1664.16554,0.11087
1662.10593,0.11001
1660.04632,0.10923
1657.98671,0.10832
1655.92710,0.10750
1653.86749,0.10716
1651.80788,0.10680
1649.74826,0.10564
1647.68865,0.10429
1645.62904,0.10320
1643.56943,0.10217
1641.50982,0.10110
1639.45021,0.10000
1637.39060,0.09880
1635.33099,0.09749
1633.27138,0.09615
1631.21177,0.09494
1629.15216,0.09409
1627.09255,0.09372
1625.03293,0.09368
1622.97332,0.09385
1620.91371,0.09412
1618.85410,0.09424
1616.79449,0.09373
1614.73488,0.09255
1612.67527,0.09167
1610.61566,0.09214
1608.55605,0.09444
1606.49644,0.09810
1604.43683,0.10190
1602.37722,0.10437
1600.31760,0.10421
1598.25799,0.10124
1596.19838,0.09645
1594.13877,0.09123
1592.07916,0.08706
1590.01955,0.08592
1587.95994,0.08957
1585.90033,0.09694
1583.84072,0.10383
1581.78111,0.10708
1579.72150,0.10703
1577.66189,0.10513
1575.60227,0.10213
1573.54266,0.09894
1571.48305,0.09597
1569.42344,0.09294
1567.36383,0.09013
1565.30422,0.08796
1563.24461,0.08632
1561.18500,0.08513
1559.12539,0.08463
1557.06578,0.08470
1555.00617,0.08470
1552.94656,0.08474
1550.88695,0.08508
1548.82733,0.08565
1546.76772,0.08631
1544.70811,0.08719
1542.64850,0.08822
1540.58889,0.08852
1538.52928,0.08721
1536.46967,0.08489
1534.41006,0.08222
1532.35045,0.07963
1530.29084,0.07777
1528.23123,0.07656
1526.17162,0.07570
1524.11200,0.07502
1522.05239,0.07434
1519.99278,0.07352
1517.93317,0.07249
1515.87356,0.07112
1513.81395,0.06951
1511.75434,0.06786
1509.69473,0.06621
1507.63512,0.06416
1505.57551,0.06178
1503.51590,0.06029
1501.45629,0.06027
1499.39667,0.06191
1497.33706,0.06396
1495.27745,0.06367
1493.21784,0.06077
1491.15823,0.05699
1489.09862,0.05355
1487.03901,0.05128
1484.97940,0.05018
1482.91979,0.04990
1480.86018,0.05024
1478.80057,0.05116
1476.74096,0.05284
1474.68134,0.05537
1472.62173,0.05787
1470.56212,0.05918
1468.50251,0.06003
1466.44290,0.06183
1464.38329,0.06431
1462.32368,0.06566
1460.26407,0.06698
1458.20446,0.07485
1456.14485,0.09232
1454.08524,0.10684
1452.02563,0.10930
1449.96602,0.10196
1447.90640,0.09127
1445.84679,0.08287
1443.78718,0.07836
1441.72757,0.07657
1439.66796,0.07670
1437.60835,0.07901
1435.54874,0.08332
1433.48913,0.08818
1431.42952,0.09318
1429.36991,0.09818
1427.31030,0.10220
1425.25069,0.10529
1423.19107,0.10804
1421.13146,0.11027
1419.07185,0.11166
1417.01224,0.11172
1414.95263,0.11036
1412.89302,0.10822
1410.83341,0.10576
1408.77380,0.10318
1406.71419,0.10053
1404.65458,0.09782
1402.59497,0.09518
1400.53536,0.09242
1398.47574,0.08921
1396.41613,0.08557
1394.35652,0.08176
1392.29691,0.07827
1390.23730,0.07543
1388.17769,0.07306
1386.11808,0.07100
1384.05847,0.06933
1381.99886,0.06794
1379.93925,0.06657
1377.87964,0.06501
1375.82003,0.06329
1373.76041,0.06160
1371.70080,0.06019
1369.64119,0.05911
1367.58158,0.05820
1365.52197,0.05732
1363.46236,0.05647
1361.40275,0.05571
1359.34314,0.05516
1357.28353,0.05493
1355.22392,0.05508
1353.16431,0.05540
1351.10470,0.05551
1349.04508,0.05522
1346.98547,0.05475
1344.92586,0.05440
1342.86625,0.05437
1340.80664,0.05479
1338.74703,0.05599
1336.68742,0.05840
1334.62781,0.06280
1332.56820,0.07033
1330.50859,0.08119
1328.44898,0.09328
1326.38937,0.10317
1324.32976,0.10842
1322.27014,0.10800
1320.21053,0.10240
1318.15092,0.09424
1316.09131,0.08660
1314.03170,0.08048
1311.97209,0.07606
1309.91248,0.07458
1307.85287,0.07707
1305.79326,0.08261
1303.73365,0.08889
1301.67404,0.09466
1299.61443,0.10050
1297.55481,0.10724
1295.49520,0.11456
1293.43559,0.12098
1291.37598,0.12498
1289.31637,0.12606
1287.25676,0.12477
1285.19715,0.12215
1283.13754,0.11919
1281.07793,0.11663
1279.01832,0.11508
1276.95871,0.11453
1274.89910,0.11418
1272.83948,0.11309
1270.77987,0.11104
1268.72026,0.10839
1266.66065,0.10547
1264.60104,0.10255
1262.54143,0.09995
1260.48182,0.09781
1258.42221,0.09612
1256.36260,0.09478
1254.30299,0.09359
1252.24338,0.09226
1250.18377,0.09081
1248.12415,0.08944
1246.06454,0.08819
1244.00493,0.08687
1241.94532,0.08540
1239.88571,0.08382
1237.82610,0.08216
1235.76649,0.08049
1233.70688,0.07889
1231.64727,0.07737
1229.58766,0.07595
1227.52805,0.07469
1225.46844,0.07357
1223.40883,0.07255
1221.34921,0.07152
1219.28960,0.07049
1217.22999,0.06968
1215.17038,0.06923
1213.11077,0.06880
1211.05116,0.06784
1208.99155,0.06636
1206.93194,0.06476
1204.87233,0.06331
1202.81272,0.06203
1200.75311,0.06078
1198.69350,0.05968
1196.63388,0.05905
1194.57427,0.05939
1192.51466,0.06175
1190.45505,0.06741
1188.39544,0.07542
1186.33583,0.08171
1184.27622,0.08391
1182.21661,0.08439
1180.15700,0.08507
1178.09739,0.08437
1176.03778,0.08108
1173.97817,0.07662
1171.91855,0.07288
1169.85894,0.07055
1167.79933,0.06902
1165.73972,0.06740
1163.68011,0.06565
1161.62050,0.06420
1159.56089,0.06306
1157.50128,0.06197
1155.44167,0.06079
1153.38206,0.05971
1151.32245,0.05884
1149.26284,0.05810
1147.20322,0.05743
1145.14361,0.05683
1143.08400,0.05631
1141.02439,0.05596
1138.96478,0.05603
1136.90517,0.05691
1134.84556,0.05924
1132.78595,0.06394
1130.72634,0.07116
1128.66673,0.07807
1126.60712,0.08047
1124.54751,0.07783
1122.48790,0.07328
1120.42828,0.06924
1118.36867,0.06625
1116.30906,0.06410
1114.24945,0.06245
1112.18984,0.06102
1110.13023,0.05984
1108.07062,0.05913
1106.01101,0.05936
1103.95140,0.06111
1101.89179,0.06362
1099.83218,0.06462
1097.77257,0.06327
1095.71295,0.06111
1093.65334,0.05939
1091.59373,0.05824
1089.53412,0.05743
1087.47451,0.05683
1085.41490,0.05633
1083.35529,0.05598
1081.29568,0.05609
1079.23607,0.05775
1077.17646,0.06303
1075.11685,0.07165
1073.05724,0.07850
1070.99762,0.07941
1068.93801,0.07632
1066.87840,0.07260
1064.81879,0.06952
1062.75918,0.06723
1060.69957,0.06559
1058.63996,0.06442
1056.58035,0.06371
1054.52074,0.06338
1052.46113,0.06326
1050.40152,0.06318
1048.34191,0.06297
1046.28229,0.06265
1044.22268,0.06227
1042.16307,0.06172
1040.10346,0.06088
1038.04385,0.05990
1035.98424,0.05881
1033.92463,0.05791
1031.86502,0.05915
1029.80541,0.06632
1027.74580,0.07730
1025.68619,0.08150
1023.62658,0.07624
1021.56697,0.06956
1019.50735,0.06577
1017.44774,0.06381
1015.38813,0.06256
1013.32852,0.06174
1011.26891,0.06113
1009.20930,0.06059
1007.14969,0.06016
1005.09008,0.06038
1003.03047,0.06271
1000.97086,0.06636
998.91125,0.06768
996.85164,0.06641
994.79202,0.06481
992.73241,0.06341
990.67280,0.06261
988.61319,0.06290
986.55358,0.06416
984.49397,0.06621
982.43436,0.06928
980.37475,0.07365
978.31514,0.07925
976.25553,0.08566
974.19592,0.09225
972.13631,0.09861
970.07669,0.10431
968.01708,0.10847
965.95747,0.11000
963.89786,0.10810
961.83825,0.10287
959.77864,0.09563
957.71903,0.08847
955.65942,0.08327
953.59981,0.08069
951.54020,0.08031
949.48059,0.08133
947.42098,0.08311
945.36136,0.08529
943.30175,0.08737
941.24214,0.08914
939.18253,0.09187
937.12292,0.09642
935.06331,0.10101
933.00370,0.10383
930.94409,0.10508
928.88448,0.10556
926.82487,0.10577
924.76526,0.10604
922.70565,0.10648
920.64604,0.10673
918.58642,0.10630
916.52681,0.10505
914.46720,0.10295
912.40759,0.10005
910.34798,0.09647
908.28837,0.09240
906.22876,0.08817
904.16915,0.08406
902.10954,0.08023
900.04993,0.07683
897.99032,0.07392
895.93071,0.07150
893.87109,0.06938
891.81148,0.06738
889.75187,0.06566
887.69226,0.06427
885.63265,0.06300
883.57304,0.06179
881.51343,0.06061
879.45382,0.05943
877.39421,0.05823
875.33460,0.05697
873.27499,0.05571
871.21538,0.05459
869.15576,0.05365
867.09615,0.05276
865.03654,0.05193
862.97693,0.05130
860.91732,0.05112
858.85771,0.05155
856.79810,0.05213
854.73849,0.05211
852.67888,0.05134
850.61927,0.05044
848.55966,0.04986
846.50005,0.04952
844.44043,0.04936
842.38082,0.04942
840.32121,0.04952
838.26160,0.04967
836.20199,0.04998
834.14238,0.05025
832.08277,0.05033
830.02316,0.05029
827.96355,0.05020
825.90394,0.05013
823.84433,0.05024
821.78472,0.05107
819.72511,0.05307
817.66549,0.05549
815.60588,0.05832
813.54627,0.06407
811.48666,0.07184
809.42705,0.07650
807.36744,0.07817
805.30783,0.07996
803.24822,0.08067
801.18861,0.07861
799.12900,0.07458
797.06939,0.07016
795.00978,0.06652
792.95016,0.06393
790.89055,0.06201
788.83094,0.06050
786.77133,0.05931
784.71172,0.05830
782.65211,0.05729
780.59250,0.05610
778.53289,0.05492
776.47328,0.05409
774.41367,0.05358
772.35406,0.05327
770.29445,0.05311
768.23483,0.05270
766.17522,0.05207
764.11561,0.05154
762.05600,0.05117
759.99639,0.05096
757.93678,0.05086
755.87717,0.05074
753.81756,0.05066
751.75795,0.05057
749.69834,0.05048
747.63873,0.05051
745.57912,0.05065
743.51950,0.05071
741.45989,0.05055
739.40028,0.05035
737.34067,0.05024
735.28106,0.05033
733.22145,0.05085
731.16184,0.05199
729.10223,0.05333
727.04262,0.05441
724.98301,0.05568
722.92340,0.05763
720.86379,0.06003
718.80418,0.06302
716.74456,0.06783
714.68495,0.07920
712.62534,0.09799
710.56573,0.12000
708.50612,0.14060
706.44651,0.15437
704.38690,0.15706
702.32729,0.15174
700.26768,0.14402
698.20807,0.13590
696.14846,0.12774
694.08885,0.11981
692.02923,0.11234
689.96962,0.10664
687.91001,0.10642
685.85040,0.11348
683.79079,0.12099
681.73118,0.11944
679.67157,0.10907
677.61196,0.09695
675.55235,0.08783
673.49274,0.08481
671.43313,0.09412
669.37352,0.11746
667.31390,0.13024
665.25429,0.13911
663.19468,0.13425
661.13507,0.12576
659.07546,0.11890
657.01585,0.11381
654.95624,0.10980
652.89663,0.10621
650.83702,0.10267
648.77741,0.09929
646.71780,0.09655
644.65819,0.09400
642.59857,0.09194
640.53896,0.09045
638.47935,0.08909
636.41974,0.08780
634.36013,0.08680
632.30052,0.08604
630.24091,0.08532
628.18130,0.08444
626.12169,0.08345
624.06208,0.08249
622.00247,0.08181
619.94286,0.08184
617.88325,0.08251
615.82363,0.08258
613.76402,0.08145
611.70441,0.07987
609.64480,0.07836
607.58519,0.07717
605.52558,0.07632
603.46597,0.07559
601.40636,0.07504
599.34675,0.07456
597.28714,0.07394
595.22753,0.07327
593.16792,0.07267
591.10830,0.07223
589.04869,0.07200
586.98908,0.07171
584.92947,0.07128
582.86986,0.07096
580.81025,0.07073
578.75064,0.07046
576.69103,0.07009
574.63142,0.06963
572.57181,0.06923
570.51220,0.06906
568.45259,0.06938
566.39297,0.07095
564.33336,0.07430
562.27375,0.07950
560.21414,0.08667
558.15453,0.09516
556.09492,0.10339
554.03531,0.10997
551.97570,0.11420
549.91609,0.11633
547.85648,0.11758
545.79687,0.11859
543.73726,0.11896
541.67764,0.11868
539.61803,0.11801
537.55842,0.11680
535.49881,0.11507
533.43920,0.11287
531.37959,0.11039
529.31998,0.10820
527.26037,0.10641
525.20076,0.10467
523.14115,0.10306
521.08154,0.10148
519.02193,0.09970
516.96232,0.09805
514.90270,0.09686
512.84309,0.09565
510.78348,0.09386
508.72387,0.09171
506.66426,0.08971
504.60465,0.08807
502.54504,0.08652
500.48543,0.08469
498.42582,0.08287
496.36621,0.08151
494.30660,0.08078
492.24699,0.08044
490.18737,0.07988
488.12776,0.07897
486.06815,0.07807
484.00854,0.07718
481.94893,0.07602
479.88932,0.07479
477.82971,0.07392
475.77010,0.07312
473.71049,0.07203
471.65088,0.07122
469.59127,0.07127
467.53166,0.07195
465.47204,0.07227
463.41243,0.07140
461.35282,0.07033
459.29321,0.07039
457.23360,0.07115
455.17399,0.07121
453.11438,0.07037
451.05477,0.06953
448.99516,0.06911
446.93555,0.06883
444.87594,0.06875
442.81633,0.06919
440.75671,0.07029
438.69710,0.07239
436.63749,0.07571
434.57788,0.07978
432.51827,0.08339
430.45866,0.08531
428.39905,0.08514
426.33944,0.08342
424.27983,0.08100
422.22022,0.07843
420.16061,0.07575
418.10100,0.07318
416.04138,0.07152
413.98177,0.07085
411.92216,0.07090
409.86255,0.07152
407.80294,0.07250
405.74333,0.07359
403.68372,0.07406
401.62411,0.07352
399.56450,0.07251
