PE IR       SUBTECH     SPECTRUM    ASCII       PEDS        4.00        
   -1
post_open_background_PE_8_18_24.ASC
24/08/19
20:27:02.00
24/08/19
20:43:01.00
Yarger Lab
Sample 346 By YargerLab Date Monday, August 19 2024
400.000000
#HDR
-1
-1
#GR
cm-1
A
1.0
0.0
4000.000000
-1.000000
3601
8
0.002196
-0.004730
#DATA
4000.000000	-0.000301
3999.000000	-0.000296
3998.000000	-0.000290
3997.000000	-0.000318
3996.000000	-0.000319
3995.000000	-0.000318
3994.000000	-0.000319
3993.000000	-0.000322
3992.000000	-0.000329
3991.000000	-0.000340
3990.000000	-0.000347
3989.000000	-0.000347
3988.000000	-0.000335
3987.000000	-0.000319
3986.000000	-0.000303
3985.000000	-0.000293
3984.000000	-0.000290
3983.000000	-0.000290
3982.000000	-0.000293
3981.000000	-0.000297
3980.000000	-0.000299
3979.000000	-0.000299
3978.000000	-0.000296
3977.000000	-0.000294
3976.000000	-0.000291
3975.000000	-0.000290
3974.000000	-0.000289
3973.000000	-0.000290
3972.000000	-0.000294
3971.000000	-0.000301
3970.000000	-0.000310
3969.000000	-0.000316
3968.000000	-0.000320
3967.000000	-0.000319
3966.000000	-0.000315
3965.000000	-0.000308
3964.000000	-0.000299
3963.000000	-0.000292
3962.000000	-0.000287
3961.000000	-0.000283
3960.000000	-0.000282
3959.000000	-0.000284
3958.000000	-0.000290
3957.000000	-0.000295
3956.000000	-0.000298
3955.000000	-0.000295
3954.000000	-0.000289
3953.000000	-0.000283
3952.000000	-0.000277
3951.000000	-0.000271
3950.000000	-0.000261
3949.000000	-0.000247
3948.000000	-0.000230
3947.000000	-0.000216
3946.000000	-0.000213
3945.000000	-0.000225
3944.000000	-0.000251
3943.000000	-0.000285
3942.000000	-0.000316
3941.000000	-0.000334
3940.000000	-0.000338
3939.000000	-0.000332
3938.000000	-0.000321
3937.000000	-0.000304
3936.000000	-0.000282
3935.000000	-0.000256
3934.000000	-0.000236
3933.000000	-0.000228
3932.000000	-0.000235
3931.000000	-0.000250
3930.000000	-0.000266
3929.000000	-0.000279
3928.000000	-0.000290
3927.000000	-0.000297
3926.000000	-0.000300
3925.000000	-0.000297
3924.000000	-0.000286
3923.000000	-0.000266
3922.000000	-0.000241
3921.000000	-0.000218
3920.000000	-0.000206
3919.000000	-0.000207
3918.000000	-0.000216
3917.000000	-0.000232
3916.000000	-0.000253
3915.000000	-0.000272
3914.000000	-0.000284
3913.000000	-0.000291
3912.000000	-0.000297
3911.000000	-0.000301
3910.000000	-0.000301
3909.000000	-0.000294
3908.000000	-0.000281
3907.000000	-0.000263
3906.000000	-0.000236
3905.000000	-0.000202
3904.000000	-0.000166
3903.000000	-0.000140
3902.000000	-0.000134
3901.000000	-0.000152
3900.000000	-0.000189
3899.000000	-0.000229
3898.000000	-0.000251
3897.000000	-0.000250
3896.000000	-0.000238
3895.000000	-0.000226
3894.000000	-0.000223
3893.000000	-0.000228
3892.000000	-0.000237
3891.000000	-0.000248
3890.000000	-0.000254
3889.000000	-0.000244
3888.000000	-0.000214
3887.000000	-0.000183
3886.000000	-0.000175
3885.000000	-0.000193
3884.000000	-0.000210
3883.000000	-0.000212
3882.000000	-0.000206
3881.000000	-0.000207
3880.000000	-0.000215
3879.000000	-0.000220
3878.000000	-0.000216
3877.000000	-0.000203
3876.000000	-0.000188
3875.000000	-0.000184
3874.000000	-0.000190
3873.000000	-0.000187
3872.000000	-0.000162
3871.000000	-0.000132
3870.000000	-0.000123
3869.000000	-0.000137
3868.000000	-0.000150
3867.000000	-0.000144
3866.000000	-0.000136
3865.000000	-0.000152
3864.000000	-0.000186
3863.000000	-0.000208
3862.000000	-0.000202
3861.000000	-0.000179
3860.000000	-0.000159
3859.000000	-0.000159
3858.000000	-0.000177
3857.000000	-0.000199
3856.000000	-0.000202
3855.000000	-0.000185
3854.000000	-0.000178
3853.000000	-0.000191
3852.000000	-0.000207
3851.000000	-0.000211
3850.000000	-0.000199
3849.000000	-0.000183
3848.000000	-0.000173
3847.000000	-0.000169
3846.000000	-0.000168
3845.000000	-0.000164
3844.000000	-0.000156
3843.000000	-0.000147
3842.000000	-0.000137
3841.000000	-0.000124
3840.000000	-0.000113
3839.000000	-0.000113
3838.000000	-0.000123
3837.000000	-0.000141
3836.000000	-0.000160
3835.000000	-0.000175
3834.000000	-0.000181
3833.000000	-0.000177
3832.000000	-0.000173
3831.000000	-0.000176
3830.000000	-0.000184
3829.000000	-0.000187
3828.000000	-0.000185
3827.000000	-0.000183
3826.000000	-0.000186
3825.000000	-0.000184
3824.000000	-0.000165
3823.000000	-0.000136
3822.000000	-0.000126
3821.000000	-0.000151
3820.000000	-0.000187
3819.000000	-0.000209
3818.000000	-0.000210
3817.000000	-0.000209
3816.000000	-0.000230
3815.000000	-0.000266
3814.000000	-0.000284
3813.000000	-0.000269
3812.000000	-0.000246
3811.000000	-0.000237
3810.000000	-0.000240
3809.000000	-0.000236
3808.000000	-0.000220
3807.000000	-0.000208
3806.000000	-0.000205
3805.000000	-0.000194
3804.000000	-0.000164
3803.000000	-0.000131
3802.000000	-0.000127
3801.000000	-0.000154
3800.000000	-0.000179
3799.000000	-0.000183
3798.000000	-0.000174
3797.000000	-0.000175
3796.000000	-0.000198
3795.000000	-0.000231
3794.000000	-0.000255
3793.000000	-0.000265
3792.000000	-0.000269
3791.000000	-0.000276
3790.000000	-0.000285
3789.000000	-0.000291
3788.000000	-0.000293
3787.000000	-0.000290
3786.000000	-0.000285
3785.000000	-0.000279
3784.000000	-0.000276
3783.000000	-0.000276
3782.000000	-0.000273
3781.000000	-0.000267
3780.000000	-0.000266
3779.000000	-0.000273
3778.000000	-0.000283
3777.000000	-0.000286
3776.000000	-0.000284
3775.000000	-0.000281
3774.000000	-0.000278
3773.000000	-0.000266
3772.000000	-0.000243
3771.000000	-0.000220
3770.000000	-0.000211
3769.000000	-0.000210
3768.000000	-0.000204
3767.000000	-0.000191
3766.000000	-0.000179
3765.000000	-0.000179
3764.000000	-0.000190
3763.000000	-0.000198
3762.000000	-0.000194
3761.000000	-0.000187
3760.000000	-0.000187
3759.000000	-0.000189
3758.000000	-0.000179
3757.000000	-0.000159
3756.000000	-0.000139
3755.000000	-0.000119
3754.000000	-0.000096
3753.000000	-0.000075
3752.000000	-0.000055
3751.000000	-0.000030
3750.000000	-0.000000
3749.000000	0.000006
3748.000000	-0.000020
3747.000000	-0.000047
3746.000000	-0.000049
3745.000000	-0.000039
3744.000000	-0.000046
3743.000000	-0.000063
3742.000000	-0.000064
3741.000000	-0.000040
3740.000000	-0.000011
3739.000000	0.000012
3738.000000	0.000031
3737.000000	0.000038
3736.000000	0.000015
3735.000000	-0.000025
3734.000000	-0.000042
3733.000000	-0.000027
3732.000000	-0.000011
3731.000000	-0.000022
3730.000000	-0.000050
3729.000000	-0.000069
3728.000000	-0.000076
3727.000000	-0.000087
3726.000000	-0.000108
3725.000000	-0.000125
3724.000000	-0.000129
3723.000000	-0.000130
3722.000000	-0.000140
3721.000000	-0.000157
3720.000000	-0.000173
3719.000000	-0.000182
3718.000000	-0.000182
3717.000000	-0.000181
3716.000000	-0.000181
3715.000000	-0.000177
3714.000000	-0.000167
3713.000000	-0.000158
3712.000000	-0.000161
3711.000000	-0.000171
3710.000000	-0.000176
3709.000000	-0.000171
3708.000000	-0.000162
3707.000000	-0.000160
3706.000000	-0.000162
3705.000000	-0.000165
3704.000000	-0.000170
3703.000000	-0.000185
3702.000000	-0.000210
3701.000000	-0.000233
3700.000000	-0.000245
3699.000000	-0.000244
3698.000000	-0.000230
3697.000000	-0.000213
3696.000000	-0.000200
3695.000000	-0.000189
3694.000000	-0.000173
3693.000000	-0.000154
3692.000000	-0.000143
3691.000000	-0.000142
3690.000000	-0.000137
3689.000000	-0.000119
3688.000000	-0.000106
3687.000000	-0.000114
3686.000000	-0.000134
3685.000000	-0.000152
3684.000000	-0.000166
3683.000000	-0.000175
3682.000000	-0.000174
3681.000000	-0.000160
3680.000000	-0.000147
3679.000000	-0.000140
3678.000000	-0.000124
3677.000000	-0.000085
3676.000000	-0.000046
3675.000000	-0.000027
3674.000000	-0.000024
3673.000000	-0.000026
3672.000000	-0.000028
3671.000000	-0.000050
3670.000000	-0.000097
3669.000000	-0.000136
3668.000000	-0.000150
3667.000000	-0.000152
3666.000000	-0.000154
3665.000000	-0.000156
3664.000000	-0.000159
3663.000000	-0.000160
3662.000000	-0.000161
3661.000000	-0.000163
3660.000000	-0.000167
3659.000000	-0.000164
3658.000000	-0.000147
3657.000000	-0.000118
3656.000000	-0.000093
3655.000000	-0.000081
3654.000000	-0.000069
3653.000000	-0.000042
3652.000000	0.000000
3651.000000	0.000040
3650.000000	0.000069
3649.000000	0.000089
3648.000000	0.000095
3647.000000	0.000084
3646.000000	0.000063
3645.000000	0.000043
3644.000000	0.000025
3643.000000	0.000003
3642.000000	-0.000021
3641.000000	-0.000040
3640.000000	-0.000048
3639.000000	-0.000050
3638.000000	-0.000051
3637.000000	-0.000048
3636.000000	-0.000036
3635.000000	-0.000018
3634.000000	-0.000001
3633.000000	0.000016
3632.000000	0.000043
3631.000000	0.000080
3630.000000	0.000113
3629.000000	0.000126
3628.000000	0.000127
3627.000000	0.000123
3626.000000	0.000117
3625.000000	0.000114
3624.000000	0.000114
3623.000000	0.000116
3622.000000	0.000124
3621.000000	0.000133
3620.000000	0.000138
3619.000000	0.000141
3618.000000	0.000157
3617.000000	0.000183
3616.000000	0.000207
3615.000000	0.000218
3614.000000	0.000213
3613.000000	0.000210
3612.000000	0.000219
3611.000000	0.000237
3610.000000	0.000250
3609.000000	0.000246
3608.000000	0.000226
3607.000000	0.000208
3606.000000	0.000203
3605.000000	0.000209
3604.000000	0.000216
3603.000000	0.000218
3602.000000	0.000218
3601.000000	0.000224
3600.000000	0.000236
3599.000000	0.000250
3598.000000	0.000264
3597.000000	0.000274
3596.000000	0.000277
3595.000000	0.000273
3594.000000	0.000269
3593.000000	0.000275
3592.000000	0.000289
3591.000000	0.000306
3590.000000	0.000325
3589.000000	0.000339
3588.000000	0.000342
3587.000000	0.000341
3586.000000	0.000348
3585.000000	0.000362
3584.000000	0.000370
3583.000000	0.000367
3582.000000	0.000357
3581.000000	0.000350
3580.000000	0.000350
3579.000000	0.000353
3578.000000	0.000356
3577.000000	0.000361
3576.000000	0.000369
3575.000000	0.000379
3574.000000	0.000391
3573.000000	0.000406
3572.000000	0.000418
3571.000000	0.000427
3570.000000	0.000443
3569.000000	0.000470
3568.000000	0.000498
3567.000000	0.000511
3566.000000	0.000512
3565.000000	0.000514
3564.000000	0.000521
3563.000000	0.000527
3562.000000	0.000528
3561.000000	0.000525
3560.000000	0.000522
3559.000000	0.000519
3558.000000	0.000518
3557.000000	0.000521
3556.000000	0.000526
3555.000000	0.000528
3554.000000	0.000529
3553.000000	0.000534
3552.000000	0.000546
3551.000000	0.000570
3550.000000	0.000606
3549.000000	0.000648
3548.000000	0.000684
3547.000000	0.000695
3546.000000	0.000683
3545.000000	0.000662
3544.000000	0.000647
3543.000000	0.000642
3542.000000	0.000643
3541.000000	0.000646
3540.000000	0.000646
3539.000000	0.000644
3538.000000	0.000643
3537.000000	0.000650
3536.000000	0.000661
3535.000000	0.000675
3534.000000	0.000690
3533.000000	0.000708
3532.000000	0.000728
3531.000000	0.000748
3530.000000	0.000765
3529.000000	0.000782
3528.000000	0.000797
3527.000000	0.000807
3526.000000	0.000817
3525.000000	0.000829
3524.000000	0.000841
3523.000000	0.000848
3522.000000	0.000847
3521.000000	0.000843
3520.000000	0.000837
3519.000000	0.000830
3518.000000	0.000827
3517.000000	0.000835
3516.000000	0.000852
3515.000000	0.000869
3514.000000	0.000882
3513.000000	0.000892
3512.000000	0.000900
3511.000000	0.000905
3510.000000	0.000908
3509.000000	0.000915
3508.000000	0.000925
3507.000000	0.000940
3506.000000	0.000958
3505.000000	0.000980
3504.000000	0.000999
3503.000000	0.001009
3502.000000	0.001011
3501.000000	0.001009
3500.000000	0.001007
3499.000000	0.001004
3498.000000	0.001003
3497.000000	0.001007
3496.000000	0.001017
3495.000000	0.001029
3494.000000	0.001039
3493.000000	0.001048
3492.000000	0.001055
3491.000000	0.001060
3490.000000	0.001065
3489.000000	0.001073
3488.000000	0.001082
3487.000000	0.001091
3486.000000	0.001102
3485.000000	0.001122
3484.000000	0.001146
3483.000000	0.001166
3482.000000	0.001180
3481.000000	0.001186
3480.000000	0.001187
3479.000000	0.001184
3478.000000	0.001183
3477.000000	0.001189
3476.000000	0.001199
3475.000000	0.001207
3474.000000	0.001210
3473.000000	0.001212
3472.000000	0.001217
3471.000000	0.001224
3470.000000	0.001231
3469.000000	0.001238
3468.000000	0.001242
3467.000000	0.001242
3466.000000	0.001241
3465.000000	0.001245
3464.000000	0.001252
3463.000000	0.001262
3462.000000	0.001274
3461.000000	0.001291
3460.000000	0.001310
3459.000000	0.001324
3458.000000	0.001332
3457.000000	0.001338
3456.000000	0.001343
3455.000000	0.001348
3454.000000	0.001353
3453.000000	0.001364
3452.000000	0.001380
3451.000000	0.001397
3450.000000	0.001413
3449.000000	0.001424
3448.000000	0.001429
3447.000000	0.001426
3446.000000	0.001421
3445.000000	0.001419
3444.000000	0.001422
3443.000000	0.001427
3442.000000	0.001436
3441.000000	0.001449
3440.000000	0.001462
3439.000000	0.001471
3438.000000	0.001476
3437.000000	0.001482
3436.000000	0.001489
3435.000000	0.001495
3434.000000	0.001500
3433.000000	0.001507
3432.000000	0.001514
3431.000000	0.001517
3430.000000	0.001517
3429.000000	0.001516
3428.000000	0.001515
3427.000000	0.001516
3426.000000	0.001521
3425.000000	0.001534
3424.000000	0.001551
3423.000000	0.001568
3422.000000	0.001583
3421.000000	0.001599
3420.000000	0.001615
3419.000000	0.001624
3418.000000	0.001623
3417.000000	0.001618
3416.000000	0.001614
3415.000000	0.001614
3414.000000	0.001618
3413.000000	0.001624
3412.000000	0.001628
3411.000000	0.001624
3410.000000	0.001614
3409.000000	0.001606
3408.000000	0.001606
3407.000000	0.001614
3406.000000	0.001624
3405.000000	0.001635
3404.000000	0.001644
3403.000000	0.001647
3402.000000	0.001646
3401.000000	0.001644
3400.000000	0.001645
3399.000000	0.001648
3398.000000	0.001656
3397.000000	0.001668
3396.000000	0.001678
3395.000000	0.001682
3394.000000	0.001680
3393.000000	0.001678
3392.000000	0.001679
3391.000000	0.001683
3390.000000	0.001691
3389.000000	0.001703
3388.000000	0.001714
3387.000000	0.001720
3386.000000	0.001719
3385.000000	0.001717
3384.000000	0.001717
3383.000000	0.001719
3382.000000	0.001723
3381.000000	0.001730
3380.000000	0.001739
3379.000000	0.001748
3378.000000	0.001756
3377.000000	0.001762
3376.000000	0.001763
3375.000000	0.001760
3374.000000	0.001756
3373.000000	0.001758
3372.000000	0.001764
3371.000000	0.001769
3370.000000	0.001772
3369.000000	0.001775
3368.000000	0.001780
3367.000000	0.001784
3366.000000	0.001786
3365.000000	0.001788
3364.000000	0.001791
3363.000000	0.001793
3362.000000	0.001795
3361.000000	0.001797
3360.000000	0.001799
3359.000000	0.001798
3358.000000	0.001794
3357.000000	0.001792
3356.000000	0.001789
3355.000000	0.001783
3354.000000	0.001775
3353.000000	0.001772
3352.000000	0.001774
3351.000000	0.001779
3350.000000	0.001781
3349.000000	0.001783
3348.000000	0.001786
3347.000000	0.001789
3346.000000	0.001791
3345.000000	0.001792
3344.000000	0.001792
3343.000000	0.001791
3342.000000	0.001791
3341.000000	0.001793
3340.000000	0.001797
3339.000000	0.001801
3338.000000	0.001803
3337.000000	0.001805
3336.000000	0.001807
3335.000000	0.001808
3334.000000	0.001810
3333.000000	0.001813
3332.000000	0.001815
3331.000000	0.001814
3330.000000	0.001811
3329.000000	0.001810
3328.000000	0.001812
3327.000000	0.001810
3326.000000	0.001805
3325.000000	0.001800
3324.000000	0.001799
3323.000000	0.001803
3322.000000	0.001810
3321.000000	0.001820
3320.000000	0.001828
3319.000000	0.001833
3318.000000	0.001835
3317.000000	0.001839
3316.000000	0.001844
3315.000000	0.001845
3314.000000	0.001842
3313.000000	0.001838
3312.000000	0.001837
3311.000000	0.001838
3310.000000	0.001840
3309.000000	0.001842
3308.000000	0.001844
3307.000000	0.001845
3306.000000	0.001847
3305.000000	0.001852
3304.000000	0.001858
3303.000000	0.001862
3302.000000	0.001866
3301.000000	0.001869
3300.000000	0.001870
3299.000000	0.001867
3298.000000	0.001862
3297.000000	0.001858
3296.000000	0.001858
3295.000000	0.001858
3294.000000	0.001857
3293.000000	0.001855
3292.000000	0.001854
3291.000000	0.001854
3290.000000	0.001854
3289.000000	0.001855
3288.000000	0.001855
3287.000000	0.001853
3286.000000	0.001852
3285.000000	0.001854
3284.000000	0.001854
3283.000000	0.001847
3282.000000	0.001837
3281.000000	0.001832
3280.000000	0.001835
3279.000000	0.001842
3278.000000	0.001850
3277.000000	0.001858
3276.000000	0.001863
3275.000000	0.001861
3274.000000	0.001851
3273.000000	0.001838
3272.000000	0.001828
3271.000000	0.001822
3270.000000	0.001819
3269.000000	0.001819
3268.000000	0.001818
3267.000000	0.001812
3266.000000	0.001804
3265.000000	0.001797
3264.000000	0.001794
3263.000000	0.001789
3262.000000	0.001783
3261.000000	0.001776
3260.000000	0.001769
3259.000000	0.001761
3258.000000	0.001754
3257.000000	0.001752
3256.000000	0.001752
3255.000000	0.001746
3254.000000	0.001734
3253.000000	0.001723
3252.000000	0.001719
3251.000000	0.001723
3250.000000	0.001730
3249.000000	0.001738
3248.000000	0.001745
3247.000000	0.001749
3246.000000	0.001747
3245.000000	0.001739
3244.000000	0.001725
3243.000000	0.001707
3242.000000	0.001689
3241.000000	0.001680
3240.000000	0.001677
3239.000000	0.001676
3238.000000	0.001670
3237.000000	0.001661
3236.000000	0.001651
3235.000000	0.001643
3234.000000	0.001640
3233.000000	0.001644
3232.000000	0.001649
3231.000000	0.001651
3230.000000	0.001646
3229.000000	0.001639
3228.000000	0.001628
3227.000000	0.001615
3226.000000	0.001604
3225.000000	0.001600
3224.000000	0.001601
3223.000000	0.001602
3222.000000	0.001599
3221.000000	0.001595
3220.000000	0.001589
3219.000000	0.001579
3218.000000	0.001568
3217.000000	0.001561
3216.000000	0.001558
3215.000000	0.001558
3214.000000	0.001558
3213.000000	0.001560
3212.000000	0.001562
3211.000000	0.001558
3210.000000	0.001547
3209.000000	0.001534
3208.000000	0.001522
3207.000000	0.001511
3206.000000	0.001503
3205.000000	0.001498
3204.000000	0.001496
3203.000000	0.001497
3202.000000	0.001501
3201.000000	0.001509
3200.000000	0.001518
3199.000000	0.001522
3198.000000	0.001518
3197.000000	0.001508
3196.000000	0.001492
3195.000000	0.001474
3194.000000	0.001459
3193.000000	0.001454
3192.000000	0.001455
3191.000000	0.001456
3190.000000	0.001450
3189.000000	0.001441
3188.000000	0.001432
3187.000000	0.001426
3186.000000	0.001423
3185.000000	0.001419
3184.000000	0.001412
3183.000000	0.001400
3182.000000	0.001389
3181.000000	0.001385
3180.000000	0.001391
3179.000000	0.001400
3178.000000	0.001406
3177.000000	0.001404
3176.000000	0.001394
3175.000000	0.001380
3174.000000	0.001368
3173.000000	0.001364
3172.000000	0.001362
3171.000000	0.001360
3170.000000	0.001355
3169.000000	0.001351
3168.000000	0.001348
3167.000000	0.001342
3166.000000	0.001335
3165.000000	0.001327
3164.000000	0.001317
3163.000000	0.001304
3162.000000	0.001291
3161.000000	0.001280
3160.000000	0.001274
3159.000000	0.001271
3158.000000	0.001272
3157.000000	0.001278
3156.000000	0.001281
3155.000000	0.001274
3154.000000	0.001256
3153.000000	0.001236
3152.000000	0.001220
3151.000000	0.001211
3150.000000	0.001206
3149.000000	0.001205
3148.000000	0.001205
3147.000000	0.001203
3146.000000	0.001201
3145.000000	0.001203
3144.000000	0.001209
3143.000000	0.001213
3142.000000	0.001211
3141.000000	0.001206
3140.000000	0.001197
3139.000000	0.001185
3138.000000	0.001174
3137.000000	0.001167
3136.000000	0.001166
3135.000000	0.001167
3134.000000	0.001169
3133.000000	0.001168
3132.000000	0.001163
3131.000000	0.001152
3130.000000	0.001139
3129.000000	0.001130
3128.000000	0.001126
3127.000000	0.001124
3126.000000	0.001123
3125.000000	0.001125
3124.000000	0.001131
3123.000000	0.001136
3122.000000	0.001135
3121.000000	0.001125
3120.000000	0.001109
3119.000000	0.001090
3118.000000	0.001073
3117.000000	0.001065
3116.000000	0.001066
3115.000000	0.001069
3114.000000	0.001068
3113.000000	0.001062
3112.000000	0.001055
3111.000000	0.001047
3110.000000	0.001040
3109.000000	0.001038
3108.000000	0.001042
3107.000000	0.001049
3106.000000	0.001053
3105.000000	0.001054
3104.000000	0.001052
3103.000000	0.001049
3102.000000	0.001046
3101.000000	0.001047
3100.000000	0.001049
3099.000000	0.001052
3098.000000	0.001052
3097.000000	0.001052
3096.000000	0.001050
3095.000000	0.001043
3094.000000	0.001036
3093.000000	0.001032
3092.000000	0.001034
3091.000000	0.001038
3090.000000	0.001041
3089.000000	0.001039
3088.000000	0.001031
3087.000000	0.001020
3086.000000	0.001008
3085.000000	0.001000
3084.000000	0.000995
3083.000000	0.000994
3082.000000	0.000994
3081.000000	0.000998
3080.000000	0.001003
3079.000000	0.001005
3078.000000	0.001003
3077.000000	0.000999
3076.000000	0.000992
3075.000000	0.000982
3074.000000	0.000971
3073.000000	0.000965
3072.000000	0.000966
3071.000000	0.000970
3070.000000	0.000972
3069.000000	0.000971
3068.000000	0.000969
3067.000000	0.000965
3066.000000	0.000960
3065.000000	0.000957
3064.000000	0.000953
3063.000000	0.000947
3062.000000	0.000942
3061.000000	0.000941
3060.000000	0.000947
3059.000000	0.000952
3058.000000	0.000953
3057.000000	0.000948
3056.000000	0.000938
3055.000000	0.000925
3054.000000	0.000909
3053.000000	0.000894
3052.000000	0.000886
3051.000000	0.000883
3050.000000	0.000885
3049.000000	0.000888
3048.000000	0.000888
3047.000000	0.000880
3046.000000	0.000867
3045.000000	0.000857
3044.000000	0.000852
3043.000000	0.000849
3042.000000	0.000844
3041.000000	0.000838
3040.000000	0.000834
3039.000000	0.000832
3038.000000	0.000829
3037.000000	0.000825
3036.000000	0.000820
3035.000000	0.000814
3034.000000	0.000808
3033.000000	0.000804
3032.000000	0.000803
3031.000000	0.000802
3030.000000	0.000799
3029.000000	0.000798
3028.000000	0.000796
3027.000000	0.000792
3026.000000	0.000783
3025.000000	0.000769
3024.000000	0.000754
3023.000000	0.000738
3022.000000	0.000727
3021.000000	0.000725
3020.000000	0.000731
3019.000000	0.000739
3018.000000	0.000743
3017.000000	0.000742
3016.000000	0.000738
3015.000000	0.000734
3014.000000	0.000732
3013.000000	0.000730
3012.000000	0.000725
3011.000000	0.000714
3010.000000	0.000702
3009.000000	0.000696
3008.000000	0.000695
3007.000000	0.000694
3006.000000	0.000688
3005.000000	0.000678
3004.000000	0.000672
3003.000000	0.000671
3002.000000	0.000675
3001.000000	0.000680
3000.000000	0.000682
2999.000000	0.000678
2998.000000	0.000671
2997.000000	0.000665
2996.000000	0.000664
2995.000000	0.000665
2994.000000	0.000664
2993.000000	0.000660
2992.000000	0.000656
2991.000000	0.000650
2990.000000	0.000644
2989.000000	0.000642
2988.000000	0.000643
2987.000000	0.000642
2986.000000	0.000637
2985.000000	0.000632
2984.000000	0.000631
2983.000000	0.000633
2982.000000	0.000636
2981.000000	0.000636
2980.000000	0.000631
2979.000000	0.000622
2978.000000	0.000610
2977.000000	0.000603
2976.000000	0.000600
2975.000000	0.000597
2974.000000	0.000592
2973.000000	0.000582
2972.000000	0.000568
2971.000000	0.000548
2970.000000	0.000523
2969.000000	0.000493
2968.000000	0.000462
2967.000000	0.000431
2966.000000	0.000397
2965.000000	0.000362
2964.000000	0.000323
2963.000000	0.000281
2962.000000	0.000236
2961.000000	0.000191
2960.000000	0.000150
2959.000000	0.000117
2958.000000	0.000098
2957.000000	0.000094
2956.000000	0.000106
2955.000000	0.000129
2954.000000	0.000157
2953.000000	0.000189
2952.000000	0.000222
2951.000000	0.000255
2950.000000	0.000283
2949.000000	0.000306
2948.000000	0.000321
2947.000000	0.000328
2946.000000	0.000329
2945.000000	0.000330
2944.000000	0.000333
2943.000000	0.000333
2942.000000	0.000322
2941.000000	0.000296
2940.000000	0.000256
2939.000000	0.000205
2938.000000	0.000148
2937.000000	0.000088
2936.000000	0.000025
2935.000000	-0.000045
2934.000000	-0.000126
2933.000000	-0.000221
2932.000000	-0.000327
2931.000000	-0.000446
2930.000000	-0.000581
2929.000000	-0.000737
2928.000000	-0.000923
2927.000000	-0.001143
2926.000000	-0.001396
2925.000000	-0.001679
2924.000000	-0.001997
2923.000000	-0.002356
2922.000000	-0.002760
2921.000000	-0.003204
2920.000000	-0.003670
2919.000000	-0.004125
2918.000000	-0.004507
2917.000000	-0.004730
2916.000000	-0.004716
2915.000000	-0.004435
2914.000000	-0.003930
2913.000000	-0.003304
2912.000000	-0.002671
2911.000000	-0.002120
2910.000000	-0.001686
2909.000000	-0.001362
2908.000000	-0.001125
2907.000000	-0.000952
2906.000000	-0.000825
2905.000000	-0.000731
2904.000000	-0.000661
2903.000000	-0.000607
2902.000000	-0.000563
2901.000000	-0.000521
2900.000000	-0.000478
2899.000000	-0.000435
2898.000000	-0.000397
2897.000000	-0.000364
2896.000000	-0.000335
2895.000000	-0.000309
2894.000000	-0.000282
2893.000000	-0.000255
2892.000000	-0.000229
2891.000000	-0.000204
2890.000000	-0.000179
2889.000000	-0.000149
2888.000000	-0.000116
2887.000000	-0.000085
2886.000000	-0.000056
2885.000000	-0.000026
2884.000000	0.000010
2883.000000	0.000047
2882.000000	0.000081
2881.000000	0.000105
2880.000000	0.000120
2879.000000	0.000128
2878.000000	0.000133
2877.000000	0.000135
2876.000000	0.000135
2875.000000	0.000131
2874.000000	0.000125
2873.000000	0.000124
2872.000000	0.000129
2871.000000	0.000136
2870.000000	0.000139
2869.000000	0.000135
2868.000000	0.000123
2867.000000	0.000103
2866.000000	0.000077
2865.000000	0.000050
2864.000000	0.000020
2863.000000	-0.000018
2862.000000	-0.000068
2861.000000	-0.000129
2860.000000	-0.000202
2859.000000	-0.000291
2858.000000	-0.000405
2857.000000	-0.000552
2856.000000	-0.000743
2855.000000	-0.000997
2854.000000	-0.001333
2853.000000	-0.001760
2852.000000	-0.002255
2851.000000	-0.002749
2850.000000	-0.003123
2849.000000	-0.003252
2848.000000	-0.003077
2847.000000	-0.002644
2846.000000	-0.002076
2845.000000	-0.001508
2844.000000	-0.001030
2843.000000	-0.000673
2842.000000	-0.000422
2841.000000	-0.000248
2840.000000	-0.000125
2839.000000	-0.000035
2838.000000	0.000034
2837.000000	0.000089
2836.000000	0.000136
2835.000000	0.000173
2834.000000	0.000198
2833.000000	0.000213
2832.000000	0.000226
2831.000000	0.000237
2830.000000	0.000247
2829.000000	0.000252
2828.000000	0.000253
2827.000000	0.000252
2826.000000	0.000253
2825.000000	0.000258
2824.000000	0.000267
2823.000000	0.000273
2822.000000	0.000275
2821.000000	0.000277
2820.000000	0.000281
2819.000000	0.000287
2818.000000	0.000290
2817.000000	0.000290
2816.000000	0.000288
2815.000000	0.000289
2814.000000	0.000292
2813.000000	0.000297
2812.000000	0.000301
2811.000000	0.000302
2810.000000	0.000300
2809.000000	0.000299
2808.000000	0.000304
2807.000000	0.000310
2806.000000	0.000314
2805.000000	0.000313
2804.000000	0.000311
2803.000000	0.000309
2802.000000	0.000311
2801.000000	0.000314
2800.000000	0.000314
2799.000000	0.000307
2798.000000	0.000296
2797.000000	0.000288
2796.000000	0.000291
2795.000000	0.000302
2794.000000	0.000317
2793.000000	0.000328
2792.000000	0.000330
2791.000000	0.000322
2790.000000	0.000310
2789.000000	0.000301
2788.000000	0.000297
2787.000000	0.000295
2786.000000	0.000294
2785.000000	0.000293
2784.000000	0.000295
2783.000000	0.000299
2782.000000	0.000304
2781.000000	0.000307
2780.000000	0.000307
2779.000000	0.000302
2778.000000	0.000295
2777.000000	0.000291
2776.000000	0.000292
2775.000000	0.000295
2774.000000	0.000295
2773.000000	0.000293
2772.000000	0.000294
2771.000000	0.000297
2770.000000	0.000296
2769.000000	0.000291
2768.000000	0.000284
2767.000000	0.000278
2766.000000	0.000276
2765.000000	0.000278
2764.000000	0.000283
2763.000000	0.000288
2762.000000	0.000289
2761.000000	0.000287
2760.000000	0.000283
2759.000000	0.000279
2758.000000	0.000276
2757.000000	0.000275
2756.000000	0.000277
2755.000000	0.000278
2754.000000	0.000275
2753.000000	0.000271
2752.000000	0.000269
2751.000000	0.000268
2750.000000	0.000266
2749.000000	0.000261
2748.000000	0.000253
2747.000000	0.000246
2746.000000	0.000244
2745.000000	0.000245
2744.000000	0.000251
2743.000000	0.000256
2742.000000	0.000259
2741.000000	0.000261
2740.000000	0.000260
2739.000000	0.000257
2738.000000	0.000256
2737.000000	0.000258
2736.000000	0.000263
2735.000000	0.000266
2734.000000	0.000264
2733.000000	0.000259
2732.000000	0.000256
2731.000000	0.000255
2730.000000	0.000256
2729.000000	0.000256
2728.000000	0.000258
2727.000000	0.000260
2726.000000	0.000260
2725.000000	0.000258
2724.000000	0.000253
2723.000000	0.000249
2722.000000	0.000249
2721.000000	0.000253
2720.000000	0.000259
2719.000000	0.000260
2718.000000	0.000256
2717.000000	0.000250
2716.000000	0.000245
2715.000000	0.000244
2714.000000	0.000246
2713.000000	0.000251
2712.000000	0.000257
2711.000000	0.000260
2710.000000	0.000260
2709.000000	0.000259
2708.000000	0.000259
2707.000000	0.000257
2706.000000	0.000253
2705.000000	0.000248
2704.000000	0.000246
2703.000000	0.000247
2702.000000	0.000248
2701.000000	0.000248
2700.000000	0.000248
2699.000000	0.000244
2698.000000	0.000236
2697.000000	0.000227
2696.000000	0.000222
2695.000000	0.000222
2694.000000	0.000227
2693.000000	0.000235
2692.000000	0.000244
2691.000000	0.000251
2690.000000	0.000252
2689.000000	0.000247
2688.000000	0.000238
2687.000000	0.000229
2686.000000	0.000225
2685.000000	0.000227
2684.000000	0.000233
2683.000000	0.000238
2682.000000	0.000237
2681.000000	0.000231
2680.000000	0.000224
2679.000000	0.000218
2678.000000	0.000216
2677.000000	0.000217
2676.000000	0.000217
2675.000000	0.000216
2674.000000	0.000213
2673.000000	0.000213
2672.000000	0.000215
2671.000000	0.000217
2670.000000	0.000213
2669.000000	0.000206
2668.000000	0.000201
2667.000000	0.000201
2666.000000	0.000205
2665.000000	0.000206
2664.000000	0.000203
2663.000000	0.000195
2662.000000	0.000185
2661.000000	0.000179
2660.000000	0.000177
2659.000000	0.000177
2658.000000	0.000175
2657.000000	0.000174
2656.000000	0.000172
2655.000000	0.000169
2654.000000	0.000163
2653.000000	0.000157
2652.000000	0.000157
2651.000000	0.000163
2650.000000	0.000172
2649.000000	0.000179
2648.000000	0.000182
2647.000000	0.000181
2646.000000	0.000177
2645.000000	0.000173
2644.000000	0.000170
2643.000000	0.000168
2642.000000	0.000163
2641.000000	0.000158
2640.000000	0.000152
2639.000000	0.000146
2638.000000	0.000142
2637.000000	0.000144
2636.000000	0.000156
2635.000000	0.000173
2634.000000	0.000187
2633.000000	0.000191
2632.000000	0.000188
2631.000000	0.000183
2630.000000	0.000182
2629.000000	0.000183
2628.000000	0.000182
2627.000000	0.000174
2626.000000	0.000161
2625.000000	0.000151
2624.000000	0.000153
2623.000000	0.000169
2622.000000	0.000190
2621.000000	0.000207
2620.000000	0.000212
2619.000000	0.000207
2618.000000	0.000199
2617.000000	0.000195
2616.000000	0.000196
2615.000000	0.000201
2614.000000	0.000204
2613.000000	0.000202
2612.000000	0.000195
2611.000000	0.000185
2610.000000	0.000177
2609.000000	0.000174
2608.000000	0.000175
2607.000000	0.000175
2606.000000	0.000174
2605.000000	0.000175
2604.000000	0.000180
2603.000000	0.000184
2602.000000	0.000183
2601.000000	0.000180
2600.000000	0.000180
2599.000000	0.000185
2598.000000	0.000189
2597.000000	0.000191
2596.000000	0.000190
2595.000000	0.000184
2594.000000	0.000175
2593.000000	0.000168
2592.000000	0.000166
2591.000000	0.000168
2590.000000	0.000171
2589.000000	0.000180
2588.000000	0.000194
2587.000000	0.000204
2586.000000	0.000201
2585.000000	0.000189
2584.000000	0.000178
2583.000000	0.000177
2582.000000	0.000184
2581.000000	0.000189
2580.000000	0.000187
2579.000000	0.000176
2578.000000	0.000164
2577.000000	0.000159
2576.000000	0.000164
2575.000000	0.000172
2574.000000	0.000176
2573.000000	0.000173
2572.000000	0.000166
2571.000000	0.000157
2570.000000	0.000153
2569.000000	0.000158
2568.000000	0.000172
2567.000000	0.000184
2566.000000	0.000182
2565.000000	0.000169
2564.000000	0.000155
2563.000000	0.000151
2562.000000	0.000161
2561.000000	0.000182
2560.000000	0.000207
2559.000000	0.000223
2558.000000	0.000226
2557.000000	0.000220
2556.000000	0.000213
2555.000000	0.000205
2554.000000	0.000195
2553.000000	0.000183
2552.000000	0.000174
2551.000000	0.000171
2550.000000	0.000175
2549.000000	0.000186
2548.000000	0.000204
2547.000000	0.000222
2546.000000	0.000233
2545.000000	0.000236
2544.000000	0.000235
2543.000000	0.000228
2542.000000	0.000209
2541.000000	0.000185
2540.000000	0.000164
2539.000000	0.000154
2538.000000	0.000155
2537.000000	0.000166
2536.000000	0.000185
2535.000000	0.000207
2534.000000	0.000220
2533.000000	0.000218
2532.000000	0.000205
2531.000000	0.000189
2530.000000	0.000176
2529.000000	0.000175
2528.000000	0.000191
2527.000000	0.000220
2526.000000	0.000246
2525.000000	0.000256
2524.000000	0.000253
2523.000000	0.000245
2522.000000	0.000240
2521.000000	0.000240
2520.000000	0.000246
2519.000000	0.000252
2518.000000	0.000254
2517.000000	0.000250
2516.000000	0.000239
2515.000000	0.000222
2514.000000	0.000202
2513.000000	0.000187
2512.000000	0.000180
2511.000000	0.000180
2510.000000	0.000182
2509.000000	0.000187
2508.000000	0.000195
2507.000000	0.000205
2506.000000	0.000214
2505.000000	0.000220
2504.000000	0.000224
2503.000000	0.000223
2502.000000	0.000217
2501.000000	0.000208
2500.000000	0.000201
2499.000000	0.000199
2498.000000	0.000201
2497.000000	0.000207
2496.000000	0.000211
2495.000000	0.000208
2494.000000	0.000195
2493.000000	0.000179
2492.000000	0.000169
2491.000000	0.000173
2490.000000	0.000188
2489.000000	0.000207
2488.000000	0.000223
2487.000000	0.000229
2486.000000	0.000221
2485.000000	0.000203
2484.000000	0.000186
2483.000000	0.000178
2482.000000	0.000180
2481.000000	0.000187
2480.000000	0.000194
2479.000000	0.000198
2478.000000	0.000197
2477.000000	0.000195
2476.000000	0.000193
2475.000000	0.000191
2474.000000	0.000189
2473.000000	0.000185
2472.000000	0.000184
2471.000000	0.000187
2470.000000	0.000194
2469.000000	0.000203
2468.000000	0.000213
2467.000000	0.000223
2466.000000	0.000229
2465.000000	0.000231
2464.000000	0.000228
2463.000000	0.000220
2462.000000	0.000207
2461.000000	0.000191
2460.000000	0.000172
2459.000000	0.000155
2458.000000	0.000146
2457.000000	0.000152
2456.000000	0.000171
2455.000000	0.000193
2454.000000	0.000208
2453.000000	0.000212
2452.000000	0.000204
2451.000000	0.000186
2450.000000	0.000165
2449.000000	0.000151
2448.000000	0.000151
2447.000000	0.000160
2446.000000	0.000171
2445.000000	0.000179
2444.000000	0.000185
2443.000000	0.000188
2442.000000	0.000188
2441.000000	0.000187
2440.000000	0.000184
2439.000000	0.000181
2438.000000	0.000176
2437.000000	0.000175
2436.000000	0.000180
2435.000000	0.000185
2434.000000	0.000184
2433.000000	0.000184
2432.000000	0.000192
2431.000000	0.000205
2430.000000	0.000212
2429.000000	0.000206
2428.000000	0.000195
2427.000000	0.000190
2426.000000	0.000196
2425.000000	0.000207
2424.000000	0.000217
2423.000000	0.000219
2422.000000	0.000212
2421.000000	0.000201
2420.000000	0.000193
2419.000000	0.000189
2418.000000	0.000186
2417.000000	0.000182
2416.000000	0.000180
2415.000000	0.000179
2414.000000	0.000179
2413.000000	0.000179
2412.000000	0.000184
2411.000000	0.000192
2410.000000	0.000197
2409.000000	0.000197
2408.000000	0.000194
2407.000000	0.000191
2406.000000	0.000192
2405.000000	0.000195
2404.000000	0.000202
2403.000000	0.000208
2402.000000	0.000212
2401.000000	0.000212
2400.000000	0.000211
2399.000000	0.000206
2398.000000	0.000196
2397.000000	0.000186
2396.000000	0.000182
2395.000000	0.000187
2394.000000	0.000194
2393.000000	0.000202
2392.000000	0.000210
2391.000000	0.000217
2390.000000	0.000218
2389.000000	0.000216
2388.000000	0.000217
2387.000000	0.000225
2386.000000	0.000233
2385.000000	0.000234
2384.000000	0.000229
2383.000000	0.000224
2382.000000	0.000227
2381.000000	0.000237
2380.000000	0.000250
2379.000000	0.000256
2378.000000	0.000250
2377.000000	0.000237
2376.000000	0.000227
2375.000000	0.000227
2374.000000	0.000235
2373.000000	0.000248
2372.000000	0.000258
2371.000000	0.000261
2370.000000	0.000258
2369.000000	0.000253
2368.000000	0.000252
2367.000000	0.000250
2366.000000	0.000241
2365.000000	0.000231
2364.000000	0.000226
2363.000000	0.000224
2362.000000	0.000217
2361.000000	0.000206
2360.000000	0.000203
2359.000000	0.000212
2358.000000	0.000225
2357.000000	0.000231
2356.000000	0.000229
2355.000000	0.000221
2354.000000	0.000213
2353.000000	0.000211
2352.000000	0.000220
2351.000000	0.000229
2350.000000	0.000224
2349.000000	0.000197
2348.000000	0.000162
2347.000000	0.000140
2346.000000	0.000143
2345.000000	0.000166
2344.000000	0.000194
2343.000000	0.000213
2342.000000	0.000217
2341.000000	0.000209
2340.000000	0.000199
2339.000000	0.000195
2338.000000	0.000196
2337.000000	0.000198
2336.000000	0.000196
2335.000000	0.000191
2334.000000	0.000187
2333.000000	0.000185
2332.000000	0.000183
2331.000000	0.000177
2330.000000	0.000168
2329.000000	0.000164
2328.000000	0.000168
2327.000000	0.000178
2326.000000	0.000186
2325.000000	0.000189
2324.000000	0.000188
2323.000000	0.000184
2322.000000	0.000178
2321.000000	0.000174
2320.000000	0.000179
2319.000000	0.000192
2318.000000	0.000206
2317.000000	0.000213
2316.000000	0.000211
2315.000000	0.000206
2314.000000	0.000207
2313.000000	0.000219
2312.000000	0.000239
2311.000000	0.000254
2310.000000	0.000254
2309.000000	0.000244
2308.000000	0.000240
2307.000000	0.000247
2306.000000	0.000258
2305.000000	0.000263
2304.000000	0.000259
2303.000000	0.000249
2302.000000	0.000234
2301.000000	0.000220
2300.000000	0.000214
2299.000000	0.000219
2298.000000	0.000230
2297.000000	0.000236
2296.000000	0.000234
2295.000000	0.000226
2294.000000	0.000217
2293.000000	0.000212
2292.000000	0.000217
2291.000000	0.000227
2290.000000	0.000227
2289.000000	0.000210
2288.000000	0.000184
2287.000000	0.000161
2286.000000	0.000150
2285.000000	0.000148
2284.000000	0.000152
2283.000000	0.000160
2282.000000	0.000168
2281.000000	0.000178
2280.000000	0.000195
2279.000000	0.000218
2278.000000	0.000241
2277.000000	0.000256
2276.000000	0.000260
2275.000000	0.000252
2274.000000	0.000238
2273.000000	0.000224
2272.000000	0.000221
2271.000000	0.000232
2270.000000	0.000251
2269.000000	0.000269
2268.000000	0.000282
2267.000000	0.000285
2266.000000	0.000279
2265.000000	0.000271
2264.000000	0.000270
2263.000000	0.000275
2262.000000	0.000274
2261.000000	0.000261
2260.000000	0.000240
2259.000000	0.000217
2258.000000	0.000200
2257.000000	0.000193
2256.000000	0.000203
2255.000000	0.000223
2254.000000	0.000236
2253.000000	0.000233
2252.000000	0.000228
2251.000000	0.000234
2250.000000	0.000247
2249.000000	0.000255
2248.000000	0.000256
2247.000000	0.000250
2246.000000	0.000233
2245.000000	0.000203
2244.000000	0.000169
2243.000000	0.000146
2242.000000	0.000138
2241.000000	0.000147
2240.000000	0.000172
2239.000000	0.000203
2238.000000	0.000227
2237.000000	0.000241
2236.000000	0.000258
2235.000000	0.000279
2234.000000	0.000289
2233.000000	0.000281
2232.000000	0.000271
2231.000000	0.000272
2230.000000	0.000274
2229.000000	0.000263
2228.000000	0.000241
2227.000000	0.000226
2226.000000	0.000222
2225.000000	0.000225
2224.000000	0.000233
2223.000000	0.000246
2222.000000	0.000251
2221.000000	0.000240
2220.000000	0.000222
2219.000000	0.000219
2218.000000	0.000242
2217.000000	0.000287
2216.000000	0.000344
2215.000000	0.000388
2214.000000	0.000391
2213.000000	0.000351
2212.000000	0.000304
2211.000000	0.000289
2210.000000	0.000301
2209.000000	0.000307
2208.000000	0.000295
2207.000000	0.000276
2206.000000	0.000263
2205.000000	0.000255
2204.000000	0.000251
2203.000000	0.000255
2202.000000	0.000257
2201.000000	0.000253
2200.000000	0.000247
2199.000000	0.000249
2198.000000	0.000259
2197.000000	0.000276
2196.000000	0.000308
2195.000000	0.000352
2194.000000	0.000381
2193.000000	0.000365
2192.000000	0.000318
2191.000000	0.000282
2190.000000	0.000288
2189.000000	0.000335
2188.000000	0.000397
2187.000000	0.000435
2186.000000	0.000409
2185.000000	0.000326
2184.000000	0.000249
2183.000000	0.000235
2182.000000	0.000273
2181.000000	0.000302
2180.000000	0.000296
2179.000000	0.000274
2178.000000	0.000257
2177.000000	0.000251
2176.000000	0.000259
2175.000000	0.000283
2174.000000	0.000308
2173.000000	0.000313
2172.000000	0.000293
2171.000000	0.000264
2170.000000	0.000234
2169.000000	0.000205
2168.000000	0.000189
2167.000000	0.000209
2166.000000	0.000262
2165.000000	0.000324
2164.000000	0.000365
2163.000000	0.000364
2162.000000	0.000306
2161.000000	0.000206
2160.000000	0.000118
2159.000000	0.000092
2158.000000	0.000127
2157.000000	0.000198
2156.000000	0.000288
2155.000000	0.000372
2154.000000	0.000413
2153.000000	0.000400
2152.000000	0.000373
2151.000000	0.000369
2150.000000	0.000378
2149.000000	0.000377
2148.000000	0.000379
2147.000000	0.000409
2146.000000	0.000456
2145.000000	0.000481
2144.000000	0.000470
2143.000000	0.000444
2142.000000	0.000427
2141.000000	0.000429
2140.000000	0.000447
2139.000000	0.000466
2138.000000	0.000463
2137.000000	0.000431
2136.000000	0.000389
2135.000000	0.000360
2134.000000	0.000344
2133.000000	0.000329
2132.000000	0.000306
2131.000000	0.000273
2130.000000	0.000237
2129.000000	0.000209
2128.000000	0.000203
2127.000000	0.000215
2126.000000	0.000230
2125.000000	0.000234
2124.000000	0.000235
2123.000000	0.000242
2122.000000	0.000254
2121.000000	0.000265
2120.000000	0.000274
2119.000000	0.000279
2118.000000	0.000270
2117.000000	0.000243
2116.000000	0.000205
2115.000000	0.000171
2114.000000	0.000152
2113.000000	0.000152
2112.000000	0.000169
2111.000000	0.000186
2110.000000	0.000185
2109.000000	0.000173
2108.000000	0.000177
2107.000000	0.000209
2106.000000	0.000245
2105.000000	0.000260
2104.000000	0.000256
2103.000000	0.000243
2102.000000	0.000221
2101.000000	0.000193
2100.000000	0.000176
2099.000000	0.000181
2098.000000	0.000187
2097.000000	0.000174
2096.000000	0.000148
2095.000000	0.000136
2094.000000	0.000143
2093.000000	0.000154
2092.000000	0.000157
2091.000000	0.000157
2090.000000	0.000158
2089.000000	0.000168
2088.000000	0.000191
2087.000000	0.000224
2086.000000	0.000247
2085.000000	0.000249
2084.000000	0.000236
2083.000000	0.000220
2082.000000	0.000200
2081.000000	0.000179
2080.000000	0.000175
2079.000000	0.000197
2078.000000	0.000224
2077.000000	0.000224
2076.000000	0.000199
2075.000000	0.000175
2074.000000	0.000170
2073.000000	0.000182
2072.000000	0.000202
2071.000000	0.000222
2070.000000	0.000235
2069.000000	0.000240
2068.000000	0.000245
2067.000000	0.000243
2066.000000	0.000220
2065.000000	0.000183
2064.000000	0.000164
2063.000000	0.000178
2062.000000	0.000198
2061.000000	0.000205
2060.000000	0.000216
2059.000000	0.000251
2058.000000	0.000281
2057.000000	0.000273
2056.000000	0.000236
2055.000000	0.000204
2054.000000	0.000179
2053.000000	0.000144
2052.000000	0.000112
2051.000000	0.000118
2050.000000	0.000155
2049.000000	0.000182
2048.000000	0.000184
2047.000000	0.000183
2046.000000	0.000192
2045.000000	0.000207
2044.000000	0.000236
2043.000000	0.000287
2042.000000	0.000325
2041.000000	0.000300
2040.000000	0.000222
2039.000000	0.000148
2038.000000	0.000109
2037.000000	0.000092
2036.000000	0.000097
2035.000000	0.000130
2034.000000	0.000158
2033.000000	0.000138
2032.000000	0.000095
2031.000000	0.000092
2030.000000	0.000135
2029.000000	0.000163
2028.000000	0.000141
2027.000000	0.000085
2026.000000	0.000023
2025.000000	-0.000017
2024.000000	0.000009
2023.000000	0.000109
2022.000000	0.000214
2021.000000	0.000238
2020.000000	0.000182
2019.000000	0.000118
2018.000000	0.000086
2017.000000	0.000082
2016.000000	0.000118
2015.000000	0.000216
2014.000000	0.000336
2013.000000	0.000397
2012.000000	0.000371
2011.000000	0.000297
2010.000000	0.000210
2009.000000	0.000128
2008.000000	0.000078
2007.000000	0.000089
2006.000000	0.000137
2005.000000	0.000172
2004.000000	0.000185
2003.000000	0.000200
2002.000000	0.000214
2001.000000	0.000204
2000.000000	0.000172
1999.000000	0.000151
1998.000000	0.000152
1997.000000	0.000164
1996.000000	0.000183
1995.000000	0.000199
1994.000000	0.000185
1993.000000	0.000124
1992.000000	0.000051
1991.000000	0.000019
1990.000000	0.000026
1989.000000	0.000039
1988.000000	0.000060
1987.000000	0.000097
1986.000000	0.000127
1985.000000	0.000117
1984.000000	0.000087
1983.000000	0.000088
1982.000000	0.000121
1981.000000	0.000147
1980.000000	0.000158
1979.000000	0.000173
1978.000000	0.000180
1977.000000	0.000149
1976.000000	0.000110
1975.000000	0.000110
1974.000000	0.000138
1973.000000	0.000151
1972.000000	0.000159
1971.000000	0.000205
1970.000000	0.000273
1969.000000	0.000296
1968.000000	0.000258
1967.000000	0.000206
1966.000000	0.000176
1965.000000	0.000159
1964.000000	0.000153
1963.000000	0.000172
1962.000000	0.000216
1961.000000	0.000256
1960.000000	0.000274
1959.000000	0.000260
1958.000000	0.000204
1957.000000	0.000121
1956.000000	0.000062
1955.000000	0.000062
1954.000000	0.000092
1953.000000	0.000100
1952.000000	0.000089
1951.000000	0.000104
1950.000000	0.000156
1949.000000	0.000206
1948.000000	0.000225
1947.000000	0.000217
1946.000000	0.000191
1945.000000	0.000149
1944.000000	0.000108
1943.000000	0.000091
1942.000000	0.000096
1941.000000	0.000107
1940.000000	0.000123
1939.000000	0.000149
1938.000000	0.000172
1937.000000	0.000172
1936.000000	0.000150
1935.000000	0.000121
1934.000000	0.000092
1933.000000	0.000070
1932.000000	0.000072
1931.000000	0.000103
1930.000000	0.000141
1929.000000	0.000158
1928.000000	0.000160
1927.000000	0.000168
1926.000000	0.000177
1925.000000	0.000171
1924.000000	0.000158
1923.000000	0.000159
1922.000000	0.000173
1921.000000	0.000180
1920.000000	0.000172
1919.000000	0.000159
1918.000000	0.000138
1917.000000	0.000110
1916.000000	0.000093
1915.000000	0.000102
1914.000000	0.000119
1913.000000	0.000114
1912.000000	0.000089
1911.000000	0.000072
1910.000000	0.000069
1909.000000	0.000071
1908.000000	0.000081
1907.000000	0.000107
1906.000000	0.000131
1905.000000	0.000130
1904.000000	0.000116
1903.000000	0.000116
1902.000000	0.000130
1901.000000	0.000132
1900.000000	0.000111
1899.000000	0.000085
1898.000000	0.000061
1897.000000	0.000035
1896.000000	0.000013
1895.000000	0.000010
1894.000000	0.000025
1893.000000	0.000040
1892.000000	0.000049
1891.000000	0.000060
1890.000000	0.000070
1889.000000	0.000071
1888.000000	0.000074
1887.000000	0.000089
1886.000000	0.000101
1885.000000	0.000094
1884.000000	0.000079
1883.000000	0.000080
1882.000000	0.000094
1881.000000	0.000097
1880.000000	0.000088
1879.000000	0.000082
1878.000000	0.000080
1877.000000	0.000068
1876.000000	0.000051
1875.000000	0.000047
1874.000000	0.000059
1873.000000	0.000077
1872.000000	0.000098
1871.000000	0.000124
1870.000000	0.000140
1869.000000	0.000123
1868.000000	0.000089
1867.000000	0.000074
1866.000000	0.000075
1865.000000	0.000069
1864.000000	0.000056
1863.000000	0.000057
1862.000000	0.000071
1861.000000	0.000077
1860.000000	0.000065
1859.000000	0.000050
1858.000000	0.000041
1857.000000	0.000035
1856.000000	0.000034
1855.000000	0.000047
1854.000000	0.000064
1853.000000	0.000067
1852.000000	0.000058
1851.000000	0.000057
1850.000000	0.000065
1849.000000	0.000075
1848.000000	0.000090
1847.000000	0.000116
1846.000000	0.000132
1845.000000	0.000113
1844.000000	0.000076
1843.000000	0.000064
1842.000000	0.000080
1841.000000	0.000094
1840.000000	0.000096
1839.000000	0.000091
1838.000000	0.000081
1837.000000	0.000067
1836.000000	0.000060
1835.000000	0.000073
1834.000000	0.000099
1833.000000	0.000115
1832.000000	0.000107
1831.000000	0.000080
1830.000000	0.000049
1829.000000	0.000025
1828.000000	0.000017
1827.000000	0.000026
1826.000000	0.000035
1825.000000	0.000028
1824.000000	0.000017
1823.000000	0.000026
1822.000000	0.000053
1821.000000	0.000074
1820.000000	0.000078
1819.000000	0.000075
1818.000000	0.000069
1817.000000	0.000053
1816.000000	0.000030
1815.000000	0.000018
1814.000000	0.000020
1813.000000	0.000021
1812.000000	0.000011
1811.000000	0.000006
1810.000000	0.000016
1809.000000	0.000023
1808.000000	0.000017
1807.000000	0.000010
1806.000000	0.000011
1805.000000	0.000012
1804.000000	0.000010
1803.000000	0.000014
1802.000000	0.000023
1801.000000	0.000017
1800.000000	0.000001
1799.000000	0.000003
1798.000000	0.000033
1797.000000	0.000066
1796.000000	0.000089
1795.000000	0.000109
1794.000000	0.000123
1793.000000	0.000109
1792.000000	0.000069
1791.000000	0.000044
1790.000000	0.000047
1789.000000	0.000053
1788.000000	0.000048
1787.000000	0.000041
1786.000000	0.000042
1785.000000	0.000044
1784.000000	0.000042
1783.000000	0.000040
1782.000000	0.000039
1781.000000	0.000030
1780.000000	0.000020
1779.000000	0.000025
1778.000000	0.000042
1777.000000	0.000056
1776.000000	0.000068
1775.000000	0.000093
1774.000000	0.000117
1773.000000	0.000106
1772.000000	0.000058
1771.000000	0.000022
1770.000000	0.000023
1769.000000	0.000044
1768.000000	0.000059
1767.000000	0.000066
1766.000000	0.000075
1765.000000	0.000081
1764.000000	0.000075
1763.000000	0.000051
1762.000000	0.000025
1761.000000	0.000016
1760.000000	0.000027
1759.000000	0.000051
1758.000000	0.000072
1757.000000	0.000078
1756.000000	0.000077
1755.000000	0.000090
1754.000000	0.000123
1753.000000	0.000162
1752.000000	0.000188
1751.000000	0.000193
1750.000000	0.000178
1749.000000	0.000158
1748.000000	0.000142
1747.000000	0.000135
1746.000000	0.000135
1745.000000	0.000132
1744.000000	0.000124
1743.000000	0.000115
1742.000000	0.000116
1741.000000	0.000124
1740.000000	0.000130
1739.000000	0.000136
1738.000000	0.000157
1737.000000	0.000201
1736.000000	0.000253
1735.000000	0.000278
1734.000000	0.000259
1733.000000	0.000221
1732.000000	0.000203
1731.000000	0.000207
1730.000000	0.000207
1729.000000	0.000189
1728.000000	0.000169
1727.000000	0.000163
1726.000000	0.000169
1725.000000	0.000177
1724.000000	0.000184
1723.000000	0.000193
1722.000000	0.000206
1721.000000	0.000221
1720.000000	0.000232
1719.000000	0.000240
1718.000000	0.000256
1717.000000	0.000269
1716.000000	0.000267
1715.000000	0.000269
1714.000000	0.000278
1713.000000	0.000282
1712.000000	0.000288
1711.000000	0.000309
1710.000000	0.000339
1709.000000	0.000358
1708.000000	0.000357
1707.000000	0.000350
1706.000000	0.000345
1705.000000	0.000344
1704.000000	0.000364
1703.000000	0.000429
1702.000000	0.000526
1701.000000	0.000588
1700.000000	0.000586
1699.000000	0.000588
1698.000000	0.000630
1697.000000	0.000666
1696.000000	0.000666
1695.000000	0.000668
1694.000000	0.000700
1693.000000	0.000744
1692.000000	0.000785
1691.000000	0.000823
1690.000000	0.000861
1689.000000	0.000893
1688.000000	0.000918
1687.000000	0.000949
1686.000000	0.000980
1685.000000	0.000991
1684.000000	0.001004
1683.000000	0.001058
1682.000000	0.001124
1681.000000	0.001175
1680.000000	0.001212
1679.000000	0.001249
1678.000000	0.001292
1677.000000	0.001334
1676.000000	0.001376
1675.000000	0.001422
1674.000000	0.001460
1673.000000	0.001484
1672.000000	0.001510
1671.000000	0.001550
1670.000000	0.001592
1669.000000	0.001616
1668.000000	0.001628
1667.000000	0.001646
1666.000000	0.001676
1665.000000	0.001710
1664.000000	0.001742
1663.000000	0.001780
1662.000000	0.001822
1661.000000	0.001849
1660.000000	0.001873
1659.000000	0.001902
1658.000000	0.001921
1657.000000	0.001917
1656.000000	0.001905
1655.000000	0.001907
1654.000000	0.001938
1653.000000	0.002002
1652.000000	0.002050
1651.000000	0.002048
1650.000000	0.002051
1649.000000	0.002061
1648.000000	0.002085
1647.000000	0.002138
1646.000000	0.002192
1645.000000	0.002196
1644.000000	0.002168
1643.000000	0.002151
1642.000000	0.002153
1641.000000	0.002150
1640.000000	0.002133
1639.000000	0.002121
1638.000000	0.002121
1637.000000	0.002123
1636.000000	0.002123
1635.000000	0.002128
1634.000000	0.002115
1633.000000	0.002079
1632.000000	0.002045
1631.000000	0.002027
1630.000000	0.002013
1629.000000	0.001989
1628.000000	0.001960
1627.000000	0.001943
1626.000000	0.001933
1625.000000	0.001915
1624.000000	0.001896
1623.000000	0.001894
1622.000000	0.001890
1621.000000	0.001861
1620.000000	0.001823
1619.000000	0.001798
1618.000000	0.001784
1617.000000	0.001763
1616.000000	0.001737
1615.000000	0.001718
1614.000000	0.001700
1613.000000	0.001678
1612.000000	0.001657
1611.000000	0.001650
1610.000000	0.001649
1609.000000	0.001637
1608.000000	0.001624
1607.000000	0.001626
1606.000000	0.001632
1605.000000	0.001621
1604.000000	0.001601
1603.000000	0.001595
1602.000000	0.001599
1601.000000	0.001599
1600.000000	0.001599
1599.000000	0.001609
1598.000000	0.001620
1597.000000	0.001620
1596.000000	0.001618
1595.000000	0.001628
1594.000000	0.001637
1593.000000	0.001623
1592.000000	0.001599
1591.000000	0.001590
1590.000000	0.001592
1589.000000	0.001586
1588.000000	0.001575
1587.000000	0.001576
1586.000000	0.001581
1585.000000	0.001575
1584.000000	0.001565
1583.000000	0.001573
1582.000000	0.001592
1581.000000	0.001598
1580.000000	0.001598
1579.000000	0.001610
1578.000000	0.001627
1577.000000	0.001634
1576.000000	0.001645
1575.000000	0.001670
1574.000000	0.001688
1573.000000	0.001692
1572.000000	0.001696
1571.000000	0.001718
1570.000000	0.001754
1569.000000	0.001783
1568.000000	0.001796
1567.000000	0.001803
1566.000000	0.001808
1565.000000	0.001804
1564.000000	0.001797
1563.000000	0.001799
1562.000000	0.001797
1561.000000	0.001768
1560.000000	0.001739
1559.000000	0.001830
1558.000000	0.001954
1557.000000	0.001979
1556.000000	0.001964
1555.000000	0.001968
1554.000000	0.001982
1553.000000	0.001974
1552.000000	0.001955
1551.000000	0.001954
1550.000000	0.001971
1549.000000	0.001980
1548.000000	0.001973
1547.000000	0.001967
1546.000000	0.001972
1545.000000	0.001970
1544.000000	0.001960
1543.000000	0.001962
1542.000000	0.001982
1541.000000	0.001979
1540.000000	0.001941
1539.000000	0.001909
1538.000000	0.001877
1537.000000	0.001831
1536.000000	0.001788
1535.000000	0.001765
1534.000000	0.001761
1533.000000	0.001750
1532.000000	0.001723
1531.000000	0.001705
1530.000000	0.001699
1529.000000	0.001681
1528.000000	0.001651
1527.000000	0.001641
1526.000000	0.001656
1525.000000	0.001656
1524.000000	0.001626
1523.000000	0.001600
1522.000000	0.001599
1521.000000	0.001588
1520.000000	0.001553
1519.000000	0.001530
1518.000000	0.001531
1517.000000	0.001531
1516.000000	0.001515
1515.000000	0.001500
1514.000000	0.001492
1513.000000	0.001470
1512.000000	0.001430
1511.000000	0.001393
1510.000000	0.001383
1509.000000	0.001387
1508.000000	0.001368
1507.000000	0.001313
1506.000000	0.001259
1505.000000	0.001207
1504.000000	0.001150
1503.000000	0.001120
1502.000000	0.001109
1501.000000	0.001090
1500.000000	0.001052
1499.000000	0.001016
1498.000000	0.001002
1497.000000	0.000992
1496.000000	0.000963
1495.000000	0.000937
1494.000000	0.000937
1493.000000	0.000947
1492.000000	0.000949
1491.000000	0.000946
1490.000000	0.000939
1489.000000	0.000902
1488.000000	0.000841
1487.000000	0.000803
1486.000000	0.000793
1485.000000	0.000780
1484.000000	0.000763
1483.000000	0.000761
1482.000000	0.000780
1481.000000	0.000796
1480.000000	0.000796
1479.000000	0.000792
1478.000000	0.000782
1477.000000	0.000743
1476.000000	0.000670
1475.000000	0.000601
1474.000000	0.000563
1473.000000	0.000546
1472.000000	0.000545
1471.000000	0.000576
1470.000000	0.000618
1469.000000	0.000637
1468.000000	0.000624
1467.000000	0.000600
1466.000000	0.000574
1465.000000	0.000532
1464.000000	0.000489
1463.000000	0.000495
1462.000000	0.000560
1461.000000	0.000644
1460.000000	0.000715
1459.000000	0.000781
1458.000000	0.000870
1457.000000	0.000955
1456.000000	0.000980
1455.000000	0.000972
1454.000000	0.000972
1453.000000	0.000973
1452.000000	0.000966
1451.000000	0.000964
1450.000000	0.000977
1449.000000	0.000989
1448.000000	0.000991
1447.000000	0.000998
1446.000000	0.001016
1445.000000	0.001025
1444.000000	0.001021
1443.000000	0.001021
1442.000000	0.001031
1441.000000	0.001035
1440.000000	0.001030
1439.000000	0.001032
1438.000000	0.001050
1437.000000	0.001072
1436.000000	0.001076
1435.000000	0.001072
1434.000000	0.001072
1433.000000	0.001069
1432.000000	0.001059
1431.000000	0.001058
1430.000000	0.001080
1429.000000	0.001112
1428.000000	0.001134
1427.000000	0.001148
1426.000000	0.001162
1425.000000	0.001175
1424.000000	0.001190
1423.000000	0.001211
1422.000000	0.001234
1421.000000	0.001252
1420.000000	0.001262
1419.000000	0.001277
1418.000000	0.001298
1417.000000	0.001308
1416.000000	0.001307
1415.000000	0.001309
1414.000000	0.001320
1413.000000	0.001332
1412.000000	0.001341
1411.000000	0.001355
1410.000000	0.001373
1409.000000	0.001385
1408.000000	0.001389
1407.000000	0.001396
1406.000000	0.001417
1405.000000	0.001441
1404.000000	0.001457
1403.000000	0.001469
1402.000000	0.001479
1401.000000	0.001480
1400.000000	0.001479
1399.000000	0.001491
1398.000000	0.001511
1397.000000	0.001516
1396.000000	0.001501
1395.000000	0.001488
1394.000000	0.001490
1393.000000	0.001491
1392.000000	0.001481
1391.000000	0.001469
1390.000000	0.001458
1389.000000	0.001440
1388.000000	0.001417
1387.000000	0.001403
1386.000000	0.001396
1385.000000	0.001376
1384.000000	0.001346
1383.000000	0.001327
1382.000000	0.001322
1381.000000	0.001310
1380.000000	0.001288
1379.000000	0.001274
1378.000000	0.001267
1377.000000	0.001245
1376.000000	0.001208
1375.000000	0.001186
1374.000000	0.001191
1373.000000	0.001196
1372.000000	0.001192
1371.000000	0.001194
1370.000000	0.001201
1369.000000	0.001193
1368.000000	0.001170
1367.000000	0.001153
1366.000000	0.001147
1365.000000	0.001130
1364.000000	0.001101
1363.000000	0.001086
1362.000000	0.001092
1361.000000	0.001093
1360.000000	0.001088
1359.000000	0.001098
1358.000000	0.001118
1357.000000	0.001124
1356.000000	0.001115
1355.000000	0.001116
1354.000000	0.001132
1353.000000	0.001138
1352.000000	0.001129
1351.000000	0.001131
1350.000000	0.001145
1349.000000	0.001146
1348.000000	0.001133
1347.000000	0.001131
1346.000000	0.001142
1345.000000	0.001142
1344.000000	0.001129
1343.000000	0.001128
1342.000000	0.001144
1341.000000	0.001153
1340.000000	0.001148
1339.000000	0.001147
1338.000000	0.001152
1337.000000	0.001141
1336.000000	0.001115
1335.000000	0.001100
1334.000000	0.001100
1333.000000	0.001093
1332.000000	0.001074
1331.000000	0.001062
1330.000000	0.001060
1329.000000	0.001047
1328.000000	0.001028
1327.000000	0.001025
1326.000000	0.001037
1325.000000	0.001034
1324.000000	0.001016
1323.000000	0.001008
1322.000000	0.001017
1321.000000	0.001021
1320.000000	0.001015
1319.000000	0.001019
1318.000000	0.001032
1317.000000	0.001031
1316.000000	0.001013
1315.000000	0.001006
1314.000000	0.001015
1313.000000	0.001015
1312.000000	0.001002
1311.000000	0.000996
1310.000000	0.000998
1309.000000	0.000985
1308.000000	0.000958
1307.000000	0.000945
1306.000000	0.000950
1305.000000	0.000946
1304.000000	0.000929
1303.000000	0.000921
1302.000000	0.000926
1301.000000	0.000923
1300.000000	0.000909
1299.000000	0.000908
1298.000000	0.000919
1297.000000	0.000917
1296.000000	0.000897
1295.000000	0.000888
1294.000000	0.000896
1293.000000	0.000899
1292.000000	0.000890
1291.000000	0.000892
1290.000000	0.000909
1289.000000	0.000912
1288.000000	0.000898
1287.000000	0.000894
1286.000000	0.000907
1285.000000	0.000911
1284.000000	0.000898
1283.000000	0.000896
1282.000000	0.000911
1281.000000	0.000918
1280.000000	0.000910
1279.000000	0.000907
1278.000000	0.000916
1277.000000	0.000916
1276.000000	0.000904
1275.000000	0.000905
1274.000000	0.000922
1273.000000	0.000928
1272.000000	0.000918
1271.000000	0.000917
1270.000000	0.000931
1269.000000	0.000932
1268.000000	0.000918
1267.000000	0.000915
1266.000000	0.000928
1265.000000	0.000929
1264.000000	0.000916
1263.000000	0.000918
1262.000000	0.000939
1261.000000	0.000949
1260.000000	0.000946
1259.000000	0.000960
1258.000000	0.000995
1257.000000	0.001017
1256.000000	0.001015
1255.000000	0.001019
1254.000000	0.001038
1253.000000	0.001046
1252.000000	0.001039
1251.000000	0.001046
1250.000000	0.001074
1249.000000	0.001091
1248.000000	0.001090
1247.000000	0.001101
1246.000000	0.001129
1245.000000	0.001145
1244.000000	0.001139
1243.000000	0.001141
1242.000000	0.001160
1241.000000	0.001172
1240.000000	0.001170
1239.000000	0.001182
1238.000000	0.001212
1237.000000	0.001229
1236.000000	0.001224
1235.000000	0.001229
1234.000000	0.001254
1233.000000	0.001270
1232.000000	0.001269
1231.000000	0.001279
1230.000000	0.001305
1229.000000	0.001319
1228.000000	0.001318
1227.000000	0.001331
1226.000000	0.001362
1225.000000	0.001379
1224.000000	0.001374
1223.000000	0.001376
1222.000000	0.001393
1221.000000	0.001395
1220.000000	0.001375
1219.000000	0.001368
1218.000000	0.001378
1217.000000	0.001374
1216.000000	0.001350
1215.000000	0.001343
1214.000000	0.001362
1213.000000	0.001371
1212.000000	0.001358
1211.000000	0.001355
1210.000000	0.001373
1209.000000	0.001382
1208.000000	0.001371
1207.000000	0.001369
1206.000000	0.001382
1205.000000	0.001377
1204.000000	0.001351
1203.000000	0.001340
1202.000000	0.001354
1201.000000	0.001357
1200.000000	0.001338
1199.000000	0.001333
1198.000000	0.001354
1197.000000	0.001368
1196.000000	0.001359
1195.000000	0.001356
1194.000000	0.001369
1193.000000	0.001366
1192.000000	0.001342
1191.000000	0.001334
1190.000000	0.001352
1189.000000	0.001358
1188.000000	0.001336
1187.000000	0.001317
1186.000000	0.001314
1185.000000	0.001298
1184.000000	0.001267
1183.000000	0.001256
1182.000000	0.001268
1181.000000	0.001265
1180.000000	0.001238
1179.000000	0.001228
1178.000000	0.001243
1177.000000	0.001242
1176.000000	0.001211
1175.000000	0.001191
1174.000000	0.001193
1173.000000	0.001180
1172.000000	0.001146
1171.000000	0.001133
1170.000000	0.001147
1169.000000	0.001146
1168.000000	0.001116
1167.000000	0.001100
1166.000000	0.001111
1165.000000	0.001106
1164.000000	0.001078
1163.000000	0.001071
1162.000000	0.001096
1161.000000	0.001105
1160.000000	0.001080
1159.000000	0.001065
1158.000000	0.001081
1157.000000	0.001088
1156.000000	0.001068
1155.000000	0.001060
1154.000000	0.001076
1153.000000	0.001080
1152.000000	0.001062
1151.000000	0.001065
1150.000000	0.001095
1149.000000	0.001103
1148.000000	0.001079
1147.000000	0.001070
1146.000000	0.001087
1145.000000	0.001085
1144.000000	0.001053
1143.000000	0.001041
1142.000000	0.001063
1141.000000	0.001075
1140.000000	0.001062
1139.000000	0.001068
1138.000000	0.001103
1137.000000	0.001118
1136.000000	0.001100
1135.000000	0.001099
1134.000000	0.001133
1133.000000	0.001152
1132.000000	0.001138
1131.000000	0.001139
1130.000000	0.001172
1129.000000	0.001189
1128.000000	0.001175
1127.000000	0.001172
1126.000000	0.001196
1125.000000	0.001201
1124.000000	0.001179
1123.000000	0.001187
1122.000000	0.001237
1121.000000	0.001265
1120.000000	0.001247
1119.000000	0.001238
1118.000000	0.001262
1117.000000	0.001275
1116.000000	0.001258
1115.000000	0.001262
1114.000000	0.001301
1113.000000	0.001320
1112.000000	0.001295
1111.000000	0.001278
1110.000000	0.001290
1109.000000	0.001284
1108.000000	0.001244
1107.000000	0.001225
1106.000000	0.001243
1105.000000	0.001241
1104.000000	0.001203
1103.000000	0.001190
1102.000000	0.001226
1101.000000	0.001247
1100.000000	0.001224
1099.000000	0.001212
1098.000000	0.001235
1097.000000	0.001240
1096.000000	0.001215
1095.000000	0.001215
1094.000000	0.001255
1093.000000	0.001267
1092.000000	0.001228
1091.000000	0.001200
1090.000000	0.001212
1089.000000	0.001212
1088.000000	0.001177
1087.000000	0.001163
1086.000000	0.001185
1085.000000	0.001179
1084.000000	0.001131
1083.000000	0.001111
1082.000000	0.001146
1081.000000	0.001169
1080.000000	0.001150
1079.000000	0.001149
1078.000000	0.001190
1077.000000	0.001211
1076.000000	0.001189
1075.000000	0.001184
1074.000000	0.001219
1073.000000	0.001229
1072.000000	0.001194
1071.000000	0.001183
1070.000000	0.001222
1069.000000	0.001249
1068.000000	0.001238
1067.000000	0.001248
1066.000000	0.001298
1065.000000	0.001323
1064.000000	0.001311
1063.000000	0.001337
1062.000000	0.001421
1061.000000	0.001484
1060.000000	0.001492
1059.000000	0.001513
1058.000000	0.001577
1057.000000	0.001625
1056.000000	0.001643
1055.000000	0.001702
1054.000000	0.001817
1053.000000	0.001903
1052.000000	0.001925
1051.000000	0.001959
1050.000000	0.002040
1049.000000	0.002099
1048.000000	0.002102
1047.000000	0.002110
1046.000000	0.002144
1045.000000	0.002138
1044.000000	0.002071
1043.000000	0.002013
1042.000000	0.001987
1041.000000	0.001928
1040.000000	0.001820
1039.000000	0.001741
1038.000000	0.001717
1037.000000	0.001673
1036.000000	0.001578
1035.000000	0.001504
1034.000000	0.001480
1033.000000	0.001440
1032.000000	0.001357
1031.000000	0.001300
1030.000000	0.001294
1029.000000	0.001274
1028.000000	0.001218
1027.000000	0.001190
1026.000000	0.001205
1025.000000	0.001189
1024.000000	0.001127
1023.000000	0.001098
1022.000000	0.001133
1021.000000	0.001156
1020.000000	0.001133
1019.000000	0.001124
1018.000000	0.001149
1017.000000	0.001138
1016.000000	0.001074
1015.000000	0.001032
1014.000000	0.001043
1013.000000	0.001039
1012.000000	0.000997
1011.000000	0.000993
1010.000000	0.001046
1009.000000	0.001074
1008.000000	0.001038
1007.000000	0.001008
1006.000000	0.001025
1005.000000	0.001031
1004.000000	0.001004
1003.000000	0.001002
1002.000000	0.001040
1001.000000	0.001047
1000.000000	0.001006
999.000000	0.000989
998.000000	0.001021
997.000000	0.001027
996.000000	0.000974
995.000000	0.000934
994.000000	0.000941
993.000000	0.000934
992.000000	0.000883
991.000000	0.000851
990.000000	0.000863
989.000000	0.000853
988.000000	0.000796
987.000000	0.000758
986.000000	0.000770
985.000000	0.000767
984.000000	0.000719
983.000000	0.000686
982.000000	0.000694
981.000000	0.000686
980.000000	0.000641
979.000000	0.000626
978.000000	0.000663
977.000000	0.000678
976.000000	0.000643
975.000000	0.000626
974.000000	0.000655
973.000000	0.000663
972.000000	0.000625
971.000000	0.000605
970.000000	0.000630
969.000000	0.000634
968.000000	0.000592
967.000000	0.000572
966.000000	0.000602
965.000000	0.000620
964.000000	0.000596
963.000000	0.000589
962.000000	0.000623
961.000000	0.000630
960.000000	0.000588
959.000000	0.000570
958.000000	0.000601
957.000000	0.000612
956.000000	0.000573
955.000000	0.000551
954.000000	0.000574
953.000000	0.000580
952.000000	0.000552
951.000000	0.000560
950.000000	0.000623
949.000000	0.000656
948.000000	0.000624
947.000000	0.000600
946.000000	0.000622
945.000000	0.000628
944.000000	0.000590
943.000000	0.000573
942.000000	0.000601
941.000000	0.000606
940.000000	0.000568
939.000000	0.000563
938.000000	0.000620
937.000000	0.000658
936.000000	0.000638
935.000000	0.000630
934.000000	0.000667
933.000000	0.000678
932.000000	0.000627
931.000000	0.000587
930.000000	0.000594
929.000000	0.000588
928.000000	0.000541
927.000000	0.000522
926.000000	0.000558
925.000000	0.000577
924.000000	0.000548
923.000000	0.000540
922.000000	0.000581
921.000000	0.000599
920.000000	0.000559
919.000000	0.000532
918.000000	0.000552
917.000000	0.000550
916.000000	0.000500
915.000000	0.000477
914.000000	0.000517
913.000000	0.000546
912.000000	0.000528
911.000000	0.000531
910.000000	0.000585
909.000000	0.000615
908.000000	0.000587
907.000000	0.000570
906.000000	0.000599
905.000000	0.000606
904.000000	0.000570
903.000000	0.000566
902.000000	0.000619
901.000000	0.000643
900.000000	0.000601
899.000000	0.000576
898.000000	0.000609
897.000000	0.000623
896.000000	0.000584
895.000000	0.000568
894.000000	0.000613
893.000000	0.000637
892.000000	0.000605
891.000000	0.000595
890.000000	0.000641
889.000000	0.000661
888.000000	0.000612
887.000000	0.000576
886.000000	0.000594
885.000000	0.000598
884.000000	0.000560
883.000000	0.000557
882.000000	0.000612
881.000000	0.000637
880.000000	0.000598
879.000000	0.000584
878.000000	0.000631
877.000000	0.000647
876.000000	0.000595
875.000000	0.000570
874.000000	0.000613
873.000000	0.000635
872.000000	0.000597
871.000000	0.000589
870.000000	0.000642
869.000000	0.000660
868.000000	0.000603
867.000000	0.000571
866.000000	0.000613
865.000000	0.000635
864.000000	0.000590
863.000000	0.000566
862.000000	0.000607
861.000000	0.000628
860.000000	0.000580
859.000000	0.000550
858.000000	0.000584
857.000000	0.000599
856.000000	0.000559
855.000000	0.000550
854.000000	0.000604
853.000000	0.000629
852.000000	0.000585
851.000000	0.000564
850.000000	0.000606
849.000000	0.000614
848.000000	0.000548
847.000000	0.000510
846.000000	0.000556
845.000000	0.000596
844.000000	0.000576
843.000000	0.000575
842.000000	0.000630
841.000000	0.000655
840.000000	0.000609
839.000000	0.000584
838.000000	0.000623
837.000000	0.000631
836.000000	0.000570
835.000000	0.000539
834.000000	0.000581
833.000000	0.000597
832.000000	0.000540
831.000000	0.000518
830.000000	0.000585
829.000000	0.000639
828.000000	0.000618
827.000000	0.000613
826.000000	0.000669
825.000000	0.000686
824.000000	0.000622
823.000000	0.000595
822.000000	0.000656
821.000000	0.000690
820.000000	0.000640
819.000000	0.000611
818.000000	0.000657
817.000000	0.000676
816.000000	0.000618
815.000000	0.000584
814.000000	0.000628
813.000000	0.000652
812.000000	0.000604
811.000000	0.000584
810.000000	0.000641
809.000000	0.000673
808.000000	0.000626
807.000000	0.000602
806.000000	0.000649
805.000000	0.000664
804.000000	0.000603
803.000000	0.000577
802.000000	0.000641
801.000000	0.000682
800.000000	0.000636
799.000000	0.000602
798.000000	0.000641
797.000000	0.000659
796.000000	0.000610
795.000000	0.000600
794.000000	0.000679
793.000000	0.000733
792.000000	0.000697
791.000000	0.000676
790.000000	0.000731
789.000000	0.000768
788.000000	0.000732
787.000000	0.000714
786.000000	0.000759
785.000000	0.000771
784.000000	0.000707
783.000000	0.000678
782.000000	0.000737
781.000000	0.000774
780.000000	0.000731
779.000000	0.000704
778.000000	0.000750
777.000000	0.000777
776.000000	0.000737
775.000000	0.000730
774.000000	0.000795
773.000000	0.000824
772.000000	0.000764
771.000000	0.000730
770.000000	0.000783
769.000000	0.000820
768.000000	0.000777
767.000000	0.000748
766.000000	0.000790
765.000000	0.000817
764.000000	0.000785
763.000000	0.000793
762.000000	0.000874
761.000000	0.000906
760.000000	0.000834
759.000000	0.000781
758.000000	0.000818
757.000000	0.000840
756.000000	0.000786
755.000000	0.000758
754.000000	0.000824
753.000000	0.000884
752.000000	0.000874
751.000000	0.000879
750.000000	0.000944
749.000000	0.000967
748.000000	0.000906
747.000000	0.000878
746.000000	0.000947
745.000000	0.001003
744.000000	0.000978
743.000000	0.000968
742.000000	0.001030
741.000000	0.001066
740.000000	0.001026
739.000000	0.001012
738.000000	0.001069
737.000000	0.001084
736.000000	0.001003
735.000000	0.000936
734.000000	0.000945
733.000000	0.000923
732.000000	0.000820
731.000000	0.000753
730.000000	0.000791
729.000000	0.000828
728.000000	0.000797
727.000000	0.000798
726.000000	0.000876
725.000000	0.000918
724.000000	0.000869
723.000000	0.000839
722.000000	0.000878
721.000000	0.000868
720.000000	0.000765
719.000000	0.000713
718.000000	0.000795
717.000000	0.000886
716.000000	0.000899
715.000000	0.000925
714.000000	0.001022
713.000000	0.001077
712.000000	0.001034
711.000000	0.001011
710.000000	0.001075
709.000000	0.001108
708.000000	0.001039
707.000000	0.000984
706.000000	0.001016
705.000000	0.001026
704.000000	0.000953
703.000000	0.000913
702.000000	0.000973
701.000000	0.001016
700.000000	0.000984
699.000000	0.000995
698.000000	0.001098
697.000000	0.001148
696.000000	0.001069
695.000000	0.001001
694.000000	0.001036
693.000000	0.001051
692.000000	0.000970
691.000000	0.000919
690.000000	0.000979
689.000000	0.001027
688.000000	0.000981
687.000000	0.000962
686.000000	0.001038
685.000000	0.001073
684.000000	0.000996
683.000000	0.000950
682.000000	0.001015
681.000000	0.001058
680.000000	0.000994
679.000000	0.000953
678.000000	0.001012
677.000000	0.001039
676.000000	0.000962
675.000000	0.000921
674.000000	0.000998
673.000000	0.001049
672.000000	0.000987
671.000000	0.000947
670.000000	0.001033
669.000000	0.001115
668.000000	0.001053
667.000000	0.001027
666.000000	0.001124
665.000000	0.001136
664.000000	0.001006
663.000000	0.000907
662.000000	0.000942
661.000000	0.000977
660.000000	0.000917
659.000000	0.000897
658.000000	0.000996
657.000000	0.001056
656.000000	0.000985
655.000000	0.000942
654.000000	0.001029
653.000000	0.001095
652.000000	0.001039
651.000000	0.001001
650.000000	0.001072
649.000000	0.001105
648.000000	0.001015
647.000000	0.000964
646.000000	0.001045
645.000000	0.001097
644.000000	0.001023
643.000000	0.000978
642.000000	0.001057
641.000000	0.001106
640.000000	0.001031
639.000000	0.000991
638.000000	0.001084
637.000000	0.001149
636.000000	0.001076
635.000000	0.001016
634.000000	0.001071
633.000000	0.001097
632.000000	0.001010
631.000000	0.000974
630.000000	0.001074
629.000000	0.001135
628.000000	0.001052
627.000000	0.000994
626.000000	0.001071
625.000000	0.001124
624.000000	0.001051
623.000000	0.001020
622.000000	0.001127
621.000000	0.001191
620.000000	0.001101
619.000000	0.001034
618.000000	0.001106
617.000000	0.001150
616.000000	0.001058
615.000000	0.001012
614.000000	0.001110
613.000000	0.001157
612.000000	0.001031
611.000000	0.000926
610.000000	0.000976
609.000000	0.001019
608.000000	0.000950
607.000000	0.000949
606.000000	0.001110
605.000000	0.001212
604.000000	0.001132
603.000000	0.001080
602.000000	0.001184
601.000000	0.001238
600.000000	0.001116
599.000000	0.001031
598.000000	0.001113
597.000000	0.001159
596.000000	0.001047
595.000000	0.000993
594.000000	0.001126
593.000000	0.001224
592.000000	0.001133
591.000000	0.001064
590.000000	0.001162
589.000000	0.001229
588.000000	0.001144
587.000000	0.001118
586.000000	0.001259
585.000000	0.001316
584.000000	0.001151
583.000000	0.001023
582.000000	0.001109
581.000000	0.001176
580.000000	0.001060
579.000000	0.000985
578.000000	0.001114
577.000000	0.001212
576.000000	0.001116
575.000000	0.001056
574.000000	0.001179
573.000000	0.001244
572.000000	0.001108
571.000000	0.001028
570.000000	0.001166
569.000000	0.001252
568.000000	0.001102
567.000000	0.000978
566.000000	0.001072
565.000000	0.001141
564.000000	0.001017
563.000000	0.000951
562.000000	0.001107
561.000000	0.001214
560.000000	0.001090
559.000000	0.000989
558.000000	0.001087
557.000000	0.001127
556.000000	0.000955
555.000000	0.000858
554.000000	0.001013
553.000000	0.001125
552.000000	0.001008
551.000000	0.000949
550.000000	0.001135
549.000000	0.001263
548.000000	0.001137
547.000000	0.001054
546.000000	0.001215
545.000000	0.001327
544.000000	0.001212
543.000000	0.001170
542.000000	0.001358
541.000000	0.001434
540.000000	0.001200
539.000000	0.001008
538.000000	0.001094
537.000000	0.001147
536.000000	0.000956
535.000000	0.000855
534.000000	0.001068
533.000000	0.001249
532.000000	0.001148
531.000000	0.001062
530.000000	0.001205
529.000000	0.001261
528.000000	0.001035
527.000000	0.000885
526.000000	0.001053
525.000000	0.001162
524.000000	0.000969
523.000000	0.000847
522.000000	0.001039
521.000000	0.001187
520.000000	0.001038
519.000000	0.000959
518.000000	0.001199
517.000000	0.001336
516.000000	0.001075
515.000000	0.000839
514.000000	0.000954
513.000000	0.001080
512.000000	0.000939
511.000000	0.000847
510.000000	0.001038
509.000000	0.001151
508.000000	0.000949
507.000000	0.000831
506.000000	0.001054
505.000000	0.001197
504.000000	0.000989
503.000000	0.000851
502.000000	0.001072
501.000000	0.001201
500.000000	0.000952
499.000000	0.000784
498.000000	0.000989
497.000000	0.001133
496.000000	0.000910
495.000000	0.000752
494.000000	0.000978
493.000000	0.001151
492.000000	0.000926
491.000000	0.000734
490.000000	0.000904
489.000000	0.001003
488.000000	0.000736
487.000000	0.000583
486.000000	0.000881
485.000000	0.001126
484.000000	0.000923
483.000000	0.000759
482.000000	0.001003
481.000000	0.001167
480.000000	0.000919
479.000000	0.000766
478.000000	0.001048
477.000000	0.001209
476.000000	0.000888
475.000000	0.000674
474.000000	0.001009
473.000000	0.001263
472.000000	0.000907
471.000000	0.000602
470.000000	0.000861
469.000000	0.001050
468.000000	0.000691
467.000000	0.000398
466.000000	0.000674
465.000000	0.000924
464.000000	0.000683
463.000000	0.000535
462.000000	0.000901
461.000000	0.001102
460.000000	0.000641
459.000000	0.000228
458.000000	0.000510
457.000000	0.000769
456.000000	0.000426
455.000000	0.000254
454.000000	0.000721
453.000000	0.001061
452.000000	0.000703
451.000000	0.000347
450.000000	0.000575
449.000000	0.000767
448.000000	0.000443
447.000000	0.000257
446.000000	0.000658
445.000000	0.000858
444.000000	0.000327
443.000000	-0.000066
442.000000	0.000352
441.000000	0.000755
440.000000	0.000483
439.000000	0.000274
438.000000	0.000696
437.000000	0.000972
436.000000	0.000460
435.000000	0.000008
434.000000	0.000331
433.000000	0.000628
432.000000	0.000233
431.000000	-0.000041
430.000000	0.000496
429.000000	0.000989
428.000000	0.000719
427.000000	0.000485
426.000000	0.000956
425.000000	0.001203
424.000000	0.000517
423.000000	0.000037
422.000000	0.000635
421.000000	0.001086
420.000000	0.000237
419.000000	-0.000437
418.000000	0.000558
417.000000	0.001225
416.000000	0.000531
415.000000	0.000123
414.000000	0.000946
413.000000	0.001589
412.000000	0.000915
411.000000	0.000312
410.000000	0.000968
409.000000	0.001398
408.000000	0.000386
407.000000	-0.000423
406.000000	0.000359
405.000000	0.001025
404.000000	0.000140
403.000000	-0.000519
402.000000	0.000489
401.000000	0.000977
400.000000	-0.001067
