Created as New Dataset,Sample 292 By YargerLab Date Sunday, August 18 2024
cm-1,%T
4000.00,98.75
3999.00,98.76
3998.00,98.76
3997.00,98.76
3996.00,98.77
3995.00,98.77
3994.00,98.77
3993.00,98.77
3992.00,98.76
3991.00,98.76
3990.00,98.76
3989.00,98.76
3988.00,98.76
3987.00,98.75
3986.00,98.76
3985.00,98.76
3984.00,98.76
3983.00,98.76
3982.00,98.76
3981.00,98.76
3980.00,98.76
3979.00,98.76
3978.00,98.76
3977.00,98.76
3976.00,98.77
3975.00,98.77
3974.00,98.77
3973.00,98.77
3972.00,98.77
3971.00,98.77
3970.00,98.77
3969.00,98.77
3968.00,98.77
3967.00,98.77
3966.00,98.77
3965.00,98.77
3964.00,98.77
3963.00,98.77
3962.00,98.76
3961.00,98.77
3960.00,98.77
3959.00,98.77
3958.00,98.77
3957.00,98.77
3956.00,98.77
3955.00,98.77
3954.00,98.77
3953.00,98.77
3952.00,98.77
3951.00,98.77
3950.00,98.78
3949.00,98.78
3948.00,98.78
3947.00,98.78
3946.00,98.78
3945.00,98.78
3944.00,98.78
3943.00,98.78
3942.00,98.77
3941.00,98.77
3940.00,98.77
3939.00,98.78
3938.00,98.78
3937.00,98.78
3936.00,98.77
3935.00,98.77
3934.00,98.77
3933.00,98.78
3932.00,98.78
3931.00,98.79
3930.00,98.79
3929.00,98.79
3928.00,98.79
3927.00,98.79
3926.00,98.79
3925.00,98.78
3924.00,98.78
3923.00,98.78
3922.00,98.78
3921.00,98.79
3920.00,98.79
3919.00,98.79
3918.00,98.79
3917.00,98.79
3916.00,98.80
3915.00,98.80
3914.00,98.80
3913.00,98.79
3912.00,98.79
3911.00,98.78
3910.00,98.78
3909.00,98.78
3908.00,98.78
3907.00,98.79
3906.00,98.79
3905.00,98.79
3904.00,98.80
3903.00,98.80
3902.00,98.81
3901.00,98.81
3900.00,98.81
3899.00,98.81
3898.00,98.81
3897.00,98.81
3896.00,98.81
3895.00,98.80
3894.00,98.80
3893.00,98.80
3892.00,98.80
3891.00,98.80
3890.00,98.80
3889.00,98.80
3888.00,98.81
3887.00,98.81
3886.00,98.81
3885.00,98.81
3884.00,98.81
3883.00,98.81
3882.00,98.81
3881.00,98.82
3880.00,98.82
3879.00,98.82
3878.00,98.81
3877.00,98.81
3876.00,98.81
3875.00,98.81
3874.00,98.81
3873.00,98.81
3872.00,98.81
3871.00,98.82
3870.00,98.82
3869.00,98.82
3868.00,98.82
3867.00,98.83
3866.00,98.83
3865.00,98.83
3864.00,98.83
3863.00,98.83
3862.00,98.83
3861.00,98.83
3860.00,98.83
3859.00,98.83
3858.00,98.83
3857.00,98.83
3856.00,98.83
3855.00,98.83
3854.00,98.84
3853.00,98.84
3852.00,98.85
3851.00,98.86
3850.00,98.85
3849.00,98.85
3848.00,98.84
3847.00,98.83
3846.00,98.82
3845.00,98.82
3844.00,98.82
3843.00,98.83
3842.00,98.83
3841.00,98.83
3840.00,98.84
3839.00,98.84
3838.00,98.84
3837.00,98.84
3836.00,98.84
3835.00,98.84
3834.00,98.84
3833.00,98.84
3832.00,98.84
3831.00,98.84
3830.00,98.84
3829.00,98.84
3828.00,98.84
3827.00,98.84
3826.00,98.84
3825.00,98.83
3824.00,98.83
3823.00,98.84
3822.00,98.84
3821.00,98.84
3820.00,98.85
3819.00,98.85
3818.00,98.86
3817.00,98.86
3816.00,98.86
3815.00,98.85
3814.00,98.85
3813.00,98.84
3812.00,98.84
3811.00,98.84
3810.00,98.84
3809.00,98.84
3808.00,98.84
3807.00,98.84
3806.00,98.84
3805.00,98.85
3804.00,98.85
3803.00,98.86
3802.00,98.86
3801.00,98.86
3800.00,98.86
3799.00,98.87
3798.00,98.87
3797.00,98.87
3796.00,98.86
3795.00,98.86
3794.00,98.85
3793.00,98.85
3792.00,98.85
3791.00,98.85
3790.00,98.85
3789.00,98.85
3788.00,98.85
3787.00,98.85
3786.00,98.85
3785.00,98.85
3784.00,98.85
3783.00,98.85
3782.00,98.85
3781.00,98.85
3780.00,98.85
3779.00,98.85
3778.00,98.86
3777.00,98.86
3776.00,98.86
3775.00,98.85
3774.00,98.85
3773.00,98.85
3772.00,98.85
3771.00,98.85
3770.00,98.85
3769.00,98.86
3768.00,98.86
3767.00,98.86
3766.00,98.86
3765.00,98.85
3764.00,98.85
3763.00,98.86
3762.00,98.86
3761.00,98.86
3760.00,98.86
3759.00,98.86
3758.00,98.86
3757.00,98.86
3756.00,98.86
3755.00,98.86
3754.00,98.86
3753.00,98.87
3752.00,98.87
3751.00,98.87
3750.00,98.87
3749.00,98.87
3748.00,98.88
3747.00,98.88
3746.00,98.88
3745.00,98.88
3744.00,98.88
3743.00,98.88
3742.00,98.88
3741.00,98.88
3740.00,98.88
3739.00,98.88
3738.00,98.88
3737.00,98.88
3736.00,98.89
3735.00,98.89
3734.00,98.90
3733.00,98.90
3732.00,98.90
3731.00,98.90
3730.00,98.89
3729.00,98.89
3728.00,98.89
3727.00,98.89
3726.00,98.89
3725.00,98.89
3724.00,98.90
3723.00,98.90
3722.00,98.89
3721.00,98.89
3720.00,98.88
3719.00,98.88
3718.00,98.88
3717.00,98.87
3716.00,98.87
3715.00,98.87
3714.00,98.88
3713.00,98.88
3712.00,98.88
3711.00,98.88
3710.00,98.88
3709.00,98.88
3708.00,98.87
3707.00,98.87
3706.00,98.86
3705.00,98.86
3704.00,98.86
3703.00,98.85
3702.00,98.85
3701.00,98.84
3700.00,98.84
3699.00,98.83
3698.00,98.82
3697.00,98.81
3696.00,98.81
3695.00,98.80
3694.00,98.80
3693.00,98.80
3692.00,98.80
3691.00,98.81
3690.00,98.81
3689.00,98.81
3688.00,98.81
3687.00,98.81
3686.00,98.80
3685.00,98.79
3684.00,98.78
3683.00,98.76
3682.00,98.75
3681.00,98.74
3680.00,98.74
3679.00,98.73
3678.00,98.73
3677.00,98.72
3676.00,98.72
3675.00,98.71
3674.00,98.70
3673.00,98.69
3672.00,98.68
3671.00,98.66
3670.00,98.64
3669.00,98.62
3668.00,98.60
3667.00,98.59
3666.00,98.57
3665.00,98.56
3664.00,98.54
3663.00,98.52
3662.00,98.50
3661.00,98.48
3660.00,98.46
3659.00,98.45
3658.00,98.44
3657.00,98.42
3656.00,98.41
3655.00,98.39
3654.00,98.38
3653.00,98.37
3652.00,98.36
3651.00,98.34
3650.00,98.33
3649.00,98.31
3648.00,98.30
3647.00,98.29
3646.00,98.28
3645.00,98.26
3644.00,98.25
3643.00,98.23
3642.00,98.22
3641.00,98.20
3640.00,98.18
3639.00,98.17
3638.00,98.15
3637.00,98.14
3636.00,98.12
3635.00,98.11
3634.00,98.10
3633.00,98.09
3632.00,98.09
3631.00,98.08
3630.00,98.07
3629.00,98.06
3628.00,98.05
3627.00,98.03
3626.00,98.02
3625.00,98.00
3624.00,97.98
3623.00,97.96
3622.00,97.95
3621.00,97.93
3620.00,97.92
3619.00,97.90
3618.00,97.89
3617.00,97.88
3616.00,97.87
3615.00,97.85
3614.00,97.84
3613.00,97.82
3612.00,97.80
3611.00,97.79
3610.00,97.77
3609.00,97.76
3608.00,97.74
3607.00,97.72
3606.00,97.71
3605.00,97.69
3604.00,97.67
3603.00,97.66
3602.00,97.64
3601.00,97.62
3600.00,97.60
3599.00,97.59
3598.00,97.57
3597.00,97.56
3596.00,97.54
3595.00,97.52
3594.00,97.50
3593.00,97.48
3592.00,97.46
3591.00,97.44
3590.00,97.43
3589.00,97.41
3588.00,97.39
3587.00,97.37
3586.00,97.35
3585.00,97.33
3584.00,97.31
3583.00,97.29
3582.00,97.27
3581.00,97.25
3580.00,97.23
3579.00,97.20
3578.00,97.18
3577.00,97.16
3576.00,97.14
3575.00,97.12
3574.00,97.10
3573.00,97.08
3572.00,97.06
3571.00,97.05
3570.00,97.03
3569.00,97.01
3568.00,96.99
3567.00,96.98
3566.00,96.95
3565.00,96.93
3564.00,96.91
3563.00,96.89
3562.00,96.87
3561.00,96.85
3560.00,96.83
3559.00,96.81
3558.00,96.79
3557.00,96.76
3556.00,96.75
3555.00,96.73
3554.00,96.71
3553.00,96.69
3552.00,96.67
3551.00,96.65
3550.00,96.64
3549.00,96.62
3548.00,96.60
3547.00,96.58
3546.00,96.56
3545.00,96.54
3544.00,96.53
3543.00,96.52
3542.00,96.50
3541.00,96.48
3540.00,96.46
3539.00,96.45
3538.00,96.43
3537.00,96.41
3536.00,96.39
3535.00,96.38
3534.00,96.36
3533.00,96.34
3532.00,96.32
3531.00,96.30
3530.00,96.28
3529.00,96.27
3528.00,96.25
3527.00,96.23
3526.00,96.21
3525.00,96.19
3524.00,96.17
3523.00,96.16
3522.00,96.14
3521.00,96.12
3520.00,96.11
3519.00,96.09
3518.00,96.07
3517.00,96.05
3516.00,96.04
3515.00,96.02
3514.00,96.00
3513.00,95.98
3512.00,95.97
3511.00,95.95
3510.00,95.94
3509.00,95.92
3508.00,95.90
3507.00,95.88
3506.00,95.86
3505.00,95.85
3504.00,95.83
3503.00,95.81
3502.00,95.79
3501.00,95.78
3500.00,95.76
3499.00,95.74
3498.00,95.73
3497.00,95.71
3496.00,95.69
3495.00,95.68
3494.00,95.66
3493.00,95.65
3492.00,95.64
3491.00,95.62
3490.00,95.61
3489.00,95.59
3488.00,95.57
3487.00,95.55
3486.00,95.54
3485.00,95.53
3484.00,95.51
3483.00,95.50
3482.00,95.49
3481.00,95.48
3480.00,95.46
3479.00,95.45
3478.00,95.44
3477.00,95.43
3476.00,95.41
3475.00,95.40
3474.00,95.39
3473.00,95.37
3472.00,95.36
3471.00,95.35
3470.00,95.34
3469.00,95.33
3468.00,95.32
3467.00,95.31
3466.00,95.30
3465.00,95.29
3464.00,95.28
3463.00,95.27
3462.00,95.26
3461.00,95.25
3460.00,95.24
3459.00,95.23
3458.00,95.22
3457.00,95.22
3456.00,95.21
3455.00,95.21
3454.00,95.20
3453.00,95.19
3452.00,95.18
3451.00,95.17
3450.00,95.17
3449.00,95.16
3448.00,95.15
3447.00,95.15
3446.00,95.14
3445.00,95.13
3444.00,95.12
3443.00,95.11
3442.00,95.11
3441.00,95.10
3440.00,95.09
3439.00,95.08
3438.00,95.08
3437.00,95.07
3436.00,95.07
3435.00,95.07
3434.00,95.06
3433.00,95.05
3432.00,95.05
3431.00,95.04
3430.00,95.03
3429.00,95.03
3428.00,95.02
3427.00,95.02
3426.00,95.01
3425.00,95.01
3424.00,95.00
3423.00,95.00
3422.00,95.00
3421.00,94.99
3420.00,94.99
3419.00,94.99
3418.00,94.99
3417.00,94.99
3416.00,94.98
3415.00,94.98
3414.00,94.98
3413.00,94.97
3412.00,94.97
3411.00,94.97
3410.00,94.97
3409.00,94.97
3408.00,94.97
3407.00,94.97
3406.00,94.97
3405.00,94.97
3404.00,94.97
3403.00,94.97
3402.00,94.97
3401.00,94.97
3400.00,94.97
3399.00,94.97
3398.00,94.98
3397.00,94.98
3396.00,94.98
3395.00,94.98
3394.00,94.98
3393.00,94.98
3392.00,94.98
3391.00,94.99
3390.00,94.99
3389.00,95.00
3388.00,95.00
3387.00,95.01
3386.00,95.01
3385.00,95.01
3384.00,95.01
3383.00,95.01
3382.00,95.02
3381.00,95.02
3380.00,95.02
3379.00,95.02
3378.00,95.02
3377.00,95.03
3376.00,95.03
3375.00,95.04
3374.00,95.04
3373.00,95.04
3372.00,95.05
3371.00,95.05
3370.00,95.05
3369.00,95.05
3368.00,95.06
3367.00,95.06
3366.00,95.07
3365.00,95.08
3364.00,95.08
3363.00,95.09
3362.00,95.09
3361.00,95.09
3360.00,95.10
3359.00,95.10
3358.00,95.11
3357.00,95.11
3356.00,95.12
3355.00,95.12
3354.00,95.13
3353.00,95.13
3352.00,95.14
3351.00,95.14
3350.00,95.15
3349.00,95.16
3348.00,95.16
3347.00,95.17
3346.00,95.18
3345.00,95.19
3344.00,95.20
3343.00,95.22
3342.00,95.22
3341.00,95.23
3340.00,95.23
3339.00,95.24
3338.00,95.25
3337.00,95.25
3336.00,95.27
3335.00,95.27
3334.00,95.28
3333.00,95.29
3332.00,95.30
3331.00,95.30
3330.00,95.31
3329.00,95.32
3328.00,95.33
3327.00,95.34
3326.00,95.35
3325.00,95.36
3324.00,95.37
3323.00,95.37
3322.00,95.38
3321.00,95.39
3320.00,95.40
3319.00,95.41
3318.00,95.41
3317.00,95.42
3316.00,95.43
3315.00,95.44
3314.00,95.45
3313.00,95.46
3312.00,95.47
3311.00,95.48
3310.00,95.50
3309.00,95.51
3308.00,95.51
3307.00,95.52
3306.00,95.53
3305.00,95.53
3304.00,95.54
3303.00,95.55
3302.00,95.55
3301.00,95.56
3300.00,95.57
3299.00,95.58
3298.00,95.59
3297.00,95.60
3296.00,95.61
3295.00,95.62
3294.00,95.63
3293.00,95.64
3292.00,95.64
3291.00,95.65
3290.00,95.65
3289.00,95.66
3288.00,95.66
3287.00,95.67
3286.00,95.68
3285.00,95.69
3284.00,95.69
3283.00,95.70
3282.00,95.71
3281.00,95.73
3280.00,95.74
3279.00,95.75
3278.00,95.77
3277.00,95.78
3276.00,95.79
3275.00,95.81
3274.00,95.82
3273.00,95.83
3272.00,95.84
3271.00,95.85
3270.00,95.86
3269.00,95.86
3268.00,95.87
3267.00,95.89
3266.00,95.90
3265.00,95.92
3264.00,95.93
3263.00,95.95
3262.00,95.96
3261.00,95.97
3260.00,95.99
3259.00,96.00
3258.00,96.01
3257.00,96.03
3256.00,96.04
3255.00,96.05
3254.00,96.06
3253.00,96.07
3252.00,96.08
3251.00,96.09
3250.00,96.11
3249.00,96.12
3248.00,96.14
3247.00,96.15
3246.00,96.17
3245.00,96.18
3244.00,96.19
3243.00,96.20
3242.00,96.21
3241.00,96.23
3240.00,96.24
3239.00,96.26
3238.00,96.27
3237.00,96.28
3236.00,96.29
3235.00,96.31
3234.00,96.32
3233.00,96.33
3232.00,96.34
3231.00,96.36
3230.00,96.36
3229.00,96.37
3228.00,96.38
3227.00,96.39
3226.00,96.40
3225.00,96.41
3224.00,96.43
3223.00,96.44
3222.00,96.45
3221.00,96.47
3220.00,96.48
3219.00,96.49
3218.00,96.50
3217.00,96.51
3216.00,96.52
3215.00,96.53
3214.00,96.54
3213.00,96.55
3212.00,96.56
3211.00,96.57
3210.00,96.58
3209.00,96.59
3208.00,96.61
3207.00,96.62
3206.00,96.63
3205.00,96.65
3204.00,96.66
3203.00,96.68
3202.00,96.69
3201.00,96.70
3200.00,96.71
3199.00,96.72
3198.00,96.73
3197.00,96.75
3196.00,96.76
3195.00,96.77
3194.00,96.79
3193.00,96.80
3192.00,96.81
3191.00,96.83
3190.00,96.84
3189.00,96.85
3188.00,96.86
3187.00,96.87
3186.00,96.89
3185.00,96.90
3184.00,96.91
3183.00,96.93
3182.00,96.94
3181.00,96.95
3180.00,96.96
3179.00,96.98
3178.00,96.99
3177.00,97.01
3176.00,97.02
3175.00,97.03
3174.00,97.05
3173.00,97.06
3172.00,97.07
3171.00,97.08
3170.00,97.09
3169.00,97.10
3168.00,97.11
3167.00,97.13
3166.00,97.14
3165.00,97.15
3164.00,97.16
3163.00,97.17
3162.00,97.19
3161.00,97.20
3160.00,97.21
3159.00,97.22
3158.00,97.23
3157.00,97.24
3156.00,97.26
3155.00,97.27
3154.00,97.28
3153.00,97.30
3152.00,97.30
3151.00,97.31
3150.00,97.32
3149.00,97.33
3148.00,97.34
3147.00,97.35
3146.00,97.36
3145.00,97.37
3144.00,97.38
3143.00,97.39
3142.00,97.40
3141.00,97.41
3140.00,97.42
3139.00,97.42
3138.00,97.43
3137.00,97.44
3136.00,97.45
3135.00,97.46
3134.00,97.47
3133.00,97.48
3132.00,97.48
3131.00,97.49
3130.00,97.50
3129.00,97.50
3128.00,97.51
3127.00,97.52
3126.00,97.53
3125.00,97.54
3124.00,97.55
3123.00,97.56
3122.00,97.57
3121.00,97.58
3120.00,97.58
3119.00,97.59
3118.00,97.59
3117.00,97.59
3116.00,97.59
3115.00,97.60
3114.00,97.60
3113.00,97.60
3112.00,97.61
3111.00,97.61
3110.00,97.62
3109.00,97.62
3108.00,97.63
3107.00,97.63
3106.00,97.63
3105.00,97.64
3104.00,97.64
3103.00,97.64
3102.00,97.65
3101.00,97.65
3100.00,97.65
3099.00,97.65
3098.00,97.65
3097.00,97.65
3096.00,97.65
3095.00,97.65
3094.00,97.65
3093.00,97.65
3092.00,97.65
3091.00,97.65
3090.00,97.65
3089.00,97.64
3088.00,97.64
3087.00,97.63
3086.00,97.63
3085.00,97.62
3084.00,97.62
3083.00,97.61
3082.00,97.61
3081.00,97.61
3080.00,97.60
3079.00,97.60
3078.00,97.60
3077.00,97.59
3076.00,97.59
3075.00,97.59
3074.00,97.59
3073.00,97.59
3072.00,97.60
3071.00,97.61
3070.00,97.62
3069.00,97.62
3068.00,97.63
3067.00,97.64
3066.00,97.64
3065.00,97.65
3064.00,97.65
3063.00,97.66
3062.00,97.66
3061.00,97.67
3060.00,97.67
3059.00,97.68
3058.00,97.69
3057.00,97.69
3056.00,97.69
3055.00,97.68
3054.00,97.68
3053.00,97.68
3052.00,97.67
3051.00,97.67
3050.00,97.66
3049.00,97.65
3048.00,97.64
3047.00,97.63
3046.00,97.62
3045.00,97.60
3044.00,97.59
3043.00,97.58
3042.00,97.56
3041.00,97.54
3040.00,97.53
3039.00,97.52
3038.00,97.50
3037.00,97.49
3036.00,97.48
3035.00,97.48
3034.00,97.47
3033.00,97.46
3032.00,97.46
3031.00,97.45
3030.00,97.44
3029.00,97.44
3028.00,97.43
3027.00,97.43
3026.00,97.42
3025.00,97.42
3024.00,97.41
3023.00,97.41
3022.00,97.40
3021.00,97.40
3020.00,97.39
3019.00,97.38
3018.00,97.37
3017.00,97.36
3016.00,97.35
3015.00,97.34
3014.00,97.32
3013.00,97.31
3012.00,97.30
3011.00,97.28
3010.00,97.27
3009.00,97.26
3008.00,97.24
3007.00,97.23
3006.00,97.21
3005.00,97.20
3004.00,97.18
3003.00,97.16
3002.00,97.14
3001.00,97.12
3000.00,97.10
2999.00,97.07
2998.00,97.04
2997.00,97.01
2996.00,96.97
2995.00,96.93
2994.00,96.89
2993.00,96.85
2992.00,96.80
2991.00,96.75
2990.00,96.70
2989.00,96.65
2988.00,96.60
2987.00,96.55
2986.00,96.49
2985.00,96.44
2984.00,96.38
2983.00,96.31
2982.00,96.24
2981.00,96.17
2980.00,96.09
2979.00,96.00
2978.00,95.91
2977.00,95.81
2976.00,95.70
2975.00,95.58
2974.00,95.45
2973.00,95.32
2972.00,95.17
2971.00,95.02
2970.00,94.86
2969.00,94.70
2968.00,94.52
2967.00,94.34
2966.00,94.16
2965.00,93.98
2964.00,93.80
2963.00,93.63
2962.00,93.46
2961.00,93.30
2960.00,93.16
2959.00,93.02
2958.00,92.91
2957.00,92.82
2956.00,92.74
2955.00,92.70
2954.00,92.67
2953.00,92.66
2952.00,92.66
2951.00,92.67
2950.00,92.67
2949.00,92.66
2948.00,92.63
2947.00,92.57
2946.00,92.49
2945.00,92.39
2944.00,92.26
2943.00,92.12
2942.00,91.95
2941.00,91.77
2940.00,91.58
2939.00,91.36
2938.00,91.14
2937.00,90.90
2936.00,90.64
2935.00,90.38
2934.00,90.11
2933.00,89.84
2932.00,89.56
2931.00,89.27
2930.00,88.97
2929.00,88.66
2928.00,88.34
2927.00,88.02
2926.00,87.67
2925.00,87.29
2924.00,86.90
2923.00,86.48
2922.00,86.04
2921.00,85.61
2920.00,85.21
2919.00,84.91
2918.00,84.78
2917.00,84.89
2916.00,85.27
2915.00,85.91
2914.00,86.70
2913.00,87.55
2912.00,88.34
2911.00,89.03
2910.00,89.61
2909.00,90.08
2908.00,90.47
2907.00,90.80
2906.00,91.09
2905.00,91.34
2904.00,91.57
2903.00,91.78
2902.00,91.97
2901.00,92.16
2900.00,92.33
2899.00,92.49
2898.00,92.65
2897.00,92.81
2896.00,92.96
2895.00,93.11
2894.00,93.25
2893.00,93.38
2892.00,93.51
2891.00,93.64
2890.00,93.76
2889.00,93.88
2888.00,93.99
2887.00,94.10
2886.00,94.20
2885.00,94.29
2884.00,94.37
2883.00,94.44
2882.00,94.50
2881.00,94.55
2880.00,94.58
2879.00,94.60
2878.00,94.60
2877.00,94.59
2876.00,94.57
2875.00,94.54
2874.00,94.51
2873.00,94.48
2872.00,94.45
2871.00,94.44
2870.00,94.43
2869.00,94.43
2868.00,94.42
2867.00,94.40
2866.00,94.35
2865.00,94.28
2864.00,94.19
2863.00,94.07
2862.00,93.92
2861.00,93.75
2860.00,93.56
2859.00,93.34
2858.00,93.11
2857.00,92.84
2856.00,92.53
2855.00,92.14
2854.00,91.67
2853.00,91.10
2852.00,90.50
2851.00,89.97
2850.00,89.67
2849.00,89.72
2848.00,90.16
2847.00,90.89
2846.00,91.75
2845.00,92.57
2844.00,93.29
2843.00,93.86
2842.00,94.32
2841.00,94.70
2840.00,95.01
2839.00,95.29
2838.00,95.53
2837.00,95.75
2836.00,95.95
2835.00,96.13
2834.00,96.30
2833.00,96.46
2832.00,96.60
2831.00,96.73
2830.00,96.85
2829.00,96.96
2828.00,97.06
2827.00,97.15
2826.00,97.23
2825.00,97.30
2824.00,97.37
2823.00,97.42
2822.00,97.48
2821.00,97.52
2820.00,97.56
2819.00,97.60
2818.00,97.64
2817.00,97.67
2816.00,97.70
2815.00,97.73
2814.00,97.75
2813.00,97.78
2812.00,97.80
2811.00,97.82
2810.00,97.84
2809.00,97.86
2808.00,97.88
2807.00,97.89
2806.00,97.91
2805.00,97.93
2804.00,97.95
2803.00,97.96
2802.00,97.97
2801.00,97.99
2800.00,98.00
2799.00,98.02
2798.00,98.03
2797.00,98.04
2796.00,98.05
2795.00,98.06
2794.00,98.07
2793.00,98.08
2792.00,98.10
2791.00,98.11
2790.00,98.12
2789.00,98.13
2788.00,98.14
2787.00,98.15
2786.00,98.16
2785.00,98.17
2784.00,98.17
2783.00,98.18
2782.00,98.19
2781.00,98.20
2780.00,98.21
2779.00,98.22
2778.00,98.23
2777.00,98.23
2776.00,98.24
2775.00,98.25
2774.00,98.26
2773.00,98.26
2772.00,98.27
2771.00,98.27
2770.00,98.28
2769.00,98.28
2768.00,98.29
2767.00,98.29
2766.00,98.30
2765.00,98.30
2764.00,98.30
2763.00,98.31
2762.00,98.31
2761.00,98.31
2760.00,98.32
2759.00,98.32
2758.00,98.33
2757.00,98.33
2756.00,98.33
2755.00,98.33
2754.00,98.34
2753.00,98.34
2752.00,98.35
2751.00,98.35
2750.00,98.35
2749.00,98.35
2748.00,98.35
2747.00,98.35
2746.00,98.35
2745.00,98.35
2744.00,98.36
2743.00,98.36
2742.00,98.36
2741.00,98.37
2740.00,98.37
2739.00,98.37
2738.00,98.37
2737.00,98.37
2736.00,98.37
2735.00,98.37
2734.00,98.37
2733.00,98.37
2732.00,98.38
2731.00,98.38
2730.00,98.38
2729.00,98.39
2728.00,98.39
2727.00,98.40
2726.00,98.40
2725.00,98.41
2724.00,98.41
2723.00,98.41
2722.00,98.41
2721.00,98.42
2720.00,98.42
2719.00,98.43
2718.00,98.43
2717.00,98.43
2716.00,98.44
2715.00,98.44
2714.00,98.45
2713.00,98.45
2712.00,98.45
2711.00,98.45
2710.00,98.46
2709.00,98.46
2708.00,98.46
2707.00,98.47
2706.00,98.47
2705.00,98.48
2704.00,98.48
2703.00,98.48
2702.00,98.48
2701.00,98.48
2700.00,98.48
2699.00,98.49
2698.00,98.49
2697.00,98.49
2696.00,98.49
2695.00,98.49
2694.00,98.49
2693.00,98.50
2692.00,98.50
2691.00,98.50
2690.00,98.51
2689.00,98.51
2688.00,98.51
2687.00,98.51
2686.00,98.51
2685.00,98.52
2684.00,98.52
2683.00,98.52
2682.00,98.52
2681.00,98.52
2680.00,98.52
2679.00,98.52
2678.00,98.52
2677.00,98.53
2676.00,98.53
2675.00,98.52
2674.00,98.52
2673.00,98.52
2672.00,98.53
2671.00,98.53
2670.00,98.53
2669.00,98.53
2668.00,98.52
2667.00,98.52
2666.00,98.51
2665.00,98.50
2664.00,98.49
2663.00,98.49
2662.00,98.48
2661.00,98.47
2660.00,98.47
2659.00,98.47
2658.00,98.47
2657.00,98.47
2656.00,98.47
2655.00,98.47
2654.00,98.47
2653.00,98.47
2652.00,98.48
2651.00,98.48
2650.00,98.48
2649.00,98.48
2648.00,98.49
2647.00,98.49
2646.00,98.49
2645.00,98.49
2644.00,98.50
2643.00,98.50
2642.00,98.50
2641.00,98.51
2640.00,98.51
2639.00,98.51
2638.00,98.52
2637.00,98.52
2636.00,98.53
2635.00,98.53
2634.00,98.54
2633.00,98.54
2632.00,98.55
2631.00,98.55
2630.00,98.56
2629.00,98.56
2628.00,98.56
2627.00,98.57
2626.00,98.57
2625.00,98.58
2624.00,98.58
2623.00,98.59
2622.00,98.60
2621.00,98.61
2620.00,98.61
2619.00,98.61
2618.00,98.61
2617.00,98.62
2616.00,98.62
2615.00,98.63
2614.00,98.63
2613.00,98.64
2612.00,98.64
2611.00,98.64
2610.00,98.64
2609.00,98.65
2608.00,98.65
2607.00,98.66
2606.00,98.67
2605.00,98.67
2604.00,98.68
2603.00,98.68
2602.00,98.69
2601.00,98.69
2600.00,98.69
2599.00,98.70
2598.00,98.70
2597.00,98.71
2596.00,98.71
2595.00,98.71
2594.00,98.71
2593.00,98.72
2592.00,98.73
2591.00,98.73
2590.00,98.74
2589.00,98.74
2588.00,98.74
2587.00,98.75
2586.00,98.75
2585.00,98.76
2584.00,98.76
2583.00,98.76
2582.00,98.77
2581.00,98.77
2580.00,98.78
2579.00,98.78
2578.00,98.79
2577.00,98.79
2576.00,98.79
2575.00,98.79
2574.00,98.79
2573.00,98.80
2572.00,98.80
2571.00,98.80
2570.00,98.80
2569.00,98.81
2568.00,98.82
2567.00,98.82
2566.00,98.82
2565.00,98.82
2564.00,98.82
2563.00,98.82
2562.00,98.82
2561.00,98.83
2560.00,98.83
2559.00,98.83
2558.00,98.83
2557.00,98.83
2556.00,98.84
2555.00,98.84
2554.00,98.84
2553.00,98.85
2552.00,98.85
2551.00,98.85
2550.00,98.85
2549.00,98.85
2548.00,98.85
2547.00,98.86
2546.00,98.86
2545.00,98.87
2544.00,98.87
2543.00,98.87
2542.00,98.87
2541.00,98.87
2540.00,98.87
2539.00,98.88
2538.00,98.88
2537.00,98.88
2536.00,98.88
2535.00,98.89
2534.00,98.88
2533.00,98.88
2532.00,98.88
2531.00,98.88
2530.00,98.88
2529.00,98.89
2528.00,98.89
2527.00,98.89
2526.00,98.89
2525.00,98.89
2524.00,98.89
2523.00,98.89
2522.00,98.90
2521.00,98.90
2520.00,98.90
2519.00,98.91
2518.00,98.91
2517.00,98.91
2516.00,98.92
2515.00,98.92
2514.00,98.92
2513.00,98.93
2512.00,98.93
2511.00,98.93
2510.00,98.93
2509.00,98.93
2508.00,98.94
2507.00,98.94
2506.00,98.94
2505.00,98.94
2504.00,98.94
2503.00,98.94
2502.00,98.94
2501.00,98.94
2500.00,98.94
2499.00,98.95
2498.00,98.95
2497.00,98.95
2496.00,98.95
2495.00,98.95
2494.00,98.95
2493.00,98.95
2492.00,98.95
2491.00,98.95
2490.00,98.96
2489.00,98.96
2488.00,98.96
2487.00,98.97
2486.00,98.97
2485.00,98.97
2484.00,98.97
2483.00,98.98
2482.00,98.98
2481.00,98.98
2480.00,98.98
2479.00,98.99
2478.00,98.99
2477.00,98.98
2476.00,98.98
2475.00,98.98
2474.00,98.98
2473.00,98.98
2472.00,98.98
2471.00,98.98
2470.00,98.99
2469.00,98.99
2468.00,98.99
2467.00,98.99
2466.00,98.99
2465.00,98.99
2464.00,98.99
2463.00,98.99
2462.00,98.99
2461.00,98.99
2460.00,98.98
2459.00,98.98
2458.00,98.97
2457.00,98.97
2456.00,98.97
2455.00,98.97
2454.00,98.97
2453.00,98.98
2452.00,98.98
2451.00,98.98
2450.00,98.98
2449.00,98.99
2448.00,98.99
2447.00,98.99
2446.00,99.00
2445.00,99.00
2444.00,99.01
2443.00,99.01
2442.00,99.02
2441.00,99.02
2440.00,99.03
2439.00,99.03
2438.00,99.03
2437.00,99.03
2436.00,99.03
2435.00,99.03
2434.00,99.04
2433.00,99.04
2432.00,99.04
2431.00,99.05
2430.00,99.05
2429.00,99.05
2428.00,99.05
2427.00,99.06
2426.00,99.06
2425.00,99.06
2424.00,99.06
2423.00,99.06
2422.00,99.06
2421.00,99.06
2420.00,99.06
2419.00,99.06
2418.00,99.06
2417.00,99.06
2416.00,99.06
2415.00,99.06
2414.00,99.06
2413.00,99.06
2412.00,99.06
2411.00,99.06
2410.00,99.07
2409.00,99.08
2408.00,99.09
2407.00,99.09
2406.00,99.09
2405.00,99.09
2404.00,99.09
2403.00,99.09
2402.00,99.09
2401.00,99.10
2400.00,99.10
2399.00,99.10
2398.00,99.10
2397.00,99.11
2396.00,99.11
2395.00,99.11
2394.00,99.11
2393.00,99.11
2392.00,99.12
2391.00,99.12
2390.00,99.13
2389.00,99.13
2388.00,99.14
2387.00,99.14
2386.00,99.15
2385.00,99.16
2384.00,99.17
2383.00,99.18
2382.00,99.20
2381.00,99.21
2380.00,99.22
2379.00,99.22
2378.00,99.22
2377.00,99.22
2376.00,99.22
2375.00,99.22
2374.00,99.22
2373.00,99.22
2372.00,99.22
2371.00,99.23
2370.00,99.24
2369.00,99.25
2368.00,99.25
2367.00,99.26
2366.00,99.26
2365.00,99.26
2364.00,99.25
2363.00,99.25
2362.00,99.24
2361.00,99.23
2360.00,99.23
2359.00,99.23
2358.00,99.24
2357.00,99.23
2356.00,99.23
2355.00,99.23
2354.00,99.23
2353.00,99.23
2352.00,99.24
2351.00,99.24
2350.00,99.23
2349.00,99.22
2348.00,99.20
2347.00,99.19
2346.00,99.19
2345.00,99.19
2344.00,99.19
2343.00,99.18
2342.00,99.17
2341.00,99.16
2340.00,99.15
2339.00,99.14
2338.00,99.14
2337.00,99.14
2336.00,99.14
2335.00,99.13
2334.00,99.13
2333.00,99.14
2332.00,99.14
2331.00,99.14
2330.00,99.13
2329.00,99.09
2328.00,99.02
2327.00,98.93
2326.00,98.85
2325.00,98.82
2324.00,98.84
2323.00,98.89
2322.00,98.94
2321.00,98.97
2320.00,98.99
2319.00,99.00
2318.00,99.01
2317.00,99.02
2316.00,99.03
2315.00,99.04
2314.00,99.05
2313.00,99.07
2312.00,99.07
2311.00,99.08
2310.00,99.08
2309.00,99.08
2308.00,99.08
2307.00,99.08
2306.00,99.08
2305.00,99.08
2304.00,99.07
2303.00,99.07
2302.00,99.06
2301.00,99.05
2300.00,99.04
2299.00,99.04
2298.00,99.03
2297.00,99.02
2296.00,99.01
2295.00,98.99
2294.00,98.97
2293.00,98.95
2292.00,98.93
2291.00,98.92
2290.00,98.90
2289.00,98.89
2288.00,98.87
2287.00,98.87
2286.00,98.87
2285.00,98.89
2284.00,98.91
2283.00,98.92
2282.00,98.94
2281.00,98.95
2280.00,98.96
2279.00,98.97
2278.00,98.98
2277.00,98.98
2276.00,98.98
2275.00,98.99
2274.00,98.99
2273.00,98.99
2272.00,98.99
2271.00,99.00
2270.00,99.01
2269.00,99.02
2268.00,99.03
2267.00,99.04
2266.00,99.05
2265.00,99.04
2264.00,99.03
2263.00,99.01
2262.00,98.98
2261.00,98.95
2260.00,98.92
2259.00,98.89
2258.00,98.88
2257.00,98.87
2256.00,98.86
2255.00,98.84
2254.00,98.80
2253.00,98.75
2252.00,98.68
2251.00,98.61
2250.00,98.53
2249.00,98.45
2248.00,98.36
2247.00,98.25
2246.00,98.13
2245.00,97.99
2244.00,97.83
2243.00,97.66
2242.00,97.50
2241.00,97.34
2240.00,97.21
2239.00,97.13
2238.00,97.10
2237.00,97.15
2236.00,97.26
2235.00,97.45
2234.00,97.68
2233.00,97.94
2232.00,98.18
2231.00,98.40
2230.00,98.57
2229.00,98.71
2228.00,98.81
2227.00,98.89
2226.00,98.95
2225.00,99.00
2224.00,99.03
2223.00,99.07
2222.00,99.10
2221.00,99.12
2220.00,99.13
2219.00,99.13
2218.00,99.14
2217.00,99.15
2216.00,99.16
2215.00,99.16
2214.00,99.16
2213.00,99.16
2212.00,99.16
2211.00,99.17
2210.00,99.17
2209.00,99.18
2208.00,99.19
2207.00,99.20
2206.00,99.20
2205.00,99.20
2204.00,99.20
2203.00,99.21
2202.00,99.21
2201.00,99.20
2200.00,99.20
2199.00,99.21
2198.00,99.22
2197.00,99.22
2196.00,99.22
2195.00,99.22
2194.00,99.22
2193.00,99.22
2192.00,99.20
2191.00,99.18
2190.00,99.16
2189.00,99.15
2188.00,99.15
2187.00,99.15
2186.00,99.17
2185.00,99.20
2184.00,99.24
2183.00,99.29
2182.00,99.33
2181.00,99.34
2180.00,99.33
2179.00,99.32
2178.00,99.34
2177.00,99.36
2176.00,99.37
2175.00,99.37
2174.00,99.34
2173.00,99.29
2172.00,99.23
2171.00,99.17
2170.00,99.13
2169.00,99.10
2168.00,99.09
2167.00,99.09
2166.00,99.09
2165.00,99.08
2164.00,99.05
2163.00,99.06
2162.00,99.15
2161.00,99.36
2160.00,99.63
2159.00,99.87
2158.00,100.00
2157.00,100.01
2156.00,99.96
2155.00,99.90
2154.00,99.84
2153.00,99.78
2152.00,99.73
2151.00,99.69
2150.00,99.68
2149.00,99.68
2148.00,99.68
2147.00,99.69
2146.00,99.69
2145.00,99.69
2144.00,99.68
2143.00,99.67
2142.00,99.67
2141.00,99.66
2140.00,99.65
2139.00,99.65
2138.00,99.67
2137.00,99.70
2136.00,99.74
2135.00,99.77
2134.00,99.78
2133.00,99.75
2132.00,99.70
2131.00,99.67
2130.00,99.64
2129.00,99.61
2128.00,99.58
2127.00,99.55
2126.00,99.53
2125.00,99.51
2124.00,99.48
2123.00,99.46
2122.00,99.45
2121.00,99.44
2120.00,99.42
2119.00,99.41
2118.00,99.38
2117.00,99.35
2116.00,99.32
2115.00,99.31
2114.00,99.31
2113.00,99.31
2112.00,99.31
2111.00,99.31
2110.00,99.31
2109.00,99.32
2108.00,99.32
2107.00,99.32
2106.00,99.33
2105.00,99.34
2104.00,99.34
2103.00,99.34
2102.00,99.34
2101.00,99.33
2100.00,99.33
2099.00,99.34
2098.00,99.36
2097.00,99.39
2096.00,99.42
2095.00,99.44
2094.00,99.43
2093.00,99.41
2092.00,99.39
2091.00,99.36
2090.00,99.36
2089.00,99.35
2088.00,99.35
2087.00,99.34
2086.00,99.33
2085.00,99.32
2084.00,99.31
2083.00,99.30
2082.00,99.29
2081.00,99.29
2080.00,99.29
2079.00,99.30
2078.00,99.31
2077.00,99.31
2076.00,99.31
2075.00,99.32
2074.00,99.34
2073.00,99.35
2072.00,99.35
2071.00,99.36
2070.00,99.36
2069.00,99.36
2068.00,99.36
2067.00,99.36
2066.00,99.36
2065.00,99.36
2064.00,99.35
2063.00,99.35
2062.00,99.35
2061.00,99.35
2060.00,99.35
2059.00,99.34
2058.00,99.34
2057.00,99.34
2056.00,99.34
2055.00,99.32
2054.00,99.28
2053.00,99.20
2052.00,99.13
2051.00,99.11
2050.00,99.17
2049.00,99.25
2048.00,99.31
2047.00,99.34
2046.00,99.35
2045.00,99.34
2044.00,99.34
2043.00,99.34
2042.00,99.35
2041.00,99.36
2040.00,99.36
2039.00,99.35
2038.00,99.34
2037.00,99.34
2036.00,99.37
2035.00,99.43
2034.00,99.50
2033.00,99.54
2032.00,99.55
2031.00,99.56
2030.00,99.57
2029.00,99.58
2028.00,99.57
2027.00,99.56
2026.00,99.57
2025.00,99.58
2024.00,99.59
2023.00,99.60
2022.00,99.61
2021.00,99.61
2020.00,99.59
2019.00,99.58
2018.00,99.57
2017.00,99.58
2016.00,99.58
2015.00,99.59
2014.00,99.60
2013.00,99.60
2012.00,99.57
2011.00,99.55
2010.00,99.57
2009.00,99.61
2008.00,99.66
2007.00,99.72
2006.00,99.75
2005.00,99.74
2004.00,99.70
2003.00,99.67
2002.00,99.65
2001.00,99.62
2000.00,99.59
1999.00,99.58
1998.00,99.57
1997.00,99.57
1996.00,99.55
1995.00,99.53
1994.00,99.53
1993.00,99.52
1992.00,99.50
1991.00,99.49
1990.00,99.49
1989.00,99.48
1988.00,99.46
1987.00,99.45
1986.00,99.44
1985.00,99.42
1984.00,99.37
1983.00,99.31
1982.00,99.26
1981.00,99.25
1980.00,99.32
1979.00,99.46
1978.00,99.62
1977.00,99.72
1976.00,99.76
1975.00,99.78
1974.00,99.80
1973.00,99.81
1972.00,99.80
1971.00,99.78
1970.00,99.77
1969.00,99.76
1968.00,99.76
1967.00,99.78
1966.00,99.81
1965.00,99.82
1964.00,99.82
1963.00,99.84
1962.00,99.88
1961.00,99.91
1960.00,99.93
1959.00,99.92
1958.00,99.90
1957.00,99.87
1956.00,99.84
1955.00,99.83
1954.00,99.83
1953.00,99.83
1952.00,99.83
1951.00,99.82
1950.00,99.82
1949.00,99.82
1948.00,99.82
1947.00,99.83
1946.00,99.83
1945.00,99.83
1944.00,99.82
1943.00,99.82
1942.00,99.83
1941.00,99.84
1940.00,99.84
1939.00,99.84
1938.00,99.84
1937.00,99.84
1936.00,99.82
1935.00,99.81
1934.00,99.81
1933.00,99.80
1932.00,99.79
1931.00,99.78
1930.00,99.77
1929.00,99.76
1928.00,99.74
1927.00,99.74
1926.00,99.73
1925.00,99.71
1924.00,99.68
1923.00,99.64
1922.00,99.61
1921.00,99.58
1920.00,99.57
1919.00,99.57
1918.00,99.58
1917.00,99.58
1916.00,99.56
1915.00,99.56
1914.00,99.55
1913.00,99.54
1912.00,99.53
1911.00,99.52
1910.00,99.52
1909.00,99.52
1908.00,99.51
1907.00,99.51
1906.00,99.51
1905.00,99.51
1904.00,99.50
1903.00,99.49
1902.00,99.49
1901.00,99.48
1900.00,99.48
1899.00,99.48
1898.00,99.49
1897.00,99.49
1896.00,99.48
1895.00,99.47
1894.00,99.47
1893.00,99.46
1892.00,99.45
1891.00,99.44
1890.00,99.45
1889.00,99.45
1888.00,99.45
1887.00,99.46
1886.00,99.47
1885.00,99.47
1884.00,99.46
1883.00,99.46
1882.00,99.46
1881.00,99.46
1880.00,99.46
1879.00,99.45
1878.00,99.45
1877.00,99.45
1876.00,99.45
1875.00,99.44
1874.00,99.44
1873.00,99.43
1872.00,99.41
1871.00,99.40
1870.00,99.40
1869.00,99.40
1868.00,99.39
1867.00,99.39
1866.00,99.40
1865.00,99.41
1864.00,99.41
1863.00,99.41
1862.00,99.41
1861.00,99.41
1860.00,99.40
1859.00,99.40
1858.00,99.41
1857.00,99.41
1856.00,99.40
1855.00,99.40
1854.00,99.40
1853.00,99.39
1852.00,99.38
1851.00,99.38
1850.00,99.37
1849.00,99.36
1848.00,99.34
1847.00,99.33
1846.00,99.34
1845.00,99.36
1844.00,99.37
1843.00,99.36
1842.00,99.36
1841.00,99.35
1840.00,99.35
1839.00,99.35
1838.00,99.34
1837.00,99.34
1836.00,99.33
1835.00,99.32
1834.00,99.31
1833.00,99.29
1832.00,99.27
1831.00,99.27
1830.00,99.27
1829.00,99.27
1828.00,99.26
1827.00,99.25
1826.00,99.26
1825.00,99.26
1824.00,99.26
1823.00,99.26
1822.00,99.27
1821.00,99.28
1820.00,99.29
1819.00,99.30
1818.00,99.32
1817.00,99.32
1816.00,99.30
1815.00,99.27
1814.00,99.25
1813.00,99.22
1812.00,99.20
1811.00,99.18
1810.00,99.17
1809.00,99.17
1808.00,99.16
1807.00,99.14
1806.00,99.13
1805.00,99.11
1804.00,99.08
1803.00,99.04
1802.00,99.02
1801.00,99.00
1800.00,98.97
1799.00,98.95
1798.00,98.91
1797.00,98.87
1796.00,98.82
1795.00,98.77
1794.00,98.72
1793.00,98.66
1792.00,98.60
1791.00,98.53
1790.00,98.47
1789.00,98.41
1788.00,98.35
1787.00,98.27
1786.00,98.19
1785.00,98.09
1784.00,97.99
1783.00,97.89
1782.00,97.80
1781.00,97.71
1780.00,97.62
1779.00,97.53
1778.00,97.46
1777.00,97.38
1776.00,97.29
1775.00,97.22
1774.00,97.17
1773.00,97.12
1772.00,97.05
1771.00,96.99
1770.00,96.96
1769.00,96.94
1768.00,96.95
1767.00,96.95
1766.00,96.96
1765.00,96.98
1764.00,97.00
1763.00,97.03
1762.00,97.06
1761.00,97.09
1760.00,97.11
1759.00,97.13
1758.00,97.17
1757.00,97.20
1756.00,97.22
1755.00,97.23
1754.00,97.25
1753.00,97.26
1752.00,97.26
1751.00,97.25
1750.00,97.24
1749.00,97.23
1748.00,97.22
1747.00,97.22
1746.00,97.21
1745.00,97.19
1744.00,97.16
1743.00,97.13
1742.00,97.10
1741.00,97.08
1740.00,97.05
1739.00,96.99
1738.00,96.94
1737.00,96.90
1736.00,96.88
1735.00,96.85
1734.00,96.80
1733.00,96.74
1732.00,96.69
1731.00,96.66
1730.00,96.66
1729.00,96.65
1728.00,96.65
1727.00,96.64
1726.00,96.64
1725.00,96.64
1724.00,96.64
1723.00,96.63
1722.00,96.62
1721.00,96.62
1720.00,96.62
1719.00,96.64
1718.00,96.67
1717.00,96.69
1716.00,96.71
1715.00,96.73
1714.00,96.76
1713.00,96.78
1712.00,96.79
1711.00,96.80
1710.00,96.80
1709.00,96.79
1708.00,96.77
1707.00,96.76
1706.00,96.75
1705.00,96.72
1704.00,96.68
1703.00,96.66
1702.00,96.67
1701.00,96.65
1700.00,96.59
1699.00,96.52
1698.00,96.47
1697.00,96.46
1696.00,96.43
1695.00,96.37
1694.00,96.29
1693.00,96.22
1692.00,96.14
1691.00,96.07
1690.00,95.98
1689.00,95.87
1688.00,95.78
1687.00,95.70
1686.00,95.64
1685.00,95.53
1684.00,95.36
1683.00,95.20
1682.00,95.08
1681.00,94.98
1680.00,94.87
1679.00,94.76
1678.00,94.64
1677.00,94.53
1676.00,94.38
1675.00,94.21
1674.00,94.04
1673.00,93.90
1672.00,93.77
1671.00,93.65
1670.00,93.53
1669.00,93.42
1668.00,93.31
1667.00,93.23
1666.00,93.17
1665.00,93.12
1664.00,93.07
1663.00,93.01
1662.00,92.95
1661.00,92.89
1660.00,92.84
1659.00,92.78
1658.00,92.73
1657.00,92.66
1656.00,92.61
1655.00,92.58
1654.00,92.59
1653.00,92.60
1652.00,92.56
1651.00,92.49
1650.00,92.42
1649.00,92.38
1648.00,92.36
1647.00,92.36
1646.00,92.36
1645.00,92.34
1644.00,92.31
1643.00,92.28
1642.00,92.27
1641.00,92.25
1640.00,92.24
1639.00,92.25
1638.00,92.29
1637.00,92.37
1636.00,92.49
1635.00,92.61
1634.00,92.69
1633.00,92.74
1632.00,92.77
1631.00,92.81
1630.00,92.84
1629.00,92.87
1628.00,92.89
1627.00,92.90
1626.00,92.91
1625.00,92.92
1624.00,92.93
1623.00,92.93
1622.00,92.91
1621.00,92.88
1620.00,92.84
1619.00,92.81
1618.00,92.77
1617.00,92.68
1616.00,92.55
1615.00,92.42
1614.00,92.30
1613.00,92.19
1612.00,92.08
1611.00,91.97
1610.00,91.87
1609.00,91.80
1608.00,91.74
1607.00,91.71
1606.00,91.72
1605.00,91.74
1604.00,91.79
1603.00,91.85
1602.00,91.93
1601.00,92.04
1600.00,92.15
1599.00,92.26
1598.00,92.38
1597.00,92.50
1596.00,92.62
1595.00,92.73
1594.00,92.85
1593.00,92.95
1592.00,93.04
1591.00,93.13
1590.00,93.21
1589.00,93.29
1588.00,93.36
1587.00,93.42
1586.00,93.48
1585.00,93.54
1584.00,93.59
1583.00,93.64
1582.00,93.69
1581.00,93.72
1580.00,93.74
1579.00,93.77
1578.00,93.82
1577.00,93.88
1576.00,93.94
1575.00,93.96
1574.00,93.97
1573.00,93.97
1572.00,93.99
1571.00,94.03
1570.00,94.07
1569.00,94.11
1568.00,94.14
1567.00,94.16
1566.00,94.18
1565.00,94.20
1564.00,94.21
1563.00,94.20
1562.00,94.20
1561.00,94.21
1560.00,94.20
1559.00,94.21
1558.00,94.23
1557.00,94.24
1556.00,94.24
1555.00,94.25
1554.00,94.27
1553.00,94.28
1552.00,94.28
1551.00,94.30
1550.00,94.34
1549.00,94.37
1548.00,94.40
1547.00,94.42
1546.00,94.44
1545.00,94.46
1544.00,94.48
1543.00,94.51
1542.00,94.57
1541.00,94.67
1540.00,94.80
1539.00,94.92
1538.00,94.97
1537.00,94.98
1536.00,94.99
1535.00,95.03
1534.00,95.10
1533.00,95.18
1532.00,95.25
1531.00,95.30
1530.00,95.35
1529.00,95.38
1528.00,95.42
1527.00,95.47
1526.00,95.52
1525.00,95.56
1524.00,95.59
1523.00,95.64
1522.00,95.72
1521.00,95.78
1520.00,95.82
1519.00,95.84
1518.00,95.87
1517.00,95.92
1516.00,95.98
1515.00,96.03
1514.00,96.08
1513.00,96.12
1512.00,96.14
1511.00,96.14
1510.00,96.13
1509.00,96.14
1508.00,96.19
1507.00,96.32
1506.00,96.47
1505.00,96.56
1504.00,96.57
1503.00,96.58
1502.00,96.59
1501.00,96.59
1500.00,96.58
1499.00,96.58
1498.00,96.59
1497.00,96.61
1496.00,96.62
1495.00,96.62
1494.00,96.61
1493.00,96.58
1492.00,96.55
1491.00,96.51
1490.00,96.47
1489.00,96.44
1488.00,96.41
1487.00,96.38
1486.00,96.35
1485.00,96.31
1484.00,96.24
1483.00,96.18
1482.00,96.11
1481.00,96.02
1480.00,95.91
1479.00,95.78
1478.00,95.61
1477.00,95.37
1476.00,95.02
1475.00,94.63
1474.00,94.24
1473.00,93.89
1472.00,93.65
1471.00,93.50
1470.00,93.36
1469.00,93.17
1468.00,92.92
1467.00,92.64
1466.00,92.30
1465.00,91.89
1464.00,91.51
1463.00,91.26
1462.00,91.13
1461.00,91.04
1460.00,90.93
1459.00,90.72
1458.00,90.30
1457.00,89.68
1456.00,89.07
1455.00,88.66
1454.00,88.39
1453.00,88.18
1452.00,88.01
1451.00,87.89
1450.00,87.80
1449.00,87.74
1448.00,87.70
1447.00,87.68
1446.00,87.68
1445.00,87.67
1444.00,87.66
1443.00,87.65
1442.00,87.63
1441.00,87.59
1440.00,87.56
1439.00,87.55
1438.00,87.55
1437.00,87.57
1436.00,87.62
1435.00,87.74
1434.00,87.92
1433.00,88.15
1432.00,88.44
1431.00,88.78
1430.00,89.17
1429.00,89.56
1428.00,89.90
1427.00,90.18
1426.00,90.40
1425.00,90.56
1424.00,90.67
1423.00,90.72
1422.00,90.73
1421.00,90.72
1420.00,90.69
1419.00,90.65
1418.00,90.62
1417.00,90.61
1416.00,90.60
1415.00,90.59
1414.00,90.54
1413.00,90.48
1412.00,90.41
1411.00,90.33
1410.00,90.26
1409.00,90.21
1408.00,90.17
1407.00,90.13
1406.00,90.11
1405.00,90.11
1404.00,90.12
1403.00,90.15
1402.00,90.19
1401.00,90.23
1400.00,90.28
1399.00,90.33
1398.00,90.39
1397.00,90.45
1396.00,90.52
1395.00,90.59
1394.00,90.67
1393.00,90.72
1392.00,90.77
1391.00,90.79
1390.00,90.80
1389.00,90.79
1388.00,90.77
1387.00,90.73
1386.00,90.69
1385.00,90.64
1384.00,90.57
1383.00,90.49
1382.00,90.38
1381.00,90.26
1380.00,90.13
1379.00,90.01
1378.00,89.91
1377.00,89.83
1376.00,89.77
1375.00,89.73
1374.00,89.69
1373.00,89.66
1372.00,89.63
1371.00,89.60
1370.00,89.55
1369.00,89.50
1368.00,89.46
1367.00,89.42
1366.00,89.39
1365.00,89.37
1364.00,89.37
1363.00,89.39
1362.00,89.44
1361.00,89.51
1360.00,89.60
1359.00,89.69
1358.00,89.78
1357.00,89.87
1356.00,89.96
1355.00,90.06
1354.00,90.16
1353.00,90.26
1352.00,90.35
1351.00,90.45
1350.00,90.54
1349.00,90.63
1348.00,90.73
1347.00,90.82
1346.00,90.92
1345.00,91.02
1344.00,91.12
1343.00,91.21
1342.00,91.29
1341.00,91.38
1340.00,91.47
1339.00,91.57
1338.00,91.67
1337.00,91.77
1336.00,91.86
1335.00,91.94
1334.00,92.02
1333.00,92.09
1332.00,92.15
1331.00,92.20
1330.00,92.24
1329.00,92.27
1328.00,92.29
1327.00,92.31
1326.00,92.32
1325.00,92.32
1324.00,92.32
1323.00,92.31
1322.00,92.30
1321.00,92.29
1320.00,92.27
1319.00,92.26
1318.00,92.25
1317.00,92.25
1316.00,92.25
1315.00,92.25
1314.00,92.25
1313.00,92.26
1312.00,92.28
1311.00,92.30
1310.00,92.32
1309.00,92.34
1308.00,92.37
1307.00,92.40
1306.00,92.43
1305.00,92.46
1304.00,92.50
1303.00,92.53
1302.00,92.57
1301.00,92.61
1300.00,92.65
1299.00,92.69
1298.00,92.73
1297.00,92.78
1296.00,92.82
1295.00,92.86
1294.00,92.90
1293.00,92.93
1292.00,92.97
1291.00,93.00
1290.00,93.04
1289.00,93.06
1288.00,93.09
1287.00,93.12
1286.00,93.15
1285.00,93.17
1284.00,93.19
1283.00,93.21
1282.00,93.21
1281.00,93.22
1280.00,93.21
1279.00,93.20
1278.00,93.19
1277.00,93.17
1276.00,93.15
1275.00,93.13
1274.00,93.10
1273.00,93.06
1272.00,93.02
1271.00,92.97
1270.00,92.92
1269.00,92.86
1268.00,92.80
1267.00,92.73
1266.00,92.66
1265.00,92.59
1264.00,92.53
1263.00,92.47
1262.00,92.43
1261.00,92.40
1260.00,92.37
1259.00,92.35
1258.00,92.34
1257.00,92.32
1256.00,92.30
1255.00,92.27
1254.00,92.24
1253.00,92.21
1252.00,92.17
1251.00,92.12
1250.00,92.08
1249.00,92.04
1248.00,92.01
1247.00,91.98
1246.00,91.94
1245.00,91.91
1244.00,91.88
1243.00,91.85
1242.00,91.82
1241.00,91.80
1240.00,91.77
1239.00,91.75
1238.00,91.72
1237.00,91.70
1236.00,91.68
1235.00,91.66
1234.00,91.64
1233.00,91.61
1232.00,91.59
1231.00,91.56
1230.00,91.52
1229.00,91.48
1228.00,91.44
1227.00,91.40
1226.00,91.36
1225.00,91.32
1224.00,91.28
1223.00,91.25
1222.00,91.21
1221.00,91.18
1220.00,91.15
1219.00,91.12
1218.00,91.09
1217.00,91.07
1216.00,91.05
1215.00,91.03
1214.00,91.00
1213.00,90.98
1212.00,90.95
1211.00,90.93
1210.00,90.90
1209.00,90.86
1208.00,90.81
1207.00,90.76
1206.00,90.71
1205.00,90.65
1204.00,90.59
1203.00,90.53
1202.00,90.47
1201.00,90.41
1200.00,90.35
1199.00,90.29
1198.00,90.23
1197.00,90.17
1196.00,90.11
1195.00,90.05
1194.00,90.01
1193.00,89.97
1192.00,89.95
1191.00,89.94
1190.00,89.95
1189.00,89.96
1188.00,89.97
1187.00,89.98
1186.00,89.99
1185.00,89.99
1184.00,89.99
1183.00,89.99
1182.00,89.99
1181.00,89.99
1180.00,90.00
1179.00,90.02
1178.00,90.05
1177.00,90.10
1176.00,90.17
1175.00,90.27
1174.00,90.39
1173.00,90.53
1172.00,90.68
1171.00,90.84
1170.00,91.00
1169.00,91.16
1168.00,91.32
1167.00,91.48
1166.00,91.64
1165.00,91.80
1164.00,91.96
1163.00,92.11
1162.00,92.26
1161.00,92.40
1160.00,92.54
1159.00,92.67
1158.00,92.80
1157.00,92.92
1156.00,93.04
1155.00,93.15
1154.00,93.25
1153.00,93.34
1152.00,93.43
1151.00,93.50
1150.00,93.55
1149.00,93.59
1148.00,93.60
1147.00,93.60
1146.00,93.57
1145.00,93.52
1144.00,93.44
1143.00,93.32
1142.00,93.18
1141.00,93.01
1140.00,92.82
1139.00,92.61
1138.00,92.38
1137.00,92.15
1136.00,91.92
1135.00,91.70
1134.00,91.49
1133.00,91.30
1132.00,91.14
1131.00,91.02
1130.00,90.93
1129.00,90.86
1128.00,90.82
1127.00,90.81
1126.00,90.81
1125.00,90.82
1124.00,90.84
1123.00,90.86
1122.00,90.87
1121.00,90.88
1120.00,90.90
1119.00,90.90
1118.00,90.90
1117.00,90.89
1116.00,90.87
1115.00,90.85
1114.00,90.82
1113.00,90.80
1112.00,90.78
1111.00,90.77
1110.00,90.76
1109.00,90.75
1108.00,90.75
1107.00,90.74
1106.00,90.74
1105.00,90.73
1104.00,90.71
1103.00,90.69
1102.00,90.67
1101.00,90.65
1100.00,90.62
1099.00,90.59
1098.00,90.57
1097.00,90.54
1096.00,90.51
1095.00,90.48
1094.00,90.45
1093.00,90.42
1092.00,90.40
1091.00,90.39
1090.00,90.38
1089.00,90.37
1088.00,90.36
1087.00,90.35
1086.00,90.35
1085.00,90.35
1084.00,90.36
1083.00,90.37
1082.00,90.39
1081.00,90.42
1080.00,90.45
1079.00,90.49
1078.00,90.53
1077.00,90.57
1076.00,90.61
1075.00,90.65
1074.00,90.70
1073.00,90.74
1072.00,90.78
1071.00,90.82
1070.00,90.85
1069.00,90.87
1068.00,90.89
1067.00,90.90
1066.00,90.90
1065.00,90.89
1064.00,90.87
1063.00,90.84
1062.00,90.79
1061.00,90.74
1060.00,90.68
1059.00,90.61
1058.00,90.54
1057.00,90.46
1056.00,90.38
1055.00,90.30
1054.00,90.23
1053.00,90.16
1052.00,90.09
1051.00,90.03
1050.00,89.98
1049.00,89.94
1048.00,89.90
1047.00,89.88
1046.00,89.87
1045.00,89.89
1044.00,89.92
1043.00,89.96
1042.00,90.02
1041.00,90.09
1040.00,90.16
1039.00,90.24
1038.00,90.33
1037.00,90.43
1036.00,90.54
1035.00,90.66
1034.00,90.80
1033.00,90.94
1032.00,91.08
1031.00,91.21
1030.00,91.33
1029.00,91.44
1028.00,91.54
1027.00,91.63
1026.00,91.71
1025.00,91.78
1024.00,91.84
1023.00,91.88
1022.00,91.92
1021.00,91.94
1020.00,91.93
1019.00,91.89
1018.00,91.79
1017.00,91.64
1016.00,91.45
1015.00,91.23
1014.00,91.03
1013.00,90.86
1012.00,90.75
1011.00,90.71
1010.00,90.75
1009.00,90.83
1008.00,90.93
1007.00,91.03
1006.00,91.10
1005.00,91.13
1004.00,91.13
1003.00,91.09
1002.00,91.03
1001.00,90.95
1000.00,90.85
999.00,90.75
998.00,90.65
997.00,90.57
996.00,90.49
995.00,90.43
994.00,90.38
993.00,90.33
992.00,90.27
991.00,90.17
990.00,90.02
989.00,89.81
988.00,89.53
987.00,89.16
986.00,88.71
985.00,88.17
984.00,87.54
983.00,86.82
982.00,86.02
981.00,85.11
980.00,84.13
979.00,83.07
978.00,81.95
977.00,80.78
976.00,79.57
975.00,78.35
974.00,77.14
973.00,75.98
972.00,74.87
971.00,73.88
970.00,73.04
969.00,72.39
968.00,71.98
967.00,71.87
966.00,72.09
965.00,72.66
964.00,73.59
963.00,74.86
962.00,76.39
961.00,78.11
960.00,79.90
959.00,81.66
958.00,83.32
957.00,84.81
956.00,86.11
955.00,87.22
954.00,88.15
953.00,88.93
952.00,89.57
951.00,90.11
950.00,90.56
949.00,90.93
948.00,91.24
947.00,91.50
946.00,91.72
945.00,91.90
944.00,92.04
943.00,92.15
942.00,92.23
941.00,92.29
940.00,92.31
939.00,92.31
938.00,92.29
937.00,92.25
936.00,92.19
935.00,92.11
934.00,92.00
933.00,91.88
932.00,91.75
931.00,91.59
930.00,91.43
929.00,91.25
928.00,91.06
927.00,90.87
926.00,90.67
925.00,90.48
924.00,90.29
923.00,90.12
922.00,89.96
921.00,89.82
920.00,89.71
919.00,89.62
918.00,89.57
917.00,89.55
916.00,89.57
915.00,89.64
914.00,89.76
913.00,89.91
912.00,90.11
911.00,90.35
910.00,90.62
909.00,90.91
908.00,91.22
907.00,91.54
906.00,91.86
905.00,92.17
904.00,92.46
903.00,92.73
902.00,92.98
901.00,93.20
900.00,93.40
899.00,93.57
898.00,93.73
897.00,93.86
896.00,93.96
895.00,94.05
894.00,94.13
893.00,94.19
892.00,94.24
891.00,94.28
890.00,94.32
889.00,94.36
888.00,94.41
887.00,94.45
886.00,94.50
885.00,94.54
884.00,94.58
883.00,94.62
882.00,94.66
881.00,94.70
880.00,94.73
879.00,94.76
878.00,94.79
877.00,94.82
876.00,94.85
875.00,94.87
874.00,94.89
873.00,94.92
872.00,94.95
871.00,94.97
870.00,94.99
869.00,95.01
868.00,95.01
867.00,95.01
866.00,95.01
865.00,95.01
864.00,95.00
863.00,94.99
862.00,94.98
861.00,94.98
860.00,94.98
859.00,94.98
858.00,94.97
857.00,94.97
856.00,94.96
855.00,94.95
854.00,94.93
853.00,94.92
852.00,94.89
851.00,94.86
850.00,94.83
849.00,94.79
848.00,94.75
847.00,94.70
846.00,94.64
845.00,94.59
844.00,94.54
843.00,94.48
842.00,94.41
841.00,94.34
840.00,94.25
839.00,94.17
838.00,94.07
837.00,93.95
836.00,93.82
835.00,93.69
834.00,93.58
833.00,93.51
832.00,93.50
831.00,93.53
830.00,93.56
829.00,93.59
828.00,93.62
827.00,93.64
826.00,93.67
825.00,93.70
824.00,93.74
823.00,93.79
822.00,93.84
821.00,93.89
820.00,93.94
819.00,93.97
818.00,93.99
817.00,94.00
816.00,94.00
815.00,93.99
814.00,93.97
813.00,93.94
812.00,93.91
811.00,93.88
810.00,93.84
809.00,93.80
808.00,93.76
807.00,93.72
806.00,93.68
805.00,93.64
804.00,93.61
803.00,93.57
802.00,93.54
801.00,93.51
800.00,93.47
799.00,93.44
798.00,93.40
797.00,93.37
796.00,93.33
795.00,93.30
794.00,93.26
793.00,93.23
792.00,93.19
791.00,93.16
790.00,93.14
789.00,93.12
788.00,93.10
787.00,93.08
786.00,93.06
785.00,93.04
784.00,93.01
783.00,92.99
782.00,92.96
781.00,92.93
780.00,92.90
779.00,92.86
778.00,92.83
777.00,92.79
776.00,92.75
775.00,92.71
774.00,92.68
773.00,92.64
772.00,92.58
771.00,92.53
770.00,92.48
769.00,92.43
768.00,92.40
767.00,92.37
766.00,92.35
765.00,92.32
764.00,92.30
763.00,92.27
762.00,92.24
761.00,92.20
760.00,92.16
759.00,92.12
758.00,92.09
757.00,92.05
756.00,92.01
755.00,91.97
754.00,91.93
753.00,91.91
752.00,91.88
751.00,91.86
750.00,91.83
749.00,91.80
748.00,91.77
747.00,91.74
746.00,91.70
745.00,91.66
744.00,91.61
743.00,91.56
742.00,91.51
741.00,91.46
740.00,91.40
739.00,91.32
738.00,91.24
737.00,91.15
736.00,91.05
735.00,90.93
734.00,90.79
733.00,90.60
732.00,90.39
731.00,90.17
730.00,90.03
729.00,89.98
728.00,90.01
727.00,90.05
726.00,90.07
725.00,90.03
724.00,89.93
723.00,89.77
722.00,89.58
721.00,89.40
720.00,89.29
719.00,89.31
718.00,89.47
717.00,89.66
716.00,89.82
715.00,89.91
714.00,89.94
713.00,89.93
712.00,89.90
711.00,89.86
710.00,89.80
709.00,89.74
708.00,89.66
707.00,89.56
706.00,89.46
705.00,89.35
704.00,89.23
703.00,89.09
702.00,88.95
701.00,88.79
700.00,88.62
699.00,88.45
698.00,88.28
697.00,88.11
696.00,87.93
695.00,87.76
694.00,87.61
693.00,87.47
692.00,87.35
691.00,87.25
690.00,87.17
689.00,87.11
688.00,87.09
687.00,87.09
686.00,87.12
685.00,87.16
684.00,87.20
683.00,87.24
682.00,87.29
681.00,87.33
680.00,87.37
679.00,87.41
678.00,87.43
677.00,87.45
676.00,87.45
675.00,87.46
674.00,87.48
673.00,87.52
672.00,87.57
671.00,87.61
670.00,87.67
669.00,87.72
668.00,87.78
667.00,87.85
666.00,87.94
665.00,88.03
664.00,88.08
663.00,88.12
662.00,88.14
661.00,88.16
660.00,88.17
659.00,88.18
658.00,88.19
657.00,88.19
656.00,88.20
655.00,88.20
654.00,88.22
653.00,88.23
652.00,88.25
651.00,88.28
650.00,88.31
649.00,88.34
648.00,88.37
647.00,88.40
646.00,88.44
645.00,88.47
644.00,88.50
643.00,88.52
642.00,88.54
641.00,88.55
640.00,88.54
639.00,88.52
638.00,88.49
637.00,88.46
636.00,88.43
635.00,88.42
634.00,88.42
633.00,88.41
632.00,88.39
631.00,88.36
630.00,88.33
629.00,88.29
628.00,88.24
627.00,88.20
626.00,88.15
625.00,88.10
624.00,88.05
623.00,87.99
622.00,87.93
621.00,87.88
620.00,87.82
619.00,87.77
618.00,87.73
617.00,87.69
616.00,87.64
615.00,87.60
614.00,87.55
613.00,87.50
612.00,87.44
611.00,87.39
610.00,87.35
609.00,87.32
608.00,87.30
607.00,87.30
606.00,87.34
605.00,87.40
604.00,87.47
603.00,87.55
602.00,87.62
601.00,87.69
600.00,87.72
599.00,87.74
598.00,87.75
597.00,87.73
596.00,87.70
595.00,87.64
594.00,87.57
593.00,87.49
592.00,87.39
591.00,87.29
590.00,87.20
589.00,87.10
588.00,87.00
587.00,86.90
586.00,86.81
585.00,86.74
584.00,86.69
583.00,86.67
582.00,86.69
581.00,86.73
580.00,86.80
579.00,86.88
578.00,86.97
577.00,87.06
576.00,87.13
575.00,87.19
574.00,87.25
573.00,87.29
572.00,87.31
571.00,87.32
570.00,87.33
569.00,87.33
568.00,87.33
567.00,87.33
566.00,87.33
565.00,87.32
564.00,87.30
563.00,87.28
562.00,87.26
561.00,87.23
560.00,87.20
559.00,87.17
558.00,87.15
557.00,87.13
556.00,87.11
555.00,87.08
554.00,87.05
553.00,87.03
552.00,87.02
551.00,87.01
550.00,87.02
549.00,87.02
548.00,87.01
547.00,87.00
546.00,87.01
545.00,87.04
544.00,87.07
543.00,87.10
542.00,87.15
541.00,87.19
540.00,87.23
539.00,87.26
538.00,87.30
537.00,87.33
536.00,87.37
535.00,87.40
534.00,87.44
533.00,87.47
532.00,87.50
531.00,87.54
530.00,87.58
529.00,87.63
528.00,87.66
527.00,87.69
526.00,87.72
525.00,87.75
524.00,87.77
523.00,87.79
522.00,87.81
521.00,87.83
520.00,87.84
519.00,87.86
518.00,87.88
517.00,87.91
516.00,87.94
515.00,87.98
514.00,88.03
513.00,88.08
512.00,88.13
511.00,88.17
510.00,88.20
509.00,88.22
508.00,88.23
507.00,88.24
506.00,88.27
505.00,88.30
504.00,88.32
503.00,88.36
502.00,88.40
501.00,88.44
500.00,88.47
499.00,88.49
498.00,88.52
497.00,88.54
496.00,88.55
495.00,88.57
494.00,88.57
493.00,88.57
492.00,88.57
491.00,88.58
490.00,88.60
489.00,88.61
488.00,88.60
487.00,88.60
486.00,88.60
485.00,88.61
484.00,88.62
483.00,88.63
482.00,88.64
481.00,88.65
480.00,88.64
479.00,88.62
478.00,88.59
477.00,88.55
476.00,88.51
475.00,88.49
474.00,88.49
473.00,88.47
472.00,88.44
471.00,88.42
470.00,88.43
469.00,88.44
468.00,88.43
467.00,88.42
466.00,88.44
465.00,88.46
464.00,88.48
463.00,88.49
462.00,88.49
461.00,88.47
460.00,88.44
459.00,88.42
458.00,88.43
457.00,88.45
456.00,88.48
455.00,88.50
454.00,88.51
453.00,88.50
452.00,88.47
451.00,88.45
450.00,88.43
449.00,88.39
448.00,88.33
447.00,88.27
446.00,88.23
445.00,88.19
444.00,88.14
443.00,88.09
442.00,88.04
441.00,87.97
440.00,87.88
439.00,87.78
438.00,87.71
437.00,87.63
436.00,87.55
435.00,87.48
434.00,87.42
433.00,87.34
432.00,87.22
431.00,87.10
430.00,87.00
429.00,86.92
428.00,86.84
427.00,86.79
426.00,86.75
425.00,86.72
424.00,86.67
423.00,86.65
422.00,86.66
421.00,86.66
420.00,86.60
419.00,86.52
418.00,86.51
417.00,86.52
416.00,86.54
415.00,86.59
414.00,86.65
413.00,86.67
412.00,86.62
411.00,86.57
410.00,86.59
409.00,86.64
408.00,86.68
407.00,86.69
406.00,86.70
405.00,86.66
404.00,86.58
403.00,86.53
402.00,86.54
401.00,86.56
400.00,86.62
