# IR Spectrum
# X-Axis:  Frequency (cm-1)
# Y-Axis:  &epsilon; (M-1 cm-1)

# Peak information
#                  X                   Y
#      43.7397000000        0.0000000000
#     167.7732000000       36.4667291669
#     254.8035000000       21.0583429861
#     397.6206000000        9.9689635101
#     414.6710000000        0.0000000000
#     443.6486000000       11.0029123347
#     525.0068000000       19.4604083796
#     626.2298000000        1.0619624710
#     682.3710000000      150.1349341026
#     696.3586000000      106.1624344092
#     723.8736000000      640.1543696607
#     816.7574000000       53.6384090301
#     848.3238000000        0.0000000000
#     863.6366000000      220.0473312902
#     959.7167000000       16.3330910536
#    1000.9130000000        0.0000000000
#    1020.4988000000        6.5214312210
#    1021.1299000000        0.0058602692
#    1038.9006000000       58.8467456158
#    1100.7558000000       59.6001776512
#    1115.8548000000      323.3748680126
#    1183.7536000000        7.9386660408
#    1192.6544000000       28.1178474730
#    1342.4635000000        4.7731428801
#    1347.1817000000      122.8417647465
#    1350.7330000000     1985.3585318773
#    1482.7600000000      222.2448637186
#    1512.3059000000       26.6212032613
#    1529.6357000000     1246.7872109273
#    1622.8136000000       39.2979883497
#    1639.4617000000       41.1935891461
#    3184.3177000000        1.4421285106
#    3196.1003000000       13.5834968063
#    3203.6922000000       13.2518249238
#    3229.1633000000        0.3616096522
#    3229.3723000000        7.4556935109

# Spectra
#                  X                   Y               DY/DX
        0.0000000000        0.0000000000        0.0000000000
        7.0000000000        0.0000000000        0.0000000000
       14.0000000000        0.0035838639        0.0000465808
       21.0000000000        0.0039336038        0.0000535613
       28.0000000000        0.0043371379        0.0000620089
       35.0000000000        0.0048060883        0.0000723298
       42.0000000000        0.0053553926        0.0000850735
       49.0000000000        0.0060045072        0.0001009942
       56.0000000000        0.0067791519        0.0001211468
       63.0000000000        0.0077138932        0.0001470350
       70.0000000000        0.0088560619        0.0001808525
       77.0000000000        0.0102718529        0.0002258804
       84.0000000000        0.0120561144        0.0002871728
       91.0000000000        0.0143486145        0.0003727803
       98.0000000000        0.0203850744        0.0005345759
      105.0000000000        0.0247455454        0.0007243170
      112.0000000000        0.0307665194        0.0010186149
      119.0000000000        0.0394397538        0.0015016358
      126.0000000000        0.0526342457        0.0023541026
      133.0000000000        0.0742238805        0.0040111594
      140.0000000000        0.1133417388        0.0076965376
      147.0000000000        0.1958817205        0.0177099358
      154.0000000000        0.4195666763        0.0553523097
      161.0000000000        1.3789485008        0.3002219857
      168.0000000000        5.2929958076       -0.1490707587
      175.0000000000        1.2545958360       -0.2630232255
      182.0000000000        0.4022742422       -0.0502029498
      189.0000000000        0.1988663199       -0.0160194736
      196.0000000000        0.1257488657       -0.0065225786
      203.0000000000        0.0950174753       -0.0027244005
      210.0000000000        0.0838931893       -0.0005847980
      217.0000000000        0.0862308975        0.0012894645
      224.0000000000        0.1037709601        0.0039772368
      231.0000000000        0.1487845727        0.0097655828
      238.0000000000        0.2685699073        0.0276188434
      245.0000000000        0.6799416626        0.1156891613
      252.0000000000        3.1316348890        0.7322747609
      259.0000000000        2.2258177176       -0.5527435082
      266.0000000000        0.5380636781       -0.0834726736
      273.0000000000        0.2254443293       -0.0225528346
      280.0000000000        0.1249598684       -0.0088995372
      287.0000000000        0.0838541771       -0.0043060431
      294.0000000000        0.0613551077       -0.0023647610
      301.0000000000        0.0485614266       -0.0013900297
      308.0000000000        0.0409437444       -0.0008322531
      315.0000000000        0.0364578922       -0.0004716465
      322.0000000000        0.0341240397       -0.0002052555
      329.0000000000        0.0302404270        0.0000652959
      336.0000000000        0.0314930186        0.0002973562
      343.0000000000        0.0345278557        0.0005835216
      350.0000000000        0.0399514114        0.0009956842
      357.0000000000        0.0490806467        0.0016762974
      364.0000000000        0.0647957276        0.0029638560
      371.0000000000        0.1000678936        0.0059040820
      378.0000000000        0.1641083518        0.0138943957
      385.0000000000        0.3446362454        0.0458395335
      392.0000000000        1.1916209747        0.2737214052
      399.0000000000        3.1150806701       -0.4713313521
      406.0000000000        0.6977154901       -0.1212725745
      413.0000000000        0.3026375428       -0.0217933056
      420.0000000000        0.2367467299        0.0007082401
      427.0000000000        0.3079974285        0.0223340589
      434.0000000000        0.6782770748        0.1078482722
      441.0000000000        2.9887967640        0.6757883129
      448.0000000000        1.9820938840       -0.4827117931
      455.0000000000        0.5125001290       -0.0729625937
      462.0000000000        0.2405290704       -0.0192398675
      469.0000000000        0.1587585637       -0.0066064399
      476.0000000000        0.1315761850       -0.0017240520
      483.0000000000        0.1307483411        0.0014076275
      490.0000000000        0.1522505619        0.0049625150
      497.0000000000        0.2066757303        0.0113981472
      504.0000000000        0.3336419203        0.0277612164
      511.0000000000        0.6872130304        0.0876062175
      518.0000000000        2.1922554759        0.4679578200
      525.0000000000        8.9225864759        0.0079654384
      532.0000000000        2.2573422649       -0.4695554714
      539.0000000000        0.7903555196       -0.0870196966
      546.0000000000        0.4420241063       -0.0269090855
      553.0000000000        0.3213217645       -0.0104821337
      560.0000000000        0.2710298410       -0.0041095920
      567.0000000000        0.5152000961        0.0023727973
      574.0000000000        0.5408015987        0.0048423761
      581.0000000000        0.5822770985        0.0069943710
      588.0000000000        0.6389450319        0.0092395305
      595.0000000000        0.7126332098        0.0119187148
      602.0000000000        0.8079398883        0.0155320570
      609.0000000000        0.9326245802        0.0214319311
      616.0000000000        1.1241473473        0.0363604694
      623.0000000000        1.5845663674        0.1160136329
      630.0000000000        1.7920445541       -0.0344027870
      637.0000000000        1.9043672227        0.0475638988
      644.0000000000        2.3677194272        0.0852466968
      651.0000000000        3.1433988008        0.1423928430
      658.0000000000        4.5328019245        0.2658113518
      665.0000000000        7.3784501297        0.6152727938
      672.0000000000       15.5869769851        2.1548181291
      679.0000000000       58.3288030385       13.2793655853
      686.0000000000       61.4577758470      -10.4847242347
      693.0000000000       55.2402862074        7.8569156514
      700.0000000000       50.3735162992       -8.2914969152
      707.0000000000       31.7271346730        0.9130512554
      714.0000000000       61.3006475607        9.4258763908
      721.0000000000      267.5635017259       62.5579194683
      728.0000000000      196.3798144610      -48.6834569938
      735.0000000000       47.3840617949       -7.3628568333
      742.0000000000       19.8132797928       -1.9899418342
      749.0000000000       10.9411076100       -0.7863214273
      756.0000000000        7.0674748226       -0.3827528214
      763.0000000000        5.0691428693       -0.2094399093
      770.0000000000        3.9452709707       -0.1201548723
      777.0000000000        3.3092592111       -0.0649344022
      784.0000000000        3.0114835524       -0.0203898864
      791.0000000000        3.0462325223        0.0346361931
      798.0000000000        3.6306214696        0.1517193770
      805.0000000000        5.8632463256        0.5991714498
      812.0000000000       17.6963349876        3.8877977406
      819.0000000000       31.0507759962       -6.1173546087
      826.0000000000        8.5825069165       -1.0082657952
      833.0000000000        5.5989823751       -0.0860885867
      840.0000000000        6.2728715714        0.2764524604
      847.0000000000       10.1349478450        0.9729110147
      854.0000000000       25.0687344204        4.2547482394
      861.0000000000      115.4427262211       26.3499184733
      868.0000000000       75.7446031420      -18.7357633759
      875.0000000000       18.6441742041       -2.8513810440
      882.0000000000        7.9314666105       -0.7815830454
      889.0000000000        4.1976269865       -0.3087963689
      896.0000000000        2.6742693509       -0.1508627196
      903.0000000000        1.8838223969       -0.0833574554
      910.0000000000        1.4319169781       -0.0491587191
      917.0000000000        1.1637833703       -0.0289058825
      924.0000000000        1.0146915444       -0.0141034487
      931.0000000000        0.9675506573        0.0013337507
      938.0000000000        1.0584403901        0.0282435338
      945.0000000000        1.5175367193        0.1108580751
      952.0000000000        3.4184190218        0.5831164603
      959.0000000000       13.8811610392        1.1428795152
      966.0000000000        4.6569161981       -0.8831197488
      973.0000000000        1.9093783907       -0.1483148629
      980.0000000000        1.3345711213       -0.0356257687
      987.0000000000        1.2236134959       -0.0006518645
      994.0000000000        1.2989344511        0.0220520773
     1001.0000000000        1.5521355252        0.0537043380
     1008.0000000000        2.1626165977        0.1380338130
     1015.0000000000        4.2395431010        0.6008758483
     1022.0000000000        8.7415758979       -0.5042567476
     1029.0000000000        9.3661212352        1.1079825115
     1036.0000000000       36.1307459054        8.2298326597
     1043.0000000000       27.2771803758       -6.4363724246
     1050.0000000000        7.7484184542       -0.9294468390
     1057.0000000000        4.4993116954       -0.1935481545
     1064.0000000000        3.9315050520        0.0027275350
     1071.0000000000        4.3800251451        0.1249810385
     1078.0000000000        5.7939715859        0.2974222890
     1085.0000000000        9.0931031032        0.7228152473
     1092.0000000000       18.7526282505        2.5410105609
     1099.0000000000       64.6499038111       10.6344417349
     1106.0000000000       65.4124425631        2.6601600106
     1113.0000000000      212.8563374453       48.1531665731
     1120.0000000000      153.3377851618      -37.8921132688
     1127.0000000000       37.2252110647       -5.7646201892
     1134.0000000000       15.5852166838       -1.5662889077
     1141.0000000000        8.6023302000       -0.6176049078
     1148.0000000000        5.5796241355       -0.2945939901
     1155.0000000000        4.0842206812       -0.1481879131
     1162.0000000000        3.3857891670       -0.0542302548
     1169.0000000000        3.3746957204        0.0643803536
     1176.0000000000        4.8811817508        0.4779897160
     1183.0000000000       13.4020276158        1.4311693233
     1190.0000000000       23.6916252382        4.0823700603
     1197.0000000000       16.5720531402       -3.4131283580
     1204.0000000000        6.0867460613       -0.5237255628
     1211.0000000000        4.1472568113       -0.1333811370
     1218.0000000000        3.6111742053       -0.0372022815
     1225.0000000000        3.5003503018        0.0010321070
     1232.0000000000        3.5894516680        0.0230265543
     1239.0000000000        3.8118372115        0.0401691132
     1246.0000000000        4.1509478606        0.0568856845
     1253.0000000000        4.6132156071        0.0757286059
     1260.0000000000        5.2213420030        0.0989569931
     1267.0000000000        5.9823122887        0.1297284208
     1274.0000000000        7.0276314265        0.1712400316
     1281.0000000000        8.2372896910        0.2326444410
     1288.0000000000       10.1515164176        0.3204061026
     1295.0000000000       12.8367304614        0.4575320687
     1302.0000000000       16.7632924676        0.6844909585
     1309.0000000000       22.8249297186        1.0887794815
     1316.0000000000       32.8910067273        1.8830555481
     1323.0000000000       51.5995330250        3.6759390255
     1330.0000000000       91.4833802395        8.6448538999
     1337.0000000000      203.0251615839       28.1153731208
     1344.0000000000      698.9396635036      153.6410123243
     1351.0000000000     2389.1291266757      -95.7694806297
     1358.0000000000      558.0963179459     -116.9411491420
     1365.0000000000      176.7065495171      -22.7476775412
     1372.0000000000       84.5682633560       -7.4807543490
     1379.0000000000       49.5217355356       -3.2809876068
     1386.0000000000       32.8607806858       -1.7025203879
     1393.0000000000       23.7601277949       -0.9815198472
     1400.0000000000       18.3387468220       -0.6042061512
     1407.0000000000       14.9405787217       -0.3845789027
     1414.0000000000       12.7735434840       -0.2437836820
     1421.0000000000       11.4341323381       -0.1435549946
     1428.0000000000       10.7203218542       -0.0621264677
     1435.0000000000       10.5579278186        0.0166004145
     1442.0000000000       10.9878769226        0.1108011758
     1449.0000000000       12.2179750674        0.2530310706
     1456.0000000000       14.8249168959        0.5267143123
     1463.0000000000       20.5543993453        1.2242078460
     1470.0000000000       36.0573655013        3.8611835639
     1477.0000000000      105.3200294124       22.1020892213
     1484.0000000000      276.0284617355      -36.2668768881
     1491.0000000000       75.2470400685       -9.7162976794
     1498.0000000000       48.8451893220       -0.3363920388
     1505.0000000000       61.1932151014        4.2519400907
     1512.0000000000      120.8818944392        9.6868240122
     1519.0000000000      217.4882159070       31.5229116323
     1526.0000000000      910.0469783342      224.6748905449
     1533.0000000000      970.8786960885     -238.5138356324
     1540.0000000000      216.5068335622      -36.0665623978
     1547.0000000000       85.0753458829       -9.1595750655
     1554.0000000000       44.8911369836       -3.4978970711
     1561.0000000000       27.8017259358       -1.6763493745
     1568.0000000000       19.0487461415       -0.9216317125
     1575.0000000000       14.0316642773       -0.5508101764
     1582.0000000000       10.9698040360       -0.3412542382
     1589.0000000000        9.0935445660       -0.2016243682
     1596.0000000000        8.1096510962       -0.0775660440
     1603.0000000000        8.1392621376        0.1077096733
     1610.0000000000       10.3877159761        0.6613158971
     1617.0000000000       23.3092290773        4.2160700847
     1624.0000000000       57.6862786633       -6.5434744354
     1631.0000000000       24.1497047043       -0.0896428083
     1638.0000000000       57.6703411011        7.8336480473
     1645.0000000000       23.8112015312       -4.9465726748
     1652.0000000000        8.2151038708       -0.8801434717
     1659.0000000000        4.6243675487       -0.2923609130
     1666.0000000000        3.2134851071       -0.1384650740
     1673.0000000000        2.4544171504       -0.0799698658
     1680.0000000000        2.0014547504       -0.0524541259
     1687.0000000000        1.6918126993       -0.0373657133
     1694.0000000000        0.4869146630       -0.0162878052
     1701.0000000000        0.3903688547       -0.0116456967
     1708.0000000000        0.3201406879       -0.0086228615
     1715.0000000000        0.2674127721       -0.0065674412
     1722.0000000000        0.2267893643       -0.0051198121
     1729.0000000000        0.1948130467       -0.0040700776
     1736.0000000000        0.1691827666       -0.0032899195
     1743.0000000000        0.1483175566       -0.0026977857
     1750.0000000000        0.1311013517       -0.0022401068
     1757.0000000000        0.1167276505       -0.0018806797
     1764.0000000000        0.1046016584       -0.0015944243
     1771.0000000000        0.0942767840       -0.0013635842
     1778.0000000000        0.0854123410       -0.0011753434
     1785.0000000000        0.0441606602       -0.0006064016
     1792.0000000000        0.0402033040       -0.0005267618
     1799.0000000000        0.0367548999       -0.0004604764
     1806.0000000000        0.0000000000        0.0000000000
     1813.0000000000        0.0000000000        0.0000000000
     1820.0000000000        0.0000000000        0.0000000000
     1827.0000000000        0.0000000000        0.0000000000
     1834.0000000000        0.0000000000        0.0000000000
     1841.0000000000        0.0000000000        0.0000000000
     1848.0000000000        0.0000000000        0.0000000000
     1855.0000000000        0.0000000000        0.0000000000
     1862.0000000000        0.0000000000        0.0000000000
     1869.0000000000        0.0000000000        0.0000000000
     1876.0000000000        0.0000000000        0.0000000000
     1883.0000000000        0.0000000000        0.0000000000
     1890.0000000000        0.0000000000        0.0000000000
     1897.0000000000        0.0000000000        0.0000000000
     1904.0000000000        0.0000000000        0.0000000000
     1911.0000000000        0.0000000000        0.0000000000
     1918.0000000000        0.0000000000        0.0000000000
     1925.0000000000        0.0000000000        0.0000000000
     1932.0000000000        0.0000000000        0.0000000000
     1939.0000000000        0.0000000000        0.0000000000
     1946.0000000000        0.0000000000        0.0000000000
     1953.0000000000        0.0000000000        0.0000000000
     1960.0000000000        0.0000000000        0.0000000000
     1967.0000000000        0.0000000000        0.0000000000
     1974.0000000000        0.0000000000        0.0000000000
     1981.0000000000        0.0000000000        0.0000000000
     1988.0000000000        0.0000000000        0.0000000000
     1995.0000000000        0.0000000000        0.0000000000
     2002.0000000000        0.0000000000        0.0000000000
     2009.0000000000        0.0000000000        0.0000000000
     2016.0000000000        0.0000000000        0.0000000000
     2023.0000000000        0.0000000000        0.0000000000
     2030.0000000000        0.0000000000        0.0000000000
     2037.0000000000        0.0000000000        0.0000000000
     2044.0000000000        0.0000000000        0.0000000000
     2051.0000000000        0.0000000000        0.0000000000
     2058.0000000000        0.0000000000        0.0000000000
     2065.0000000000        0.0000000000        0.0000000000
     2072.0000000000        0.0000000000        0.0000000000
     2079.0000000000        0.0000000000        0.0000000000
     2086.0000000000        0.0000000000        0.0000000000
     2093.0000000000        0.0000000000        0.0000000000
