# Raman Activity Spectrum
# X-Axis:  Frequency (cm-1)
# Y-Axis:  Intensity

# Peak information
#                  X                   Y
#      43.7397000000        0.0000000000
#     167.7732000000        3.0880000000
#     254.8035000000        0.9003000000
#     397.6206000000        2.3812000000
#     414.6710000000        0.0081000000
#     443.6486000000        0.0158000000
#     525.0068000000        5.0010000000
#     626.2298000000       14.1026000000
#     682.3710000000        0.1002000000
#     696.3586000000        2.2197000000
#     723.8736000000        0.2776000000
#     816.7574000000        4.9117000000
#     848.3238000000        4.1485000000
#     863.6366000000       40.8484000000
#     959.7167000000        0.9756000000
#    1000.9130000000        0.0034000000
#    1020.4988000000      110.3542000000
#    1021.1299000000        0.2084000000
#    1038.9006000000       34.6076000000
#    1100.7558000000        0.0477000000
#    1115.8548000000      204.6787000000
#    1183.7536000000       14.8817000000
#    1192.6544000000        3.5875000000
#    1342.4635000000        0.0111000000
#    1347.1817000000        9.4761000000
#    1350.7330000000      950.7186000000
#    1482.7600000000        5.3656000000
#    1512.3059000000        5.0695000000
#    1529.6357000000       44.0949000000
#    1622.8136000000      294.1947000000
#    1639.4617000000        1.0793000000
#    3184.3177000000      124.2194000000
#    3196.1003000000      189.9179000000
#    3203.6922000000      374.6540000000
#    3229.1633000000       27.0959000000
#    3229.3723000000      379.4435000000

# Spectra
#                  X                   Y               DY/DX
        0.0000000000        0.0000000000        0.0000000000
        7.0000000000        0.0000000000        0.0000000000
       14.0000000000        0.0001618097        0.0000021031
       21.0000000000        0.0001776003        0.0000024183
       28.0000000000        0.0001958196        0.0000027997
       35.0000000000        0.0002169925        0.0000032657
       42.0000000000        0.0002417933        0.0000038410
       49.0000000000        0.0002711005        0.0000045598
       56.0000000000        0.0003060754        0.0000054697
       63.0000000000        0.0003482785        0.0000066386
       70.0000000000        0.0003998468        0.0000081654
       77.0000000000        0.0004637691        0.0000101984
       84.0000000000        0.0005443276        0.0000129657
       91.0000000000        0.0006478329        0.0000168308
       98.0000000000        0.0008284227        0.0000229638
      105.0000000000        0.0010165078        0.0000313585
      112.0000000000        0.0012782413        0.0000444387
      119.0000000000        0.0016581215        0.0000659947
      126.0000000000        0.0022401757        0.0001041732
      133.0000000000        0.0031988457        0.0001786034
      140.0000000000        0.0049458789        0.0003445118
      147.0000000000        0.0086495624        0.0007959933
      154.0000000000        0.0187209353        0.0024947260
      161.0000000000        0.0620022001        0.0135494128
      168.0000000000        0.2386765388       -0.0067373601
      175.0000000000        0.0562900382       -0.0118842274
      182.0000000000        0.0177369366       -0.0022782936
      189.0000000000        0.0084581674       -0.0007390344
      196.0000000000        0.0050262457       -0.0003165394
      203.0000000000        0.0034519583       -0.0001551679
      210.0000000000        0.0026696129       -0.0000759210
      217.0000000000        0.0023277497       -0.0000236890
      224.0000000000        0.0023404438        0.0000298547
      231.0000000000        0.0028343833        0.0001236029
      238.0000000000        0.0045559866        0.0003930224
      245.0000000000        0.0105330746        0.0016941439
      252.0000000000        0.0465876735        0.0107794886
      259.0000000000        0.0332012172       -0.0081474664
      266.0000000000        0.0083086482       -0.0012332650
      273.0000000000        0.0036826720       -0.0003345610
      280.0000000000        0.0021902046       -0.0001322752
      287.0000000000        0.0015404581       -0.0000640194
      294.0000000000        0.0012085307       -0.0000343818
      301.0000000000        0.0010271144       -0.0000188942
      308.0000000000        0.0009304430       -0.0000093593
      315.0000000000        0.0008901872       -0.0000024003
      322.0000000000        0.0008948958        0.0000037101
      329.0000000000        0.0007957330        0.0000119929
      336.0000000000        0.0009056682        0.0000198080
      343.0000000000        0.0010808662        0.0000310203
      350.0000000000        0.0013552253        0.0000488876
      357.0000000000        0.0017963115        0.0000803364
      364.0000000000        0.0025490780        0.0001422918
      371.0000000000        0.0042081234        0.0002869012
      378.0000000000        0.0073552260        0.0006886451
      385.0000000000        0.0164010849        0.0023121924
      392.0000000000        0.0594387995        0.0139493276
      399.0000000000        0.1573842182       -0.0241722535
      406.0000000000        0.0331559861       -0.0063075577
      413.0000000000        0.0121516992       -0.0012561557
      420.0000000000        0.0062019398       -0.0005096988
      427.0000000000        0.0039116387       -0.0002025965
      434.0000000000        0.0029825463       -0.0000712634
      441.0000000000        0.0031069826        0.0001351610
      448.0000000000        0.0026017954       -0.0001504986
      455.0000000000        0.0021494707       -0.0000164742
      462.0000000000        0.0021714863        0.0000190019
      469.0000000000        0.0030408716        0.0000551742
      476.0000000000        0.0035503753        0.0000928018
      483.0000000000        0.0043921449        0.0001531818
      490.0000000000        0.0058132332        0.0002656695
      497.0000000000        0.0084084352        0.0005104271
      504.0000000000        0.0138615578        0.0011654202
      511.0000000000        0.0284583113        0.0035870843
      518.0000000000        0.0897036566        0.0189997653
      525.0000000000        0.3603825348        0.0003325400
      532.0000000000        0.0903577393       -0.0190172574
      539.0000000000        0.0294161657       -0.0035330170
      546.0000000000        0.0152618097       -0.0010943493
      553.0000000000        0.0103634046       -0.0004221211
      560.0000000000        0.0083620192       -0.0001507878
      567.0000000000        0.0078846849        0.0000012829
      574.0000000000        0.0083309515        0.0001262784
      581.0000000000        0.0097083345        0.0002756895
      588.0000000000        0.0123906154        0.0005131144
      595.0000000000        0.0174053814        0.0009780165
      602.0000000000        0.0275221266        0.0020902891
      609.0000000000        0.0517627567        0.0055607228
      616.0000000000        0.1323034018        0.0222411957
      623.0000000000        0.5998987101        0.1463387739
      630.0000000000        0.5249688178       -0.1307168749
      637.0000000000        0.1211470019       -0.0195484358
      644.0000000000        0.0491196272       -0.0050779346
      651.0000000000        0.0268519313       -0.0019236642
      658.0000000000        0.0178705720       -0.0008570478
      665.0000000000        0.0138318124       -0.0003377276
      672.0000000000        0.0130520357        0.0001517887
      679.0000000000        0.0181102169        0.0016403628
      686.0000000000        0.0286304944        0.0022638712
      693.0000000000        0.0951550003        0.0219198887
      700.0000000000        0.0881789512       -0.0209288250
      707.0000000000        0.0250229869       -0.0030518439
      714.0000000000        0.0150284197       -0.0003549310
      721.0000000000        0.0213223957        0.0026720739
      728.0000000000        0.0165592212       -0.0024341563
      735.0000000000        0.0089414570       -0.0003903310
      742.0000000000        0.0075348430       -0.0000845654
      749.0000000000        0.0073261680        0.0000127350
      756.0000000000        0.0076300873        0.0000717431
      763.0000000000        0.0083236684        0.0001273728
      770.0000000000        0.0094445811        0.0001965220
      777.0000000000        0.0111524602        0.0002994969
      784.0000000000        0.0138092338        0.0004780392
      791.0000000000        0.0176890119        0.0008539885
      798.0000000000        0.0264648470        0.0018329609
      805.0000000000        0.0494996950        0.0057539051
      812.0000000000        0.1566011632        0.0344914772
      819.0000000000        0.2782699870       -0.0522996161
      826.0000000000        0.0913198067       -0.0071547560
      833.0000000000        0.0823438825        0.0028897841
      840.0000000000        0.1373690916        0.0155748828
      847.0000000000        0.4041119043        0.0537491966
      854.0000000000        0.4954146593        0.0488905535
      861.0000000000        1.9273477164        0.4317207591
      868.0000000000        1.2592945612       -0.3102349697
      875.0000000000        0.3128549841       -0.0473546568
      882.0000000000        0.1357658569       -0.0129591387
      889.0000000000        0.0779769173       -0.0051062319
      896.0000000000        0.0529850365       -0.0024417629
      903.0000000000        0.0404209140       -0.0012882238
      910.0000000000        0.0336866877       -0.0006930357
      917.0000000000        0.0301784736       -0.0003346019
      924.0000000000        0.0287671855       -0.0000786920
      931.0000000000        0.0290120186        0.0001494533
      938.0000000000        0.0309717868        0.0004289612
      945.0000000000        0.0356170609        0.0009882690
      952.0000000000        0.0485422402        0.0034215033
      959.0000000000        0.1107913937        0.0064478638
      966.0000000000        0.0769024831       -0.0025468714
      973.0000000000        0.0776537774        0.0016754824
      980.0000000000        0.0957899063        0.0035796727
      987.0000000000        0.1297612400        0.0064273617
      994.0000000000        0.1932090474        0.0125952637
     1001.0000000000        0.3301258280        0.0297086007
     1008.0000000000        0.7167677687        0.0983598468
     1015.0000000000        2.5403117868        0.5897656847
     1022.0000000000        6.3704041752       -1.0099286303
     1029.0000000000        1.6267243857       -0.1935134614
     1036.0000000000        1.9279745103        0.2919940536
     1043.0000000000        1.3373641040       -0.2875999596
     1050.0000000000        0.4312216948       -0.0476847109
     1057.0000000000        0.2478343058       -0.0134101793
     1064.0000000000        0.1919081531       -0.0040380067
     1071.0000000000        0.1812271510        0.0006980221
     1078.0000000000        0.2010144562        0.0051165219
     1085.0000000000        0.2585565656        0.0120650569
     1092.0000000000        0.3893173887        0.0277598148
     1099.0000000000        0.7194264795        0.0768169570
     1106.0000000000        1.8479060951        0.3164146462
     1113.0000000000        8.5506346590        2.0156043960
     1120.0000000000        6.2271559440       -1.5507357204
     1127.0000000000        1.4886648416       -0.2335877839
     1134.0000000000        0.6161755492       -0.0626654047
     1141.0000000000        0.3382132722       -0.0244177568
     1148.0000000000        0.2193857698       -0.0114811334
     1155.0000000000        0.1618866001       -0.0055402907
     1162.0000000000        0.1378567066       -0.0013293202
     1169.0000000000        0.1490121524        0.0056597219
     1176.0000000000        0.2690534153        0.0388694147
     1183.0000000000        0.9696156924        0.0853239820
     1190.0000000000        0.4611742704       -0.0264163332
     1197.0000000000        0.2500476080       -0.0362698449
     1204.0000000000        0.1281036330       -0.0071536947
     1211.0000000000        0.0991016809       -0.0022498746
     1218.0000000000        0.0894598380       -0.0007322231
     1225.0000000000        0.0870938020       -0.0000113764
     1232.0000000000        0.0887343738        0.0004573593
     1239.0000000000        0.0933197891        0.0008475756
     1246.0000000000        0.1006011772        0.0012373493
     1253.0000000000        0.1107615227        0.0016780211
     1260.0000000000        0.1243264956        0.0022189866
     1267.0000000000        0.1422030110        0.0029226686
     1274.0000000000        0.1658317650        0.0038808774
     1281.0000000000        0.1899198602        0.0053326775
     1288.0000000000        0.2337804203        0.0073383889
     1295.0000000000        0.2952430553        0.0104660662
     1302.0000000000        0.3849821133        0.0156296227
     1309.0000000000        0.5232096868        0.0247960538
     1316.0000000000        0.7519930391        0.0427146449
     1323.0000000000        1.1711051849        0.0827899415
     1330.0000000000        2.0638309730        0.1923408939
     1337.0000000000        4.5085345572        0.6078439337
     1344.0000000000       15.1304328980        3.3299648681
     1351.0000000000       56.7138801414       -1.9484688142
     1358.0000000000       13.2455838002       -2.7943288013
     1365.0000000000        4.1575885065       -0.5396402046
     1372.0000000000        1.9528068271       -0.1769590445
     1379.0000000000        1.1237892778       -0.0776758187
     1386.0000000000        0.7284621280       -0.0405586363
     1393.0000000000        0.5104068116       -0.0237256515
     1400.0000000000        0.3778249021       -0.0150269927
     1407.0000000000        0.2914310047       -0.0100870674
     1414.0000000000        0.2321828055       -0.0070720040
     1421.0000000000        0.1899698130       -0.0051211315
     1428.0000000000        0.1590497540       -0.0037923009
     1435.0000000000        0.1360088535       -0.0028387587
     1442.0000000000        0.1187912322       -0.0021075063
     1449.0000000000        0.1062572644       -0.0014812947
     1456.0000000000        0.0981326720       -0.0008158179
     1463.0000000000        0.1060031615        0.0003739963
     1470.0000000000        0.1171810659        0.0035310556
     1477.0000000000        0.1888456332        0.0236616783
     1484.0000000000        0.3731723794       -0.0393698823
     1491.0000000000        0.1575061694       -0.0097854628
     1498.0000000000        0.1399112622        0.0024507740
     1505.0000000000        0.1990993235        0.0182433783
     1512.0000000000        0.4400320437        0.0243176146
     1519.0000000000        0.4173543922        0.0348919298
     1526.0000000000        1.4348052147        0.3410982132
     1533.0000000000        1.5223201386       -0.3641644321
     1540.0000000000        0.3728581951       -0.0544644026
     1547.0000000000        0.1779371923       -0.0129503414
     1554.0000000000        0.1254119968       -0.0038354409
     1561.0000000000        0.1119511552       -0.0004165516
     1568.0000000000        0.1167158203        0.0017029973
     1575.0000000000        0.1359003695        0.0038597956
     1582.0000000000        0.1730493566        0.0070211992
     1589.0000000000        0.2402646987        0.0128601549
     1596.0000000000        0.3691721111        0.0258833712
     1603.0000000000        0.6539610942        0.0623612668
     1610.0000000000        1.4703459231        0.2078680791
     1617.0000000000        5.2987433847        1.2353903482
     1624.0000000000       15.1447040490       -2.0627873821
     1631.0000000000        3.1892331462       -0.6238982378
     1638.0000000000        1.1253441557       -0.1230801478
     1645.0000000000        0.5423369391       -0.0502138388
     1652.0000000000        0.3120883993       -0.0212727405
     1659.0000000000        0.2038282931       -0.0111319308
     1666.0000000000        0.1437700540       -0.0065643357
     1673.0000000000        0.1067548789       -0.0041933396
     1680.0000000000        0.0825385622       -0.0028423848
     1687.0000000000        0.0657565573       -0.0020156773
     1694.0000000000        0.0521517555       -0.0014633318
     1701.0000000000        0.0432409465       -0.0011049459
     1708.0000000000        0.0364323655       -0.0008546299
     1715.0000000000        0.0311133695       -0.0006745405
     1722.0000000000        0.0268792220       -0.0005416842
     1729.0000000000        0.0234538418       -0.0004415402
     1736.0000000000        0.0206436800       -0.0003646310
     1743.0000000000        0.0183097942       -0.0003045919
     1750.0000000000        0.0163503549       -0.0002570402
     1757.0000000000        0.0146893567       -0.0002188917
     1764.0000000000        0.0132691411       -0.0001879326
     1771.0000000000        0.0120453285       -0.0001625463
     1778.0000000000        0.0109833107       -0.0001415334
     1785.0000000000        0.0000454237       -0.0000006237
     1792.0000000000        0.0000413532       -0.0000005418
     1799.0000000000        0.0000378061       -0.0000004736
     1806.0000000000        0.0000000000        0.0000000000
     1813.0000000000        0.0000000000        0.0000000000
     1820.0000000000        0.0000000000        0.0000000000
     1827.0000000000        0.0000000000        0.0000000000
     1834.0000000000        0.0000000000        0.0000000000
     1841.0000000000        0.0000000000        0.0000000000
     1848.0000000000        0.0000000000        0.0000000000
     1855.0000000000        0.0000000000        0.0000000000
     1862.0000000000        0.0000000000        0.0000000000
     1869.0000000000        0.0000000000        0.0000000000
     1876.0000000000        0.0000000000        0.0000000000
     1883.0000000000        0.0000000000        0.0000000000
     1890.0000000000        0.0000000000        0.0000000000
     1897.0000000000        0.0000000000        0.0000000000
     1904.0000000000        0.0000000000        0.0000000000
     1911.0000000000        0.0000000000        0.0000000000
     1918.0000000000        0.0000000000        0.0000000000
     1925.0000000000        0.0000000000        0.0000000000
     1932.0000000000        0.0000000000        0.0000000000
     1939.0000000000        0.0000000000        0.0000000000
     1946.0000000000        0.0000000000        0.0000000000
     1953.0000000000        0.0000000000        0.0000000000
     1960.0000000000        0.0000000000        0.0000000000
     1967.0000000000        0.0000000000        0.0000000000
     1974.0000000000        0.0000000000        0.0000000000
     1981.0000000000        0.0000000000        0.0000000000
     1988.0000000000        0.0000000000        0.0000000000
     1995.0000000000        0.0000000000        0.0000000000
     2002.0000000000        0.0000000000        0.0000000000
     2009.0000000000        0.0000000000        0.0000000000
     2016.0000000000        0.0000000000        0.0000000000
     2023.0000000000        0.0000000000        0.0000000000
     2030.0000000000        0.0000000000        0.0000000000
     2037.0000000000        0.0000000000        0.0000000000
     2044.0000000000        0.0000000000        0.0000000000
     2051.0000000000        0.0000000000        0.0000000000
     2058.0000000000        0.0000000000        0.0000000000
     2065.0000000000        0.0000000000        0.0000000000
     2072.0000000000        0.0000000000        0.0000000000
     2079.0000000000        0.0000000000        0.0000000000
     2086.0000000000        0.0000000000        0.0000000000
     2093.0000000000        0.0000000000        0.0000000000
