282.050,910.000,902.000,884.000,902.000,883.000,894.000,877.000,872.000,879.000,882.000
283.933,904.000,898.000,901.000,891.000,893.000,890.000,888.000,883.000,889.000,889.000
285.818,908.000,890.000,892.000,875.000,883.000,901.000,887.000,887.000,888.000,855.000
287.700,912.000,895.000,891.000,887.000,873.000,877.000,885.000,883.000,872.000,853.000
289.584,929.000,878.000,880.000,7440.000,885.000,890.000,884.000,889.000,874.000,863.000
291.465,908.000,917.000,899.000,1123.000,882.000,868.000,876.000,885.000,880.000,864.000
293.346,895.000,887.000,903.000,891.000,899.000,895.000,894.000,895.000,874.000,876.000
295.229,903.000,879.000,885.000,885.000,870.000,878.000,891.000,854.000,872.000,886.000
297.109,892.000,889.000,877.000,872.000,889.000,878.000,875.000,876.000,866.000,854.000
298.991,897.000,887.000,873.000,885.000,887.000,882.000,880.000,882.000,849.000,848.000
300.870,907.000,892.000,895.000,861.000,878.000,867.000,846.000,854.000,875.000,877.000
302.749,908.000,886.000,897.000,886.000,875.000,887.000,853.000,875.000,862.000,858.000
304.630,896.000,907.000,915.000,867.000,883.000,869.000,886.000,880.000,859.000,863.000
306.508,899.000,874.000,887.000,884.000,895.000,855.000,876.000,863.000,874.000,874.000
308.388,888.000,864.000,895.000,863.000,882.000,878.000,867.000,857.000,872.000,845.000
310.266,896.000,895.000,873.000,871.000,863.000,859.000,867.000,855.000,885.000,860.000
312.143,908.000,892.000,873.000,883.000,888.000,871.000,867.000,867.000,884.000,857.000
314.022,894.000,889.000,900.000,886.000,884.000,885.000,888.000,861.000,874.000,867.000
315.898,898.000,893.000,874.000,905.000,886.000,892.000,867.000,862.000,883.000,864.000
317.776,905.000,878.000,894.000,885.000,877.000,887.000,880.000,866.000,881.000,876.000
319.652,897.000,903.000,884.000,872.000,876.000,884.000,864.000,887.000,888.000,851.000
321.527,893.000,895.000,885.000,887.000,898.000,877.000,883.000,861.000,842.000,877.000
323.404,902.000,899.000,895.000,878.000,885.000,885.000,892.000,871.000,858.000,879.000
325.279,914.000,891.000,891.000,883.000,886.000,898.000,878.000,895.000,873.000,861.000
327.155,937.000,899.000,903.000,889.000,884.000,892.000,909.000,899.000,872.000,881.000
329.029,921.000,900.000,908.000,892.000,903.000,897.000,888.000,894.000,888.000,891.000
330.902,927.000,913.000,899.000,901.000,885.000,897.000,891.000,894.000,871.000,873.000
332.777,932.000,904.000,883.000,904.000,885.000,888.000,893.000,873.000,892.000,888.000
334.650,927.000,902.000,911.000,913.000,908.000,910.000,896.000,898.000,880.000,897.000
336.524,937.000,905.000,907.000,909.000,893.000,890.000,895.000,908.000,907.000,880.000
338.396,933.000,906.000,919.000,911.000,904.000,918.000,904.000,897.000,900.000,885.000
340.267,923.000,893.000,895.000,897.000,900.000,878.000,882.000,883.000,899.000,866.000
342.140,922.000,895.000,902.000,889.000,908.000,899.000,870.000,888.000,884.000,871.000
344.011,892.000,890.000,883.000,874.000,883.000,902.000,880.000,863.000,889.000,870.000
345.883,909.000,869.000,866.000,875.000,872.000,881.000,860.000,867.000,864.000,860.000
347.753,908.000,888.000,862.000,887.000,881.000,862.000,860.000,870.000,849.000,855.000
349.623,887.000,885.000,866.000,875.000,854.000,878.000,857.000,876.000,860.000,869.000
351.494,880.000,870.000,883.000,874.000,864.000,873.000,861.000,860.000,848.000,861.000
353.363,866.000,867.000,878.000,854.000,871.000,845.000,872.000,846.000,858.000,840.000
355.233,914.000,864.000,867.000,870.000,863.000,859.000,856.000,860.000,852.000,842.000
357.101,872.000,875.000,857.000,866.000,855.000,855.000,875.000,838.000,842.000,830.000
358.969,893.000,872.000,888.000,849.000,871.000,876.000,852.000,841.000,852.000,849.000
360.838,895.000,894.000,866.000,856.000,856.000,849.000,865.000,825.000,852.000,854.000
362.705,878.000,868.000,866.000,856.000,854.000,844.000,850.000,835.000,846.000,830.000
364.574,868.000,862.000,859.000,860.000,841.000,846.000,843.000,834.000,832.000,845.000
366.440,868.000,858.000,847.000,862.000,863.000,847.000,853.000,852.000,844.000,836.000
368.306,877.000,870.000,872.000,862.000,876.000,850.000,854.000,855.000,842.000,847.000
370.173,902.000,873.000,853.000,867.000,867.000,847.000,828.000,835.000,850.000,850.000
372.038,880.000,876.000,861.000,851.000,876.000,859.000,857.000,840.000,855.000,848.000
373.905,889.000,860.000,868.000,866.000,860.000,860.000,849.000,849.000,849.000,839.000
375.769,866.000,862.000,863.000,842.000,867.000,850.000,855.000,854.000,840.000,835.000
377.633,878.000,880.000,860.000,859.000,854.000,871.000,868.000,846.000,845.000,821.000
379.499,867.000,882.000,864.000,857.000,861.000,845.000,837.000,837.000,844.000,842.000
381.362,888.000,874.000,863.000,872.000,858.000,846.000,857.000,832.000,858.000,839.000
383.226,863.000,879.000,852.000,856.000,855.000,853.000,863.000,861.000,839.000,846.000
385.089,884.000,874.000,864.000,850.000,859.000,850.000,856.000,843.000,850.000,851.000
386.951,877.000,855.000,875.000,858.000,862.000,851.000,857.000,846.000,819.000,846.000
388.815,874.000,856.000,843.000,844.000,830.000,853.000,831.000,844.000,839.000,824.000
390.676,856.000,858.000,847.000,846.000,851.000,837.000,849.000,834.000,838.000,826.000
392.539,879.000,859.000,850.000,854.000,850.000,860.000,848.000,818.000,819.000,838.000
394.399,868.000,855.000,860.000,852.000,848.000,859.000,868.000,853.000,831.000,840.000
396.261,887.000,879.000,851.000,859.000,855.000,843.000,819.000,844.000,840.000,834.000
398.121,881.000,864.000,875.000,841.000,831.000,858.000,843.000,836.000,823.000,841.000
399.980,876.000,870.000,874.000,838.000,855.000,844.000,847.000,851.000,839.000,828.000
401.841,876.000,868.000,862.000,849.000,847.000,855.000,842.000,842.000,853.000,833.000
403.700,887.000,866.000,869.000,863.000,858.000,859.000,857.000,840.000,860.000,856.000
405.560,888.000,872.000,868.000,873.000,871.000,850.000,840.000,855.000,837.000,855.000
407.418,880.000,850.000,865.000,882.000,860.000,865.000,857.000,861.000,845.000,851.000
409.276,861.000,861.000,870.000,880.000,862.000,855.000,837.000,855.000,849.000,849.000
411.135,871.000,862.000,858.000,856.000,866.000,852.000,842.000,846.000,835.000,825.000
412.991,874.000,875.000,878.000,840.000,848.000,851.000,856.000,862.000,828.000,853.000
414.850,901.000,875.000,855.000,869.000,855.000,858.000,839.000,847.000,854.000,847.000
416.706,867.000,874.000,867.000,872.000,830.000,857.000,852.000,855.000,850.000,849.000
418.561,885.000,876.000,857.000,866.000,854.000,860.000,861.000,851.000,845.000,856.000
420.419,882.000,885.000,864.000,858.000,850.000,849.000,864.000,844.000,840.000,835.000
422.274,874.000,858.000,858.000,860.000,859.000,838.000,860.000,837.000,839.000,840.000
424.130,870.000,866.000,866.000,855.000,858.000,849.000,848.000,834.000,846.000,842.000
425.984,898.000,864.000,861.000,871.000,871.000,855.000,857.000,843.000,829.000,839.000
427.838,867.000,862.000,883.000,850.000,863.000,856.000,844.000,847.000,834.000,852.000
429.693,887.000,889.000,866.000,871.000,875.000,851.000,865.000,854.000,842.000,825.000
431.546,874.000,877.000,871.000,866.000,847.000,850.000,853.000,855.000,845.000,831.000
433.401,887.000,854.000,872.000,841.000,854.000,829.000,849.000,841.000,846.000,840.000
435.253,890.000,880.000,854.000,851.000,859.000,850.000,845.000,846.000,835.000,822.000
437.105,892.000,892.000,870.000,865.000,860.000,852.000,856.000,864.000,866.000,844.000
438.959,882.000,880.000,874.000,875.000,863.000,868.000,854.000,854.000,854.000,854.000
440.810,892.000,864.000,887.000,854.000,861.000,833.000,853.000,858.000,849.000,842.000
442.662,876.000,884.000,876.000,871.000,861.000,861.000,852.000,852.000,848.000,851.000
444.513,883.000,893.000,857.000,844.000,850.000,859.000,852.000,855.000,851.000,838.000
446.363,879.000,870.000,863.000,858.000,858.000,848.000,861.000,843.000,852.000,827.000
448.215,897.000,891.000,872.000,877.000,855.000,857.000,843.000,849.000,850.000,842.000
450.064,889.000,874.000,877.000,853.000,869.000,872.000,866.000,852.000,854.000,848.000
451.915,897.000,867.000,871.000,873.000,874.000,856.000,856.000,863.000,842.000,847.000
453.763,904.000,883.000,890.000,851.000,872.000,858.000,848.000,843.000,864.000,842.000
455.611,881.000,881.000,879.000,848.000,866.000,852.000,841.000,856.000,860.000,837.000
457.461,871.000,869.000,867.000,878.000,851.000,857.000,845.000,847.000,853.000,848.000
459.308,887.000,887.000,880.000,878.000,874.000,863.000,850.000,844.000,859.000,854.000
461.158,872.000,878.000,874.000,859.000,861.000,845.000,866.000,867.000,843.000,861.000
463.004,895.000,873.000,887.000,859.000,866.000,846.000,869.000,842.000,856.000,851.000
464.850,882.000,879.000,881.000,864.000,872.000,868.000,845.000,857.000,848.000,839.000
466.698,898.000,864.000,878.000,876.000,849.000,867.000,854.000,857.000,850.000,844.000
468.544,893.000,860.000,868.000,855.000,859.000,850.000,876.000,858.000,846.000,833.000
470.391,903.000,888.000,880.000,875.000,861.000,861.000,840.000,858.000,858.000,824.000
472.236,886.000,877.000,865.000,861.000,861.000,867.000,851.000,869.000,847.000,838.000
474.080,917.000,885.000,875.000,888.000,866.000,856.000,852.000,853.000,851.000,841.000
475.926,887.000,901.000,884.000,874.000,877.000,870.000,863.000,849.000,851.000,846.000
477.770,893.000,863.000,859.000,871.000,862.000,859.000,866.000,849.000,848.000,837.000
479.615,897.000,852.000,862.000,873.000,868.000,866.000,877.000,861.000,834.000,850.000
481.458,886.000,900.000,872.000,853.000,877.000,868.000,861.000,847.000,848.000,842.000
483.301,916.000,879.000,883.000,868.000,853.000,865.000,860.000,844.000,834.000,846.000
485.145,890.000,871.000,882.000,856.000,863.000,868.000,851.000,857.000,869.000,851.000
486.987,893.000,899.000,886.000,882.000,875.000,872.000,873.000,849.000,827.000,861.000
488.830,895.000,898.000,881.000,867.000,857.000,854.000,862.000,836.000,847.000,859.000
490.671,886.000,879.000,875.000,855.000,866.000,881.000,846.000,845.000,847.000,842.000
492.512,879.000,884.000,870.000,870.000,861.000,860.000,857.000,864.000,854.000,842.000
494.354,885.000,878.000,875.000,856.000,858.000,845.000,862.000,844.000,867.000,852.000
496.194,906.000,889.000,870.000,877.000,893.000,861.000,866.000,857.000,843.000,846.000
498.036,902.000,891.000,898.000,890.000,887.000,851.000,874.000,858.000,849.000,852.000
499.875,909.000,891.000,891.000,858.000,870.000,867.000,855.000,837.000,843.000,875.000
501.714,880.000,888.000,885.000,868.000,864.000,876.000,852.000,858.000,852.000,846.000
503.555,891.000,886.000,876.000,884.000,864.000,863.000,858.000,848.000,858.000,836.000
505.393,907.000,876.000,883.000,891.000,874.000,858.000,852.000,860.000,854.000,848.000
507.232,901.000,882.000,906.000,865.000,870.000,857.000,860.000,873.000,884.000,869.000
509.070,902.000,888.000,866.000,864.000,864.000,897.000,865.000,875.000,849.000,852.000
510.907,900.000,870.000,903.000,895.000,878.000,851.000,867.000,851.000,839.000,852.000
512.745,895.000,880.000,904.000,875.000,868.000,878.000,870.000,858.000,865.000,857.000
514.582,896.000,879.000,896.000,875.000,861.000,863.000,841.000,847.000,850.000,850.000
516.420,891.000,895.000,881.000,882.000,883.000,870.000,879.000,846.000,852.000,843.000
518.255,900.000,894.000,879.000,893.000,884.000,883.000,879.000,864.000,856.000,859.000
520.090,909.000,886.000,890.000,885.000,883.000,851.000,885.000,875.000,867.000,852.000
521.927,932.000,890.000,875.000,881.000,884.000,886.000,873.000,867.000,866.000,844.000
523.762,893.000,862.000,892.000,890.000,887.000,865.000,877.000,878.000,876.000,864.000
525.598,901.000,894.000,890.000,888.000,879.000,872.000,870.000,875.000,876.000,854.000
527.431,919.000,901.000,890.000,880.000,883.000,863.000,864.000,858.000,859.000,860.000
529.265,923.000,889.000,894.000,883.000,883.000,881.000,875.000,874.000,876.000,886.000
531.100,897.000,903.000,893.000,894.000,896.000,864.000,874.000,881.000,863.000,867.000
532.932,905.000,908.000,878.000,900.000,889.000,880.000,866.000,869.000,856.000,856.000
534.766,909.000,895.000,870.000,882.000,874.000,885.000,856.000,870.000,848.000,882.000
536.598,922.000,888.000,900.000,887.000,886.000,866.000,876.000,863.000,863.000,869.000
538.430,907.000,899.000,887.000,895.000,871.000,858.000,855.000,865.000,876.000,874.000
540.263,911.000,890.000,891.000,898.000,895.000,888.000,875.000,847.000,869.000,861.000
542.094,917.000,892.000,883.000,882.000,892.000,887.000,875.000,871.000,843.000,871.000
543.926,904.000,900.000,898.000,885.000,875.000,888.000,864.000,894.000,877.000,859.000
545.756,914.000,892.000,895.000,891.000,880.000,877.000,851.000,868.000,868.000,869.000
547.586,933.000,901.000,885.000,874.000,881.000,881.000,864.000,864.000,857.000,880.000
549.417,925.000,899.000,894.000,884.000,893.000,868.000,876.000,856.000,864.000,866.000
551.246,933.000,898.000,898.000,894.000,893.000,891.000,882.000,858.000,876.000,855.000
553.076,909.000,900.000,910.000,888.000,899.000,878.000,875.000,877.000,872.000,857.000
554.904,918.000,891.000,871.000,889.000,883.000,881.000,874.000,878.000,879.000,876.000
556.732,909.000,910.000,912.000,904.000,907.000,879.000,859.000,862.000,854.000,876.000
558.562,900.000,899.000,908.000,908.000,873.000,870.000,877.000,892.000,886.000,870.000
560.389,907.000,908.000,894.000,892.000,897.000,893.000,867.000,891.000,881.000,871.000
562.218,928.000,927.000,904.000,891.000,902.000,886.000,888.000,896.000,873.000,874.000
564.044,942.000,918.000,912.000,899.000,902.000,887.000,899.000,891.000,881.000,872.000
565.870,931.000,917.000,906.000,893.000,893.000,897.000,890.000,872.000,863.000,854.000
567.697,938.000,912.000,897.000,885.000,904.000,877.000,880.000,889.000,871.000,871.000
569.523,922.000,895.000,883.000,885.000,887.000,871.000,884.000,866.000,887.000,875.000
571.350,919.000,906.000,879.000,893.000,886.000,912.000,909.000,869.000,879.000,861.000
573.174,909.000,889.000,898.000,906.000,886.000,884.000,869.000,870.000,885.000,850.000
574.998,938.000,910.000,908.000,904.000,898.000,867.000,884.000,897.000,873.000,857.000
576.824,910.000,915.000,895.000,908.000,900.000,883.000,890.000,890.000,875.000,859.000
578.647,921.000,909.000,888.000,888.000,894.000,902.000,870.000,864.000,875.000,865.000
580.473,920.000,900.000,884.000,883.000,870.000,890.000,887.000,880.000,869.000,870.000
582.295,900.000,899.000,900.000,873.000,873.000,892.000,893.000,885.000,891.000,871.000
584.117,937.000,905.000,903.000,897.000,901.000,898.000,889.000,876.000,884.000,863.000
585.941,935.000,884.000,921.000,892.000,909.000,880.000,906.000,891.000,862.000,870.000
587.763,924.000,892.000,882.000,902.000,897.000,883.000,874.000,891.000,871.000,872.000
589.586,922.000,922.000,901.000,890.000,892.000,898.000,873.000,896.000,883.000,872.000
591.407,922.000,919.000,915.000,906.000,867.000,874.000,884.000,860.000,884.000,872.000
593.228,933.000,900.000,901.000,895.000,890.000,891.000,892.000,886.000,870.000,863.000
595.050,929.000,890.000,895.000,896.000,874.000,902.000,892.000,870.000,882.000,870.000
596.870,920.000,928.000,911.000,903.000,890.000,882.000,870.000,886.000,888.000,876.000
598.691,941.000,915.000,886.000,895.000,904.000,889.000,872.000,889.000,878.000,873.000
600.510,917.000,932.000,892.000,899.000,889.000,897.000,903.000,872.000,847.000,873.000
602.329,933.000,900.000,896.000,897.000,894.000,900.000,878.000,894.000,893.000,873.000
604.149,926.000,882.000,888.000,909.000,895.000,883.000,888.000,870.000,864.000,867.000
605.967,931.000,932.000,897.000,890.000,885.000,892.000,878.000,889.000,861.000,876.000
607.787,921.000,942.000,915.000,883.000,909.000,916.000,883.000,885.000,875.000,867.000
609.604,940.000,916.000,902.000,910.000,894.000,895.000,867.000,883.000,866.000,889.000
611.423,928.000,921.000,914.000,891.000,887.000,908.000,905.000,886.000,880.000,864.000
613.239,923.000,921.000,932.000,919.000,921.000,890.000,892.000,891.000,890.000,870.000
615.055,953.000,913.000,898.000,881.000,916.000,895.000,889.000,916.000,897.000,873.000
616.873,943.000,936.000,936.000,925.000,924.000,925.000,906.000,904.000,907.000,907.000
618.688,1003.000,957.000,947.000,953.000,939.000,914.000,959.000,923.000,917.000,917.000
620.505,993.000,998.000,1006.000,987.000,958.000,984.000,965.000,961.000,956.000,937.000
622.320,1015.000,989.000,984.000,971.000,966.000,939.000,951.000,949.000,953.000,941.000
624.134,943.000,939.000,952.000,942.000,930.000,925.000,908.000,910.000,914.000,894.000
625.950,944.000,924.000,913.000,897.000,919.000,893.000,892.000,896.000,878.000,891.000
627.764,930.000,931.000,916.000,910.000,890.000,891.000,927.000,895.000,890.000,902.000
629.579,927.000,926.000,905.000,910.000,926.000,892.000,919.000,907.000,895.000,883.000
631.392,956.000,917.000,909.000,911.000,913.000,885.000,889.000,881.000,892.000,895.000
633.205,947.000,941.000,927.000,920.000,890.000,904.000,899.000,894.000,891.000,895.000
635.019,950.000,941.000,941.000,924.000,901.000,926.000,897.000,916.000,903.000,890.000
636.831,932.000,944.000,929.000,924.000,899.000,904.000,916.000,905.000,895.000,876.000
638.644,965.000,930.000,924.000,914.000,928.000,909.000,927.000,895.000,904.000,896.000
640.455,967.000,918.000,947.000,930.000,934.000,953.000,927.000,927.000,914.000,901.000
642.266,987.000,976.000,944.000,958.000,924.000,913.000,926.000,931.000,918.000,905.000
644.078,967.000,945.000,947.000,926.000,943.000,919.000,927.000,915.000,921.000,908.000
645.888,950.000,940.000,933.000,939.000,910.000,922.000,927.000,911.000,922.000,909.000
647.700,929.000,1511.000,929.000,912.000,907.000,901.000,904.000,903.000,909.000,899.000
649.509,927.000,1083.000,919.000,923.000,912.000,881.000,906.000,895.000,892.000,879.000
651.318,930.000,945.000,916.000,922.000,898.000,913.000,895.000,885.000,903.000,882.000
653.128,954.000,938.000,931.000,927.000,892.000,902.000,921.000,880.000,893.000,903.000
654.937,927.000,922.000,932.000,906.000,896.000,919.000,903.000,906.000,915.000,876.000
656.746,946.000,939.000,924.000,915.000,917.000,915.000,899.000,898.000,898.000,901.000
658.554,935.000,885.000,919.000,919.000,906.000,909.000,914.000,918.000,879.000,888.000
660.361,944.000,922.000,921.000,892.000,914.000,891.000,904.000,890.000,896.000,884.000
662.170,943.000,935.000,916.000,909.000,924.000,905.000,894.000,916.000,904.000,888.000
663.976,953.000,924.000,924.000,926.000,914.000,917.000,882.000,899.000,895.000,887.000
665.784,963.000,939.000,931.000,917.000,935.000,902.000,934.000,888.000,894.000,886.000
667.590,948.000,947.000,931.000,912.000,943.000,896.000,912.000,890.000,886.000,882.000
669.395,946.000,921.000,928.000,919.000,908.000,894.000,895.000,891.000,900.000,893.000
671.202,970.000,927.000,906.000,906.000,900.000,924.000,906.000,900.000,886.000,900.000
673.006,931.000,916.000,912.000,904.000,918.000,896.000,911.000,900.000,864.000,881.000
674.813,940.000,932.000,931.000,930.000,901.000,915.000,885.000,886.000,903.000,887.000
676.617,948.000,924.000,938.000,915.000,914.000,911.000,905.000,901.000,894.000,893.000
678.420,939.000,949.000,954.000,931.000,930.000,907.000,900.000,896.000,903.000,902.000
680.225,946.000,942.000,934.000,909.000,920.000,907.000,898.000,905.000,899.000,876.000
682.028,964.000,926.000,927.000,925.000,934.000,897.000,906.000,901.000,878.000,903.000
683.832,966.000,920.000,908.000,914.000,912.000,929.000,911.000,918.000,915.000,896.000
685.634,965.000,931.000,934.000,932.000,915.000,926.000,919.000,912.000,907.000,903.000
687.436,962.000,932.000,927.000,931.000,921.000,909.000,908.000,915.000,908.000,884.000
689.239,954.000,937.000,959.000,927.000,914.000,924.000,900.000,907.000,901.000,888.000
691.040,953.000,947.000,939.000,928.000,930.000,934.000,908.000,895.000,887.000,914.000
692.843,979.000,946.000,944.000,936.000,918.000,912.000,911.000,897.000,901.000,882.000
694.643,943.000,942.000,957.000,923.000,908.000,916.000,928.000,925.000,911.000,889.000
696.443,966.000,945.000,957.000,910.000,932.000,916.000,915.000,919.000,881.000,890.000
698.245,949.000,933.000,933.000,913.000,915.000,907.000,906.000,924.000,896.000,920.000
700.044,952.000,923.000,939.000,940.000,935.000,909.000,902.000,919.000,888.000,917.000
701.845,982.000,947.000,926.000,919.000,921.000,926.000,914.000,892.000,895.000,895.000
703.643,954.000,951.000,943.000,937.000,942.000,937.000,908.000,920.000,912.000,895.000
705.441,968.000,932.000,938.000,924.000,916.000,909.000,913.000,911.000,908.000,895.000
707.241,964.000,961.000,939.000,923.000,927.000,913.000,924.000,900.000,894.000,915.000
709.038,965.000,946.000,940.000,940.000,913.000,914.000,922.000,915.000,919.000,935.000
710.838,969.000,936.000,948.000,927.000,907.000,908.000,921.000,921.000,922.000,914.000
712.634,949.000,948.000,938.000,926.000,942.000,931.000,936.000,919.000,919.000,904.000
714.431,982.000,963.000,946.000,948.000,919.000,921.000,905.000,926.000,903.000,916.000
716.228,955.000,963.000,914.000,945.000,951.000,905.000,937.000,915.000,903.000,895.000
718.024,970.000,948.000,917.000,915.000,929.000,916.000,906.000,909.000,902.000,907.000
719.821,956.000,945.000,936.000,931.000,935.000,927.000,899.000,913.000,901.000,902.000
721.616,957.000,955.000,947.000,937.000,937.000,910.000,927.000,914.000,894.000,900.000
723.411,973.000,977.000,946.000,951.000,930.000,930.000,932.000,921.000,904.000,896.000
725.207,966.000,964.000,926.000,936.000,937.000,944.000,920.000,897.000,917.000,920.000
727.001,973.000,954.000,916.000,943.000,924.000,927.000,922.000,915.000,911.000,887.000
728.796,965.000,954.000,927.000,932.000,926.000,933.000,904.000,903.000,928.000,893.000
730.589,951.000,946.000,927.000,941.000,929.000,929.000,899.000,907.000,917.000,928.000
732.382,972.000,940.000,949.000,943.000,952.000,919.000,931.000,902.000,921.000,923.000
734.177,970.000,965.000,956.000,942.000,938.000,927.000,929.000,905.000,912.000,901.000
735.969,987.000,938.000,957.000,930.000,933.000,929.000,915.000,923.000,922.000,891.000
737.762,971.000,943.000,939.000,931.000,921.000,923.000,916.000,908.000,913.000,905.000
739.554,978.000,971.000,958.000,926.000,928.000,923.000,916.000,932.000,904.000,896.000
741.345,968.000,967.000,948.000,942.000,950.000,947.000,918.000,922.000,921.000,891.000
743.137,983.000,952.000,960.000,957.000,948.000,935.000,933.000,909.000,920.000,933.000
744.928,1002.000,972.000,967.000,950.000,940.000,950.000,932.000,938.000,917.000,914.000
746.719,985.000,990.000,953.000,971.000,957.000,966.000,936.000,949.000,931.000,910.000
748.509,993.000,990.000,973.000,961.000,947.000,967.000,944.000,937.000,938.000,910.000
750.298,1003.000,974.000,976.000,979.000,948.000,955.000,940.000,961.000,931.000,938.000
752.089,985.000,973.000,954.000,964.000,961.000,945.000,932.000,909.000,913.000,911.000
753.878,1009.000,980.000,952.000,960.000,944.000,968.000,931.000,938.000,924.000,926.000
755.668,1009.000,979.000,970.000,964.000,972.000,964.000,956.000,933.000,943.000,943.000
757.455,1012.000,1011.000,993.000,981.000,962.000,951.000,956.000,970.000,941.000,960.000
759.243,1011.000,987.000,971.000,984.000,952.000,944.000,957.000,939.000,953.000,947.000
761.032,1006.000,988.000,975.000,950.000,986.000,974.000,938.000,967.000,938.000,937.000
762.819,995.000,972.000,960.000,973.000,966.000,973.000,953.000,964.000,947.000,951.000
764.607,1008.000,998.000,969.000,975.000,965.000,956.000,962.000,947.000,943.000,944.000
766.393,983.000,1007.000,984.000,957.000,958.000,962.000,979.000,962.000,959.000,948.000
768.179,1007.000,962.000,984.000,974.000,968.000,956.000,960.000,957.000,951.000,937.000
769.966,998.000,997.000,972.000,949.000,948.000,961.000,967.000,952.000,945.000,931.000
771.751,1030.000,964.000,967.000,959.000,968.000,945.000,938.000,957.000,944.000,930.000
773.538,995.000,974.000,968.000,940.000,975.000,939.000,1079.000,948.000,927.000,924.000
775.322,986.000,982.000,964.000,959.000,962.000,953.000,942.000,944.000,926.000,931.000
777.106,995.000,959.000,952.000,960.000,937.000,932.000,2640.000,927.000,927.000,919.000
778.891,998.000,980.000,948.000,957.000,963.000,936.000,1012.000,936.000,911.000,921.000
780.674,993.000,973.000,979.000,945.000,942.000,956.000,931.000,931.000,924.000,933.000
782.459,973.000,972.000,940.000,977.000,932.000,928.000,946.000,923.000,925.000,911.000
784.242,954.000,962.000,954.000,951.000,944.000,935.000,914.000,900.000,897.000,905.000
786.024,995.000,956.000,959.000,961.000,922.000,949.000,923.000,908.000,922.000,915.000
787.808,971.000,967.000,959.000,933.000,941.000,936.000,930.000,915.000,915.000,908.000
789.589,977.000,960.000,966.000,963.000,931.000,929.000,942.000,930.000,915.000,914.000
791.372,990.000,981.000,967.000,983.000,959.000,961.000,931.000,921.000,923.000,925.000
793.153,990.000,980.000,978.000,955.000,935.000,938.000,954.000,949.000,946.000,926.000
794.933,972.000,970.000,945.000,959.000,924.000,951.000,951.000,924.000,916.000,934.000
796.715,969.000,988.000,960.000,947.000,952.000,939.000,946.000,913.000,932.000,920.000
798.495,1003.000,960.000,955.000,968.000,940.000,948.000,933.000,936.000,921.000,940.000
800.276,994.000,973.000,959.000,963.000,954.000,931.000,937.000,950.000,934.000,911.000
802.055,1004.000,995.000,965.000,967.000,939.000,931.000,935.000,951.000,924.000,912.000
803.836,985.000,967.000,965.000,961.000,949.000,960.000,943.000,955.000,939.000,921.000
805.614,988.000,999.000,951.000,953.000,942.000,948.000,972.000,943.000,929.000,914.000
807.392,1012.000,977.000,975.000,959.000,966.000,932.000,936.000,919.000,927.000,932.000
809.171,1003.000,993.000,967.000,974.000,948.000,964.000,947.000,926.000,942.000,933.000
810.949,1013.000,983.000,986.000,976.000,977.000,960.000,960.000,935.000,930.000,930.000
812.727,1007.000,999.000,979.000,980.000,955.000,959.000,959.000,944.000,944.000,939.000
814.504,1021.000,982.000,971.000,972.000,955.000,964.000,960.000,955.000,945.000,931.000
816.280,1033.000,1009.000,995.000,967.000,947.000,973.000,945.000,959.000,926.000,945.000
818.058,1026.000,981.000,992.000,986.000,970.000,971.000,947.000,950.000,942.000,945.000
819.833,1050.000,993.000,968.000,961.000,974.000,971.000,961.000,943.000,942.000,939.000
821.610,1476.000,1008.000,994.000,999.000,975.000,971.000,958.000,977.000,966.000,944.000
823.385,1041.000,1010.000,994.000,992.000,985.000,976.000,991.000,985.000,981.000,968.000
825.159,1021.000,1006.000,997.000,980.000,974.000,971.000,981.000,969.000,971.000,967.000
826.935,1034.000,1015.000,1006.000,983.000,981.000,986.000,977.000,979.000,966.000,952.000
828.709,998.000,1017.000,987.000,965.000,998.000,974.000,967.000,964.000,973.000,956.000
830.484,1006.000,998.000,983.000,990.000,967.000,959.000,962.000,938.000,963.000,963.000
832.257,1032.000,989.000,995.000,995.000,965.000,973.000,958.000,941.000,951.000,931.000
834.030,1008.000,1002.000,987.000,975.000,973.000,957.000,946.000,953.000,927.000,937.000
835.804,1011.000,985.000,974.000,972.000,985.000,973.000,960.000,969.000,940.000,941.000
837.576,1006.000,990.000,993.000,979.000,970.000,967.000,959.000,963.000,950.000,936.000
839.350,995.000,992.000,990.000,953.000,947.000,948.000,941.000,956.000,941.000,931.000
841.121,1029.000,952.000,981.000,962.000,964.000,955.000,928.000,935.000,956.000,935.000
842.892,1011.000,1007.000,968.000,969.000,947.000,952.000,947.000,953.000,930.000,925.000
844.665,995.000,994.000,977.000,980.000,962.000,959.000,958.000,961.000,953.000,938.000
846.435,1004.000,989.000,994.000,971.000,975.000,959.000,976.000,958.000,948.000,933.000
848.207,1008.000,1017.000,1061.000,984.000,959.000,989.000,971.000,958.000,948.000,944.000
849.976,1020.000,990.000,1745.000,980.000,963.000,959.000,953.000,966.000,940.000,963.000
851.745,1006.000,986.000,1027.000,957.000,995.000,960.000,972.000,961.000,945.000,942.000
853.516,1018.000,1015.000,971.000,947.000,978.000,956.000,964.000,971.000,941.000,933.000
855.284,1017.000,992.000,973.000,967.000,971.000,972.000,969.000,942.000,947.000,956.000
857.054,1015.000,980.000,986.000,986.000,983.000,963.000,981.000,954.000,957.000,935.000
858.822,1021.000,1026.000,973.000,970.000,980.000,961.000,957.000,979.000,963.000,962.000
860.590,1028.000,1006.000,1006.000,956.000,964.000,977.000,968.000,959.000,959.000,944.000
862.359,1037.000,1001.000,986.000,980.000,999.000,973.000,977.000,977.000,957.000,957.000
864.125,1012.000,988.000,972.000,986.000,992.000,953.000,982.000,940.000,964.000,949.000
865.894,1021.000,982.000,977.000,979.000,964.000,985.000,935.000,969.000,951.000,944.000
867.660,1042.000,993.000,991.000,971.000,977.000,987.000,976.000,960.000,964.000,943.000
869.425,1047.000,1022.000,1002.000,989.000,983.000,994.000,988.000,980.000,957.000,955.000
871.193,1044.000,1009.000,1003.000,1019.000,1005.000,1002.000,972.000,959.000,981.000,972.000
872.958,1034.000,1010.000,1011.000,1017.000,993.000,988.000,961.000,970.000,979.000,972.000
874.724,1055.000,1006.000,1027.000,1009.000,1004.000,1002.000,995.000,987.000,984.000,964.000
876.488,1060.000,1038.000,996.000,1013.000,994.000,972.000,985.000,974.000,974.000,989.000
878.252,1065.000,1029.000,1023.000,1003.000,982.000,1007.000,990.000,985.000,1004.000,990.000
880.018,1074.000,1035.000,1036.000,1021.000,1014.000,1003.000,1000.000,990.000,989.000,999.000
881.781,1055.000,1047.000,1027.000,1004.000,1009.000,1003.000,1011.000,998.000,992.000,985.000
883.546,1083.000,1059.000,1031.000,1030.000,1032.000,1022.000,1019.000,988.000,999.000,978.000
885.309,1087.000,1037.000,1051.000,1020.000,1040.000,1029.000,1005.000,1028.000,985.000,1016.000
887.071,1075.000,1055.000,1030.000,1028.000,1002.000,1013.000,1031.000,994.000,979.000,1003.000
888.835,1092.000,1072.000,1040.000,1032.000,1038.000,1013.000,1020.000,976.000,1015.000,988.000
890.596,1096.000,1053.000,1031.000,1018.000,1020.000,1032.000,1015.000,1017.000,1017.000,993.000
892.359,1091.000,1086.000,1052.000,1048.000,1059.000,1045.000,1038.000,1036.000,1018.000,1025.000
894.120,1111.000,1085.000,1082.000,1060.000,1060.000,1063.000,1043.000,1059.000,1013.000,1017.000
895.880,1128.000,1077.000,1079.000,1041.000,1062.000,1062.000,1070.000,1041.000,1049.000,1035.000
897.642,1154.000,1103.000,1080.000,1062.000,1044.000,1075.000,1087.000,1048.000,1027.000,1038.000
899.402,1136.000,1091.000,1085.000,1082.000,1070.000,1058.000,1071.000,1064.000,1031.000,1041.000
901.164,1123.000,1074.000,1091.000,1069.000,1047.000,1033.000,1051.000,1066.000,1042.000,1019.000
902.923,1143.000,1084.000,1063.000,1064.000,1059.000,1068.000,1058.000,1073.000,1048.000,1045.000
904.681,1132.000,1257.000,1090.000,1090.000,1062.000,1062.000,1066.000,1064.000,1030.000,1054.000
906.442,1105.000,1104.000,1082.000,1056.000,1041.000,1038.000,1050.000,1028.000,1007.000,1026.000
908.200,1105.000,1110.000,1095.000,1069.000,1077.000,1018.000,1041.000,1019.000,1054.000,995.000
909.959,1082.000,1069.000,1057.000,1052.000,1037.000,1034.000,1046.000,1049.000,1019.000,1019.000
911.717,1095.000,1059.000,1046.000,1045.000,1022.000,1016.000,1048.000,1012.000,1030.000,1006.000
913.474,1109.000,1082.000,1060.000,1041.000,1066.000,1019.000,1025.000,1027.000,1004.000,1023.000
915.232,1092.000,1054.000,1050.000,1027.000,1031.000,1035.000,1017.000,1026.000,1013.000,1028.000
916.989,1111.000,1052.000,1051.000,1050.000,1058.000,1049.000,1005.000,1016.000,1012.000,1033.000
918.747,1098.000,1056.000,1032.000,1032.000,1020.000,1033.000,1023.000,1016.000,987.000,1024.000
920.502,1107.000,1048.000,1045.000,1019.000,1043.000,1012.000,1041.000,1008.000,1018.000,1014.000
922.257,1118.000,1067.000,1052.000,1035.000,1024.000,1035.000,1015.000,1038.000,1001.000,993.000
924.014,1098.000,1055.000,1029.000,1030.000,1032.000,1017.000,1021.000,1019.000,1028.000,1017.000
925.769,1107.000,1030.000,1075.000,1049.000,1044.000,1048.000,1024.000,1026.000,1025.000,1000.000
927.525,1104.000,1093.000,1055.000,1048.000,1033.000,1020.000,1039.000,1039.000,1020.000,1017.000
929.279,1097.000,1038.000,1048.000,1040.000,1014.000,1026.000,1034.000,996.000,1019.000,1017.000
931.033,1095.000,1031.000,1040.000,1038.000,1025.000,1054.000,1024.000,1003.000,1014.000,997.000
932.788,1084.000,1078.000,1030.000,1035.000,1034.000,1038.000,1022.000,1022.000,997.000,1012.000
934.541,1094.000,1053.000,1054.000,1026.000,1041.000,1031.000,1009.000,1014.000,1003.000,1022.000
936.295,1097.000,1072.000,1071.000,1046.000,1034.000,1004.000,1022.000,1013.000,1005.000,996.000
938.047,1057.000,1067.000,1039.000,1042.000,1030.000,1038.000,1019.000,1008.000,1033.000,1008.000
939.799,1092.000,1086.000,1040.000,1050.000,1017.000,1040.000,1025.000,1027.000,1027.000,1050.000
941.552,1085.000,1044.000,1036.000,1043.000,1035.000,1037.000,1035.000,1062.000,1004.000,1008.000
943.304,1092.000,1061.000,1053.000,1057.000,1031.000,1024.000,1028.000,1017.000,1014.000,1006.000
945.056,1097.000,1050.000,1023.000,1041.000,1040.000,1756.000,1005.000,1027.000,1002.000,1003.000
946.807,1106.000,1068.000,1050.000,1044.000,1037.000,1158.000,1007.000,1046.000,989.000,986.000
948.557,1104.000,1058.000,1025.000,1041.000,1046.000,1048.000,1022.000,1031.000,1032.000,1003.000
950.309,1089.000,1075.000,1064.000,1052.000,1070.000,1041.000,1055.000,1009.000,1024.000,1030.000
952.058,1097.000,1054.000,1072.000,1056.000,1063.000,1062.000,1037.000,1026.000,1030.000,1035.000
953.809,1118.000,1071.000,1049.000,1052.000,1048.000,1038.000,1061.000,1028.000,1038.000,1002.000
955.558,1103.000,1086.000,1071.000,1051.000,1047.000,1041.000,1050.000,1052.000,1024.000,1020.000
957.306,1087.000,1073.000,1056.000,1063.000,1074.000,1015.000,1029.000,1027.000,1016.000,1036.000
959.056,1089.000,1073.000,1087.000,1051.000,1055.000,1066.000,1039.000,1055.000,1035.000,1028.000
960.804,1086.000,1102.000,1062.000,1075.000,1051.000,1040.000,1033.000,1028.000,1035.000,1014.000
962.553,1124.000,1065.000,1067.000,1033.000,1047.000,1048.000,1028.000,1020.000,1009.000,1026.000
964.300,1106.000,1035.000,1043.000,1048.000,1044.000,1039.000,1032.000,1026.000,989.000,1012.000
966.047,1089.000,1069.000,1037.000,1056.000,1036.000,1039.000,992.000,1022.000,1013.000,1004.000
967.795,1077.000,1060.000,1049.000,1024.000,1008.000,1015.000,1011.000,1015.000,998.000,1001.000
969.541,1095.000,1059.000,1062.000,1040.000,1031.000,1009.000,1002.000,1027.000,993.000,994.000
971.289,1095.000,1045.000,1038.000,1048.000,1020.000,1011.000,982.000,1022.000,1020.000,978.000
973.034,1081.000,1040.000,1040.000,1028.000,1043.000,1037.000,1030.000,991.000,1017.000,1001.000
974.779,1097.000,1039.000,1054.000,1038.000,1023.000,1037.000,1017.000,999.000,1019.000,974.000
976.526,1081.000,1037.000,1040.000,1030.000,1014.000,1032.000,995.000,1018.000,1014.000,1008.000
978.270,1083.000,1060.000,1047.000,1047.000,1022.000,1032.000,1021.000,1004.000,1008.000,997.000
980.016,1070.000,1049.000,1067.000,1035.000,1020.000,1020.000,1019.000,1002.000,1002.000,990.000
981.759,1097.000,1065.000,1043.000,1014.000,1026.000,1045.000,1023.000,1014.000,1015.000,999.000
983.503,1086.000,1064.000,1074.000,1040.000,1038.000,1013.000,1034.000,1023.000,1012.000,989.000
985.248,1089.000,1042.000,1051.000,1036.000,1052.000,1038.000,1007.000,1011.000,1003.000,1031.000
986.990,1093.000,1088.000,1044.000,1052.000,1038.000,1049.000,1037.000,1008.000,1014.000,1017.000
988.734,1106.000,1056.000,1076.000,1073.000,1040.000,1027.000,1047.000,1022.000,1027.000,984.000
990.476,1095.000,1069.000,1053.000,1052.000,1035.000,1037.000,1026.000,1053.000,1021.000,1028.000
992.218,1089.000,1063.000,1067.000,1067.000,1038.000,1045.000,1026.000,1032.000,1035.000,1026.000
993.961,1139.000,1096.000,1069.000,1070.000,1092.000,1066.000,1043.000,1068.000,1031.000,1046.000
995.702,1178.000,1141.000,1110.000,1128.000,1123.000,1107.000,1098.000,1096.000,1065.000,1086.000
997.444,1264.000,1219.000,1230.000,1164.000,1162.000,1194.000,1175.000,1170.000,1152.000,1147.000
999.184,1292.000,1239.000,1235.000,1209.000,1193.000,1193.000,1227.000,1181.000,1192.000,1182.000
1000.924,1254.000,1171.000,1188.000,1154.000,1169.000,1143.000,1152.000,1136.000,1156.000,1120.000
1002.666,1134.000,1133.000,1097.000,1120.000,1085.000,1093.000,1090.000,1068.000,1039.000,1079.000
1004.405,1154.000,1097.000,1080.000,1087.000,1059.000,1063.000,1070.000,1052.000,1033.000,1035.000
1006.146,1111.000,1074.000,1090.000,1061.000,1051.000,1055.000,1023.000,1040.000,1017.000,1048.000
1007.884,1156.000,1090.000,1056.000,1080.000,1077.000,1070.000,1065.000,1026.000,1032.000,1034.000
1009.622,1119.000,1088.000,1074.000,1082.000,1078.000,1055.000,1068.000,1016.000,1019.000,1023.000
1011.362,1121.000,1096.000,1072.000,1050.000,1044.000,1063.000,1041.000,1055.000,1051.000,1037.000
1013.100,1110.000,1075.000,1072.000,1051.000,1053.000,1023.000,1043.000,1011.000,1041.000,1032.000
1014.839,1115.000,1082.000,1075.000,1079.000,1049.000,1041.000,1042.000,1041.000,1050.000,1053.000
1016.575,1087.000,1094.000,1076.000,1083.000,1071.000,1069.000,1051.000,1058.000,1031.000,1049.000
1018.312,1124.000,1121.000,1076.000,1089.000,1075.000,1080.000,1061.000,1072.000,1046.000,1040.000
1020.050,1142.000,1106.000,1099.000,1106.000,1063.000,1067.000,1071.000,1053.000,1069.000,1068.000
1021.786,1144.000,1117.000,1111.000,1100.000,1085.000,1080.000,1065.000,1065.000,1078.000,1067.000
1023.523,1158.000,1120.000,1107.000,1095.000,1114.000,1096.000,1092.000,1091.000,1060.000,1077.000
1025.258,1176.000,1135.000,1145.000,1144.000,1108.000,1142.000,1098.000,1107.000,1076.000,1108.000
1026.993,1187.000,1143.000,1149.000,1131.000,1143.000,1133.000,1081.000,1088.000,1098.000,1083.000
1028.729,1202.000,1122.000,1172.000,1146.000,1127.000,1132.000,1128.000,1118.000,1110.000,1113.000
1030.463,1183.000,1161.000,1131.000,1139.000,1132.000,1123.000,1143.000,1131.000,1121.000,1094.000
1032.199,1183.000,1163.000,1142.000,1112.000,1148.000,1156.000,1112.000,1122.000,1099.000,1100.000
1033.932,1179.000,1169.000,1159.000,1158.000,1110.000,1141.000,1127.000,1100.000,1109.000,1092.000
1035.667,1186.000,1178.000,1161.000,1139.000,1121.000,1114.000,1126.000,1147.000,1121.000,1089.000
1037.400,1200.000,1154.000,1153.000,1164.000,1156.000,1144.000,1152.000,1120.000,1124.000,1135.000
1039.133,1218.000,1183.000,1194.000,1175.000,1152.000,1164.000,1141.000,1154.000,1151.000,1143.000
1040.867,1229.000,1201.000,1196.000,1180.000,1188.000,1152.000,1152.000,1156.000,1131.000,1148.000
1042.598,1260.000,1193.000,1167.000,1154.000,1170.000,1164.000,1174.000,1158.000,1148.000,1132.000
1044.332,1239.000,1191.000,1168.000,1197.000,1134.000,1144.000,1121.000,1144.000,1173.000,1137.000
1046.063,1212.000,1187.000,1161.000,1164.000,1174.000,1114.000,1158.000,1152.000,1132.000,1142.000
1047.793,1187.000,1190.000,1169.000,1129.000,1143.000,1164.000,1131.000,1126.000,1124.000,1108.000
1049.526,1189.000,1172.000,1147.000,1160.000,1154.000,1136.000,1130.000,1129.000,1102.000,1129.000
1051.256,1217.000,1172.000,1183.000,1164.000,1156.000,1124.000,1146.000,1125.000,1125.000,1140.000
1052.987,1191.000,1183.000,1152.000,1138.000,1159.000,1148.000,1119.000,1134.000,1123.000,1115.000
1054.717,1201.000,1161.000,1136.000,1157.000,1134.000,1160.000,1113.000,1134.000,1110.000,1126.000
1056.446,1220.000,1175.000,1173.000,1134.000,1151.000,1151.000,1133.000,1090.000,1130.000,1107.000
1058.176,1218.000,1167.000,1170.000,1157.000,1133.000,1147.000,1104.000,1105.000,1117.000,1115.000
1059.905,1197.000,1195.000,1167.000,1186.000,1149.000,1133.000,1113.000,1115.000,1087.000,1124.000
1061.634,1236.000,1201.000,1213.000,1124.000,1143.000,1163.000,1140.000,1147.000,1141.000,1098.000
1063.362,1238.000,1220.000,1162.000,1151.000,1158.000,1159.000,1163.000,1140.000,1154.000,1162.000
1065.089,1235.000,1207.000,1174.000,1190.000,1183.000,1143.000,1138.000,1171.000,1151.000,1131.000
1066.818,1239.000,1180.000,1190.000,1175.000,1154.000,1156.000,1141.000,1148.000,1143.000,1174.000
1068.545,1222.000,1205.000,1179.000,1199.000,1216.000,1173.000,1168.000,1155.000,1156.000,1144.000
1070.273,1233.000,1189.000,1217.000,1188.000,1185.000,1172.000,1164.000,1155.000,1125.000,1130.000
1071.999,1262.000,1222.000,1195.000,1178.000,1183.000,1158.000,1176.000,1172.000,1172.000,1181.000
1073.725,1254.000,1221.000,1236.000,1197.000,1215.000,1168.000,1169.000,1182.000,1176.000,4135.000
1075.452,1284.000,1196.000,1203.000,1203.000,1185.000,1173.000,1159.000,1170.000,1160.000,2349.000
1077.177,1278.000,1254.000,1244.000,1196.000,1183.000,1184.000,1194.000,1179.000,1174.000,1211.000
1078.904,1279.000,1236.000,1202.000,1198.000,1192.000,1175.000,1188.000,1169.000,1160.000,1168.000
1080.628,1238.000,1226.000,1209.000,1215.000,1196.000,1183.000,1185.000,1167.000,1154.000,1152.000
1082.352,1272.000,1223.000,1210.000,1202.000,1193.000,1212.000,1208.000,1181.000,1181.000,1140.000
1084.077,1273.000,1240.000,1232.000,1190.000,1200.000,1192.000,1190.000,1186.000,1170.000,1169.000
1085.801,1270.000,1238.000,1216.000,1180.000,1201.000,1180.000,1150.000,1154.000,1167.000,1144.000
1087.526,1253.000,1194.000,1181.000,1164.000,1167.000,1187.000,1126.000,1155.000,1149.000,1142.000
1089.248,1189.000,1201.000,1158.000,1165.000,1166.000,1108.000,1124.000,1143.000,1088.000,1154.000
1090.971,1203.000,1158.000,1158.000,1121.000,1129.000,1138.000,1128.000,1101.000,1131.000,1122.000
1092.694,1175.000,1138.000,1134.000,1111.000,1124.000,1098.000,1119.000,1094.000,1084.000,1068.000
1094.416,1191.000,1143.000,1143.000,1145.000,1103.000,1119.000,1080.000,1091.000,1093.000,1070.000
1096.139,1171.000,1161.000,1150.000,1110.000,1125.000,1136.000,1101.000,1085.000,1100.000,1089.000
1097.860,1167.000,1132.000,1138.000,1125.000,1115.000,1111.000,1105.000,1081.000,1075.000,1079.000
1099.581,1179.000,1141.000,1141.000,1693.000,1099.000,1119.000,1087.000,1074.000,1097.000,1080.000
1101.303,1178.000,1118.000,1109.000,1801.000,1099.000,1111.000,1101.000,1073.000,1075.000,1072.000
1103.023,1165.000,1158.000,1118.000,1709.000,1083.000,1090.000,1062.000,1090.000,1067.000,1060.000
1104.745,1144.000,1127.000,1114.000,1686.000,1110.000,1100.000,1061.000,1067.000,1051.000,1044.000
1106.464,1163.000,1111.000,1121.000,1640.000,1107.000,1082.000,1085.000,1060.000,1046.000,1094.000
1108.183,1147.000,1122.000,1116.000,2070.000,1095.000,1095.000,1082.000,1084.000,1070.000,1051.000
1109.903,1161.000,1116.000,1142.000,1607.000,1094.000,1103.000,1087.000,1077.000,1061.000,1052.000
1111.622,1169.000,1115.000,1133.000,1594.000,1067.000,1090.000,1094.000,1069.000,1075.000,1055.000
1113.341,1150.000,1119.000,1120.000,1676.000,1083.000,1078.000,1098.000,1084.000,1069.000,1056.000
1115.059,1143.000,1108.000,1112.000,2145.000,1092.000,1077.000,1093.000,1076.000,1076.000,1071.000
1116.776,1159.000,1124.000,1137.000,1448.000,1086.000,1088.000,1081.000,1096.000,1057.000,1061.000
1118.495,1185.000,1144.000,1139.000,1122.000,1090.000,1088.000,1111.000,1079.000,1075.000,1077.000
1120.212,1162.000,1134.000,1111.000,1102.000,1102.000,1098.000,1099.000,1096.000,1078.000,1073.000
1121.930,1148.000,1129.000,1129.000,1112.000,1088.000,1107.000,1084.000,1054.000,1085.000,1072.000
1123.646,1125.000,1101.000,1106.000,1091.000,1096.000,1091.000,1069.000,1087.000,1058.000,1070.000
1125.361,1142.000,1112.000,1112.000,1074.000,1087.000,1077.000,1068.000,1075.000,1049.000,1055.000
1127.079,1135.000,1100.000,1092.000,1089.000,1077.000,1052.000,1056.000,1032.000,1057.000,1039.000
1128.794,1119.000,1084.000,1066.000,1080.000,1049.000,1044.000,1043.000,1036.000,1029.000,1030.000
1130.510,1122.000,1098.000,1081.000,1071.000,1032.000,1057.000,1049.000,1026.000,1050.000,1025.000
1132.224,1114.000,1117.000,1056.000,1071.000,1063.000,1080.000,1064.000,1043.000,1033.000,1046.000
1133.938,1117.000,1070.000,1101.000,1063.000,1077.000,1094.000,1044.000,1041.000,1022.000,1025.000
1135.654,1151.000,1077.000,1078.000,1084.000,1046.000,1043.000,1052.000,1023.000,1039.000,1014.000
1137.367,1112.000,1095.000,1090.000,1074.000,1042.000,1038.000,1026.000,1029.000,1027.000,1005.000
1139.082,1119.000,1076.000,1057.000,1055.000,1059.000,1077.000,1044.000,1028.000,1026.000,1020.000
1140.795,1125.000,1100.000,1073.000,1083.000,1082.000,1053.000,1041.000,1021.000,1034.000,1029.000
1142.507,1124.000,1095.000,1072.000,1066.000,1057.000,1045.000,1060.000,1051.000,1029.000,1038.000
1144.221,1132.000,1099.000,1102.000,1072.000,1088.000,1060.000,1066.000,1058.000,1045.000,1044.000
1145.932,1127.000,1108.000,1076.000,1111.000,1060.000,1064.000,1066.000,1069.000,1041.000,1061.000
1147.645,1121.000,1117.000,1091.000,1078.000,1081.000,1075.000,1078.000,1083.000,1071.000,1050.000
1149.356,1147.000,1146.000,1098.000,1115.000,1089.000,1085.000,1084.000,1070.000,1061.000,1037.000
1151.067,1152.000,1137.000,1117.000,1120.000,1115.000,1095.000,1090.000,1086.000,1078.000,1055.000
1152.779,1167.000,1164.000,1129.000,1119.000,1105.000,1123.000,1099.000,1122.000,1083.000,1079.000
1154.489,1182.000,1146.000,1142.000,1099.000,1122.000,1086.000,1082.000,1070.000,1111.000,1057.000
1156.201,1161.000,1118.000,1164.000,1122.000,1115.000,1124.000,1102.000,1091.000,1077.000,1067.000
1157.910,1173.000,1132.000,1112.000,1080.000,1121.000,1092.000,1108.000,1085.000,1091.000,1077.000
1159.619,1161.000,1119.000,1104.000,1105.000,1098.000,1088.000,1097.000,1072.000,1088.000,1055.000
1161.330,1166.000,1133.000,1106.000,1115.000,1096.000,1122.000,1091.000,1091.000,1099.000,1065.000
1163.038,1160.000,1147.000,1117.000,1119.000,1125.000,1090.000,1102.000,1083.000,1090.000,1092.000
1164.748,1163.000,1136.000,1114.000,1142.000,1118.000,1107.000,1107.000,1103.000,1090.000,1093.000
1166.455,1184.000,1177.000,1127.000,1145.000,1120.000,1126.000,1095.000,1098.000,1080.000,1097.000
1168.163,1163.000,1148.000,1137.000,1109.000,1116.000,1117.000,1110.000,1109.000,1098.000,1079.000
1169.872,1178.000,1122.000,1130.000,1109.000,1119.000,1122.000,1109.000,1103.000,1093.000,1073.000
1171.578,1184.000,1155.000,1139.000,1103.000,1106.000,1101.000,1098.000,1093.000,1095.000,1081.000
1173.286,1189.000,1167.000,1142.000,1107.000,1131.000,1095.000,1115.000,1098.000,1087.000,1091.000
1174.992,1177.000,1148.000,1160.000,1130.000,1111.000,1107.000,1094.000,1115.000,1081.000,1088.000
1176.698,1177.000,1148.000,1153.000,1134.000,1132.000,1139.000,1108.000,1108.000,1074.000,1101.000
1178.405,1203.000,1144.000,1131.000,1134.000,1113.000,1124.000,1136.000,1105.000,1103.000,1107.000
1180.110,1205.000,1169.000,1159.000,1150.000,1124.000,1127.000,1126.000,1114.000,1103.000,1096.000
1181.817,1193.000,1166.000,1150.000,1133.000,1136.000,1124.000,1100.000,1104.000,1098.000,1093.000
1183.521,1152.000,1166.000,1175.000,1141.000,1106.000,1107.000,1131.000,1117.000,1124.000,1082.000
1185.225,1184.000,1148.000,1151.000,1159.000,1142.000,1135.000,1136.000,1099.000,1090.000,1096.000
1186.931,1189.000,1140.000,1155.000,1126.000,1123.000,1153.000,1136.000,1139.000,1107.000,1127.000
1188.634,1197.000,1173.000,1160.000,1151.000,1165.000,1141.000,1134.000,1127.000,1122.000,1123.000
1190.339,1230.000,1187.000,1199.000,1166.000,1162.000,1177.000,1142.000,1140.000,1143.000,1106.000
1192.042,1232.000,1188.000,1192.000,1198.000,1174.000,1157.000,1147.000,1152.000,1143.000,1108.000
1193.744,1261.000,1198.000,1201.000,1155.000,1200.000,1187.000,1178.000,1162.000,1148.000,1160.000
1195.448,1256.000,1208.000,1232.000,1224.000,1205.000,1196.000,1193.000,1174.000,1165.000,1169.000
1197.150,1293.000,1255.000,1214.000,1253.000,1224.000,1225.000,1215.000,1209.000,1186.000,1179.000
1198.853,1317.000,1240.000,1262.000,1263.000,1235.000,1228.000,1227.000,1239.000,1199.000,1227.000
1200.554,1339.000,1298.000,1294.000,1248.000,1227.000,1248.000,1238.000,1280.000,1235.000,1235.000
1202.256,1347.000,1305.000,1286.000,1289.000,1306.000,1264.000,1252.000,1287.000,1271.000,1226.000
1203.957,1352.000,1328.000,1302.000,1301.000,1308.000,1303.000,1283.000,1296.000,1257.000,1262.000
1205.657,1360.000,1351.000,1304.000,1288.000,1309.000,1273.000,1266.000,1306.000,1261.000,1285.000
1207.359,1376.000,1347.000,1329.000,1322.000,1337.000,1310.000,1330.000,1307.000,1279.000,1325.000
1209.058,1426.000,1338.000,1379.000,1358.000,1334.000,1349.000,1369.000,1307.000,1299.000,1309.000
1210.759,1426.000,1403.000,1360.000,1397.000,1365.000,1355.000,1347.000,1327.000,1352.000,1319.000
1212.458,1462.000,1437.000,1413.000,1409.000,1375.000,1402.000,1389.000,1356.000,1366.000,1335.000
1214.156,1457.000,1438.000,1429.000,1405.000,1400.000,1428.000,1386.000,1389.000,1385.000,1363.000
1215.856,1478.000,1475.000,1465.000,1444.000,1411.000,1432.000,1415.000,1406.000,1399.000,1378.000
1217.554,1467.000,1463.000,1467.000,1435.000,1453.000,1434.000,1416.000,1421.000,1430.000,1422.000
1219.253,1523.000,1481.000,1450.000,1457.000,1453.000,1444.000,1414.000,1441.000,1442.000,1410.000
1220.950,1554.000,1499.000,1504.000,1495.000,1480.000,1467.000,1473.000,1470.000,1476.000,1432.000
1222.647,1587.000,1541.000,1537.000,1552.000,1511.000,1508.000,1508.000,1453.000,1468.000,1494.000
1224.345,1583.000,1513.000,1510.000,1524.000,1459.000,1504.000,1511.000,1478.000,1468.000,1488.000
1226.041,1592.000,1538.000,1558.000,1561.000,1524.000,1482.000,1503.000,1512.000,1502.000,1450.000
1227.739,1591.000,1538.000,1544.000,1511.000,1485.000,1511.000,1513.000,1512.000,1474.000,1478.000
1229.434,1577.000,1542.000,1549.000,1509.000,1521.000,1523.000,1511.000,1526.000,1505.000,1468.000
1231.130,1608.000,1542.000,1563.000,1558.000,1546.000,1554.000,1549.000,1516.000,1494.000,1523.000
1232.826,1637.000,1585.000,1612.000,1561.000,1546.000,1562.000,1544.000,1547.000,1500.000,1539.000
1234.521,1646.000,1608.000,1578.000,1571.000,1576.000,1542.000,1561.000,1530.000,1514.000,1528.000
1236.217,1612.000,1573.000,1618.000,1595.000,1550.000,1567.000,1565.000,1548.000,1548.000,1510.000
1237.911,1633.000,1614.000,1579.000,1547.000,1570.000,1563.000,1507.000,1530.000,1569.000,1514.000
1239.604,1613.000,1612.000,1568.000,1562.000,1534.000,1518.000,1491.000,1493.000,1516.000,1516.000
1241.299,1605.000,1559.000,1578.000,1514.000,1541.000,1552.000,1513.000,1526.000,1526.000,1520.000
1242.992,1605.000,1565.000,1541.000,1520.000,1550.000,1527.000,1523.000,1494.000,1476.000,1483.000
1244.686,1606.000,1519.000,1562.000,1546.000,1516.000,1555.000,1503.000,1500.000,1518.000,1472.000
1246.379,1567.000,1545.000,1501.000,1555.000,1542.000,1485.000,1501.000,1467.000,1497.000,1501.000
1248.070,1537.000,1524.000,1532.000,1488.000,1482.000,1504.000,1456.000,1480.000,1477.000,1471.000
1249.764,1498.000,1470.000,1452.000,1480.000,1461.000,1421.000,1460.000,1419.000,1435.000,1442.000
1251.455,1480.000,1431.000,1419.000,1427.000,1418.000,1416.000,1399.000,1411.000,1389.000,1377.000
1253.148,1453.000,1425.000,1426.000,1395.000,1403.000,1379.000,1370.000,1366.000,1378.000,1338.000
1254.838,1460.000,1404.000,1414.000,1374.000,1366.000,1350.000,1347.000,1872.000,1326.000,1354.000
1256.529,1425.000,1406.000,1361.000,1360.000,1351.000,1340.000,1330.000,1405.000,1317.000,1306.000
1258.220,1378.000,1334.000,1342.000,1319.000,1320.000,1311.000,1309.000,1310.000,1309.000,1285.000
1259.910,1364.000,1337.000,1344.000,1318.000,1316.000,1284.000,1298.000,1287.000,1257.000,1252.000
1261.601,1355.000,1323.000,1311.000,1304.000,1278.000,1307.000,1253.000,1262.000,1261.000,1228.000
1263.290,1324.000,1286.000,1289.000,1281.000,1260.000,1246.000,1242.000,1263.000,1258.000,1253.000
1264.979,1313.000,1295.000,1264.000,1268.000,1279.000,1248.000,1229.000,1257.000,1236.000,1218.000
1266.669,1325.000,1287.000,1274.000,1296.000,1291.000,1261.000,1234.000,1284.000,1246.000,1254.000
1268.357,1335.000,1289.000,1287.000,1280.000,1268.000,1260.000,1259.000,1259.000,1265.000,1250.000
1270.046,1332.000,1329.000,1290.000,1280.000,1279.000,1270.000,1234.000,1263.000,1254.000,1214.000
1271.734,1321.000,1303.000,1312.000,1282.000,1264.000,1233.000,1263.000,1248.000,1249.000,1226.000
1273.421,1339.000,1264.000,1283.000,1255.000,1262.000,1285.000,1265.000,1235.000,1217.000,1235.000
1275.109,1324.000,1294.000,1293.000,1305.000,1297.000,1293.000,1255.000,1246.000,1240.000,1228.000
1276.795,1335.000,1307.000,1286.000,1267.000,1269.000,1232.000,1250.000,1254.000,1217.000,1250.000
1278.483,1323.000,1311.000,1313.000,1296.000,1283.000,1248.000,1251.000,1259.000,1227.000,1256.000
1280.169,1343.000,1305.000,1295.000,1274.000,1275.000,1238.000,1288.000,1245.000,1263.000,1256.000
1281.854,1343.000,1303.000,1284.000,1288.000,1291.000,1276.000,1252.000,1236.000,1261.000,1245.000
1283.541,1342.000,1292.000,1284.000,1281.000,1263.000,1244.000,1247.000,1248.000,1230.000,1248.000
1285.226,1304.000,1314.000,1280.000,1264.000,1247.000,1247.000,1241.000,1213.000,1245.000,1228.000
1286.912,1288.000,1302.000,1253.000,1271.000,1277.000,1245.000,1219.000,1214.000,1222.000,1216.000
1288.596,1282.000,1284.000,1252.000,1274.000,1247.000,1263.000,1241.000,1232.000,1232.000,1250.000
1290.280,1278.000,1294.000,1276.000,1278.000,1241.000,1270.000,1255.000,1266.000,1227.000,1211.000
1291.965,1313.000,1304.000,1275.000,1272.000,1283.000,1242.000,1236.000,1239.000,1225.000,3152.000
1293.648,1296.000,1280.000,1284.000,1248.000,1246.000,1243.000,1237.000,1245.000,1243.000,2553.000
1295.333,1310.000,1279.000,1275.000,1303.000,1247.000,1247.000,1230.000,1230.000,1231.000,2780.000
1297.015,1322.000,1271.000,1255.000,3747.000,1265.000,1250.000,1233.000,1239.000,1205.000,1217.000
1298.698,1315.000,1284.000,1297.000,1910.000,1279.000,1242.000,1226.000,1249.000,1220.000,1237.000
1300.381,1338.000,1294.000,1291.000,1321.000,1263.000,1265.000,1266.000,1237.000,1217.000,1902.000
1302.063,1341.000,1313.000,1333.000,1289.000,1291.000,1250.000,1255.000,1271.000,1246.000,1338.000
1303.746,1343.000,1303.000,1292.000,1256.000,1281.000,1283.000,1272.000,1255.000,1250.000,1272.000
1305.427,1334.000,1294.000,1317.000,1314.000,1281.000,1303.000,1270.000,1269.000,1256.000,1247.000
1307.107,1326.000,1322.000,1310.000,1289.000,1289.000,1288.000,1246.000,1258.000,1275.000,1216.000
1308.789,1339.000,1340.000,1310.000,1286.000,1264.000,1248.000,1280.000,1275.000,1245.000,1257.000
1310.469,1365.000,1309.000,1313.000,1305.000,1277.000,1308.000,1308.000,1276.000,1258.000,1263.000
1312.150,1384.000,1312.000,1318.000,1281.000,1275.000,1279.000,1293.000,1269.000,1244.000,1268.000
1313.830,1372.000,1332.000,1324.000,1271.000,1314.000,1289.000,1272.000,1284.000,1245.000,1278.000
1315.508,1361.000,1320.000,1291.000,1324.000,1316.000,1312.000,1292.000,1297.000,1252.000,1269.000
1317.189,1346.000,1333.000,1322.000,1322.000,1281.000,1284.000,1298.000,1287.000,1269.000,1269.000
1318.867,1343.000,1321.000,1319.000,1301.000,1319.000,1329.000,1281.000,1273.000,1239.000,1249.000
1320.547,1366.000,1341.000,1314.000,1298.000,1306.000,1299.000,1293.000,1297.000,1255.000,1277.000
1322.224,1365.000,1296.000,1308.000,1270.000,1293.000,1299.000,1280.000,1272.000,1248.000,1221.000
1323.902,1368.000,1329.000,1331.000,1308.000,1273.000,1291.000,1252.000,1273.000,1262.000,1243.000
1325.581,1358.000,1325.000,1331.000,1288.000,1346.000,1300.000,1290.000,1281.000,1266.000,1268.000
1327.257,1358.000,1339.000,1318.000,1315.000,1294.000,1288.000,1250.000,1279.000,1249.000,1255.000
1328.935,1347.000,1335.000,1326.000,1304.000,1297.000,1274.000,1265.000,1252.000,1255.000,1259.000
1330.611,1361.000,1310.000,1295.000,1290.000,1286.000,1280.000,1264.000,1278.000,1255.000,1243.000
1332.287,1343.000,1289.000,1293.000,1270.000,1286.000,1302.000,1267.000,1254.000,1233.000,1243.000
1333.964,1369.000,1320.000,1281.000,1286.000,1258.000,1251.000,1247.000,1241.000,1231.000,1238.000
1335.639,1273.000,1304.000,1284.000,1288.000,1276.000,1245.000,1261.000,1206.000,1229.000,1238.000
1337.316,1317.000,1312.000,1305.000,1257.000,1252.000,1232.000,1251.000,1253.000,1232.000,1236.000
1338.990,1307.000,1274.000,1256.000,1250.000,1262.000,1241.000,1239.000,1239.000,1211.000,1211.000
1340.664,1279.000,1244.000,1248.000,1215.000,1222.000,1218.000,1236.000,1223.000,1191.000,1203.000
1342.340,1260.000,1265.000,1250.000,1211.000,1235.000,1203.000,1219.000,1182.000,1182.000,1177.000
1344.013,1272.000,1234.000,1238.000,1223.000,1231.000,1206.000,1192.000,1183.000,1186.000,1154.000
1345.688,1261.000,1228.000,1208.000,1216.000,1192.000,1189.000,1197.000,1150.000,1193.000,1181.000
1347.361,1232.000,1217.000,1213.000,1209.000,1210.000,1194.000,1182.000,1168.000,1152.000,1137.000
1349.033,1260.000,1246.000,1217.000,1222.000,1213.000,1177.000,1167.000,1158.000,1141.000,1151.000
1350.707,1206.000,1203.000,1204.000,1206.000,1166.000,1186.000,1176.000,1162.000,1158.000,1142.000
1352.379,1230.000,1227.000,1218.000,1184.000,1147.000,1164.000,1154.000,1163.000,1146.000,1145.000
1354.053,1224.000,1186.000,1213.000,1203.000,1187.000,1156.000,1162.000,1148.000,1145.000,1137.000
1355.724,1243.000,1188.000,1192.000,1162.000,1186.000,1182.000,1138.000,1145.000,1158.000,1115.000
1357.395,1234.000,1192.000,1225.000,1188.000,1172.000,1165.000,1163.000,1144.000,1158.000,1113.000
1359.067,1243.000,1183.000,1185.000,1205.000,1157.000,1181.000,1159.000,1155.000,1156.000,1161.000
1360.737,1221.000,1209.000,1176.000,1186.000,1184.000,1184.000,1170.000,1151.000,1171.000,1167.000
1362.409,1221.000,1222.000,1172.000,1178.000,1183.000,1147.000,1175.000,1144.000,1156.000,1108.000
1364.078,1228.000,1193.000,1182.000,1161.000,1150.000,1170.000,1165.000,1145.000,1127.000,1098.000
1365.748,1198.000,1205.000,1144.000,1170.000,1140.000,1161.000,1123.000,1121.000,1146.000,1094.000
1367.418,1220.000,1197.000,1165.000,1141.000,1123.000,1159.000,1145.000,1125.000,1117.000,1130.000
1369.087,1230.000,1183.000,1188.000,1149.000,1141.000,1150.000,1120.000,1143.000,1092.000,1084.000
1370.757,1221.000,1153.000,1203.000,1152.000,1136.000,1128.000,1141.000,1126.000,1144.000,1089.000
1372.425,1198.000,1161.000,1210.000,1154.000,1154.000,1150.000,1129.000,1118.000,1094.000,1098.000
1374.093,1182.000,1172.000,1655.000,1150.000,1143.000,1160.000,1137.000,1107.000,1110.000,1109.000
1375.762,1218.000,1172.000,1177.000,1139.000,1121.000,1138.000,1109.000,1129.000,1115.000,1091.000
1377.429,1208.000,1152.000,1155.000,1161.000,1151.000,1123.000,1107.000,1107.000,1114.000,1116.000
1379.098,1215.000,1181.000,1171.000,1170.000,1138.000,1136.000,1120.000,1119.000,1131.000,1130.000
1380.764,1206.000,1171.000,1181.000,1146.000,1120.000,1122.000,1103.000,1121.000,1122.000,1101.000
1382.430,1215.000,1204.000,1164.000,1162.000,1157.000,1115.000,1127.000,1135.000,1117.000,1135.000
1384.098,1218.000,1189.000,1191.000,1166.000,1137.000,1165.000,1159.000,1121.000,1108.000,1107.000
1385.763,1211.000,1187.000,1178.000,1159.000,1196.000,1153.000,1142.000,1130.000,1111.000,1115.000
1387.430,1231.000,1171.000,1187.000,1155.000,1152.000,1147.000,1148.000,1129.000,1128.000,1126.000
1389.095,1223.000,1235.000,1156.000,1174.000,1155.000,1147.000,1158.000,1157.000,1135.000,1130.000
1390.759,1235.000,1210.000,1168.000,1183.000,1166.000,1155.000,1150.000,1139.000,1143.000,1118.000
1392.425,1238.000,1211.000,1212.000,1191.000,1179.000,1169.000,1166.000,1131.000,1146.000,1131.000
1394.089,1224.000,1217.000,1199.000,1191.000,1158.000,1168.000,1183.000,1151.000,1126.000,1139.000
1395.754,1257.000,1232.000,1219.000,1193.000,1221.000,1158.000,1173.000,1141.000,1162.000,1106.000
1397.418,1226.000,1183.000,1184.000,1178.000,1199.000,1162.000,1164.000,1159.000,1172.000,1174.000
1399.080,1235.000,1244.000,1203.000,1202.000,1187.000,1176.000,1177.000,1148.000,1156.000,1157.000
1400.745,1227.000,1201.000,1201.000,1218.000,1183.000,1151.000,1196.000,1123.000,1148.000,1136.000
1402.407,1238.000,1186.000,1162.000,1169.000,1164.000,1144.000,1156.000,1151.000,1146.000,1115.000
1404.071,1228.000,1201.000,1195.000,1191.000,1199.000,1190.000,1180.000,1173.000,1170.000,1136.000
1405.732,1255.000,1215.000,1207.000,1197.000,1177.000,1157.000,1165.000,1149.000,1142.000,1162.000
1407.394,1210.000,1206.000,1208.000,1159.000,1160.000,1176.000,1171.000,1146.000,1150.000,1146.000
1409.057,1246.000,1198.000,1213.000,1171.000,1175.000,1182.000,1148.000,1149.000,1140.000,1157.000
1410.717,1211.000,1221.000,1197.000,1186.000,1165.000,1171.000,1139.000,1186.000,1137.000,1157.000
1412.379,1207.000,1208.000,1185.000,1175.000,1145.000,1180.000,1162.000,1156.000,1134.000,1138.000
1414.039,1223.000,1213.000,1180.000,1188.000,1171.000,1160.000,1179.000,1153.000,1156.000,1109.000
1415.699,1236.000,1189.000,1223.000,1163.000,1780.000,1162.000,1135.000,1145.000,1131.000,1128.000
1417.360,1232.000,1181.000,1190.000,1193.000,1170.000,1175.000,1139.000,1143.000,1115.000,1126.000
1419.019,1211.000,1206.000,1174.000,1178.000,1204.000,1176.000,1146.000,1142.000,1140.000,1146.000
1420.680,1224.000,1199.000,1155.000,1141.000,1176.000,1152.000,1165.000,1107.000,1166.000,1124.000
1422.338,1234.000,1199.000,1194.000,1186.000,1166.000,1162.000,1166.000,1151.000,1143.000,1139.000
1423.996,1255.000,1198.000,1170.000,1187.000,1171.000,1140.000,1178.000,1170.000,1132.000,1145.000
1425.656,1260.000,1191.000,1225.000,1215.000,1165.000,1183.000,1171.000,1157.000,1161.000,1168.000
1427.314,1282.000,1249.000,1230.000,1218.000,1193.000,1223.000,1168.000,1173.000,1172.000,1152.000
1428.973,1306.000,1274.000,1230.000,1228.000,1239.000,1232.000,1216.000,1215.000,1223.000,1185.000
1430.629,1317.000,1268.000,1303.000,1270.000,1249.000,1237.000,1223.000,1220.000,1222.000,1210.000
1432.286,1341.000,1313.000,1322.000,1275.000,1256.000,1315.000,1225.000,1246.000,1224.000,1239.000
1433.944,1383.000,1331.000,1335.000,1300.000,1325.000,1298.000,1296.000,1256.000,1265.000,1279.000
1435.600,1395.000,1350.000,1341.000,1314.000,1336.000,1318.000,1344.000,1303.000,1313.000,1286.000
1437.257,1420.000,1376.000,1361.000,1366.000,1348.000,1369.000,1332.000,1341.000,1287.000,1353.000
1438.913,1500.000,1442.000,1415.000,1412.000,1389.000,1371.000,1368.000,1381.000,1376.000,1372.000
1440.569,1554.000,1467.000,1451.000,1483.000,1442.000,1429.000,1451.000,1422.000,1395.000,1386.000
1442.224,1523.000,1492.000,1484.000,1507.000,1440.000,1479.000,1420.000,1465.000,1408.000,1418.000
1443.878,1507.000,1485.000,1443.000,1427.000,1436.000,1435.000,1455.000,1429.000,1432.000,1394.000
1445.534,1533.000,1496.000,1467.000,1446.000,1494.000,1453.000,1431.000,1431.000,1407.000,1416.000
1447.188,1525.000,1482.000,1452.000,1430.000,1463.000,1414.000,1449.000,1423.000,1416.000,1406.000
1448.843,1500.000,1495.000,1458.000,1467.000,1454.000,1425.000,1435.000,1433.000,1408.000,1387.000
1450.496,1505.000,1469.000,1444.000,1456.000,1435.000,1444.000,1452.000,1403.000,1408.000,1379.000
1452.149,1499.000,1456.000,1437.000,1459.000,1419.000,1416.000,1416.000,1380.000,1374.000,1439.000
1453.803,1454.000,1423.000,1415.000,1419.000,1423.000,1399.000,1379.000,1369.000,1405.000,1373.000
1455.455,1468.000,1414.000,1410.000,1390.000,1405.000,1371.000,1383.000,1340.000,1375.000,1317.000
1457.109,1434.000,1420.000,1415.000,1408.000,1371.000,1379.000,1351.000,1347.000,1350.000,1347.000
1458.760,1435.000,1366.000,1349.000,1347.000,1337.000,1327.000,1345.000,1318.000,1333.000,1325.000
1460.412,1356.000,1369.000,1317.000,1341.000,1363.000,1322.000,1329.000,1300.000,1288.000,1271.000
1462.064,1379.000,1293.000,1326.000,1306.000,1303.000,1302.000,1292.000,1261.000,1284.000,1275.000
1463.715,1349.000,1308.000,1280.000,1294.000,1274.000,1266.000,1234.000,1217.000,1264.000,1227.000
1465.367,1329.000,1279.000,1289.000,1232.000,1222.000,1217.000,1220.000,1217.000,1215.000,1210.000
1467.017,1275.000,1260.000,1240.000,1228.000,1208.000,1194.000,1200.000,1197.000,1184.000,1177.000
1468.666,1225.000,1193.000,1201.000,1197.000,1169.000,1164.000,1156.000,1167.000,1137.000,1114.000
1470.317,1215.000,1172.000,1153.000,1171.000,1130.000,1138.000,1151.000,1119.000,1121.000,1088.000
1471.966,1184.000,1141.000,1155.000,1161.000,1173.000,1142.000,1107.000,1108.000,1084.000,1093.000
1473.617,1200.000,1179.000,1160.000,1140.000,1101.000,1097.000,1106.000,1082.000,1113.000,1071.000
1475.265,1157.000,1168.000,1134.000,1117.000,1140.000,1099.000,1084.000,1084.000,1082.000,1055.000
1476.913,1171.000,1145.000,1126.000,1107.000,1094.000,1092.000,1077.000,1064.000,1044.000,1040.000
1478.563,1163.000,1099.000,1102.000,1108.000,1102.000,1072.000,1076.000,1057.000,1057.000,1053.000
1480.210,1168.000,1133.000,1115.000,1096.000,1072.000,1064.000,1062.000,1045.000,1051.000,1060.000
1481.859,1121.000,1080.000,1101.000,1081.000,1084.000,1066.000,1034.000,1061.000,1042.000,1009.000
1483.506,1107.000,1125.000,1108.000,1068.000,1062.000,1072.000,1077.000,1053.000,1038.000,1029.000
1485.152,1137.000,1112.000,1099.000,1093.000,1076.000,1059.000,1052.000,1072.000,1944.000,1040.000
1486.800,1127.000,1103.000,1118.000,1093.000,1087.000,1060.000,1050.000,1029.000,1363.000,1015.000
1488.446,1145.000,1112.000,1103.000,1088.000,1058.000,1038.000,1062.000,1041.000,1055.000,1055.000
1490.093,1120.000,1104.000,1089.000,1082.000,1060.000,1050.000,1059.000,1047.000,1059.000,1033.000
1491.739,1133.000,1101.000,1101.000,1077.000,1067.000,1075.000,1042.000,1032.000,1044.000,1045.000
1493.384,1120.000,1094.000,1085.000,1088.000,1074.000,1080.000,1041.000,1038.000,1043.000,1028.000
1495.030,1132.000,1123.000,1068.000,1083.000,1073.000,1037.000,1062.000,1028.000,1058.000,1025.000
1496.674,1140.000,1117.000,1069.000,1057.000,1065.000,1081.000,1055.000,1055.000,1056.000,1025.000
1498.320,1131.000,1109.000,1103.000,1075.000,1082.000,1084.000,1053.000,1047.000,1037.000,1043.000
1499.964,1108.000,1104.000,1123.000,1074.000,1066.000,1071.000,1069.000,1058.000,1055.000,1026.000
1501.607,1141.000,1113.000,1097.000,1079.000,1079.000,1062.000,1054.000,1050.000,1052.000,1027.000
1503.252,1139.000,1107.000,1076.000,1051.000,1062.000,1053.000,1078.000,1050.000,1048.000,1006.000
1504.894,1124.000,1100.000,1102.000,1071.000,1057.000,1050.000,1068.000,1053.000,1034.000,1017.000
1506.539,1110.000,1099.000,1097.000,1088.000,1056.000,1069.000,1059.000,1043.000,1046.000,1046.000
1508.181,1131.000,1112.000,1134.000,1075.000,1064.000,1040.000,1052.000,1078.000,1035.000,1035.000
1509.823,1132.000,1107.000,1101.000,1098.000,1066.000,1095.000,1065.000,1063.000,1049.000,1056.000
1511.466,1153.000,1119.000,1090.000,1105.000,1058.000,1084.000,1077.000,1071.000,1039.000,1020.000
1513.107,1151.000,1123.000,1099.000,1102.000,1078.000,1093.000,1057.000,1024.000,1022.000,1028.000
1514.750,1142.000,1115.000,1118.000,1081.000,1075.000,1099.000,1068.000,1054.000,1044.000,1033.000
1516.390,1157.000,1131.000,1101.000,1094.000,1058.000,1072.000,1075.000,1068.000,1038.000,1027.000
1518.030,1133.000,1127.000,1104.000,1099.000,1068.000,1070.000,1084.000,1074.000,1052.000,1050.000
1519.672,1168.000,1112.000,1111.000,1107.000,1079.000,1113.000,1079.000,1072.000,1054.000,1033.000
1521.312,1152.000,1130.000,1109.000,1099.000,1083.000,1104.000,1074.000,1072.000,1065.000,1042.000
1522.953,1159.000,1127.000,1116.000,1090.000,1107.000,1069.000,1076.000,1062.000,1067.000,1044.000
1524.592,1161.000,1113.000,1092.000,1134.000,1101.000,1077.000,1083.000,1065.000,1047.000,1070.000
1526.230,1162.000,1118.000,1116.000,1079.000,1083.000,1116.000,1070.000,1053.000,1049.000,1048.000
1527.871,1133.000,1122.000,1107.000,1111.000,1109.000,1084.000,1094.000,1076.000,1077.000,1064.000
1529.509,1171.000,1152.000,1135.000,1125.000,1098.000,1105.000,1078.000,1105.000,1077.000,1059.000
1531.148,1178.000,1155.000,1114.000,1102.000,1108.000,1088.000,1093.000,1072.000,1083.000,1070.000
1532.786,1190.000,1149.000,1140.000,1101.000,1116.000,1114.000,1082.000,1062.000,1085.000,1069.000
1534.423,1166.000,1124.000,1125.000,1132.000,1108.000,1111.000,1078.000,1067.000,1097.000,1097.000
1536.061,1163.000,1134.000,1111.000,1136.000,1130.000,1101.000,1101.000,1081.000,1078.000,1060.000
1537.698,1159.000,1146.000,1142.000,1136.000,1096.000,1069.000,1100.000,1101.000,1068.000,1076.000
1539.336,1176.000,1161.000,1100.000,1128.000,1127.000,1101.000,1108.000,1090.000,1086.000,1100.000
1540.972,1172.000,1141.000,1147.000,1149.000,1130.000,1134.000,1119.000,1121.000,1087.000,1115.000
1542.607,1185.000,1156.000,1157.000,1150.000,1136.000,1122.000,1100.000,1114.000,1089.000,1088.000
1544.244,1171.000,1211.000,1143.000,1146.000,1138.000,1143.000,1129.000,1115.000,1099.000,1104.000
1545.879,1206.000,1189.000,1161.000,1171.000,1139.000,1125.000,1148.000,1098.000,1119.000,1102.000
1547.515,1186.000,1192.000,1140.000,1159.000,1119.000,1137.000,1138.000,1107.000,1134.000,1102.000
1549.150,1196.000,1174.000,1179.000,1142.000,1122.000,1120.000,1126.000,1118.000,1133.000,1099.000
1550.784,1208.000,1164.000,1156.000,1164.000,1147.000,1127.000,1127.000,1115.000,1108.000,1102.000
1552.419,1208.000,1190.000,1197.000,1156.000,1152.000,1128.000,1114.000,1129.000,1111.000,1091.000
1554.053,1211.000,1183.000,1180.000,1182.000,1150.000,1144.000,1129.000,1119.000,1138.000,1118.000
1555.688,1221.000,1184.000,1146.000,1179.000,1138.000,1136.000,1106.000,1120.000,1099.000,1118.000
1557.320,1219.000,1179.000,1153.000,1154.000,1146.000,1138.000,1121.000,1133.000,1116.000,1125.000
1558.953,1191.000,1172.000,1175.000,1139.000,1148.000,1116.000,1119.000,1088.000,1112.000,1104.000
1560.587,1219.000,1173.000,1166.000,1150.000,1128.000,1123.000,1095.000,1083.000,1113.000,1097.000
1562.219,1181.000,1153.000,1159.000,1140.000,1133.000,1115.000,1116.000,1112.000,1100.000,1105.000
1563.852,1176.000,1158.000,1168.000,1148.000,1119.000,1119.000,1107.000,1074.000,1078.000,1067.000
1565.483,1184.000,1165.000,1123.000,1109.000,1106.000,1098.000,1098.000,1097.000,1073.000,1062.000
1567.116,1153.000,1123.000,1129.000,1118.000,1121.000,1099.000,1110.000,1094.000,1090.000,1051.000
1568.746,1163.000,1138.000,1136.000,1108.000,1101.000,1113.000,1080.000,1107.000,1093.000,1056.000
1570.377,1154.000,1131.000,1120.000,1139.000,1100.000,1095.000,1110.000,1083.000,1075.000,1055.000
1572.008,1151.000,1143.000,1130.000,1102.000,1084.000,1085.000,1075.000,1087.000,1089.000,1051.000
1573.638,1192.000,1161.000,1127.000,1111.000,1129.000,1096.000,1096.000,1084.000,1095.000,1060.000
1575.269,1184.000,1137.000,1157.000,1135.000,1140.000,1101.000,1119.000,1088.000,1121.000,1084.000
1576.898,1188.000,1176.000,1142.000,1138.000,1167.000,1118.000,1142.000,1127.000,1135.000,1107.000
1578.527,1186.000,1166.000,1163.000,1141.000,1162.000,1144.000,1103.000,1119.000,1093.000,1112.000
1580.157,1178.000,1177.000,1131.000,1113.000,1140.000,1120.000,1112.000,1112.000,1095.000,1084.000
1581.785,1172.000,1164.000,1145.000,1112.000,1111.000,1109.000,1106.000,1072.000,1084.000,1079.000
1583.415,1171.000,1119.000,1124.000,1132.000,1108.000,1081.000,1102.000,1102.000,1078.000,1072.000
1585.043,1172.000,1132.000,1144.000,1119.000,1106.000,1109.000,1107.000,1094.000,1078.000,1079.000
1586.670,1198.000,1155.000,1123.000,1124.000,1120.000,1115.000,1114.000,1088.000,1118.000,1108.000
1588.299,1211.000,1164.000,1114.000,1128.000,1116.000,1113.000,1110.000,1082.000,1112.000,1087.000
1589.925,1210.000,1151.000,1170.000,1150.000,1160.000,1155.000,1129.000,1099.000,1112.000,1115.000
1591.553,1194.000,1170.000,1199.000,1169.000,1139.000,1187.000,1153.000,1146.000,1136.000,1116.000
1593.179,1235.000,1210.000,1195.000,1198.000,1199.000,1189.000,1176.000,1163.000,1144.000,1123.000
1594.805,1277.000,1242.000,1222.000,1226.000,1196.000,1227.000,1193.000,1198.000,1167.000,1160.000
1596.432,1279.000,1277.000,1263.000,1240.000,1229.000,1222.000,1216.000,1197.000,1208.000,1204.000
1598.057,1291.000,1271.000,1279.000,1244.000,1221.000,1218.000,1220.000,1202.000,1208.000,1186.000
1599.684,1253.000,1227.000,1212.000,1236.000,1210.000,1192.000,1197.000,1174.000,1180.000,1185.000
1601.308,1262.000,1235.000,1199.000,1195.000,1198.000,1174.000,1184.000,1182.000,1155.000,1136.000
1602.932,1252.000,1207.000,1183.000,1168.000,1186.000,1179.000,1160.000,1137.000,1158.000,1124.000
1604.558,1227.000,1181.000,1202.000,1185.000,1146.000,1146.000,1142.000,1108.000,1119.000,1135.000
1606.181,1230.000,1222.000,1167.000,1166.000,1145.000,1160.000,1127.000,1162.000,1118.000,1116.000
1607.806,1213.000,1177.000,1168.000,1156.000,1149.000,1136.000,1150.000,1139.000,1108.000,1100.000
1609.429,1239.000,1199.000,1175.000,1178.000,1155.000,1150.000,1149.000,1158.000,1106.000,1096.000
1611.052,1219.000,1183.000,1182.000,1134.000,1131.000,1149.000,1135.000,1125.000,1118.000,1100.000
1612.676,1228.000,1191.000,1158.000,1156.000,1152.000,1153.000,1135.000,1114.000,1110.000,1076.000
1614.298,1231.000,1178.000,1173.000,1146.000,1162.000,1122.000,1094.000,1122.000,1108.000,1102.000
1615.921,1194.000,1157.000,1175.000,1161.000,1140.000,1135.000,1122.000,1138.000,1090.000,1087.000
1617.543,1200.000,1179.000,1159.000,1166.000,1139.000,1119.000,1119.000,1098.000,1096.000,1086.000
1619.164,1206.000,1165.000,1151.000,1150.000,1110.000,1127.000,1151.000,1109.000,1103.000,1107.000
1620.786,1215.000,1162.000,1139.000,1133.000,1140.000,1110.000,1116.000,1124.000,1128.000,1087.000
1622.407,1210.000,1183.000,1181.000,1141.000,1139.000,1107.000,1156.000,1122.000,1112.000,1119.000
1624.029,1220.000,1213.000,1174.000,1156.000,1151.000,1139.000,1106.000,1114.000,1118.000,1107.000
1625.649,1245.000,1198.000,1172.000,1167.000,1168.000,1157.000,1132.000,1151.000,1138.000,1120.000
1627.268,1219.000,1192.000,1172.000,1166.000,1157.000,1115.000,1147.000,1123.000,1122.000,1123.000
1628.889,1215.000,1203.000,1199.000,1148.000,1136.000,1167.000,1150.000,1142.000,1116.000,1094.000
1630.508,1241.000,1192.000,1220.000,1176.000,1189.000,1196.000,1149.000,1143.000,1135.000,1130.000
1632.128,1230.000,1223.000,1181.000,1192.000,1194.000,1168.000,1172.000,1172.000,1152.000,1138.000
1633.747,1258.000,1230.000,1201.000,1211.000,1224.000,1188.000,2845.000,1168.000,1162.000,1180.000
1635.365,1256.000,1216.000,1226.000,1217.000,1193.000,1175.000,1526.000,1195.000,1167.000,1181.000
1636.984,1275.000,1231.000,1240.000,1221.000,1201.000,1171.000,1189.000,1182.000,1170.000,1164.000
1638.602,1317.000,1269.000,1260.000,1238.000,1224.000,1229.000,1214.000,1224.000,1186.000,1187.000
1640.221,1286.000,1257.000,1244.000,1233.000,1235.000,1230.000,1192.000,1183.000,1198.000,1194.000
1641.837,1321.000,1279.000,1297.000,1272.000,1262.000,1238.000,1232.000,1227.000,1196.000,1199.000
1643.454,1369.000,1311.000,1283.000,1275.000,1300.000,1267.000,1258.000,1276.000,1256.000,1229.000
1645.072,1378.000,1305.000,1295.000,1319.000,1312.000,1286.000,1257.000,1267.000,1263.000,1250.000
1646.688,1365.000,1350.000,1330.000,1333.000,1340.000,1348.000,1310.000,1285.000,1297.000,1262.000
1648.305,1377.000,1370.000,1365.000,1321.000,1305.000,1311.000,1307.000,1276.000,1302.000,1281.000
1649.920,1408.000,1361.000,1362.000,1315.000,1324.000,1329.000,1315.000,1302.000,1295.000,1291.000
1651.535,1434.000,1376.000,1359.000,1346.000,1351.000,1310.000,1328.000,1284.000,1295.000,1278.000
1653.152,1419.000,1340.000,1370.000,1356.000,1319.000,1311.000,1296.000,1309.000,1298.000,1297.000
1654.766,1444.000,1373.000,1376.000,1340.000,1326.000,1341.000,1352.000,1315.000,1304.000,1287.000
1656.382,1473.000,1368.000,1357.000,1361.000,1334.000,1350.000,1333.000,1340.000,1300.000,1332.000
1657.996,1452.000,1386.000,1389.000,1383.000,1329.000,1331.000,1315.000,1319.000,1320.000,1318.000
1659.609,1501.000,1380.000,1423.000,1403.000,1348.000,1367.000,1372.000,1348.000,1308.000,1320.000
1661.224,1462.000,1387.000,1383.000,1398.000,1363.000,1313.000,1363.000,1316.000,1323.000,1321.000
1662.837,1471.000,1394.000,1368.000,1355.000,1359.000,1344.000,1342.000,1322.000,1309.000,1315.000
1664.451,1475.000,1397.000,1356.000,1364.000,1339.000,1340.000,1351.000,1308.000,1316.000,1293.000
1666.063,1452.000,1388.000,1338.000,1318.000,1356.000,1322.000,1278.000,1309.000,1269.000,1292.000
1667.675,1442.000,1312.000,1365.000,1311.000,1325.000,1312.000,1311.000,1286.000,1263.000,1281.000
1669.289,1405.000,1323.000,1319.000,1300.000,1296.000,1297.000,1299.000,1274.000,1248.000,1254.000
1670.900,1363.000,1337.000,1261.000,1289.000,1262.000,1253.000,1223.000,1239.000,1220.000,1254.000
1672.513,1357.000,1288.000,1262.000,1247.000,1259.000,1273.000,1243.000,1250.000,1241.000,1228.000
1674.124,1319.000,1275.000,1274.000,1259.000,1204.000,1230.000,1211.000,1194.000,1219.000,1199.000
1675.734,1315.000,1251.000,1250.000,1223.000,1222.000,1201.000,1197.000,1204.000,1217.000,1168.000
1677.346,1317.000,1272.000,1265.000,1197.000,1238.000,1243.000,1198.000,1197.000,1186.000,1166.000
1678.956,1280.000,1204.000,1235.000,1197.000,1234.000,1208.000,1181.000,1170.000,1165.000,1160.000
1680.567,1266.000,1233.000,1211.000,1191.000,1227.000,1185.000,1192.000,1161.000,1178.000,1148.000
1682.176,1261.000,1236.000,1219.000,1196.000,1177.000,1195.000,1159.000,1175.000,1163.000,1177.000
1683.785,1287.000,1198.000,1205.000,1183.000,1209.000,1161.000,1147.000,1147.000,1151.000,1120.000
1685.395,1239.000,1206.000,1197.000,1204.000,1160.000,1147.000,1149.000,1127.000,1100.000,1126.000
1687.004,1223.000,1191.000,1183.000,1212.000,1164.000,1158.000,1141.000,1148.000,1123.000,1130.000
1688.613,1236.000,1166.000,1184.000,1132.000,1160.000,1146.000,1159.000,1145.000,1144.000,1100.000
1690.221,1224.000,1177.000,1171.000,1164.000,1137.000,1140.000,1138.000,1115.000,1119.000,1083.000
1691.829,1193.000,1182.000,1182.000,1134.000,1143.000,1118.000,1125.000,1106.000,1111.000,1123.000
1693.437,1191.000,1165.000,1143.000,1158.000,1153.000,1139.000,3154.000,1126.000,1088.000,1104.000
1695.044,1200.000,1127.000,1146.000,1114.000,1100.000,1108.000,1119.000,1087.000,1092.000,1076.000
1696.652,1193.000,1125.000,1126.000,1109.000,1139.000,1111.000,1105.000,1111.000,1072.000,1071.000
1698.259,1171.000,1155.000,1131.000,1104.000,1126.000,1085.000,1080.000,1074.000,1044.000,1053.000
1699.864,1153.000,1140.000,1111.000,1100.000,1075.000,1101.000,1086.000,1083.000,1060.000,1060.000
1701.472,1167.000,1148.000,1120.000,1093.000,1082.000,1079.000,1086.000,1065.000,1059.000,1056.000
1703.077,1174.000,1146.000,1112.000,1127.000,1053.000,1105.000,1059.000,1077.000,1071.000,1054.000
1704.684,1129.000,1111.000,1102.000,1119.000,1100.000,1078.000,1052.000,1049.000,1029.000,1029.000
1706.288,1139.000,1132.000,1110.000,1095.000,1083.000,1071.000,1063.000,1050.000,1030.000,1053.000
1707.893,1124.000,1140.000,1094.000,1080.000,1071.000,1073.000,1065.000,1023.000,1057.000,1036.000
1709.499,1122.000,1105.000,1093.000,1099.000,1066.000,1066.000,1061.000,1074.000,1045.000,1037.000
1711.102,1131.000,1097.000,1110.000,1097.000,1094.000,1072.000,1084.000,1053.000,1038.000,1034.000
1712.708,1136.000,1125.000,1107.000,1079.000,1052.000,1058.000,1065.000,1049.000,1030.000,1026.000
1714.311,1145.000,1086.000,1090.000,1078.000,1060.000,1058.000,1074.000,1042.000,1051.000,1030.000
1715.914,1114.000,1111.000,1093.000,1074.000,1066.000,1053.000,1049.000,1049.000,1043.000,1036.000
1717.518,1150.000,1134.000,1112.000,1073.000,1072.000,1078.000,1062.000,1059.000,1032.000,1050.000
1719.120,1164.000,1115.000,1079.000,1084.000,1099.000,1078.000,1074.000,1045.000,1026.000,1032.000
1720.724,1118.000,1096.000,1077.000,1062.000,1070.000,1076.000,1034.000,1065.000,1049.000,1030.000
1722.326,1132.000,1079.000,1090.000,1089.000,1051.000,1064.000,1058.000,1034.000,1044.000,1035.000
1723.927,1118.000,1102.000,1090.000,1094.000,1061.000,1056.000,1045.000,1042.000,1069.000,1044.000
1725.530,1144.000,1089.000,1119.000,1053.000,1068.000,1068.000,1027.000,1032.000,1026.000,1047.000
1727.131,1109.000,1141.000,1086.000,1108.000,1039.000,1067.000,1033.000,1042.000,1055.000,1020.000
1728.733,1128.000,1111.000,1109.000,1087.000,1073.000,1055.000,1062.000,1063.000,1048.000,1038.000
1730.333,1138.000,1112.000,1097.000,1105.000,1051.000,1077.000,1042.000,1040.000,1027.000,1049.000
1731.933,1129.000,1084.000,1094.000,1072.000,1078.000,1070.000,1053.000,1048.000,1050.000,1057.000
1733.534,1115.000,1096.000,1086.000,1079.000,1090.000,1050.000,1042.000,1052.000,1066.000,1029.000
1735.133,1113.000,1080.000,1103.000,1054.000,1067.000,1074.000,1047.000,1065.000,1052.000,1027.000
1736.734,1123.000,1088.000,1092.000,1087.000,1090.000,1034.000,1050.000,1030.000,1041.000,1028.000
1738.333,1130.000,1094.000,1112.000,1075.000,1068.000,1051.000,1047.000,1054.000,1031.000,1046.000
1739.931,1143.000,1101.000,1090.000,1083.000,1065.000,1066.000,1049.000,1032.000,1045.000,1035.000
1741.531,1121.000,1130.000,1108.000,1079.000,1066.000,1060.000,1035.000,1036.000,1020.000,1031.000
1743.129,1130.000,1109.000,1103.000,1096.000,1054.000,1080.000,1068.000,1051.000,1023.000,1018.000
1744.728,1137.000,1114.000,1086.000,1072.000,1064.000,1055.000,1027.000,1024.000,1032.000,1043.000
1746.325,1145.000,1078.000,1105.000,1075.000,1086.000,1053.000,1057.000,1043.000,1041.000,1035.000
1747.922,1152.000,1102.000,1085.000,1072.000,1086.000,1042.000,1081.000,1039.000,1046.000,1030.000
1749.520,1152.000,1095.000,1099.000,1074.000,1094.000,1067.000,1054.000,1033.000,1074.000,1039.000
1751.116,1138.000,1117.000,1121.000,1096.000,1062.000,1058.000,1065.000,1066.000,1036.000,1035.000
1752.714,1128.000,1100.000,1079.000,1067.000,1087.000,1065.000,1059.000,1034.000,1016.000,1005.000
1754.310,1122.000,1109.000,1107.000,1075.000,1071.000,1060.000,1061.000,1032.000,1058.000,1034.000
1755.905,1137.000,1122.000,1052.000,1093.000,1101.000,1069.000,1050.000,1042.000,1043.000,1024.000
1757.502,1121.000,1095.000,1065.000,1069.000,1070.000,1076.000,1080.000,1032.000,1033.000,1028.000
1759.097,1120.000,1117.000,1098.000,1080.000,1073.000,1074.000,1047.000,1040.000,1032.000,1056.000
1760.693,1133.000,1102.000,1108.000,1106.000,1097.000,1069.000,1051.000,1036.000,1028.000,1037.000
1762.287,1120.000,1090.000,1092.000,1077.000,1086.000,1087.000,1047.000,1040.000,1016.000,1038.000
1763.881,1146.000,1111.000,1081.000,1077.000,1087.000,1042.000,1040.000,1031.000,1036.000,1047.000
1765.476,1120.000,1098.000,1097.000,1073.000,1073.000,1075.000,1076.000,1052.000,1042.000,1037.000
1767.070,1158.000,1136.000,1072.000,1075.000,1084.000,1065.000,1053.000,1029.000,1054.000,1017.000
1768.664,1132.000,1101.000,1088.000,1105.000,1083.000,1053.000,1076.000,1076.000,1026.000,1039.000
1770.257,1134.000,1122.000,1085.000,1084.000,1061.000,1075.000,1050.000,1028.000,1061.000,1028.000
1771.849,1166.000,1081.000,1111.000,1093.000,1082.000,1069.000,1063.000,1055.000,1036.000,1035.000
1773.443,1150.000,1101.000,1108.000,1068.000,1065.000,1044.000,1058.000,1070.000,1059.000,1022.000
1775.035,1148.000,1136.000,1098.000,1091.000,1098.000,1076.000,1063.000,1057.000,1049.000,1046.000
1776.628,1143.000,1115.000,1087.000,1106.000,1040.000,1083.000,1063.000,1053.000,1053.000,1039.000
1778.219,1116.000,1121.000,1072.000,1081.000,1061.000,1059.000,1059.000,1052.000,1035.000,1036.000
1779.810,1118.000,1099.000,1084.000,1087.000,1057.000,1070.000,1056.000,1039.000,1010.000,1076.000
1781.403,1138.000,1111.000,1091.000,1083.000,1072.000,1077.000,1074.000,1051.000,1052.000,1028.000
1782.993,1160.000,1084.000,1113.000,1083.000,1082.000,1048.000,1074.000,1063.000,1053.000,1027.000
1784.585,1140.000,1117.000,1094.000,1079.000,1100.000,1087.000,1068.000,1026.000,1041.000,1028.000
1786.174,1160.000,1111.000,1081.000,1086.000,1080.000,1062.000,1058.000,1054.000,1043.000,1018.000
1787.764,1137.000,1089.000,1107.000,1092.000,1095.000,1080.000,1063.000,1052.000,1040.000,1037.000
1789.355,1132.000,1104.000,1106.000,1101.000,1056.000,1050.000,1077.000,1061.000,1040.000,1021.000
1790.944,1143.000,1105.000,1113.000,1065.000,1098.000,1058.000,1078.000,1058.000,1051.000,1024.000
1792.534,1157.000,1121.000,1087.000,1109.000,1079.000,1048.000,1052.000,1031.000,1059.000,1044.000
1794.122,1105.000,1112.000,1100.000,1086.000,1070.000,1068.000,1053.000,1053.000,1049.000,1053.000
1795.710,1148.000,1109.000,1106.000,1092.000,1090.000,1064.000,1075.000,1058.000,1046.000,1024.000
1797.299,1131.000,1126.000,1096.000,1096.000,1100.000,1100.000,1057.000,1059.000,1060.000,1032.000
1798.887,1131.000,1115.000,1111.000,1110.000,1086.000,1074.000,1054.000,1059.000,1056.000,1046.000
1800.475,1133.000,1102.000,1112.000,1088.000,1085.000,1066.000,1074.000,1067.000,1053.000,1016.000
1802.062,1115.000,1107.000,1120.000,1083.000,1079.000,1091.000,1069.000,1067.000,1050.000,1032.000
1803.649,1139.000,1124.000,1107.000,1083.000,1067.000,1070.000,1064.000,1044.000,1059.000,1043.000
1805.236,1130.000,1101.000,1123.000,1120.000,1084.000,1076.000,1062.000,1072.000,1065.000,1033.000
1806.822,1150.000,1103.000,1116.000,1090.000,1085.000,1082.000,1076.000,1067.000,1057.000,1022.000
1808.410,1135.000,1131.000,1124.000,1124.000,1097.000,1084.000,1094.000,1076.000,1068.000,1035.000
1809.995,1152.000,1120.000,1096.000,1084.000,1071.000,1074.000,1065.000,1081.000,1039.000,1052.000
1811.582,1163.000,1120.000,1105.000,1129.000,1069.000,1066.000,1070.000,1039.000,1053.000,1067.000
1813.166,1130.000,1090.000,1098.000,1091.000,1081.000,1085.000,1075.000,1049.000,1043.000,1056.000
1814.751,1122.000,1112.000,1110.000,1087.000,1114.000,1077.000,1091.000,1058.000,1072.000,1024.000
1816.336,1139.000,1135.000,1114.000,1115.000,1070.000,1079.000,1086.000,1059.000,1044.000,1039.000
1817.920,1119.000,1090.000,1109.000,1089.000,1077.000,1075.000,1088.000,1046.000,1030.000,1071.000
1819.505,1137.000,1110.000,1119.000,1125.000,1097.000,1099.000,1051.000,1065.000,1058.000,1055.000
1821.089,1155.000,1144.000,1107.000,1097.000,1107.000,1099.000,1100.000,1063.000,1051.000,1041.000
1822.671,1158.000,1119.000,1114.000,1099.000,1083.000,1092.000,1079.000,1061.000,1051.000,1058.000
1824.256,1150.000,1133.000,1117.000,1091.000,1129.000,1085.000,1091.000,1082.000,1046.000,1075.000
1825.838,1147.000,1104.000,1090.000,1125.000,1088.000,1083.000,1086.000,1065.000,1049.000,1062.000
1827.422,1172.000,1135.000,1118.000,1113.000,1098.000,1080.000,1098.000,1097.000,1065.000,1056.000
1829.004,1167.000,1116.000,1105.000,1108.000,1099.000,1088.000,1092.000,1066.000,1077.000,1069.000
1830.585,1155.000,1124.000,1103.000,1131.000,1076.000,1079.000,1072.000,1049.000,1085.000,1042.000
1832.168,1130.000,1118.000,1110.000,1092.000,1073.000,1075.000,1058.000,1095.000,1035.000,1069.000
1833.749,1149.000,1122.000,1124.000,1114.000,1113.000,1092.000,1070.000,1071.000,1067.000,1056.000
1835.331,1148.000,1158.000,1123.000,1124.000,1111.000,1098.000,1102.000,1063.000,1065.000,1068.000
1836.911,1161.000,1139.000,1136.000,1076.000,1106.000,1080.000,1086.000,1090.000,1044.000,1039.000
1838.491,1166.000,1125.000,1136.000,1099.000,1093.000,1073.000,1096.000,1056.000,1084.000,1081.000
1840.072,1164.000,1139.000,1109.000,1122.000,1116.000,1079.000,1097.000,1075.000,1089.000,1081.000
1841.652,1169.000,1140.000,1150.000,1125.000,1098.000,1105.000,1088.000,1078.000,1070.000,1069.000
1843.233,1146.000,1131.000,1120.000,1107.000,1104.000,1110.000,1091.000,1083.000,1089.000,1072.000
1844.811,1188.000,1157.000,1128.000,1126.000,1130.000,1068.000,1071.000,1094.000,1047.000,1077.000
1846.390,1148.000,1142.000,1126.000,1107.000,1096.000,1072.000,1085.000,1102.000,1068.000,1066.000
1847.970,1195.000,1136.000,1137.000,1118.000,1119.000,1108.000,1114.000,1063.000,1058.000,1067.000
1849.548,1170.000,1131.000,1145.000,1117.000,1103.000,1118.000,1106.000,1098.000,1104.000,1052.000
1851.127,1140.000,1157.000,1128.000,1110.000,1116.000,1092.000,1085.000,1076.000,1096.000,1063.000
1852.704,1182.000,1146.000,1151.000,1133.000,1110.000,1121.000,1088.000,1090.000,1074.000,1053.000
1854.281,1143.000,1145.000,1139.000,1140.000,1118.000,1109.000,1078.000,1091.000,1086.000,1075.000
1855.860,1167.000,1120.000,1104.000,1101.000,1099.000,1131.000,1100.000,1079.000,1085.000,1045.000
1857.436,1168.000,1167.000,1113.000,1117.000,1103.000,1096.000,1092.000,1085.000,1091.000,1071.000
1859.014,1153.000,1156.000,1132.000,1112.000,1094.000,1078.000,1086.000,1109.000,1088.000,1061.000
1860.590,1147.000,1159.000,1134.000,1102.000,1120.000,1089.000,1084.000,1087.000,1067.000,1065.000
1862.165,1187.000,1170.000,1124.000,1121.000,1113.000,1115.000,1064.000,1065.000,1086.000,1076.000
1863.742,1170.000,1140.000,1148.000,1119.000,1096.000,1099.000,1097.000,1099.000,1087.000,1091.000
1865.317,1157.000,1145.000,1137.000,1126.000,1094.000,1120.000,1102.000,1075.000,1099.000,1066.000
1866.894,1171.000,1162.000,1142.000,1128.000,1119.000,1082.000,1123.000,1088.000,1093.000,1048.000
1868.468,1169.000,1159.000,1154.000,1141.000,1132.000,1100.000,1089.000,1091.000,1067.000,1061.000
1870.042,1160.000,1133.000,1139.000,1112.000,1096.000,1088.000,1085.000,1080.000,1079.000,1074.000
1871.617,1186.000,1146.000,1109.000,1111.000,1116.000,1135.000,1085.000,1099.000,1051.000,1060.000
1873.191,1178.000,1158.000,1137.000,1129.000,1100.000,1138.000,1121.000,1103.000,1096.000,1065.000
1874.766,1203.000,1153.000,1137.000,1132.000,1119.000,1105.000,1110.000,1079.000,1084.000,1035.000
1876.339,1177.000,1147.000,1144.000,1123.000,1082.000,1110.000,1104.000,1100.000,1081.000,1089.000
1877.911,1222.000,1158.000,1133.000,1111.000,1137.000,1127.000,1096.000,1112.000,1088.000,1071.000
1879.485,1199.000,1149.000,1164.000,1146.000,1105.000,1117.000,1106.000,1099.000,1084.000,1068.000
1881.057,1183.000,1125.000,1152.000,1135.000,1120.000,1124.000,1114.000,1073.000,1068.000,1057.000
1882.631,1177.000,1139.000,1136.000,1120.000,1140.000,1096.000,1104.000,1081.000,1089.000,1083.000
1884.202,1174.000,1154.000,1176.000,1113.000,1108.000,1119.000,1106.000,1121.000,1100.000,1083.000
1885.773,1173.000,1165.000,1138.000,1136.000,1110.000,1115.000,1117.000,1068.000,1090.000,1067.000
1887.346,1188.000,1161.000,1157.000,1150.000,1116.000,1119.000,1109.000,1135.000,1085.000,1095.000
1888.917,1189.000,1162.000,1158.000,1144.000,1128.000,1110.000,1122.000,1105.000,1088.000,1062.000
1890.489,1179.000,1161.000,1137.000,1150.000,1142.000,1129.000,1118.000,1117.000,1108.000,1085.000
1892.058,1186.000,1145.000,1158.000,1141.000,1131.000,1128.000,1113.000,1132.000,1085.000,1108.000
1893.628,1188.000,1188.000,1121.000,1157.000,1114.000,1131.000,1118.000,1102.000,1090.000,1098.000
1895.199,1184.000,1191.000,1160.000,1139.000,1120.000,1122.000,1134.000,1113.000,1098.000,1086.000
1896.768,1182.000,1160.000,1155.000,1150.000,1140.000,1141.000,1100.000,1117.000,1105.000,1093.000
1898.339,1182.000,1177.000,1169.000,1166.000,1123.000,1147.000,1124.000,1133.000,1135.000,1108.000
1899.907,1199.000,1178.000,1159.000,1153.000,1155.000,1101.000,1127.000,1113.000,1112.000,1086.000
1901.476,1177.000,1189.000,1151.000,1170.000,1139.000,1133.000,1124.000,1129.000,1096.000,1102.000
1903.045,1205.000,1162.000,1164.000,1131.000,1150.000,1136.000,1137.000,1110.000,1094.000,1096.000
1904.613,1201.000,1175.000,1161.000,1140.000,1145.000,1157.000,1127.000,1097.000,1124.000,1092.000
1906.182,1215.000,1171.000,1184.000,1124.000,1125.000,1140.000,1097.000,1128.000,1124.000,1093.000
1907.749,1220.000,1172.000,1174.000,1141.000,1172.000,1135.000,1115.000,1110.000,1099.000,1099.000
1909.316,1203.000,1185.000,1161.000,1171.000,1167.000,1125.000,1138.000,1103.000,1159.000,1092.000
1910.884,1223.000,1162.000,1186.000,1151.000,1154.000,1115.000,1128.000,1122.000,1103.000,1127.000
1912.450,1190.000,1199.000,1181.000,1174.000,1159.000,1148.000,1141.000,1120.000,1127.000,1125.000
1914.018,1227.000,1160.000,1189.000,1146.000,1146.000,1116.000,1130.000,1144.000,1407.000,1079.000
1915.583,1217.000,1209.000,1173.000,1168.000,1150.000,1159.000,1122.000,1095.000,1256.000,1102.000
1917.149,1201.000,1190.000,1182.000,1164.000,1149.000,1138.000,1143.000,1125.000,1119.000,1128.000
1918.716,1219.000,1207.000,1204.000,1193.000,1154.000,1141.000,1174.000,1125.000,1095.000,1100.000
1920.280,1202.000,1191.000,1177.000,1970.000,1180.000,1155.000,1155.000,1120.000,1133.000,1133.000
1921.846,1225.000,1203.000,1199.000,1364.000,1160.000,1117.000,1120.000,1130.000,1126.000,1119.000
1923.411,1210.000,1199.000,1178.000,1146.000,1173.000,1174.000,1136.000,1103.000,1142.000,1115.000
1924.974,1233.000,1188.000,1182.000,1174.000,1151.000,1136.000,1128.000,1131.000,1114.000,1109.000
1926.540,1225.000,1196.000,1215.000,1160.000,1167.000,1147.000,1151.000,1123.000,1126.000,1093.000
1928.103,1218.000,1218.000,1161.000,1199.000,1167.000,1129.000,1135.000,1168.000,1131.000,1133.000
1929.668,1235.000,1192.000,1211.000,1208.000,1148.000,1155.000,1147.000,1153.000,1119.000,1150.000
1931.230,1222.000,1222.000,1172.000,1174.000,1160.000,1163.000,1158.000,1138.000,1118.000,1144.000
1932.793,1235.000,1214.000,1205.000,1181.000,1185.000,1155.000,1153.000,1142.000,1147.000,1151.000
1934.357,1217.000,1207.000,1203.000,1174.000,1185.000,1148.000,1162.000,1158.000,1140.000,1109.000
1935.919,1217.000,1236.000,1235.000,1176.000,1198.000,1166.000,1149.000,1152.000,1145.000,1130.000
1937.482,1235.000,1202.000,1210.000,1187.000,1156.000,1176.000,1154.000,1147.000,1159.000,1149.000
1939.043,1207.000,1197.000,1216.000,1205.000,1176.000,1149.000,1149.000,1130.000,1143.000,1155.000
1940.606,1227.000,1200.000,1207.000,1187.000,1155.000,1162.000,1172.000,1160.000,1163.000,1132.000
1942.166,1233.000,1228.000,1196.000,1198.000,1187.000,1171.000,1182.000,1160.000,1176.000,1104.000
1943.727,1218.000,1248.000,1203.000,1160.000,1200.000,1171.000,1164.000,1169.000,1142.000,1132.000
1945.289,1239.000,1200.000,1223.000,1235.000,1213.000,1205.000,1171.000,1160.000,1174.000,1123.000
1946.848,1265.000,1266.000,1214.000,1208.000,1190.000,1172.000,1171.000,1169.000,1169.000,1168.000
1948.410,1269.000,1203.000,1208.000,1217.000,1157.000,1186.000,1193.000,1155.000,1138.000,1136.000
1949.969,1261.000,1215.000,1193.000,1197.000,1186.000,1171.000,1189.000,1153.000,1169.000,1168.000
1951.528,1265.000,1237.000,1237.000,1196.000,1188.000,1208.000,1179.000,1179.000,1174.000,1135.000
1953.088,1233.000,1235.000,1227.000,1219.000,1191.000,1183.000,1175.000,1190.000,1144.000,1157.000
1954.647,1268.000,1247.000,1199.000,1227.000,1192.000,1191.000,1162.000,1153.000,1149.000,1155.000
1956.206,1265.000,1241.000,1240.000,1217.000,1202.000,1195.000,1189.000,1183.000,1169.000,1158.000
1957.764,1270.000,1255.000,1225.000,1226.000,1226.000,1199.000,1203.000,1174.000,1188.000,1149.000
1959.322,1273.000,1263.000,1219.000,1228.000,1188.000,1206.000,1220.000,1166.000,1162.000,1169.000
1960.881,1262.000,1229.000,1236.000,1218.000,1203.000,1193.000,1172.000,1193.000,1166.000,1173.000
1962.438,1277.000,1253.000,1233.000,1221.000,1206.000,1228.000,1202.000,4948.000,1195.000,1165.000
1963.996,1286.000,1247.000,1248.000,1254.000,1207.000,1206.000,1179.000,1280.000,1185.000,1183.000
1965.552,1298.000,1247.000,1239.000,1235.000,1223.000,1201.000,1235.000,1184.000,1200.000,1149.000
1967.108,1267.000,1254.000,1271.000,1254.000,1230.000,1213.000,1178.000,1205.000,1204.000,1197.000
1968.666,1291.000,1290.000,1254.000,1240.000,1225.000,1256.000,1225.000,1230.000,1188.000,1168.000
1970.221,1286.000,1229.000,1255.000,1230.000,1245.000,1237.000,1214.000,1223.000,1189.000,1217.000
1971.778,1316.000,1265.000,1276.000,1222.000,1250.000,1219.000,1198.000,1219.000,1182.000,1214.000
1973.333,1293.000,1266.000,1243.000,1267.000,1259.000,1232.000,1215.000,1190.000,1205.000,1193.000
1974.888,1266.000,1283.000,1250.000,1239.000,1267.000,1236.000,1237.000,1213.000,1230.000,1197.000
1976.444,1297.000,1315.000,1264.000,1256.000,1225.000,1243.000,1230.000,1214.000,1213.000,1208.000
1977.998,1311.000,1268.000,1281.000,1243.000,1233.000,1241.000,1223.000,1181.000,1198.000,1222.000
1979.553,1302.000,1309.000,1284.000,1266.000,1259.000,1260.000,1254.000,1263.000,1215.000,1228.000
1981.107,1314.000,1332.000,1300.000,1273.000,1242.000,1240.000,1264.000,1232.000,1233.000,1204.000
1982.660,1299.000,1319.000,1283.000,1277.000,1241.000,1243.000,1247.000,1267.000,1240.000,1219.000
1984.215,1322.000,1312.000,1300.000,1284.000,1248.000,1268.000,1266.000,1253.000,1233.000,1244.000
1985.767,1328.000,1309.000,1300.000,1290.000,1279.000,1286.000,1251.000,1261.000,1263.000,1228.000
1987.321,1335.000,1287.000,1287.000,1284.000,1301.000,1265.000,1278.000,1265.000,1233.000,1239.000
1988.873,1323.000,1340.000,1311.000,1306.000,1281.000,1240.000,1266.000,1250.000,1265.000,1241.000
1990.425,1355.000,1323.000,1327.000,1303.000,1314.000,1274.000,1248.000,1262.000,1244.000,1248.000
1991.978,1357.000,1327.000,1325.000,1309.000,1306.000,1284.000,1270.000,1253.000,1245.000,1278.000
1993.529,1345.000,1353.000,1299.000,1316.000,1310.000,1287.000,1284.000,1297.000,1257.000,1273.000
1995.082,1366.000,1309.000,1339.000,1319.000,1304.000,1254.000,1288.000,1281.000,1289.000,1275.000
1996.633,1378.000,1369.000,1378.000,1314.000,1312.000,1322.000,1287.000,1319.000,1266.000,1273.000
1998.183,1397.000,1342.000,1338.000,1356.000,1336.000,1301.000,1302.000,1301.000,1287.000,1278.000
1999.735,1376.000,1361.000,1377.000,1351.000,1322.000,1313.000,1280.000,1289.000,1279.000,1293.000
2001.284,1399.000,1373.000,1372.000,1362.000,1326.000,1337.000,1302.000,1309.000,1310.000,1308.000
2002.836,1392.000,1386.000,1380.000,1383.000,1337.000,1348.000,1324.000,1321.000,1293.000,1294.000
2004.385,1417.000,1384.000,1356.000,1360.000,1374.000,1324.000,1329.000,1311.000,1324.000,1314.000
2005.934,1405.000,1401.000,1354.000,1400.000,1366.000,1355.000,1335.000,1368.000,1299.000,1315.000
2007.484,1448.000,1387.000,1389.000,1379.000,1356.000,1383.000,1355.000,1344.000,1351.000,1330.000
2009.032,1470.000,1405.000,1411.000,1416.000,1373.000,1365.000,1373.000,1390.000,1346.000,1344.000
2010.582,1446.000,1438.000,1415.000,1403.000,1423.000,1388.000,1365.000,1362.000,1371.000,1339.000
2012.130,1453.000,1473.000,1413.000,1398.000,1385.000,1404.000,1409.000,1384.000,1383.000,1390.000
2013.677,1472.000,1475.000,1437.000,1453.000,1424.000,1433.000,1418.000,1413.000,1403.000,1363.000
2015.226,1530.000,1457.000,1473.000,1465.000,1415.000,1416.000,1433.000,1402.000,1411.000,1419.000
2016.773,1507.000,1467.000,1459.000,1460.000,1442.000,1468.000,1442.000,1429.000,1413.000,1446.000
2018.321,1528.000,1489.000,1507.000,1481.000,1451.000,1439.000,1448.000,1465.000,1422.000,1432.000
2019.868,1560.000,1566.000,1527.000,1487.000,1471.000,1491.000,1467.000,1460.000,1450.000,1471.000
2021.414,1567.000,1553.000,1512.000,1507.000,1499.000,1515.000,1460.000,1484.000,1500.000,1466.000
2022.961,1572.000,1594.000,1568.000,1538.000,1559.000,1537.000,1520.000,1498.000,1481.000,1467.000
2024.506,1624.000,1595.000,1565.000,1543.000,1559.000,1579.000,1538.000,1571.000,1515.000,1510.000
2026.053,1654.000,1619.000,1630.000,1572.000,1611.000,1595.000,1562.000,1543.000,1543.000,1520.000
2027.598,1659.000,1665.000,1617.000,1622.000,1616.000,1637.000,1587.000,1604.000,1617.000,1587.000
