2487.376,814.000,804.000,817.000,817.000,811.000,801.000,807.000,816.000,811.000,801.000
2488.829,829.000,819.000,825.000,808.000,823.000,819.000,815.000,822.000,810.000,808.000
2490.281,820.000,811.000,816.000,834.000,813.000,818.000,812.000,820.000,815.000,822.000
2491.734,821.000,824.000,824.000,815.000,825.000,823.000,822.000,801.000,817.000,831.000
2493.186,822.000,817.000,817.000,812.000,810.000,810.000,809.000,820.000,813.000,807.000
2494.638,823.000,826.000,814.000,805.000,824.000,809.000,821.000,828.000,820.000,823.000
2496.090,818.000,823.000,810.000,812.000,800.000,834.000,827.000,823.000,832.000,819.000
2497.543,821.000,816.000,820.000,816.000,808.000,821.000,817.000,804.000,818.000,823.000
2498.994,826.000,823.000,812.000,797.000,805.000,811.000,823.000,809.000,804.000,819.000
2500.445,836.000,813.000,828.000,818.000,816.000,820.000,814.000,821.000,807.000,827.000
2501.895,843.000,833.000,826.000,824.000,812.000,832.000,814.000,827.000,823.000,826.000
2503.346,830.000,827.000,827.000,823.000,825.000,834.000,811.000,831.000,829.000,830.000
2504.796,825.000,819.000,807.000,814.000,814.000,802.000,807.000,818.000,826.000,817.000
2506.246,814.000,817.000,820.000,815.000,815.000,822.000,825.000,823.000,832.000,808.000
2507.695,825.000,826.000,820.000,813.000,840.000,816.000,817.000,819.000,824.000,819.000
2509.145,811.000,815.000,815.000,825.000,819.000,809.000,825.000,814.000,814.000,811.000
2510.594,832.000,826.000,813.000,822.000,824.000,813.000,813.000,810.000,821.000,819.000
2512.042,825.000,843.000,817.000,812.000,814.000,820.000,821.000,835.000,817.000,827.000
2513.491,833.000,835.000,834.000,826.000,825.000,821.000,827.000,826.000,823.000,830.000
2514.941,828.000,828.000,824.000,835.000,838.000,828.000,829.000,833.000,840.000,814.000
2516.389,821.000,816.000,824.000,812.000,822.000,816.000,831.000,826.000,826.000,821.000
2517.837,835.000,820.000,812.000,832.000,823.000,842.000,840.000,828.000,817.000,829.000
2519.284,818.000,848.000,824.000,830.000,825.000,821.000,822.000,828.000,835.000,830.000
2520.732,819.000,807.000,813.000,820.000,833.000,822.000,822.000,852.000,824.000,829.000
2522.179,834.000,820.000,819.000,825.000,819.000,831.000,834.000,828.000,826.000,832.000
2523.625,820.000,829.000,828.000,826.000,837.000,833.000,844.000,828.000,827.000,811.000
2525.072,813.000,825.000,833.000,827.000,849.000,830.000,829.000,810.000,825.000,836.000
2526.518,839.000,832.000,830.000,841.000,825.000,833.000,814.000,833.000,823.000,833.000
2527.964,813.000,826.000,820.000,830.000,823.000,816.000,823.000,830.000,825.000,841.000
2529.410,837.000,819.000,835.000,818.000,822.000,810.000,824.000,822.000,826.000,817.000
2530.855,826.000,804.000,830.000,821.000,831.000,834.000,830.000,842.000,827.000,836.000
2532.302,831.000,814.000,827.000,812.000,819.000,819.000,831.000,836.000,821.000,823.000
2533.747,839.000,832.000,830.000,821.000,819.000,820.000,820.000,835.000,819.000,826.000
2535.192,834.000,844.000,834.000,826.000,829.000,827.000,841.000,814.000,845.000,846.000
2536.636,842.000,853.000,823.000,824.000,820.000,834.000,822.000,824.000,820.000,843.000
2538.080,835.000,820.000,828.000,836.000,818.000,811.000,826.000,821.000,832.000,810.000
2539.524,832.000,820.000,820.000,833.000,826.000,843.000,826.000,829.000,834.000,831.000
2540.968,815.000,831.000,832.000,820.000,828.000,839.000,816.000,844.000,837.000,832.000
2542.411,827.000,847.000,846.000,843.000,817.000,825.000,835.000,841.000,848.000,821.000
2543.855,830.000,832.000,816.000,841.000,818.000,822.000,831.000,820.000,827.000,843.000
2545.298,829.000,835.000,841.000,823.000,817.000,827.000,835.000,831.000,823.000,821.000
2546.740,837.000,843.000,835.000,822.000,844.000,831.000,844.000,835.000,829.000,828.000
2548.183,831.000,840.000,838.000,827.000,828.000,828.000,841.000,823.000,845.000,829.000
2549.626,827.000,831.000,834.000,831.000,819.000,834.000,816.000,826.000,819.000,847.000
2551.068,832.000,835.000,818.000,839.000,833.000,819.000,828.000,846.000,820.000,833.000
2552.510,848.000,824.000,841.000,818.000,825.000,844.000,842.000,835.000,844.000,832.000
2553.951,816.000,834.000,835.000,827.000,825.000,832.000,834.000,838.000,831.000,817.000
2555.392,823.000,831.000,822.000,833.000,832.000,834.000,815.000,825.000,838.000,839.000
2556.833,829.000,824.000,828.000,836.000,833.000,848.000,833.000,844.000,835.000,846.000
2558.274,854.000,836.000,835.000,836.000,836.000,843.000,850.000,848.000,827.000,845.000
2559.714,822.000,831.000,835.000,832.000,826.000,838.000,860.000,846.000,843.000,839.000
2561.154,826.000,818.000,836.000,824.000,832.000,834.000,823.000,821.000,830.000,828.000
2562.594,856.000,831.000,847.000,826.000,848.000,830.000,836.000,854.000,818.000,831.000
2564.034,846.000,841.000,830.000,839.000,833.000,832.000,827.000,851.000,843.000,837.000
2565.473,841.000,829.000,814.000,838.000,831.000,835.000,832.000,831.000,850.000,846.000
2566.914,818.000,831.000,833.000,830.000,824.000,819.000,826.000,845.000,831.000,835.000
2568.352,838.000,823.000,821.000,840.000,831.000,848.000,829.000,833.000,831.000,833.000
2569.791,858.000,838.000,843.000,832.000,841.000,839.000,848.000,843.000,835.000,855.000
2571.229,836.000,833.000,833.000,818.000,841.000,823.000,831.000,837.000,835.000,845.000
2572.667,830.000,815.000,852.000,834.000,835.000,834.000,833.000,843.000,819.000,829.000
2574.105,848.000,830.000,834.000,854.000,831.000,842.000,845.000,828.000,832.000,848.000
2575.543,839.000,854.000,846.000,840.000,836.000,834.000,824.000,857.000,846.000,845.000
2576.980,843.000,850.000,823.000,837.000,824.000,837.000,828.000,827.000,847.000,837.000
2578.417,803.000,839.000,823.000,839.000,832.000,843.000,828.000,838.000,832.000,837.000
2579.854,855.000,836.000,838.000,835.000,847.000,858.000,832.000,829.000,853.000,854.000
2581.290,835.000,842.000,843.000,832.000,830.000,852.000,844.000,844.000,853.000,842.000
2582.727,826.000,840.000,840.000,835.000,834.000,833.000,838.000,826.000,834.000,824.000
2584.164,831.000,829.000,842.000,838.000,832.000,836.000,853.000,816.000,850.000,827.000
2585.600,829.000,850.000,834.000,835.000,836.000,830.000,852.000,853.000,826.000,846.000
2587.036,849.000,851.000,849.000,837.000,840.000,844.000,836.000,835.000,843.000,841.000
2588.471,837.000,834.000,826.000,833.000,861.000,837.000,829.000,834.000,823.000,843.000
2589.906,839.000,851.000,855.000,838.000,833.000,809.000,834.000,842.000,845.000,829.000
2591.341,840.000,855.000,857.000,831.000,845.000,849.000,870.000,856.000,852.000,845.000
2592.775,846.000,847.000,831.000,832.000,858.000,854.000,833.000,836.000,849.000,836.000
2594.209,860.000,843.000,839.000,835.000,832.000,849.000,842.000,836.000,846.000,850.000
2595.643,854.000,829.000,859.000,842.000,850.000,831.000,830.000,845.000,838.000,854.000
2597.077,837.000,849.000,863.000,863.000,843.000,820.000,842.000,835.000,839.000,857.000
2598.510,859.000,855.000,846.000,858.000,850.000,854.000,851.000,841.000,841.000,825.000
2599.944,853.000,852.000,854.000,847.000,846.000,854.000,831.000,846.000,854.000,839.000
2601.378,840.000,849.000,841.000,848.000,845.000,838.000,820.000,835.000,836.000,858.000
2602.811,849.000,845.000,843.000,836.000,850.000,860.000,842.000,850.000,840.000,837.000
2604.243,832.000,834.000,857.000,850.000,844.000,854.000,857.000,850.000,843.000,843.000
2605.676,842.000,835.000,830.000,832.000,858.000,854.000,859.000,838.000,849.000,855.000
2607.108,845.000,832.000,840.000,852.000,863.000,845.000,840.000,848.000,836.000,842.000
2608.539,846.000,844.000,859.000,856.000,843.000,839.000,853.000,838.000,848.000,852.000
2609.971,854.000,850.000,850.000,836.000,858.000,854.000,847.000,849.000,851.000,856.000
2611.402,852.000,839.000,848.000,836.000,841.000,850.000,856.000,855.000,862.000,843.000
2612.833,851.000,846.000,827.000,842.000,840.000,848.000,833.000,845.000,859.000,859.000
2614.264,835.000,846.000,868.000,852.000,855.000,850.000,842.000,841.000,848.000,840.000
2615.694,863.000,877.000,851.000,869.000,853.000,859.000,855.000,845.000,863.000,837.000
2617.124,852.000,834.000,859.000,842.000,855.000,844.000,863.000,840.000,833.000,835.000
2618.556,845.000,869.000,846.000,861.000,835.000,846.000,837.000,841.000,848.000,864.000
2619.985,869.000,848.000,849.000,851.000,853.000,858.000,859.000,843.000,848.000,860.000
2621.415,859.000,866.000,856.000,862.000,852.000,863.000,847.000,842.000,856.000,857.000
2622.844,858.000,854.000,858.000,852.000,855.000,838.000,857.000,846.000,843.000,841.000
2624.273,859.000,861.000,864.000,853.000,870.000,872.000,849.000,837.000,840.000,859.000
2625.702,864.000,858.000,867.000,837.000,844.000,871.000,857.000,867.000,865.000,876.000
2627.130,868.000,846.000,861.000,868.000,875.000,879.000,854.000,869.000,868.000,874.000
2628.558,864.000,850.000,872.000,852.000,850.000,868.000,859.000,858.000,852.000,838.000
2629.986,862.000,847.000,851.000,862.000,855.000,857.000,856.000,870.000,859.000,862.000
2631.414,872.000,866.000,852.000,869.000,869.000,864.000,857.000,868.000,860.000,860.000
2632.841,864.000,865.000,857.000,860.000,863.000,851.000,866.000,865.000,858.000,852.000
2634.268,845.000,887.000,844.000,848.000,873.000,851.000,875.000,844.000,856.000,878.000
2635.697,849.000,849.000,869.000,857.000,869.000,875.000,872.000,868.000,859.000,860.000
2637.123,867.000,888.000,877.000,850.000,872.000,886.000,853.000,873.000,850.000,856.000
2638.550,848.000,856.000,863.000,862.000,869.000,865.000,883.000,869.000,876.000,869.000
2639.976,871.000,859.000,855.000,870.000,866.000,869.000,846.000,867.000,854.000,852.000
2641.402,839.000,853.000,869.000,882.000,842.000,856.000,857.000,848.000,870.000,859.000
2642.827,876.000,863.000,882.000,845.000,859.000,853.000,857.000,873.000,889.000,870.000
2644.253,868.000,887.000,866.000,850.000,875.000,859.000,870.000,881.000,867.000,869.000
2645.678,863.000,864.000,853.000,859.000,875.000,886.000,860.000,865.000,852.000,850.000
2647.103,865.000,846.000,864.000,863.000,852.000,838.000,871.000,856.000,852.000,863.000
2648.528,874.000,863.000,857.000,851.000,848.000,867.000,877.000,871.000,883.000,874.000
2649.952,870.000,855.000,854.000,868.000,867.000,861.000,879.000,869.000,870.000,869.000
2651.376,865.000,863.000,869.000,858.000,874.000,851.000,869.000,853.000,864.000,850.000
2652.802,879.000,858.000,838.000,885.000,863.000,865.000,894.000,872.000,867.000,873.000
2654.225,865.000,850.000,855.000,853.000,872.000,863.000,877.000,876.000,875.000,872.000
2655.649,859.000,876.000,853.000,865.000,846.000,864.000,866.000,858.000,865.000,865.000
2657.072,851.000,876.000,857.000,849.000,875.000,878.000,862.000,872.000,857.000,854.000
2658.495,882.000,866.000,874.000,866.000,871.000,866.000,855.000,868.000,854.000,856.000
2659.917,870.000,871.000,857.000,873.000,856.000,865.000,877.000,893.000,865.000,850.000
2661.340,873.000,871.000,867.000,872.000,885.000,875.000,872.000,843.000,864.000,859.000
2662.762,870.000,852.000,853.000,852.000,850.000,884.000,873.000,877.000,852.000,860.000
2664.184,868.000,868.000,859.000,868.000,876.000,864.000,877.000,881.000,876.000,856.000
2665.605,852.000,863.000,855.000,872.000,875.000,856.000,871.000,867.000,874.000,854.000
2667.027,862.000,846.000,855.000,873.000,883.000,881.000,873.000,854.000,859.000,874.000
2668.448,869.000,841.000,865.000,867.000,855.000,862.000,869.000,864.000,867.000,863.000
2669.870,857.000,864.000,867.000,872.000,861.000,884.000,867.000,850.000,863.000,882.000
2671.291,872.000,862.000,879.000,865.000,870.000,884.000,862.000,889.000,871.000,853.000
2672.711,857.000,879.000,859.000,869.000,862.000,865.000,874.000,874.000,860.000,861.000
2674.131,869.000,859.000,882.000,869.000,873.000,867.000,883.000,877.000,871.000,886.000
2675.551,876.000,851.000,859.000,875.000,868.000,857.000,890.000,890.000,861.000,881.000
2676.971,885.000,872.000,879.000,855.000,869.000,863.000,885.000,877.000,879.000,884.000
2678.390,849.000,870.000,853.000,878.000,863.000,876.000,869.000,878.000,866.000,858.000
2679.809,862.000,867.000,874.000,872.000,866.000,867.000,861.000,870.000,878.000,873.000
2681.228,896.000,863.000,869.000,863.000,875.000,871.000,862.000,872.000,871.000,866.000
2682.647,887.000,877.000,856.000,874.000,879.000,853.000,888.000,875.000,870.000,886.000
2684.065,856.000,888.000,887.000,874.000,868.000,878.000,863.000,873.000,881.000,883.000
2685.483,858.000,875.000,851.000,874.000,892.000,876.000,856.000,876.000,882.000,868.000
2686.903,866.000,875.000,871.000,874.000,863.000,874.000,897.000,878.000,859.000,882.000
2688.320,866.000,881.000,887.000,864.000,875.000,883.000,896.000,877.000,878.000,895.000
2689.738,876.000,895.000,890.000,881.000,883.000,868.000,877.000,878.000,875.000,878.000
2691.155,851.000,865.000,889.000,881.000,877.000,882.000,865.000,880.000,872.000,873.000
2692.572,865.000,877.000,881.000,894.000,886.000,873.000,883.000,886.000,891.000,888.000
2693.988,886.000,888.000,892.000,876.000,894.000,890.000,868.000,892.000,900.000,902.000
2695.405,877.000,895.000,918.000,897.000,886.000,882.000,890.000,891.000,878.000,882.000
2696.821,891.000,890.000,895.000,867.000,895.000,893.000,883.000,886.000,886.000,876.000
2698.237,879.000,895.000,904.000,904.000,893.000,895.000,900.000,891.000,880.000,871.000
2699.652,903.000,903.000,917.000,888.000,878.000,902.000,875.000,894.000,902.000,889.000
2701.068,908.000,901.000,890.000,898.000,889.000,895.000,897.000,894.000,888.000,900.000
2702.483,878.000,901.000,904.000,877.000,900.000,888.000,880.000,895.000,914.000,886.000
2703.899,929.000,903.000,919.000,919.000,913.000,927.000,908.000,908.000,905.000,926.000
2705.314,916.000,907.000,899.000,893.000,914.000,924.000,932.000,928.000,902.000,907.000
2706.728,915.000,917.000,893.000,905.000,920.000,911.000,898.000,922.000,929.000,916.000
2708.142,919.000,918.000,903.000,903.000,929.000,926.000,921.000,935.000,904.000,930.000
2709.556,920.000,914.000,934.000,926.000,920.000,928.000,917.000,913.000,900.000,914.000
2710.970,938.000,937.000,951.000,931.000,950.000,928.000,953.000,930.000,953.000,910.000
2712.383,926.000,945.000,946.000,933.000,940.000,933.000,936.000,935.000,931.000,939.000
2713.796,930.000,949.000,956.000,927.000,929.000,934.000,936.000,920.000,929.000,934.000
2715.209,923.000,940.000,918.000,947.000,931.000,933.000,930.000,931.000,956.000,952.000
2716.622,942.000,959.000,995.000,968.000,946.000,946.000,938.000,938.000,926.000,957.000
2718.034,973.000,939.000,950.000,972.000,955.000,948.000,941.000,941.000,968.000,955.000
2719.447,963.000,972.000,957.000,943.000,944.000,967.000,964.000,991.000,955.000,947.000
2720.860,973.000,961.000,951.000,974.000,968.000,947.000,979.000,957.000,963.000,964.000
2722.272,968.000,973.000,969.000,964.000,969.000,964.000,972.000,960.000,978.000,967.000
2723.683,975.000,960.000,970.000,974.000,971.000,983.000,960.000,960.000,963.000,959.000
2725.094,959.000,966.000,966.000,966.000,978.000,968.000,970.000,961.000,967.000,980.000
2726.505,967.000,974.000,965.000,957.000,957.000,967.000,961.000,970.000,971.000,963.000
2727.916,962.000,974.000,969.000,979.000,978.000,974.000,975.000,979.000,971.000,973.000
2729.326,956.000,983.000,962.000,983.000,947.000,950.000,964.000,949.000,955.000,964.000
2730.736,949.000,955.000,953.000,952.000,956.000,962.000,938.000,943.000,944.000,955.000
2732.146,958.000,974.000,954.000,953.000,959.000,953.000,940.000,934.000,948.000,945.000
2733.556,958.000,941.000,966.000,962.000,965.000,974.000,959.000,955.000,964.000,967.000
2734.965,938.000,947.000,935.000,950.000,960.000,954.000,966.000,959.000,968.000,963.000
2736.375,931.000,934.000,960.000,953.000,944.000,933.000,942.000,940.000,942.000,957.000
2737.785,916.000,940.000,940.000,953.000,938.000,932.000,933.000,940.000,944.000,934.000
2739.194,945.000,943.000,948.000,933.000,942.000,923.000,958.000,942.000,932.000,966.000
2740.602,931.000,898.000,935.000,934.000,944.000,929.000,942.000,946.000,926.000,929.000
2742.010,930.000,920.000,934.000,937.000,912.000,918.000,944.000,935.000,916.000,925.000
2743.418,941.000,944.000,922.000,925.000,940.000,948.000,912.000,942.000,920.000,941.000
2744.826,926.000,937.000,937.000,954.000,940.000,934.000,943.000,927.000,937.000,913.000
2746.234,950.000,946.000,919.000,933.000,937.000,937.000,940.000,927.000,908.000,925.000
2747.641,940.000,909.000,930.000,924.000,928.000,925.000,923.000,921.000,893.000,903.000
2749.048,905.000,917.000,919.000,953.000,907.000,924.000,923.000,932.000,916.000,933.000
2750.454,955.000,927.000,916.000,932.000,911.000,930.000,921.000,907.000,934.000,940.000
2751.861,901.000,925.000,915.000,932.000,920.000,927.000,938.000,905.000,905.000,937.000
2753.267,924.000,925.000,931.000,930.000,928.000,935.000,920.000,923.000,906.000,901.000
2754.675,908.000,915.000,927.000,915.000,917.000,916.000,919.000,919.000,910.000,916.000
2756.080,923.000,904.000,909.000,909.000,905.000,920.000,908.000,909.000,912.000,918.000
2757.486,904.000,914.000,905.000,938.000,912.000,916.000,923.000,912.000,900.000,917.000
2758.891,897.000,909.000,908.000,902.000,887.000,917.000,904.000,899.000,902.000,913.000
2760.296,911.000,906.000,905.000,907.000,912.000,891.000,908.000,912.000,888.000,896.000
2761.701,921.000,890.000,914.000,903.000,912.000,915.000,887.000,909.000,903.000,915.000
2763.105,879.000,904.000,916.000,906.000,907.000,914.000,899.000,902.000,900.000,914.000
2764.509,893.000,899.000,905.000,899.000,913.000,895.000,894.000,892.000,910.000,882.000
2765.913,915.000,906.000,913.000,899.000,902.000,909.000,896.000,908.000,910.000,912.000
2767.317,895.000,912.000,911.000,912.000,912.000,901.000,907.000,893.000,897.000,912.000
2768.721,902.000,888.000,892.000,905.000,901.000,895.000,889.000,905.000,880.000,912.000
2770.124,901.000,894.000,921.000,904.000,896.000,895.000,910.000,887.000,903.000,902.000
2771.529,879.000,916.000,898.000,923.000,895.000,901.000,903.000,911.000,886.000,907.000
2772.931,907.000,901.000,897.000,907.000,900.000,914.000,921.000,921.000,916.000,923.000
2774.334,915.000,895.000,900.000,908.000,924.000,913.000,889.000,903.000,894.000,888.000
2775.736,911.000,892.000,913.000,890.000,901.000,901.000,905.000,898.000,905.000,901.000
2777.138,888.000,919.000,902.000,908.000,895.000,904.000,897.000,903.000,910.000,913.000
2778.540,902.000,911.000,914.000,897.000,897.000,911.000,914.000,906.000,903.000,913.000
2779.942,900.000,912.000,912.000,893.000,918.000,907.000,888.000,893.000,888.000,896.000
2781.343,912.000,897.000,896.000,902.000,920.000,926.000,899.000,919.000,917.000,898.000
2782.744,912.000,924.000,934.000,914.000,901.000,909.000,908.000,916.000,924.000,904.000
2784.145,939.000,913.000,917.000,910.000,907.000,900.000,911.000,911.000,933.000,903.000
2785.545,927.000,906.000,911.000,903.000,895.000,938.000,910.000,922.000,909.000,911.000
2786.946,911.000,915.000,922.000,907.000,908.000,900.000,904.000,910.000,908.000,902.000
2788.347,901.000,918.000,895.000,895.000,918.000,927.000,901.000,900.000,928.000,914.000
2789.747,912.000,927.000,926.000,933.000,918.000,909.000,904.000,909.000,900.000,891.000
2791.147,932.000,935.000,914.000,918.000,922.000,921.000,921.000,928.000,924.000,948.000
2792.546,909.000,915.000,919.000,903.000,907.000,896.000,900.000,910.000,916.000,909.000
2793.945,926.000,925.000,940.000,925.000,930.000,934.000,935.000,914.000,931.000,931.000
2795.344,916.000,915.000,915.000,922.000,919.000,920.000,917.000,912.000,945.000,916.000
2796.742,934.000,914.000,948.000,920.000,935.000,926.000,922.000,932.000,923.000,939.000
2798.141,923.000,909.000,913.000,927.000,939.000,925.000,942.000,950.000,935.000,922.000
2799.539,922.000,909.000,938.000,920.000,910.000,929.000,927.000,918.000,912.000,941.000
2800.937,922.000,917.000,932.000,904.000,921.000,937.000,920.000,934.000,922.000,925.000
2802.334,917.000,955.000,932.000,943.000,937.000,929.000,935.000,922.000,927.000,913.000
2803.732,927.000,930.000,925.000,932.000,927.000,923.000,925.000,920.000,925.000,921.000
2805.131,951.000,950.000,924.000,915.000,934.000,942.000,928.000,917.000,917.000,940.000
2806.527,926.000,925.000,934.000,928.000,928.000,950.000,942.000,941.000,919.000,910.000
2807.924,916.000,931.000,925.000,928.000,937.000,949.000,951.000,938.000,937.000,945.000
2809.320,928.000,952.000,942.000,936.000,926.000,926.000,946.000,921.000,928.000,951.000
2810.717,928.000,946.000,946.000,933.000,948.000,936.000,951.000,930.000,954.000,947.000
2812.113,950.000,928.000,919.000,940.000,952.000,938.000,959.000,947.000,952.000,954.000
2813.508,942.000,959.000,940.000,923.000,959.000,959.000,946.000,923.000,943.000,956.000
2814.904,950.000,961.000,955.000,946.000,954.000,942.000,918.000,967.000,938.000,953.000
2816.299,939.000,950.000,948.000,940.000,952.000,952.000,956.000,947.000,960.000,938.000
2817.694,939.000,956.000,948.000,939.000,960.000,955.000,960.000,964.000,949.000,966.000
2819.088,968.000,940.000,955.000,963.000,970.000,960.000,952.000,985.000,957.000,981.000
2820.483,967.000,960.000,974.000,954.000,965.000,978.000,952.000,965.000,946.000,981.000
2821.879,966.000,963.000,947.000,980.000,976.000,973.000,962.000,991.000,963.000,964.000
2823.273,974.000,980.000,973.000,972.000,980.000,973.000,980.000,968.000,977.000,981.000
2824.666,974.000,991.000,992.000,986.000,994.000,973.000,987.000,1001.000,964.000,987.000
2826.060,976.000,991.000,979.000,987.000,1001.000,987.000,1003.000,985.000,979.000,982.000
2827.453,1015.000,995.000,1006.000,992.000,996.000,979.000,1013.000,1021.000,991.000,993.000
2828.846,1003.000,1016.000,1032.000,999.000,1000.000,1006.000,1011.000,1023.000,1019.000,1020.000
2830.239,1021.000,1019.000,1016.000,1033.000,1011.000,1019.000,1038.000,1033.000,1033.000,1035.000
2831.631,1018.000,1032.000,1019.000,1044.000,1022.000,1044.000,1037.000,1046.000,1028.000,1007.000
2833.024,1002.000,1062.000,1048.000,1031.000,1055.000,1043.000,1034.000,1060.000,1051.000,1056.000
2834.416,1050.000,1075.000,1049.000,1033.000,1059.000,1050.000,1044.000,1046.000,1038.000,1066.000
2835.807,1056.000,1085.000,1069.000,1066.000,1065.000,1073.000,1050.000,1085.000,1078.000,1074.000
2837.199,1063.000,1083.000,1094.000,1095.000,1102.000,1100.000,1097.000,1080.000,1067.000,1063.000
2838.592,1088.000,1083.000,1105.000,1108.000,1085.000,1104.000,1075.000,1087.000,1116.000,1083.000
2839.983,1121.000,1140.000,1114.000,1118.000,1141.000,1104.000,1133.000,1119.000,1086.000,1127.000
2841.374,1098.000,1154.000,1127.000,1117.000,1119.000,1147.000,1145.000,1141.000,1146.000,1143.000
2842.764,1104.000,1145.000,1144.000,1143.000,1148.000,1120.000,1146.000,1181.000,1154.000,1151.000
2844.155,1116.000,1138.000,1159.000,1138.000,1159.000,1170.000,1146.000,1176.000,1133.000,1177.000
2845.545,1145.000,1165.000,1176.000,1159.000,1154.000,1178.000,1155.000,1156.000,1165.000,1151.000
2846.935,1136.000,1186.000,1213.000,1178.000,1180.000,1189.000,1165.000,1182.000,1193.000,1193.000
2848.324,1145.000,1196.000,1189.000,1198.000,1209.000,1194.000,1186.000,1180.000,1193.000,1210.000
2849.714,1157.000,1197.000,1221.000,1201.000,1183.000,1208.000,1210.000,1207.000,1169.000,1199.000
2851.103,1159.000,1204.000,1206.000,1183.000,1214.000,1177.000,1213.000,1190.000,1200.000,1214.000
2852.491,1157.000,1222.000,1217.000,1223.000,1223.000,1211.000,1202.000,1180.000,1201.000,1214.000
2853.880,1177.000,1222.000,1220.000,1211.000,1220.000,1200.000,1175.000,1222.000,1211.000,1206.000
2855.270,1216.000,1206.000,1225.000,1211.000,1201.000,1219.000,1192.000,1194.000,1208.000,1197.000
2856.658,1199.000,1218.000,1213.000,1216.000,1206.000,1205.000,1217.000,1225.000,1212.000,1214.000
2858.046,1196.000,1207.000,1191.000,1197.000,1188.000,1214.000,1223.000,1221.000,1218.000,1208.000
2859.434,1167.000,1208.000,1193.000,1212.000,1231.000,1212.000,1224.000,1189.000,1215.000,1197.000
2860.821,1191.000,1197.000,1198.000,1230.000,1216.000,1206.000,1210.000,1184.000,1203.000,1192.000
2862.208,1167.000,1199.000,1214.000,1218.000,1183.000,1244.000,1189.000,1213.000,1244.000,1195.000
2863.595,1183.000,1211.000,1200.000,1219.000,1232.000,1182.000,1200.000,1199.000,1209.000,1221.000
2864.982,1204.000,1218.000,1230.000,1181.000,1208.000,1199.000,1225.000,1224.000,1193.000,1213.000
2866.368,1182.000,1205.000,1214.000,1239.000,1200.000,1215.000,1211.000,1229.000,1228.000,1218.000
2867.755,1162.000,1215.000,1231.000,1227.000,1203.000,1237.000,1209.000,1217.000,1225.000,1219.000
2869.141,1180.000,1192.000,1203.000,1212.000,1207.000,1213.000,1189.000,1219.000,1210.000,1226.000
2870.526,1170.000,1221.000,1219.000,1183.000,1219.000,1212.000,1189.000,1226.000,1191.000,1240.000
2871.913,1208.000,1217.000,1243.000,1255.000,1228.000,1232.000,1237.000,1231.000,1246.000,1239.000
2873.299,1211.000,1230.000,1221.000,1253.000,1222.000,1239.000,1233.000,1217.000,1228.000,1232.000
2874.684,1200.000,1266.000,1211.000,1218.000,1232.000,1227.000,1267.000,1233.000,1227.000,1249.000
2876.068,1213.000,1240.000,1254.000,1243.000,1252.000,1253.000,1271.000,1241.000,1203.000,1240.000
2877.453,1237.000,1253.000,1227.000,1257.000,1252.000,1229.000,1272.000,1250.000,1234.000,1238.000
2878.837,1230.000,1255.000,1253.000,1238.000,1271.000,1261.000,1274.000,1257.000,1275.000,1279.000
2880.221,1250.000,1231.000,1277.000,1249.000,1256.000,1278.000,1277.000,1265.000,1271.000,1276.000
2881.605,1250.000,1268.000,1290.000,1290.000,1268.000,1288.000,1247.000,1242.000,1273.000,1244.000
2882.989,1250.000,1265.000,1289.000,1303.000,1286.000,1280.000,1305.000,1267.000,1274.000,1269.000
2884.372,1275.000,1303.000,1291.000,1277.000,1327.000,1298.000,1303.000,1329.000,1299.000,1303.000
2885.755,1274.000,1282.000,1291.000,1339.000,1344.000,1316.000,1315.000,1339.000,1325.000,1303.000
2887.138,1263.000,1307.000,1327.000,1319.000,1314.000,1345.000,1348.000,1298.000,1330.000,1335.000
2888.522,1299.000,1345.000,1358.000,1341.000,1353.000,1361.000,1320.000,1327.000,1333.000,1369.000
2889.904,1310.000,1375.000,1372.000,1347.000,1362.000,1342.000,1354.000,1362.000,1387.000,1352.000
2891.287,1319.000,1345.000,1382.000,1375.000,1365.000,1341.000,1369.000,1370.000,1358.000,1363.000
2892.668,1328.000,1410.000,1401.000,1382.000,1371.000,1422.000,1431.000,1401.000,1381.000,1383.000
2894.050,1380.000,1440.000,1426.000,1419.000,1422.000,1405.000,1433.000,1429.000,1433.000,1411.000
2895.432,1429.000,1443.000,1423.000,1450.000,1442.000,1499.000,1467.000,1462.000,1413.000,1466.000
2896.813,1444.000,1510.000,1481.000,1506.000,1486.000,1464.000,1491.000,1477.000,1492.000,1495.000
2898.194,1455.000,1492.000,1532.000,1524.000,1507.000,1494.000,1544.000,1547.000,1527.000,1504.000
2899.574,1475.000,1518.000,1530.000,1548.000,1548.000,1562.000,1529.000,1564.000,1540.000,1571.000
2900.955,1546.000,1607.000,1602.000,1574.000,1578.000,1624.000,1597.000,1564.000,1579.000,1598.000
2902.335,1573.000,1634.000,1637.000,1635.000,1654.000,1653.000,1652.000,1633.000,1657.000,1655.000
2903.715,1640.000,1723.000,1693.000,1697.000,1738.000,1701.000,1707.000,1737.000,1700.000,1731.000
2905.095,1697.000,1768.000,1782.000,1763.000,1814.000,1795.000,1777.000,1779.000,1786.000,1774.000
2906.476,1751.000,1852.000,1875.000,1837.000,1842.000,1830.000,1858.000,1823.000,1848.000,1854.000
2907.855,1823.000,1932.000,1944.000,1927.000,1975.000,1945.000,1971.000,1962.000,1943.000,1943.000
2909.234,1965.000,1985.000,2019.000,2025.000,2033.000,2023.000,2033.000,2034.000,2050.000,2050.000
2910.613,2070.000,2188.000,2151.000,2158.000,2185.000,2169.000,2180.000,2176.000,2143.000,2165.000
2911.991,2199.000,2308.000,2352.000,2312.000,2324.000,2347.000,2343.000,2339.000,2340.000,2314.000
2913.369,2387.000,2510.000,2493.000,2490.000,2508.000,2448.000,2498.000,2525.000,2463.000,2509.000
2914.748,2495.000,2641.000,2657.000,2676.000,2698.000,2657.000,2700.000,2674.000,2663.000,2721.000
2916.125,2731.000,2888.000,2953.000,2932.000,2885.000,2947.000,2921.000,2899.000,2887.000,2902.000
2917.503,2978.000,3199.000,3252.000,3237.000,3188.000,3203.000,3209.000,3241.000,3173.000,3144.000
2918.880,3251.000,3551.000,3565.000,3621.000,3496.000,3516.000,3525.000,3529.000,3571.000,3523.000
2920.257,3674.000,3938.000,3984.000,3922.000,3978.000,3974.000,3895.000,4001.000,3998.000,3962.000
2921.636,4099.000,4397.000,4482.000,4351.000,4471.000,4489.000,4393.000,4435.000,4425.000,4467.000
2923.012,4534.000,5009.000,4989.000,4927.000,4944.000,4965.000,5022.000,5060.000,5011.000,4951.000
2924.389,5087.000,5537.000,5525.000,5611.000,5578.000,5570.000,5591.000,5542.000,5610.000,5660.000
2925.765,5640.000,6195.000,6161.000,6226.000,6202.000,6215.000,6149.000,6298.000,6122.000,6243.000
2927.141,6187.000,6838.000,6843.000,6814.000,6832.000,6822.000,6792.000,6909.000,6885.000,6847.000
2928.516,6739.000,7363.000,7401.000,7490.000,7492.000,7567.000,7618.000,7442.000,7522.000,7514.000
2929.892,7135.000,7853.000,7821.000,7840.000,7873.000,7845.000,7791.000,7879.000,7824.000,7848.000
2931.267,7242.000,7907.000,7809.000,7870.000,7952.000,7863.000,7868.000,7910.000,7892.000,7968.000
2932.642,7062.000,7716.000,7662.000,7780.000,7726.000,7787.000,7803.000,7722.000,7765.000,7764.000
2934.017,6818.000,7323.000,7318.000,7273.000,7327.000,7423.000,7389.000,7383.000,7430.000,7431.000
2935.391,6326.000,6929.000,6825.000,6811.000,6874.000,6885.000,6829.000,6734.000,6922.000,6837.000
2936.765,5743.000,6214.000,6201.000,6182.000,6189.000,6139.000,6278.000,6190.000,6175.000,6221.000
2938.139,5098.000,5528.000,5488.000,5514.000,5494.000,5479.000,5523.000,5467.000,5491.000,5488.000
2939.515,4526.000,4883.000,4924.000,4883.000,4922.000,4874.000,4891.000,4850.000,4830.000,4940.000
2940.888,4037.000,4452.000,4374.000,4328.000,4353.000,4388.000,4360.000,4390.000,4309.000,4372.000
2942.261,3638.000,3943.000,3912.000,3876.000,3947.000,3893.000,3935.000,3921.000,3882.000,3891.000
2943.634,3321.000,3595.000,3487.000,3503.000,3532.000,3536.000,3541.000,3523.000,3507.000,3545.000
2945.007,3035.000,3194.000,3163.000,3227.000,3206.000,3237.000,3242.000,3217.000,3235.000,3262.000
2946.380,2853.000,2964.000,2931.000,2963.000,3023.000,3000.000,2967.000,2992.000,2963.000,2981.000
2947.752,2551.000,2727.000,2753.000,2703.000,2757.000,2720.000,2762.000,2762.000,2744.000,2725.000
2949.124,2426.000,2521.000,2569.000,2551.000,2529.000,2505.000,2527.000,2569.000,2528.000,2583.000
2950.496,2307.000,2387.000,2431.000,2382.000,2377.000,2422.000,2415.000,2389.000,2360.000,2400.000
2951.868,2198.000,2292.000,2244.000,2316.000,2330.000,2303.000,2318.000,2286.000,2326.000,2335.000
2953.239,2084.000,2263.000,2204.000,2184.000,2244.000,2231.000,2183.000,2253.000,2201.000,2182.000
2954.612,2009.000,2077.000,2099.000,2113.000,2111.000,2114.000,2125.000,2089.000,2117.000,2106.000
2955.983,1922.000,2055.000,2014.000,2024.000,2021.000,2025.000,2058.000,2071.000,2075.000,2070.000
2957.353,1901.000,2032.000,1981.000,1974.000,2022.000,2031.000,2004.000,2010.000,2005.000,2002.000
2958.724,1881.000,1952.000,1928.000,1956.000,1958.000,1988.000,1971.000,1971.000,1971.000,1956.000
2960.094,1842.000,1872.000,1897.000,1945.000,1890.000,1911.000,1876.000,1899.000,1904.000,1920.000
2961.464,1874.000,1879.000,1843.000,1865.000,1893.000,1882.000,1908.000,1886.000,1874.000,1849.000
2962.834,1865.000,1889.000,1853.000,1895.000,1877.000,1813.000,1851.000,1887.000,1882.000,1866.000
2964.203,1800.000,1869.000,1855.000,1883.000,1838.000,1894.000,1806.000,1838.000,1855.000,1870.000
2965.572,1799.000,1843.000,1822.000,1860.000,1820.000,1886.000,1836.000,1837.000,1835.000,1802.000
2966.941,1799.000,1812.000,1829.000,1851.000,1846.000,1828.000,1844.000,1841.000,1855.000,1807.000
2968.310,1807.000,1819.000,1878.000,1866.000,1824.000,1826.000,1843.000,1859.000,1868.000,1855.000
2969.679,1805.000,1873.000,1890.000,1876.000,1876.000,1857.000,1842.000,1854.000,1812.000,1866.000
2971.047,1775.000,1848.000,1810.000,1824.000,1845.000,1854.000,1820.000,1843.000,1838.000,1813.000
2972.417,1832.000,1832.000,1849.000,1832.000,1832.000,1788.000,1837.000,1822.000,1826.000,1814.000
2973.784,1778.000,1806.000,1816.000,1792.000,1825.000,1847.000,1810.000,1817.000,1823.000,1833.000
2975.152,1778.000,1857.000,1811.000,1779.000,1813.000,1800.000,1805.000,1800.000,1796.000,1780.000
2976.519,1754.000,1807.000,1789.000,1825.000,1817.000,1771.000,1773.000,1775.000,1762.000,1757.000
2977.886,1721.000,1736.000,1748.000,1753.000,1728.000,1782.000,1721.000,1742.000,1761.000,1775.000
2979.253,1678.000,1731.000,1803.000,1742.000,1695.000,1782.000,1733.000,1779.000,1783.000,1734.000
2980.620,1711.000,1735.000,1713.000,1729.000,1698.000,1710.000,1743.000,1698.000,1710.000,1736.000
2981.986,1638.000,1677.000,1671.000,1682.000,1668.000,1683.000,1685.000,1633.000,1679.000,1677.000
2983.353,1634.000,1627.000,1643.000,1608.000,1620.000,1649.000,1668.000,1644.000,1630.000,1610.000
2984.718,1599.000,1610.000,1611.000,1586.000,1606.000,1621.000,1631.000,1609.000,1615.000,1582.000
2986.084,1603.000,1606.000,1606.000,1618.000,1630.000,1558.000,1614.000,1604.000,1602.000,1595.000
2987.451,1519.000,1599.000,1502.000,1554.000,1527.000,1572.000,1599.000,1561.000,1556.000,1558.000
2988.816,1488.000,1531.000,1519.000,1515.000,1543.000,1514.000,1540.000,1514.000,1541.000,1508.000
2990.181,1469.000,1523.000,1514.000,1493.000,1502.000,1501.000,1495.000,1498.000,1555.000,1537.000
2991.546,1515.000,1495.000,1507.000,1523.000,1504.000,1507.000,1529.000,1518.000,1489.000,1524.000
2992.911,1451.000,1541.000,1483.000,1504.000,1444.000,1515.000,1494.000,1504.000,1475.000,1450.000
2994.275,1458.000,1435.000,1465.000,1447.000,1492.000,1442.000,1466.000,1427.000,1482.000,1467.000
2995.639,1452.000,1456.000,1465.000,1457.000,1458.000,1449.000,1461.000,1440.000,1470.000,1436.000
2997.003,1453.000,1453.000,1455.000,1468.000,1420.000,1490.000,1464.000,1478.000,1428.000,1463.000
2998.366,1431.000,1459.000,1439.000,1403.000,1462.000,1450.000,1425.000,1396.000,1454.000,1453.000
2999.730,1433.000,1445.000,1424.000,1416.000,1426.000,1435.000,1412.000,1397.000,1445.000,1407.000
3001.093,1416.000,1403.000,1413.000,1421.000,1400.000,1393.000,1412.000,1437.000,1426.000,1452.000
3002.456,1428.000,1409.000,1439.000,1442.000,1431.000,1444.000,1442.000,1431.000,1452.000,1454.000
3003.818,1399.000,1436.000,1417.000,1427.000,1421.000,1398.000,1411.000,1424.000,1432.000,1444.000
3005.182,1410.000,1453.000,1422.000,1421.000,1401.000,1434.000,1389.000,1401.000,1402.000,1435.000
3006.544,1395.000,1434.000,1422.000,1415.000,1430.000,1408.000,1403.000,1408.000,1400.000,1433.000
3007.906,1456.000,1398.000,1397.000,1409.000,1480.000,1446.000,1420.000,1425.000,1445.000,1426.000
3009.268,1430.000,1427.000,1437.000,1439.000,1447.000,1428.000,1397.000,1448.000,1434.000,1449.000
3010.629,1435.000,1431.000,1438.000,1411.000,1414.000,1403.000,1430.000,1415.000,1440.000,1433.000
3011.991,1411.000,1439.000,1416.000,1419.000,1415.000,1438.000,1437.000,1428.000,1433.000,1423.000
3013.352,1405.000,1413.000,1419.000,1437.000,1403.000,1415.000,1433.000,1432.000,1446.000,1408.000
3014.712,1406.000,1431.000,1419.000,1432.000,1463.000,1442.000,1402.000,1411.000,1417.000,1408.000
3016.073,1396.000,1407.000,1401.000,1410.000,1408.000,1418.000,1397.000,1393.000,1422.000,1409.000
3017.433,1400.000,1382.000,1406.000,1359.000,1399.000,1390.000,1364.000,1397.000,1397.000,1396.000
3018.793,1382.000,1379.000,1392.000,1389.000,1362.000,1371.000,1370.000,1365.000,1377.000,1403.000
3020.153,1376.000,1363.000,1371.000,1370.000,1383.000,1369.000,1351.000,1350.000,1356.000,1353.000
3021.514,1368.000,1349.000,1356.000,1328.000,1349.000,1331.000,1343.000,1334.000,1324.000,1342.000
3022.874,1306.000,1320.000,1328.000,1318.000,1311.000,1341.000,1312.000,1305.000,1329.000,1301.000
3024.233,1321.000,1297.000,1286.000,1308.000,1305.000,1290.000,1323.000,1304.000,1281.000,1325.000
3025.592,1322.000,1303.000,1296.000,1310.000,1279.000,1313.000,1305.000,1307.000,1323.000,1297.000
3026.950,1301.000,1284.000,1284.000,1273.000,1283.000,1302.000,1278.000,1296.000,1282.000,1281.000
3028.309,1260.000,1254.000,1253.000,1278.000,1288.000,1271.000,1222.000,1264.000,1275.000,1254.000
3029.667,1255.000,1247.000,1240.000,1244.000,1242.000,1238.000,1242.000,1245.000,1226.000,1232.000
3031.025,1258.000,1254.000,1224.000,1240.000,1246.000,1234.000,1247.000,1249.000,1274.000,1222.000
3032.382,1247.000,1231.000,1240.000,1239.000,1231.000,1241.000,1225.000,1233.000,1251.000,1233.000
3033.740,1190.000,1209.000,1227.000,1220.000,1220.000,1198.000,1208.000,1207.000,1231.000,1208.000
3035.097,1205.000,1198.000,1218.000,1226.000,1232.000,1220.000,1226.000,1212.000,1226.000,1218.000
3036.454,1202.000,1217.000,1204.000,1190.000,1202.000,1179.000,1195.000,1214.000,1192.000,1183.000
3037.812,1197.000,1188.000,1168.000,1226.000,1196.000,1194.000,1188.000,1187.000,1193.000,1187.000
3039.169,1181.000,1172.000,1186.000,1166.000,1177.000,1182.000,1172.000,1180.000,1184.000,1149.000
3040.525,1181.000,1179.000,1180.000,1144.000,1163.000,1182.000,1151.000,1178.000,1169.000,1160.000
3041.881,1144.000,1180.000,1151.000,1152.000,1161.000,1131.000,1151.000,1191.000,1168.000,1176.000
3043.237,1147.000,1165.000,1178.000,1157.000,1151.000,1140.000,1156.000,1180.000,1179.000,1174.000
3044.593,1172.000,1155.000,1177.000,1136.000,1129.000,1142.000,1163.000,1163.000,1150.000,1164.000
3045.948,1154.000,1130.000,1135.000,1159.000,1153.000,1139.000,1167.000,1139.000,1152.000,1148.000
3047.303,1151.000,1122.000,1139.000,1125.000,1154.000,1108.000,1120.000,1166.000,1130.000,1123.000
3048.658,1151.000,1154.000,1145.000,1138.000,1151.000,1126.000,1166.000,1168.000,1144.000,1143.000
3050.013,1159.000,1136.000,1148.000,1143.000,1148.000,1120.000,1128.000,1134.000,1123.000,1125.000
3051.367,1130.000,1153.000,1132.000,1130.000,1151.000,1130.000,1125.000,1158.000,1141.000,1141.000
3052.722,1101.000,1131.000,1140.000,1156.000,1131.000,1147.000,1143.000,1149.000,1139.000,1138.000
3054.077,1147.000,1133.000,1127.000,1135.000,1163.000,1151.000,1119.000,1137.000,1147.000,1157.000
3055.431,1140.000,1135.000,1146.000,1122.000,1124.000,1132.000,1173.000,1161.000,1143.000,1130.000
3056.784,1128.000,1127.000,1127.000,1159.000,1137.000,1151.000,1128.000,1137.000,1143.000,1132.000
3058.138,1144.000,1146.000,1123.000,1139.000,1146.000,1153.000,1124.000,1165.000,1155.000,1145.000
3059.491,1161.000,1157.000,1151.000,1162.000,1143.000,1174.000,1158.000,1179.000,1140.000,1151.000
3060.843,1163.000,1132.000,1179.000,1131.000,1155.000,1135.000,1163.000,1147.000,1165.000,1155.000
3062.196,1145.000,1121.000,1168.000,1136.000,1153.000,1156.000,1153.000,1159.000,1133.000,1118.000
3063.548,1147.000,1163.000,1161.000,1159.000,1159.000,1146.000,1128.000,1144.000,1150.000,1166.000
3064.900,1174.000,1176.000,1206.000,1163.000,1176.000,1148.000,1175.000,1188.000,1159.000,1167.000
3066.252,1141.000,1182.000,1170.000,1176.000,1164.000,1167.000,1163.000,1182.000,1201.000,1146.000
3067.604,1156.000,1158.000,1167.000,1181.000,1168.000,1158.000,1182.000,1174.000,1146.000,1209.000
3068.955,1182.000,1170.000,1202.000,1173.000,1168.000,1173.000,1200.000,1147.000,1167.000,1157.000
3070.308,1183.000,1214.000,1173.000,1181.000,1203.000,1203.000,1194.000,1175.000,1183.000,1192.000
3071.659,1189.000,1205.000,1191.000,1216.000,1229.000,1198.000,1214.000,1177.000,1193.000,1180.000
3073.010,1206.000,1186.000,1203.000,1189.000,1200.000,1212.000,1210.000,1202.000,1186.000,1186.000
3074.360,1182.000,1185.000,1218.000,1191.000,1220.000,1217.000,1191.000,1200.000,1194.000,1204.000
3075.711,1206.000,1194.000,1195.000,1238.000,1216.000,1209.000,1205.000,1212.000,1222.000,1235.000
3077.061,1197.000,1232.000,1273.000,1227.000,1215.000,1227.000,1239.000,1231.000,1195.000,1232.000
3078.410,1205.000,1205.000,1229.000,1208.000,1210.000,1234.000,1210.000,1197.000,1217.000,1226.000
3079.760,1213.000,1219.000,1210.000,1213.000,1220.000,1227.000,1212.000,1218.000,1218.000,1244.000
3081.109,1207.000,1237.000,1242.000,1215.000,1230.000,1224.000,1214.000,1239.000,1241.000,1220.000
3082.458,1210.000,1249.000,1232.000,1224.000,1250.000,1196.000,1240.000,1257.000,1236.000,1216.000
3083.807,1219.000,1247.000,1233.000,1248.000,1253.000,1221.000,1227.000,1220.000,1227.000,1236.000
3085.156,1187.000,1226.000,1217.000,1225.000,1223.000,1268.000,1238.000,1238.000,1216.000,1241.000
3086.506,1211.000,1243.000,1228.000,1240.000,1225.000,1220.000,1228.000,1215.000,1215.000,1237.000
3087.854,1264.000,1235.000,1227.000,1243.000,1234.000,1231.000,1224.000,1261.000,1242.000,1260.000
3089.202,1209.000,1277.000,1265.000,1273.000,1247.000,1240.000,1232.000,1254.000,1271.000,1243.000
3090.550,1239.000,1231.000,1244.000,1207.000,1246.000,1222.000,1213.000,1229.000,1239.000,1240.000
3091.897,1243.000,1229.000,1211.000,1243.000,1234.000,1256.000,1222.000,1218.000,1268.000,1239.000
3093.244,1229.000,1262.000,1242.000,1257.000,1230.000,1251.000,1247.000,1276.000,1256.000,1255.000
3094.591,1203.000,1245.000,1242.000,1235.000,1255.000,1246.000,1237.000,1266.000,1248.000,1273.000
3095.938,1198.000,1242.000,1248.000,1256.000,1237.000,1220.000,1215.000,1224.000,1221.000,1218.000
3097.285,1232.000,1238.000,1198.000,1251.000,1244.000,1255.000,1242.000,1280.000,1241.000,1233.000
3098.631,1252.000,1252.000,1228.000,1259.000,1260.000,1284.000,1251.000,1251.000,1265.000,1219.000
3099.977,1258.000,1265.000,1271.000,1252.000,1280.000,1259.000,1274.000,1265.000,1259.000,1254.000
3101.323,1234.000,1262.000,1242.000,1242.000,1244.000,1258.000,1263.000,1259.000,1251.000,1248.000
3102.670,1250.000,1239.000,1233.000,1247.000,1259.000,1235.000,1220.000,1213.000,1247.000,1219.000
3104.015,1243.000,1247.000,1262.000,1272.000,1227.000,1249.000,1244.000,1246.000,1240.000,1236.000
3105.361,1265.000,1264.000,1234.000,1266.000,1279.000,1283.000,1244.000,1267.000,1267.000,1284.000
3106.706,1238.000,1271.000,1257.000,1246.000,1247.000,1241.000,1257.000,1252.000,1241.000,1279.000
3108.050,1195.000,1234.000,1221.000,1208.000,1262.000,1238.000,1244.000,1223.000,1253.000,1240.000
3109.395,1228.000,1226.000,1227.000,1238.000,1221.000,1228.000,1218.000,1213.000,1248.000,1222.000
3110.739,1210.000,1187.000,1223.000,1198.000,1228.000,1243.000,1201.000,1259.000,1215.000,1240.000
3112.083,1216.000,1226.000,1201.000,1212.000,1192.000,1214.000,1207.000,1213.000,1241.000,1182.000
3113.427,1181.000,1186.000,1191.000,1203.000,1187.000,1183.000,1192.000,1160.000,1168.000,1166.000
3114.770,1171.000,1170.000,1195.000,1178.000,1179.000,1175.000,1160.000,1156.000,1192.000,1165.000
3116.114,1144.000,1153.000,1174.000,1146.000,1162.000,1190.000,1184.000,1149.000,1144.000,1146.000
3117.457,1120.000,1161.000,1167.000,1135.000,1120.000,1153.000,1123.000,1168.000,1159.000,1136.000
3118.801,1085.000,1115.000,1113.000,1142.000,1119.000,1120.000,1132.000,1120.000,1095.000,1115.000
3120.144,1076.000,1105.000,1098.000,1101.000,1080.000,1103.000,1101.000,1090.000,1110.000,1089.000
3121.486,1074.000,1093.000,1088.000,1093.000,1099.000,1071.000,1088.000,1083.000,1091.000,1075.000
3122.828,1077.000,1075.000,1079.000,1086.000,1096.000,1068.000,1105.000,1065.000,1044.000,1087.000
3124.170,1051.000,1055.000,1063.000,1095.000,1045.000,1058.000,1066.000,1045.000,1051.000,1058.000
3125.512,1083.000,1049.000,1054.000,1049.000,1050.000,1049.000,1051.000,1027.000,1058.000,1047.000
3126.853,1050.000,1029.000,1029.000,1040.000,1047.000,1051.000,1027.000,1013.000,1055.000,1055.000
3128.195,1014.000,1050.000,1046.000,1039.000,1035.000,1003.000,1050.000,1014.000,1020.000,1033.000
3129.536,1024.000,1027.000,1011.000,1027.000,1024.000,1039.000,1016.000,1020.000,1028.000,1016.000
3130.877,999.000,1016.000,1012.000,996.000,1008.000,1013.000,1007.000,1012.000,1010.000,1010.000
3132.217,1017.000,1010.000,1000.000,987.000,1017.000,1008.000,991.000,975.000,1013.000,1018.000
3133.557,1001.000,1005.000,1002.000,1009.000,1015.000,988.000,1005.000,1014.000,1018.000,994.000
3134.899,1001.000,989.000,995.000,979.000,1005.000,998.000,1013.000,986.000,1005.000,992.000
3136.239,970.000,975.000,993.000,991.000,949.000,977.000,983.000,991.000,1000.000,972.000
3137.579,987.000,1002.000,997.000,979.000,984.000,988.000,984.000,986.000,966.000,986.000
3138.918,999.000,998.000,976.000,969.000,975.000,977.000,980.000,979.000,974.000,980.000
3140.257,986.000,964.000,1000.000,963.000,998.000,997.000,1011.000,979.000,991.000,993.000
3141.596,957.000,968.000,971.000,983.000,949.000,983.000,970.000,952.000,985.000,982.000
3142.935,951.000,954.000,940.000,951.000,969.000,955.000,974.000,961.000,964.000,944.000
3144.273,958.000,956.000,982.000,957.000,947.000,983.000,988.000,973.000,959.000,968.000
3145.612,978.000,950.000,962.000,961.000,972.000,986.000,961.000,969.000,983.000,965.000
3146.950,944.000,965.000,956.000,952.000,963.000,962.000,978.000,942.000,942.000,939.000
3148.288,961.000,946.000,950.000,961.000,976.000,949.000,952.000,948.000,960.000,935.000
3149.625,952.000,951.000,958.000,967.000,951.000,975.000,965.000,973.000,951.000,973.000
3150.964,959.000,964.000,965.000,935.000,947.000,976.000,952.000,946.000,955.000,952.000
3152.301,967.000,947.000,950.000,961.000,955.000,945.000,939.000,933.000,934.000,964.000
3153.638,931.000,943.000,958.000,947.000,950.000,956.000,944.000,935.000,955.000,952.000
3154.975,952.000,954.000,945.000,947.000,935.000,950.000,953.000,935.000,952.000,955.000
3156.311,934.000,946.000,939.000,941.000,958.000,953.000,940.000,969.000,951.000,960.000
3157.647,944.000,950.000,943.000,951.000,965.000,944.000,940.000,933.000,937.000,940.000
3158.983,939.000,943.000,930.000,949.000,942.000,939.000,941.000,932.000,935.000,939.000
3160.319,935.000,939.000,940.000,940.000,950.000,948.000,943.000,943.000,930.000,943.000
3161.655,955.000,950.000,956.000,964.000,938.000,940.000,928.000,931.000,945.000,943.000
3162.990,930.000,929.000,942.000,943.000,926.000,926.000,951.000,938.000,939.000,936.000
3164.325,956.000,929.000,914.000,932.000,931.000,933.000,956.000,930.000,942.000,934.000
3165.660,933.000,925.000,945.000,923.000,941.000,944.000,949.000,926.000,905.000,931.000
3166.996,917.000,945.000,928.000,946.000,911.000,924.000,938.000,931.000,920.000,932.000
3168.330,939.000,932.000,928.000,924.000,926.000,919.000,941.000,935.000,931.000,935.000
3169.665,940.000,915.000,931.000,937.000,946.000,940.000,929.000,933.000,925.000,908.000
3170.999,946.000,930.000,932.000,917.000,932.000,933.000,923.000,921.000,927.000,921.000
3172.332,924.000,917.000,950.000,939.000,931.000,926.000,944.000,925.000,940.000,948.000
3173.666,939.000,946.000,931.000,942.000,930.000,929.000,935.000,924.000,943.000,911.000
3174.999,946.000,939.000,923.000,943.000,920.000,946.000,950.000,938.000,927.000,921.000
3176.332,932.000,903.000,933.000,914.000,915.000,921.000,927.000,932.000,919.000,913.000
3177.665,914.000,933.000,921.000,928.000,933.000,918.000,928.000,921.000,930.000,908.000
3178.997,935.000,946.000,937.000,934.000,917.000,945.000,927.000,928.000,922.000,921.000
3180.330,916.000,920.000,946.000,947.000,914.000,897.000,905.000,918.000,933.000,951.000
3181.662,918.000,931.000,933.000,922.000,923.000,943.000,927.000,899.000,920.000,913.000
3182.995,917.000,906.000,928.000,918.000,919.000,914.000,926.000,916.000,918.000,910.000
3184.327,942.000,909.000,935.000,913.000,940.000,892.000,933.000,919.000,898.000,925.000
3185.658,945.000,912.000,919.000,941.000,914.000,918.000,920.000,927.000,917.000,917.000
3186.990,911.000,929.000,908.000,926.000,916.000,908.000,927.000,920.000,903.000,916.000
3188.320,915.000,905.000,910.000,926.000,915.000,907.000,932.000,923.000,908.000,947.000
3189.651,929.000,937.000,920.000,919.000,922.000,926.000,913.000,917.000,929.000,910.000
3190.982,896.000,915.000,926.000,926.000,924.000,916.000,916.000,895.000,930.000,912.000
3192.312,915.000,907.000,908.000,915.000,925.000,909.000,915.000,927.000,906.000,927.000
3193.642,894.000,925.000,908.000,901.000,902.000,926.000,895.000,908.000,905.000,906.000
3194.972,917.000,926.000,925.000,917.000,934.000,922.000,897.000,933.000,909.000,902.000
3196.302,912.000,926.000,901.000,889.000,920.000,899.000,917.000,919.000,918.000,921.000
3197.631,919.000,921.000,911.000,931.000,918.000,925.000,913.000,925.000,921.000,919.000
3198.962,902.000,904.000,899.000,914.000,902.000,905.000,901.000,895.000,916.000,927.000
3200.291,899.000,931.000,906.000,915.000,903.000,909.000,900.000,912.000,914.000,910.000
3201.619,907.000,904.000,911.000,924.000,899.000,902.000,911.000,914.000,921.000,906.000
3202.948,918.000,911.000,911.000,924.000,914.000,901.000,918.000,905.000,921.000,934.000
3204.276,918.000,919.000,895.000,907.000,910.000,914.000,923.000,898.000,922.000,892.000
3205.604,909.000,919.000,913.000,898.000,905.000,899.000,915.000,908.000,907.000,901.000
3206.932,903.000,909.000,894.000,914.000,922.000,909.000,922.000,910.000,894.000,906.000
3208.259,905.000,906.000,911.000,926.000,916.000,919.000,911.000,910.000,918.000,903.000
3209.587,907.000,912.000,915.000,893.000,908.000,926.000,903.000,899.000,907.000,916.000
3210.914,902.000,916.000,896.000,913.000,903.000,921.000,930.000,906.000,895.000,912.000
3212.241,912.000,903.000,902.000,917.000,916.000,912.000,910.000,923.000,904.000,909.000
3213.568,919.000,904.000,900.000,914.000,890.000,926.000,923.000,918.000,937.000,933.000
3214.895,935.000,921.000,910.000,911.000,929.000,900.000,925.000,893.000,900.000,907.000
3216.222,912.000,909.000,911.000,893.000,915.000,912.000,902.000,905.000,894.000,902.000
3217.548,907.000,910.000,897.000,927.000,902.000,896.000,890.000,901.000,906.000,913.000
3218.874,899.000,896.000,895.000,911.000,924.000,923.000,917.000,923.000,913.000,923.000
3220.199,895.000,900.000,896.000,910.000,904.000,919.000,904.000,907.000,929.000,892.000
3221.524,908.000,913.000,915.000,894.000,910.000,897.000,904.000,895.000,902.000,900.000
3222.849,908.000,903.000,910.000,911.000,922.000,909.000,908.000,909.000,902.000,902.000
3224.174,900.000,908.000,896.000,888.000,896.000,902.000,913.000,916.000,878.000,902.000
3225.499,900.000,912.000,900.000,895.000,903.000,901.000,910.000,907.000,905.000,893.000
3226.823,912.000,919.000,913.000,899.000,906.000,921.000,887.000,911.000,886.000,912.000
3228.148,903.000,907.000,912.000,917.000,929.000,895.000,895.000,886.000,911.000,905.000
3229.472,910.000,899.000,911.000,886.000,919.000,927.000,907.000,888.000,897.000,907.000
3230.797,891.000,916.000,912.000,899.000,899.000,910.000,894.000,903.000,923.000,914.000
3232.120,925.000,907.000,910.000,895.000,907.000,902.000,914.000,914.000,888.000,920.000
3233.444,901.000,893.000,901.000,902.000,901.000,885.000,894.000,903.000,895.000,895.000
3234.767,908.000,897.000,892.000,892.000,914.000,909.000,896.000,891.000,913.000,906.000
3236.090,918.000,899.000,888.000,890.000,911.000,909.000,902.000,912.000,928.000,899.000
3237.412,909.000,924.000,907.000,919.000,907.000,891.000,907.000,916.000,912.000,892.000
3238.735,896.000,907.000,896.000,888.000,909.000,914.000,904.000,912.000,908.000,886.000
3240.057,905.000,898.000,900.000,879.000,915.000,879.000,899.000,892.000,885.000,894.000
3241.379,909.000,887.000,892.000,883.000,895.000,899.000,904.000,900.000,909.000,903.000
3242.700,911.000,871.000,899.000,897.000,892.000,925.000,896.000,918.000,919.000,908.000
3244.022,880.000,894.000,892.000,908.000,904.000,903.000,907.000,915.000,887.000,888.000
3245.343,903.000,892.000,897.000,920.000,895.000,898.000,895.000,883.000,902.000,904.000
3246.666,890.000,891.000,883.000,898.000,889.000,893.000,921.000,894.000,895.000,900.000
3247.987,875.000,924.000,904.000,922.000,887.000,898.000,890.000,901.000,903.000,889.000
3249.307,891.000,886.000,900.000,881.000,890.000,893.000,885.000,903.000,910.000,888.000
3250.628,896.000,895.000,923.000,882.000,892.000,888.000,884.000,889.000,885.000,898.000
3251.948,902.000,897.000,895.000,894.000,896.000,887.000,906.000,887.000,900.000,898.000
3253.268,898.000,892.000,905.000,907.000,895.000,905.000,895.000,906.000,890.000,894.000
3254.587,892.000,902.000,901.000,888.000,907.000,893.000,913.000,895.000,900.000,914.000
3255.907,897.000,893.000,881.000,910.000,890.000,898.000,891.000,888.000,898.000,880.000
3257.226,895.000,897.000,895.000,888.000,881.000,882.000,877.000,896.000,889.000,900.000
3258.545,908.000,883.000,895.000,907.000,918.000,903.000,905.000,891.000,909.000,900.000
3259.864,907.000,881.000,914.000,897.000,895.000,889.000,897.000,902.000,906.000,893.000
3261.182,893.000,895.000,889.000,910.000,885.000,907.000,897.000,886.000,892.000,887.000
3262.502,884.000,910.000,896.000,900.000,896.000,893.000,902.000,896.000,889.000,884.000
3263.820,883.000,881.000,889.000,886.000,891.000,906.000,903.000,902.000,886.000,899.000
3265.138,909.000,901.000,901.000,895.000,903.000,897.000,914.000,904.000,877.000,897.000
3266.456,885.000,909.000,872.000,889.000,887.000,898.000,911.000,899.000,888.000,895.000
3267.773,906.000,892.000,901.000,909.000,886.000,889.000,901.000,898.000,890.000,885.000
3269.091,886.000,903.000,897.000,893.000,894.000,903.000,901.000,887.000,904.000,894.000
3270.408,871.000,913.000,903.000,886.000,895.000,893.000,874.000,901.000,892.000,895.000
3271.725,903.000,896.000,893.000,895.000,892.000,880.000,913.000,883.000,883.000,884.000
3273.041,882.000,880.000,880.000,884.000,879.000,890.000,887.000,884.000,891.000,881.000
3274.357,898.000,891.000,891.000,893.000,887.000,877.000,874.000,878.000,875.000,882.000
3275.674,887.000,902.000,897.000,894.000,904.000,891.000,887.000,880.000,907.000,909.000
3276.989,889.000,902.000,890.000,892.000,891.000,883.000,909.000,877.000,897.000,887.000
3278.305,897.000,893.000,887.000,898.000,892.000,883.000,901.000,892.000,880.000,871.000
3279.622,904.000,901.000,882.000,871.000,894.000,888.000,890.000,903.000,879.000,881.000
3280.937,883.000,892.000,887.000,879.000,878.000,883.000,891.000,887.000,906.000,888.000
3282.252,884.000,886.000,882.000,897.000,883.000,895.000,903.000,897.000,881.000,895.000
3283.567,882.000,895.000,884.000,884.000,901.000,866.000,897.000,896.000,877.000,896.000
3284.882,886.000,878.000,887.000,904.000,886.000,875.000,887.000,886.000,895.000,861.000
3286.196,872.000,884.000,886.000,880.000,883.000,878.000,895.000,862.000,897.000,893.000
3287.510,903.000,883.000,888.000,881.000,873.000,896.000,903.000,889.000,895.000,895.000
3288.824,879.000,870.000,886.000,894.000,895.000,901.000,869.000,899.000,868.000,899.000
3290.138,883.000,883.000,872.000,888.000,870.000,891.000,890.000,885.000,895.000,886.000
3291.451,883.000,895.000,869.000,900.000,873.000,886.000,895.000,907.000,896.000,903.000
3292.764,882.000,886.000,861.000,869.000,886.000,894.000,879.000,872.000,884.000,890.000
3294.079,896.000,884.000,884.000,904.000,889.000,885.000,877.000,889.000,887.000,903.000
3295.392,880.000,881.000,884.000,886.000,900.000,897.000,884.000,897.000,882.000,900.000
3296.704,891.000,902.000,886.000,881.000,883.000,894.000,894.000,906.000,877.000,887.000
3298.017,891.000,899.000,886.000,896.000,896.000,880.000,879.000,881.000,884.000,861.000
3299.329,893.000,887.000,876.000,889.000,869.000,879.000,894.000,889.000,885.000,880.000
3300.641,910.000,876.000,895.000,880.000,893.000,890.000,896.000,907.000,874.000,894.000
3301.952,897.000,869.000,900.000,868.000,879.000,895.000,893.000,888.000,888.000,884.000
3303.264,888.000,872.000,889.000,886.000,888.000,891.000,875.000,895.000,887.000,898.000
3304.575,891.000,874.000,875.000,885.000,902.000,858.000,890.000,883.000,887.000,883.000
3305.886,882.000,873.000,883.000,896.000,892.000,891.000,909.000,886.000,877.000,904.000
3307.197,888.000,891.000,895.000,883.000,895.000,888.000,871.000,889.000,872.000,885.000
3308.507,896.000,881.000,878.000,867.000,899.000,888.000,895.000,878.000,877.000,878.000
3309.818,884.000,899.000,884.000,892.000,894.000,886.000,882.000,907.000,877.000,887.000
3311.129,892.000,897.000,888.000,895.000,895.000,899.000,881.000,895.000,868.000,883.000
3312.439,894.000,868.000,892.000,891.000,871.000,888.000,888.000,882.000,902.000,899.000
3313.749,883.000,881.000,893.000,877.000,890.000,876.000,875.000,890.000,879.000,878.000
3315.058,877.000,879.000,880.000,895.000,888.000,885.000,870.000,877.000,894.000,867.000
3316.367,874.000,868.000,888.000,893.000,890.000,885.000,889.000,882.000,868.000,905.000
3317.676,880.000,871.000,908.000,895.000,884.000,864.000,887.000,906.000,870.000,888.000
3318.985,879.000,899.000,878.000,890.000,891.000,871.000,874.000,874.000,881.000,884.000
3320.294,887.000,886.000,887.000,889.000,882.000,872.000,870.000,895.000,897.000,882.000
3321.602,892.000,893.000,882.000,888.000,882.000,881.000,891.000,897.000,875.000,881.000
3322.910,863.000,879.000,887.000,883.000,876.000,867.000,865.000,875.000,871.000,895.000
3324.218,872.000,893.000,890.000,891.000,882.000,890.000,885.000,878.000,878.000,882.000
3325.527,896.000,883.000,883.000,882.000,881.000,871.000,880.000,877.000,891.000,887.000
3326.835,881.000,891.000,896.000,873.000,887.000,867.000,878.000,873.000,895.000,888.000
3328.142,886.000,874.000,881.000,871.000,894.000,891.000,879.000,882.000,885.000,900.000
3329.449,883.000,887.000,885.000,894.000,870.000,888.000,886.000,892.000,885.000,888.000
3330.756,887.000,861.000,871.000,877.000,870.000,882.000,881.000,884.000,868.000,886.000
3332.062,891.000,880.000,877.000,881.000,879.000,885.000,873.000,887.000,897.000,872.000
3333.369,904.000,872.000,868.000,880.000,901.000,886.000,869.000,900.000,864.000,866.000
3334.675,876.000,893.000,864.000,874.000,880.000,882.000,876.000,886.000,880.000,871.000
3335.981,883.000,901.000,890.000,878.000,865.000,888.000,878.000,895.000,880.000,894.000
3337.287,875.000,882.000,878.000,858.000,873.000,872.000,885.000,886.000,897.000,886.000
3338.592,878.000,903.000,889.000,892.000,892.000,891.000,874.000,897.000,890.000,873.000
3339.897,880.000,860.000,886.000,873.000,887.000,890.000,887.000,873.000,881.000,880.000
3341.202,891.000,884.000,870.000,902.000,891.000,877.000,881.000,903.000,882.000,884.000
3342.509,859.000,876.000,885.000,886.000,876.000,889.000,885.000,885.000,863.000,892.000
3343.813,883.000,866.000,856.000,898.000,893.000,882.000,886.000,902.000,890.000,873.000
3345.118,891.000,873.000,894.000,877.000,889.000,896.000,889.000,879.000,886.000,895.000
3346.422,891.000,883.000,885.000,862.000,908.000,881.000,889.000,893.000,884.000,875.000
3347.726,889.000,879.000,877.000,881.000,880.000,887.000,882.000,870.000,894.000,880.000
3349.029,880.000,883.000,876.000,896.000,898.000,878.000,871.000,869.000,891.000,878.000
3350.333,879.000,881.000,895.000,892.000,882.000,868.000,884.000,877.000,862.000,873.000
3351.636,906.000,870.000,887.000,876.000,897.000,873.000,886.000,880.000,887.000,900.000
3352.939,876.000,880.000,865.000,878.000,876.000,889.000,877.000,875.000,878.000,878.000
3354.242,884.000,869.000,864.000,893.000,887.000,871.000,872.000,876.000,890.000,895.000
3355.545,894.000,867.000,878.000,871.000,862.000,876.000,883.000,890.000,897.000,887.000
3356.848,874.000,878.000,898.000,864.000,890.000,886.000,869.000,873.000,863.000,903.000
3358.151,883.000,874.000,871.000,883.000,878.000,885.000,881.000,884.000,885.000,876.000
3359.453,880.000,887.000,877.000,877.000,862.000,873.000,875.000,883.000,857.000,856.000
3360.754,881.000,879.000,882.000,867.000,890.000,885.000,873.000,884.000,898.000,884.000
3362.056,862.000,878.000,880.000,885.000,871.000,874.000,881.000,888.000,892.000,892.000
3363.357,880.000,874.000,871.000,878.000,893.000,874.000,850.000,885.000,871.000,863.000
3364.658,880.000,870.000,888.000,872.000,884.000,878.000,875.000,863.000,871.000,871.000
3365.959,880.000,880.000,884.000,891.000,869.000,882.000,867.000,884.000,887.000,883.000
3367.260,898.000,871.000,887.000,875.000,873.000,866.000,893.000,879.000,900.000,906.000
3368.560,867.000,881.000,874.000,875.000,907.000,882.000,874.000,887.000,889.000,892.000
3369.860,884.000,891.000,881.000,876.000,887.000,891.000,900.000,865.000,880.000,859.000
3371.160,881.000,872.000,855.000,870.000,889.000,887.000,883.000,889.000,878.000,877.000
3372.460,863.000,885.000,856.000,870.000,876.000,883.000,873.000,853.000,895.000,868.000
3373.761,866.000,874.000,882.000,876.000,896.000,863.000,884.000,877.000,875.000,870.000
3375.060,881.000,890.000,872.000,880.000,887.000,877.000,888.000,872.000,877.000,881.000
3376.360,891.000,881.000,877.000,881.000,885.000,866.000,887.000,891.000,903.000,871.000
3377.658,891.000,878.000,897.000,887.000,890.000,877.000,890.000,883.000,861.000,892.000
3378.957,878.000,867.000,888.000,857.000,876.000,895.000,864.000,875.000,886.000,872.000
3380.256,875.000,875.000,895.000,892.000,906.000,871.000,893.000,888.000,884.000,874.000
3381.554,883.000,870.000,863.000,891.000,864.000,890.000,868.000,881.000,863.000,887.000
3382.852,866.000,884.000,898.000,885.000,869.000,874.000,886.000,865.000,870.000,873.000
3384.150,879.000,878.000,881.000,887.000,890.000,872.000,883.000,878.000,881.000,869.000
3385.447,872.000,875.000,870.000,887.000,873.000,873.000,890.000,887.000,866.000,871.000
3386.744,894.000,885.000,893.000,885.000,894.000,884.000,876.000,871.000,872.000,887.000
3388.043,869.000,863.000,869.000,864.000,874.000,867.000,872.000,865.000,870.000,886.000
3389.340,883.000,863.000,883.000,856.000,886.000,900.000,860.000,889.000,882.000,863.000
3390.637,869.000,863.000,893.000,879.000,897.000,887.000,891.000,869.000,887.000,895.000
3391.933,881.000,887.000,875.000,870.000,883.000,881.000,884.000,893.000,874.000,886.000
3393.229,863.000,864.000,874.000,882.000,875.000,880.000,877.000,868.000,870.000,870.000
3394.525,867.000,883.000,885.000,874.000,879.000,871.000,876.000,897.000,881.000,894.000
3395.821,870.000,866.000,885.000,878.000,890.000,882.000,891.000,878.000,891.000,856.000
3397.117,891.000,888.000,897.000,870.000,885.000,880.000,869.000,865.000,879.000,877.000
3398.412,874.000,886.000,864.000,887.000,888.000,876.000,877.000,878.000,893.000,887.000
3399.707,870.000,888.000,895.000,878.000,885.000,906.000,885.000,885.000,881.000,888.000
3401.002,868.000,873.000,876.000,860.000,872.000,894.000,888.000,886.000,896.000,877.000
3402.297,878.000,876.000,876.000,894.000,880.000,863.000,880.000,883.000,863.000,868.000
3403.592,888.000,876.000,875.000,882.000,884.000,874.000,884.000,883.000,869.000,861.000
3404.887,881.000,880.000,867.000,883.000,888.000,878.000,884.000,874.000,870.000,860.000
3406.182,881.000,880.000,875.000,880.000,867.000,882.000,876.000,890.000,867.000,878.000
3407.475,883.000,884.000,866.000,893.000,881.000,870.000,896.000,863.000,890.000,884.000
3408.769,886.000,866.000,897.000,860.000,888.000,873.000,857.000,891.000,862.000,873.000
3410.062,857.000,871.000,880.000,882.000,871.000,877.000,881.000,890.000,882.000,872.000
3411.356,868.000,882.000,888.000,877.000,872.000,880.000,896.000,895.000,879.000,867.000
3412.649,882.000,885.000,865.000,856.000,883.000,891.000,863.000,883.000,883.000,877.000
3413.941,881.000,871.000,888.000,888.000,876.000,873.000,887.000,865.000,876.000,874.000
3415.234,868.000,896.000,872.000,856.000,877.000,881.000,878.000,871.000,871.000,873.000
3416.526,877.000,889.000,893.000,893.000,880.000,874.000,883.000,878.000,879.000,870.000
3417.818,873.000,878.000,883.000,884.000,869.000,870.000,885.000,874.000,852.000,883.000
3419.112,876.000,885.000,885.000,869.000,884.000,883.000,878.000,879.000,869.000,874.000
3420.404,884.000,883.000,876.000,860.000,873.000,866.000,884.000,877.000,865.000,868.000
3421.695,867.000,870.000,881.000,855.000,862.000,875.000,868.000,884.000,885.000,871.000
3422.986,868.000,874.000,884.000,878.000,888.000,854.000,869.000,872.000,876.000,885.000
3424.277,863.000,883.000,888.000,859.000,889.000,874.000,867.000,877.000,871.000,868.000
3425.568,891.000,872.000,876.000,876.000,867.000,887.000,871.000,878.000,874.000,879.000
3426.859,865.000,885.000,859.000,869.000,882.000,876.000,874.000,856.000,875.000,871.000
3428.149,875.000,872.000,869.000,887.000,875.000,867.000,856.000,862.000,875.000,880.000
3429.439,886.000,865.000,885.000,870.000,888.000,876.000,876.000,858.000,884.000,863.000
3430.729,876.000,890.000,874.000,873.000,878.000,886.000,872.000,889.000,860.000,871.000
3432.019,879.000,890.000,873.000,834.000,877.000,884.000,881.000,861.000,897.000,879.000
3433.309,864.000,879.000,855.000,875.000,881.000,859.000,873.000,874.000,865.000,867.000
3434.598,874.000,886.000,883.000,886.000,877.000,879.000,862.000,875.000,880.000,865.000
3435.888,883.000,900.000,870.000,873.000,878.000,866.000,868.000,892.000,882.000,870.000
3437.177,851.000,875.000,861.000,867.000,868.000,872.000,858.000,895.000,883.000,886.000
3438.466,878.000,849.000,869.000,870.000,871.000,872.000,860.000,883.000,858.000,882.000
3439.754,889.000,865.000,881.000,867.000,868.000,877.000,881.000,879.000,854.000,889.000
3441.043,868.000,865.000,866.000,866.000,886.000,881.000,886.000,888.000,877.000,885.000
3442.331,868.000,876.000,881.000,867.000,878.000,868.000,869.000,881.000,872.000,871.000
3443.618,864.000,874.000,858.000,873.000,866.000,872.000,876.000,892.000,868.000,863.000
3444.906,858.000,875.000,876.000,862.000,883.000,868.000,883.000,867.000,864.000,872.000
3446.193,878.000,872.000,877.000,870.000,886.000,869.000,883.000,882.000,877.000,870.000
3447.481,891.000,873.000,882.000,861.000,883.000,868.000,873.000,871.000,868.000,882.000
3448.767,869.000,888.000,865.000,875.000,869.000,882.000,873.000,877.000,859.000,875.000
3450.056,885.000,869.000,871.000,877.000,869.000,873.000,863.000,882.000,863.000,872.000
3451.342,875.000,855.000,864.000,865.000,868.000,862.000,876.000,867.000,865.000,864.000
3452.628,878.000,866.000,873.000,873.000,889.000,880.000,881.000,884.000,880.000,887.000
3453.914,868.000,873.000,870.000,863.000,853.000,866.000,866.000,863.000,853.000,872.000
3455.200,876.000,863.000,878.000,864.000,866.000,879.000,874.000,866.000,867.000,863.000
3456.486,865.000,871.000,888.000,895.000,853.000,878.000,869.000,869.000,882.000,881.000
3457.771,863.000,879.000,862.000,889.000,880.000,851.000,881.000,880.000,856.000,873.000
3459.057,858.000,886.000,881.000,881.000,871.000,877.000,876.000,872.000,863.000,877.000
3460.342,871.000,863.000,862.000,895.000,867.000,868.000,856.000,880.000,863.000,853.000
3461.626,866.000,870.000,867.000,853.000,874.000,871.000,890.000,873.000,863.000,884.000
3462.911,869.000,879.000,862.000,880.000,872.000,872.000,868.000,868.000,870.000,859.000
3464.195,866.000,866.000,868.000,879.000,868.000,862.000,862.000,869.000,860.000,870.000
3465.479,870.000,872.000,860.000,872.000,877.000,886.000,876.000,860.000,879.000,848.000
3466.765,881.000,877.000,867.000,864.000,861.000,862.000,864.000,847.000,889.000,870.000
3468.048,870.000,872.000,858.000,883.000,883.000,866.000,871.000,874.000,859.000,881.000
3469.332,878.000,857.000,871.000,861.000,871.000,882.000,876.000,868.000,864.000,879.000
3470.615,859.000,880.000,855.000,873.000,871.000,879.000,854.000,883.000,871.000,883.000
3471.898,883.000,873.000,870.000,866.000,862.000,859.000,883.000,859.000,860.000,870.000
3473.181,876.000,874.000,877.000,889.000,859.000,871.000,867.000,857.000,874.000,859.000
3474.464,874.000,869.000,871.000,883.000,854.000,863.000,871.000,878.000,885.000,859.000
3475.746,883.000,859.000,880.000,873.000,863.000,869.000,844.000,869.000,859.000,879.000
3477.028,872.000,865.000,872.000,867.000,889.000,868.000,890.000,887.000,887.000,856.000
3478.310,857.000,868.000,867.000,860.000,868.000,871.000,880.000,876.000,872.000,868.000
3479.592,882.000,848.000,864.000,868.000,864.000,862.000,872.000,854.000,865.000,855.000
3480.875,873.000,877.000,869.000,866.000,867.000,854.000,875.000,880.000,876.000,879.000
3482.156,880.000,873.000,877.000,890.000,882.000,870.000,859.000,873.000,881.000,862.000
3483.438,894.000,881.000,862.000,871.000,854.000,871.000,870.000,874.000,888.000,865.000
3484.718,873.000,855.000,864.000,875.000,876.000,882.000,849.000,862.000,860.000,864.000
3485.999,863.000,878.000,859.000,871.000,878.000,891.000,868.000,860.000,842.000,878.000
3487.280,866.000,881.000,881.000,862.000,866.000,885.000,885.000,858.000,855.000,866.000
3488.560,864.000,870.000,872.000,876.000,884.000,883.000,868.000,875.000,874.000,884.000
3489.840,866.000,864.000,864.000,870.000,872.000,873.000,872.000,860.000,872.000,875.000
3491.120,875.000,840.000,870.000,882.000,870.000,867.000,853.000,870.000,864.000,859.000
3492.399,856.000,869.000,879.000,885.000,860.000,855.000,841.000,861.000,862.000,885.000
3493.679,880.000,871.000,872.000,886.000,877.000,877.000,869.000,878.000,886.000,869.000
3494.958,859.000,859.000,850.000,873.000,869.000,855.000,860.000,874.000,870.000,881.000
3496.237,858.000,878.000,879.000,864.000,866.000,853.000,868.000,859.000,874.000,882.000
3497.517,868.000,851.000,870.000,862.000,877.000,865.000,867.000,869.000,865.000,867.000
3498.796,858.000,876.000,893.000,874.000,876.000,885.000,863.000,870.000,868.000,872.000
3500.074,865.000,872.000,875.000,863.000,866.000,870.000,854.000,864.000,895.000,880.000
3501.352,851.000,854.000,855.000,848.000,873.000,869.000,872.000,852.000,848.000,850.000
3502.630,872.000,868.000,869.000,846.000,858.000,859.000,866.000,869.000,866.000,851.000
3503.908,873.000,872.000,878.000,864.000,870.000,867.000,875.000,871.000,859.000,861.000
3505.185,861.000,876.000,869.000,870.000,856.000,876.000,858.000,870.000,882.000,858.000
3506.463,879.000,869.000,876.000,888.000,860.000,873.000,864.000,870.000,861.000,884.000
3507.740,883.000,868.000,884.000,859.000,873.000,855.000,875.000,870.000,872.000,870.000
3509.017,868.000,876.000,865.000,873.000,876.000,869.000,852.000,859.000,866.000,884.000
3510.293,862.000,875.000,872.000,862.000,858.000,871.000,856.000,890.000,869.000,875.000
3511.570,872.000,889.000,870.000,873.000,882.000,878.000,858.000,844.000,883.000,874.000
3512.847,867.000,872.000,866.000,884.000,875.000,871.000,874.000,858.000,871.000,889.000
3514.123,870.000,876.000,874.000,865.000,863.000,876.000,867.000,865.000,870.000,873.000
3515.399,855.000,879.000,854.000,866.000,882.000,863.000,866.000,881.000,867.000,868.000
3516.675,871.000,880.000,872.000,876.000,872.000,878.000,885.000,876.000,862.000,869.000
3517.950,861.000,873.000,868.000,875.000,861.000,869.000,874.000,860.000,860.000,870.000
3519.225,874.000,870.000,883.000,852.000,863.000,869.000,875.000,878.000,875.000,882.000
3520.500,894.000,877.000,854.000,871.000,887.000,876.000,874.000,868.000,874.000,860.000
3521.775,886.000,888.000,865.000,871.000,870.000,862.000,876.000,877.000,870.000,868.000
3523.049,866.000,870.000,847.000,859.000,856.000,857.000,863.000,877.000,864.000,880.000
3524.324,864.000,857.000,860.000,869.000,857.000,870.000,873.000,860.000,888.000,863.000
3525.598,867.000,872.000,866.000,884.000,866.000,858.000,858.000,876.000,866.000,863.000
3526.871,870.000,862.000,877.000,857.000,866.000,871.000,879.000,866.000,887.000,866.000
3528.147,858.000,848.000,866.000,870.000,870.000,871.000,857.000,867.000,849.000,861.000
3529.420,854.000,868.000,897.000,856.000,871.000,866.000,851.000,851.000,870.000,878.000
3530.693,873.000,868.000,863.000,873.000,863.000,876.000,864.000,864.000,855.000,891.000
3531.966,849.000,872.000,870.000,857.000,872.000,882.000,855.000,862.000,872.000,853.000
3533.239,853.000,860.000,872.000,868.000,869.000,872.000,865.000,856.000,870.000,843.000
3534.512,866.000,861.000,887.000,877.000,872.000,870.000,859.000,878.000,881.000,860.000
3535.784,876.000,862.000,873.000,856.000,857.000,879.000,875.000,874.000,872.000,871.000
3537.056,851.000,858.000,857.000,868.000,874.000,876.000,877.000,851.000,871.000,873.000
3538.328,867.000,868.000,873.000,861.000,869.000,888.000,871.000,870.000,862.000,854.000
3539.600,862.000,876.000,864.000,868.000,868.000,874.000,860.000,872.000,867.000,864.000
3540.871,870.000,860.000,869.000,868.000,848.000,867.000,861.000,861.000,889.000,852.000
3542.143,867.000,847.000,855.000,876.000,859.000,867.000,868.000,866.000,868.000,868.000
3543.415,859.000,862.000,864.000,853.000,865.000,856.000,878.000,863.000,853.000,862.000
3544.686,861.000,872.000,873.000,881.000,853.000,853.000,884.000,872.000,861.000,868.000
3545.957,851.000,878.000,867.000,877.000,888.000,868.000,862.000,853.000,860.000,862.000
3547.227,851.000,877.000,874.000,874.000,878.000,848.000,869.000,861.000,866.000,867.000
3548.498,858.000,874.000,868.000,853.000,870.000,884.000,868.000,880.000,864.000,865.000
3549.768,840.000,862.000,858.000,858.000,868.000,864.000,864.000,870.000,861.000,872.000
3551.037,857.000,844.000,861.000,868.000,865.000,855.000,875.000,869.000,864.000,868.000
3552.307,861.000,857.000,860.000,871.000,856.000,877.000,862.000,870.000,878.000,878.000
3553.577,866.000,870.000,872.000,860.000,865.000,869.000,870.000,861.000,871.000,845.000
3554.846,851.000,855.000,883.000,858.000,866.000,857.000,871.000,866.000,876.000,867.000
3556.115,863.000,851.000,874.000,866.000,865.000,868.000,855.000,863.000,849.000,878.000
3557.383,851.000,886.000,862.000,862.000,859.000,876.000,860.000,855.000,882.000,865.000
3558.653,866.000,858.000,871.000,866.000,889.000,862.000,863.000,869.000,882.000,886.000
3559.922,860.000,863.000,873.000,864.000,864.000,866.000,871.000,889.000,849.000,864.000
3561.190,853.000,865.000,875.000,889.000,878.000,875.000,867.000,855.000,871.000,858.000
3562.458,865.000,863.000,861.000,868.000,895.000,872.000,866.000,861.000,881.000,857.000
3563.726,878.000,844.000,872.000,872.000,872.000,885.000,875.000,875.000,863.000,856.000
3564.993,871.000,868.000,876.000,872.000,860.000,864.000,869.000,881.000,878.000,887.000
3566.260,852.000,867.000,872.000,867.000,854.000,871.000,874.000,873.000,865.000,859.000
3567.528,858.000,857.000,873.000,867.000,865.000,866.000,867.000,855.000,874.000,866.000
3568.794,854.000,863.000,867.000,872.000,884.000,861.000,868.000,865.000,864.000,865.000
3570.061,855.000,870.000,870.000,866.000,868.000,873.000,867.000,871.000,874.000,864.000
3571.328,877.000,876.000,871.000,864.000,862.000,876.000,867.000,872.000,890.000,886.000
3572.594,870.000,876.000,864.000,878.000,874.000,878.000,858.000,851.000,865.000,876.000
3573.861,862.000,871.000,861.000,868.000,872.000,867.000,861.000,875.000,863.000,876.000
3575.127,836.000,862.000,853.000,865.000,878.000,863.000,882.000,876.000,875.000,861.000
3576.393,867.000,870.000,877.000,865.000,868.000,885.000,876.000,854.000,859.000,872.000
3577.658,859.000,881.000,860.000,867.000,867.000,875.000,863.000,878.000,854.000,863.000
3578.923,866.000,883.000,859.000,853.000,865.000,869.000,872.000,880.000,863.000,871.000
3580.188,840.000,874.000,853.000,863.000,863.000,874.000,862.000,861.000,853.000,869.000
3581.453,850.000,862.000,853.000,863.000,859.000,888.000,845.000,878.000,877.000,850.000
3582.718,864.000,850.000,852.000,864.000,860.000,868.000,847.000,875.000,880.000,877.000
3583.982,875.000,867.000,882.000,882.000,853.000,863.000,874.000,867.000,878.000,880.000
3585.246,864.000,861.000,854.000,864.000,871.000,853.000,868.000,858.000,860.000,861.000
3586.510,854.000,857.000,875.000,852.000,881.000,874.000,860.000,866.000,871.000,876.000
3587.774,862.000,854.000,856.000,877.000,881.000,862.000,848.000,850.000,880.000,888.000
3589.039,864.000,858.000,851.000,867.000,860.000,861.000,868.000,865.000,857.000,883.000
3590.302,860.000,849.000,856.000,859.000,869.000,862.000,872.000,854.000,853.000,861.000
3591.565,864.000,856.000,877.000,862.000,860.000,855.000,854.000,871.000,864.000,876.000
3592.828,873.000,860.000,844.000,861.000,875.000,866.000,870.000,871.000,852.000,851.000
3594.091,857.000,868.000,861.000,874.000,867.000,863.000,859.000,861.000,864.000,865.000
3595.353,867.000,863.000,859.000,859.000,861.000,860.000,877.000,856.000,855.000,859.000
3596.615,861.000,859.000,856.000,872.000,853.000,865.000,869.000,846.000,861.000,867.000
3597.877,870.000,874.000,863.000,855.000,851.000,870.000,859.000,877.000,878.000,864.000
3599.139,863.000,845.000,869.000,872.000,881.000,887.000,874.000,864.000,867.000,860.000
3600.401,873.000,865.000,869.000,862.000,868.000,874.000,881.000,874.000,870.000,869.000
3601.662,844.000,856.000,862.000,867.000,871.000,857.000,855.000,860.000,868.000,863.000
3602.924,852.000,849.000,860.000,859.000,858.000,866.000,860.000,872.000,838.000,862.000
3604.186,854.000,873.000,884.000,883.000,861.000,894.000,859.000,870.000,879.000,846.000
3605.447,867.000,868.000,852.000,865.000,873.000,854.000,855.000,854.000,852.000,859.000
3606.707,880.000,857.000,843.000,842.000,858.000,846.000,853.000,857.000,857.000,866.000
3607.968,859.000,867.000,851.000,867.000,853.000,851.000,875.000,867.000,852.000,868.000
3609.228,854.000,850.000,851.000,865.000,873.000,870.000,873.000,852.000,868.000,865.000
3610.488,854.000,875.000,854.000,864.000,862.000,865.000,849.000,852.000,854.000,859.000
3611.748,866.000,860.000,845.000,858.000,868.000,858.000,857.000,853.000,869.000,864.000
3613.007,870.000,858.000,865.000,851.000,860.000,855.000,851.000,881.000,845.000,864.000
3614.266,864.000,859.000,867.000,874.000,873.000,855.000,871.000,857.000,849.000,865.000
3615.526,846.000,881.000,866.000,860.000,859.000,874.000,846.000,861.000,857.000,866.000
3616.784,853.000,870.000,851.000,871.000,864.000,846.000,843.000,863.000,851.000,878.000
3618.043,857.000,863.000,855.000,859.000,858.000,875.000,868.000,865.000,855.000,870.000
3619.303,877.000,856.000,870.000,866.000,848.000,857.000,876.000,883.000,863.000,859.000
3620.561,863.000,872.000,866.000,858.000,875.000,873.000,862.000,865.000,848.000,843.000
3621.819,867.000,877.000,855.000,855.000,864.000,876.000,871.000,850.000,874.000,875.000
3623.077,867.000,864.000,877.000,865.000,876.000,858.000,845.000,858.000,862.000,850.000
3624.335,864.000,861.000,871.000,858.000,862.000,866.000,850.000,869.000,871.000,858.000
3625.592,864.000,877.000,872.000,883.000,862.000,843.000,853.000,849.000,853.000,856.000
3626.850,865.000,865.000,859.000,865.000,863.000,854.000,862.000,872.000,852.000,854.000
3628.107,872.000,874.000,867.000,874.000,863.000,854.000,866.000,876.000,852.000,870.000
3629.364,867.000,871.000,867.000,858.000,855.000,866.000,866.000,853.000,860.000,848.000
3630.620,868.000,857.000,846.000,872.000,856.000,862.000,855.000,865.000,852.000,854.000
3631.877,859.000,868.000,848.000,851.000,857.000,864.000,844.000,842.000,861.000,875.000
3633.133,851.000,878.000,854.000,865.000,853.000,852.000,858.000,855.000,873.000,854.000
3634.389,858.000,877.000,874.000,877.000,864.000,883.000,849.000,863.000,877.000,852.000
3635.646,859.000,845.000,840.000,876.000,859.000,872.000,862.000,867.000,857.000,853.000
3636.901,863.000,857.000,851.000,850.000,851.000,843.000,861.000,863.000,851.000,872.000
3638.157,875.000,881.000,870.000,845.000,882.000,872.000,883.000,857.000,849.000,865.000
3639.412,867.000,867.000,868.000,878.000,861.000,863.000,851.000,864.000,856.000,854.000
3640.667,863.000,864.000,860.000,867.000,856.000,858.000,866.000,850.000,865.000,844.000
3641.922,860.000,863.000,861.000,862.000,877.000,855.000,869.000,847.000,851.000,874.000
3643.176,856.000,876.000,852.000,853.000,864.000,857.000,853.000,866.000,864.000,858.000
3644.431,851.000,855.000,864.000,869.000,872.000,854.000,869.000,877.000,863.000,871.000
3645.685,871.000,855.000,852.000,867.000,853.000,867.000,861.000,868.000,863.000,836.000
3646.939,857.000,867.000,866.000,876.000,863.000,865.000,853.000,868.000,854.000,866.000
3648.192,882.000,867.000,864.000,866.000,871.000,867.000,857.000,872.000,867.000,873.000
3649.447,855.000,857.000,859.000,877.000,861.000,851.000,860.000,845.000,871.000,854.000
3650.701,864.000,862.000,875.000,861.000,873.000,855.000,863.000,866.000,859.000,875.000
3651.954,845.000,850.000,857.000,846.000,870.000,868.000,843.000,863.000,867.000,872.000
3653.206,870.000,859.000,858.000,863.000,860.000,851.000,857.000,869.000,861.000,849.000
3654.459,869.000,865.000,863.000,874.000,877.000,857.000,848.000,852.000,872.000,844.000
3655.712,881.000,855.000,852.000,866.000,855.000,849.000,856.000,862.000,878.000,859.000
3656.964,855.000,860.000,866.000,851.000,877.000,859.000,860.000,858.000,861.000,855.000
3658.216,849.000,869.000,859.000,858.000,872.000,877.000,856.000,856.000,854.000,868.000
3659.468,852.000,858.000,863.000,864.000,875.000,855.000,875.000,861.000,867.000,871.000
3660.719,855.000,871.000,870.000,864.000,866.000,862.000,853.000,852.000,863.000,873.000
3661.971,862.000,863.000,853.000,872.000,863.000,853.000,873.000,874.000,875.000,857.000
3663.222,847.000,849.000,863.000,856.000,864.000,866.000,858.000,837.000,875.000,863.000
3664.473,859.000,862.000,856.000,863.000,871.000,853.000,857.000,866.000,857.000,854.000
3665.725,859.000,853.000,855.000,850.000,872.000,859.000,859.000,874.000,864.000,865.000
3666.976,852.000,855.000,867.000,854.000,866.000,848.000,868.000,863.000,862.000,864.000
3668.226,842.000,871.000,888.000,860.000,851.000,853.000,887.000,859.000,872.000,873.000
3669.476,850.000,857.000,863.000,850.000,849.000,875.000,861.000,835.000,855.000,858.000
3670.726,844.000,865.000,859.000,861.000,855.000,873.000,873.000,866.000,867.000,871.000
3671.976,848.000,857.000,867.000,855.000,856.000,854.000,857.000,863.000,842.000,859.000
3673.226,857.000,851.000,848.000,882.000,878.000,850.000,854.000,847.000,866.000,872.000
3674.475,844.000,854.000,860.000,863.000,851.000,843.000,865.000,871.000,870.000,852.000
3675.724,875.000,872.000,871.000,863.000,857.000,855.000,867.000,881.000,866.000,856.000
3676.973,854.000,885.000,859.000,867.000,856.000,865.000,875.000,855.000,866.000,850.000
3678.222,860.000,873.000,865.000,858.000,854.000,856.000,865.000,889.000,857.000,856.000
3679.472,851.000,851.000,863.000,870.000,856.000,840.000,883.000,876.000,855.000,867.000
3680.720,856.000,862.000,858.000,853.000,862.000,859.000,871.000,872.000,866.000,851.000
3681.968,856.000,836.000,847.000,843.000,858.000,872.000,851.000,859.000,850.000,847.000
3683.216,873.000,860.000,852.000,863.000,849.000,861.000,865.000,863.000,874.000,863.000
3684.464,846.000,859.000,857.000,867.000,861.000,863.000,859.000,857.000,866.000,869.000
3685.711,856.000,864.000,872.000,843.000,866.000,845.000,876.000,862.000,847.000,860.000
3686.959,851.000,865.000,858.000,859.000,863.000,840.000,860.000,865.000,850.000,873.000
3688.206,861.000,854.000,846.000,866.000,843.000,865.000,882.000,857.000,863.000,849.000
3689.453,846.000,853.000,859.000,864.000,868.000,870.000,878.000,855.000,867.000,864.000
3690.699,879.000,863.000,861.000,871.000,863.000,859.000,865.000,859.000,861.000,856.000
3691.946,876.000,862.000,852.000,869.000,858.000,848.000,851.000,865.000,855.000,865.000
3693.192,865.000,851.000,873.000,852.000,872.000,891.000,860.000,861.000,849.000,855.000
3694.438,855.000,845.000,860.000,866.000,868.000,864.000,862.000,859.000,869.000,877.000
3695.685,872.000,861.000,864.000,867.000,860.000,863.000,841.000,863.000,881.000,859.000
3696.931,857.000,855.000,880.000,864.000,860.000,859.000,860.000,861.000,868.000,873.000
3698.177,861.000,852.000,870.000,856.000,864.000,855.000,859.000,855.000,832.000,857.000
3699.422,874.000,855.000,846.000,857.000,851.000,839.000,873.000,864.000,860.000,867.000
3700.667,862.000,874.000,868.000,862.000,876.000,858.000,858.000,850.000,869.000,854.000
3701.912,875.000,862.000,864.000,868.000,864.000,853.000,850.000,856.000,851.000,855.000
3703.156,850.000,857.000,855.000,867.000,850.000,854.000,875.000,871.000,865.000,854.000
3704.401,869.000,846.000,878.000,854.000,863.000,856.000,865.000,861.000,848.000,863.000
3705.645,855.000,871.000,845.000,871.000,857.000,863.000,855.000,857.000,856.000,863.000
3706.889,869.000,866.000,866.000,868.000,855.000,864.000,852.000,858.000,860.000,854.000
3708.133,868.000,863.000,867.000,867.000,873.000,858.000,879.000,874.000,875.000,859.000
3709.378,848.000,880.000,855.000,867.000,857.000,860.000,848.000,865.000,871.000,885.000
3710.621,856.000,864.000,858.000,841.000,865.000,861.000,851.000,857.000,857.000,863.000
3711.864,871.000,866.000,862.000,854.000,873.000,857.000,862.000,863.000,850.000,864.000
3713.107,843.000,853.000,861.000,863.000,861.000,855.000,834.000,863.000,867.000,868.000
3714.350,846.000,859.000,848.000,866.000,864.000,877.000,880.000,864.000,874.000,870.000
3715.593,852.000,863.000,858.000,858.000,845.000,865.000,847.000,868.000,856.000,860.000
3716.835,843.000,852.000,847.000,859.000,856.000,860.000,880.000,854.000,870.000,851.000
3718.077,850.000,873.000,860.000,860.000,868.000,848.000,889.000,866.000,865.000,847.000
3719.319,859.000,847.000,858.000,868.000,855.000,869.000,865.000,879.000,851.000,858.000
3720.561,845.000,875.000,860.000,878.000,854.000,867.000,858.000,865.000,849.000,854.000
3721.802,852.000,852.000,876.000,864.000,858.000,858.000,876.000,867.000,869.000,862.000
3723.044,871.000,883.000,873.000,866.000,860.000,867.000,840.000,856.000,860.000,861.000
3724.285,864.000,860.000,866.000,857.000,875.000,854.000,865.000,869.000,861.000,867.000
3725.527,874.000,862.000,849.000,864.000,869.000,871.000,858.000,867.000,874.000,860.000
3726.768,847.000,864.000,865.000,855.000,861.000,848.000,834.000,870.000,852.000,861.000
3728.008,851.000,852.000,871.000,852.000,865.000,853.000,862.000,855.000,849.000,859.000
3729.249,853.000,858.000,844.000,857.000,861.000,846.000,865.000,867.000,849.000,871.000
3730.489,849.000,863.000,858.000,883.000,858.000,860.000,859.000,850.000,866.000,858.000
3731.729,870.000,868.000,874.000,865.000,859.000,884.000,864.000,876.000,862.000,887.000
3732.969,838.000,882.000,840.000,864.000,867.000,871.000,861.000,875.000,851.000,848.000
3734.208,863.000,861.000,859.000,864.000,867.000,873.000,859.000,862.000,869.000,859.000
3735.447,864.000,839.000,851.000,858.000,853.000,864.000,863.000,868.000,863.000,851.000
3736.686,849.000,857.000,860.000,881.000,877.000,861.000,872.000,866.000,867.000,861.000
3737.925,854.000,859.000,871.000,851.000,860.000,862.000,860.000,851.000,861.000,859.000
3739.165,842.000,848.000,854.000,862.000,874.000,863.000,861.000,862.000,861.000,857.000
3740.404,855.000,883.000,875.000,850.000,853.000,860.000,854.000,855.000,865.000,858.000
3741.642,852.000,874.000,882.000,866.000,871.000,863.000,850.000,852.000,859.000,874.000
3742.880,851.000,864.000,877.000,863.000,860.000,863.000,865.000,873.000,855.000,881.000
3744.118,861.000,871.000,876.000,875.000,844.000,849.000,872.000,851.000,866.000,844.000
3745.356,864.000,861.000,872.000,850.000,877.000,870.000,864.000,844.000,852.000,863.000
3746.593,858.000,867.000,869.000,875.000,863.000,874.000,866.000,867.000,876.000,861.000
3747.831,869.000,852.000,851.000,866.000,863.000,862.000,867.000,859.000,867.000,851.000
3749.068,857.000,863.000,863.000,857.000,876.000,870.000,868.000,870.000,863.000,860.000
3750.304,828.000,847.000,861.000,876.000,853.000,857.000,869.000,854.000,870.000,866.000
3751.541,861.000,871.000,869.000,854.000,870.000,867.000,859.000,861.000,858.000,850.000
3752.778,859.000,859.000,871.000,850.000,867.000,870.000,858.000,861.000,867.000,862.000
3754.014,850.000,857.000,861.000,865.000,869.000,862.000,856.000,872.000,876.000,862.000
3755.251,857.000,841.000,881.000,854.000,863.000,865.000,863.000,845.000,859.000,866.000
3756.487,855.000,874.000,859.000,861.000,861.000,870.000,848.000,856.000,864.000,878.000
3757.723,857.000,871.000,847.000,866.000,865.000,859.000,867.000,878.000,865.000,875.000
3758.958,855.000,872.000,867.000,856.000,849.000,867.000,858.000,871.000,847.000,863.000
3760.193,844.000,862.000,867.000,854.000,875.000,850.000,856.000,865.000,859.000,866.000
3761.428,848.000,854.000,891.000,860.000,862.000,859.000,861.000,859.000,852.000,866.000
3762.663,859.000,862.000,850.000,851.000,880.000,865.000,852.000,871.000,842.000,878.000
3763.898,844.000,855.000,877.000,870.000,858.000,867.000,864.000,863.000,871.000,859.000
3765.132,861.000,866.000,877.000,871.000,854.000,876.000,861.000,859.000,872.000,868.000
3766.367,855.000,855.000,870.000,838.000,859.000,867.000,870.000,855.000,856.000,847.000
3767.601,857.000,874.000,861.000,869.000,879.000,878.000,862.000,868.000,849.000,856.000
3768.836,864.000,846.000,865.000,844.000,851.000,871.000,829.000,872.000,864.000,855.000
3770.069,867.000,870.000,863.000,871.000,872.000,878.000,863.000,850.000,855.000,863.000
3771.303,866.000,845.000,846.000,858.000,862.000,853.000,845.000,856.000,866.000,869.000
3772.536,856.000,863.000,876.000,861.000,884.000,864.000,870.000,853.000,855.000,864.000
3773.769,856.000,861.000,854.000,866.000,856.000,872.000,863.000,871.000,846.000,870.000
3775.002,844.000,851.000,874.000,858.000,853.000,838.000,882.000,868.000,865.000,885.000
3776.234,859.000,863.000,855.000,867.000,866.000,868.000,863.000,855.000,864.000,867.000
3777.467,859.000,849.000,863.000,868.000,848.000,874.000,856.000,861.000,877.000,864.000
3778.699,852.000,863.000,849.000,860.000,863.000,861.000,850.000,868.000,869.000,861.000
3779.931,866.000,857.000,864.000,859.000,852.000,869.000,871.000,844.000,859.000,857.000
3781.163,857.000,856.000,850.000,861.000,866.000,858.000,854.000,864.000,859.000,850.000
3782.394,863.000,866.000,863.000,861.000,875.000,874.000,855.000,864.000,863.000,856.000
3783.626,863.000,859.000,845.000,851.000,857.000,876.000,869.000,864.000,866.000,867.000
3784.858,862.000,838.000,845.000,870.000,849.000,875.000,851.000,837.000,861.000,846.000
3786.089,858.000,877.000,862.000,868.000,875.000,872.000,868.000,865.000,849.000,870.000
3787.320,847.000,881.000,860.000,860.000,862.000,858.000,883.000,866.000,883.000,857.000
3788.551,874.000,867.000,867.000,868.000,872.000,883.000,858.000,860.000,867.000,854.000
3789.781,870.000,854.000,848.000,856.000,866.000,869.000,849.000,867.000,868.000,857.000
3791.011,864.000,856.000,851.000,866.000,884.000,868.000,867.000,855.000,874.000,868.000
3792.241,854.000,888.000,846.000,876.000,873.000,882.000,856.000,859.000,855.000,861.000
3793.471,847.000,853.000,860.000,856.000,857.000,860.000,865.000,870.000,857.000,877.000
3794.701,869.000,872.000,859.000,866.000,863.000,853.000,866.000,871.000,845.000,860.000
3795.930,878.000,862.000,850.000,849.000,855.000,868.000,863.000,851.000,873.000,874.000
3797.159,860.000,870.000,850.000,879.000,849.000,851.000,850.000,861.000,871.000,866.000
3798.389,869.000,867.000,856.000,867.000,853.000,858.000,862.000,876.000,867.000,855.000
3799.618,868.000,861.000,863.000,839.000,885.000,854.000,866.000,863.000,864.000,871.000
3800.847,859.000,879.000,853.000,862.000,859.000,867.000,867.000,885.000,878.000,860.000
3802.075,865.000,852.000,873.000,860.000,846.000,854.000,843.000,850.000,874.000,863.000
3803.303,838.000,867.000,875.000,859.000,863.000,873.000,856.000,865.000,864.000,869.000
3804.531,869.000,850.000,863.000,860.000,875.000,875.000,861.000,866.000,857.000,868.000
3805.759,856.000,863.000,859.000,873.000,873.000,869.000,862.000,884.000,875.000,888.000
3806.987,842.000,851.000,862.000,871.000,866.000,860.000,872.000,858.000,864.000,870.000
3808.214,861.000,862.000,864.000,865.000,863.000,863.000,867.000,863.000,857.000,872.000
3809.441,855.000,867.000,871.000,869.000,859.000,852.000,878.000,868.000,857.000,894.000
3810.668,856.000,875.000,870.000,874.000,866.000,870.000,868.000,861.000,875.000,842.000
3811.895,849.000,862.000,864.000,878.000,872.000,876.000,875.000,872.000,879.000,867.000
3813.121,866.000,862.000,872.000,844.000,869.000,858.000,865.000,873.000,851.000,874.000
3814.349,872.000,858.000,889.000,859.000,858.000,862.000,886.000,863.000,856.000,868.000
3815.575,843.000,876.000,866.000,875.000,859.000,869.000,883.000,871.000,863.000,881.000
3816.801,866.000,855.000,876.000,864.000,867.000,859.000,873.000,863.000,868.000,872.000
3818.027,840.000,873.000,873.000,852.000,863.000,874.000,860.000,867.000,878.000,853.000
3819.252,848.000,858.000,872.000,864.000,862.000,870.000,854.000,875.000,863.000,858.000
3820.478,858.000,868.000,868.000,879.000,876.000,883.000,869.000,855.000,879.000,873.000
3821.703,866.000,863.000,863.000,864.000,872.000,857.000,874.000,875.000,862.000,859.000
3822.928,856.000,873.000,861.000,860.000,881.000,863.000,861.000,868.000,866.000,878.000
3824.153,882.000,884.000,865.000,874.000,876.000,859.000,882.000,887.000,878.000,861.000
3825.377,863.000,878.000,864.000,866.000,872.000,863.000,868.000,886.000,866.000,863.000
3826.602,873.000,862.000,855.000,858.000,879.000,872.000,862.000,890.000,876.000,877.000
3827.827,861.000,886.000,879.000,872.000,872.000,869.000,872.000,869.000,879.000,884.000
3829.051,878.000,884.000,872.000,860.000,882.000,868.000,870.000,866.000,870.000,882.000
3830.275,871.000,877.000,869.000,883.000,884.000,874.000,869.000,882.000,877.000,888.000
3831.498,868.000,863.000,887.000,888.000,866.000,868.000,891.000,893.000,891.000,859.000
3832.722,874.000,868.000,897.000,863.000,887.000,877.000,896.000,886.000,883.000,878.000
3833.945,865.000,891.000,898.000,880.000,886.000,857.000,895.000,871.000,882.000,881.000
3835.168,871.000,873.000,865.000,872.000,877.000,876.000,864.000,899.000,882.000,884.000
3836.391,870.000,870.000,874.000,867.000,893.000,882.000,881.000,875.000,867.000,876.000
3837.613,880.000,890.000,897.000,899.000,878.000,901.000,857.000,855.000,878.000,887.000
3838.835,883.000,895.000,901.000,889.000,884.000,886.000,877.000,870.000,860.000,891.000
3840.058,872.000,889.000,878.000,870.000,895.000,897.000,859.000,877.000,896.000,887.000
3841.280,877.000,870.000,884.000,889.000,884.000,897.000,876.000,894.000,882.000,881.000
3842.501,879.000,886.000,905.000,884.000,888.000,898.000,895.000,881.000,891.000,884.000
3843.724,885.000,899.000,862.000,894.000,887.000,878.000,875.000,894.000,886.000,880.000
3844.946,888.000,877.000,895.000,888.000,871.000,886.000,891.000,893.000,880.000,893.000
3846.167,886.000,894.000,915.000,891.000,901.000,885.000,895.000,883.000,891.000,899.000
3847.388,887.000,895.000,880.000,892.000,876.000,883.000,899.000,882.000,884.000,883.000
3848.608,884.000,890.000,883.000,892.000,900.000,883.000,897.000,898.000,913.000,913.000
3849.829,895.000,898.000,892.000,911.000,901.000,918.000,896.000,892.000,891.000,904.000
