################################################################################
# Data 1                                  10_09_2023_0_vd_00010-00011_azimAvg_20degree_vertical.dat
# Data 2                                  2023_10_26_0_vd_00008-00009_azimAvg_20degree_vertical.dat
# Transmission                            0.6904818033328525
# Weight                                  0.9157955371613545
# Smart_subtraction                       True
# Enhanced_transmission_correction        True
# EDF_DataBlockID                         0.Image.Psd
# EDF_BinarySize                          4637784
# EDF_HeaderSize                          3072
# ByteOrder                               LowByteFirst
# DataType                                FloatValue
# Dim_1                                   1038
# Dim_2                                   1117
# Image                                   0
# HeaderID                                EH:000000:000000:000000
# Size                                    4637784
# BIO_SYSTEM_CONF_TXT                     WAXSRES
# Center_1                                606.993
# Center_2                                650.993
# Comment                                 BWMajor - BWMajor_WAXS_HI_300s
# DDummy                                  0.6
# Date                                    2023-10-09T15:59:47
# Delta                                   0
# Dummy                                   -1.5
# ExposureTime                            300
# Force                                   9.91088
# Gamma                                   0
# Intensity1                              1.10703e-07
# JawsDistance                            4.54563
# JawsVelocity                            0.358589
# PSize_1                                 7.5e-05
# PSize_2                                 7.5e-05
# Pressure                                0.0926065
# SampleDistance                          0.0500003
# SampleEnvKind                           saxs
# SampleEnvPN                             Solids
# SampleEnvSN                             1012
# Strain                                  0
# Stress                                  0
# Thickness                               0
# Wavelength                              1.541891e-10
# Wavelength                              1.54189e-10
# anaB                                    0
# anaB_dial                               -0.0012015
# anaPark                                 -175.125
# anaPark_dial                            175.169
# anaXi                                   0
# anaXi_dial                              0
# anaZ                                    -9.13123e-08
# anaZ_dial                               6.2299
# aux                                     0
# aux_dial                                -0.000125
# b2c                                     0
# b2c_dial                                0
# beamx                                   603.635
# beamx_dial                              603.635
# beamz                                   653.016
# beamz_dial                              653.016
# bioZ                                    -2.90461e-08
# bioZ_dial                               -0.546695
# det0x                                   0
# det0x_dial                              6.0575
# det0xvd                                 0
# det0xvd_dial                            0
# det0y                                   50.0003
# det0y_dial                              893.512
# det0z                                   0
# det0z_dial                              6.33576
# det0zvd                                 0
# det0zvd_dial                            0
# distana                                 93.4
# distana_dial                            93.4
# mag                                     1.091
# mag_dial                                1.091
# mono1B                                  1.00136e-08
# mono1B_dial                             -0.277
# mono2B                                  1.75476e-07
# mono2B_dial                             -4.366
# mono2X                                  -1
# mono2X_dial                             3.96031
# mono2Xi                                 0
# mono2Xi_dial                            0
# monoZ                                   -11
# monoZ_dial                              -10.6609
# om                                      0
# om_dial                                 0
# phi                                     0
# phi_dial                                -7.01716
# qana                                    0
# qana_dial                               0
# ry                                      0
# ry_dial                                 0.00149998
# s1bot                                   1.45
# s1bot_dial                              -2.02906
# s1hl                                    0.55
# s1hl_dial                               -0.47125
# s1hr                                    1.95
# s1hr_dial                               2.31625
# s1top                                   1.05
# s1top_dial                              1.23391
# s2bot                                   1.2
# s2bot_dial                              -2.09531
# s2hl                                    0.6
# s2hl_dial                               -1.365
# s2hr                                    0.8
# s2hr_dial                               -0.0153125
# s2top                                   0.2
# s2top_dial                              -1.18281
# ttdeg                                   0
# ttdeg_dial                              0
# wind                                    72.0045
# wind_dial                               72.0233
# x                                       -21
# x_dial                                  -20.2903
# z                                       -12.3
# z_dial                                  6.80906
# CountCutoff                             15302352
# DetectorModel                           Dectris EIGER2 Si 1M, S/N E-02-0357
# ThresholdSetting                        4023.88989258
# Saturation                              0
# FlatField                               Corrected
# BackgroundReductionExtra                0.02
# Detector                                0
# Monitor                                 0
# Pil_Roi0                                3.32112e+10
# SumForIntensity1                        3.3211e+10
# det                                     0
# mon                                     0
# pilai0                                  3.3211e+10
# pilai1                                  0
# pilct0                                  3.32112e+10
# pilct1                                  0
# pilroi0                                 3.32112e+10
# pilroi1                                 0
# sec                                     0.099
# title                                   10_09_2023_0_00010.edf
# usaxs0                                  0
# Operation                               Azimuthal average I(q)
# Error_model                             ErrorModel.poisson
# Geometrical_correction                  True
# Transmission_correction                 True
# Psi                                     0.0
# Omega                                   0.0
# TransmittedFlux_init_value              1.10703e+08
# TransmittedFlux                         110700304.57397129
# MaskInvalidPixels                       True
# DetectorEdge                            3
# PsiMin                                  80.0
# PsiMax                                  100.0
# Origin                                  subtracted
# Thickness_correction                    False
################################################################################
 q(A-1)                   I_subtracted(a.u.)         Sigma_I(a.u.)            
       0.021394               -8.60612339               0.103116927           
       0.027506               -19.5574834               0.102939921           
       0.033618                 48.454189               0.101495201           
       0.039731               -15.6119037              0.0965713406           
       0.045843               -177.232782              0.0834393957           
       0.051956               -197.232401              0.0537865177           
       0.058068               -172.177106              0.0378340674           
       0.064181               -45.1771631              0.0311283563           
       0.070293                152.783571              0.0244936935           
       0.076406                154.064179              0.0185214449           
       0.082518                68.4446049              0.0117783818           
       0.088630                 27.775894             0.00579115636           
       0.094743                9.49999382             0.00328465095           
       0.100855                2.17623885              0.0015663656           
       0.106968               0.232597426            0.000518067077           
       0.113080              0.0197085768            0.000159332814           
       0.119193             0.00543445636            8.29276127e-05           
       0.125305             0.00245528035             4.6799598e-05           
       0.131418             0.00075082167            2.70037074e-05           
       0.137530            9.60845663e-05            1.26967015e-05           
       0.143642            4.95565772e-05            9.99010198e-06           
       0.149755            2.64358394e-05             9.0142768e-06           
       0.155867            3.09047928e-05            7.63720943e-06           
       0.161980            2.28766199e-05            6.65726444e-06           
       0.168092            1.71285018e-05            5.26866387e-06           
       0.174205            3.20962823e-05            5.75260622e-06           
       0.180317            1.41604809e-05            4.65128056e-06           
       0.186429            1.36464517e-05             5.1507226e-06           
       0.192542            1.92522212e-05            4.66462751e-06           
       0.198654            1.63587272e-05            4.06015409e-06           
       0.204767            5.55806114e-06            3.99136054e-06           
       0.210879            5.52679379e-06            3.17297328e-06           
       0.216992            1.51099283e-05            3.78781063e-06           
       0.223104            1.09335359e-05            3.71668738e-06           
       0.229217            6.61943849e-06            3.15019436e-06           
       0.235329            4.03608703e-06            2.59178211e-06           
       0.241441            9.42014201e-06            2.69919748e-06           
       0.247554            8.81378638e-06            2.82854695e-06           
       0.253666            9.54495391e-06            2.49195035e-06           
       0.259779            9.15697295e-06            2.28462722e-06           
       0.265891            1.18375108e-05            2.74027634e-06           
       0.272004            1.30590037e-05            2.63477409e-06           
       0.278116             6.9565772e-06            2.14342051e-06           
       0.284229            9.05142937e-06            2.39159705e-06           
       0.290341             1.1551552e-05            2.48543341e-06           
       0.296453            7.65245909e-06            2.36959587e-06           
       0.302566            1.02825161e-05             2.3803848e-06           
       0.308678            1.22684522e-05            2.46381191e-06           
       0.314791            8.33561215e-06            2.06913596e-06           
       0.320903            9.60927362e-06            2.10320699e-06           
       0.327016            8.30048006e-06            2.18155237e-06           
       0.333128            9.69544557e-06            2.26462366e-06           
       0.339241            9.09831303e-06            1.94337708e-06           
       0.345353            1.17869116e-05            2.18326967e-06           
       0.351465            9.27764555e-06             2.1470549e-06           
       0.357578            1.22105902e-05            2.22140486e-06           
       0.363690            7.37432552e-06            1.92462628e-06           
       0.369803            5.67964546e-06            1.77053549e-06           
       0.375915             9.0625616e-06            2.00324568e-06           
       0.382028            6.48767208e-06            1.75709958e-06           
       0.388140            9.76353853e-06            1.96325606e-06           
       0.394253            7.69590359e-06             1.8281365e-06           
       0.400365            1.11670141e-05            2.13584566e-06           
       0.406477            9.86275837e-06            1.90607674e-06           
       0.412590            1.31316129e-05            2.17953915e-06           
       0.418702            8.37187452e-06            1.68562647e-06           
       0.424815            1.28096934e-05            2.14651507e-06           
       0.430927            7.50699547e-06            1.57256624e-06           
       0.437040            1.28642975e-05            2.00649259e-06           
       0.443152            8.27772093e-06            1.60298676e-06           
       0.449264            8.83645432e-06            1.74565443e-06           
       0.455377            1.08874663e-05            1.87050348e-06           
       0.461489            7.38763354e-06            1.54632655e-06           
       0.467602            9.59847335e-06            1.69524176e-06           
       0.473714            1.42442625e-05            2.01592095e-06           
       0.479827            9.14499956e-06            1.66914041e-06           
       0.485939             1.0252918e-05            1.64763566e-06           
       0.492052            8.77029866e-06            1.65480226e-06           
       0.498164            1.02624879e-05            1.67296235e-06           
       0.504276            8.41841474e-06            1.52313162e-06           
       0.510389            7.85302411e-06            1.53752952e-06           
       0.516501            1.19577245e-05            1.65747218e-06           
       0.522614            8.77074562e-06            1.54857333e-06           
       0.528726            1.05279392e-05            1.61041909e-06           
       0.534839            1.03029812e-05            1.66567927e-06           
       0.540951            1.02694156e-05             1.6225753e-06           
       0.547064            1.03234511e-05            1.51524136e-06           
       0.553176            1.28362241e-05            1.77642331e-06           
       0.559288            1.01733547e-05             1.6176603e-06           
       0.565401            9.42431117e-06            1.47320194e-06           
       0.571513            1.38616766e-05            1.80247681e-06           
       0.577626            1.36551404e-05            1.70952662e-06           
       0.583738            1.20539353e-05            1.62343844e-06           
       0.589851            1.10349995e-05            1.57295661e-06           
       0.595963            1.30436905e-05            1.66203032e-06           
       0.602076            1.05381215e-05            1.59517668e-06           
       0.608188            9.90359749e-06             1.5103275e-06           
       0.614300            1.02119952e-05            1.46204617e-06           
       0.620413            1.08670197e-05            1.51865611e-06           
       0.626525            1.20465407e-05            1.60781791e-06           
       0.632638             1.0482908e-05            1.56223084e-06           
       0.638750            1.01137324e-05            1.47373797e-06           
       0.644863             1.2729789e-05            1.62432509e-06           
       0.650975            1.41477229e-05            1.67888285e-06           
       0.657088            1.10358852e-05            1.48051349e-06           
       0.663200            1.30837882e-05             1.6218389e-06           
       0.669312            1.11518744e-05            1.55000545e-06           
       0.675425            1.43883621e-05            1.71910169e-06           
       0.681537            1.07434265e-05            1.45968193e-06           
       0.687650            1.05519664e-05            1.47466823e-06           
       0.693762            1.17408369e-05            1.51694949e-06           
       0.699875             1.0668706e-05            1.45137851e-06           
       0.705987            9.54277343e-06            1.43361718e-06           
       0.712100            1.21957234e-05            1.57787164e-06           
       0.718212            1.52452798e-05             1.6054484e-06           
       0.724324            1.16233594e-05            1.49541918e-06           
       0.730437            1.13347607e-05            1.43257208e-06           
       0.736549            1.25158825e-05            1.42083814e-06           
       0.742662            1.59862644e-05            1.64281525e-06           
       0.748774            1.48299917e-05            1.54264746e-06           
       0.754887            1.46812416e-05            1.56113546e-06           
       0.760999            1.34657816e-05            1.52035307e-06           
       0.767111            1.19019728e-05            1.40445389e-06           
       0.773224            1.28929347e-05            1.50873816e-06           
       0.779336            1.30206001e-05            1.46281997e-06           
       0.785449            1.05201076e-05            1.34623433e-06           
       0.791561            1.12656404e-05            1.42030417e-06           
       0.797674            1.59489561e-05            1.59049348e-06           
       0.803786            1.55268655e-05            1.63241838e-06           
       0.809899            1.50722991e-05            1.59313968e-06           
       0.816011             1.2007599e-05            1.37895095e-06           
       0.822123            1.31104063e-05            1.44131113e-06           
       0.828236            1.08464576e-05            1.35954946e-06           
       0.834348            1.34742928e-05            1.45337028e-06           
       0.840461            1.53702635e-05            1.52896385e-06           
       0.846573             1.5814894e-05            1.57186438e-06           
       0.852686            1.60120952e-05            1.54469944e-06           
       0.858798            1.42840418e-05            1.46204907e-06           
       0.864911             1.3421913e-05             1.4220226e-06           
       0.871023            1.65388043e-05            1.50875991e-06           
       0.877135            1.61461585e-05            1.45710987e-06           
       0.883248            1.35518787e-05            1.44148647e-06           
       0.889360            1.46998091e-05            1.44855507e-06           
       0.895473            1.18794649e-05            1.34930757e-06           
       0.901585            1.48162525e-05            1.47565543e-06           
       0.907698            1.60679741e-05             1.5618603e-06           
       0.913810            1.41629681e-05            1.43221881e-06           
       0.919923            1.47487323e-05            1.46356393e-06           
       0.926035            1.45812344e-05            1.40778162e-06           
       0.932147            1.57841476e-05            1.46993075e-06           
       0.938260            1.21695666e-05            1.30534835e-06           
       0.944372            1.30904443e-05            1.39198798e-06           
       0.950485            1.29506753e-05            1.31890702e-06           
       0.956597            1.56573025e-05            1.51121599e-06           
       0.962710            1.41212426e-05            1.39215424e-06           
       0.968822             1.5023068e-05            1.43168521e-06           
       0.974935            1.61959787e-05            1.40918535e-06           
       0.981047            1.74057963e-05            1.52763866e-06           
       0.987159            1.63634134e-05            1.43640623e-06           
       0.993272            1.68699813e-05            1.46868754e-06           
       0.999384            1.88552855e-05            1.51702062e-06           
       1.005497            1.76257674e-05            1.46666803e-06           
       1.011609            1.53301324e-05            1.43444491e-06           
       1.017722             1.7427208e-05             1.4987246e-06           
       1.023834            1.95004566e-05            1.55186076e-06           
       1.029947            1.79450361e-05            1.51599604e-06           
       1.036059            1.90871057e-05            1.54664951e-06           
       1.042171            1.85515774e-05            1.58529895e-06           
       1.048284            1.84857468e-05            1.49149245e-06           
       1.054396            1.96579354e-05            1.47321649e-06           
       1.060509            1.96520578e-05             1.5010047e-06           
       1.066621            1.89587798e-05            1.47434063e-06           
       1.072734            2.08147549e-05            1.53249444e-06           
       1.078846            1.99868415e-05             1.5371646e-06           
       1.084958            2.01731644e-05            1.49503661e-06           
       1.091071            1.74434634e-05            1.46297382e-06           
       1.097183            2.07320613e-05            1.53478969e-06           
       1.103296            1.90685043e-05             1.4806279e-06           
       1.109408            2.00635849e-05            1.51751941e-06           
       1.115521            2.14194126e-05            1.56239075e-06           
       1.121633            2.05249377e-05             1.5430104e-06           
       1.127746            1.99334187e-05            1.42381493e-06           
       1.133858            2.31111468e-05            1.55226568e-06           
       1.139970            2.29760836e-05            1.58993938e-06           
       1.146083            2.16961313e-05            1.51700299e-06           
       1.152195            2.03533101e-05            1.49890304e-06           
       1.158308            1.96261735e-05            1.52926861e-06           
       1.164420            2.21723664e-05            1.52760315e-06           
       1.170533            2.24286831e-05            1.56023074e-06           
       1.176645            2.19551434e-05             1.6249393e-06           
       1.182758            2.14501724e-05            1.50952247e-06           
       1.188870            2.00293979e-05            1.46293997e-06           
       1.194982            2.43503416e-05            1.58677958e-06           
       1.201095            2.17596626e-05            1.49054717e-06           
       1.207207            2.55774627e-05            1.61491866e-06           
       1.213320            2.47408581e-05            1.60145098e-06           
       1.219432            2.08404365e-05            1.49238049e-06           
       1.225545            2.38046251e-05            1.59174316e-06           
       1.231657            2.20810429e-05            1.53186537e-06           
       1.237770            2.34753727e-05            1.56399363e-06           
       1.243882            2.29652868e-05            1.54769673e-06           
       1.249994            2.33017087e-05            1.43241268e-06           
       1.256107            2.15371828e-05            1.42574838e-06           
       1.262219            2.30224837e-05            1.52434315e-06           
       1.268332            2.56165079e-05            1.62770757e-06           
       1.274444            2.76216053e-05            1.66172651e-06           
       1.280557            2.37078498e-05            1.55629448e-06           
       1.286669            2.50360797e-05            1.59022992e-06           
       1.292782            2.27638693e-05            1.49530737e-06           
       1.298894            2.67532892e-05            1.54031258e-06           
       1.305006            2.72248793e-05            1.58805596e-06           
       1.311119              2.700824e-05            1.60236023e-06           
       1.317231            2.11100266e-05            1.42719945e-06           
       1.323344            2.48438726e-05            1.56582033e-06           
       1.329456            2.61310228e-05            1.59163191e-06           
       1.335569            2.79400996e-05            1.63378105e-06           
       1.341681            2.67852253e-05            1.60916027e-06           
       1.347793            2.76767573e-05            1.49935295e-06           
       1.353906            2.34865914e-05             1.4868115e-06           
       1.360018            2.61175747e-05            1.57845255e-06           
       1.366131            2.61017414e-05            1.52624476e-06           
       1.372243             2.9270827e-05            1.64549483e-06           
       1.378356            2.70802742e-05            1.59980962e-06           
       1.384468            2.51978745e-05            1.55358858e-06           
       1.390581            2.55489144e-05            1.44593145e-06           
       1.396693            2.65198805e-05            1.51571893e-06           
       1.402805            2.80280457e-05            1.55512607e-06           
       1.408918            2.59837834e-05            1.53911305e-06           
       1.415030             2.8270984e-05            1.57861657e-06           
       1.421143             2.7357214e-05            1.58928388e-06           
       1.427255             2.5840804e-05            1.54941107e-06           
       1.433368            2.84372945e-05            1.49129283e-06           
       1.439480            2.63083159e-05            1.51614456e-06           
       1.445593            2.52698158e-05            1.49285006e-06           
       1.451705            2.61510917e-05            1.52252293e-06           
       1.457817            2.92399285e-05            1.59074123e-06           
       1.463930            2.74769255e-05            1.56612804e-06           
       1.470042            2.58548053e-05            1.41808959e-06           
       1.476155            2.93480761e-05            1.55827885e-06           
       1.482267            2.90607981e-05            1.55682077e-06           
       1.488380            2.99049585e-05             1.5718403e-06           
       1.494492            2.74187291e-05            1.53615452e-06           
       1.500605            2.61192063e-05            1.49597586e-06           
       1.506717            2.98646354e-05            1.52474644e-06           
       1.512829            3.06572143e-05            1.56040033e-06           
       1.518942            2.68164264e-05            1.47900058e-06           
       1.525054            2.84794753e-05            1.55453603e-06           
       1.531167            2.61421859e-05             1.4631261e-06           
       1.537279            2.56682898e-05            1.49860623e-06           
       1.543392            2.72176018e-05            1.41620562e-06           
       1.549504            2.55961496e-05            1.40990213e-06           
       1.555617            2.74564854e-05            1.47306215e-06           
       1.561729            3.08966084e-05            1.59198262e-06           
       1.567841            2.47167799e-05            1.43773146e-06           
       1.573954            2.62610046e-05            1.37253624e-06           
       1.580066            2.60907706e-05            1.41191299e-06           
       1.586179            2.46742909e-05            1.38685683e-06           
       1.592291            2.53552659e-05             1.4480378e-06           
       1.598404            2.08717987e-05            1.33935676e-06           
       1.604516            2.27697303e-05            1.29230024e-06           
       1.610629            2.21344218e-05            1.28584074e-06           
       1.616741            2.66907021e-05            1.46739121e-06           
       1.622853            2.63734583e-05            1.42577554e-06           
       1.628966              2.429819e-05            1.40338487e-06           
       1.635078            2.27606581e-05             1.2889986e-06           
       1.641191            2.40076975e-05            1.32082356e-06           
       1.647303            2.49836755e-05            1.37293547e-06           
       1.653416            2.39874045e-05            1.38895999e-06           
       1.659528            2.21925386e-05            1.33912398e-06           
       1.665640            2.33366566e-05            1.25618406e-06           
       1.671753            2.11559084e-05            1.27273159e-06           
       1.677865            2.33290984e-05            1.32641922e-06           
       1.683978            2.29880302e-05            1.36920301e-06           
       1.690090             2.1632025e-05            1.23853268e-06           
       1.696203            2.26111044e-05              1.252333e-06           
       1.702315             2.5177478e-05            1.35253963e-06           
       1.708428            2.36324345e-05            1.34900132e-06           
       1.714540            2.02395589e-05            1.26052116e-06           
       1.720652            2.24220806e-05            1.22001774e-06           
       1.726765             2.1843545e-05            1.24354343e-06           
       1.732877            2.10373257e-05            1.26047516e-06           
       1.738990            2.45669655e-05            1.36856805e-06           
       1.745102            2.13705138e-05            1.21455961e-06           
       1.751215            2.12534215e-05              1.223624e-06           
       1.757327            2.16963471e-05            1.25641555e-06           
       1.763440            2.16491608e-05            1.26728924e-06           
       1.769552            2.27654549e-05            1.21841266e-06           
       1.775664            2.32800007e-05             1.2687848e-06           
       1.781777            2.36450805e-05            1.28868162e-06           
       1.787889            2.11915281e-05            1.25108359e-06           
       1.794002            2.23209319e-05            1.21194487e-06           
       1.800114            2.02489843e-05            1.20232453e-06           
       1.806227            2.39176269e-05            1.30612406e-06           
       1.812339             2.2468431e-05            1.27264434e-06           
       1.818452            2.44144328e-05            1.24111267e-06           
       1.824564            2.56074478e-05            1.31504232e-06           
       1.830676            2.21376186e-05            1.26713801e-06           
       1.836789            2.42751108e-05            1.28848457e-06           
       1.842901            2.51862503e-05            1.24930589e-06           
       1.849014             2.5928988e-05            1.34298594e-06           
       1.855126            2.31226478e-05            1.29198445e-06           
       1.861239            2.25535502e-05            1.20482662e-06           
       1.867351            2.18679525e-05            1.19961945e-06           
       1.873464            2.17981183e-05            1.23082705e-06           
       1.879576            2.52937402e-05            1.31736829e-06           
       1.885688            2.34354699e-05            1.20730518e-06           
       1.891801            2.11323405e-05            1.19350868e-06           
       1.897913            2.31481675e-05            1.26088136e-06           
       1.904026            2.20553959e-05            1.16245933e-06           
       1.910138            2.04639207e-05             1.1648142e-06           
       1.916251            2.17609055e-05            1.20060185e-06           
       1.922363            2.23008227e-05            1.19319363e-06           
       1.928476            2.01424474e-05             1.1228576e-06           
       1.934588            2.11676779e-05            1.19794078e-06           
       1.940700            2.16381922e-05             1.2135005e-06           
       1.946813            1.84190924e-05            1.02211248e-06           
       1.952925            2.15735919e-05            1.20037765e-06           
       1.959038            2.05764903e-05            1.17872262e-06           
       1.965150            1.90870627e-05            1.06193244e-06           
       1.971263            1.78901532e-05            1.08841255e-06           
       1.977375            1.78955988e-05            1.11058501e-06           
       1.983487            1.82085381e-05            1.04528696e-06           
       1.989600            1.66968029e-05            1.03620101e-06           
       1.995712            1.80474284e-05            1.10490659e-06           
       2.001825            1.73950344e-05            1.01258892e-06           
       2.007937            1.98503839e-05            1.10598356e-06           
       2.014050            1.75726171e-05            1.08350097e-06           
       2.020162            1.78301234e-05            1.04349498e-06           
       2.026275            1.95988252e-05             1.0879795e-06           
       2.032387            1.78966081e-05            1.07370155e-06           
       2.038499            1.82445804e-05            1.02471606e-06           
       2.044612            1.78174423e-05            1.08191933e-06           
       2.050724            1.86009482e-05            1.11392212e-06           
       2.056837            1.78227516e-05            9.96114098e-07           
       2.062949            1.68465306e-05            1.04144144e-06           
       2.069062            1.70277587e-05            1.02559209e-06           
       2.075174            1.67874791e-05            9.93257278e-07           
       2.081287            1.68868998e-05            1.03815223e-06           
       2.087399            1.63205326e-05            9.96467124e-07           
       2.093511            1.68040829e-05              1.013561e-06           
       2.099624            1.66796498e-05            1.03501182e-06           
       2.105736            1.73218756e-05            9.96845215e-07           
       2.111849            1.57730352e-05            1.01481484e-06           
       2.117961            1.73595922e-05            1.02637794e-06           
       2.124074            1.58169663e-05            9.64598809e-07           
       2.130186            1.60957807e-05            1.02290818e-06           
       2.136299            1.83080084e-05            1.01434907e-06           
       2.142411            1.82047938e-05            1.05099019e-06           
       2.148523            1.72717801e-05            1.02813097e-06           
       2.154636            1.65260078e-05            9.66708031e-07           
       2.160748            1.73503406e-05            1.03040141e-06           
       2.166861            1.74235081e-05            9.97883185e-07           
       2.172973            1.68164079e-05            1.01445588e-06           
       2.179086            1.61077214e-05             9.8424507e-07           
       2.185198            1.89054136e-05            1.02201237e-06           
       2.191311            1.65185236e-05            1.00108879e-06           
       2.197423            1.72886303e-05            9.66401615e-07           
       2.203535            1.62101203e-05            9.81657583e-07           
       2.209648            1.75233934e-05            9.82401805e-07           
       2.215760            1.42436839e-05            9.36188363e-07           
       2.221873            1.54167787e-05            9.60030471e-07           
       2.227985            1.59948611e-05            9.45743172e-07           
       2.234098            1.77527593e-05            1.02186119e-06           
       2.240210            1.56445546e-05            9.36438759e-07           
       2.246322            1.70593936e-05            1.00950706e-06           
       2.252435             1.6435914e-05            9.44722275e-07           
       2.258547            1.49663501e-05            9.50857698e-07           
       2.264660            1.47997706e-05            9.19946518e-07           
       2.270772            1.56911363e-05            9.45373499e-07           
       2.276885            1.47595836e-05            9.28286411e-07           
       2.282997            1.55349761e-05            9.32187974e-07           
       2.289110            1.58715426e-05            9.84604961e-07           
       2.295222            1.57987476e-05            8.97327493e-07           
       2.301334            1.55892193e-05            9.64369915e-07           
       2.307447            1.44651282e-05            8.71943617e-07           
       2.313559            1.37451666e-05             9.0963789e-07           
       2.319672            1.45985883e-05            8.85412141e-07           
       2.325784            1.57186096e-05            9.58178233e-07           
       2.331897            1.61227393e-05            9.27319703e-07           
       2.338009            1.43308488e-05             9.1549633e-07           
       2.344122            1.50315687e-05            8.74346485e-07           
       2.350234            1.31360588e-05            8.93084603e-07           
       2.356346            1.49077924e-05            8.94944544e-07           
       2.362459            1.40906837e-05            9.18611027e-07           
       2.368571            1.47212079e-05            8.89843356e-07           
       2.374684            1.40178113e-05            8.87459086e-07           
       2.380796            1.34612637e-05            8.36203489e-07           
       2.386909            1.26446648e-05            8.65100578e-07           
       2.393021              1.379304e-05             8.4075579e-07           
       2.399134            1.33530164e-05            8.85785889e-07           
       2.405246            1.37438238e-05            8.52016163e-07           
       2.411358            1.40308097e-05            8.83126202e-07           
       2.417471             1.3632557e-05            8.59431409e-07           
       2.423583            1.30918952e-05            8.45680312e-07           
       2.429696             1.1752934e-05            8.32057606e-07           
       2.435808            1.36207707e-05             8.5752453e-07           
       2.441921            1.36419875e-05            9.79285173e-07           
       2.448033            1.48756796e-05            1.05850401e-06           
       2.454146            1.41817872e-05            1.13825155e-06           
       2.460258            1.26447336e-05            1.08627036e-06           
       2.466370            1.41714842e-05            1.20222878e-06           
       2.472483            1.48544155e-05            1.25769814e-06           
       2.478595            1.49065793e-05            1.22918132e-06           
       2.484708            1.52357251e-05            1.29999259e-06           
       2.490820            1.30071795e-05            1.13801631e-06           
       2.496933            1.27257227e-05            1.16940759e-06           
       2.503045            1.42085232e-05            1.18659503e-06           
       2.509158            1.56898464e-05            1.24767048e-06           
       2.515270            1.24718567e-05            1.14369987e-06           
       2.521382             1.3376901e-05            1.13690131e-06           
       2.527495              1.350442e-05            1.16173389e-06           
       2.533607            1.30962573e-05            1.14496841e-06           
       2.539720            1.22883359e-05            1.11971188e-06           
       2.545832            1.29849666e-05            1.16407298e-06           
       2.551945            1.27446911e-05             1.1274955e-06           
       2.558057            1.28684681e-05            1.13961217e-06           
       2.564169            1.27585714e-05            1.18061717e-06           
       2.570282             1.4834859e-05            1.17408793e-06           
       2.576394            1.16147752e-05            1.09347882e-06           
       2.582507            1.07056956e-05            1.09415774e-06           
       2.588619            1.26622806e-05            1.13361983e-06           
       2.594732            1.22295178e-05            1.09943831e-06           
       2.600844            1.46320438e-05            1.20388068e-06           
       2.606957            1.27795651e-05            1.11495463e-06           
       2.613069            1.45991094e-05            1.20096558e-06           
       2.619181            1.45478992e-05            1.21945031e-06           
       2.625294            1.33746413e-05            1.15165139e-06           
       2.631406            1.32699418e-05            1.14429112e-06           
       2.637519            1.38615697e-05            1.15211863e-06           
       2.643631            1.21995183e-05            1.08169823e-06           
       2.649744            1.41236968e-05              1.174667e-06           
       2.655856            1.27483825e-05            1.14489212e-06           
       2.661969            1.46605291e-05            1.15250801e-06           
       2.668081            1.52874685e-05            1.17836664e-06           
       2.674193            1.35567995e-05            1.14687512e-06           
       2.680306            1.25864733e-05             1.1331049e-06           
       2.686418            1.25309634e-05             1.0926651e-06           
       2.692531             1.2164682e-05             1.0933355e-06           
       2.698643            1.43717461e-05            1.19420837e-06           
       2.704756            1.62519956e-05            1.20657659e-06           
       2.710868            1.27288627e-05            1.10754833e-06           
       2.716981            1.68450906e-05            1.24924664e-06           
       2.723093             1.3965079e-05            1.17362763e-06           
       2.729205            1.61619909e-05            1.20570365e-06           
       2.735318             1.6338683e-05            1.23113542e-06           
       2.741430             1.6884176e-05            1.22490302e-06           
       2.747543            1.64158745e-05            1.25632869e-06           
       2.753655            1.70776151e-05            1.27661904e-06           
       2.759768            1.50975771e-05            1.16262919e-06           
       2.765880            1.51988028e-05            1.17518244e-06           
       2.771993            1.62302524e-05            1.23500277e-06           
       2.778105            1.65186993e-05            1.26272615e-06           
       2.784217             1.6966421e-05             1.2348821e-06           
       2.790330            1.88237876e-05            1.31137493e-06           
       2.796442            1.66053751e-05            1.23145559e-06           
       2.802555            1.66196704e-05              1.208889e-06           
       2.808667            1.97408016e-05            1.34098208e-06           
       2.814780            1.95800881e-05            1.34607029e-06           
       2.820892            1.77568572e-05            1.28297004e-06           
       2.827005            2.02497999e-05            1.33441678e-06           
       2.833117            1.81189812e-05            1.25373838e-06           
       2.839229            1.90308235e-05            1.29724372e-06           
       2.845342            1.79910746e-05            1.30898395e-06           
       2.851454             2.0002417e-05            1.31903665e-06           
       2.857567            1.93357756e-05            1.33622033e-06           
       2.863679            1.85222851e-05            1.28691721e-06           
       2.869792            1.91599188e-05            1.28873616e-06           
       2.875904            2.01962902e-05            1.31990083e-06           
       2.882016            1.98472232e-05            1.31722374e-06           
       2.888129            1.94719004e-05            1.30270076e-06           
       2.894241            2.05123108e-05            1.32300209e-06           
       2.900354            2.03560949e-05            1.31836108e-06           
       2.906466            2.20838463e-05            1.37513952e-06           
       2.912579            2.02205778e-05            1.34080075e-06           
       2.918691            1.93182921e-05            1.29665308e-06           
       2.924804            1.98147003e-05            1.30216801e-06           
       2.930916            2.26416692e-05            1.40095498e-06           
       2.937028            1.95995429e-05            1.30374846e-06           
       2.943141            2.20395013e-05            1.35686479e-06           
       2.949253            2.03275683e-05            1.33212531e-06           
       2.955366            2.21480243e-05            1.34766992e-06           
       2.961478            1.71217015e-05            1.23813607e-06           
       2.967591            2.21116654e-05            1.38412711e-06           
       2.973703            2.39073374e-05            1.41692273e-06           
       2.979816              2.202999e-05             1.3692419e-06           
       2.985928            2.12327127e-05             1.3311693e-06           
       2.992040            2.28455809e-05            1.38343774e-06           
       2.998153            2.35286535e-05            1.38330732e-06           
       3.004265            2.41321757e-05            1.43748612e-06           
       3.010378            2.67685948e-05            1.48571373e-06           
       3.016490            2.34077624e-05            1.39842614e-06           
       3.022603            2.55463706e-05            1.42606945e-06           
       3.028715            2.34246178e-05            1.39346345e-06           
       3.034828            2.41244448e-05            1.40315803e-06           
       3.040940            2.37085374e-05            1.40712709e-06           
       3.047052            2.30996214e-05            1.40373577e-06           
       3.053165            2.57179649e-05            1.44867431e-06           
       3.059277            2.28726498e-05            1.37210577e-06           
       3.065390            2.35572869e-05            1.49105765e-06           
       3.071502            2.56255303e-05            1.93661183e-06           
       3.077615            2.32908812e-05            2.34886439e-06           
       3.083727            2.45076378e-05            3.16855686e-06           
