################################################################################
# Data 1                          2023_12_15_long_0_00045_azimAvg_sub_merged.dat
# Data 2                          2023_12_15_long_0_00001_2D_sum_azimAvg_sub.dat
# qmin_merge_A-1                  0.08
# qmax_merge_A-1                  0.1
# Scaling factor                  0.9766500138804186
# Data 1                          2023_12_15_long_0_00045_azimAvg_sub.dat
# Data 2                          2023_12_15_long_0_00032_azimAvg_sub.dat
# qmin_merge_A-1                  0.02
# qmax_merge_A-1                  0.03
# Scaling factor                  0.9874345398709108
# Data 1                          2023_12_15_long_0_00045_azimAvg.dat
# Data 2                          2023_12_15_long_0_00053_azimAvg.dat
# Transmission                    0.8998006605418208
# Weight                          1.0
# Smart_subtraction               True
# EDF_DataBlockID                 0.Image.Psd
# EDF_BinarySize                  4366944
# EDF_HeaderSize                  3072
# ByteOrder                       LowByteFirst
# DataType                        FloatValue
# Dim_1                           1028
# Dim_2                           1062
# Image                           0
# HeaderID                        EH:000000:000000:000000
# Size                            4366944
# BIO_SYSTEM_CONF_TXT             WAXSRES
# Center_1                        606.9810
# Center_2                        651.0350
# Comment                         A2 - silk_ICG_unlasered_SAXS_Std_3600s
# DDummy                          0.6
# Date                            2023-12-18T10:51:15
# Delta                           0
# Dummy                           -1.5
# ExposureTime                    3600
# Force                           9.91088
# Gamma                           0
# Intensity1                      1.22327e-08
# JawsDistance                    4.54563
# JawsVelocity                    0.358589
# PSize_1                         7.5e-05
# PSize_2                         7.5e-05
# Pressure                        0.0591393
# SampleDistance                  0.899998
# SampleEnvKind                   saxs
# SampleEnvPN                     Powders and Gels 3x5
# SampleEnvSN                     1011
# Strain                          0
# Stress                          0
# Thickness                       0
# Wavelength                      1.541891e-10
# Wavelength                      1.54189e-10
# anaB                            0
# anaB_dial                       0.00302314
# anaPark                         -174.759
# anaPark_dial                    174.803
# anaXi                           0
# anaXi_dial                      0
# anaZ                            -9.13123e-08
# anaZ_dial                       6.2299
# aux                             0
# aux_dial                        0
# b2c                             0
# b2c_dial                        0
# beamx                           610.725
# beamx_dial                      610.725
# beamz                           658.951
# beamz_dial                      658.951
# bioZ                            2.23593e-06
# bioZ_dial                       -0.546695
# det0x                           0
# det0x_dial                      4.58549
# det0xvd                         0
# det0xvd_dial                    0
# det0y                           899.998
# det0y_dial                      42.3563
# det0z                           0
# det0z_dial                      6.72526
# det0zvd                         0
# det0zvd_dial                    0
# distana                         93.4
# distana_dial                    93.4
# mag                             2.6365
# mag_dial                        2.6365
# mono1B                          3.8147e-09
# mono1B_dial                     -0.296
# mono2B                          1.75476e-07
# mono2B_dial                     -4.366
# mono2X                          -1
# mono2X_dial                     3.96031
# mono2Xi                         0
# mono2Xi_dial                    0
# monoZ                           -11
# monoZ_dial                      -10.6609
# om                              0.0998998
# om_dial                         -0.620099
# phi                             -4.9295e-08
# phi_dial                        -7.01716
# qana                            0
# qana_dial                       0
# ry                              0
# ry_dial                         0.00149998
# s1bot                           0.099963
# s1bot_dial                      -0.682344
# s1hl                            1.40001
# s1hl_dial                       -1.38078
# s1hr                            -0.599881
# s1hr_dial                       -0.278906
# s1top                           0.699888
# s1top_dial                      0.88125
# s2bot                           0.349975
# s2bot_dial                      -1.07469
# s2hl                            0.449957
# s2hl_dial                       -1.16359
# s2hr                            0.050032
# s2hr_dial                       -0.711875
# s2top                           0.149987
# s2top_dial                      -1.07359
# ttdeg                           0
# ttdeg_dial                      0
# wind                            58.4849
# wind_dial                       58.5037
# x                               11.5
# x_dial                          12.8419
# z                               -20
# z_dial                          -14.4141
# CountCutoff                     15302352
# DetectorModel                   Dectris EIGER2 Si 1M, S/N E-02-0357
# ThresholdSetting                4023.88989258
# Saturation                      0
# FlatField                       Corrected
# BackgroundReductionExtra        0.02
# Detector                        0
# Monitor                         0
# Pil_Roi0                        4.40379e+10
# SumForIntensity1                4.40379e+10
# TransmittedFlux                 1.22327e+07
# det                             0
# mon                             0
# pilai0                          4.40379e+10
# pilai1                          0
# pilct0                          4.40379e+10
# pilct1                          0
# pilroi0                         4.40379e+10
# pilroi1                         0
# sec                             0.099
# title                           2023_12_15_long_0_00045.edf
# usaxs0                          0
# Operation                       Azimuthal average I(q)
# Error_model                     ErrorModel.poisson
# Geometrical_correction          True
# Transmission_correction         True
# Psi                             0.0
# Omega                           0.0
# MaskInvalidPixels               True
# DetectorEdge                    3
# MaskFiles                       ['2023_12_15_long_0_00053_mask.edf']
# Thickness_correction            False
# History0                        subtracted
# History1                        Merged
# Origin                          Merged
################################################################################
 q(A-1)                   I_merged(a.u.)            Sigma_I(a.u.)             
0.005603                       1.02987995           0.01755                   
0.005943                      0.841073135           0.0091103                 
0.006282                      0.718642922           0.0067266                 
0.006622                      0.615820442           0.005062                  
0.006961                      0.528182803           0.0044178                 
0.007301                      0.470456498           0.0040145                 
0.007641                      0.414824189           0.0034197                 
0.007980                      0.368988068           0.0031616                 
0.008320                      0.330116153           0.0027427                 
0.008659                      0.291967565           0.0026616                 
0.008999                      0.269510623           0.0024738                 
0.009339                       0.24579708           0.0022714                 
0.009678                      0.223494289           0.0021671                 
0.010018                      0.206286057           0.0020009                 
0.010357                      0.189476227           0.0019355                 
0.010697                      0.176742866           0.0017608                 
0.011036                      0.161251442           0.0016658                 
0.011376                      0.151499118           0.0016218                 
0.011716                      0.139446856           0.0015467                 
0.012055                      0.133068721           0.001502                  
0.012395                       0.12475297           0.0013573                 
0.012734                      0.116669339           0.0013336                 
0.013074                      0.113949707           0.0012832                 
0.013414                      0.104356925           0.0012402                 
0.013753                     0.0978705161           0.0011608                 
0.014093                     0.0974944362           0.0011363                 
0.014432                     0.0898096533           0.0011119                 
0.014772                     0.0864523371           0.0010399                 
0.015111                     0.0818551096           0.0010122                 
0.015451                     0.0804860393           0.00097624                
0.015791                     0.0730399301           0.0009435                 
0.016130                     0.0700587693           0.00093349                
0.016470                     0.0674901643           0.00085544                
0.016809                     0.0631354333           0.00084785                
0.017149                     0.0592202448           0.00079717                
0.017489                      0.057495222           0.00079548                
0.017828                     0.0550156669           0.00077719                
0.018168                      0.052398892           0.00071027                
0.018507                     0.0503618272           0.00072905                
0.018847                      0.048686368           0.00068741                
0.019186                     0.0469586812           0.00068216                
0.019526                     0.0453068577           0.00065814                
0.019866                     0.0439773386           0.00063269                
0.020237                     0.0413332504           0.00037094                
0.021063                     0.0378221449           0.00024961                
0.021889                     0.0339477745           0.00023341                
0.022715                      0.030443253           0.00021299                
0.023541                     0.0279276187           0.0002028                 
0.024367                     0.0251310899           0.00018744                
0.025193                     0.0227390391           0.00017809                
0.026019                      0.020682411           0.00016283                
0.026845                     0.0187209617           0.00015308                
0.027671                     0.0166641025           0.00014448                
0.028497                     0.0153923684           0.00013602                
0.029323                     0.0141032751           0.00018381                
0.030149                      0.013136997           0.00015789                
0.030975                     0.0120057932           0.00015609                
0.031801                     0.0109335807           0.0001435                 
0.032627                    0.00970315603           0.0001367                 
0.033453                    0.00924017341           0.0001299                 
0.034279                    0.00851934115           0.00012176                
0.035105                     0.0079738054           0.00011924                
0.035931                    0.00741608711           0.00011102                
0.036758                    0.00666965215           0.00010469                
0.037584                    0.00637397054           0.00010032                
0.038410                    0.00597401287           9.7089e-05                
0.039236                     0.0055326752           9.5054e-05                
0.040062                    0.00545575113           8.8604e-05                
0.040888                    0.00494273157           8.558e-05                 
0.041714                    0.00451769059           8.054e-05                 
0.042540                    0.00428277444           7.8182e-05                
0.043366                    0.00406267116           7.6494e-05                
0.044192                    0.00390758948           7.1457e-05                
0.045018                    0.00370591766           7.1309e-05                
0.045844                    0.00352361389           6.7695e-05                
0.046670                    0.00329641663           6.5704e-05                
0.047496                    0.00318611532           6.357e-05                 
0.048322                    0.00315207987           6.2064e-05                
0.049148                    0.00296257488           6.1584e-05                
0.049974                    0.00275970832           5.7001e-05                
0.050800                    0.00273856003           5.6714e-05                
0.051626                    0.00268208125           5.5291e-05                
0.052452                    0.00251526831           5.3635e-05                
0.053278                    0.00245495992           5.4252e-05                
0.054104                    0.00239719849           5.0488e-05                
0.054930                    0.00238582411           5.1144e-05                
0.055756                    0.00224087463           4.9319e-05                
0.056582                    0.00209428566           4.6815e-05                
0.057408                     0.0020806711           4.7114e-05                
0.058234                    0.00203657991           4.4681e-05                
0.059060                    0.00192937528           4.5178e-05                
0.059886                    0.00192688268           4.3846e-05                
0.060712                    0.00187347293           4.3108e-05                
0.061538                    0.00173449478           4.101e-05                 
0.062364                    0.00179537053           4.1159e-05                
0.063190                    0.00167436565           4.0843e-05                
0.064016                    0.00164144752           3.8917e-05                
0.064842                    0.00166105258           3.9203e-05                
0.065668                    0.00159419626           3.7917e-05                
0.066494                    0.00157460042           3.7558e-05                
0.067320                    0.00153711364           3.7859e-05                
0.068146                    0.00151563513           3.6062e-05                
0.068972                    0.00146277843           3.5721e-05                
0.069798                    0.00144017032           3.5314e-05                
0.070624                    0.00142166403           3.5062e-05                
0.071450                    0.00139966492           3.4219e-05                
0.072276                    0.00138050592           3.3331e-05                
0.073102                    0.00129387414           3.2862e-05                
0.073928                    0.00128316312           3.2521e-05                
0.074754                    0.00129752628           3.2716e-05                
0.075580                    0.00130992408           3.1656e-05                
0.076406                     0.0011862189           3.0748e-05                
0.077232                    0.00124332805           3.1407e-05                
0.078058                    0.00119347844           3.0359e-05                
0.078884                    0.00119424657           3.0096e-05                
0.079710                    0.00117998826           2.969e-05                 
0.082518                    0.00108834866           1.3473e-05                
0.088630                    0.00101627151           8.9338e-06                
0.094743                   0.000940015395           1.1961e-05                
0.100855                   0.000845126745           1.5206e-05                
0.106968                   0.000757703247           1.3485e-05                
0.113080                   0.000713371736           1.3003e-05                
0.119193                   0.000697438599           1.1616e-05                
0.125305                   0.000677461931           1.1373e-05                
0.131418                    0.00060795644           1.043e-05                 
0.137530                    0.00060554444           1.0003e-05                
0.143642                   0.000574956715           9.6249e-06                
0.149755                   0.000558165069           8.9343e-06                
0.155867                   0.000553363546           9.0631e-06                
0.161980                   0.000532150034           8.3152e-06                
0.168092                   0.000530431795           8.4071e-06                
0.174205                   0.000508633684           7.9373e-06                
0.180317                   0.000495330907           7.6902e-06                
0.186429                   0.000481629765           7.5781e-06                
0.192542                    0.00048211899           7.2637e-06                
0.198654                   0.000480740099           7.2003e-06                
0.204767                   0.000471112562           7.0137e-06                
0.210879                    0.00046089695           6.812e-06                 
0.216992                   0.000465226439           6.7956e-06                
0.223104                   0.000453856038           6.4212e-06                
0.229217                   0.000457629721           6.6068e-06                
0.235329                    0.00044642413           6.2575e-06                
0.241441                   0.000444269179           6.2547e-06                
0.247554                   0.000446957414           6.1454e-06                
0.253666                   0.000456251671           6.0767e-06                
0.259779                   0.000465288372           6.2017e-06                
0.265891                   0.000457849481           5.8673e-06                
0.272004                   0.000461353342           6.0049e-06                
0.278116                   0.000453523521           5.7968e-06                
0.284229                   0.000464099054           5.863e-06                 
0.290341                   0.000460344086           5.762e-06                 
0.296453                   0.000468081588           5.6434e-06                
0.302566                   0.000465124902           5.7346e-06                
0.308678                   0.000467356855           5.5627e-06                
0.314791                   0.000483744476           5.6594e-06                
0.320903                   0.000481144227           5.5318e-06                
0.327016                   0.000494339045           5.5927e-06                
0.333128                   0.000498483235           5.6512e-06                
0.339241                   0.000505544961           5.4594e-06                
0.345353                   0.000497391497           5.5277e-06                
0.351465                   0.000510148556           5.4048e-06                
0.357578                   0.000520197775           5.5351e-06                
0.363690                   0.000531540442           5.4751e-06                
0.369803                   0.000528596309           5.3823e-06                
0.375915                   0.000533064611           5.4572e-06                
0.382028                   0.000537220658           5.3721e-06                
0.388140                    0.00055695122           5.4918e-06                
0.394253                   0.000555442444           5.3197e-06                
0.400365                   0.000554777471           5.378e-06                 
0.406477                   0.000571914607           5.3954e-06                
0.412590                   0.000573187573           5.3304e-06                
0.418702                   0.000582035548           5.3481e-06                
0.424815                   0.000593407022           5.3465e-06                
0.430927                   0.000596598387           5.4172e-06                
0.437040                   0.000606067822           5.2609e-06                
0.443152                   0.000617999929           5.4031e-06                
0.449264                   0.000633800301           5.4065e-06                
0.455377                   0.000641182822           5.3621e-06                
0.461489                   0.000645918322           5.379e-06                 
0.467602                   0.000649074531           5.3191e-06                
0.473714                    0.00064434896           5.3435e-06                
0.479827                   0.000674075381           5.2865e-06                
0.485939                   0.000684023878           5.4075e-06                
0.492052                   0.000683281505           5.3367e-06                
0.498164                    0.00070455856           5.4044e-06                
0.504276                   0.000713241064           5.3664e-06                
0.510389                   0.000714462974           5.3396e-06                
0.516501                    0.00073995334           5.468e-06                 
0.522614                   0.000753989288           5.4184e-06                
0.528726                   0.000754176859           5.4279e-06                
0.534839                   0.000764640471           5.3617e-06                
0.540951                   0.000765956845           5.4403e-06                
0.547064                   0.000799802427           5.4243e-06                
0.553176                   0.000811399454           5.4689e-06                
0.559288                   0.000802635505           5.4832e-06                
0.565401                   0.000835648928           5.4658e-06                
0.571513                   0.000830896926           5.4626e-06                
0.577626                   0.000854662403           5.4759e-06                
0.583738                    0.00084933254           5.5471e-06                
0.589851                   0.000875703952           5.4492e-06                
0.595963                   0.000886025869           5.6038e-06                
0.602076                   0.000892436074           5.6645e-06                
0.608188                   0.000905314838           5.7367e-06                
0.614300                   0.000907584829           5.7477e-06                
0.620413                   0.000933809233           5.7926e-06                
0.626525                   0.000940818352           5.9405e-06                
0.632638                   0.000948754822           5.8412e-06                
0.638750                   0.000951680041           5.9572e-06                
0.644863                    0.00096584268           5.8845e-06                
0.650975                   0.000973157973           6.0074e-06                
0.657088                    0.00099369533           5.9442e-06                
0.663200                   0.000991182869           6.0917e-06                
0.669312                   0.000999014323           5.969e-06                 
0.675425                     0.0010080419           6.0518e-06                
0.681537                    0.00102292991           6.1153e-06                
0.687650                    0.00102357353           6.0446e-06                
0.693762                      0.001039991           6.1185e-06                
0.699875                    0.00104168026           6.0577e-06                
0.705987                    0.00106903501           6.2686e-06                
0.712100                    0.00107033838           6.1264e-06                
0.718212                    0.00106966017           6.1446e-06                
0.724324                    0.00107969667           6.1414e-06                
0.730437                    0.00108443512           6.2375e-06                
0.736549                    0.00110071395           6.0882e-06                
0.742662                     0.0010985091           6.2768e-06                
0.748774                    0.00109836352           6.1419e-06                
0.754887                     0.0011106297           6.1379e-06                
0.760999                    0.00111472356           6.2023e-06                
0.767111                    0.00113469514           6.2318e-06                
0.773224                     0.0011483207           6.2383e-06                
0.779336                    0.00114783292           6.2564e-06                
0.785449                    0.00114805532           6.2657e-06                
0.791561                    0.00115941327           6.1944e-06                
0.797674                     0.0011748883           6.365e-06                 
0.803786                      0.001178846           6.2346e-06                
0.809899                    0.00119170845           6.3233e-06                
0.816011                    0.00118327483           6.271e-06                 
0.822123                    0.00120830937           6.3532e-06                
0.828236                    0.00122085532           6.2976e-06                
0.834348                    0.00123455772           6.4467e-06                
0.840461                    0.00122430838           6.2697e-06                
0.846573                    0.00123661364           6.3655e-06                
0.852686                     0.0012363416           6.3428e-06                
0.858798                    0.00125315406           6.2335e-06                
0.864911                    0.00125085512           6.0618e-06                
0.871023                    0.00127270183           6.1506e-06                
0.877135                    0.00126818914           5.995e-06                 
0.883248                    0.00127426145           5.9974e-06                
0.889360                    0.00128270126           5.9825e-06                
0.895473                    0.00128795811           5.9678e-06                
0.901585                    0.00129478991           5.9476e-06                
0.907698                    0.00128874574           5.9089e-06                
0.913810                    0.00128937251           5.8237e-06                
0.919923                    0.00129629833           5.8991e-06                
0.926035                    0.00130638825           5.8439e-06                
0.932147                    0.00130116386           5.7938e-06                
0.938260                    0.00131326016           5.8261e-06                
0.944372                    0.00131873793           5.7687e-06                
0.950485                    0.00131862546           5.7856e-06                
0.956597                    0.00132056682           5.7416e-06                
0.962710                    0.00132164415           5.6878e-06                
0.968822                    0.00133729765           5.7688e-06                
0.974935                    0.00132390834           5.6018e-06                
0.981047                    0.00134987403           5.6742e-06                
0.987159                    0.00134982959           5.6296e-06                
0.993272                    0.00137538125           5.7071e-06                
0.999384                    0.00137410994           5.6817e-06                
1.005497                    0.00138796248           5.6731e-06                
1.011609                    0.00139303815           5.6463e-06                
1.017722                    0.00140929954           5.7311e-06                
1.023834                     0.0014164602           5.6353e-06                
1.029947                    0.00141869834           5.7127e-06                
1.036059                    0.00142533834           5.6085e-06                
1.042171                    0.00144160382           5.6831e-06                
1.048284                    0.00145571789           5.6602e-06                
1.054396                    0.00147254349           5.657e-06                 
1.060509                    0.00147364261           5.6292e-06                
1.066621                     0.0014985616           5.6508e-06                
1.072734                    0.00150826718           5.6775e-06                
1.078846                    0.00152404542           5.683e-06                 
1.084958                    0.00152328851           5.647e-06                 
1.091071                      0.001543152           5.7272e-06                
1.097183                    0.00154124886           5.6477e-06                
1.103296                    0.00156666686           5.7221e-06                
1.109408                    0.00158027315           5.7044e-06                
1.115521                     0.0015893536           5.7139e-06                
1.121633                    0.00160779123           5.7095e-06                
1.127746                     0.0016170794           5.6528e-06                
1.133858                    0.00162186531           5.6913e-06                
1.139970                    0.00164791611           5.6713e-06                
1.146083                    0.00165464609           5.7464e-06                
1.152195                     0.0016559395           5.6716e-06                
1.158308                    0.00166803218           5.7281e-06                
1.164420                    0.00168921872           5.7343e-06                
1.170533                    0.00169500651           5.7237e-06                
1.176645                    0.00171284952           5.7444e-06                
1.182758                    0.00172049439           5.7129e-06                
1.188870                    0.00173672418           5.7392e-06                
1.194982                    0.00173919661           5.6448e-06                
1.201095                    0.00175985243           5.7355e-06                
1.207207                    0.00176013982           5.7308e-06                
1.213320                      0.001783458           5.729e-06                 
1.219432                    0.00177971161           5.7375e-06                
1.225545                    0.00180348289           5.7359e-06                
1.231657                    0.00181666528           5.7755e-06                
1.237770                    0.00181860444           5.753e-06                 
1.243882                    0.00185439847           5.7323e-06                
1.249994                    0.00184821999           5.7184e-06                
1.256107                    0.00186334992           5.6998e-06                
1.262219                    0.00187022987           5.8002e-06                
1.268332                    0.00189839382           5.7157e-06                
1.274444                    0.00189408513           5.8108e-06                
1.280557                    0.00191605082           5.757e-06                 
1.286669                    0.00193235151           5.8144e-06                
1.292782                    0.00193718478           5.7803e-06                
1.298894                    0.00195043438           5.7364e-06                
1.305006                    0.00196637008           5.7549e-06                
1.311119                    0.00198798388           5.7728e-06                
1.317231                    0.00199884927           5.7895e-06                
1.323344                    0.00199853105           5.8152e-06                
1.329456                    0.00202217418           5.7963e-06                
1.335569                    0.00202883725           5.8638e-06                
1.341681                    0.00204823791           5.7624e-06                
1.347793                    0.00206458603           5.8091e-06                
1.353906                    0.00207597054           5.7898e-06                
1.360018                    0.00210026877           5.8014e-06                
1.366131                    0.00210140588           5.8824e-06                
1.372243                     0.0021242302           5.8332e-06                
1.378356                    0.00215158603           5.8793e-06                
1.384468                    0.00216199374           5.8883e-06                
1.390581                    0.00219133239           5.8474e-06                
1.396693                    0.00220532157           5.8712e-06                
1.402805                    0.00221553007           5.8884e-06                
1.408918                    0.00222385594           5.8751e-06                
1.415030                    0.00224683563           5.9555e-06                
1.421143                     0.0022671046           5.9262e-06                
1.427255                    0.00228155072           5.908e-06                 
1.433368                    0.00230583966           5.9312e-06                
1.439480                    0.00230810228           5.889e-06                 
1.445593                    0.00232484904           5.9644e-06                
1.451705                    0.00233141289           5.9582e-06                
1.457817                    0.00233543092           5.8952e-06                
1.463930                    0.00234917597           5.9857e-06                
1.470042                    0.00234364563           5.8621e-06                
1.476155                     0.0023408414           5.8471e-06                
1.482267                    0.00233004662           5.8893e-06                
1.488380                     0.0023051105           5.8058e-06                
1.494492                    0.00228697794           5.8161e-06                
1.500605                    0.00226821618           5.7709e-06                
1.506717                    0.00224842152           5.6503e-06                
1.512829                    0.00224110596           5.6698e-06                
1.518942                     0.0022189963           5.6634e-06                
1.525054                    0.00220555116           5.6104e-06                
1.531167                    0.00220142052           5.6353e-06                
1.537279                    0.00219008533           5.5782e-06                
1.543392                    0.00218616286           5.4904e-06                
1.549504                    0.00217603298           5.5234e-06                
1.555617                    0.00216574345           5.5315e-06                
1.561729                    0.00216173845           5.5082e-06                
1.567841                    0.00215060524           5.4717e-06                
1.573954                    0.00213070359           5.4114e-06                
1.580066                     0.0021401678           5.408e-06                 
1.586179                    0.00211148092           5.3684e-06                
1.592291                    0.00211511029           5.403e-06                 
1.598404                    0.00209588267           5.371e-06                 
1.604516                    0.00208634177           5.2672e-06                
1.610629                    0.00207741463           5.27e-06                  
1.616741                    0.00207690782           5.2968e-06                
1.622853                    0.00205529808           5.2536e-06                
1.628966                    0.00204673666           5.2267e-06                
1.635078                    0.00202138969           5.1753e-06                
1.641191                    0.00202356972           5.1372e-06                
1.647303                    0.00200717697           5.1205e-06                
1.653416                    0.00200889394           5.1722e-06                
1.659528                     0.0019946938           5.1215e-06                
1.665640                    0.00197486961           5.0056e-06                
1.671753                    0.00196418771           5.0288e-06                
1.677865                    0.00194606919           5.0529e-06                
1.683978                    0.00193999317           5.0056e-06                
1.690090                    0.00193117775           4.9452e-06                
1.696203                    0.00191936851           4.9349e-06                
1.702315                    0.00189472559           4.9183e-06                
1.708428                    0.00188678361           4.8871e-06                
1.714540                    0.00187798214           4.8643e-06                
1.720652                    0.00186178221           4.8065e-06                
1.726765                    0.00184708603           4.8239e-06                
1.732877                    0.00182942021           4.7748e-06                
1.738990                    0.00182406871           4.775e-06                 
1.745102                    0.00181308049           4.6959e-06                
1.751215                    0.00180093362           4.7228e-06                
1.757327                    0.00178697774           4.6921e-06                
1.763440                    0.00177540027           4.68e-06                  
1.769552                    0.00176791553           4.6095e-06                
1.775664                    0.00174236431           4.5892e-06                
1.781777                    0.00173569951           4.5944e-06                
1.787889                    0.00171079524           4.5643e-06                
1.794002                    0.00171240262           4.4889e-06                
1.800114                    0.00169569645           4.51e-06                  
1.806227                    0.00168717975           4.4982e-06                
1.812339                    0.00166432824           4.4508e-06                
1.818452                    0.00164485919           4.3757e-06                
1.824564                    0.00163602355           4.4051e-06                
1.830676                    0.00161951306           4.395e-06                 
1.836789                     0.0016066817           4.3313e-06                
1.842901                    0.00158222353           4.261e-06                 
1.849014                    0.00157002853           4.2657e-06                
1.855126                    0.00155235548           4.283e-06                 
1.861239                     0.0015329756           4.1893e-06                
1.867351                    0.00152009812           4.1775e-06                
1.873464                    0.00150721448           4.1691e-06                
1.879576                    0.00149801748           4.1292e-06                
1.885688                    0.00148252439           4.0753e-06                
1.891801                    0.00146568752           4.0914e-06                
1.897913                    0.00145414336           4.0868e-06                
1.904026                    0.00143446057           3.9986e-06                
1.910138                    0.00141517359           3.9709e-06                
1.916251                    0.00141528266           4.0012e-06                
1.922363                    0.00139306717           3.9443e-06                
1.928476                    0.00138290095           3.9048e-06                
1.934588                    0.00137632548           3.9222e-06                
1.940700                    0.00136965137           3.9013e-06                
1.946813                    0.00135749398           3.8333e-06                
1.952925                    0.00134790414           3.8427e-06                
1.959038                    0.00133857584           3.8362e-06                
1.965150                    0.00132796042           3.7819e-06                
1.971263                    0.00132574021           3.8062e-06                
1.977375                    0.00130939631           3.7949e-06                
1.983487                    0.00130898881           3.7269e-06                
1.989600                     0.0013086312           3.755e-06                 
1.995712                    0.00129736941           3.7532e-06                
2.001825                    0.00128385383           3.6751e-06                
2.007937                    0.00128416693           3.6975e-06                
2.014050                    0.00127925587           3.7054e-06                
2.020162                    0.00126544471           3.6366e-06                
2.026275                    0.00125726975           3.6538e-06                
2.032387                    0.00125608286           3.6647e-06                
2.038499                    0.00125098417           3.5931e-06                
2.044612                    0.00124285455           3.6128e-06                
2.050724                    0.00124254714           3.6076e-06                
2.056837                     0.0012284824           3.5442e-06                
2.062949                    0.00122323471           3.5696e-06                
2.069062                    0.00121337484           3.5455e-06                
2.075174                    0.00120909959           3.5059e-06                
2.081287                    0.00120250078           3.5269e-06                
2.087399                    0.00118997324           3.4775e-06                
2.093511                     0.0011840497           3.4796e-06                
2.099624                    0.00117970527           3.4831e-06                
2.105736                    0.00116978322           3.421e-06                 
2.111849                    0.00116196764           3.4377e-06                
2.117961                    0.00115362701           3.4135e-06                
2.124074                    0.00114896627           3.3793e-06                
2.130186                    0.00113819524           3.3912e-06                
2.136299                    0.00113331673           3.3517e-06                
2.142411                     0.0011266591           3.3546e-06                
2.148523                    0.00112046807           3.3434e-06                
2.154636                    0.00111580523           3.3042e-06                
2.160748                    0.00111087305           3.3239e-06                
2.166861                    0.00110874161           3.286e-06                 
2.172973                     0.0010999274           3.2936e-06                
2.179086                    0.00109129427           3.2705e-06                
2.185198                    0.00109795294           3.2607e-06                
2.191311                    0.00108779901           3.2681e-06                
2.197423                    0.00107558237           3.21e-06                  
2.203535                    0.00107430208           3.2348e-06                
2.209648                    0.00107358126           3.2089e-06                
2.215760                    0.00106528532           3.2416e-06                
2.221873                    0.00106559416           3.2663e-06                
2.227985                     0.0010534639           3.2448e-06                
2.234098                    0.00105382582           3.271e-06                 
2.240210                    0.00104851971           3.2277e-06                
2.246322                    0.00104211414           3.2675e-06                
2.252435                    0.00103653264           3.2477e-06                
2.258547                    0.00103331878           3.2969e-06                
2.264660                    0.00103405061           3.3056e-06                
2.270772                    0.00102885781           3.3397e-06                
2.276885                    0.00102512173           3.3478e-06                
2.282997                    0.00103123281           3.3635e-06                
2.289110                    0.00102235692           3.3716e-06                
2.295222                    0.00101884902           3.3854e-06                
2.301334                    0.00101401277           3.3943e-06                
2.307447                     0.0010062248           3.3651e-06                
2.313559                    0.00100504659           3.3941e-06                
2.319672                    0.00100778812           3.3757e-06                
2.325784                   0.000998721914           3.3882e-06                
2.331897                   0.000998709246           3.3677e-06                
2.338009                   0.000991847049           3.3901e-06                
2.344122                   0.000993544389           3.3666e-06                
2.350234                   0.000989335848           3.4123e-06                
2.356346                   0.000986057605           3.3804e-06                
2.362459                   0.000981795065           3.3964e-06                
2.368571                   0.000974307373           3.3659e-06                
2.374684                   0.000970977563           3.3972e-06                
2.380796                    0.00097367742           3.3774e-06                
2.386909                   0.000968552752           3.4104e-06                
2.393021                   0.000968365498           3.3864e-06                
2.399134                   0.000958607691           3.409e-06                 
2.405246                    0.00095378057           3.3825e-06                
2.411358                   0.000955189885           3.3946e-06                
2.417471                   0.000946864442           3.3898e-06                
2.423583                    0.00094776508           3.388e-06                 
2.429696                   0.000938718828           3.4118e-06                
2.435808                   0.000942732172           3.3987e-06                
2.441921                   0.000938138678           3.4052e-06                
2.448033                   0.000934823511           3.373e-06                 
2.454146                    0.00093005868           3.4062e-06                
2.460258                    0.00092481435           3.4006e-06                
2.466370                    0.00092203995           3.3875e-06                
2.472483                   0.000920310275           3.402e-06                 
2.478595                   0.000920848473           3.3861e-06                
2.484708                   0.000913619995           3.4206e-06                
2.490820                   0.000913249857           3.3834e-06                
2.496933                    0.00090342464           3.3892e-06                
2.503045                   0.000907815519           3.393e-06                 
2.509158                   0.000908193136           3.4069e-06                
2.515270                   0.000904599889           3.4252e-06                
2.521382                   0.000895123335           3.3634e-06                
2.527495                   0.000897543223           3.4125e-06                
2.533607                   0.000892955495           3.4012e-06                
2.539720                   0.000897377056           3.3994e-06                
2.545832                   0.000890666329           3.4102e-06                
2.551945                   0.000888332708           3.3836e-06                
2.558057                   0.000885357266           3.4084e-06                
2.564169                   0.000881576441           3.4025e-06                
2.570282                   0.000882541967           3.4002e-06                
2.576394                   0.000878115315           3.4069e-06                
2.582507                   0.000884634357           3.4128e-06                
2.588619                   0.000875875493           3.3932e-06                
2.594732                   0.000876630721           3.4296e-06                
2.600844                   0.000872221117           3.4029e-06                
2.606957                   0.000872428571           3.4006e-06                
2.613069                   0.000866893791           3.4156e-06                
2.619181                   0.000867312823           3.4075e-06                
2.625294                   0.000862775357           3.4125e-06                
2.631406                   0.000865927631           3.3998e-06                
2.637519                   0.000859280795           3.4179e-06                
2.643631                   0.000859757105           3.4081e-06                
2.649744                   0.000856182655           3.3996e-06                
2.655856                   0.000856278629           3.4379e-06                
2.661969                     0.0008508093           3.3858e-06                
2.668081                   0.000853600706           3.4122e-06                
2.674193                   0.000846965462           3.4111e-06                
2.680306                   0.000842611175           3.4107e-06                
2.686418                   0.000848617545           3.4213e-06                
2.692531                    0.00083659034           3.3878e-06                
2.698643                    0.00083403269           3.4103e-06                
2.704756                   0.000840617825           3.4051e-06                
2.710868                    0.00082774887           3.3925e-06                
2.716981                    0.00083907518           3.4018e-06                
2.723093                   0.000832955303           3.4241e-06                
2.729205                   0.000826561926           3.393e-06                 
2.735318                   0.000826464923           3.4109e-06                
2.741430                   0.000826615114           3.3845e-06                
2.747543                   0.000820460053           3.4166e-06                
2.753655                   0.000818243363           3.3989e-06                
2.759768                   0.000818979992           3.4045e-06                
2.765880                   0.000824893702           3.4081e-06                
2.771993                   0.000814442083           3.405e-06                 
2.778105                   0.000813664033           3.3904e-06                
2.784217                   0.000815066618           3.4377e-06                
2.790330                   0.000809215315           3.3877e-06                
2.796442                   0.000809799784           3.3956e-06                
2.802555                   0.000810593336           3.4192e-06                
2.808667                   0.000814505702           3.415e-06                 
2.814780                   0.000809625441           3.434e-06                 
2.820892                   0.000811532114           3.4246e-06                
2.827005                   0.000803270784           3.4022e-06                
2.833117                   0.000804418332           3.4107e-06                
2.839229                   0.000804543562           3.4031e-06                
2.845342                   0.000805169492           3.4339e-06                
2.851454                   0.000803894643           3.4318e-06                
2.857567                   0.000799762209           3.4136e-06                
2.863679                   0.000806008872           3.4584e-06                
2.869792                   0.000799378038           3.4184e-06                
2.875904                   0.000793246333           3.4063e-06                
2.882016                   0.000799212416           3.4241e-06                
2.888129                   0.000791815495           3.407e-06                 
2.894241                   0.000793453962           3.3972e-06                
2.900354                   0.000791008624           3.4126e-06                
2.906466                    0.00078660854           3.3987e-06                
2.912579                   0.000789737621           3.3987e-06                
2.918691                   0.000778518205           3.3802e-06                
2.924804                   0.000780951585           3.3875e-06                
2.930916                    0.00077822246           3.3943e-06                
2.937028                   0.000781853553           3.474e-06                 
2.943141                   0.000778707173           3.5006e-06                
2.949253                   0.000772773083           3.5273e-06                
2.955366                   0.000768159681           3.5519e-06                
2.961478                   0.000767705003           3.5675e-06                
2.967591                   0.000769819312           3.5734e-06                
2.973703                    0.00076351909           3.5618e-06                
2.979816                   0.000764362866           3.5908e-06                
2.985928                   0.000771951902           3.6133e-06                
2.992040                   0.000761343319           3.6183e-06                
2.998153                   0.000756807445           3.6168e-06                
3.004265                   0.000756044734           3.6402e-06                
3.010378                   0.000754675247           3.6538e-06                
3.016490                   0.000749985028           3.6399e-06                
3.022603                    0.00074755013           3.6639e-06                
3.028715                   0.000744957263           3.6686e-06                
3.034828                   0.000749447009           3.7003e-06                
3.040940                   0.000736608254           3.6836e-06                
3.047052                   0.000740791745           3.7197e-06                
3.053165                   0.000739173721           3.722e-06                 
3.059277                   0.000738073196           3.7318e-06                
3.065390                   0.000727656391           3.7689e-06                
3.071502                   0.000733442944           3.8972e-06                
3.077615                   0.000722065579           3.9467e-06                
3.083727                   0.000717427228           4.0178e-06                
3.089840                   0.000727400056           4.1108e-06                
3.095952                   0.000718937169           4.1375e-06                
3.102064                   0.000716759621           4.2022e-06                
3.108177                   0.000721548172           4.2647e-06                
3.114289                   0.000713174418           4.3051e-06                
3.120402                   0.000704197081           4.3409e-06                
3.126514                   0.000713930117           4.4475e-06                
3.132627                   0.000700752786           4.4436e-06                
3.138739                    0.00069394112           4.4891e-06                
3.144851                   0.000703886635           4.5814e-06                
3.150964                   0.000701744806           4.6469e-06                
3.157076                    0.00069571401           4.6897e-06                
3.163189                   0.000690475379           4.7249e-06                
3.169301                   0.000678798335           4.743e-06                 
3.175414                   0.000683492309           4.8289e-06                
3.181526                   0.000670787973           4.8635e-06                
3.187639                   0.000682953657           4.97e-06                  
3.193751                   0.000670202083           5.0184e-06                
3.199863                   0.000665958232           5.0366e-06                
3.205976                   0.000663552646           5.1242e-06                
3.212088                    0.00066527198           5.2151e-06                
3.218201                   0.000659649128           5.2558e-06                
3.224313                   0.000647617912           5.2893e-06                
3.230426                   0.000657442479           5.412e-06                 
3.236538                   0.000653991943           5.5068e-06                
3.242651                   0.000647410007           5.5914e-06                
3.248763                   0.000647801836           5.6271e-06                
3.254875                   0.000634983978           5.6949e-06                
3.260988                   0.000638020663           5.8359e-06                
3.267100                   0.000630650214           5.8803e-06                
3.273213                   0.000622386103           5.9619e-06                
3.279325                    0.00062162842           6.0634e-06                
3.285438                   0.000617279098           6.1636e-06                
3.291550                   0.000618305106           6.3006e-06                
3.297663                   0.000613322943           6.3188e-06                
3.303775                   0.000619749666           6.5013e-06                
3.309887                   0.000618896445           6.5376e-06                
3.316000                   0.000608526513           6.6558e-06                
3.322112                   0.000611051083           6.7363e-06                
3.328225                   0.000586329502           6.7429e-06                
3.334337                   0.000591201663           6.8744e-06                
3.340450                   0.000593024652           7.0053e-06                
3.346562                   0.000578782958           7.0633e-06                
3.352675                   0.000598660078           7.3148e-06                
3.358787                   0.000579857979           7.3277e-06                
3.364899                    0.00058877683           7.6192e-06                
3.371012                   0.000567902147           7.548e-06                 
3.377124                    0.00056799711           7.8312e-06                
3.383237                   0.000571229598           7.8886e-06                
3.389349                   0.000554110628           8.0006e-06                
3.395462                   0.000554851722           8.2581e-06                
3.401574                   0.000556076678           8.24e-06                  
3.407687                    0.00055578088           8.3413e-06                
3.413799                   0.000563187032           8.6662e-06                
3.419911                   0.000528896281           8.3686e-06                
3.426024                   0.000543117247           8.6697e-06                
3.432136                   0.000549683596           8.8649e-06                
3.438249                   0.000526731711           8.8674e-06                
3.444361                    0.00053044967           8.9507e-06                
3.450474                   0.000523585323           9.0857e-06                
3.456586                   0.000533780962           9.2997e-06                
3.462698                   0.000535450394           9.5648e-06                
3.468811                   0.000530590672           9.7292e-06                
3.474923                   0.000529781617           9.8212e-06                
3.481036                   0.000519382288           9.8974e-06                
3.487148                    0.00050482087           1.0032e-05                
3.493261                   0.000531543177           1.0445e-05                
3.499373                   0.000522207578           1.0651e-05                
3.505486                   0.000487709855           1.0506e-05                
3.511598                   0.000506456853           1.0977e-05                
3.517710                   0.000532664805           1.1539e-05                
3.523823                   0.000492576946           1.144e-05                 
3.529935                   0.000486593138           1.1627e-05                
3.536048                   0.000501331604           1.2226e-05                
3.542160                    0.00047506979           1.2255e-05                
3.548273                   0.000491061407           1.2887e-05                
3.554385                   0.000498321266           1.3456e-05                
3.560498                   0.000479317477           1.3789e-05                
3.566610                   0.000500520752           1.4611e-05                
3.572722                   0.000477640829           1.5003e-05                
3.578835                   0.000493196086           1.5623e-05                
3.584947                   0.000453438663           1.6125e-05                
3.591060                   0.000503975907           1.8055e-05                
3.597172                   0.000486816842           1.9288e-05                
3.603285                    0.00044443092           1.9669e-05                
3.609397                    0.00048738244           2.2787e-05                
3.615510                   0.000455607684           2.4496e-05                
3.621622                   0.000484742406           2.9567e-05                
3.627734                   0.000416755766           3.475e-05                 
3.633847                   0.000389813272           5.1756e-05                
3.639959                   0.000512770404           0.00022259                
