################################################################################
# EDF_DataBlockID                 0.Image.Psd
# EDF_BinarySize                  4366944
# EDF_HeaderSize                  3072
# ByteOrder                       LowByteFirst
# DataType                        FloatValue
# Dim_1                           1028
# Dim_2                           1062
# Image                           0
# HeaderID                        EH:000000:000000:000000
# Size                            4366944
# BIO_SYSTEM_CONF_TXT             WAXSRES
# Center_1                        596.9450
# Center_2                        595.9800
# Comment                         BWMajor - BWMajor_900mm_UHFLUX_300s
# DDummy                          0.6
# Date                            2023-10-10T10:06:58
# Delta                           0
# Detector                        0
# Dummy                           -1.5
# ExposureTime                    300
# Force                           9.91088
# Gamma                           0
# Intensity1                      3.18967e-07
# JawsDistance                    4.54563
# JawsVelocity                    0.358589
# Monitor                         0
# PSize_1                         7.5e-05
# PSize_2                         7.5e-05
# Pil_Roi0                        9.56901e+10
# Pressure                        0.0732012
# SampleDistance                  0.899998
# SampleEnvKind                   saxs
# SampleEnvPN                     Solids
# SampleEnvSN                     1012
# Strain                          0
# Stress                          0
# SumForIntensity1                9.569e+10
# Thickness                       0
# TransmittedFlux                 3.18967e+08
# WaveLength                      1.541891e-10
# Wavelength                      1.54189e-10
# anaB                            0
# anaB_dial                       -0.0012015
# anaPark                         -175.125
# anaPark_dial                    175.169
# anaXi                           0
# anaXi_dial                      0
# anaZ                            -9.13123e-08
# anaZ_dial                       6.2299
# aux                             0
# aux_dial                        -0.000125
# b2c                             0
# b2c_dial                        0
# beamx                           588.125
# beamx_dial                      588.125
# beamz                           600.58
# beamz_dial                      600.58
# bioZ                            -2.90461e-08
# bioZ_dial                       -0.546695
# det                             0
# det0x                           0.750094
# det0x_dial                      2.89322
# det0xvd                         0.75
# det0xvd_dial                    0.75
# det0y                           899.998
# det0y_dial                      43.5135
# det0z                           -4.125
# det0z_dial                      11.1017
# det0zvd                         -4.125
# det0zvd_dial                    -4.125
# distana                         93.4
# distana_dial                    93.4
# mag                             2.6365
# mag_dial                        2.6365
# mon                             0
# mono1B                          1.00136e-08
# mono1B_dial                     -0.277
# mono2B                          1.75476e-07
# mono2B_dial                     -4.366
# mono2X                          -1
# mono2X_dial                     3.96031
# mono2Xi                         0
# mono2Xi_dial                    0
# monoZ                           -11
# monoZ_dial                      -10.6609
# om                              0
# om_dial                         0
# phi                             0
# phi_dial                        -7.01716
# pilai0                          9.569e+10
# pilai1                          0
# pilct0                          9.56901e+10
# pilct1                          0
# pilroi0                         9.56901e+10
# pilroi1                         0
# qana                            0
# qana_dial                       0
# ry                              0
# ry_dial                         0.00149998
# s1bot                           2.2
# s1bot_dial                      -2.77906
# s1hl                            1.3
# s1hl_dial                       -1.22125
# s1hr                            2.7
# s1hr_dial                       3.06625
# s1top                           1.8
# s1top_dial                      1.98391
# s2bot                           1.75
# s2bot_dial                      -2.64531
# s2hl                            1.15
# s2hl_dial                       -1.915
# s2hr                            1.35
# s2hr_dial                       0.534687
# s2top                           0.75
# s2top_dial                      -0.632812
# sec                             0.099
# title                           10_09_2023_0_00023.edf
# ttdeg                           0
# ttdeg_dial                      0
# usaxs0                          0
# wind                            72.0045
# wind_dial                       72.0233
# x                               -21
# x_dial                          -20.2903
# z                               -12.3
# z_dial                          6.80906
# CountCutoff                     15302352
# DetectorModel                   Dectris EIGER2 Si 1M, S/N E-02-0357
# ThresholdSetting                4023.88989258
# Saturation                      0
# FlatField                       Corrected
# BackgroundReductionExtra        0.02
################################################################################
q(A-1)                    I(q)                      Sig(q)                    
0.00016979159920298188    260852.108973733          9.906356625035276         
0.0005093747976089456     259727.36753820506        6.989733954037258         
0.0008489579960149094     256898.72672637258        4.396557631416164         
0.001188541194420873      250194.4551457249         4.338810168098861         
0.0015281243928268369     243305.63466831163        3.682485329780412         
0.001867707591232801      226198.42590773068        3.118585196978518         
0.0022072907896387643     219060.24105027213        2.9073435250347646        
0.002546873988044728      193887.47166490895        2.303246581271479         
0.002886457186450692      177436.39809222092        2.3585640873707763        
0.003226040384856656      157478.47793821653        1.9873847915312723        
0.0035656235832626196     139093.2351442558         1.7944995483706756        
0.0039052067816685828     116091.21900289868        1.55768814499726          
0.004244789980074546      97627.67322087461         1.3224947573945813        
0.004584373178480511      78654.30234616202         1.2318593715235366        
0.004923956376886474      64288.928118418364        0.993578784437111         
0.005263539575292438      51669.81853167754         0.890743691407584         
0.005603122773698402      42823.99482564232         0.815089160694826         
0.005942705972104365      36136.84793024105         0.6968087461737389        
0.00628228917051033       30297.288807258294        0.6408965672716544        
0.0066218723689162925     26274.679838415203        0.5452435475148348        
0.006961455567322258      22204.571074486907        0.5089487730586909        
0.0073010387657282206     18981.303058543785        0.4669551732220687        
0.007640621964134184      16282.65259883004         0.4153998459047933        
0.007980205162540149      13764.562830998597        0.377959476787984         
0.008319788360946111      11760.603438949876        0.3305258525989296        
0.008659371559352074      9699.344678610014         0.30686941136130513       
0.00899895475775804       8094.9569138385295        0.2742193716099737        
0.009338537956164003      6780.765059886927         0.23942959814544537       
0.009678121154569966      5553.452970883224         0.21790833022168749       
0.01001770435297593       4609.319416008217         0.1910690525656461        
0.010357287551381893      3726.552354810297         0.17505598036331643       
0.01069687074978786       3072.3793958647857        0.1498141502814399        
0.011036453948193822      2449.770279016716         0.133131303610976         
0.011376037146599785      1861.6646869289389        0.1163362015821106        
0.01171562034500575       1508.006303596997         0.10297793156744388       
0.012055203543411714      1089.5287626078957        0.08753104050005915       
0.012394786741817678      909.5165461737964         0.07505021782388292       
0.01273436994022364       628.4614306636508         0.06371054450979755       
0.013073953138629604      477.68785467158597        0.054278435577590566      
0.013413536337035568      322.80719383933814        0.04461973627694765       
0.013753119535441533      218.9745941337125         0.036018904281269026      
0.014092702733847497      151.24705625602255        0.029197018921994597      
0.01443228593225346       84.18191847706359         0.022245403736808115      
0.014771869130659422      58.29341889861856         0.01776390428038699       
0.015111452329065385      28.607634002042612        0.012290507053672413      
0.01545103552747135       15.796381179733547        0.009116901288415663      
0.015790618725877316      10.067435362508705        0.0073690074498548395     
0.01613020192428328       3.7966724675964243        0.004696816200040107      
0.01646978512268924       2.6680740976690567        0.0037468648151172835     
0.016809368321095204      0.8732683987430204        0.0021980711320034965     
0.017148951519501167      0.6099047332576543        0.0018073006055789596     
0.017488534717907133      0.30508190087011433       0.0013015964607147313     
0.017828117916313096      0.1527760019264196        0.0009279508054868299     
0.018167701114719062      0.12134866030251305       0.0007894723731201412     
0.018507284313125025      0.05178555484479865       0.0005352705694485732     
0.018846867511530987      0.04005390039003805       0.00045590794200331587    
0.01918645070993695       0.026069817552469354      0.0003749910453739239     
0.019526033908342916      0.021244848136122346      0.0003326075891835196     
0.01986561710674888       0.017827873582808126      0.0003020860227684354     
0.020205200305154842      0.015764533687853327      0.0002916038478290705     
0.020544783503560805      0.014234721643417075      0.00026589381357859947    
0.02088436670196677       0.01281541946459581       0.0002565594036111625     
0.021223949900372737      0.011571608024020349      0.00023739591188547316    
0.0215635330987787        0.01081409606008489       0.00023137382527180608    
0.021903116297184663      0.010350229870620292      0.00023175664257905218    
0.022242699495590625      0.008658478862967087      0.0002021072733404112     
0.022582282693996588      0.008480279683131595      0.0002035572222037417     
0.022921865892402554      0.008020483513807238      0.0001970049636989783     
0.023261449090808517      0.007327322909867786      0.000185632952312842      
0.02360103228921448       0.0071653979859291105     0.00018561184934886278    
0.023940615487620442      0.0063633797572118095     0.00016958203028313347    
0.02428019868602641       0.00591273700806176       0.00016807276814576275    
0.024619781884432375      0.005999578646064469      0.0001664218113590753     
0.024959365082838338      0.0055576879039282        0.00015920221511149575    
0.0252989482812443        0.005147261531418223      0.00015251948663965934    
0.025638531479650263      0.004917198878261386      0.00014582397821713894    
0.025978114678056226      0.004424803597617977      0.00014314142624849261    
0.02631769787646219       0.004228990862881989      0.00013621711462288733    
0.026657281074868155      0.004061911869294957      0.000132346741537174      
0.026996864273274118      0.004113421813194981      0.0001329929687306215     
0.027336447471680087      0.0037709948617544206     0.0001271557059467278     
0.02767603067008605       0.003966501163974756      0.00013153945876231296    
0.028015613868492013      0.003193256591168747      0.00011474470439699158    
0.02835519706689798       0.003209575084585649      0.0001145677592402731     
0.02869478026530394       0.002986352475157378      0.00010962198809844652    
0.029034363463709904      0.0027682137879011066     0.00010309084481476967    
0.029373946662115867      0.0026932190387192914     9.954922634140576e-05     
0.02971352986052183       0.002416804843171855      9.144085223486978e-05     
0.030053113058927793      0.0021676003590305752     8.699924397392368e-05     
0.030392696257333755      0.0022887013232659502     8.918986733909952e-05     
0.03073227945573972       0.002034400880553627      8.29475510960263e-05      
0.031071862654145688      0.0019961037872947614     8.055022965051075e-05     
0.03141144585255165       0.0018432736350434396     7.682668837220921e-05     
0.03175102905095761       0.0017689091360097917     7.510144992141084e-05     
0.032090612249363576      0.001779734899089055      7.423804174505921e-05     
0.03243019544776954       0.001620883436835437      7.012977901081715e-05     
0.03276977864617551       0.0016852358509228237     7.13647135205516e-05      
0.03310936184458147       0.0015412033844285282     6.82470043544735e-05      
0.033448945042987434      0.0015399026865259087     6.77438187885088e-05      
0.0337885282413934        0.001431461545408684      6.369594061844913e-05     
0.03412811143979936       0.001457430026276547      6.421073937978207e-05     
0.03446769463820532       0.0013034105618386664     6.0160448773098544e-05    
0.03480727783661129       0.0013854541647970167     6.296131045977713e-05     
0.035146861035017254      0.001283510391925545      5.899622390583515e-05     
0.03548644423342322       0.001172116250862857      5.563132504139643e-05     
0.03582602743182918       0.00121448820276784       5.754387129723519e-05     
0.03616561063023514       0.0011862230735454127     5.552855147076236e-05     
0.036505193828641105      0.0011290123059801997     5.4937395273821635e-05    
0.03684477702704707       0.0011096385045899215     5.289041878298207e-05     
0.03718436022545303       0.001045145015040369      5.172178699703628e-05     
0.037523943423858994      0.0010364682686866142     5.146295964588179e-05     
0.037863526622264956      0.0009591282117453801     4.8566580166645434e-05    
0.03820310982067092       0.0010018071436016572     4.9594924802446245e-05    
0.03854269301907689       0.0008794673886352821     4.5836930054432374e-05    
0.03888227621748285       0.0009074268137922093     4.7124275809449455e-05    
0.039221859415888814      0.0008529580697202112     4.5725304759169005e-05    
0.039561442614294784      0.0008868423678898993     4.500471195992335e-05     
0.03990102581270075       0.0008204134314629131     4.39586112932372e-05      
0.04024060901110671       0.0007711181738197783     4.168221481110919e-05     
0.04058019220951267       0.000859084183107239      4.48426699379085e-05      
0.040919775407918635      0.0007729322930644921     4.1637926457234234e-05    
0.0412593586063246        0.000687515635244969      3.9037911901887476e-05    
0.04159894180473056       0.0007296660416130809     4.069921482272396e-05     
0.04193852500313653       0.0006719844421332989     3.801122543925431e-05     
0.04227810820154249       0.0007027922077997731     3.938248597059996e-05     
0.042617691399948456      0.0007045790993692881     3.845809028156508e-05     
0.04295727459835442       0.0006998571097032165     3.879168609846864e-05     
0.04329685779676038       0.0006460959203274845     3.737897914788375e-05     
0.043636440995166344      0.0006240731736457978     3.589534438003148e-05     
0.043976024193572306      0.0006001139759274051     3.541892210401982e-05     
0.04431560739197827       0.0006610012898308655     3.6494394504521607e-05    
0.04465519059038423       0.0006401093176948239     3.6378709470190567e-05    
0.044994773788790195      0.0005987554187531204     3.506382064010207e-05     
0.045334356987196164      0.0005884711876554082     3.407119976887018e-05     
0.04567394018560213       0.0005983966956833171     3.46307844178533e-05      
0.0460135233840081        0.0005902235117463594     3.387864930960916e-05     
0.04635310658241406       0.0005559524922673419     3.313830459492861e-05     
0.04669268978082002       0.0006061353703878114     3.409098404633931e-05     
0.047032272979225985      0.0005380566195002798     3.207870299432591e-05     
0.04737185617763195       0.0005260592187715295     3.1943114788783854e-05    
0.04771143937603791       0.0005526181285571077     3.226492100602575e-05     
0.04805102257444387       0.000502116831791167      3.075537809531671e-05     
0.048390605772849836      0.0005185841859143871     3.066643611017613e-05     
0.0487301889712558        0.00046212017857788387    2.928602367110994e-05     
0.04906977216966177       0.000500042625302383      3.0426518336354405e-05    
0.04940935536806773       0.0005056674646404896     3.0209542709642852e-05    
0.049748938566473694      0.0005004506463864751     3.0253528885069376e-05    
0.05008852176487966       0.00046748318454311975    2.8587581663492666e-05    
0.05042810496328562       0.0004361319343330427     2.8022215822613355e-05    
0.05076768816169158       0.0004182126372217595     2.7070690672829242e-05    
0.051107271360097545      0.0004582902031456739     2.8207120893141522e-05    
0.05144685455850351       0.0004331281604832815     2.7549285173729815e-05    
0.05178643775690947       0.00041854373937254665    2.6695845816205494e-05    
0.05212602095531544       0.0004272569416464883     2.7458077536629712e-05    
0.0524656041537214        0.00036650061768567953    2.4581180924161924e-05    
0.05280518735212737       0.000398433422716594      2.591514462096312e-05     
0.053144770550533335      0.00040418109362215087    2.6160094369577186e-05    
0.0534843537489393        0.0004103378081458809     2.6081390239108192e-05    
0.05382393694734526       0.00043305610569619347    2.7093755175522504e-05    
0.054163520145751216      0.00039056365882818474    2.485030741023866e-05     
0.054503103344157186      0.00037996472876422133    2.4919933839155133e-05    
0.05484268654256314       0.00039544969023211146    2.523164717419368e-05     
0.05518226974096911       0.00038418627540314214    2.488307246174735e-05     
0.05552185293937507       0.0003998058950856886     2.5383903694771654e-05    
0.05586143613778104       0.0003675708957811111     2.3883209468275602e-05    
0.05620101933618699       0.00036906463974919264    2.4375534949803753e-05    
0.05654060253459296       0.00033751228826276434    2.2792127179629774e-05    
0.05688018573299892       0.00037616355301068195    2.4123603894949298e-05    
0.05721976893140489       0.00035816203752213577    2.3587879466904683e-05    
0.05755935212981085       0.00033082925604195276    2.239438322320139e-05     
0.05789893532821682       0.00035178924290212515    2.3498736610904225e-05    
0.05823851852662278       0.0003434418968064039     2.2524380536199397e-05    
0.058578101725028746      0.0003443071273858948     2.2720623595115988e-05    
0.058917684923434716      0.000348334758112242      2.2819102188746034e-05    
0.05925726812184067       0.0003514309228377101     2.280736838856234e-05     
0.05959685132024664       0.00029402450989026184    2.1027671508517662e-05    
0.0599364345186526        0.00034191622240544155    2.214024663114893e-05     
0.060276017717058566      0.00031089369893967916    2.1336710292095906e-05    
0.06061560091546452       0.00032092326330405936    2.159432253986018e-05     
0.06095518411387049       0.0003116439983792132     2.1188045920425155e-05    
0.06129476731227645       0.0003218091182874671     2.1459113940788546e-05    
0.06163435051068242       0.00029420649932030736    2.036393991311367e-05     
0.06197393370908839       0.00029929381367316087    2.0714590149622562e-05    
0.06231351690749434       0.00032851227294078666    2.13986745204688e-05      
0.06265310010590032       0.0003194142629980955     2.1041952059531957e-05    
0.06299268330430627       0.00025737634814463993    1.889705285962522e-05     
0.06333226650271225       0.0003320843542591323     2.1425735291848e-05       
0.0636718497011182        0.00030489640267119904    2.0692123581722876e-05    
0.06401143289952417       0.0002998214306846816     1.9994544804249483e-05    
0.06435101609793012       0.00026514979191469116    1.9057889920075864e-05    
0.0646905992963361        0.0003166441052057985     2.0566132200700805e-05    
0.06503018249474204       0.00028332628898233077    1.95760738005034e-05      
0.06536976569314802       0.00027422023897643227    1.9122003289257536e-05    
0.06570934889155398       0.00028704095082046887    1.930908518116528e-05     
0.06604893208995995       0.0003193162994501144     2.0726590426788357e-05    
0.06638851528836591       0.00030609986234700907    2.0000394873295003e-05    
0.06672809848677187       0.00029357462940603814    1.9629610283686465e-05    
0.06706768168517784       0.0002721411156837726     1.8688872248779353e-05    
0.0674072648835838        0.0003182245020354101     2.0175044369345646e-05    
0.06774684808198977       0.0003235075206768048     2.0633171857393385e-05    
0.06808643128039572       0.0002430751002703529     1.746293885188196e-05     
0.0684260144788017        0.0002787461022387639     1.885029214019621e-05     
0.06876559767720765       0.0003006532526942196     1.9397228876590492e-05    
0.06910518087561363       0.0002889784549415776     1.9168906814207326e-05    
0.06944476407401959       0.00027916528753133815    1.8801009090749656e-05    
0.06978434727242555       0.0002959445787750963     1.889470929471942e-05     
0.07012393047083151       0.00028239818311282905    1.8893756592472856e-05    
0.07046351366923748       0.00027451760595584805    1.8286056047393883e-05    
0.07080309686764344       0.00028095108501877684    1.865831138229409e-05     
0.0711426800660494        0.00027389184579860483    1.8221109434611682e-05    
0.07148226326445536       0.0002797616804954835     1.818261835532869e-05     
0.07182184646286133       0.00027455215440825307    1.8391824152117635e-05    
0.07216142966126729       0.00028148102613090184    1.8324993034506546e-05    
0.07250101285967325       0.0002473657219387728     1.726094807065065e-05     
0.07284059605807922       0.00030314312441053224    1.886085590792472e-05     
0.07318017925648519       0.0002914905686909786     1.845891484228695e-05     
0.07351976245489114       0.0002692434136045986     1.8051577877458173e-05    
0.07385934565329712       0.00023395728506060028    1.6391576766416405e-05    
0.07419892885170308       0.00023808285619601695    1.6637342754100567e-05    
0.07453851205010904       0.0002826961241576579     1.8115307776307826e-05    
0.074878095248515         0.00025109324701056747    1.707936742126972e-05     
0.07521767844692097       0.0002816506427989279     1.810281002120614e-05     
0.07555726164532693       0.00023583723207809302    1.6110978079421484e-05    
0.0758968448437329        0.0002921003064730011     1.8315739333927393e-05    
0.07623642804213886       0.0002685537669774822     1.7390446208019482e-05    
0.07657601124054482       0.0002438819623182286     1.6697781293184306e-05    
0.0769155944389508        0.00024177644767898237    1.6415048021091902e-05    
0.07725517763735675       0.00024098312198623224    1.6303875621717965e-05    
0.07759476083576272       0.0002533863612561046     1.6905027517696382e-05    
0.07793434403416867       0.0002383758110995799     1.6203646551459073e-05    
0.07827392723257465       0.00024182958040494288    1.6320648844732066e-05    
0.0786135104309806        0.00024658650943101004    1.630834790766487e-05     
0.07895309362938657       0.0002716140873370929     1.723368884267649e-05     
0.07929267682779252       0.00024554996509889394    1.6457873959698043e-05    
0.0796322600261985        0.00023291711271157943    1.5726560847250692e-05    
0.07997184322460446       0.0002679843318468908     1.6946842292780882e-05    
0.08031142642301042       0.0002757878621946019     1.717352974153015e-05     
0.08065100962141639       0.0002554582261213143     1.6593428425056443e-05    
0.08099059281982235       0.00023613567190944077    1.5862994516413288e-05    
0.08133017601822833       0.0002612699553778699     1.6443330262369727e-05    
0.08166975921663427       0.0002696480042829438     1.6915507832514576e-05    
0.08200934241504025       0.0002547317761875078     1.625312882146647e-05     
0.0823489256134462        0.00026876984539762194    1.687613711207719e-05     
0.08268850881185218       0.00026980819457132885    1.6613249099874945e-05    
0.08302809201025813       0.0002539447806094906     1.6205818800602686e-05    
0.0833676752086641        0.00023832100203639546    1.5764517576779314e-05    
0.08370725840707006       0.00024097820220332804    1.563183229147495e-05     
0.08404684160547603       0.0002317602656126706     1.5402758545738245e-05    
0.08438642480388199       0.00026420187085384546    1.623177279915449e-05     
0.08472600800228795       0.00023679611626515053    1.5579876137983355e-05    
0.08506559120069392       0.000278628486922867      1.6877189013588836e-05    
0.08540517439909988       0.000236857786862558      1.5273197058240755e-05    
0.08574475759750584       0.0002699740683324664     1.647939013539287e-05     
0.0860843407959118        0.0002698960549057976     1.624538723197695e-05     
0.08642392399431777       0.00025054222804131443    1.5875334178727113e-05    
0.08676350719272373       0.0002443740742501469     1.5503666844341028e-05    
0.0871030903911297        0.0002298277954531418     1.4942767734063221e-05    
0.08744267358953567       0.00022563995946307976    1.4966215620531828e-05    
0.08778225678794163       0.00027044438733107737    1.6111109983337896e-05    
0.0881218399863476        0.00024328800479119482    1.5474397659968022e-05    
0.08846142318475356       0.00025456775548289123    1.553734279689913e-05     
0.08880100638315952       0.0002470721520214399     1.5423928814849368e-05    
0.08914058958156548       0.0002545473766128739     1.578733442193613e-05     
0.08948017277997145       0.00024218644379631787    1.5121623357080605e-05    
0.08981975597837741       0.00024811335617102556    1.533927632187503e-05     
0.09015933917678337       0.00024932946426305287    1.5280938725002183e-05    
0.09049892237518933       0.0002533998355887407     1.5531284744320625e-05    
0.0908385055735953        0.00022279305348114594    1.457239499524848e-05     
0.09117808877200127       0.00024976441444967426    1.5181513405236067e-05    
0.09151767197040722       0.00022673800257827574    1.4627051755351895e-05    
0.0918572551688132        0.0002682585723223077     1.5657070492677897e-05    
0.09219683836721915       0.0002413763703711196     1.4979710054492312e-05    
0.09253642156562512       0.00023967891502716396    1.4817631185623315e-05    
0.09287600476403109       0.0002424528937128381     1.4849079460963088e-05    
0.09321558796243705       0.0001847819319996023     1.3114681349151522e-05    
0.09355517116084301       0.00025563877583262875    1.5270677575773488e-05    
0.09389475435924897       0.0002393017343744837     1.4756849592918135e-05    
0.09423433755765494       0.00019934634543863902    1.3281445767598132e-05    
0.0945739207560609        0.0002245085037241385     1.4237726047503028e-05    
0.09491350395446688       0.000229533354600187      1.4452647713667108e-05    
0.09525308715287283       0.00021530650243226855    1.386012418902371e-05     
0.0955926703512788        0.0002121614987431158     1.3726076297220871e-05    
0.09593225354968475       0.00025329199680048097    1.4879742865885418e-05    
0.09627183674809073       0.000211548868864687      1.376324907223232e-05     
0.09661141994649668       0.0002270827591200888     1.4117679994450913e-05    
0.09695100314490265       0.00022598398225830588    1.4067139296824273e-05    
0.0972905863433086        0.00020289276788316597    1.3368038980812423e-05    
0.09763016954171458       0.00023366813501778607    1.4213775203805715e-05    
0.09796975274012054       0.0002067070455591683     1.350899980145633e-05     
0.0983093359385265        0.00020601506207431654    1.3155147696305529e-05    
0.09864891913693247       0.00021103313856634276    1.3535157003513087e-05    
0.09898850233533843       0.00018495556010617153    1.2645867845642804e-05    
0.09932808553374439       0.0002227625103990584     1.3834721576368735e-05    
0.09966766873215036       0.00020964280832498416    1.3432678115749714e-05    
0.10000725193055632       0.00019436946483932467    1.2655197138512856e-05    
0.10034683512896228       0.000200565824727985      1.3101362693636889e-05    
0.10068641832736826       0.00019016580245805173    1.2667554202104915e-05    
0.1010260015257742        0.00021745105551503876    1.353455598871654e-05     
0.10136558472418018       0.00019617839830329007    1.2844764762991894e-05    
0.10170516792258615       0.00019128045932839774    1.2557863003517124e-05    
0.10204475112099211       0.00020937217551905053    1.3280878223234806e-05    
0.10238433431939807       0.0002001447188518615     1.2842110433301784e-05    
0.10272391751780403       0.0002037976770103374     1.2895481692980888e-05    
0.10306350071621          0.0001939978491893028     1.269564393591029e-05     
0.10340308391461596       0.00019480187619169172    1.2607740659926243e-05    
0.10374266711302192       0.0001947369170584058     1.2762190023372768e-05    
0.10408225031142788       0.00019672856551239542    1.2508436526445899e-05    
0.10442183350983385       0.0002217778392515944     1.3401805466009065e-05    
0.10476141670823981       0.00018893419984450718    1.2406490157483596e-05    
0.10510099990664577       0.00019520463116144893    1.2583533045024486e-05    
0.10544058310505175       0.00019450038046469844    1.2560853731573529e-05    
0.1057801663034577        0.00020075293218787515    1.2540290658962285e-05    
0.10611974950186367       0.0002060897992927868     1.286067700467406e-05     
0.10645933270026964       0.00018095936525008144    1.1993751881555621e-05    
0.1067989158986756        0.00020693197237445937    1.2815520422906704e-05    
0.10713849909708156       0.00020839498558679247    1.2840506039360542e-05    
0.10747808229548753       0.00019366390816869525    1.2329920183805162e-05    
0.1078176654938935        0.0001911966118884502     1.2341534650117232e-05    
0.10815724869229947       0.00018733103334702268    1.2048500690812226e-05    
0.10849683189070543       0.00019190160445065128    1.2175862171269112e-05    
0.1088364150891114        0.00019845676348525162    1.2410788362548543e-05    
0.10917599828751737       0.0001907189212946747     1.2201096614486364e-05    
0.10951558148592332       0.00020296025669023254    1.2609501998981355e-05    
0.10985516468432928       0.00021208283025279478    1.2680528614579319e-05    
0.11019474788273526       0.00017998112610228149    1.1791829296065512e-05    
0.11053433108114122       0.00018792392476780863    1.192454703689975e-05     
0.11087391427954717       0.00018794696692017932    1.2034615963848155e-05    
0.11121349747795313       0.0001991312378498788     1.2271975089004376e-05    
0.1115530806763591        0.00020218875092244205    1.233187019806697e-05     
0.11189266387476507       0.00019325640947529362    1.2160082056647534e-05    
0.11223224707317102       0.00020330936994633768    1.2338393300430922e-05    
0.11257183027157701       0.00018724133069466235    1.1870369034059438e-05    
0.11291141346998296       0.00018519241090314445    1.1723586182373316e-05    
0.11325099666838892       0.00019366752792438602    1.201555024323777e-05     
0.11359057986679488       0.00018285016726930515    1.1786537395928754e-05    
0.11393016306520086       0.00018748754505760966    1.1684426330998003e-05    
0.11426974626360681       0.00020027959765808376    1.2197963680205219e-05    
0.11460932946201277       0.00016077291787925082    1.0827938373390957e-05    
0.11494891266041873       0.00018050275477191497    1.1563051435918178e-05    
0.11528849585882471       0.00017914515597585739    1.1513866401363062e-05    
0.11562807905723067       0.0002052442839891922     1.210034249668187e-05     
0.11596766225563662       0.00018160710331748998    1.1598493288252424e-05    
0.11630724545404261       0.0001926939313735578     1.179464758256611e-05     
0.11664682865244856       0.0001902380967112583     1.1741814871719709e-05    
0.11698641185085452       0.00017478522398210738    1.1201119412515657e-05    
0.11732599504926047       0.00017780744982944       1.125477057657489e-05     
0.11766557824766646       0.00021207365337415777    1.2469695832428098e-05    
0.11800516144607241       0.00020388165501736676    1.2031959410949885e-05    
0.11834474464447838       0.000191461559617034      1.1665259893305837e-05    
0.11868432784288432       0.00019299451519304918    1.1667961864886371e-05    
0.11902391104129031       0.00020266022523381157    1.1965023663309347e-05    
0.11936349423969626       0.00017359848875335968    1.118464649009355e-05     
0.11970307743810223       0.00017477272206652488    1.1006137931519722e-05    
0.1200426606365082        0.00018458786218280033    1.1405838604914936e-05    
0.12038224383491417       0.0001755628548951335     1.1074454660476295e-05    
0.12072182703332013       0.0001859677788289736     1.142445616152251e-05     
0.12106141023172608       0.00017748283847279374    1.1111770788177146e-05    
0.12140099343013205       0.00016588281431239424    1.0668920188738165e-05    
0.12174057662853802       0.0001733918644037627     1.1008484616236994e-05    
0.12208015982694398       0.00018869209260351184    1.1384074254682982e-05    
0.12241974302534993       0.0001999740139136972     1.1778708588031299e-05    
0.12275932622375592       0.00019378537697000355    1.1438151760371346e-05    
0.12309890942216187       0.00017833486874600216    1.1059798047512694e-05    
0.12343849262056783       0.00018271876589707317    1.1235941516693536e-05    
0.1237780758189738        0.00019442731375750666    1.1472641524669412e-05    
0.12411765901737977       0.0001753712150855716     1.0918056257297485e-05    
0.12445724221578572       0.0001919126023584506     1.1339860243384569e-05    
0.12479682541419168       0.00016945665600594812    1.0730028767338554e-05    
0.12513640861259767       0.00018072386957659425    1.1043771171280157e-05    
0.1254759918110036        0.0001775612010253031     1.0826217802060832e-05    
0.12581557500940957       0.00016521120256877682    1.05687121540667e-05      
0.12615515820781553       0.0001734347332687034     1.0716203304427274e-05    
0.12649474140622152       0.00019301154736544871    1.1426014256218405e-05    
0.12683432460462746       0.00017149483841570902    1.0593536212805142e-05    
0.12717390780303342       0.00017976457188643579    1.0864876878065886e-05    
0.1275134910014394        0.0001953878946659903     1.1414592331804722e-05    
0.12785307419984537       0.00016980017047127396    1.052976442013583e-05     
0.12819265739825134       0.0001725930175618106     1.0713980588462613e-05    
0.12853224059665727       0.0001789768126791773     1.073646633823438e-05     
0.12887182379506326       0.00018913868001898791    1.11302392329294e-05      
0.12921140699346922       0.00019297403772841368    1.1254801619743635e-05    
0.1295509901918752        0.0001689059550803629     1.0414585827824242e-05    
0.12989057339028112       0.00016384145607379455    1.0316816570055884e-05    
0.1302301565886871        0.00020304196926389817    1.1377549000411297e-05    
0.13056973978709308       0.00017622071099457869    1.0741306007488364e-05    
0.13090932298549904       0.00016408153280633608    1.0260566764406411e-05    
0.131248906183905         0.00016517814456557849    1.0193366721185554e-05    
0.13158848938231096       0.00018189702925217123    1.0840316354199448e-05    
0.13192807258071693       0.00018528790550240902    1.0830091114104425e-05    
0.1322676557791229        0.00019290096464374016    1.1149159141659143e-05    
0.13260723897752885       0.0001713367450176983     1.034304504961966e-05     
0.13294682217593481       0.00019351027164773472    1.1033217454661366e-05    
0.13328640537434078       0.0001786852940206016     1.0655710458583666e-05    
0.13362598857274674       0.00017527854557919278    1.0489756747304417e-05    
0.1339655717711527        0.00018237989043240582    1.0713579963957944e-05    
0.13430515496955867       0.00017702114600793973    1.0459414316973366e-05    
0.13464473816796463       0.00017308072047885482    1.042391240819047e-05     
0.13498432136637062       0.0001758318081513472     1.0495549583604205e-05    
0.13532390456477658       0.0001669011996558282     1.0096322872593583e-05    
0.13566348776318252       0.00018566880593773004    1.073626020419222e-05     
0.13600307096158848       0.00017781926432905136    1.0442588717849011e-05    
0.13634265415999447       0.00017841625899631778    1.0583581180671917e-05    
0.13668223735840043       0.0001747397859864688     1.0324590838057892e-05    
0.13702182055680637       0.00019087885251040055    1.0771302438962704e-05    
0.13736140375521233       0.0001740276873087252     1.0305704602103204e-05    
0.13770098695361832       0.0001781519156061407     1.0412405398842388e-05    
0.13804057015202428       0.00017327285167851195    1.0329521562699847e-05    
0.13838015335043022       0.00018357004087002658    1.0456282991424278e-05    
0.1387197365488362        0.00017553959866167736    1.033382853494108e-05     
0.13905931974724217       0.00016864357650134504    1.0088227930112151e-05    
0.13939890294564813       0.00015425894825747718    9.654237008605319e-06     
0.1397384861440541        0.00016651008532874556    9.992347800950516e-06     
0.14007806934246006       0.00014811595016554584    9.35206012072812e-06      
0.14041765254086602       0.00016943081022097664    1.0138335206918026e-05    
0.14075723573927199       0.0001647993302969627     9.884166620811994e-06     
0.14109681893767795       0.00016303733437997528    9.825433745511698e-06     
0.1414364021360839        0.00016083747409813894    9.766638966638426e-06     
0.14177598533448987       0.00016089998407602154    9.713329885641703e-06     
0.14211556853289584       0.00017360231146322703    1.0233817780536189e-05    
0.14245515173130183       0.000161478859556736      9.674590880364883e-06     
0.14279473492970776       0.0001805493935212665     1.0291491376638689e-05    
0.14313431812811372       0.0001605061950734323     9.697834628658328e-06     
0.1434739013265197        0.0001642311180235732     9.779403704988139e-06     
0.14381348452492568       0.00017097428298959512    1.0046332140759047e-05    
0.1441530677233316        0.0001559604504668685     9.421515537286098e-06     
0.14449265092173758       0.0001536734434071314     9.507832977234496e-06     
0.14483223412014354       0.00014945653310856748    9.293488518240643e-06     
0.14517181731854953       0.0001645660357146576     9.720375262429934e-06     
0.14551140051695546       0.00015978178674659765    9.583556903835914e-06     
0.14585098371536143       0.00016452646410779589    9.65697815043138e-06      
0.14619056691376742       0.00016214205917396696    9.722987122471075e-06     
0.14653015011217338       0.00016344737374912453    9.760202306452753e-06     
0.14686973331057934       0.00015363677285077772    9.466454060307481e-06     
0.14720931650898528       0.00014820918855511047    9.344894650805762e-06     
0.14754889970739127       0.00015832244096346005    9.654735922139792e-06     
0.14788848290579723       0.0001592223215802134     9.766439844426261e-06     
0.1482280661042032        0.00015364540733783737    9.452276513084125e-06     
0.14856764930260913       0.00015092785222681036    9.443309736855548e-06     
0.14890723250101512       0.00015932164222372985    9.69859446139422e-06      
0.14924681569942108       0.0001557172312214445     9.647028041107874e-06     
0.14958639889782704       0.00015544872967663273    9.559512045970023e-06     
0.149925982096233         0.00013653334557212234    8.941668784456966e-06     
0.15026556529463897       0.00015704415833244637    9.707434727449933e-06     
0.15060514849304493       0.000152003393144613      9.488318864889665e-06     
0.1509447316914509        0.00015066194656322687    9.478098259284067e-06     
0.15128431488985686       0.00014584623205712751    9.266989596554012e-06     
0.15162389808826282       0.00016251043848776063    9.818626550272071e-06     
0.15196348128666878       0.00015234272801492308    9.603375203172823e-06     
0.15230306448507475       0.00014853676773639177    9.359519207297363e-06     
0.1526426476834807        0.00016594050448601465    9.969016006257384e-06     
0.15298223088188667       0.000154041361792144      9.538921284741042e-06     
0.15332181408029263       0.00016448523587215814    9.931217763391687e-06     
0.15366139727869862       0.00016483607489743303    9.953730485845564e-06     
0.1540009804771046        0.00016582799423192488    9.849169288063151e-06     
0.15434056367551052       0.0001743744861207262     1.0274691745669587e-05    
0.15468014687391649       0.00014608729487973867    9.307848209855647e-06     
0.15501973007232248       0.00015000022624851568    9.510589074131788e-06     
0.15535931327072844       0.00016262321924217176    9.81096986458896e-06      
0.15569889646913437       0.00016408968496429765    9.853220085101746e-06     
0.15603847966754036       0.00015036766396240268    9.55297327604352e-06      
0.15637806286594633       0.00016280932250813213    9.807105247316177e-06     
0.1567176460643523        0.00015912869342013392    9.76475476954477e-06      
0.15705722926275822       0.00017872580676284134    1.028952270313142e-05     
0.15739681246116421       0.00017182329017543867    1.0114777099945558e-05    
0.15773639565957018       0.0001497514893059663     9.537448368163878e-06     
0.15807597885797614       0.0001475497088448552     9.303689850703724e-06     
0.1584155620563821        0.00016963230665712912    1.0171416387979256e-05    
0.15875514525478807       0.00016120013666043548    9.957809017180221e-06     
0.15909472845319403       0.00015377098140592       9.79990933891881e-06      
0.1594343116516           0.00016017629917606502    1.0004054519581308e-05    
0.15977389485000595       0.00015032828101742233    9.645844847083507e-06     
0.16011347804841192       0.000154375299161524      9.94359160641707e-06      
0.16045306124681788       0.00015450111186779972    9.891152100565269e-06     
0.16079264444522384       0.0001632178565405691     1.023538054747889e-05     
0.16113222764362983       0.0001511684658011343     9.77783395569917e-06      
0.16147181084203577       0.0001571495627462281     1.0043406986362675e-05    
0.16181139404044173       0.00016018262048205487    1.0233977402664968e-05    
0.1621509772388477        0.00016177895900864003    1.0203400147812079e-05    
0.16249056043725368       0.00015641568274820546    1.0084654610140073e-05    
0.16283014363565962       0.00014192404122384604    9.579385891095409e-06     
0.16316972683406558       0.00015188210174770894    1.0017735560316951e-05    
0.16350931003247157       0.00013341974811914106    9.358504194112084e-06     
0.16384889323087753       0.00015619263770945893    1.0066821871402428e-05    
0.16418847642928347       0.00016295504859218404    1.0440863279323735e-05    
0.16452805962768943       0.00016291285863093664    1.0348187607689014e-05    
0.16486764282609542       0.00017145375913698462    1.0772056119938992e-05    
0.16520722602450139       0.0001542665271640617     1.003719129635159e-05     
0.16554680922290735       0.00017116931083044362    1.0677348207448315e-05    
0.16588639242131328       0.00017376965355102024    1.0842296914447356e-05    
0.16622597561971927       0.00015551919711163071    1.0148552774150726e-05    
0.16656555881812524       0.00017142607888435724    1.0771460812716487e-05    
0.1669051420165312        0.00014705923820905632    9.879611412615413e-06     
0.16724472521493716       0.00014790634756071236    1.0021137835249661e-05    
0.16758430841334312       0.00015443830267611823    1.0270167523858179e-05    
0.1679238916117491        0.00016667605753135602    1.054363644000125e-05     
0.16826347481015505       0.0001538765288496368     1.027953624849799e-05     
0.168603058008561         0.00016056859887523164    1.040178478843474e-05     
0.16894264120696698       0.00014517207973699893    1.0005176150129119e-05    
0.16928222440537294       0.00014449985686845916    9.896468164437662e-06     
0.1696218076037789        0.00017393113954176635    1.0840659056224023e-05    
0.16996139080218486       0.0001701123452202047     1.0880576818108358e-05    
0.17030097400059083       0.0001580409660413987     1.0408561373015579e-05    
0.1706405571989968        0.0001621372974356013     1.059087381772461e-05     
0.17098014039740278       0.00014672406272113995    1.0004112228402715e-05    
0.17131972359580872       0.0001580604633503148     1.043309520901414e-05     
0.17165930679421468       0.00015304920807861206    1.0323123204864662e-05    
0.17199888999262064       0.00015487524773376624    1.0336985776955503e-05    
0.17233847319102663       0.00015834695713740497    1.0483461311367315e-05    
0.17267805638943257       0.00015337342570679774    1.0289206654992072e-05    
0.17301763958783853       0.0001523886968512922     1.038281584460006e-05     
0.1733572227862445        0.00015553475342417958    1.03710530891289e-05      
0.17369680598465048       0.000150220475882986      1.0206432078450364e-05    
0.17403638918305644       0.00014292285095763115    1.0001557009313715e-05    
0.17437597238146238       0.00016123871433836368    1.0608410014146738e-05    
0.17471555557986837       0.0001609230470594316     1.0735509039801033e-05    
0.17505513877827433       0.00015505677989843266    1.0315276879833589e-05    
0.1753947219766803        0.00015212449926142412    1.0379067245428511e-05    
0.17573430517508623       0.00016531144552309773    1.0781753872491717e-05    
0.17607388837349222       0.00015903135655744784    1.0589846028402967e-05    
0.17641347157189818       0.00014536356339206328    1.0181867481075528e-05    
0.17675305477030415       0.00015933220995888224    1.0487852503167788e-05    
0.17709263796871008       0.00016138722224215307    1.0779563082932906e-05    
0.17743222116711607       0.00015901315065625036    1.0582055055765034e-05    
0.17777180436552203       0.00016548817950587822    1.0808031310937203e-05    
0.178111387563928         0.00013982356250744936    1.003137093253413e-05     
0.17845097076233396       0.00013298216364988777    9.645912650652675e-06     
0.17879055396073992       0.00014976348773643354    1.043430139835602e-05     
0.17913013715914589       0.0001446539254882667     1.0074450559317473e-05    
0.17946972035755185       0.00016345507912448966    1.0797426227776416e-05    
0.1798093035559578        0.00014515599116758217    1.0223582470167114e-05    
0.18014888675436377       0.0001772164855745355     1.1224337450410684e-05    
0.18048846995276974       0.00015161278564781514    1.0519102682273332e-05    
0.1808280531511757        0.00016073891212813139    1.0639908194022822e-05    
0.1811676363495817        0.00014758770536632375    1.0314012024951933e-05    
0.18150721954798762       0.00014870405895513433    1.0335742633052423e-05    
0.1818468027463936        0.00015774245587100208    1.0637685651565469e-05    
0.18218638594479958       0.00014561694471638297    1.0262256991541958e-05    
0.18252596914320554       0.00014058784116490698    1.0026061116134452e-05    
0.18286555234161148       0.00017133500290305293    1.122631900882497e-05     
0.18320513554001744       0.00015957656868987403    1.0691970097659346e-05    
0.18354471873842343       0.00016176625486497264    1.0803662735382013e-05    
0.1838843019368294        0.00015872260441767937    1.0711850369018933e-05    
0.18422388513523533       0.000157809657520471      1.0709306263025278e-05    
0.1845634683336413        0.0001483478300015765     1.0448958655228055e-05    
0.18490305153204728       0.00013934854156712637    9.949229771471097e-06     
0.18524263473045324       0.00016713423960770931    1.1080184539540711e-05    
0.1855822179288592        0.00014734193507191738    1.0281654169685686e-05    
0.18592180112726517       0.00015344174110852065    1.064526452849996e-05     
0.18626138432567113       0.00016149691700675857    1.0860241770325452e-05    
0.1866009675240771        0.00011291589328067188    9.03313331181464e-06      
0.18694055072248306       0.00016033251330147422    1.0916625776052176e-05    
0.18728013392088902       0.00015302228611505835    1.048574760565245e-05     
0.18761971711929498       0.00014513825088807115    1.0335838227968753e-05    
0.18795930031770094       0.0001638701388259439     1.091895210839757e-05     
0.1882988835161069        0.00015113340483041644    1.0531874978574246e-05    
0.18863846671451287       0.00015801395693311213    1.0877962570827073e-05    
0.18897804991291883       0.00014747035471923188    1.0301423379865414e-05    
0.1893176331113248        0.00016693337999900833    1.107428870161409e-05     
0.1896572163097308        0.0001490656223109262     1.043701457306238e-05     
0.18999679950813672       0.00015265529877617412    1.0623883494207345e-05    
0.19033638270654268       0.00016119251734173653    1.0943804902686225e-05    
0.19067596590494865       0.0001552188225176953     1.061198061275735e-05     
0.19101554910335464       0.00015097041175466395    1.0664976414473462e-05    
0.19135513230176057       0.0001491702542072102     1.0398288606279747e-05    
0.19169471550016653       0.00015411893181697597    1.0698607626344681e-05    
0.1920342986985725        0.0001499886904703904     1.0490038810167351e-05    
0.1923738818969785        0.00016516405971691108    1.1048331062245689e-05    
0.19271346509538445       0.0001606362720513188     1.1045598487742873e-05    
0.19305304829379039       0.00013685047417788244    1.0022687563173e-05       
0.19339263149219638       0.00014964808079981606    1.050905198434037e-05     
0.19373221469060234       0.0001480111025285794     1.040328531779309e-05     
0.1940717978890083        0.00014844622965273018    1.0541869001493897e-05    
0.19441138108741424       0.00014653250939940292    1.0484160573651977e-05    
0.19475096428582023       0.00014398973497064543    1.0266142931667957e-05    
0.1950905474842262        0.00016262319366594955    1.1094648533272516e-05    
0.19543013068263215       0.0001473000367246719     1.0376063834330571e-05    
0.19576971388103812       0.00014139260410654843    1.0371272859441321e-05    
0.19610929707944408       0.00015630898576905798    1.072518711700725e-05     
0.19644888027785004       0.0001554681290252781     1.0788770162966563e-05    
0.196788463476256         0.00015157210620907646    1.0732910742703727e-05    
0.19712804667466197       0.00016507062072184428    1.0992455512345483e-05    
0.19746762987306793       0.00014115863576205287    1.0329232863061892e-05    
0.1978072130714739        0.0001422708680723675     1.0232553971756344e-05    
0.19814679626987985       0.00016691767765281872    1.1212729875074298e-05    
0.19848637946828582       0.00015927860411657214    1.1005483018558458e-05    
0.19882596266669178       0.00015329401102277931    1.0660798357963095e-05    
0.19916554586509774       0.00015152511743794824    1.0715537840864878e-05    
0.19950512906350373       0.00016164500357305456    1.0915361994049666e-05    
0.1998447122619097        0.000148581481296048      1.0629757804348736e-05    
0.20018429546031563       0.00014527013778534655    1.043997841277461e-05     
0.2005238786587216        0.00015352819058288533    1.0724690936636936e-05    
0.20086346185712758       0.00013754101614336462    1.0284519843644454e-05    
0.20120304505553355       0.0001306565053794974     9.81137589166073e-06      
0.20154262825393948       0.00016235765572610361    1.1131598092797257e-05    
0.20188221145234544       0.00013445976300065216    9.997261296576277e-06     
0.20222179465075144       0.00015459345588648195    1.0867799928960834e-05    
0.2025613778491574        0.00015907951684834476    1.1281276471640865e-05    
0.20290096104756333       0.00014931634877052803    1.1113685147232589e-05    
0.20324054424596932       0.00016728567505759463    1.1944764828273244e-05    
0.2035801274443753        0.00015865643978512107    1.1613025282401051e-05    
0.20391971064278125       0.0001587143666513397     1.1889350979131413e-05    
0.2042592938411872        0.00013296529902810737    1.0850389146295543e-05    
0.20459887703959317       0.0001401008144921188     1.1237034566843926e-05    
0.20493846023799914       0.0001613619031906964     1.2217392833150483e-05    
0.2052780434364051        0.0001562307430168178     1.1992309311091134e-05    
0.20561762663481106       0.000147764056164353      1.1958027490451797e-05    
0.20595720983321703       0.0001488845135050227     1.1786386974434303e-05    
0.206296793031623         0.00012816720487838443    1.1301106525236444e-05    
0.20663637623002895       0.0001252129652126257     1.1108065357180935e-05    
0.20697595942843494       0.00015354896915090546    1.2456340078989592e-05    
0.20731554262684088       0.0001657328788277297     1.2980316836983032e-05    
0.20765512582524684       0.0001652304232664723     1.2887203151169471e-05    
0.2079947090236528        0.00013354389730456178    1.1953376744957633e-05    
0.2083342922220588        0.0001373530191782785     1.2054624451857427e-05    
0.20867387542046473       0.00015040617531382122    1.26857732893255e-05      
0.2090134586188707        0.0001202879138738776     1.14383695890901e-05      
0.20935304181727665       0.00014909121065843654    1.2679846908891307e-05    
0.20969262501568264       0.00015009732587802917    1.3087368654358917e-05    
0.21003220821408858       0.0001332584774337271     1.2144894292492543e-05    
0.21037179141249454       0.00012893073823501592    1.213886187656878e-05     
0.21071137461090053       0.00012171298002216387    1.1930412190340005e-05    
0.2110509578093065        0.0001426929319180591     1.2892949906356252e-05    
0.21139054100771246       0.00014578852052208992    1.3169936523105904e-05    
0.2117301242061184        0.00013448530799469187    1.2560478963547678e-05    
0.21206970740452438       0.00013145079325933238    1.272816852505877e-05     
0.21240929060293035       0.00013541405060867354    1.2881981966624515e-05    
0.2127488738013363        0.00013484672005574888    1.2982018626469899e-05    
0.21308845699974224       0.00015288193077397214    1.3726850162570136e-05    
0.21342804019814823       0.00012254642007156888    1.2516487738633081e-05    
0.2137676233965542        0.0001583814702486867     1.4394776418260549e-05    
0.21410720659496016       0.0001512879059888562     1.3954511399605142e-05    
0.21444678979336612       0.00017696292590748815    1.524238536292703e-05     
0.21478637299177208       0.00015381658771973584    1.427286316889497e-05     
0.21512595619017802       0.00014661401073557531    1.4185650736511372e-05    
0.215465539388584         0.00018232884267364833    1.589180908453945e-05     
0.21580512258698994       0.0001450709469339794     1.3910290165968095e-05    
0.2161447057853959        0.0001510613854017302     1.4682248499249758e-05    
0.2164842889838019        0.00012143929877736608    1.295794840609479e-05     
0.21682387218220783       0.00013539969319206576    1.4060742061979102e-05    
0.21716345538061382       0.00014781869548554253    1.4408906455104284e-05    
0.2175030385790198        0.0001314500499449882     1.3768135742189e-05       
0.21784262177742572       0.00015427546936268606    1.5284859360711997e-05    
0.2181822049758317        0.00014531750457218566    1.4524954123783567e-05    
0.21852178817423765       0.0001376560210460314     1.4345184588221013e-05    
0.2188613713726436        0.00012970443414729425    1.391104446621492e-05     
0.2192009545710496        0.00014168791981299957    1.4759771305450385e-05    
0.21954053776945553       0.00011000006850107712    1.3173664443370953e-05    
0.21988012096786153       0.00016067133343349466    1.566992220260922e-05     
0.2202197041662675        0.00014758708238144565    1.5291452300381078e-05    
0.22055928736467342       0.00015929007058435398    1.586134713209817e-05     
0.2208988705630794        0.00013930576580546458    1.5038839775190688e-05    
0.2212384537614854        0.00014434860323680391    1.5202950733621675e-05    
0.22157803695989134       0.0001396546136638856     1.5122978858672363e-05    
0.2219176201582973        0.0001466600587770582     1.5747102862367943e-05    
0.22225720335670324       0.00014881249434897282    1.574825670868431e-05     
0.22259678655510923       0.00013576327794773764    1.516799363953271e-05     
0.22293636975351522       0.0001584409783804573     1.6285919805687725e-05    
0.22327595295192113       0.0001281417281550113     1.4955871884972665e-05    
0.22361553615032712       0.00011886937925757798    1.4480146186451616e-05    
0.2239551193487331        0.0001592266308498103     1.6700665939005362e-05    
0.22429470254713904       0.00015618116887572257    1.674528770058508e-05     
0.224634285745545         0.00016989852377749686    1.7332016105328452e-05    
0.224973868943951         0.00015890195007314738    1.7263840559596753e-05    
0.22531345214235693       0.00015635557036221753    1.6754982025247964e-05    
0.22565303534076292       0.00012116982002570926    1.5047672689680745e-05    
0.22599261853916885       0.00013357669056228143    1.593790156463428e-05     
0.22633220173757482       0.00013279590715078803    1.579235095711582e-05     
0.2266717849359808        0.00011897028451664747    1.5394079931698957e-05    
0.22701136813438674       0.00012048402530970569    1.5099053964608455e-05    
0.22735095133279273       0.0001171867120660612     1.5238364749740068e-05    
0.2276905345311987        0.00012547267830423245    1.574738170729072e-05     
0.22803011772960463       0.00011917981972027239    1.5459065045758255e-05    
0.22836970092801062       0.00014425668879590044    1.7332859822698317e-05    
0.22870928412641658       0.00014280820521805302    1.696756585298081e-05     
0.22904886732482252       0.0001409570457096603     1.720496570806763e-05     
0.2293884505232285        0.00015417813613918317    1.7993881721277003e-05    
0.22972803372163444       0.0001485881228839332     1.7689380257431143e-05    
0.23006761692004044       0.0001390703237877086     1.7357029306666255e-05    
0.2304072001184464        0.00012760247174617946    1.664998533116935e-05     
0.23074678331685233       0.0001153324943093982     1.5991001624172334e-05    
0.23108636651525832       0.00018138220796863483    2.018760884395606e-05     
0.23142594971366431       0.00014966604646965453    1.839275239851725e-05     
0.23176553291207025       0.00014531438641561049    1.80427897151928e-05      
0.2321051161104762        0.0001326575195972813     1.7690547484973764e-05    
0.2324446993088822        0.00015750357626376102    1.9231346983227903e-05    
0.23278428250728814       0.00012474230848009583    1.707517990736143e-05     
0.2331238657056941        9.256360300532051e-05     1.5037943364963064e-05    
0.23346344890410003       0.00011626915456307738    1.6653456706069015e-05    
0.23380303210250603       0.00011086832621798845    1.666115678609075e-05     
0.23414261530091202       0.0001338390235202783     1.8097565264176466e-05    
0.23448219849931795       0.0001381869424556793     1.864757788570636e-05     
0.2348217816977239        0.00010470060291664072    1.6537299026757566e-05    
0.2351613648961299        0.00011265189346434013    1.6893299859884213e-05    
0.23550094809453584       0.00013233239794004437    1.8804441190993747e-05    
0.23584053129294183       0.00012756636232894388    1.8301873203933256e-05    
0.2361801144913478        0.00015941247274987933    2.0749565048024057e-05    
0.23651969768975373       0.0001309115749682369     1.906056505246896e-05     
0.23685928088815972       0.0001275485708988592     1.8577191435456946e-05    
0.23719886408656565       0.00017395974544375122    2.2344488299745746e-05    
0.23753844728497162       0.00010532170960555997    1.7255857355154844e-05    
0.2378780304833776        0.0001304105153221053     1.9346779231856677e-05    
0.23821761368178354       0.00011313055721129132    1.833546498556669e-05     
0.23855719688018953       0.0001465638037381036     2.074788201094404e-05     
0.2388967800785955        0.00010450025725514471    1.7906159032810756e-05    
0.23923636327700143       0.00010825339921108747    1.8151518373313773e-05    
0.23957594647540742       0.00012896573519098481    1.995320805758074e-05     
0.2399155296738134        0.00013780863232151444    2.0861583762524298e-05    
0.24025511287221935       9.630307082214358e-05     1.7662070870653443e-05    
0.2405946960706253        0.00011986391412176026    1.9600017515157028e-05    
0.24093427926903124       0.00012220478484532339    2.0291182727669983e-05    
0.24127386246743723       0.00011042606384299138    1.9310183613075058e-05    
0.2416134456658432        0.00014057402512273763    2.169083080983839e-05     
0.24195302886424913       0.00012961213535909357    2.147951375908854e-05     
0.24229261206265512       0.00012542980213127897    2.0696544476720715e-05    
0.2426321952610611        0.00011832592802312614    2.0744161623888057e-05    
0.24297177845946705       0.00012846443856114357    2.1906335755611465e-05    
0.243311361657873         0.0001304229780581228     2.1700966675010952e-05    
0.243650944856279         9.880534013190143e-05     1.9528076921154366e-05    
0.24399052805468494       0.00012497923126558592    2.1742249959383625e-05    
0.24433011125309093       9.753917196632726e-05     1.9785072852544792e-05    
0.24466969445149686       0.0001166987932071728     2.1359927258278868e-05    
0.24500927764990282       8.867869399478543e-05     1.9042945640962435e-05    
0.24534886084830881       0.00015047132515544549    2.5183045133330056e-05    
0.24568844404671475       0.0001607799015770021     2.5887757235830268e-05    
0.2460280272451207        0.0001198879030038778     2.2798701801821525e-05    
0.2463676104435267        0.00014501101318848604    2.5146306658293214e-05    
0.24670719364193264       9.335789360751738e-05     2.0535006461963694e-05    
0.24704677684033863       0.00013919573594038984    2.5340843094343974e-05    
0.2473863600387446        0.0001335986937796588     2.4713566795033893e-05    
0.24772594323715053       0.00012983983852209334    2.529801333770378e-05     
0.24806552643555652       0.00011832178206671959    2.376608447571275e-05     
0.24840510963396245       9.154532101723099e-05     2.159723106484394e-05     
0.24874469283236844       0.00011709155773213858    2.4303213971485635e-05    
0.2490842760307744        0.00012557370553329568    2.5423806789442474e-05    
0.24942385922918034       0.00014510913576460947    2.8625175289572657e-05    
0.24976344242758633       0.0001018590044718207     2.2937041413214587e-05    
0.2501030256259923        9.301975837646618e-05     2.3048333672783502e-05    
0.2504426088243982        0.00011459584522714196    2.502204305355138e-05     
0.2507821920228042        0.00011474294983040734    2.5893733795542058e-05    
0.2511217752212102        0.0001326150002674881     2.7677737846962537e-05    
0.25146135841961614       0.00013102023838945084    2.7563681776083577e-05    
0.25180094161802213       9.534929410438383e-05     2.46760806149834e-05      
0.25214052481642807       0.00015894439962566752    3.041801816800547e-05     
0.25248010801483406       0.00012523088643923003    2.8161461441558815e-05    
0.25281969121324          0.00013832142228050273    2.9847816297464072e-05    
0.25315927441164593       0.0001112415372731885     2.6881941864313978e-05    
0.2534988576100519        0.00015467998789940368    3.2402097403852974e-05    
0.2538384408084579        0.00012801219256995355    2.8775946889249824e-05    
0.25417802400686385       0.00014472961665471225    3.2610718194151775e-05    
0.25451760720526984       0.00012730758670699408    2.9265404785834563e-05    
0.2548571904036758        0.00012445392947900606    3.0538708717756104e-05    
0.25519677360208176       0.00011307223126965546    2.8281118262294796e-05    
0.2555363568004877        0.00010475216719780901    2.8299438223792467e-05    
0.25587593999889363       0.00016032646543647373    3.641742704388416e-05     
0.2562155231972996        0.00019208145213095763    3.712249263997553e-05     
0.2565551063957056        0.00011514865026381758    3.11194802617028e-05      
0.25689468959411155       0.00015658162798610768    3.5228675615177704e-05    
0.25723427279251754       0.0001356866417803795     3.4260644066637595e-05    
0.25757385599092353       0.00015473887019849664    3.568126609132145e-05     
0.25791343918932946       0.00012590259348368022    3.272353704838631e-05     
0.2582530223877354        0.00014785629249365018    3.694488004392748e-05     
0.2585926055861414        0.0001685069857553504     3.7134948844680636e-05    
0.2589321887845473        0.00014339143882297688    3.638337067133214e-05     
0.2592717719829533        7.729830144760238e-05     2.6009298806966506e-05    
0.25961135518135925       0.00013028438669196685    3.489464904753075e-05     
0.25995093837976524       0.00013911447338977836    3.616985997112373e-05     
0.26029052157817123       8.987933371534804e-05     2.8632082847931626e-05    
0.26063010477657717       0.00011811527318259596    3.4301394072459705e-05    
0.26096968797498316       0.00010718042621587089    3.126711091217094e-05     
0.2613092711733891        0.00015363916346029498    3.964675635078227e-05     
0.261648854371795         0.00011685906324071052    3.3897047952862205e-05    
0.261988437570201         0.00012950030815456602    3.603640387222472e-05     
0.262328020768607         0.00010874606436899645    3.479647520550722e-05     
0.26266760396701294       0.0001308852478561365     3.519547411897768e-05     
0.26300718716541893       6.662901270377425e-05     2.723750323116716e-05     
0.26334677036382487       0.00013869703972963995    3.767136335720175e-05     
0.26368635356223086       8.655248480174155e-05     3.139251050481067e-05     
0.2640259367606368        0.0001977069375886418     4.6578665271959944e-05    
0.2643655199590427        9.947214404502924e-05     3.315962504446985e-05     
0.2647051031574487        0.00011218184943659119    3.7626452749936705e-05    
0.2650446863558547        0.0001649397658843908     4.1941567651097186e-05    
0.26538426955426064       0.0001731845907473178     4.6557717711827356e-05    
0.26572385275266663       0.00010513440139594544    3.499726119111606e-05     
0.2660634359510726        0.00011854466446392004    3.868006608127017e-05     
0.26640301914947856       0.00015309424603390394    4.509904136864945e-05     
0.2667426023478845        0.0001157207992855196     3.71490470499385e-05      
0.26708218554629043       0.00017221050259558994    4.8474773051645e-05       
0.2674217687446964        8.6088191693171e-05       3.255894473860879e-05     
0.2677613519431024        0.0001286758342876652     4.287955125053961e-05     
0.26810093514150835       0.0002100069489265656     5.305616646056093e-05     
0.26844051833991434       0.00013290643365396857    4.317406552053757e-05     
0.2687801015383203        9.688240665078532e-05     3.951152611572832e-05     
0.26911968473672626       6.504713312883508e-05     2.9019506601706736e-05    
0.26945926793513225       0.00022726151660558918    6.150561694525117e-05     
0.2697988511335382        0.00011854953852612943    4.058941931114746e-05     
0.2701384343319441        0.00014571260845155738    4.871771505637606e-05     
0.2704780175303501        0.00013241361381172086    4.571030842448572e-05     
0.27081760072875605       0.0001018304472504083     4.0296198815809825e-05    
0.27115718392716204       0.00010625965038692532    4.513996130654001e-05     
0.27149676712556803       0.00012947496394111687    4.4511216158076404e-05    
0.27183635032397396       0.0001258941309696081     4.8524166893442796e-05    
0.27217593352237995       0.00021571407611537406    6.093957871596812e-05     
0.2725155167207859        7.423579182259574e-05     3.7262269923481377e-05    
0.2728550999191918        1.7159708017376925e-05    1.8743376940086874e-05    
0.2731946831175978        0.00010611338406412036    4.323626897093204e-05     
0.2735342663160038        0.00011263132736671613    5.084797510952368e-05     
0.27387384951440974       9.151529834816343e-05     4.087215107376097e-05     
0.27421343271281573       0.00020339770970923332    6.885567612853618e-05     
0.27455301591122167       0.0001374352081049324     5.2692098419162905e-05    
0.27489259910962766       0.00013829825682477558    5.7220170215394776e-05    
0.27523218230803365       0.00024187579402540593    8.08977357366812e-05      
0.2755717655064395        8.189193748950793e-05     4.094893619019155e-05     
0.2759113487048455        0.00018387859244089038    7.117475220292685e-05     
0.2762509319032515        0.000186928918020284      6.652635521818564e-05     
0.27659051510165744       0.00010538696007666106    5.388417952944453e-05     
0.27693009830006343       0.00016809232718300766    6.932485069305547e-05     
0.2772696814984694        5.386058137619521e-05     3.784030901309034e-05     
0.27760926469687536       0.00019669174045775254    8.975367375339779e-05     
0.27794884789528135       4.7615034189983585e-05    3.411457998204179e-05     
0.2782884310936873        0.00018567835612820312    8.720620713113832e-05     
0.2786280142920932        0.00011561279174653548    5.804605680116604e-05     
0.2789675974904992        0.00021640936204619606    9.290120956519736e-05     
0.27930718068890514       0.00016128671613141788    8.239992874286528e-05     
0.27964676388731113       6.171294854757062e-05     4.5589445388194845e-05    
0.2799863470857171        0.0002852703375324055     0.00013150564203722603    
0.28032593028412306       9.384417276238649e-05     5.501038700343652e-05     
0.28066551348252905       0.0004677032237869186     0.00017950137048427614    
0.281005096680935         3.706313335792928e-05     3.7474759801770925e-05    
0.2813446798793409        7.444048704760793e-05     7.510888037395337e-05     
0.2816842630777469        7.061176942281838e-05     7.710929350611013e-05     
0.28202384627615285       0.00020078624294432104    9.603252480415238e-05     
0.28236342947455884       0.00016909812466079082    0.00013071821332036147    
0.2827030126729648        4.606714983792574e-05     5.0854576510481936e-05    
0.28304259587137076       0.0                       0.00010126010163736739    
0.28338217906977675       0.0001933404299888725     0.00011813426374108945    
0.28372176226818274       0.0001382301567753624     0.00015258378319643666    
0.2840613454665887        0.00031491236927682606    0.00024427597706897967    
0.2844009286649946        9.416946532759362e-05     0.00010478959505427356    
0.2847405118634006        0.0                       0.00024304508183067806    
0.28508009506180654       0.00013916995892882748    0.0001736066822601938     
0.28541967826021253       0.0                       0.0006076351573258042     
0.28575926145861846       0.0                       0.001215285316866293      
