################################################################################
# Data 1                                  10_09_2023_0_vd_00012-00013_azimAvg.dat
# Data 2                                  2023_10_26_0_vd_00015-00016_azimAvg.dat
# Transmission                            0.7561468215356858
# Weight                                  1.003127448077003
# Smart_subtraction                       True
# Enhanced_transmission_correction        True
# EDF_DataBlockID                         0.Image.Psd
# EDF_BinarySize                          4637784
# EDF_HeaderSize                          3072
# ByteOrder                               LowByteFirst
# DataType                                FloatValue
# Dim_1                                   1038
# Dim_2                                   1117
# Image                                   0
# HeaderID                                EH:000000:000000:000000
# Size                                    4637784
# BIO_SYSTEM_CONF_TXT                     WAXSRES
# Center_1                                606.984
# Center_2                                651.026
# Comment                                 BWMajor - BWMajor_SAXS_HI_7200s
# DDummy                                  0.6
# Date                                    2023-10-09T16:22:31
# Delta                                   0
# Dummy                                   -1.5
# ExposureTime                            7200
# Force                                   9.91088
# Gamma                                   0
# Intensity1                              4.57593e-08
# JawsDistance                            4.54563
# JawsVelocity                            0.358589
# PSize_1                                 7.5e-05
# PSize_2                                 7.5e-05
# Pressure                                0.0898733
# SampleDistance                          0.899998
# SampleEnvKind                           saxs
# SampleEnvPN                             Solids
# SampleEnvSN                             1012
# Strain                                  0
# Stress                                  0
# Thickness                               0
# Wavelength                              1.541891e-10
# Wavelength                              1.54189e-10
# anaB                                    0
# anaB_dial                               -0.0012015
# anaPark                                 -175.125
# anaPark_dial                            175.169
# anaXi                                   0
# anaXi_dial                              0
# anaZ                                    -9.13123e-08
# anaZ_dial                               6.2299
# aux                                     0
# aux_dial                                -0.000125
# b2c                                     0
# b2c_dial                                0
# beamx                                   602.476
# beamx_dial                              602.476
# beamz                                   651.177
# beamz_dial                              651.177
# bioZ                                    -2.90461e-08
# bioZ_dial                               -0.546695
# det0x                                   0
# det0x_dial                              3.96954
# det0xvd                                 0
# det0xvd_dial                            0
# det0y                                   899.998
# det0y_dial                              43.5135
# det0z                                   0
# det0z_dial                              7.30701
# det0zvd                                 0
# det0zvd_dial                            0
# distana                                 93.4
# distana_dial                            93.4
# mag                                     2.6365
# mag_dial                                2.6365
# mono1B                                  1.00136e-08
# mono1B_dial                             -0.277
# mono2B                                  1.75476e-07
# mono2B_dial                             -4.366
# mono2X                                  -1
# mono2X_dial                             3.96031
# mono2Xi                                 0
# mono2Xi_dial                            0
# monoZ                                   -11
# monoZ_dial                              -10.6609
# om                                      0
# om_dial                                 0
# phi                                     0
# phi_dial                                -7.01716
# qana                                    0
# qana_dial                               0
# ry                                      0
# ry_dial                                 0.00149998
# s1bot                                   1
# s1bot_dial                              -1.57906
# s1hl                                    0.1
# s1hl_dial                               -0.02125
# s1hr                                    1.5
# s1hr_dial                               1.86625
# s1top                                   0.6
# s1top_dial                              0.783906
# s2bot                                   0.95
# s2bot_dial                              -1.84531
# s2hl                                    0.35
# s2hl_dial                               -1.115
# s2hr                                    0.55
# s2hr_dial                               -0.265313
# s2top                                   -0.05
# s2top_dial                              -1.43281
# ttdeg                                   0
# ttdeg_dial                              0
# wind                                    72.0045
# wind_dial                               72.0233
# x                                       -21
# x_dial                                  -20.2903
# z                                       -12.3
# z_dial                                  6.80906
# CountCutoff                             15302352
# DetectorModel                           Dectris EIGER2 Si 1M, S/N E-02-0357
# ThresholdSetting                        4023.88989258
# Saturation                              0
# FlatField                               Corrected
# BackgroundReductionExtra                0.02
# Detector                                0
# Monitor                                 0
# Pil_Roi0                                3.29467e+11
# SumForIntensity1                        3.29467e+11
# det                                     0
# mon                                     0
# pilai0                                  3.29467e+11
# pilai1                                  0
# pilct0                                  3.29467e+11
# pilct1                                  0
# pilroi0                                 3.29467e+11
# pilroi1                                 0
# sec                                     0.099
# title                                   10_09_2023_0_00012.edf
# usaxs0                                  0
# Operation                               Azimuthal average I(q)
# Error_model                             ErrorModel.poisson
# Geometrical_correction                  True
# Transmission_correction                 True
# Psi                                     0.0
# Omega                                   0.0
# TransmittedFlux_init_value              4.57593e+07
# TransmittedFlux                         45759174.88192773
# MaskInvalidPixels                       True
# DetectorEdge                            3
# Origin                                  subtracted
# Thickness_correction                    False
################################################################################
 q(A-1)                   I_subtracted(a.u.)         Sigma_I(a.u.)            
       0.000509               -166240.313                8.06385458           
       0.000849               -152621.439                5.02414637           
       0.001189               -127023.842                4.87924612           
       0.001528               -93174.5236                 3.9322642           
       0.001868               -51868.9093                3.39838755           
       0.002207               -19740.0397                2.70468891           
       0.002547                8832.09502                2.16281038           
       0.002886                31797.3247                1.96099727           
       0.003226                40880.5293                1.51542151           
       0.003566                37872.8028                1.19177946           
       0.003905                25787.0725               0.916980581           
       0.004245                19028.9812               0.648475494           
       0.004584                7528.29121               0.486994453           
       0.004924                4360.18777               0.336306098           
       0.005264                1965.76957               0.233728017           
       0.005603                 1562.3976               0.169621882           
       0.005943                1293.84615               0.116628774           
       0.006282                1074.33385              0.0870160991           
       0.006622                657.952971              0.0560336984           
       0.006961                393.409097              0.0398864822           
       0.007301                205.163545              0.0270560843           
       0.007641                94.9877403              0.0176737811           
       0.007980                 34.312186               0.010301676           
       0.008320                9.31445551             0.00499013509           
       0.008659                2.12894146             0.00248683742           
       0.008999               0.761064024              0.0014609723           
       0.009339               0.406096857             0.00103391794           
       0.009678               0.306103367             0.00091194679           
       0.010018               0.238500151            0.000771262789           
       0.010357                0.20155903            0.000716374563           
       0.010697               0.157800807            0.000601240031           
       0.011036               0.133432838            0.000549692558           
       0.011376               0.120768256            0.000529481773           
       0.011716               0.105992095            0.000488690474           
       0.012055              0.0961074654            0.000465831505           
       0.012395              0.0774560044             0.00039085838           
       0.012734              0.0728704702            0.000384836737           
       0.013074              0.0638110055            0.000353211299           
       0.013414              0.0606972063            0.000351722218           
       0.013753              0.0516074876            0.000308272252           
       0.014093               0.046985813            0.000293610383           
       0.014432              0.0435745799             0.00028519085           
       0.014772              0.0375321139            0.000254692086           
       0.015111              0.0348853325            0.000244695949           
       0.015451              0.0300861941            0.000223019477           
       0.015791              0.0289076677            0.000222662731           
       0.016130              0.0270959127            0.000216211951           
       0.016470              0.0222741091            0.000185720648           
       0.016809              0.0213429111            0.000184089662           
       0.017149               0.019126195            0.000171174607           
       0.017489              0.0184303401            0.000170188607           
       0.017828              0.0169490908            0.000163116085           
       0.018168              0.0139506707            0.000138314154           
       0.018507              0.0154154073            0.000153345062           
       0.018847              0.0125454048            0.000132287516           
       0.019186              0.0123131008            0.000132904987           
       0.019526              0.0113892137            0.000125361837           
       0.019866              0.0101786424            0.000116509373           
       0.020205              0.0104060824            0.000121957356           
       0.020545             0.00892600276            0.000108904179           
       0.020884             0.00833987994            0.000103327033           
       0.021224             0.00784160198            0.000100429817           
       0.021564             0.00715023418             9.5654766e-05           
       0.021903             0.00732748297            9.97115031e-05           
       0.022243             0.00603237324            8.56272519e-05           
       0.022582              0.0063189845            8.88588761e-05           
       0.022922             0.00559693737            8.31155293e-05           
       0.023261             0.00547112476             8.1031453e-05           
       0.023601             0.00542830658            8.16315686e-05           
       0.023941             0.00444712367            7.14877106e-05           
       0.024280             0.00468317376            7.50546895e-05           
       0.024620             0.00438787568            7.08383039e-05           
       0.024959             0.00396892906             6.8525959e-05           
       0.025299             0.00379644305            6.52644792e-05           
       0.025639             0.00350012101            6.31942594e-05           
       0.025978              0.0035059069            6.34251898e-05           
       0.026318             0.00314889122            5.97226718e-05           
       0.026657             0.00290139727            5.73945303e-05           
       0.026997             0.00279857102            5.58818755e-05           
       0.027336             0.00278722384             5.4945767e-05           
       0.027676             0.00272254536            5.52216159e-05           
       0.028016              0.0022839151            5.03398152e-05           
       0.028355             0.00238824275            5.10340313e-05           
       0.028695             0.00225632924            4.94134469e-05           
       0.029034             0.00217005419            4.87413944e-05           
       0.029374             0.00212156432             4.6853653e-05           
       0.029714             0.00197910577            4.52539342e-05           
       0.030053             0.00195110421            4.54339603e-05           
       0.030393             0.00182104476             4.3509177e-05           
       0.030732             0.00181631319            4.38392314e-05           
       0.031072             0.00167034192            4.06739314e-05           
       0.031411             0.00163177622             4.0494022e-05           
       0.031751             0.00150766655            4.04709397e-05           
       0.032091             0.00144054925            3.81901856e-05           
       0.032430              0.0013645964            3.72577273e-05           
       0.032770             0.00137411205             3.7847193e-05           
       0.033109             0.00133060006            3.76304337e-05           
       0.033449             0.00131566952            3.64490728e-05           
       0.033789             0.00109868003            3.35576551e-05           
       0.034128             0.00119805506            3.51358094e-05           
       0.034468             0.00109375508             3.3185812e-05           
       0.034807             0.00117507715            3.45049645e-05           
       0.035147             0.00106900935              3.245959e-05           
       0.035486            0.000954364404            3.09889804e-05           
       0.035826             0.00100272316             3.1375226e-05           
       0.036166            0.000995418631            3.06148862e-05           
       0.036505            0.000993201207            3.09982354e-05           
       0.036845              0.0008608605            2.87584181e-05           
       0.037184            0.000818638498            2.92828656e-05           
       0.037524            0.000864260526            2.95205066e-05           
       0.037864            0.000762159279            2.74357829e-05           
       0.038203            0.000842097639            2.82100397e-05           
       0.038543            0.000753271839            2.69235913e-05           
       0.038882            0.000778001206            2.79108936e-05           
       0.039222            0.000746244141            2.71030199e-05           
       0.039561            0.000642943852            2.50961361e-05           
       0.039901            0.000703381021            2.59222072e-05           
       0.040241            0.000636959974            2.42029474e-05           
       0.040580            0.000668227677             2.5439575e-05           
       0.040920            0.000621087354            2.42989988e-05           
       0.041259            0.000613026265            2.39928417e-05           
       0.041599            0.000630798903            2.48175936e-05           
       0.041939            0.000543305902            2.26836343e-05           
       0.042278            0.000565155737            2.35864269e-05           
       0.042618            0.000507925012            2.24580275e-05           
       0.042957             0.00051773819             2.2409654e-05           
       0.043297             0.00052555901            2.26279498e-05           
       0.043636            0.000511540117            2.18730743e-05           
       0.043976            0.000496563935            2.15242006e-05           
       0.044316            0.000476086756            2.10340752e-05           
       0.044655            0.000454722388            2.09826508e-05           
       0.044995            0.000463917615            2.09981559e-05           
       0.045334            0.000428697593            2.01948054e-05           
       0.045674            0.000448018397            2.05338639e-05           
       0.046014            0.000421955549            2.00188026e-05           
       0.046353            0.000382462773            1.98166913e-05           
       0.046693            0.000390541358             1.9133316e-05           
       0.047032            0.000384218764            1.94103774e-05           
       0.047372            0.000382456854            1.97186353e-05           
       0.047711            0.000361340001            1.90238628e-05           
       0.048051            0.000341959472            1.84803073e-05           
       0.048391             0.00033518578            1.81908697e-05           
       0.048730            0.000348244302            1.86399316e-05           
       0.049070            0.000317678248            1.79700488e-05           
       0.049409            0.000317900804            1.81868823e-05           
       0.049749             0.00034139756              1.840505e-05           
       0.050089            0.000269947187            1.68186068e-05           
       0.050428            0.000314331052            1.81660657e-05           
       0.050768             0.00027128076            1.68293232e-05           
       0.051107            0.000265255991            1.65240033e-05           
       0.051447            0.000284214524            1.69791096e-05           
       0.051786            0.000254587131            1.61464274e-05           
       0.052126            0.000271887216            1.66538145e-05           
       0.052466            0.000255541908             1.5922114e-05           
       0.052805            0.000275017445            1.67277873e-05           
       0.053145            0.000225344615            1.59111459e-05           
       0.053484            0.000230881225            1.57324018e-05           
       0.053824            0.000274303542            1.64393521e-05           
       0.054164              0.0002229071            1.52657626e-05           
       0.054503             0.00021626922            1.55863736e-05           
       0.054843            0.000239002536            1.55362356e-05           
       0.055182            0.000226907746            1.51744431e-05           
       0.055522            0.000213013632            1.52845538e-05           
       0.055861            0.000200709287            1.46783346e-05           
       0.056201            0.000211884933            1.50918159e-05           
       0.056541            0.000211146108            1.47140362e-05           
       0.056880             0.00021900584            1.44561916e-05           
       0.057220            0.000190499549            1.47685911e-05           
       0.057559            0.000203629947            1.42513454e-05           
       0.057899            0.000203582333            1.44241704e-05           
       0.058239             0.00016394661            1.38373747e-05           
       0.058578            0.000183889699            1.40958394e-05           
       0.058918            0.000168525544            1.41385029e-05           
       0.059257             0.00018621565            1.39629971e-05           
       0.059597            0.000162641204            1.38610782e-05           
       0.059936            0.000155814458            1.35832743e-05           
       0.060276            0.000165774265            1.39405645e-05           
       0.060616            0.000170653495            1.37358792e-05           
       0.060955            0.000154065509            1.32036852e-05           
       0.061295            0.000174631264            1.35699776e-05           
       0.061634            0.000113538865            1.30760862e-05           
       0.061974            0.000140176103            1.32496702e-05           
       0.062314            0.000117220816            1.27559569e-05           
       0.062653            0.000129235862            1.27908701e-05           
       0.062993            0.000161116396            1.28573147e-05           
       0.063332             0.00013466177             1.2901125e-05           
       0.063672            0.000116848358             1.2691735e-05           
       0.064011            0.000122377276            1.25027411e-05           
       0.064351            0.000124289474            1.26580735e-05           
       0.064691            0.000108053999            1.23036446e-05           
       0.065030            0.000127985664            1.25469458e-05           
       0.065370            0.000139861254            1.22993342e-05           
       0.065709            0.000105526943            1.20786019e-05           
       0.066049            0.000129091081            1.21189258e-05           
       0.066389            0.000132129656             1.2382606e-05           
       0.066728            0.000117158558            1.23775409e-05           
       0.067068            9.52810712e-05            1.17322819e-05           
       0.067407            0.000115251068            1.17188192e-05           
       0.067747            0.000133228372            1.22941225e-05           
       0.068086            0.000120554607            1.19866177e-05           
       0.068426            0.000113544486            1.17933775e-05           
       0.068766             0.00011284982            1.16650113e-05           
       0.069105            8.36700916e-05            1.18466721e-05           
       0.069445             0.00010755534            1.18239368e-05           
       0.069784            8.68231906e-05            1.13541011e-05           
       0.070124            7.45476074e-05             1.1393049e-05           
       0.070464            8.69868784e-05            1.16591822e-05           
       0.070803             0.00011559963            1.17273194e-05           
       0.071143            9.52998591e-05            1.12935483e-05           
       0.071482             8.7509893e-05            1.11573067e-05           
       0.071822            9.73010388e-05            1.14196845e-05           
       0.072161            9.74945681e-05             1.1052701e-05           
       0.072501             0.00010883736            1.14548122e-05           
       0.072841            9.96836952e-05            1.13595321e-05           
       0.073180            7.91487842e-05            1.12828496e-05           
       0.073520             9.8132411e-05            1.12896483e-05           
       0.073859            8.06209688e-05            1.10104871e-05           
       0.074199            8.43282927e-05            1.09058137e-05           
       0.074539            8.90835177e-05            1.09108539e-05           
       0.074878            8.52691773e-05            1.12922003e-05           
       0.075218            7.22068457e-05            1.11312565e-05           
       0.075557            9.73130292e-05            1.07401471e-05           
       0.075897             9.7317858e-05            1.08105103e-05           
       0.076236            9.10317014e-05            1.07210296e-05           
       0.076576            8.13109912e-05            1.07728609e-05           
       0.076916            7.50796028e-05            1.08100496e-05           
       0.077255            7.42830158e-05            1.04963121e-05           
       0.077595            8.77856456e-05            1.05466081e-05           
       0.077934            9.35611118e-05            1.07675681e-05           
       0.078274            8.27154011e-05            1.05036383e-05           
       0.078614            0.000101605934            1.06288605e-05           
       0.078953            0.000109354495            1.07240381e-05           
       0.079293            0.000100180321            1.06342549e-05           
       0.079632            8.84532588e-05            1.02087191e-05           
       0.079972            8.39332655e-05            1.04420936e-05           
       0.080311            8.67921096e-05            1.02104947e-05           
       0.080651            8.23900927e-05            1.03283964e-05           
       0.080991            8.49397515e-05            1.04229022e-05           
       0.081330             0.00010980066            1.03270748e-05           
       0.081670            8.71442201e-05            1.05745717e-05           
       0.082009             8.1550667e-05            9.91381344e-06           
       0.082349            8.56785798e-05            1.03938435e-05           
       0.082689            8.81873877e-05            9.97311372e-06           
       0.083028            9.88647097e-05            1.02446177e-05           
       0.083368            8.74926636e-05            1.01161516e-05           
       0.083707            8.00692131e-05             1.0023656e-05           
       0.084047            8.41839787e-05            1.01242168e-05           
       0.084386             8.4391967e-05            9.97364679e-06           
       0.084726            7.29601549e-05            9.89388861e-06           
       0.085066            9.44869282e-05            1.00613214e-05           
       0.085405            8.69715487e-05            9.77267958e-06           
       0.085745            7.84767627e-05             1.0050869e-05           
       0.086084            9.17353741e-05            9.71206887e-06           
       0.086424            7.30535026e-05             9.9668074e-06           
       0.086764            8.07170148e-05            9.94389522e-06           
       0.087103            5.98475316e-05            9.78770971e-06           
       0.087443            8.09995168e-05            9.72744966e-06           
       0.087782            8.51852634e-05              9.672135e-06           
       0.088122            6.87626509e-05            9.77214652e-06           
       0.088461            0.000102791557            9.73173753e-06           
       0.088801            8.64585847e-05            9.53749649e-06           
       0.089141            7.62104963e-05            9.78309966e-06           
       0.089480            8.33927744e-05            9.41830058e-06           
       0.089820            8.16566976e-05            9.45612332e-06           
       0.090159            6.53318652e-05            9.32339568e-06           
       0.090499            8.67975264e-05            9.42127442e-06           
       0.090839            6.58320169e-05             9.4141838e-06           
       0.091178            5.73375219e-05            9.29910022e-06           
       0.091518            6.41832815e-05             9.2236594e-06           
       0.091857            6.87203972e-05            9.25061897e-06           
       0.092197             6.9513557e-05            9.14651089e-06           
       0.092536            7.00171011e-05            9.38711127e-06           
       0.092876            6.57187227e-05            9.03688267e-06           
       0.093216            7.26417038e-05            9.24090442e-06           
       0.093555            7.31163214e-05            9.21061073e-06           
       0.093895            6.41755143e-05            9.40282537e-06           
       0.094234            6.70727244e-05            9.07488907e-06           
       0.094574            5.78488659e-05            8.99306719e-06           
       0.094914            5.78555474e-05            8.87375917e-06           
       0.095253            7.20403313e-05            9.16343944e-06           
       0.095593            3.95641443e-05            8.69046977e-06           
       0.095932            4.86153642e-05            8.89508125e-06           
       0.096272            6.15855906e-05            8.77464643e-06           
       0.096611            5.08119208e-05            8.87174435e-06           
       0.096951            5.78453915e-05            8.97312882e-06           
       0.097291            7.11587717e-05             8.8761084e-06           
       0.097630            4.77543538e-05            8.69303563e-06           
       0.097970            5.62483361e-05            8.82660816e-06           
       0.098309            7.11376126e-05            8.79551053e-06           
       0.098649            5.12517045e-05            8.84529499e-06           
       0.098989            3.58724695e-05            8.73792576e-06           
       0.099328            4.62233499e-05            8.71154364e-06           
       0.099668            4.23520667e-05            8.64753627e-06           
       0.100007            4.95907382e-05            8.63325544e-06           
       0.100347              5.737183e-05             8.7570771e-06           
       0.100686            4.04251174e-05            8.55251933e-06           
       0.101026            3.63248111e-05            8.42485836e-06           
       0.101366            5.19332827e-05            8.57198643e-06           
       0.101705            3.82334454e-05            8.24253694e-06           
       0.102045            4.04793045e-05            8.58767313e-06           
       0.102384            4.89933674e-05             8.4399273e-06           
       0.102724            5.32879989e-05            8.33501164e-06           
       0.103064            2.67692274e-05            8.20357994e-06           
       0.103403            3.73793232e-05            8.25215327e-06           
       0.103743            3.96682866e-05            8.35214024e-06           
       0.104082             5.0693927e-05            8.18122324e-06           
       0.104422            4.18957403e-05            8.19052391e-06           
       0.104761            2.79468538e-05            8.18988614e-06           
       0.105101            3.42777246e-05            8.23682326e-06           
       0.105441            3.04418861e-05            8.17651639e-06           
       0.105780            2.19733233e-05            8.12997738e-06           
       0.106120            4.45437638e-05            8.16352162e-06           
       0.106459             3.3298986e-05            8.14309334e-06           
       0.106799            1.84073207e-05            7.97907634e-06           
       0.107138            3.98877972e-05             7.9340164e-06           
       0.107478             4.1577743e-05            8.12945722e-06           
       0.107818            3.11059815e-05            7.88862302e-06           
       0.108157            4.29713068e-05              7.956668e-06           
       0.108497            2.91110299e-05             7.6857955e-06           
       0.108836            3.52156434e-05            7.84159737e-06           
       0.109176            2.92488244e-05            7.82145698e-06           
       0.109516            3.02537562e-05            7.84018721e-06           
       0.109855            3.51912716e-05            7.74878213e-06           
       0.110195            3.65267013e-05            7.80665122e-06           
       0.110534            3.10363821e-05            7.84908866e-06           
       0.110874            3.13980083e-05            7.87821189e-06           
       0.111213             1.6885241e-05            7.67544041e-06           
       0.111553            2.20417651e-05            7.66917359e-06           
       0.111893            3.89099032e-05            7.85527599e-06           
       0.112232            3.24481304e-05             7.5955835e-06           
       0.112572            3.18212271e-05            7.78426406e-06           
       0.112911            3.25310868e-05            7.47881452e-06           
       0.113251            2.73752615e-05            7.70405036e-06           
       0.113591            2.10011115e-05            7.75777977e-06           
       0.113930            3.68994038e-05            7.58078149e-06           
       0.114270            2.72045702e-05              7.741898e-06           
       0.114609            2.71228982e-05            7.61926116e-06           
       0.114949            2.64084838e-05            7.56637289e-06           
       0.115288             3.0035697e-05            7.58074762e-06           
       0.115628            2.65291826e-05            7.50807749e-06           
       0.115968            3.88330062e-05            7.62435448e-06           
       0.116307            2.27101241e-05             7.4205949e-06           
       0.116647            1.38583254e-05             7.5917808e-06           
       0.116986            1.17568929e-05            7.38713037e-06           
       0.117326            3.85914308e-05            7.43455707e-06           
       0.117666            1.26792067e-05            7.59762316e-06           
       0.118005            1.56222045e-05            7.25714334e-06           
       0.118345            2.31535022e-05            7.25304417e-06           
       0.118684            1.89769834e-05             7.5537184e-06           
       0.119024            1.97308144e-05            7.33704781e-06           
       0.119363            1.42926948e-05            7.48459775e-06           
       0.119703            2.65312292e-05            7.28097355e-06           
       0.120043            3.04206542e-05            7.33448542e-06           
       0.120382            1.39537054e-05            7.29213078e-06           
       0.120722            1.53320292e-05            7.30976524e-06           
       0.121061            2.24419185e-05            7.31762422e-06           
       0.121401            2.47343244e-05            7.32271051e-06           
       0.121741            9.00618255e-06            7.36817999e-06           
       0.122080            1.28356257e-05            7.30754238e-06           
       0.122420            2.10651917e-05            7.20126635e-06           
       0.122759            1.83958361e-05            7.12507136e-06           
       0.123099            1.51248027e-05            7.06296891e-06           
       0.123438            1.82228302e-06            7.38023587e-06           
       0.123778            2.21834094e-05            7.12815114e-06           
       0.124118            5.33052648e-06            7.11312339e-06           
       0.124457             1.4928116e-05            7.07996593e-06           
       0.124797            1.44258633e-05            7.20236371e-06           
       0.125136            1.82227526e-05            7.12465955e-06           
       0.125476            2.90226692e-06            6.93242463e-06           
       0.125816            1.39778553e-05            6.99358237e-06           
       0.126155            3.50310887e-06            7.10230156e-06           
       0.126495            1.79800888e-05            7.13719043e-06           
       0.126834            2.13410076e-05            6.86264245e-06           
       0.127174            1.45767395e-05            7.05826883e-06           
       0.127513            1.45150855e-05            6.98895473e-06           
       0.127853            1.90508499e-05            6.99963908e-06           
       0.128193             1.8563634e-05            7.04128487e-06           
       0.128532            5.41405458e-06            6.88859268e-06           
       0.128872             1.2597427e-05            6.90223354e-06           
       0.129211            7.59436974e-06            7.10617042e-06           
       0.129551            1.72540316e-05            6.84949993e-06           
       0.129891            1.49700991e-05            6.99321942e-06           
       0.130230            1.45605179e-05            6.79725279e-06           
       0.130570            6.10950926e-06            6.70955723e-06           
       0.130909            9.89428104e-06            6.91092705e-06           
       0.131249             1.9274358e-05            6.93048324e-06           
       0.131588            1.41052665e-05             6.8891705e-06           
       0.131928            1.21308607e-05            6.79999566e-06           
       0.132268            1.99338226e-05            6.88046595e-06           
       0.132607            1.49174896e-05            6.72901446e-06           
       0.132947            6.00843156e-06            6.48389783e-06           
       0.133286            1.18826479e-05            6.80130167e-06           
       0.133626            1.38470952e-05            6.69148374e-06           
       0.133966            2.27942778e-05             6.8111459e-06           
       0.134305            1.90503189e-05            6.67897935e-06           
       0.134645            1.57077954e-05            6.69351569e-06           
       0.134984            1.52164894e-05            6.71744395e-06           
       0.135324             8.1806658e-06            6.64675442e-06           
       0.135663            1.98849681e-05            6.63327279e-06           
       0.136003            1.40687885e-05            6.61132011e-06           
       0.136343            1.07460657e-05            6.54341955e-06           
       0.136682            1.04509391e-05            6.54929304e-06           
       0.137022             2.1721396e-05            6.47561284e-06           
       0.137361            8.00215412e-06            6.56811994e-06           
       0.137701           -2.25489392e-06            6.38842207e-06           
       0.138041            1.15458692e-05            6.38623883e-06           
       0.138380            4.65524386e-06            6.36179069e-06           
       0.138720            1.73218369e-05            6.40754476e-06           
       0.139059            1.11295821e-05            6.39314627e-06           
       0.139399            1.53309233e-05            6.43774784e-06           
       0.139738            5.77737113e-06            6.40429308e-06           
       0.140078           -1.32500467e-06            6.37457373e-06           
       0.140418            1.43311969e-05            6.40180275e-06           
       0.140757            1.09811342e-05            6.21673808e-06           
       0.141097            4.11277678e-07            6.22371137e-06           
       0.141436            2.00325564e-05             6.2946335e-06           
       0.141776            2.18354982e-05            6.25790684e-06           
       0.142116            1.54360285e-05            6.45462483e-06           
       0.142455            2.01114435e-05            6.09729871e-06           
       0.142795            1.44898843e-05            6.41515379e-06           
       0.143134            1.82713255e-05            6.19348827e-06           
       0.143474            2.08823887e-05            6.28899844e-06           
       0.143813            9.82326815e-06            6.20116789e-06           
       0.144153            2.45001706e-05            6.22664729e-06           
       0.144493            1.74056726e-06            6.15960847e-06           
       0.144832            2.04382237e-05             6.1582933e-06           
       0.145172           -4.53498564e-07            6.09312908e-06           
       0.145511            3.26328121e-06              6.130191e-06           
       0.145851            2.38667438e-05            6.19033553e-06           
       0.146191            1.71403433e-05            6.39763766e-06           
       0.146530            1.25563078e-05            6.38935509e-06           
       0.146870            4.14941347e-06            6.22024771e-06           
       0.147209            6.59366049e-06            6.35662343e-06           
       0.147549            6.75159274e-06            6.27625701e-06           
       0.147888            8.06679922e-06             6.3730716e-06           
       0.148228            4.17603534e-06            6.34152259e-06           
       0.148568            3.89514589e-06            6.30696611e-06           
       0.148907            1.17496716e-05            6.29727546e-06           
       0.149247            2.46284168e-06            6.42793335e-06           
       0.149586            1.50006344e-05            6.30150409e-06           
       0.149926            8.49158454e-06             6.3746392e-06           
       0.150266             1.1632822e-05            6.25256614e-06           
       0.150605            2.04034384e-05              6.209061e-06           
       0.150945            1.96967214e-05            6.37755051e-06           
       0.151284             1.5789615e-05            6.36035777e-06           
       0.151624            1.70007252e-05            6.39848201e-06           
       0.151963            2.01371189e-05            6.33593552e-06           
       0.152303            1.57878434e-06            6.21962964e-06           
       0.152643             6.5231593e-06             6.3195978e-06           
       0.152982            6.66493319e-06            6.25793645e-06           
       0.153322            2.32382107e-05            6.38565989e-06           
       0.153661            1.40924101e-05            6.31284818e-06           
       0.154001            1.71938131e-05            6.24635969e-06           
       0.154341           -2.92765499e-06            6.30342449e-06           
       0.154680            1.55316268e-05            6.44072916e-06           
       0.155020            1.04080628e-05            6.41559814e-06           
       0.155359            9.08139926e-06             6.3168523e-06           
       0.155699            1.27929055e-05            6.27694448e-06           
       0.156038            8.40994077e-06            6.29343902e-06           
       0.156378             4.0453069e-06            6.22102645e-06           
       0.156718            4.90423626e-06            6.17676383e-06           
       0.157057            4.55215269e-06            6.35507042e-06           
       0.157397           -1.46578549e-07            6.36170967e-06           
       0.157736            2.72468354e-06            6.47935523e-06           
       0.158076            1.46362016e-05            6.36275682e-06           
       0.158416            4.47828697e-06            6.49510342e-06           
       0.158755            3.66047753e-06            6.48431716e-06           
       0.159095            7.58946721e-06            6.42651349e-06           
       0.159434            1.17523915e-05            6.48219419e-06           
       0.159774           -5.49815721e-07            6.49019025e-06           
       0.160113            5.95962048e-06            6.66557213e-06           
       0.160453            4.47770125e-06            6.45017902e-06           
       0.160793            2.12608173e-05            6.68863565e-06           
       0.161132            1.32335422e-05            6.49626354e-06           
       0.161472             8.3263311e-06            6.52338281e-06           
       0.161811            1.79813418e-05            6.56501214e-06           
       0.162151            1.09978866e-05             6.6026857e-06           
       0.162491            -2.0877323e-06             6.6111649e-06           
       0.162830           -1.18103965e-05            6.66897319e-06           
       0.163170            -5.4007965e-06            6.60439052e-06           
       0.163509            1.59590486e-05            6.64507048e-06           
       0.163849           -1.67377577e-06            6.62487059e-06           
       0.164188            2.27790714e-05            6.80210182e-06           
       0.164528            4.12513305e-06            6.64476869e-06           
       0.164868            8.38417817e-06             6.7511303e-06           
       0.165207             1.2672971e-06            6.65224327e-06           
       0.165547            1.42531663e-05            6.72203029e-06           
       0.165886            1.65310738e-05            6.81679618e-06           
       0.166226            1.35494596e-05            6.66439079e-06           
       0.166566            4.20877518e-06            6.80518569e-06           
       0.166905            7.26412948e-06             6.6996369e-06           
       0.167245            1.80562982e-05             6.7208527e-06           
       0.167584            4.72928655e-06            6.78102253e-06           
       0.167924            1.00754088e-05            6.67001127e-06           
       0.168263            1.52896974e-05            6.71676628e-06           
       0.168603            1.55813042e-05            6.55738695e-06           
       0.168943             1.0247622e-05            6.88516675e-06           
       0.169282             1.3947285e-05             6.6397847e-06           
       0.169622            4.38663557e-06            6.73633827e-06           
       0.169961            4.12187256e-06            6.63981576e-06           
       0.170301             1.2981914e-05            6.68894849e-06           
       0.170641            7.98477463e-06             6.9150922e-06           
       0.170980            1.51547019e-05            6.66720944e-06           
       0.171320            1.29939584e-05            6.91807259e-06           
       0.171659            9.20897195e-06            6.73407582e-06           
       0.171999            1.98683988e-05             6.7269658e-06           
       0.172338            3.63892951e-06            6.76741252e-06           
       0.172678            8.35486277e-06            6.95371341e-06           
       0.173018            1.35697549e-05            6.91169323e-06           
       0.173357            1.16463516e-05            6.76978708e-06           
       0.173697            1.92155045e-06            6.65817708e-06           
       0.174036            1.75122268e-05            6.75553534e-06           
       0.174376            2.10092373e-05            6.86170847e-06           
       0.174716            1.98276329e-05            6.93542155e-06           
       0.175055            5.20218567e-06            6.85124836e-06           
       0.175395            1.13411716e-05            6.64154307e-06           
       0.175734            8.16826815e-07            6.60989323e-06           
       0.176074           -1.51169147e-06            6.62442826e-06           
       0.176413             5.6057511e-06            6.82283283e-06           
       0.176753            1.27954105e-05            6.69014984e-06           
       0.177093             1.3538982e-05            7.07865222e-06           
       0.177432            9.47189625e-06            6.91480935e-06           
       0.177772            6.25535636e-06            6.67325968e-06           
       0.178111             2.7247985e-06            6.72694777e-06           
       0.178451            6.70755422e-06            6.76264064e-06           
       0.178791            3.81762466e-06            6.71436286e-06           
       0.179130             1.3921725e-05            6.76868963e-06           
       0.179470           -1.44300339e-06            6.73489694e-06           
       0.179809            4.49940254e-06            6.73228012e-06           
       0.180149             2.0777799e-05            6.89798972e-06           
       0.180488           -1.32510197e-05            6.66684926e-06           
       0.180828            9.56710505e-06            6.74882299e-06           
       0.181168            2.57592066e-06            6.76621912e-06           
       0.181507           -1.05254251e-05            6.76690837e-06           
       0.181847            4.45242938e-06            6.74550711e-06           
       0.182186            1.42814673e-05            6.78025382e-06           
       0.182526            1.44499445e-05            6.87113055e-06           
       0.182866            8.45263294e-06            6.76110928e-06           
       0.183205           -5.30683549e-06            6.67797595e-06           
       0.183545           -2.34240005e-06            6.84523839e-06           
       0.183884             4.8007626e-06            6.83021734e-06           
       0.184224            1.49755846e-05            6.82680876e-06           
       0.184563              2.553286e-06            6.77242912e-06           
       0.184903            1.58525649e-05             6.8308405e-06           
       0.185243           -1.18904024e-05            6.88045913e-06           
       0.185582            1.74510394e-05            6.80859764e-06           
       0.185922           -1.41441385e-06            6.82899572e-06           
       0.186261            1.52973518e-05            6.87778512e-06           
       0.186601            1.53455953e-05            6.85176287e-06           
       0.186941            1.48932414e-05            6.90807301e-06           
       0.187280            9.32398004e-06            6.77056297e-06           
       0.187620              8.103438e-06            6.97822666e-06           
       0.187959            5.57962429e-06            6.90394083e-06           
       0.188299            1.00436999e-05            6.75831127e-06           
       0.188638            2.20919307e-05            7.06957398e-06           
       0.188978            4.54155038e-06            6.69081991e-06           
       0.189318            8.87205073e-06            6.82844339e-06           
       0.189657            8.81443857e-06            7.01697683e-06           
       0.189997           -8.19903665e-06            6.86773016e-06           
       0.190336            1.51147306e-06            6.97091992e-06           
       0.190676            1.07626912e-05              6.995081e-06           
       0.191016            4.01869935e-06            7.01580604e-06           
       0.191355            1.44495376e-05            6.80006043e-06           
       0.191695           -2.97957703e-06            6.89363222e-06           
       0.192034            1.27905434e-05            6.80471101e-06           
       0.192374            2.05623924e-05            6.90701787e-06           
       0.192713            2.81734431e-06            6.79947838e-06           
       0.193053            1.16199966e-05            6.87120737e-06           
       0.193393            5.84247094e-06            6.84792752e-06           
       0.193732            4.66450618e-06            6.80296943e-06           
       0.194072            1.12075689e-05            6.93654288e-06           
       0.194411            2.27134721e-06            6.87662915e-06           
       0.194751            9.82273703e-06            6.84941585e-06           
       0.195091           -8.16469207e-06            6.99768432e-06           
       0.195430             1.3506254e-05             6.9774792e-06           
       0.195770            5.23297988e-06            6.93595731e-06           
       0.196109            1.67296024e-07            6.82537564e-06           
       0.196449            1.35692625e-05            7.03164465e-06           
       0.196788            5.26683151e-06            7.01210267e-06           
       0.197128            5.58448841e-06             6.8683791e-06           
       0.197468            1.93048592e-05            7.23255787e-06           
       0.197807            -4.7797537e-06             6.8142118e-06           
       0.198147            1.04697321e-05            6.87890459e-06           
       0.198486            2.15010917e-05            6.96524351e-06           
       0.198826            6.76608158e-06            6.87355036e-06           
       0.199166            8.71514911e-06            6.99010501e-06           
       0.199505            1.44752617e-05            6.98153611e-06           
       0.199845           -1.36104429e-06            6.72784984e-06           
       0.200184            2.43664974e-05            7.15558111e-06           
       0.200524            8.98845907e-06            6.82666525e-06           
       0.200863            2.20227646e-05            7.09853213e-06           
       0.201203            1.32637569e-05            6.92415873e-06           
       0.201543            4.30670168e-06            6.86107357e-06           
       0.201882            1.56851712e-05            7.01624388e-06           
       0.202222            6.82681828e-06            6.79998067e-06           
       0.202561            -5.6427612e-07            6.82935917e-06           
       0.202901            1.47157916e-05            6.92885829e-06           
       0.203241           -2.10995594e-06             6.7768924e-06           
       0.203580           -8.01424975e-06            6.80297483e-06           
       0.203920            -2.7258677e-06            6.88319181e-06           
       0.204259           -4.47069933e-06             6.9794822e-06           
       0.204599            1.71964675e-05            6.89919057e-06           
       0.204938           -4.40611643e-06            7.07823729e-06           
       0.205278            6.51404247e-06            6.95754262e-06           
       0.205618            3.53137493e-06            7.18257623e-06           
       0.205957            1.85619211e-05            7.03179153e-06           
       0.206297            5.99576984e-06              7.230231e-06           
       0.206636           -5.74901267e-06            7.39259598e-06           
       0.206976           -1.61927668e-06            7.27941751e-06           
       0.207316            9.09979406e-06            7.45032255e-06           
       0.207655            4.61105095e-06            7.43969135e-06           
       0.207995             5.9712303e-06            7.61662183e-06           
       0.208334            3.31484113e-06            7.47592121e-06           
       0.208674            7.04452264e-07            7.78835599e-06           
       0.209013            2.34455433e-05            7.56843922e-06           
       0.209353            1.10817756e-05            7.63418975e-06           
       0.209693            4.33559218e-06             7.5266369e-06           
       0.210032            8.35694561e-06            7.78269601e-06           
       0.210372            1.25158058e-05            7.38417529e-06           
       0.210711            8.18822651e-08            7.39124027e-06           
       0.211051            1.25015168e-05            7.80447205e-06           
       0.211391            1.96013054e-05            7.74266996e-06           
       0.211730            2.06616159e-05            7.61373377e-06           
       0.212070            1.25389011e-05              7.644258e-06           
       0.212409            2.99605449e-06            7.41071808e-06           
       0.212749            3.35112978e-06             7.9817912e-06           
       0.213088           -1.91004886e-06            7.68505372e-06           
       0.213428            6.72290813e-07            7.74650629e-06           
       0.213768            7.40492917e-06            7.64728529e-06           
       0.214107             3.8674481e-06            7.90001707e-06           
       0.214447            9.52408717e-07            7.82189817e-06           
       0.214786            9.88755768e-06            8.08793576e-06           
       0.215126            3.88124964e-06            7.68950827e-06           
       0.215466           -1.10682357e-06            7.86856004e-06           
       0.215805           -4.49434688e-06            8.00094171e-06           
       0.216145            7.71579285e-06            8.18391708e-06           
       0.216484            1.44121344e-05            7.98896127e-06           
       0.216824            9.30531151e-06            7.90833975e-06           
       0.217163            5.73616201e-06            7.83776767e-06           
       0.217503           -2.68649134e-06            7.78553775e-06           
       0.217843             8.0446972e-06            7.93869555e-06           
       0.218182             -5.130915e-06            7.90637499e-06           
       0.218522           -1.51920643e-06             8.0832005e-06           
       0.218861             5.2738624e-06            8.08542222e-06           
       0.219201            3.46192473e-06            8.14321732e-06           
       0.219541           -2.06762171e-07            8.22542907e-06           
       0.219880           -7.07265373e-06            7.70786639e-06           
       0.220220            1.20061288e-05            8.32231153e-06           
       0.220559            1.33418624e-06            8.39784879e-06           
       0.220899            5.81546629e-06            8.57715531e-06           
       0.221238            6.19815423e-06            8.49906517e-06           
       0.221578            1.49029634e-06            8.31990155e-06           
       0.221918            4.23990441e-06            8.80208984e-06           
       0.222257            1.90177563e-05            8.61856975e-06           
       0.222597           -4.46518611e-06            8.86643829e-06           
       0.222936           -1.02764901e-05            8.60639943e-06           
       0.223276            1.40138646e-05            8.68011354e-06           
       0.223616            3.55778466e-06            8.81220572e-06           
       0.223955            1.06676976e-05            8.99856226e-06           
       0.224295            1.66290311e-05            9.06515479e-06           
       0.224634             1.1968961e-05            9.03369451e-06           
       0.224974            6.99126389e-06            8.83974652e-06           
       0.225313            1.77547029e-07            9.33987363e-06           
       0.225653            2.68882951e-06             9.0222687e-06           
       0.225993            1.08156075e-05            9.54409475e-06           
       0.226332             1.8368113e-05             9.4749909e-06           
       0.226672           -4.38177456e-06            9.54387512e-06           
       0.227011           -1.52320747e-05             9.1058981e-06           
       0.227351             1.7437848e-06            9.43084143e-06           
       0.227691            2.89038216e-05            9.48825874e-06           
       0.228030            2.27923832e-05            9.42912423e-06           
       0.228370            4.36402791e-06             9.3190542e-06           
       0.228709            6.90816177e-07            9.54738579e-06           
       0.229049            7.21968707e-06            9.90055081e-06           
       0.229388           -1.14238331e-05            9.60042447e-06           
       0.229728            1.65278584e-06            9.50063479e-06           
       0.230068            7.76811156e-06            9.93228341e-06           
       0.230407            8.40486946e-06            9.66620824e-06           
       0.230747             5.7001839e-06               9.35626e-06           
       0.231086            1.03942524e-05            9.72468095e-06           
       0.231426            1.30271581e-06            9.69721572e-06           
       0.231766           -1.92391852e-06             9.8534285e-06           
       0.232105            8.69652525e-06            1.04820546e-05           
       0.232445            6.13077261e-06            9.94560801e-06           
       0.232784            1.25581777e-05            9.87897741e-06           
       0.233124            4.09067549e-05            1.10291112e-05           
       0.233463            1.37940849e-05            1.03720635e-05           
       0.233803            3.02152128e-06            1.02955948e-05           
       0.234143            6.41995358e-07            1.00644614e-05           
       0.234482           -3.86067494e-06            1.04365573e-05           
       0.234822            3.01583304e-06            1.07495007e-05           
       0.235161            1.80542759e-05            1.04765226e-05           
       0.235501            3.75519377e-08             1.0580291e-05           
       0.235841           -2.28490031e-06            1.06885458e-05           
       0.236180            1.63116668e-05            1.07343821e-05           
       0.236520           -1.30140152e-06            1.11251266e-05           
       0.236859            1.69049629e-05            1.07671995e-05           
       0.237199            2.88673927e-07            1.13923824e-05           
       0.237538            1.32653137e-05            1.09886112e-05           
       0.237878           -1.03292281e-05            1.14853225e-05           
       0.238218            -2.1760552e-05            1.08367857e-05           
       0.238557           -6.57429439e-06            1.10521671e-05           
       0.238897            7.05921541e-06            1.06222624e-05           
       0.239236            -7.9729461e-06            1.14519773e-05           
       0.239576            1.45286368e-05            1.13342095e-05           
       0.239916             9.8129045e-06            1.13614776e-05           
       0.240255            -2.6079843e-06            1.10396904e-05           
       0.240595           -3.54221058e-06            1.18814508e-05           
       0.240934            1.59478261e-06            1.13021648e-05           
       0.241274            5.62101648e-06            1.16467718e-05           
       0.241613            4.49166756e-06            1.18584633e-05           
       0.241953           -1.72516797e-05            1.20859923e-05           
       0.242293           -1.08030059e-07            1.14478882e-05           
       0.242632            5.24303332e-06            1.16629704e-05           
       0.242972            3.18723888e-05            1.23761409e-05           
       0.243311            3.25006153e-05             1.2243516e-05           
       0.243651           -8.45847152e-06            1.22050626e-05           
       0.243991            7.57606001e-06            1.14431471e-05           
       0.244330            2.37780455e-06            1.21604171e-05           
       0.244670            1.26051869e-08            1.20918842e-05           
       0.245009            1.41020133e-05            1.23936257e-05           
       0.245349           -4.74518539e-06            1.32385241e-05           
       0.245688            9.12164401e-06             1.2415719e-05           
       0.246028            1.17339414e-05            1.31244126e-05           
       0.246368           -9.93331102e-07            1.23632976e-05           
       0.246707           -2.72718996e-05            1.23085155e-05           
       0.247047           -2.71111424e-05            1.30615106e-05           
       0.247386           -8.39706033e-06            1.33730581e-05           
       0.247726           -1.75694962e-05            1.26251407e-05           
       0.248066            1.94974516e-05            1.35467892e-05           
       0.248405             2.6692914e-05            1.43201239e-05           
       0.248745            2.05641979e-05            1.38135944e-05           
       0.249084            1.03596868e-05            1.41183047e-05           
       0.249424            1.21727006e-05            1.35459893e-05           
       0.249763           -8.74986419e-06            1.32663919e-05           
       0.250103            2.59215571e-05            1.41162651e-05           
       0.250443            1.22590302e-05            1.40359123e-05           
       0.250782           -6.70040212e-06            1.45116943e-05           
       0.251122           -1.75906324e-05            1.40698439e-05           
       0.251461             1.0448233e-06            1.34332661e-05           
       0.251801            1.08396309e-05            1.49990951e-05           
       0.252141            7.69377004e-06            1.53246011e-05           
       0.252480           -8.04875376e-06            1.50197679e-05           
       0.252820            1.47906776e-05            1.52315524e-05           
       0.253159            1.68042709e-05            1.52600862e-05           
       0.253499            3.64454461e-05            1.58994834e-05           
       0.253838            2.43437409e-05            1.47191938e-05           
       0.254178           -6.31615297e-06            1.53276338e-05           
       0.254518           -5.14521404e-06            1.52424155e-05           
       0.254857            1.43993326e-05            1.52317174e-05           
       0.255197            1.26915758e-05            1.53102297e-05           
       0.255536            1.34335393e-05            1.67610502e-05           
       0.255876           -3.18877589e-05            1.51850159e-05           
       0.256216           -1.52175732e-05             1.5814169e-05           
       0.256555            7.33472971e-06             1.6580875e-05           
       0.256895           -2.52348257e-05            1.63321939e-05           
       0.257234           -1.49350598e-05            1.66537527e-05           
       0.257574           -1.30850403e-05             1.6745929e-05           
       0.257913             2.5618578e-06            1.61143128e-05           
       0.258253             2.3893456e-05            1.87729967e-05           
       0.258593             2.7813578e-05            1.80747997e-05           
       0.258932           -2.49466315e-05            1.74960156e-05           
       0.259272            -9.6503218e-06            1.66693793e-05           
       0.259611            3.27050884e-05            1.78697232e-05           
       0.259951              -3.99296e-05            1.74453265e-05           
       0.260291           -1.52171466e-05            1.76656442e-05           
       0.260630           -4.37849007e-07            1.74181246e-05           
       0.260970            -6.1585687e-06            1.72338126e-05           
       0.261309            1.91935255e-06            1.65934476e-05           
       0.261649            -9.5755728e-06            1.98306485e-05           
       0.261988           -4.35622084e-07            1.83469724e-05           
       0.262328           -5.55863186e-06            1.92596201e-05           
       0.262668            1.21920262e-05            1.89994165e-05           
       0.263007           -1.57471652e-05            2.09167888e-05           
       0.263347           -6.76046497e-06            1.95118158e-05           
       0.263686            2.07471902e-05            2.05148481e-05           
       0.264026             1.3434339e-05            2.01685608e-05           
       0.264366           -2.95000682e-06            1.86720133e-05           
       0.264705            1.92761639e-05            2.10276517e-05           
       0.265045            -2.1451229e-05            1.82667815e-05           
       0.265384           -3.24724512e-06            2.14569273e-05           
       0.265724            5.30522154e-06            2.00779518e-05           
       0.266063           -1.95448572e-05            1.84150571e-05           
       0.266403           -1.75837338e-06             2.0222926e-05           
       0.266743            2.87724769e-05            2.04318701e-05           
       0.267082            1.15084304e-05            2.09641753e-05           
       0.267422            1.39795027e-05            2.07243734e-05           
       0.267761            1.69440432e-05            2.30018566e-05           
       0.268101           -7.06302009e-06             2.0755254e-05           
       0.268441            3.56270878e-05            2.13541708e-05           
       0.268780            2.08098879e-05            2.08098566e-05           
       0.269120            2.91208852e-05            2.24681963e-05           
       0.269459           -4.64383173e-06            2.09990818e-05           
       0.269799            9.23055226e-06            2.06644665e-05           
       0.270138            1.48233417e-05            1.97016685e-05           
       0.270478            1.74297906e-05             2.2847521e-05           
       0.270818            2.54447046e-05            2.27832951e-05           
       0.271157           -3.30834078e-05            2.06291086e-05           
       0.271497            2.10825512e-05             2.2097277e-05           
       0.271836            2.48054399e-05            2.30896151e-05           
       0.272176            1.30187205e-05            2.15446393e-05           
       0.272516            4.83049213e-06            2.17756047e-05           
       0.272855             1.0176468e-05            2.30511723e-05           
       0.273195            2.72996777e-05            2.21328135e-05           
       0.273534             5.4169066e-05             2.5727053e-05           
       0.273874            1.29578494e-05            2.36191001e-05           
       0.274213           -1.12164618e-05            2.27622372e-05           
       0.274553           -1.07553994e-05            2.41078499e-05           
       0.274893            -5.9993628e-06            2.21678474e-05           
       0.275232            4.79798649e-05            2.56908422e-05           
       0.275572           -2.00111004e-05            2.30352933e-05           
       0.275911            5.08633685e-05            2.50993802e-05           
       0.276251            1.25419695e-05            2.46371006e-05           
       0.276591            3.77201206e-05            2.30723813e-05           
       0.276930           -2.05079147e-05            2.39930389e-05           
       0.277270            1.85087444e-05            2.50393127e-05           
       0.277609           -5.94680317e-06            2.30707201e-05           
       0.277949            1.72896695e-05            2.48912019e-05           
       0.278288           -1.82537849e-05            2.34681394e-05           
       0.278628            4.31514888e-05            2.40343243e-05           
       0.278968           -7.00715875e-05            2.43569806e-05           
       0.279307            5.19846275e-05            2.68618712e-05           
       0.279647           -3.31208316e-06             2.5367498e-05           
       0.279986           -1.84241172e-05            2.59136142e-05           
       0.280326           -6.72245849e-07            2.28693604e-05           
       0.280666            2.69243637e-05            2.95814895e-05           
       0.281005           -2.80190196e-06            2.77474662e-05           
       0.281345            1.05860425e-05              2.693022e-05           
       0.281684            7.92616875e-06            2.87527023e-05           
       0.282024            1.16378038e-05             2.3644519e-05           
       0.282363           -7.89788252e-06            2.90687505e-05           
       0.282703            4.52849248e-05            2.70203711e-05           
       0.283043            1.44791056e-06            3.03781891e-05           
       0.283382            1.16457589e-05            3.24815962e-05           
       0.283722             2.6306031e-06            2.62905898e-05           
       0.284061           -2.15694549e-05            2.87942537e-05           
       0.284401            5.42744546e-05            2.78563727e-05           
       0.284741             7.6962211e-06            3.25771685e-05           
       0.285080            -3.6979763e-06            2.88739705e-05           
       0.285420           -5.71811683e-05            3.00528113e-05           
       0.285759           -9.30231128e-06            3.12972468e-05           
       0.286099            4.63423422e-05            3.02120551e-05           
       0.286438            -1.7730856e-05            2.83522065e-05           
       0.286778           -1.00461586e-05            2.95368002e-05           
       0.287118            2.99794347e-05            3.14396022e-05           
       0.287457            3.89198906e-05            3.30414248e-05           
       0.287797           -1.11872239e-05            3.76068564e-05           
       0.288136             -6.331705e-06            3.63974348e-05           
       0.288476           -6.54092314e-06            3.01923393e-05           
       0.288816           -4.72942585e-05            3.39391957e-05           
       0.289155            4.51487312e-05            3.83691838e-05           
       0.289495           -9.61808918e-06            3.36324329e-05           
       0.289834            2.11758679e-05            3.49754722e-05           
       0.290174            7.83417989e-05            3.86178367e-05           
       0.290513            3.28151742e-05            3.97486891e-05           
       0.290853            2.86206419e-05            4.05117539e-05           
       0.291193            2.79292622e-05            3.88609216e-05           
       0.291532            1.67500248e-05            4.12328847e-05           
       0.291872           -2.83990889e-05            3.84564667e-05           
       0.292211            8.44661371e-05            4.43876748e-05           
       0.292551           -4.68039641e-06            4.05455966e-05           
       0.292891           -4.41367296e-06            4.00119348e-05           
       0.293230           -2.87097694e-05            4.05899652e-05           
       0.293570            9.49343221e-05            4.97622497e-05           
       0.293909            0.000149539335            6.01301276e-05           
       0.294249            4.49867081e-05            4.90345402e-05           
       0.294588            7.39721719e-06            5.69524072e-05           
       0.294928           -1.85915253e-05            5.92437814e-05           
       0.295268            0.000148759144            6.34437535e-05           
       0.295607           -6.26717819e-05            4.40096637e-05           
       0.295947            7.31781325e-05            4.56993526e-05           
       0.296286           -1.74787205e-05            4.71430496e-05           
       0.296626           -4.87703155e-05            4.72137578e-05           
       0.296966            7.95404818e-05            6.01794099e-05           
       0.297305            6.46400265e-05             6.7607694e-05           
       0.297645            8.62034838e-06            7.11276644e-05           
       0.297984            -5.4165372e-05            6.84299204e-05           
       0.298324            4.79957089e-05             4.8473337e-05           
       0.298663            0.000150661057            8.50676766e-05           
       0.299003            0.000105303578            0.000138327012           
       0.299343           -0.000135773052            8.06678009e-05           
       0.299682           -0.000304099163            0.000225079297           
