$$ -----------------------
$$ Labels defined by JCAMP
$$ -----------------------

## TITLE= Unknown
## JCAMP-DX= 4.24
## DATA TYPE= RD
## BLOCKS= 1
## ORIGIN= PANalytical B.V.
## OWNER= Copyright(C) 2004 by PANalytical B.V.
## DATE= 25/06/03
## TIME= 15:38:56
## SAMPLE DESCRIPTION= 2025_06_03_CBD_SA_MC15_3_60_8min
## SOURCE REFERENCE= Converted XRDML file
##= CBD - Sorbic Acid, MC 15 min, heptane, 5/14/25, JL

$$ ------------------------------------
$$ Labels defined by PANalytical
$$ ------------------------------------

$$ Wavelengths are given in Angstrom.
##$WAVELENGTH ALPHA1= 1.5405980
##$WAVELENGTH ALPHA2= 1.5444260
##$INTENSITY RATIO ALPHA2/ALPHA1= 0.5000000
##$MONOCHROMATOR= NO
##$SPINNING= YES
##$REVOLUTION TIME= 1.0
##$GENERATOR VOLTAGE= 40
##$TUBE CURRENT= 15
##$ANODE MATERIAL= Cu
##$TUBE FOCUS= LONG FINE
##$SCAN TYPE= CONTINUOUS
##$COUNT TIME= 18.870
##$DIVERGENCE SLIT= 0.45836

$$ -----------------------------------------------------
$$ Labels defined by PANalytical for PC-APD files
$$ -----------------------------------------------------

##$DIFFRACTOMETER= Unknown

$$ ------------------------------------------------------
$$ Labels defined by PANalytical for APD1700 files
$$ ------------------------------------------------------

##$TAKE OFF ANGLE= 6.000
##$DETECTOR TYPE= PIXcel3D-Medipix3 1x1 detector

$$ -----------------------
$$ Labels defined by JCAMP
$$ -----------------------

## XUNITS= TWO-THETA
## YUNITS= COUNTS
## XFACTOR= 1.0
## YFACTOR= 1.0
## FIRSTX= 3.0004332
## LASTX= 59.9949110
## DELTAX= 0.0108664
## NPOINTS= 5246
## FIRSTY= 43436.000
## MINX= 3.00043
## MAXX= 59.99491
## MINY= 349.000
## MAXY= 43436.000
## XYDATA= X++<Y..Y>
    3.0004    43436.000    43004.000    42285.000    42039.000    41460.000
    3.0548    41164.000    40852.000    39899.000    39557.000    38998.000
    3.1091    38813.000    38239.000    37127.000    37026.000    36911.000
    3.1634    36523.000    35090.000    35012.000    34526.000    34178.000
    3.2178    33716.000    33150.000    32816.000    32351.000    31842.000
    3.2721    30974.000    30689.000    30147.000    30246.000    29596.000
    3.3264    29212.000    28885.000    28539.000    27710.000    27606.000
    3.3808    27114.000    26633.000    26303.000    25696.000    25426.000
    3.4351    25132.000    24903.000    24271.000    24090.000    23565.000
    3.4894    23456.000    22884.000    22874.000    22358.000    21718.000
    3.5438    21519.000    21126.000    21153.000    20554.000    20277.000
    3.5981    20013.000    19554.000    19153.000    19065.000    18821.000
    3.6524    18316.000    18097.000    17978.000    17524.000    17149.000
    3.7068    16903.000    17020.000    16339.000    16194.000    15762.000
    3.7611    15655.000    15355.000    15053.000    14989.000    14345.000
    3.8154    14506.000    14023.000    13772.000    13509.000    13482.000
    3.8697    13211.000    12753.000    12719.000    12602.000    12573.000
    3.9241    12194.000    11782.000    11439.000    11391.000    11207.000
    3.9784    11077.000    10669.000    10591.000    10208.000    10331.000
    4.0327    10020.000    10004.000     9794.000     9360.000     9267.000
    4.0871     9023.000     8798.000     8789.000     8739.000     8619.000
    4.1414     8485.000     8158.000     8157.000     7812.000     7781.000
    4.1957     7597.000     7449.000     7261.000     7226.000     6970.000
    4.2501     6864.000     6973.000     6571.000     6452.000     6472.000
    4.3044     6264.000     6207.000     5986.000     5714.000     5696.000
    4.3587     5627.000     5556.000     5297.000     5301.000     5306.000
    4.4131     5128.000     4976.000     4930.000     4786.000     4783.000
    4.4674     4648.000     4470.000     4345.000     4313.000     4252.000
    4.5217     4246.000     4105.000     3971.000     3942.000     3896.000
    4.5761     3758.000     3720.000     3653.000     3523.000     3497.000
    4.6304     3431.000     3364.000     3320.000     3249.000     3271.000
    4.6847     3210.000     3172.000     3086.000     3045.000     3039.000
    4.7391     2958.000     2848.000     2789.000     2827.000     2772.000
    4.7934     2766.000     2651.000     2669.000     2693.000     2640.000
    4.8477     2528.000     2575.000     2612.000     2562.000     2502.000
    4.9021     2475.000     2500.000     2416.000     2539.000     2339.000
    4.9564     2536.000     2380.000     2493.000     2409.000     2421.000
    5.0107     2372.000     2390.000     2425.000     2485.000     2380.000
    5.0651     2507.000     2465.000     2491.000     2476.000     2558.000
    5.1194     2539.000     2574.000     2579.000     2502.000     2516.000
    5.1737     2436.000     2601.000     2433.000     2455.000     2444.000
    5.2281     2395.000     2345.000     2381.000     2372.000     2262.000
    5.2824     2242.000     2314.000     2233.000     2164.000     2146.000
    5.3367     2199.000     2178.000     2182.000     2144.000     2184.000
    5.3911     2182.000     2108.000     2059.000     2137.000     2022.000
    5.4454     1999.000     1988.000     1990.000     1985.000     1970.000
    5.4997     1851.000     1843.000     1831.000     1812.000     1740.000
    5.5540     1751.000     1787.000     1797.000     1721.000     1692.000
    5.6084     1615.000     1662.000     1562.000     1550.000     1591.000
    5.6627     1578.000     1532.000     1543.000     1556.000     1500.000
    5.7170     1485.000     1452.000     1446.000     1396.000     1377.000
    5.7714     1422.000     1450.000     1363.000     1465.000     1474.000
    5.8257     1376.000     1319.000     1291.000     1342.000     1347.000
    5.8800     1371.000     1388.000     1304.000     1290.000     1376.000
    5.9344     1333.000     1301.000     1282.000     1255.000     1314.000
    5.9887     1227.000     1224.000     1263.000     1284.000     1236.000
    6.0430     1219.000     1284.000     1278.000     1252.000     1255.000
    6.0974     1213.000     1277.000     1157.000     1161.000     1194.000
    6.1517     1203.000     1253.000     1194.000     1217.000     1257.000
    6.2060     1201.000     1227.000     1160.000     1240.000     1201.000
    6.2604     1194.000     1148.000     1182.000     1142.000     1115.000
    6.3147     1128.000     1129.000     1100.000     1119.000     1107.000
    6.3690     1120.000     1112.000     1093.000     1128.000     1117.000
    6.4234     1102.000     1146.000     1206.000     1094.000     1074.000
    6.4777     1115.000     1092.000     1044.000     1087.000     1045.000
    6.5320     1107.000     1116.000     1070.000     1070.000     1059.000
    6.5864      994.000     1050.000     1059.000     1020.000     1012.000
    6.6407     1023.000     1014.000     1015.000      979.000     1087.000
    6.6950      996.000      931.000     1038.000      997.000     1038.000
    6.7494      988.000     1069.000      984.000      916.000      931.000
    6.8037      945.000     1018.000      955.000      928.000      894.000
    6.8580      953.000      957.000      933.000      914.000      895.000
    6.9124      932.000      918.000      879.000      931.000      944.000
    6.9667      935.000      884.000      912.000      871.000      942.000
    7.0210      907.000      848.000      884.000      893.000      893.000
    7.0753      918.000      925.000      835.000      899.000      843.000
    7.1297      870.000      870.000      812.000      856.000      856.000
    7.1840      862.000      864.000      835.000      885.000      873.000
    7.2383      784.000      880.000      835.000      857.000      908.000
    7.2927      851.000      830.000      809.000      808.000      900.000
    7.3470      822.000      821.000      809.000      780.000      790.000
    7.4013      896.000      766.000      843.000      878.000      839.000
    7.4557      806.000      800.000      821.000      807.000      806.000
    7.5100      840.000      835.000      793.000      821.000      885.000
    7.5643      799.000      851.000      807.000      805.000      863.000
    7.6187      825.000      851.000      811.000      800.000      868.000
    7.6730      821.000      861.000      825.000      815.000      817.000
    7.7273      803.000      786.000      810.000      805.000      812.000
    7.7817      832.000      832.000      850.000      860.000      811.000
    7.8360      832.000      852.000      801.000      810.000      828.000
    7.8903      796.000      843.000      769.000      871.000      870.000
    7.9447      862.000      829.000      863.000      841.000      841.000
    7.9990      853.000      875.000      844.000      823.000      878.000
    8.0533      896.000      875.000      896.000      868.000      886.000
    8.1077      866.000      948.000      894.000      912.000      977.000
    8.1620      976.000      999.000     1004.000      936.000      998.000
    8.2163     1056.000     1028.000     1108.000     1027.000     1116.000
    8.2707     1125.000     1117.000     1139.000     1183.000     1166.000
    8.3250     1236.000     1126.000     1172.000     1134.000     1190.000
    8.3793     1165.000     1106.000     1060.000     1046.000     1043.000
    8.4337      994.000      934.000      975.000      909.000      900.000
    8.4880      857.000      823.000      835.000      831.000      805.000
    8.5423      794.000      828.000      764.000      828.000      787.000
    8.5966      793.000      789.000      811.000      790.000      855.000
    8.6510      904.000      827.000      821.000      850.000      924.000
    8.7053      877.000      886.000      949.000      879.000      891.000
    8.7596      912.000      909.000      905.000      892.000      923.000
    8.8140      925.000      906.000      936.000      950.000      936.000
    8.8683      898.000      915.000      951.000      959.000      990.000
    8.9226      993.000     1066.000     1103.000     1097.000     1078.000
    8.9770     1129.000     1136.000     1158.000     1232.000     1256.000
    9.0313     1246.000     1309.000     1327.000     1403.000     1404.000
    9.0856     1419.000     1496.000     1487.000     1559.000     1639.000
    9.1400     1757.000     1786.000     1937.000     1881.000     2117.000
    9.1943     2066.000     2260.000     2312.000     2398.000     2640.000
    9.2486     2778.000     2952.000     3023.000     3127.000     3282.000
    9.3030     3399.000     3538.000     3832.000     3909.000     3991.000
    9.3573     4182.000     4144.000     4357.000     4480.000     4407.000
    9.4116     4495.000     4570.000     4542.000     4614.000     4474.000
    9.4660     4402.000     4515.000     4472.000     4402.000     4644.000
    9.5203     4716.000     5057.000     5439.000     5780.000     5953.000
    9.5746     6435.000     6854.000     7370.000     7910.000     8285.000
    9.6290     8902.000     9367.000     9944.000    10466.000    11030.000
    9.6833    11587.000    11932.000    12310.000    13007.000    13304.000
    9.7376    13520.000    13617.000    13577.000    13535.000    13325.000
    9.7920    12952.000    12324.000    11394.000    10542.000     9355.000
    9.8463     8136.000     7139.000     5979.000     4968.000     4043.000
    9.9006     3490.000     2928.000     2845.000     2497.000     2435.000
    9.9550     2376.000     2332.000     2445.000     2429.000     2584.000
   10.0093     2690.000     2839.000     2992.000     3189.000     3293.000
   10.0636     3431.000     3674.000     3888.000     3890.000     4279.000
   10.1180     4297.000     4597.000     4892.000     5090.000     5375.000
   10.1723     5463.000     5705.000     5711.000     6061.000     6081.000
   10.2266     6309.000     6402.000     6433.000     6362.000     6126.000
   10.2809     6086.000     5789.000     5314.000     4941.000     4444.000
   10.3353     3921.000     3627.000     3009.000     2521.000     2180.000
   10.3896     1854.000     1578.000     1421.000     1312.000     1279.000
   10.4439     1200.000     1120.000     1072.000     1150.000     1055.000
   10.4983     1074.000     1008.000     1044.000     1044.000      945.000
   10.5526     1048.000      996.000     1026.000     1057.000     1005.000
   10.6069     1051.000     1001.000     1001.000     1016.000      996.000
   10.6613      955.000      975.000      999.000      998.000     1045.000
   10.7156      963.000      987.000      989.000     1073.000     1037.000
   10.7699     1027.000     1032.000      993.000     1033.000     1011.000
   10.8243     1010.000     1069.000     1071.000     1035.000     1081.000
   10.8786     1065.000     1096.000     1135.000     1153.000     1056.000
   10.9329     1216.000     1182.000     1212.000     1220.000     1255.000
   10.9873     1273.000     1304.000     1369.000     1343.000     1430.000
   11.0416     1450.000     1472.000     1534.000     1540.000     1631.000
   11.0959     1734.000     1702.000     1852.000     1961.000     1990.000
   11.1503     2091.000     2245.000     2285.000     2532.000     2677.000
   11.2046     2945.000     3099.000     3321.000     3473.000     3696.000
   11.2589     4068.000     4234.000     4583.000     4678.000     4941.000
   11.3133     5283.000     5161.000     5548.000     5845.000     6034.000
   11.3676     6300.000     6374.000     6586.000     6813.000     6795.000
   11.4219     6761.000     6971.000     6832.000     6658.000     6583.000
   11.4763     6215.000     5743.000     5459.000     4978.000     4366.000
   11.5306     4033.000     3621.000     3429.000     3199.000     3152.000
   11.5849     3011.000     2907.000     3025.000     3064.000     3303.000
   11.6393     3305.000     3485.000     3572.000     3752.000     3847.000
   11.6936     3966.000     4188.000     4340.000     4426.000     4569.000
   11.7479     4618.000     4683.000     4656.000     4568.000     4621.000
   11.8022     4468.000     4237.000     4096.000     3831.000     3614.000
   11.8566     3203.000     2858.000     2623.000     2088.000     1952.000
   11.9109     1648.000     1557.000     1400.000     1297.000     1258.000
   11.9652     1186.000     1092.000     1129.000     1084.000     1126.000
   12.0196     1142.000     1091.000     1029.000     1061.000     1093.000
   12.0739     1103.000     1129.000     1137.000     1164.000     1190.000
   12.1282     1161.000     1192.000     1201.000     1222.000     1259.000
   12.1826     1235.000     1310.000     1298.000     1326.000     1377.000
   12.2369     1369.000     1432.000     1448.000     1589.000     1533.000
   12.2912     1675.000     1744.000     1763.000     1987.000     1979.000
   12.3456     2170.000     2260.000     2410.000     2615.000     2713.000
   12.3999     2765.000     2845.000     2976.000     3162.000     3288.000
   12.4542     3489.000     3608.000     3641.000     3743.000     4028.000
   12.5086     3931.000     4122.000     4008.000     3959.000     4089.000
   12.5629     3975.000     3945.000     3872.000     3690.000     3475.000
   12.6172     3329.000     3071.000     2893.000     2697.000     2533.000
   12.6716     2477.000     2569.000     2504.000     2668.000     2663.000
   12.7259     2903.000     2817.000     3143.000     3282.000     3515.000
   12.7802     3725.000     4038.000     4470.000     4559.000     4895.000
   12.8346     5088.000     5499.000     5665.000     6095.000     6272.000
   12.8889     6596.000     6844.000     7066.000     7504.000     7567.000
   12.9432     8209.000     8142.000     8690.000     8602.000     8827.000
   12.9976     8758.000     8562.000     8576.000     8146.000     8023.000
   13.0519     7669.000     7238.000     6851.000     6660.000     6404.000
   13.1062     6142.000     6005.000     6089.000     6101.000     6046.000
   13.1606     5827.000     5914.000     5803.000     5693.000     5729.000
   13.2149     5414.000     5096.000     4830.000     4502.000     3939.000
   13.2692     3743.000     3207.000     2915.000     2564.000     2262.000
   13.3236     1961.000     1753.000     1647.000     1557.000     1412.000
   13.3779     1369.000     1425.000     1331.000     1320.000     1334.000
   13.4322     1358.000     1333.000     1370.000     1386.000     1410.000
   13.4865     1382.000     1421.000     1538.000     1481.000     1613.000
   13.5409     1650.000     1678.000     1773.000     1941.000     1970.000
   13.5952     2133.000     2272.000     2376.000     2539.000     2715.000
   13.6495     2778.000     3044.000     3185.000     3389.000     3425.000
   13.7039     3511.000     3764.000     3872.000     3963.000     4089.000
   13.7582     4255.000     4304.000     4530.000     4541.000     4407.000
   13.8125     4455.000     4489.000     4346.000     4239.000     3946.000
   13.8669     3798.000     3427.000     3178.000     2894.000     2559.000
   13.9212     2212.000     1929.000     1704.000     1549.000     1305.000
   13.9755     1312.000     1237.000     1167.000     1123.000     1109.000
   14.0299     1057.000     1047.000     1090.000     1035.000     1103.000
   14.0842      997.000     1018.000      997.000     1006.000      912.000
   14.1385     1000.000      944.000      989.000     1012.000      934.000
   14.1929     1011.000     1019.000      973.000      941.000      966.000
   14.2472      941.000      888.000      977.000      914.000      913.000
   14.3015      963.000      947.000     1038.000      924.000      915.000
   14.3559      971.000      959.000     1007.000      896.000     1020.000
   14.4102      920.000      970.000      951.000      997.000      930.000
   14.4645     1003.000      994.000      942.000      942.000     1014.000
   14.5189     1010.000      959.000      991.000      994.000      997.000
   14.5732      994.000      963.000     1047.000     1019.000     1080.000
   14.6275     1042.000     1094.000     1112.000     1035.000     1049.000
   14.6819     1114.000     1153.000     1180.000     1183.000     1183.000
   14.7362     1229.000     1200.000     1272.000     1291.000     1292.000
   14.7905     1449.000     1442.000     1532.000     1494.000     1564.000
   14.8449     1711.000     1805.000     1897.000     2061.000     2281.000
   14.8992     2320.000     2502.000     2799.000     2906.000     3150.000
   14.9535     3321.000     3612.000     3677.000     3984.000     4271.000
   15.0078     4419.000     4449.000     4657.000     4876.000     4907.000
   15.0622     5138.000     5355.000     5344.000     5451.000     5419.000
   15.1165     5453.000     5381.000     5412.000     5188.000     4826.000
   15.1708     4724.000     4280.000     3980.000     3545.000     3222.000
   15.2252     2749.000     2538.000     2182.000     1990.000     1875.000
   15.2795     1648.000     1677.000     1559.000     1565.000     1549.000
   15.3338     1551.000     1579.000     1535.000     1584.000     1610.000
   15.3882     1504.000     1570.000     1477.000     1436.000     1466.000
   15.4425     1413.000     1445.000     1328.000     1390.000     1148.000
   15.4968     1143.000     1181.000     1156.000     1051.000     1088.000
   15.5512     1061.000     1071.000     1018.000      970.000      958.000
   15.6055     1007.000      944.000      998.000      979.000      948.000
   15.6598      984.000      954.000      946.000      922.000     1013.000
   15.7142      969.000      998.000      993.000      978.000     1024.000
   15.7685      968.000     1023.000     1030.000     1035.000     1019.000
   15.8228     1112.000     1078.000     1086.000     1134.000     1163.000
   15.8772     1198.000     1164.000     1203.000     1155.000     1297.000
   15.9315     1331.000     1393.000     1383.000     1466.000     1422.000
   15.9858     1479.000     1582.000     1591.000     1551.000     1684.000
   16.0402     1603.000     1670.000     1662.000     1754.000     1767.000
   16.0945     1692.000     1691.000     1690.000     1677.000     1728.000
   16.1488     1716.000     1654.000     1659.000     1525.000     1517.000
   16.2032     1442.000     1387.000     1327.000     1196.000     1239.000
   16.2575     1075.000     1084.000     1053.000     1061.000     1028.000
   16.3118     1057.000     1041.000     1070.000     1017.000     1078.000
   16.3662     1103.000     1100.000     1126.000     1174.000     1151.000
   16.4205     1194.000     1176.000     1271.000     1303.000     1388.000
   16.4748     1389.000     1477.000     1539.000     1543.000     1597.000
   16.5292     1658.000     1704.000     1690.000     1777.000     1744.000
   16.5835     1795.000     1802.000     1882.000     1920.000     1834.000
   16.6378     1840.000     1792.000     1840.000     1955.000     1795.000
   16.6921     1853.000     1685.000     1650.000     1616.000     1598.000
   16.7465     1494.000     1440.000     1363.000     1370.000     1274.000
   16.8008     1345.000     1370.000     1288.000     1290.000     1447.000
   16.8551     1512.000     1511.000     1561.000     1600.000     1634.000
   16.9095     1686.000     1732.000     1751.000     1746.000     1850.000
   16.9638     1888.000     1930.000     1902.000     2041.000     1965.000
   17.0181     2001.000     2128.000     2119.000     2144.000     2180.000
   17.0725     2226.000     2218.000     2144.000     2245.000     2294.000
   17.1268     2295.000     2341.000     2468.000     2545.000     2659.000
   17.1811     2903.000     3059.000     3215.000     3657.000     3901.000
   17.2355     4332.000     4550.000     4967.000     5246.000     5687.000
   17.2898     5974.000     6171.000     6534.000     6837.000     7122.000
   17.3441     7455.000     7562.000     7921.000     8169.000     8393.000
   17.3985     8401.000     8430.000     8543.000     8495.000     8444.000
   17.4528     8319.000     7893.000     7405.000     7193.000     6552.000
   17.5071     5772.000     5111.000     4403.000     3798.000     3479.000
   17.5615     2921.000     2588.000     2273.000     1999.000     1797.000
   17.6158     1681.000     1462.000     1437.000     1363.000     1331.000
   17.6701     1303.000     1274.000     1284.000     1321.000     1377.000
   17.7245     1348.000     1374.000     1409.000     1482.000     1484.000
   17.7788     1531.000     1525.000     1629.000     1690.000     1645.000
   17.8331     1793.000     1752.000     1835.000     1733.000     1826.000
   17.8875     1895.000     1918.000     1866.000     2026.000     1954.000
   17.9418     2080.000     2142.000     1999.000     2001.000     1968.000
   17.9961     1975.000     2009.000     1898.000     1854.000     1880.000
   18.0505     1725.000     1740.000     1714.000     1725.000     1718.000
   18.1048     1760.000     1738.000     1735.000     1841.000     1941.000
   18.1591     1888.000     1818.000     1889.000     1840.000     1945.000
   18.2134     2001.000     2056.000     2001.000     2030.000     2062.000
   18.2678     2013.000     1999.000     1966.000     1894.000     1894.000
   18.3221     1880.000     1785.000     1770.000     1711.000     1652.000
   18.3764     1642.000     1549.000     1635.000     1510.000     1538.000
   18.4308     1605.000     1668.000     1645.000     1694.000     1764.000
   18.4851     1885.000     1937.000     2060.000     2312.000     2334.000
   18.5394     2552.000     2687.000     2858.000     3100.000     3318.000
   18.5938     3615.000     3843.000     4108.000     4474.000     4876.000
   18.6481     5040.000     5439.000     5703.000     5993.000     6248.000
   18.7024     6425.000     6664.000     6869.000     7111.000     7134.000
   18.7568     7460.000     7543.000     7891.000     7772.000     8066.000
   18.8111     8253.000     8224.000     8195.000     8119.000     7767.000
   18.8654     7704.000     7360.000     7030.000     6707.000     6564.000
   18.9198     6138.000     5906.000     5683.000     5455.000     5372.000
   18.9741     5188.000     5185.000     5099.000     4949.000     4783.000
   19.0284     4769.000     4478.000     4310.000     4252.000     3996.000
   19.0828     3646.000     3370.000     3167.000     3016.000     2905.000
   19.1371     2900.000     2757.000     2496.000     2638.000     2533.000
   19.1914     2453.000     2406.000     2268.000     2227.000     2255.000
   19.2458     2066.000     1973.000     1978.000     1956.000     1969.000
   19.3001     1943.000     2037.000     2069.000     2110.000     2147.000
   19.3544     2187.000     2349.000     2471.000     2440.000     2505.000
   19.4088     2713.000     2770.000     2773.000     2863.000     2896.000
   19.4631     2954.000     3011.000     3177.000     3059.000     3241.000
   19.5174     3092.000     3153.000     3306.000     3289.000     3107.000
   19.5718     3157.000     3186.000     3159.000     3088.000     2913.000
   19.6261     2956.000     2654.000     2568.000     2320.000     2244.000
   19.6804     2159.000     2028.000     1967.000     1851.000     1811.000
   19.7348     1821.000     1774.000     1701.000     1761.000     1701.000
   19.7891     1685.000     1744.000     1757.000     1743.000     1769.000
   19.8434     1632.000     1721.000     1597.000     1602.000     1637.000
   19.8977     1514.000     1494.000     1402.000     1431.000     1449.000
   19.9521     1339.000     1373.000     1330.000     1384.000     1302.000
   20.0064     1391.000     1237.000     1324.000     1401.000     1381.000
   20.0607     1225.000     1310.000     1337.000     1337.000     1356.000
   20.1151     1308.000     1410.000     1303.000     1366.000     1289.000
   20.1694     1342.000     1442.000     1338.000     1427.000     1415.000
   20.2237     1477.000     1485.000     1549.000     1635.000     1697.000
   20.2781     1765.000     1771.000     1901.000     2075.000     2181.000
   20.3324     2324.000     2411.000     2556.000     2645.000     2965.000
   20.3867     3236.000     3434.000     3692.000     3963.000     4099.000
   20.4411     4453.000     4617.000     4893.000     5001.000     5238.000
   20.4954     5345.000     5371.000     5544.000     5725.000     5870.000
   20.5497     5853.000     6112.000     6064.000     5972.000     5932.000
   20.6041     5914.000     5693.000     5741.000     5236.000     4972.000
   20.6584     4642.000     4398.000     4037.000     3633.000     3401.000
   20.7127     3013.000     2905.000     2593.000     2583.000     2555.000
   20.7671     2539.000     2463.000     2574.000     2558.000     2585.000
   20.8214     2649.000     2847.000     2795.000     2901.000     2931.000
   20.8757     2933.000     3049.000     2986.000     3025.000     3087.000
   20.9301     2992.000     3001.000     2985.000     2928.000     2871.000
   20.9844     2731.000     2671.000     2591.000     2391.000     2188.000
   21.0387     2107.000     1923.000     1856.000     1698.000     1599.000
   21.0931     1495.000     1492.000     1352.000     1376.000     1347.000
   21.1474     1327.000     1368.000     1276.000     1277.000     1299.000
   21.2017     1309.000     1356.000     1360.000     1368.000     1429.000
   21.2561     1329.000     1442.000     1378.000     1375.000     1392.000
   21.3104     1377.000     1453.000     1512.000     1676.000     1607.000
   21.3647     1553.000     1682.000     1725.000     1772.000     1928.000
   21.4190     1970.000     2035.000     2153.000     2399.000     2483.000
   21.4734     2730.000     2954.000     3197.000     3530.000     3769.000
   21.5277     4064.000     4367.000     4460.000     4670.000     4844.000
   21.5820     5217.000     5396.000     5644.000     5789.000     5990.000
   21.6364     6039.000     6087.000     6290.000     6376.000     6407.000
   21.6907     6454.000     6458.000     6289.000     6358.000     6161.000
   21.7450     5922.000     5639.000     5352.000     4876.000     4591.000
   21.7994     4165.000     3783.000     3468.000     3321.000     3156.000
   21.8537     3093.000     2863.000     3111.000     3119.000     3352.000
   21.9080     3529.000     3718.000     4035.000     4453.000     4630.000
   21.9624     5107.000     5387.000     5800.000     6302.000     6619.000
   22.0167     7043.000     7452.000     7862.000     8286.000     8709.000
   22.0710     9214.000     9406.000     9575.000     9827.000     9940.000
   22.1254    10181.000    10334.000    10313.000    10229.000    10018.000
   22.1797     9794.000     9717.000     9416.000     9127.000     8834.000
   22.2340     8437.000     8247.000     7854.000     7347.000     6970.000
   22.2884     6405.000     5835.000     5269.000     4842.000     4368.000
   22.3427     4050.000     3720.000     3444.000     3438.000     3142.000
   22.3970     3076.000     3049.000     3077.000     3103.000     3253.000
   22.4514     3384.000     3600.000     3881.000     4087.000     4264.000
   22.5057     4617.000     4973.000     5548.000     6018.000     6667.000
   22.5600     7625.000     8228.000     9074.000    10019.000    10590.000
   22.6144    11466.000    12369.000    13108.000    13907.000    14322.000
   22.6687    15131.000    15563.000    16653.000    16879.000    17597.000
   22.7230    18373.000    18604.000    19541.000    19591.000    20285.000
   22.7774    20413.000    20427.000    20551.000    20264.000    19588.000
   22.8317    18900.000    17889.000    16854.000    15658.000    14415.000
   22.8860    13586.000    12345.000    11493.000    10892.000    10375.000
   22.9404     9520.000     9101.000     8652.000     8137.000     7829.000
   22.9947     7303.000     6930.000     6475.000     6026.000     5587.000
   23.0490     4970.000     4614.000     4232.000     3945.000     3514.000
   23.1033     3429.000     3267.000     3019.000     2976.000     2888.000
   23.1577     2844.000     2735.000     2828.000     2832.000     2908.000
   23.2120     2835.000     3098.000     3049.000     3305.000     3322.000
   23.2663     3584.000     3527.000     3777.000     3743.000     3902.000
   23.3207     4080.000     4079.000     4148.000     4231.000     4310.000
   23.3750     4210.000     4361.000     4268.000     4296.000     4453.000
   23.4293     4161.000     4205.000     4133.000     4121.000     3989.000
   23.4837     3802.000     3705.000     3578.000     3363.000     3328.000
   23.5380     3230.000     3242.000     3130.000     3177.000     3057.000
   23.5923     3110.000     3177.000     3322.000     3292.000     3428.000
   23.6467     3410.000     3648.000     3683.000     3822.000     3707.000
   23.7010     3823.000     3982.000     3922.000     4072.000     4017.000
   23.7553     3982.000     3941.000     4060.000     3949.000     3820.000
   23.8097     3770.000     3599.000     3561.000     3379.000     3292.000
   23.8640     3193.000     3001.000     2851.000     2712.000     2668.000
   23.9183     2609.000     2394.000     2300.000     2168.000     2056.000
   23.9727     1896.000     1805.000     1822.000     1674.000     1651.000
   24.0270     1625.000     1602.000     1517.000     1523.000     1470.000
   24.0813     1544.000     1445.000     1498.000     1450.000     1510.000
   24.1357     1485.000     1557.000     1584.000     1629.000     1618.000
   24.1900     1675.000     1721.000     1835.000     1861.000     2005.000
   24.2443     1951.000     2208.000     2238.000     2234.000     2505.000
   24.2987     2456.000     2546.000     2652.000     2708.000     2683.000
   24.3530     2826.000     2894.000     2908.000     3075.000     2977.000
   24.4073     3152.000     3349.000     3229.000     3448.000     3286.000
   24.4617     3448.000     3469.000     3499.000     3662.000     3684.000
   24.5160     3601.000     3742.000     3979.000     4109.000     4202.000
   24.5703     4733.000     4932.000     5422.000     5761.000     6036.000
   24.6246     6434.000     6987.000     7116.000     7637.000     7856.000
   24.6790     8148.000     8389.000     8525.000     8758.000     8980.000
   24.7333     8897.000     9132.000     9100.000     9144.000     9038.000
   24.7876     8707.000     8452.000     8156.000     7560.000     7271.000
   24.8420     6886.000     5962.000     5461.000     4903.000     4219.000
   24.8963     3808.000     3253.000     3022.000     2648.000     2323.000
   24.9506     2124.000     2026.000     1875.000     1846.000     1720.000
   25.0050     1674.000     1748.000     1686.000     1711.000     1690.000
   25.0593     1832.000     1806.000     1777.000     1907.000     1945.000
   25.1136     1941.000     2056.000     2069.000     2120.000     2255.000
   25.1680     2234.000     2321.000     2491.000     2473.000     2537.000
   25.2223     2580.000     2607.000     2624.000     2755.000     2730.000
   25.2766     2740.000     2778.000     2645.000     2748.000     2742.000
   25.3310     2657.000     2584.000     2621.000     2573.000     2502.000
   25.3853     2325.000     2338.000     2289.000     2214.000     2179.000
   25.4396     2087.000     1998.000     1966.000     1955.000     1894.000
   25.4940     1806.000     1830.000     1734.000     1783.000     1708.000
   25.5483     1692.000     1730.000     1763.000     1696.000     1661.000
   25.6026     1619.000     1719.000     1627.000     1656.000     1767.000
   25.6570     1531.000     1509.000     1528.000     1556.000     1437.000
   25.7113     1468.000     1396.000     1390.000     1311.000     1284.000
   25.7656     1326.000     1272.000     1255.000     1251.000     1219.000
   25.8200     1249.000     1244.000     1174.000     1222.000     1303.000
   25.8743     1230.000     1194.000     1267.000     1270.000     1208.000
   25.9286     1188.000     1157.000     1246.000     1141.000     1252.000
   25.9830     1229.000     1221.000     1233.000     1280.000     1289.000
   26.0373     1337.000     1281.000     1261.000     1288.000     1290.000
   26.0916     1310.000     1301.000     1371.000     1278.000     1349.000
   26.1460     1331.000     1377.000     1412.000     1450.000     1437.000
   26.2003     1537.000     1515.000     1535.000     1570.000     1600.000
   26.2546     1611.000     1591.000     1642.000     1635.000     1670.000
   26.3089     1662.000     1775.000     1836.000     1863.000     1840.000
   26.3633     1943.000     1956.000     1972.000     1951.000     2061.000
   26.4176     2023.000     2162.000     2118.000     2159.000     2234.000
   26.4719     2243.000     2261.000     2233.000     2275.000     2266.000
   26.5263     2258.000     2348.000     2261.000     2251.000     2166.000
   26.5806     2185.000     2220.000     2198.000     2099.000     2110.000
   26.6349     2081.000     2016.000     2039.000     1990.000     2010.000
   26.6893     1918.000     1863.000     1915.000     1753.000     1758.000
   26.7436     1718.000     1757.000     1694.000     1591.000     1640.000
   26.7979     1595.000     1587.000     1592.000     1509.000     1483.000
   26.8523     1470.000     1492.000     1461.000     1511.000     1424.000
   26.9066     1400.000     1520.000     1438.000     1474.000     1498.000
   26.9609     1575.000     1445.000     1602.000     1557.000     1649.000
   27.0153     1743.000     1693.000     1866.000     1792.000     1832.000
   27.0696     1876.000     1958.000     1949.000     2011.000     2129.000
   27.1239     2057.000     1999.000     2021.000     2126.000     2163.000
   27.1783     2081.000     2098.000     2085.000     2083.000     2091.000
   27.2326     2020.000     2097.000     2063.000     2045.000     2003.000
   27.2869     1971.000     2011.000     2043.000     2164.000     2169.000
   27.3413     2162.000     2282.000     2365.000     2380.000     2480.000
   27.3956     2582.000     2752.000     2756.000     2889.000     2881.000
   27.4499     2995.000     3286.000     3418.000     3580.000     3876.000
   27.5043     4026.000     4325.000     4667.000     5106.000     5384.000
   27.5586     5810.000     6255.000     6531.000     7000.000     7311.000
   27.6129     7589.000     8062.000     8206.000     8492.000     8545.000
   27.6673     9052.000     9106.000     9248.000     9609.000     9667.000
   27.7216     9688.000     9760.000     9419.000     9492.000     9385.000
   27.7759     8889.000     8590.000     7955.000     7456.000     6935.000
   27.8302     6346.000     5872.000     5127.000     4790.000     4147.000
   27.8846     3640.000     3131.000     2884.000     2531.000     2294.000
   27.9389     2098.000     2007.000     1810.000     1694.000     1628.000
   27.9932     1542.000     1533.000     1462.000     1424.000     1457.000
   28.0476     1426.000     1450.000     1434.000     1382.000     1398.000
   28.1019     1386.000     1374.000     1429.000     1379.000     1311.000
   28.1562     1366.000     1433.000     1319.000     1346.000     1398.000
   28.2106     1413.000     1311.000     1347.000     1328.000     1346.000
   28.2649     1301.000     1346.000     1294.000     1399.000     1353.000
   28.3192     1409.000     1373.000     1451.000     1446.000     1371.000
   28.3736     1472.000     1509.000     1478.000     1386.000     1477.000
   28.4279     1467.000     1568.000     1508.000     1510.000     1516.000
   28.4822     1558.000     1588.000     1544.000     1561.000     1549.000
   28.5366     1613.000     1581.000     1674.000     1620.000     1593.000
   28.5909     1579.000     1568.000     1637.000     1597.000     1579.000
   28.6452     1657.000     1587.000     1652.000     1654.000     1657.000
   28.6996     1635.000     1667.000     1681.000     1800.000     1764.000
   28.7539     1780.000     1683.000     1669.000     1797.000     1672.000
   28.8082     1659.000     1580.000     1642.000     1630.000     1633.000
   28.8626     1584.000     1649.000     1651.000     1696.000     1787.000
   28.9169     1907.000     1897.000     1980.000     2045.000     2128.000
   28.9712     2254.000     2425.000     2372.000     2473.000     2457.000
   29.0256     2655.000     2698.000     2679.000     2761.000     2843.000
   29.0799     2854.000     3008.000     2786.000     2756.000     2848.000
   29.1342     2738.000     2615.000     2540.000     2423.000     2352.000
   29.1886     2285.000     2171.000     2081.000     1937.000     1863.000
   29.2429     1762.000     1655.000     1584.000     1459.000     1467.000
   29.2972     1433.000     1391.000     1273.000     1383.000     1277.000
   29.3516     1263.000     1296.000     1264.000     1344.000     1321.000
   29.4059     1288.000     1428.000     1381.000     1380.000     1412.000
   29.4602     1352.000     1373.000     1397.000     1377.000     1327.000
   29.5145     1299.000     1325.000     1239.000     1276.000     1278.000
   29.5689     1337.000     1290.000     1236.000     1263.000     1198.000
   29.6232     1140.000     1174.000     1159.000     1149.000     1071.000
   29.6775     1111.000     1137.000     1012.000     1070.000      954.000
   29.7319      990.000      957.000     1010.000      868.000      940.000
   29.7862      919.000      952.000      944.000      869.000      871.000
   29.8405      948.000      900.000      975.000      925.000      987.000
   29.8949      879.000      896.000      865.000      889.000      859.000
   29.9492      900.000      944.000      898.000      917.000      877.000
   30.0035      924.000      821.000      859.000      849.000      901.000
   30.0579      905.000      843.000      894.000      870.000      921.000
   30.1122      924.000      879.000      942.000      903.000      914.000
   30.1665      893.000      944.000      934.000      948.000      929.000
   30.2209      972.000      990.000     1009.000     1042.000     1011.000
   30.2752     1017.000     1056.000     1038.000     1047.000     1065.000
   30.3295     1119.000     1092.000     1108.000     1102.000     1135.000
   30.3839     1131.000     1131.000     1146.000     1073.000     1119.000
   30.4382     1046.000     1090.000     1122.000     1054.000     1128.000
   30.4925     1088.000     1117.000     1162.000     1147.000     1047.000
   30.5469     1153.000     1105.000     1153.000     1154.000     1134.000
   30.6012     1149.000     1157.000     1112.000     1120.000     1112.000
   30.6555     1113.000     1057.000     1117.000     1070.000     1066.000
   30.7099     1115.000     1086.000     1094.000     1099.000     1114.000
   30.7642     1031.000     1136.000     1104.000     1113.000     1058.000
   30.8185     1002.000     1072.000      970.000     1005.000     1075.000
   30.8729     1073.000     1064.000     1020.000     1034.000     1017.000
   30.9272     1015.000      973.000     1037.000     1172.000     1098.000
   30.9815     1178.000     1155.000     1204.000     1256.000     1280.000
   31.0358     1229.000     1293.000     1331.000     1375.000     1418.000
   31.0902     1388.000     1393.000     1370.000     1459.000     1523.000
   31.1445     1400.000     1462.000     1482.000     1510.000     1548.000
   31.1988     1479.000     1576.000     1540.000     1500.000     1453.000
   31.2532     1459.000     1408.000     1371.000     1320.000     1389.000
   31.3075     1288.000     1364.000     1318.000     1252.000     1385.000
   31.3618     1290.000     1290.000     1263.000     1239.000     1309.000
   31.4162     1381.000     1291.000     1290.000     1306.000     1247.000
   31.4705     1267.000     1245.000     1212.000     1304.000     1166.000
   31.5248     1213.000     1260.000     1266.000     1274.000     1306.000
   31.5792     1270.000     1252.000     1238.000     1218.000     1119.000
   31.6335     1158.000     1186.000     1142.000     1058.000     1080.000
   31.6878     1127.000     1064.000      994.000      991.000     1053.000
   31.7422     1028.000      995.000     1004.000     1079.000     1013.000
   31.7965     1077.000     1097.000     1119.000     1131.000     1164.000
   31.8508     1178.000     1125.000     1193.000     1139.000     1186.000
   31.9052     1179.000     1191.000     1207.000     1271.000     1257.000
   31.9595     1202.000     1342.000     1348.000     1335.000     1347.000
   32.0138     1436.000     1420.000     1483.000     1533.000     1477.000
   32.0682     1535.000     1506.000     1579.000     1520.000     1645.000
   32.1225     1600.000     1636.000     1617.000     1684.000     1582.000
   32.1768     1659.000     1624.000     1632.000     1621.000     1567.000
   32.2312     1533.000     1547.000     1577.000     1485.000     1396.000
   32.2855     1402.000     1314.000     1326.000     1276.000     1292.000
   32.3398     1279.000     1303.000     1319.000     1208.000     1285.000
   32.3942     1288.000     1375.000     1381.000     1334.000     1398.000
   32.4485     1433.000     1468.000     1482.000     1472.000     1547.000
   32.5028     1549.000     1628.000     1607.000     1626.000     1679.000
   32.5572     1578.000     1662.000     1679.000     1588.000     1585.000
   32.6115     1646.000     1509.000     1543.000     1481.000     1415.000
   32.6658     1391.000     1352.000     1308.000     1338.000     1316.000
   32.7201     1211.000     1175.000     1130.000     1123.000     1090.000
   32.7745     1133.000     1046.000     1123.000     1023.000     1080.000
   32.8288     1049.000     1052.000     1038.000     1037.000     1063.000
   32.8831     1054.000     1053.000     1034.000     1075.000     1060.000
   32.9375     1050.000     1081.000     1068.000     1007.000     1005.000
   32.9918     1048.000     1016.000      951.000     1082.000      971.000
   33.0461     1046.000      966.000     1029.000     1058.000     1028.000
   33.1005     1014.000     1067.000     1027.000     1081.000     1049.000
   33.1548     1060.000     1142.000     1083.000     1154.000     1156.000
   33.2091     1078.000     1177.000     1218.000     1204.000     1167.000
   33.2635     1204.000     1179.000     1195.000     1265.000     1290.000
   33.3178     1199.000     1291.000     1224.000     1224.000     1182.000
   33.3721     1076.000     1189.000     1137.000     1150.000     1122.000
   33.4265     1080.000     1078.000      970.000     1064.000     1073.000
   33.4808     1011.000      983.000      960.000      954.000      942.000
   33.5351      991.000      980.000      971.000      941.000      961.000
   33.5895      891.000      943.000      928.000      973.000      955.000
   33.6438      947.000      987.000      960.000     1010.000     1005.000
   33.6981      980.000      992.000     1031.000      958.000      996.000
   33.7525      964.000      982.000     1029.000      987.000     1017.000
   33.8068     1015.000     1053.000     1090.000     1136.000     1143.000
   33.8611     1229.000     1142.000     1223.000     1207.000     1271.000
   33.9155     1273.000     1325.000     1343.000     1338.000     1333.000
   33.9698     1366.000     1396.000     1431.000     1367.000     1481.000
   34.0241     1416.000     1431.000     1432.000     1402.000     1448.000
   34.0785     1436.000     1398.000     1450.000     1321.000     1322.000
   34.1328     1245.000     1276.000     1243.000     1161.000     1110.000
   34.1871     1082.000     1049.000     1077.000     1038.000     1009.000
   34.2414     1033.000     1033.000     1046.000      938.000     1020.000
   34.2958     1020.000      981.000     1020.000     1042.000     1026.000
   34.3501      973.000     1004.000     1026.000     1029.000     1000.000
   34.4044     1055.000     1090.000     1035.000     1069.000     1040.000
   34.4588     1112.000     1127.000     1146.000     1112.000     1079.000
   34.5131     1122.000     1108.000     1119.000     1126.000     1108.000
   34.5674     1198.000     1164.000     1203.000     1181.000     1229.000
   34.6218     1259.000     1137.000     1210.000     1270.000     1287.000
   34.6761     1279.000     1302.000     1260.000     1302.000     1291.000
   34.7304     1311.000     1392.000     1353.000     1373.000     1253.000
   34.7848     1344.000     1308.000     1215.000     1244.000     1170.000
   34.8391     1252.000     1182.000     1157.000     1234.000     1145.000
   34.8934     1123.000     1152.000     1065.000     1117.000     1101.000
   34.9478     1099.000     1059.000     1095.000     1082.000     1105.000
   35.0021     1069.000     1013.000     1015.000     1106.000     1108.000
   35.0564     1050.000     1114.000     1093.000     1077.000     1068.000
   35.1108     1061.000     1127.000     1112.000     1118.000     1176.000
   35.1651     1121.000     1210.000     1130.000     1177.000     1139.000
   35.2194     1175.000     1159.000     1189.000     1150.000     1232.000
   35.2738     1187.000     1176.000     1201.000     1222.000     1145.000
   35.3281     1155.000     1111.000     1158.000     1112.000     1063.000
   35.3824     1042.000     1061.000     1021.000     1015.000     1081.000
   35.4368     1033.000     1045.000     1048.000     1041.000     1067.000
   35.4911      979.000      997.000     1101.000     1072.000     1086.000
   35.5454     1046.000     1113.000     1072.000     1151.000     1160.000
   35.5998     1105.000     1092.000     1159.000     1102.000     1186.000
   35.6541     1129.000     1208.000     1126.000     1143.000     1130.000
   35.7084     1238.000     1120.000     1223.000     1208.000     1206.000
   35.7627     1245.000     1272.000     1284.000     1302.000     1325.000
   35.8171     1301.000     1314.000     1309.000     1287.000     1351.000
   35.8714     1432.000     1360.000     1519.000     1447.000     1480.000
   35.9257     1444.000     1421.000     1485.000     1414.000     1409.000
   35.9801     1451.000     1340.000     1310.000     1334.000     1257.000
   36.0344     1296.000     1151.000     1197.000     1089.000     1054.000
   36.0887     1053.000     1014.000      983.000      965.000      979.000
   36.1431      926.000      922.000      933.000      862.000      880.000
   36.1974      882.000      890.000      861.000      810.000      858.000
   36.2517      850.000      851.000      914.000      798.000      885.000
   36.3061      849.000      918.000      850.000      931.000      957.000
   36.3604      878.000      972.000      979.000      933.000     1016.000
   36.4147     1005.000     1017.000     1004.000     1025.000     1009.000
   36.4691     1024.000     1042.000     1115.000     1038.000     1152.000
   36.5234     1121.000     1122.000     1137.000     1205.000     1120.000
   36.5777     1054.000     1075.000     1160.000     1101.000     1067.000
   36.6321     1132.000     1111.000     1115.000     1124.000     1086.000
   36.6864     1113.000     1131.000     1148.000     1090.000     1120.000
   36.7407     1068.000     1094.000     1034.000     1057.000     1010.000
   36.7951     1117.000     1131.000     1059.000     1115.000     1087.000
   36.8494     1122.000     1184.000     1185.000     1157.000     1132.000
   36.9037     1093.000     1097.000     1136.000     1173.000     1166.000
   36.9581     1199.000     1122.000     1159.000     1188.000     1138.000
   37.0124     1218.000     1228.000     1121.000     1182.000     1136.000
   37.0667     1120.000     1099.000     1063.000     1056.000     1086.000
   37.1211     1021.000     1016.000     1040.000      983.000      966.000
   37.1754      911.000      956.000      954.000      865.000      928.000
   37.2297      829.000      854.000      865.000      845.000      827.000
   37.2841      870.000      845.000      884.000      853.000      848.000
   37.3384      836.000      764.000      822.000      860.000      800.000
   37.3927      833.000      796.000      810.000      814.000      812.000
   37.4470      791.000      783.000      817.000      759.000      815.000
   37.5014      813.000      814.000      761.000      751.000      758.000
   37.5557      821.000      824.000      806.000      837.000      817.000
   37.6100      875.000      850.000      842.000      881.000      884.000
   37.6644      894.000      872.000      911.000      902.000      866.000
   37.7187      932.000      925.000      967.000     1008.000      863.000
   37.7730      917.000      978.000      963.000      919.000      921.000
   37.8274      966.000      944.000      944.000      967.000      930.000
   37.8817      899.000      951.000      923.000      920.000     1006.000
   37.9360      915.000      901.000      909.000      872.000      923.000
   37.9904      860.000      907.000      903.000      907.000      925.000
   38.0447      912.000      884.000      916.000      862.000      927.000
   38.0990      893.000      876.000      901.000      877.000      856.000
   38.1534      896.000      868.000      938.000      861.000      861.000
   38.2077      897.000      881.000      851.000      857.000      872.000
   38.2620      781.000      910.000      833.000      869.000      803.000
   38.3164      800.000      799.000      820.000      792.000      796.000
   38.3707      776.000      752.000      840.000      752.000      786.000
   38.4250      796.000      707.000      763.000      791.000      749.000
   38.4794      708.000      745.000      795.000      767.000      768.000
   38.5337      799.000      740.000      783.000      738.000      759.000
   38.5880      757.000      743.000      769.000      740.000      754.000
   38.6424      815.000      741.000      791.000      769.000      820.000
   38.6967      810.000      768.000      781.000      814.000      836.000
   38.7510      896.000      838.000      847.000      912.000      893.000
   38.8054      916.000      908.000      859.000      876.000      898.000
   38.8597      961.000      960.000      920.000      948.000      960.000
   38.9140      938.000      976.000      936.000      975.000      988.000
   38.9683      980.000     1035.000      963.000      987.000     1058.000
   39.0227     1002.000      998.000      968.000      987.000     1026.000
   39.0770      997.000     1002.000     1029.000     1048.000     1056.000
   39.1313     1071.000     1127.000     1113.000     1105.000     1144.000
   39.1857     1110.000     1141.000     1201.000     1209.000     1089.000
   39.2400     1185.000     1175.000     1233.000     1203.000     1209.000
   39.2943     1174.000     1180.000     1192.000     1205.000     1202.000
   39.3487     1207.000     1200.000     1140.000     1192.000     1152.000
   39.4030     1177.000     1187.000     1121.000     1081.000     1086.000
   39.4573     1041.000     1060.000     1034.000      997.000      997.000
   39.5117     1007.000      977.000      956.000      997.000      940.000
   39.5660     1023.000      910.000      976.000      899.000      961.000
   39.6203      955.000      957.000      997.000      937.000      979.000
   39.6747      998.000      945.000      974.000      945.000      923.000
   39.7290      996.000     1007.000     1087.000     1066.000     1138.000
   39.7833     1214.000     1195.000     1259.000     1285.000     1340.000
   39.8377     1433.000     1390.000     1426.000     1445.000     1443.000
   39.8920     1470.000     1494.000     1557.000     1542.000     1603.000
   39.9463     1641.000     1644.000     1582.000     1631.000     1659.000
   40.0007     1564.000     1648.000     1566.000     1381.000     1449.000
   40.0550     1433.000     1393.000     1306.000     1282.000     1189.000
   40.1093     1163.000     1127.000     1132.000     1105.000     1034.000
   40.1637     1008.000     1041.000      966.000      976.000      920.000
   40.2180      918.000      913.000      926.000      910.000      966.000
   40.2723      966.000     1000.000      942.000      909.000      985.000
   40.3267      962.000      976.000      931.000      912.000      961.000
   40.3810      914.000      914.000      960.000      980.000      974.000
   40.4353     1037.000      948.000     1001.000     1018.000     1068.000
   40.4897      995.000     1054.000     1041.000     1021.000      989.000
   40.5440     1069.000      989.000     1009.000     1030.000     1021.000
   40.5983     1048.000     1030.000     1068.000     1118.000     1030.000
   40.6526     1007.000     1083.000     1048.000     1100.000     1069.000
   40.7070     1127.000     1064.000     1075.000     1100.000     1110.000
   40.7613     1152.000     1165.000     1128.000     1111.000     1061.000
   40.8156     1092.000     1154.000     1148.000     1124.000     1065.000
   40.8700     1110.000      976.000     1015.000     1053.000     1025.000
   40.9243     1032.000      999.000      990.000      993.000     1015.000
   40.9786      904.000      903.000      913.000      934.000      902.000
   41.0330      900.000      953.000      897.000      967.000      877.000
   41.0873      899.000      939.000      970.000      910.000      935.000
   41.1416      957.000      976.000      981.000      994.000     1025.000
   41.1960      904.000     1054.000      986.000     1014.000      967.000
   41.2503      981.000      987.000      966.000      918.000      894.000
   41.3046      951.000      915.000      929.000      871.000      912.000
   41.3590      899.000      827.000      870.000      858.000      827.000
   41.4133      815.000      773.000      783.000      784.000      749.000
   41.4676      713.000      743.000      801.000      741.000      757.000
   41.5220      755.000      735.000      709.000      785.000      706.000
   41.5763      738.000      768.000      744.000      722.000      730.000
   41.6306      747.000      781.000      789.000      791.000      829.000
   41.6850      786.000      771.000      796.000      778.000      810.000
   41.7393      828.000      824.000      804.000      848.000      824.000
   41.7936      828.000      839.000      832.000      826.000      816.000
   41.8480      814.000      889.000      808.000      843.000      902.000
   41.9023      823.000      867.000      888.000      895.000      790.000
   41.9566      850.000      832.000      746.000      796.000      775.000
   42.0110      767.000      708.000      721.000      732.000      781.000
   42.0653      712.000      707.000      710.000      739.000      725.000
   42.1196      733.000      697.000      699.000      655.000      693.000
   42.1739      746.000      744.000      725.000      766.000      667.000
   42.2283      715.000      758.000      739.000      711.000      706.000
   42.2826      744.000      757.000      752.000      734.000      787.000
   42.3369      794.000      804.000      832.000      820.000      843.000
   42.3913      853.000      913.000      832.000      866.000      914.000
   42.4456      901.000      907.000      918.000      968.000      944.000
   42.4999      962.000      976.000     1006.000     1022.000      964.000
   42.5543      980.000      986.000      929.000      983.000     1054.000
   42.6086      956.000      980.000     1001.000     1033.000      949.000
   42.6629      980.000      954.000      945.000      929.000     1025.000
   42.7173      879.000      899.000      950.000      921.000      872.000
   42.7716      901.000      860.000      863.000      807.000      848.000
   42.8259      825.000      818.000      850.000      809.000      760.000
   42.8803      809.000      779.000      817.000      821.000      841.000
   42.9346      743.000      771.000      828.000      799.000      790.000
   42.9889      821.000      885.000      934.000      843.000      890.000
   43.0433      842.000      865.000      870.000      905.000      856.000
   43.0976      945.000      866.000      968.000      901.000      966.000
   43.1519      939.000      970.000     1005.000      924.000      970.000
   43.2063      987.000      956.000      970.000     1000.000      920.000
   43.2606      991.000      921.000      945.000      952.000      952.000
   43.3149      875.000      815.000      899.000      857.000      848.000
   43.3693      899.000      834.000      786.000      851.000      790.000
   43.4236      806.000      757.000      769.000      787.000      753.000
   43.4779      768.000      777.000      727.000      780.000      782.000
   43.5323      764.000      800.000      812.000      682.000      709.000
   43.5866      700.000      729.000      668.000      718.000      722.000
   43.6409      683.000      702.000      681.000      709.000      690.000
   43.6953      722.000      705.000      683.000      622.000      700.000
   43.7496      705.000      635.000      672.000      646.000      681.000
   43.8039      705.000      629.000      672.000      625.000      673.000
   43.8582      666.000      604.000      615.000      626.000      655.000
   43.9126      660.000      624.000      588.000      647.000      663.000
   43.9669      656.000      612.000      612.000      594.000      581.000
   44.0212      649.000      634.000      665.000      622.000      676.000
   44.0756      627.000      630.000      678.000      630.000      615.000
   44.1299      649.000      629.000      637.000      672.000      622.000
   44.1842      644.000      705.000      682.000      693.000      654.000
   44.2386      647.000      666.000      632.000      635.000      692.000
   44.2929      672.000      688.000      717.000      692.000      645.000
   44.3472      660.000      692.000      700.000      669.000      683.000
   44.4016      711.000      669.000      667.000      653.000      659.000
   44.4559      639.000      717.000      670.000      650.000      689.000
   44.5102      612.000      613.000      658.000      685.000      649.000
   44.5646      668.000      629.000      600.000      616.000      671.000
   44.6189      627.000      600.000      653.000      660.000      670.000
   44.6732      686.000      673.000      675.000      699.000      669.000
   44.7276      651.000      667.000      678.000      699.000      689.000
   44.7819      653.000      756.000      721.000      657.000      709.000
   44.8362      641.000      707.000      695.000      657.000      712.000
   44.8906      704.000      708.000      754.000      757.000      781.000
   44.9449      777.000      780.000      809.000      867.000      826.000
   44.9992      865.000      777.000      867.000      828.000      869.000
   45.0536      873.000      843.000      886.000      918.000      904.000
   45.1079      909.000      885.000      890.000      931.000      925.000
   45.1622      911.000      901.000      871.000      897.000      837.000
   45.2166      878.000      874.000      815.000      863.000      865.000
   45.2709      823.000      821.000      813.000      857.000      794.000
   45.3252      759.000      755.000      765.000      771.000      805.000
   45.3795      743.000      770.000      749.000      757.000      809.000
   45.4339      797.000      738.000      712.000      848.000      785.000
   45.4882      782.000      820.000      687.000      789.000      799.000
   45.5425      786.000      849.000      796.000      847.000      777.000
   45.5969      772.000      850.000      818.000      843.000      831.000
   45.6512      815.000      878.000      844.000      802.000      846.000
   45.7055      872.000      807.000      834.000      878.000      804.000
   45.7599      892.000      831.000      834.000      799.000      818.000
   45.8142      789.000      884.000      834.000      896.000      938.000
   45.8685      863.000      885.000      932.000      937.000      912.000
   45.9229      994.000      895.000      958.000      991.000      941.000
   45.9772     1057.000     1065.000     1081.000     1034.000     1097.000
   46.0315     1138.000     1087.000     1050.000     1052.000     1052.000
   46.0859     1134.000     1092.000     1110.000     1024.000     1088.000
   46.1402     1151.000     1046.000     1010.000     1059.000     1076.000
   46.1945     1044.000      981.000      928.000      911.000      907.000
   46.2489      929.000      876.000      822.000      845.000      843.000
   46.3032      824.000      785.000      790.000      801.000      747.000
   46.3575      774.000      786.000      779.000      784.000      761.000
   46.4119      809.000      761.000      782.000      769.000      721.000
   46.4662      733.000      808.000      762.000      726.000      755.000
   46.5205      729.000      726.000      737.000      745.000      716.000
   46.5749      754.000      743.000      771.000      765.000      736.000
   46.6292      809.000      717.000      769.000      789.000      829.000
   46.6835      817.000      830.000      789.000      794.000      869.000
   46.7379      878.000      889.000      896.000      864.000      900.000
   46.7922      874.000      864.000      902.000      835.000      832.000
   46.8465      852.000      951.000      796.000      864.000      832.000
   46.9009      886.000      853.000      831.000      829.000      845.000
   46.9552      707.000      763.000      780.000      785.000      674.000
   47.0095      711.000      698.000      660.000      679.000      696.000
   47.0638      644.000      688.000      655.000      670.000      643.000
   47.1182      673.000      661.000      653.000      668.000      724.000
   47.1725      641.000      609.000      690.000      615.000      668.000
   47.2268      668.000      620.000      645.000      691.000      649.000
   47.2812      658.000      624.000      629.000      651.000      663.000
   47.3355      635.000      656.000      657.000      697.000      686.000
   47.3898      676.000      696.000      690.000      692.000      689.000
   47.4442      735.000      718.000      768.000      753.000      736.000
   47.4985      755.000      794.000      733.000      734.000      777.000
   47.5528      761.000      809.000      854.000      814.000      782.000
   47.6072      746.000      716.000      779.000      690.000      747.000
   47.6615      765.000      795.000      717.000      700.000      745.000
   47.7158      727.000      693.000      744.000      705.000      710.000
   47.7702      755.000      688.000      749.000      682.000      705.000
   47.8245      703.000      737.000      715.000      710.000      720.000
   47.8788      681.000      670.000      731.000      676.000      749.000
   47.9332      746.000      759.000      686.000      699.000      679.000
   47.9875      737.000      690.000      756.000      753.000      747.000
   48.0418      705.000      750.000      745.000      729.000      695.000
   48.0962      711.000      751.000      706.000      762.000      714.000
   48.1505      731.000      758.000      721.000      772.000      705.000
   48.2048      728.000      745.000      757.000      735.000      701.000
   48.2592      718.000      739.000      788.000      741.000      694.000
   48.3135      688.000      743.000      748.000      746.000      695.000
   48.3678      710.000      721.000      655.000      671.000      679.000
   48.4222      701.000      653.000      678.000      672.000      685.000
   48.4765      624.000      624.000      657.000      668.000      635.000
   48.5308      593.000      626.000      646.000      621.000      603.000
   48.5851      649.000      613.000      636.000      569.000      638.000
   48.6395      602.000      612.000      623.000      590.000      627.000
   48.6938      625.000      569.000      593.000      612.000      621.000
   48.7481      608.000      599.000      632.000      590.000      584.000
   48.8025      613.000      653.000      616.000      600.000      615.000
   48.8568      560.000      621.000      630.000      651.000      626.000
   48.9111      636.000      598.000      663.000      629.000      651.000
   48.9655      619.000      617.000      654.000      641.000      647.000
   49.0198      655.000      664.000      648.000      655.000      675.000
   49.0741      670.000      679.000      655.000      680.000      698.000
   49.1285      716.000      674.000      659.000      687.000      692.000
   49.1828      694.000      673.000      648.000      637.000      726.000
   49.2371      623.000      705.000      646.000      691.000      653.000
   49.2915      691.000      698.000      664.000      668.000      638.000
   49.3458      706.000      665.000      678.000      651.000      686.000
   49.4001      646.000      675.000      638.000      617.000      617.000
   49.4545      575.000      616.000      634.000      616.000      654.000
   49.5088      626.000      607.000      646.000      652.000      630.000
   49.5631      628.000      622.000      607.000      615.000      641.000
   49.6175      588.000      575.000      641.000      574.000      638.000
   49.6718      565.000      627.000      599.000      627.000      592.000
   49.7261      571.000      597.000      582.000      605.000      590.000
   49.7805      566.000      544.000      572.000      566.000      570.000
   49.8348      600.000      564.000      573.000      550.000      595.000
   49.8891      577.000      614.000      607.000      615.000      607.000
   49.9435      620.000      604.000      620.000      581.000      608.000
   49.9978      658.000      598.000      606.000      648.000      644.000
   50.0521      675.000      627.000      642.000      665.000      654.000
   50.1065      635.000      659.000      680.000      611.000      684.000
   50.1608      636.000      686.000      666.000      620.000      650.000
   50.2151      660.000      610.000      611.000      556.000      607.000
   50.2694      565.000      659.000      584.000      632.000      635.000
   50.3238      580.000      633.000      582.000      619.000      574.000
   50.3781      603.000      533.000      576.000      605.000      621.000
   50.4324      612.000      615.000      596.000      563.000      621.000
   50.4868      595.000      595.000      649.000      561.000      625.000
   50.5411      628.000      600.000      629.000      596.000      606.000
   50.5954      592.000      571.000      631.000      597.000      593.000
   50.6498      562.000      618.000      608.000      595.000      615.000
   50.7041      612.000      602.000      651.000      580.000      652.000
   50.7584      618.000      622.000      615.000      611.000      633.000
   50.8128      623.000      652.000      651.000      648.000      585.000
   50.8671      621.000      603.000      584.000      627.000      645.000
   50.9214      601.000      619.000      582.000      603.000      574.000
   50.9758      604.000      541.000      607.000      568.000      598.000
   51.0301      610.000      621.000      568.000      630.000      614.000
   51.0844      564.000      616.000      639.000      624.000      567.000
   51.1388      620.000      616.000      626.000      574.000      604.000
   51.1931      589.000      541.000      589.000      643.000      564.000
   51.2474      569.000      573.000      570.000      570.000      609.000
   51.3018      565.000      566.000      551.000      560.000      563.000
   51.3561      599.000      569.000      552.000      575.000      591.000
   51.4104      589.000      541.000      557.000      607.000      560.000
   51.4648      551.000      614.000      544.000      594.000      603.000
   51.5191      617.000      616.000      584.000      652.000      599.000
   51.5734      626.000      629.000      658.000      643.000      633.000
   51.6278      629.000      608.000      643.000      647.000      662.000
   51.6821      625.000      597.000      636.000      669.000      647.000
   51.7364      633.000      634.000      635.000      642.000      660.000
   51.7907      619.000      614.000      609.000      578.000      605.000
   51.8451      620.000      587.000      576.000      571.000      604.000
   51.8994      582.000      630.000      573.000      545.000      582.000
   51.9537      600.000      548.000      629.000      587.000      607.000
   52.0081      585.000      616.000      614.000      566.000      580.000
   52.0624      614.000      577.000      593.000      617.000      583.000
   52.1167      625.000      605.000      668.000      601.000      590.000
   52.1711      615.000      617.000      587.000      600.000      589.000
   52.2254      569.000      578.000      569.000      561.000      591.000
   52.2797      587.000      595.000      621.000      583.000      583.000
   52.3341      612.000      582.000      566.000      535.000      569.000
   52.3884      527.000      582.000      560.000      531.000      538.000
   52.4427      552.000      542.000      588.000      525.000      552.000
   52.4971      545.000      521.000      518.000      549.000      563.000
   52.5514      527.000      518.000      524.000      548.000      559.000
   52.6057      561.000      506.000      540.000      541.000      505.000
   52.6601      609.000      507.000      546.000      565.000      593.000
   52.7144      537.000      532.000      547.000      544.000      526.000
   52.7687      557.000      562.000      544.000      548.000      571.000
   52.8231      583.000      538.000      508.000      567.000      535.000
   52.8774      597.000      586.000      532.000      544.000      598.000
   52.9317      541.000      531.000      559.000      576.000      537.000
   52.9861      588.000      532.000      551.000      536.000      581.000
   53.0404      566.000      557.000      515.000      535.000      541.000
   53.0947      519.000      531.000      529.000      500.000      540.000
   53.1491      556.000      523.000      519.000      496.000      496.000
   53.2034      529.000      456.000      537.000      537.000      463.000
   53.2577      510.000      532.000      521.000      488.000      494.000
   53.3121      531.000      504.000      563.000      521.000      535.000
   53.3664      540.000      536.000      557.000      514.000      528.000
   53.4207      583.000      545.000      580.000      591.000      545.000
   53.4750      584.000      534.000      543.000      546.000      532.000
   53.5294      595.000      585.000      593.000      563.000      555.000
   53.5837      560.000      573.000      567.000      602.000      587.000
   53.6380      586.000      605.000      620.000      646.000      634.000
   53.6924      588.000      647.000      647.000      665.000      653.000
   53.7467      671.000      691.000      641.000      613.000      640.000
   53.8010      697.000      639.000      675.000      639.000      639.000
   53.8554      653.000      656.000      637.000      658.000      669.000
   53.9097      633.000      664.000      591.000      637.000      597.000
   53.9640      603.000      550.000      557.000      566.000      600.000
   54.0184      590.000      578.000      566.000      572.000      601.000
   54.0727      547.000      577.000      579.000      536.000      528.000
   54.1270      521.000      554.000      534.000      523.000      593.000
   54.1814      532.000      521.000      517.000      535.000      548.000
   54.2357      523.000      547.000      567.000      529.000      519.000
   54.2900      508.000      530.000      510.000      515.000      519.000
   54.3444      504.000      500.000      488.000      517.000      471.000
   54.3987      469.000      518.000      519.000      467.000      517.000
   54.4530      488.000      482.000      504.000      485.000      523.000
   54.5074      487.000      455.000      509.000      510.000      493.000
   54.5617      481.000      495.000      484.000      481.000      471.000
   54.6160      475.000      486.000      483.000      489.000      474.000
   54.6704      508.000      506.000      507.000      482.000      465.000
   54.7247      512.000      472.000      469.000      503.000      542.000
   54.7790      479.000      511.000      503.000      464.000      495.000
   54.8334      453.000      456.000      477.000      504.000      447.000
   54.8877      502.000      517.000      463.000      494.000      473.000
   54.9420      459.000      463.000      488.000      489.000      504.000
   54.9963      499.000      516.000      475.000      478.000      479.000
   55.0507      540.000      437.000      518.000      464.000      509.000
   55.1050      523.000      511.000      479.000      523.000      487.000
   55.1593      545.000      513.000      483.000      468.000      504.000
   55.2137      525.000      466.000      451.000      497.000      488.000
   55.2680      507.000      480.000      493.000      455.000      452.000
   55.3223      481.000      493.000      463.000      473.000      456.000
   55.3767      475.000      511.000      477.000      492.000      495.000
   55.4310      466.000      454.000      484.000      503.000      494.000
   55.4853      469.000      491.000      533.000      517.000      507.000
   55.5397      505.000      511.000      467.000      505.000      449.000
   55.5940      479.000      491.000      525.000      498.000      521.000
   55.6483      511.000      516.000      503.000      484.000      519.000
   55.7027      483.000      473.000      501.000      532.000      543.000
   55.7570      512.000      536.000      549.000      508.000      534.000
   55.8113      499.000      525.000      560.000      498.000      539.000
   55.8657      503.000      521.000      523.000      551.000      512.000
   55.9200      488.000      537.000      527.000      514.000      531.000
   55.9743      505.000      505.000      478.000      479.000      527.000
   56.0287      521.000      505.000      537.000      509.000      537.000
   56.0830      509.000      511.000      536.000      476.000      473.000
   56.1373      512.000      566.000      498.000      488.000      447.000
   56.1917      513.000      493.000      501.000      469.000      510.000
   56.2460      495.000      493.000      489.000      491.000      478.000
   56.3003      484.000      485.000      444.000      474.000      478.000
   56.3547      464.000      465.000      491.000      460.000      483.000
   56.4090      482.000      511.000      529.000      496.000      469.000
   56.4633      479.000      449.000      475.000      470.000      520.000
   56.5177      477.000      491.000      514.000      463.000      489.000
   56.5720      480.000      460.000      450.000      470.000      473.000
   56.6263      448.000      491.000      462.000      452.000      499.000
   56.6806      479.000      514.000      461.000      500.000      516.000
   56.7350      512.000      517.000      492.000      508.000      504.000
   56.7893      503.000      481.000      490.000      524.000      452.000
   56.8436      495.000      543.000      509.000      529.000      491.000
   56.8980      518.000      525.000      503.000      514.000      503.000
   56.9523      519.000      503.000      530.000      482.000      513.000
   57.0066      503.000      484.000      481.000      516.000      505.000
   57.0610      516.000      500.000      475.000      507.000      506.000
   57.1153      503.000      535.000      533.000      466.000      501.000
   57.1696      484.000      451.000      507.000      537.000      499.000
   57.2240      517.000      504.000      498.000      548.000      482.000
   57.2783      515.000      522.000      493.000      529.000      503.000
   57.3326      498.000      490.000      510.000      480.000      496.000
   57.3870      475.000      508.000      502.000      521.000      517.000
   57.4413      504.000      473.000      495.000      491.000      504.000
   57.4956      436.000      432.000      463.000      499.000      501.000
   57.5500      504.000      464.000      491.000      450.000      451.000
   57.6043      416.000      454.000      386.000      424.000      471.000
   57.6586      431.000      447.000      440.000      467.000      419.000
   57.7130      467.000      430.000      461.000      455.000      463.000
   57.7673      429.000      380.000      394.000      405.000      382.000
   57.8216      442.000      409.000      430.000      385.000      405.000
   57.8760      419.000      415.000      440.000      382.000      405.000
   57.9303      418.000      454.000      440.000      451.000      438.000
   57.9846      388.000      430.000      412.000      418.000      426.000
   58.0390      436.000      442.000      408.000      413.000      421.000
   58.0933      404.000      452.000      396.000      419.000      440.000
   58.1476      417.000      417.000      422.000      453.000      421.000
   58.2019      462.000      428.000      452.000      421.000      453.000
   58.2563      413.000      453.000      427.000      437.000      452.000
   58.3106      472.000      412.000      409.000      439.000      412.000
   58.3649      446.000      414.000      428.000      452.000      428.000
   58.4193      446.000      415.000      449.000      423.000      413.000
   58.4736      448.000      434.000      423.000      413.000      383.000
   58.5279      401.000      436.000      429.000      484.000      472.000
   58.5823      448.000      401.000      406.000      407.000      428.000
   58.6366      452.000      449.000      433.000      478.000      440.000
   58.6909      464.000      462.000      445.000      457.000      439.000
   58.7453      444.000      435.000      451.000      476.000      490.000
   58.7996      464.000      481.000      481.000      454.000      443.000
   58.8539      509.000      490.000      508.000      463.000      481.000
   58.9083      426.000      453.000      496.000      464.000      447.000
   58.9626      451.000      484.000      437.000      443.000      423.000
   59.0169      476.000      453.000      436.000      420.000      471.000
   59.0713      397.000      381.000      466.000      448.000      447.000
   59.1256      419.000      443.000      411.000      388.000      359.000
   59.1799      410.000      408.000      395.000      421.000      393.000
   59.2343      429.000      430.000      379.000      433.000      368.000
   59.2886      432.000      434.000      444.000      356.000      398.000
   59.3429      398.000      424.000      394.000      462.000      411.000
   59.3973      493.000      451.000      428.000      472.000      439.000
   59.4516      411.000      448.000      449.000      464.000      439.000
   59.5059      470.000      445.000      478.000      439.000      507.000
   59.5603      459.000      462.000      455.000      450.000      451.000
   59.6146      407.000      437.000      459.000      422.000      477.000
   59.6689      420.000      438.000      418.000      414.000      393.000
   59.7233      425.000      403.000      418.000      413.000      440.000
   59.7776      379.000      434.000      359.000      402.000      402.000
   59.8319      392.000      398.000      408.000      418.000      350.000
   59.8862      399.000      386.000      392.000      370.000      390.000
   59.9406      388.000      367.000      349.000      391.000      392.000
   59.9949      445.000
## END= 
