Frequency (Hz)	Level (dB)
0.672913	-49.684444
1.345825	-49.501637
2.018738	-49.401390
2.691650	-49.487064
3.364563	-49.227520
4.037476	-49.058987
4.710388	-48.824421
5.383301	-48.337856
6.056213	-48.166843
6.729126	-48.008385
7.402039	-47.754692
8.074951	-47.131084
8.747864	-46.814762
9.420776	-46.217590
10.093689	-45.733284
10.766602	-45.356472
11.439514	-44.735615
12.112427	-44.227711
12.785339	-43.577488
13.458252	-42.998180
14.131165	-42.073757
14.804077	-41.577827
15.476990	-40.618332
16.149902	-39.892044
16.822815	-38.468147
17.495728	-37.488930
18.168640	-36.034367
18.841553	-34.735989
19.514465	-33.039890
20.187378	-30.914709
20.860291	-26.958538
21.533203	-20.531652
22.206116	-12.732702
22.879028	-10.837442
23.551941	-17.845089
24.224854	-25.720543
24.897766	-27.654537
25.570679	-31.799950
26.243591	-33.562820
26.916504	-34.843605
27.589417	-36.606350
28.262329	-37.513290
28.935242	-38.366398
29.608154	-39.503746
30.281067	-40.057434
30.953979	-40.895256
31.626892	-41.318981
32.299805	-41.952541
32.972717	-42.567165
33.645630	-43.448029
34.318542	-43.479115
34.991455	-44.309818
35.664368	-44.469009
36.337280	-44.571693
37.010193	-44.984764
37.683105	-45.259083
38.356018	-45.611633
39.028931	-45.996555
39.701843	-46.384636
40.374756	-45.899044
41.047668	-45.242474
41.720581	-44.470196
42.393494	-44.134476
43.066406	-40.351330
43.739319	-36.124802
44.412231	-29.042679
45.085144	-29.317518
45.758057	-29.677689
46.430969	-28.696106
47.103882	-36.665672
47.776794	-39.742622
48.449707	-42.231396
49.122620	-45.208649
49.795532	-45.441315
50.468445	-46.820030
51.141357	-46.956120
51.814270	-47.296841
52.487183	-47.846851
53.160095	-46.812069
53.833008	-48.404911
54.505920	-47.207752
55.178833	-47.873692
55.851746	-48.584148
56.524658	-48.476475
57.197571	-47.288532
57.870483	-46.286438
58.543396	-47.606403
59.216309	-47.898174
59.889221	-46.855076
60.562134	-45.739620
61.235046	-46.299931
61.907959	-44.572014
62.580872	-43.933170
63.253784	-41.854290
63.926697	-40.332165
64.599609	-36.552860
65.272522	-35.853588
65.945435	-29.301659
66.618347	-21.613018
67.291260	-24.259340
67.964172	-26.281910
68.637085	-25.491379
69.309998	-23.609367
69.982910	-31.255934
70.655823	-36.895359
71.328735	-38.412907
72.001648	-41.849751
72.674561	-45.085258
73.347473	-46.220455
74.020386	-45.802299
74.693298	-47.083153
75.366211	-49.230511
76.039124	-47.554356
76.712036	-48.025490
77.384949	-48.066696
78.057861	-49.657150
78.730774	-48.014046
79.403687	-49.723934
80.076599	-49.150707
80.749512	-49.862808
81.422424	-51.700489
82.095337	-48.392097
82.768250	-48.306587
83.441162	-48.904518
84.114075	-48.852783
84.786987	-48.314465
85.459900	-47.992413
86.132812	-43.058949
86.805725	-38.950981
87.478638	-38.906364
88.151550	-30.509317
88.824463	-27.815092
89.497375	-25.959494
90.170288	-32.796089
90.843201	-31.048334
91.516113	-29.701536
92.189026	-26.332970
92.861938	-32.697277
93.534851	-35.537663
94.207764	-36.705910
94.880676	-42.605488
95.553589	-46.154884
96.226501	-47.624989
96.899414	-49.136982
97.572327	-48.969616
98.245239	-49.797810
98.918152	-50.747700
99.591064	-52.361080
100.263977	-50.620052
100.936890	-51.705261
101.609802	-54.248398
102.282715	-51.974751
102.955627	-51.029873
103.628540	-53.843819
104.301453	-50.966812
104.974365	-51.234074
105.647278	-53.339554
106.320190	-51.702080
106.993103	-50.245129
107.666016	-50.721191
108.338928	-49.958035
109.011841	-47.705303
109.684753	-44.398193
110.357666	-41.091915
111.030579	-37.342327
111.703491	-33.904736
112.376404	-40.144230
113.049316	-38.385590
113.722229	-41.459358
114.395142	-41.915802
115.068054	-39.707172
115.740967	-42.777618
116.413879	-47.278584
117.086792	-49.873768
117.759705	-52.119453
118.432617	-54.204296
119.105530	-52.046696
119.778442	-53.208927
120.451355	-51.524364
121.124268	-52.801552
121.797180	-53.482750
122.470093	-52.946663
123.143005	-52.773014
123.815918	-53.776642
124.488831	-54.062084
125.161743	-53.876190
125.834656	-51.978035
126.507568	-54.791061
127.180481	-52.836082
127.853394	-52.023216
128.526306	-52.554592
129.199219	-51.537151
129.872131	-49.661598
130.545044	-46.857185
131.217957	-41.115650
131.890869	-39.639015
132.563782	-34.343376
133.236694	-33.041832
133.909607	-31.487381
134.582520	-35.210266
135.255432	-36.513649
135.928345	-37.912632
136.601257	-36.994144
137.274170	-38.373665
137.947083	-39.890953
138.619995	-38.792629
139.292908	-45.130463
139.965820	-47.027924
140.638733	-47.782021
141.311646	-50.254246
141.984558	-51.240814
142.657471	-52.132069
143.330383	-53.451981
144.003296	-50.762348
144.676208	-53.734604
145.349121	-54.614574
146.022034	-54.967213
146.694946	-54.620876
147.367859	-52.354130
148.040771	-55.032948
148.713684	-53.798935
149.386597	-53.313854
150.059509	-52.574986
150.732422	-54.716309
151.405334	-53.132927
152.078247	-54.290646
152.751160	-54.648724
153.424072	-53.855644
154.096985	-50.862831
154.769897	-46.016399
155.442810	-46.640228
156.115723	-40.344467
156.788635	-47.318748
157.461548	-45.437798
158.134460	-45.676361
158.807373	-47.915882
159.480286	-45.424431
160.153198	-47.478489
160.826111	-49.097435
161.499023	-45.749783
162.171936	-52.756271
162.844849	-52.462090
163.517761	-50.711498
164.190674	-53.336941
164.863586	-55.003933
165.536499	-50.431046
166.209412	-54.295155
166.882324	-53.483212
167.555237	-54.484509
168.228149	-54.512264
168.901062	-53.472691
169.573975	-54.220585
170.246887	-55.243095
170.919800	-54.109528
171.592712	-53.244728
172.265625	-55.150436
172.938538	-55.631359
173.611450	-54.517982
174.284363	-51.988258
174.957275	-51.408764
175.630188	-49.842270
176.303101	-45.586029
176.976013	-46.401558
177.648926	-45.968063
178.321838	-45.875359
178.994751	-45.990379
179.667664	-50.021477
180.340576	-51.842892
181.013489	-52.233936
181.686401	-49.300022
182.359314	-50.042450
183.032227	-51.580608
183.705139	-50.810749
184.378052	-47.749893
185.050964	-48.608547
185.723877	-50.525780
186.396790	-50.949699
187.069702	-50.062668
187.742615	-50.169552
188.415527	-53.471107
189.088440	-53.583313
189.761353	-54.819855
190.434265	-53.028862
191.107178	-53.263531
191.780090	-55.895588
192.453003	-54.145248
193.125916	-55.253033
193.798828	-53.687580
194.471741	-54.601730
195.144653	-54.697075
195.817566	-53.732914
196.490479	-50.689583
197.163391	-54.556194
197.836304	-49.998665
198.509216	-50.379726
199.182129	-46.942589
199.855042	-46.949894
200.527954	-45.214024
201.200867	-49.394695
201.873779	-49.457901
202.546692	-49.332233
203.219604	-50.661289
203.892517	-49.722179
204.565430	-52.585930
205.238342	-51.633026
205.911255	-49.114738
206.584167	-49.214951
207.257080	-51.903469
207.929993	-52.454918
208.602905	-48.335239
209.275818	-47.579510
209.948730	-48.329391
210.621643	-52.509182
211.294556	-50.922600
211.967468	-51.729351
212.640381	-49.878395
213.313293	-51.683777
213.986206	-53.291294
214.659119	-55.693260
215.332031	-52.528717
216.004944	-51.623535
216.677856	-50.804558
217.350769	-55.142029
218.023682	-55.873402
218.696594	-58.618587
219.369507	-54.938869
220.042419	-53.462368
220.715332	-51.625889
221.388245	-49.722996
222.061157	-49.951904
222.734070	-48.150799
223.406982	-51.051506
224.079895	-49.942154
224.752808	-50.244785
225.425720	-50.667694
226.098633	-50.554325
226.771545	-49.839359
227.444458	-51.633469
228.117371	-51.567451
228.790283	-51.230419
229.463196	-51.391109
230.136108	-49.259975
230.809021	-48.202824
231.481934	-50.027027
232.154846	-50.767422
232.827759	-49.629673
233.500671	-50.636517
234.173584	-51.590397
234.846497	-50.133244
235.519409	-49.101402
236.192322	-51.175457
236.865234	-51.479042
237.538147	-48.374916
238.211060	-51.084305
238.883972	-51.530888
239.556885	-51.815289
240.229797	-55.053303
240.902710	-58.036400
241.575623	-51.181263
242.248535	-50.583912
242.921448	-47.250538
243.594360	-49.765270
244.267273	-49.124802
244.940186	-46.906826
245.613098	-48.287861
246.286011	-50.256969
246.958923	-48.586761
247.631836	-49.920830
248.304749	-50.441597
248.977661	-49.117874
249.650574	-50.164307
250.323486	-51.447330
250.996399	-46.076248
251.669312	-45.060104
252.342224	-47.039295
253.015137	-47.518074
253.688049	-47.514809
254.360962	-48.082134
255.033875	-45.323318
255.706787	-47.184830
256.379700	-47.697617
257.052612	-49.813782
257.725525	-47.756359
258.398438	-47.320087
259.071350	-50.671150
259.744263	-52.363182
260.417175	-49.422478
261.090088	-48.726196
261.763000	-52.082775
262.435913	-50.628113
263.108826	-50.309910
263.781738	-52.502064
264.454651	-51.429844
265.127563	-49.361786
265.800476	-49.190392
266.473389	-50.804298
267.146301	-50.245716
267.819214	-50.696747
268.492126	-50.441761
269.165039	-48.660622
269.837952	-49.900284
270.510864	-51.238571
271.183777	-51.403984
271.856689	-52.393085
272.529602	-51.128620
273.202515	-53.299583
273.875427	-50.916149
274.548340	-51.109642
275.221252	-51.713566
275.894165	-50.427753
276.567078	-50.885048
277.239990	-51.046623
277.912903	-52.625210
278.585815	-50.006493
279.258728	-51.493622
279.931641	-54.376915
280.604553	-50.738640
281.277466	-52.590916
281.950378	-49.760468
282.623291	-54.301708
283.296204	-51.919022
283.969116	-50.666069
284.642029	-53.822052
285.314941	-54.008701
285.987854	-50.812340
286.660767	-51.308159
287.333679	-52.881569
288.006592	-47.868145
288.679504	-48.540852
289.352417	-48.441280
290.025330	-50.125195
290.698242	-48.715542
291.371155	-47.595745
292.044067	-52.942791
292.716980	-48.446686
293.389893	-48.684307
294.062805	-51.760342
294.735718	-52.369907
295.408630	-52.120892
296.081543	-50.170448
296.754456	-51.180103
297.427368	-52.797260
298.100281	-51.312500
298.773193	-51.256329
299.446106	-52.516178
300.119019	-52.046097
300.791931	-50.187038
301.464844	-54.617889
302.137756	-51.664577
302.810669	-52.975410
303.483582	-49.805798
304.156494	-55.320206
304.829407	-50.796471
305.502319	-51.496185
306.175232	-51.433929
306.848145	-53.041615
307.521057	-55.865929
308.193970	-53.624962
308.866882	-54.655514
309.539795	-50.441650
310.212708	-50.741581
310.885620	-54.049553
311.558533	-54.300499
312.231445	-53.114613
312.904358	-51.922684
313.577271	-51.018471
314.250183	-51.474480
314.923096	-51.469925
315.596008	-54.611439
316.268921	-56.714848
316.941833	-53.262348
317.614746	-56.036232
318.287659	-54.780987
318.960571	-56.813843
319.633484	-54.190315
320.306396	-56.049973
320.979309	-60.594177
321.652222	-57.372898
322.325134	-53.578682
322.998047	-55.102562
323.670959	-54.430088
324.343872	-55.900711
325.016785	-60.793121
325.689697	-54.549576
326.362610	-53.181950
327.035522	-55.341476
327.708435	-53.944252
328.381348	-56.371613
329.054260	-53.951580
329.727173	-54.186359
330.400085	-54.134407
331.072998	-51.571663
331.745911	-55.298645
332.418823	-54.119705
333.091736	-52.660439
333.764648	-50.302795
334.437561	-54.061340
335.110474	-54.298306
335.783386	-53.177181
336.456299	-55.588779
337.129211	-52.478706
337.802124	-58.026981
338.475037	-55.986687
339.147949	-51.959503
339.820862	-54.401047
340.493774	-54.388657
341.166687	-57.139778
341.839600	-55.228214
342.512512	-56.854156
343.185425	-56.638416
343.858337	-55.194077
344.531250	-53.183723
345.204163	-55.460320
345.877075	-56.483555
346.549988	-55.665840
347.222900	-57.193058
347.895813	-52.851959
348.568726	-54.626621
349.241638	-54.302578
349.914551	-55.241718
350.587463	-55.885426
351.260376	-53.120884
351.933289	-56.603939
352.606201	-53.627747
353.279114	-55.033287
353.952026	-52.589596
354.624939	-55.140202
355.297852	-57.242371
355.970764	-56.567131
356.643677	-52.234219
357.316589	-53.617535
357.989502	-53.680141
358.662415	-55.832684
359.335327	-51.390995
360.008240	-54.454636
360.681152	-53.341881
361.354065	-57.652134
362.026978	-57.582394
362.699890	-54.593605
363.372803	-55.856773
364.045715	-58.087692
364.718628	-58.219803
365.391541	-56.920437
366.064453	-56.376862
366.737366	-55.052135
367.410278	-54.602909
368.083191	-54.814056
368.756104	-54.836952
369.429016	-57.524467
370.101929	-56.848934
370.774841	-55.336361
371.447754	-54.928757
372.120667	-56.793262
372.793579	-56.605499
373.466492	-53.118168
374.139404	-56.514156
374.812317	-55.150341
375.485229	-58.361450
376.158142	-54.817543
376.831055	-59.193836
377.503967	-55.719448
378.176880	-55.612614
378.849792	-57.167976
379.522705	-56.720409
380.195618	-57.173271
380.868530	-53.796032
381.541443	-55.246483
382.214355	-56.219059
382.887268	-56.177986
383.560181	-56.618011
384.233093	-53.668598
384.906006	-55.639637
385.578918	-53.791325
386.251831	-55.336563
386.924744	-58.935947
387.597656	-58.621944
388.270569	-54.596333
388.943481	-56.471581
389.616394	-57.366955
390.289307	-55.729961
390.962219	-53.899841
391.635132	-57.053093
392.308044	-54.839905
392.980957	-55.863766
393.653870	-57.192764
394.326782	-57.064899
394.999695	-58.089916
395.672607	-55.764805
396.345520	-57.956749
397.018433	-55.218834
397.691345	-58.225594
398.364258	-57.063053
399.037170	-57.173855
399.710083	-56.394741
400.382996	-58.668362
401.055908	-55.577740
401.728821	-55.169189
402.401733	-55.880379
403.074646	-56.718098
403.747559	-58.504532
404.420471	-61.060143
405.093384	-56.519104
405.766296	-57.650528
406.439209	-58.187008
407.112122	-57.259483
407.785034	-56.751587
408.457947	-59.150398
409.130859	-56.176529
409.803772	-59.089096
410.476685	-57.016567
411.149597	-55.205742
411.822510	-54.792694
412.495422	-57.442425
413.168335	-59.590687
413.841248	-56.678234
414.514160	-53.608250
415.187073	-61.296864
415.859985	-60.273960
416.532898	-55.905083
417.205811	-56.007694
417.878723	-56.803993
418.551636	-57.278427
419.224548	-55.128735
419.897461	-58.544483
420.570374	-55.685741
421.243286	-59.281456
421.916199	-55.998440
422.589111	-56.225792
423.262024	-55.880745
423.934937	-57.766048
424.607849	-60.743042
425.280762	-58.349232
425.953674	-57.080956
426.626587	-56.761635
427.299500	-57.849636
427.972412	-58.571629
428.645325	-56.313030
429.318237	-56.015915
429.991150	-57.158386
430.664062	-54.917721
431.336975	-56.222183
432.009888	-57.547245
432.682800	-57.971912
433.355713	-55.945389
434.028625	-57.624969
434.701538	-58.982864
435.374451	-54.719799
436.047363	-55.055801
436.720276	-56.558495
437.393188	-56.879326
438.066101	-55.214149
438.739014	-59.619396
439.411926	-59.438465
440.084839	-55.161896
440.757751	-56.508480
441.430664	-55.301540
442.103577	-54.242268
442.776489	-58.144032
443.449402	-58.239143
444.122314	-56.154709
444.795227	-55.434830
445.468140	-56.425030
446.141052	-57.160141
446.813965	-57.243858
447.486877	-59.953918
448.159790	-58.095299
448.832703	-56.278900
449.505615	-55.367538
450.178528	-55.937393
450.851440	-57.022060
451.524353	-58.484264
452.197266	-56.632874
452.870178	-56.887836
453.543091	-56.391594
454.216003	-57.174141
454.888916	-54.875584
455.561829	-58.831833
456.234741	-56.772816
456.907654	-55.148342
457.580566	-55.780045
458.253479	-53.483315
458.926392	-52.731838
459.599304	-55.149597
460.272217	-57.317570
460.945129	-54.351921
461.618042	-58.197849
462.290955	-55.046486
462.963867	-54.186935
463.636780	-58.211063
464.309692	-53.477501
464.982605	-54.559177
465.655518	-54.110958
466.328430	-54.820038
467.001343	-57.613880
467.674255	-56.141338
468.347168	-55.324856
469.020081	-55.027023
469.692993	-56.078205
470.365906	-57.841324
471.038818	-54.900425
471.711731	-54.044304
472.384644	-56.593292
473.057556	-55.302464
473.730469	-56.575314
474.403381	-54.825397
475.076294	-55.014030
475.749207	-54.760674
476.422119	-57.557629
477.095032	-56.302853
477.767944	-54.690273
478.440857	-56.010780
479.113770	-55.636028
479.786682	-56.350662
480.459595	-52.344757
481.132507	-53.093918
481.805420	-53.472000
482.478333	-55.542957
483.151245	-54.435158
483.824158	-54.342960
484.497070	-54.192604
485.169983	-55.946316
485.842896	-52.851406
486.515808	-54.204601
487.188721	-50.423264
487.861633	-53.600605
488.534546	-53.267101
489.207458	-55.257607
489.880371	-53.375809
490.553284	-55.738853
491.226196	-55.425541
491.899109	-54.516319
492.572021	-55.632122
493.244934	-53.342690
493.917847	-56.385178
494.590759	-52.578758
495.263672	-53.881321
495.936584	-55.187218
496.609497	-53.115292
497.282410	-54.919422
497.955322	-56.832169
498.628235	-52.619678
499.301147	-51.769096
499.974060	-56.290180
500.646973	-52.362362
501.319885	-55.082729
501.992798	-54.384235
502.665710	-55.979103
503.338623	-51.068962
504.011536	-55.233162
504.684448	-57.723484
505.357361	-53.550011
506.030273	-55.734875
506.703186	-52.294537
507.376099	-53.821869
508.049011	-53.503895
508.721924	-53.396969
509.394836	-52.582195
510.067749	-54.627769
510.740662	-51.177223
511.413574	-56.821087
512.086487	-53.537891
512.759399	-53.194950
513.432312	-58.660534
514.105225	-56.311642
514.778137	-55.574749
515.451050	-56.567272
516.123962	-53.965763
516.796875	-55.378136
517.469788	-51.394180
518.142700	-53.546585
518.815613	-57.555233
519.488525	-56.774979
520.161438	-57.300369
520.834351	-55.129879
521.507263	-56.666004
522.180176	-55.035267
522.853088	-55.250439
523.526001	-57.943962
524.198914	-56.928593
524.871826	-53.709641
525.544739	-52.984032
526.217651	-53.481476
526.890564	-56.928932
527.563477	-53.767818
528.236389	-56.053074
528.909302	-54.561680
529.582214	-56.948421
530.255127	-55.375240
530.928040	-53.796814
531.600952	-56.629261
532.273865	-55.342442
532.946777	-55.308357
533.619690	-53.473370
534.292603	-55.111301
534.965515	-54.582977
535.638428	-54.148037
536.311340	-55.122467
536.984253	-56.793484
537.657166	-56.528358
538.330078	-54.807072
539.002991	-56.030605
539.675903	-55.428860
540.348816	-56.165627
541.021729	-54.682148
541.694641	-58.198860
542.367554	-59.500904
543.040466	-57.368568
543.713379	-54.993568
544.386292	-54.705799
545.059204	-54.916420
545.732117	-58.045540
546.405029	-55.113850
547.077942	-60.172619
547.750854	-56.155090
548.423767	-56.395470
549.096680	-55.674938
549.769592	-56.701427
550.442505	-55.365936
551.115417	-54.670319
551.788330	-53.524242
552.461243	-54.312222
553.134155	-58.654152
553.807068	-55.142105
554.479980	-55.267361
555.152893	-57.231319
555.825806	-56.970085
556.498718	-55.907406
557.171631	-53.812397
557.844543	-56.181320
558.517456	-54.710873
559.190369	-59.292488
559.863281	-57.072762
560.536194	-57.426510
561.209106	-57.133053
561.882019	-62.217911
562.554932	-57.069275
563.227844	-57.497555
563.900757	-59.371006
564.573669	-57.204922
565.246582	-58.974350
565.919495	-62.511356
566.592407	-58.207832
567.265320	-58.910389
567.938232	-58.237514
568.611145	-56.478981
569.284058	-59.117870
569.956970	-55.068336
570.629883	-57.220673
571.302795	-53.781757
571.975708	-55.919876
572.648621	-59.495625
573.321533	-56.914253
573.994446	-58.562180
574.667358	-57.418869
575.340271	-57.144142
576.013184	-59.848217
576.686096	-57.965504
577.359009	-61.096756
578.031921	-58.127262
578.704834	-56.111141
579.377747	-58.321911
580.050659	-60.287292
580.723572	-56.334778
581.396484	-58.688469
582.069397	-60.320778
582.742310	-56.765396
583.415222	-59.183010
584.088135	-58.804573
584.761047	-63.485832
585.433960	-59.538097
586.106873	-59.619801
586.779785	-58.141247
587.452698	-58.569729
588.125610	-58.075878
588.798523	-58.608093
589.471436	-59.899319
590.144348	-60.496284
590.817261	-60.854595
591.490173	-58.041954
592.163086	-58.974323
592.835999	-59.632942
593.508911	-60.117699
594.181824	-59.649876
594.854736	-56.156437
595.527649	-58.104675
596.200562	-56.543091
596.873474	-55.175232
597.546387	-58.315308
598.219299	-60.119144
598.892212	-57.433323
599.565125	-59.989014
600.238037	-60.756584
600.910950	-59.755360
601.583862	-58.822662
602.256775	-57.949795
602.929688	-58.157734
603.602600	-58.341347
604.275513	-61.541328
604.948425	-58.886211
605.621338	-61.321068
606.294250	-61.795048
606.967163	-62.813248
607.640076	-62.908649
608.312988	-58.146191
608.985901	-59.052307
609.658813	-59.184544
610.331726	-58.894806
611.004639	-59.493908
611.677551	-60.996841
612.350464	-58.276463
613.023376	-58.328327
613.696289	-60.272747
614.369202	-58.802513
615.042114	-58.130138
615.715027	-60.912403
