Frequency (Hz)	Level (dB)
0.672913	-47.336143
1.345825	-47.204369
2.018738	-47.219196
2.691650	-47.155560
3.364563	-46.983513
4.037476	-46.898155
4.710388	-46.703064
5.383301	-46.639393
6.056213	-46.399181
6.729126	-46.232220
7.402039	-45.935387
8.074951	-45.721169
8.747864	-45.491562
9.420776	-45.082169
10.093689	-44.909927
10.766602	-44.390110
11.439514	-44.046276
12.112427	-43.622890
12.785339	-43.020550
13.458252	-42.372345
14.131165	-41.936794
14.804077	-41.382015
15.476990	-40.367485
16.149902	-39.684505
16.822815	-38.693230
17.495728	-37.867973
18.168640	-36.750370
18.841553	-35.254761
19.514465	-33.619747
20.187378	-31.004990
20.860291	-27.795319
21.533203	-22.298248
22.206116	-13.561113
22.879028	-11.349845
23.551941	-15.769487
24.224854	-23.193108
24.897766	-27.878983
25.570679	-30.378906
26.243591	-33.158020
26.916504	-35.294197
27.589417	-36.419125
28.262329	-38.052441
28.935242	-38.937130
29.608154	-39.997608
30.281067	-40.759476
30.953979	-41.221531
31.626892	-42.315891
32.299805	-42.800724
32.972717	-43.330006
33.645630	-43.846630
34.318542	-44.534580
34.991455	-45.015244
35.664368	-45.114815
36.337280	-45.345158
37.010193	-45.317905
37.683105	-45.625511
38.356018	-45.753914
39.028931	-46.512283
39.701843	-47.038414
40.374756	-45.877575
41.047668	-45.864296
41.720581	-45.164959
42.393494	-44.309525
43.066406	-41.078938
43.739319	-36.343533
44.412231	-30.959103
45.085144	-28.382202
45.758057	-29.052881
46.430969	-30.619938
47.103882	-32.858055
47.776794	-35.955700
48.449707	-40.846313
49.122620	-41.720509
49.795532	-44.632088
50.468445	-46.782764
51.141357	-47.601204
51.814270	-48.730591
52.487183	-48.262665
53.160095	-48.892567
53.833008	-49.211300
54.505920	-49.609241
55.178833	-48.825310
55.851746	-49.928955
56.524658	-49.920643
57.197571	-49.060238
57.870483	-49.190826
58.543396	-48.236496
59.216309	-47.480377
59.889221	-47.287579
60.562134	-47.041126
61.235046	-45.847588
61.907959	-46.035969
62.580872	-45.539013
63.253784	-44.210209
63.926697	-42.165592
64.599609	-38.637154
65.272522	-35.686218
65.945435	-31.677773
66.618347	-25.777962
67.291260	-22.561205
67.964172	-25.472834
68.637085	-25.347996
69.309998	-27.819534
69.982910	-29.812183
70.655823	-33.720753
71.328735	-37.999210
72.001648	-39.437504
72.674561	-41.140461
73.347473	-43.527428
74.020386	-44.766201
74.693298	-46.220345
75.366211	-47.252647
76.039124	-48.222851
76.712036	-47.401520
77.384949	-49.121788
78.057861	-49.267708
78.730774	-49.247837
79.403687	-49.794590
80.076599	-50.630486
80.749512	-50.087910
81.422424	-48.467831
82.095337	-48.653164
82.768250	-48.417744
83.441162	-48.314175
84.114075	-48.165146
84.786987	-46.859241
85.459900	-46.781601
86.132812	-44.539574
86.805725	-41.857414
87.478638	-38.626888
88.151550	-34.234062
88.824463	-31.155928
89.497375	-26.605511
90.170288	-30.751194
90.843201	-30.415880
91.516113	-29.747232
92.189026	-32.364052
92.861938	-34.828064
93.534851	-36.271858
94.207764	-39.828693
94.880676	-41.950916
95.553589	-44.226574
96.226501	-45.836468
96.899414	-48.390678
97.572327	-49.258949
98.245239	-49.662025
98.918152	-50.928959
99.591064	-50.466736
100.263977	-52.640339
100.936890	-52.717419
101.609802	-52.154728
102.282715	-51.807899
102.955627	-53.397514
103.628540	-52.368095
104.301453	-51.496445
104.974365	-51.688576
105.647278	-51.518448
106.320190	-51.521740
106.993103	-51.723415
107.666016	-50.522915
108.338928	-50.012081
109.011841	-47.676353
109.684753	-45.978977
110.357666	-43.339600
111.030579	-38.344055
111.703491	-34.975792
112.376404	-38.250748
113.049316	-38.699043
113.722229	-39.315411
114.395142	-39.160572
115.068054	-40.913353
115.740967	-44.382774
116.413879	-46.305210
117.086792	-49.241711
117.759705	-50.985325
118.432617	-51.425892
119.105530	-51.043407
119.778442	-53.342350
120.451355	-53.470860
121.124268	-53.054047
121.797180	-54.189575
122.470093	-54.544529
123.143005	-53.523144
123.815918	-54.056923
124.488831	-54.737053
125.161743	-54.969509
125.834656	-53.428158
126.507568	-53.797630
127.180481	-52.362251
127.853394	-52.681850
128.526306	-51.924980
129.199219	-51.933216
129.872131	-50.767647
130.545044	-48.386974
131.217957	-45.906414
131.890869	-43.438225
132.563782	-39.521267
133.236694	-37.035496
133.909607	-34.563770
134.582520	-35.879284
135.255432	-38.932083
135.928345	-38.366920
136.601257	-38.878899
137.274170	-40.505234
137.947083	-42.100258
138.619995	-45.300926
139.292908	-47.063278
139.965820	-48.760708
140.638733	-50.813393
141.311646	-51.828266
141.984558	-52.792072
142.657471	-53.898766
143.330383	-52.312840
144.003296	-53.666588
144.676208	-53.706604
145.349121	-54.000301
146.022034	-54.792274
146.694946	-54.064613
147.367859	-55.549244
148.040771	-54.794693
148.713684	-55.252281
149.386597	-55.532444
150.059509	-54.127804
150.732422	-55.329742
151.405334	-55.022205
152.078247	-55.671413
152.751160	-54.654564
153.424072	-51.971237
154.096985	-51.345997
154.769897	-49.396191
155.442810	-46.533855
156.115723	-44.278904
156.788635	-43.323841
157.461548	-46.918171
158.134460	-46.978222
158.807373	-46.741234
159.480286	-47.629143
160.153198	-49.288986
160.826111	-50.135372
161.499023	-52.375271
162.171936	-53.135277
162.844849	-55.020409
163.517761	-54.858269
164.190674	-54.622318
164.863586	-55.306427
165.536499	-54.870407
166.209412	-55.096272
166.882324	-55.510448
167.555237	-54.692322
168.228149	-54.749641
168.901062	-54.484600
169.573975	-55.254074
170.246887	-55.648766
170.919800	-56.725807
171.592712	-56.064938
172.265625	-55.698044
172.938538	-54.856186
173.611450	-54.831493
174.284363	-53.778252
174.957275	-54.086067
175.630188	-52.215637
176.303101	-50.205715
176.976013	-50.081001
177.648926	-48.658146
178.321838	-48.663132
178.994751	-47.723980
179.667664	-50.916306
180.340576	-50.672768
181.013489	-51.765591
181.686401	-51.604015
182.359314	-52.412693
183.032227	-52.611626
183.705139	-53.331303
184.378052	-53.631531
185.050964	-53.567810
185.723877	-53.884308
186.396790	-55.570843
187.069702	-54.688488
187.742615	-54.215649
188.415527	-53.982170
189.088440	-54.514324
189.761353	-54.186783
190.434265	-55.171631
191.107178	-55.111858
191.780090	-54.092552
192.453003	-54.043594
193.125916	-54.066788
193.798828	-54.454681
194.471741	-53.772552
195.144653	-53.837616
195.817566	-53.452885
196.490479	-53.766613
197.163391	-53.269203
197.836304	-52.344578
198.509216	-51.800247
199.182129	-52.509930
199.855042	-51.885925
200.527954	-50.341763
201.200867	-50.712742
201.873779	-51.518463
202.546692	-51.953083
203.219604	-50.896744
203.892517	-50.551304
204.565430	-50.223438
205.238342	-52.051594
205.911255	-51.330467
206.584167	-50.978504
207.257080	-52.177063
207.929993	-52.087879
208.602905	-51.230118
209.275818	-52.322788
209.948730	-51.363995
210.621643	-52.173920
211.294556	-52.034519
211.967468	-51.873833
212.640381	-51.695641
213.313293	-52.641834
213.986206	-51.552025
214.659119	-52.430092
215.332031	-52.293369
216.004944	-52.165607
216.677856	-52.309937
217.350769	-52.343636
218.023682	-52.892258
218.696594	-52.709583
219.369507	-51.778484
220.042419	-51.968170
220.715332	-53.240570
221.388245	-52.316368
222.061157	-51.560452
222.734070	-51.704487
223.406982	-51.717152
224.079895	-52.001205
224.752808	-53.221737
225.425720	-51.976490
226.098633	-51.530357
226.771545	-51.520718
227.444458	-52.412453
228.117371	-51.909172
228.790283	-51.508980
229.463196	-51.566360
230.136108	-51.804665
230.809021	-51.057598
231.481934	-51.042004
232.154846	-52.793140
232.827759	-52.065002
233.500671	-50.739796
234.173584	-51.111038
234.846497	-50.893936
235.519409	-51.567997
236.192322	-50.868584
236.865234	-51.581982
237.538147	-51.464237
238.211060	-53.255840
238.883972	-51.314613
239.556885	-50.421619
240.229797	-51.214226
240.902710	-51.160519
241.575623	-50.890198
242.248535	-49.877468
242.921448	-49.490261
243.594360	-50.794720
244.267273	-49.868057
244.940186	-48.345448
245.613098	-47.833996
246.286011	-49.571686
246.958923	-48.630787
247.631836	-47.938202
248.304749	-49.129230
248.977661	-48.757469
249.650574	-47.987358
250.323486	-47.671604
250.996399	-48.405464
251.669312	-47.916206
252.342224	-48.078098
253.015137	-48.918068
253.688049	-48.374069
254.360962	-48.680061
255.033875	-49.010494
255.706787	-48.618965
256.379700	-47.382847
257.052612	-48.446083
257.725525	-49.534264
258.398438	-48.853622
259.071350	-48.572166
259.744263	-49.820366
260.417175	-49.911793
261.090088	-50.932205
261.763000	-50.359070
262.435913	-49.334438
263.108826	-50.848782
263.781738	-50.598022
264.454651	-51.398540
265.127563	-51.381069
265.800476	-50.869678
266.473389	-48.767467
267.146301	-49.816898
267.819214	-49.777267
268.492126	-50.758884
269.165039	-51.220421
269.837952	-52.000244
270.510864	-51.065147
271.183777	-49.798904
271.856689	-50.615356
272.529602	-51.583378
273.202515	-51.578400
273.875427	-51.113373
274.548340	-51.528984
275.221252	-51.760517
275.894165	-51.607479
276.567078	-52.208572
277.239990	-50.770451
277.912903	-51.479870
278.585815	-51.719078
279.258728	-51.390686
279.931641	-50.747219
280.604553	-52.563614
281.277466	-53.114616
281.950378	-52.867744
282.623291	-52.716408
283.296204	-52.767281
283.969116	-51.172909
284.642029	-52.189655
285.314941	-52.562881
285.987854	-53.780231
286.660767	-51.403275
287.333679	-52.018867
288.006592	-52.068176
288.679504	-52.570549
289.352417	-51.214493
290.025330	-52.162930
290.698242	-52.713261
291.371155	-51.125160
292.044067	-51.448498
292.716980	-50.584652
293.389893	-50.986282
294.062805	-51.906059
294.735718	-51.404160
295.408630	-52.271709
296.081543	-51.325485
296.754456	-51.689320
297.427368	-51.034466
298.100281	-51.889446
298.773193	-53.422832
299.446106	-52.380913
300.119019	-52.485149
300.791931	-53.453438
301.464844	-53.092411
302.137756	-51.910740
302.810669	-52.060795
303.483582	-54.598637
304.156494	-54.073242
304.829407	-51.476048
305.502319	-53.904003
306.175232	-53.748882
306.848145	-53.069477
307.521057	-52.433029
308.193970	-52.758457
308.866882	-53.984806
309.539795	-54.072311
310.212708	-54.974224
310.885620	-53.037029
311.558533	-52.406284
312.231445	-52.515850
312.904358	-52.670094
313.577271	-53.009274
314.250183	-54.158138
314.923096	-54.736301
315.596008	-54.081467
316.268921	-54.212868
316.941833	-55.899151
317.614746	-54.857300
318.287659	-56.369350
318.960571	-55.992954
319.633484	-56.489971
320.306396	-53.339226
320.979309	-54.665398
321.652222	-54.689034
322.325134	-55.921738
322.998047	-55.257275
323.670959	-54.324814
324.343872	-55.476093
325.016785	-55.054081
325.689697	-55.592247
326.362610	-55.641548
327.035522	-55.994869
327.708435	-56.890663
328.381348	-55.061562
329.054260	-56.064793
329.727173	-56.902527
330.400085	-55.852871
331.072998	-55.075058
331.745911	-55.739761
332.418823	-55.322426
333.091736	-55.343925
333.764648	-55.115746
334.437561	-54.323734
335.110474	-56.175179
335.783386	-53.995850
336.456299	-53.240971
337.129211	-53.242527
337.802124	-54.746761
338.475037	-55.662533
339.147949	-55.415325
339.820862	-56.744507
340.493774	-56.523716
341.166687	-55.536842
341.839600	-56.219921
342.512512	-56.661377
343.185425	-56.118164
343.858337	-55.922909
344.531250	-57.988605
345.204163	-57.074306
345.877075	-56.369812
346.549988	-55.816490
347.222900	-57.486824
347.895813	-56.748032
348.568726	-58.389423
349.241638	-57.105076
349.914551	-56.922871
350.587463	-56.872772
351.260376	-57.387447
351.933289	-57.390583
352.606201	-55.816185
353.279114	-56.549374
353.952026	-55.811180
354.624939	-55.087677
355.297852	-55.521103
355.970764	-55.036938
356.643677	-55.397663
357.316589	-54.582623
357.989502	-55.563976
358.662415	-54.456852
359.335327	-55.967579
360.008240	-55.138115
360.681152	-55.186764
361.354065	-56.407021
362.026978	-57.450737
362.699890	-56.251263
363.372803	-55.634979
364.045715	-55.874954
364.718628	-56.731617
365.391541	-56.808125
366.064453	-57.341896
366.737366	-56.976757
367.410278	-56.183285
368.083191	-56.408943
368.756104	-57.558285
369.429016	-56.565456
370.101929	-57.217434
370.774841	-56.851780
371.447754	-56.062027
372.120667	-55.784710
372.793579	-57.257996
373.466492	-58.968628
374.139404	-58.138844
374.812317	-57.261669
375.485229	-57.472855
376.158142	-56.568977
376.831055	-56.473309
377.503967	-57.051552
378.176880	-56.361881
378.849792	-54.922489
379.522705	-56.159752
380.195618	-56.180367
380.868530	-55.936264
381.541443	-56.688213
382.214355	-55.659439
382.887268	-56.114933
383.560181	-57.954281
384.233093	-57.992496
384.906006	-56.980465
385.578918	-56.178799
386.251831	-57.371044
386.924744	-56.382114
387.597656	-57.817226
388.270569	-56.707779
388.943481	-56.014885
389.616394	-57.495529
390.289307	-56.683025
390.962219	-57.503448
391.635132	-56.951202
392.308044	-57.794933
392.980957	-58.515850
393.653870	-56.150318
394.326782	-56.619244
394.999695	-56.950554
395.672607	-56.018581
396.345520	-56.910294
397.018433	-58.975338
397.691345	-57.200825
398.364258	-58.188843
399.037170	-56.322487
399.710083	-56.068459
400.382996	-56.831978
401.055908	-57.887032
401.728821	-56.966106
402.401733	-55.851238
403.074646	-56.509640
403.747559	-55.862637
404.420471	-57.416740
405.093384	-56.225960
405.766296	-56.743557
406.439209	-57.884037
407.112122	-56.651722
407.785034	-57.841442
408.457947	-56.978836
409.130859	-57.567440
409.803772	-56.001495
410.476685	-57.451752
411.149597	-58.952377
411.822510	-57.181477
412.495422	-57.670437
413.168335	-57.995018
413.841248	-57.913452
414.514160	-57.912136
415.187073	-56.516960
415.859985	-57.503628
416.532898	-56.830048
417.205811	-56.274212
417.878723	-56.166332
418.551636	-56.832455
419.224548	-56.803257
419.897461	-56.766945
420.570374	-56.974552
421.243286	-58.982590
421.916199	-56.994514
422.589111	-57.834076
423.262024	-56.800079
423.934937	-57.644180
424.607849	-57.408165
425.280762	-56.493336
425.953674	-55.885113
426.626587	-56.223125
427.299500	-57.921795
427.972412	-57.288570
428.645325	-58.007778
429.318237	-57.849762
429.991150	-57.162167
430.664062	-56.603470
431.336975	-55.553093
432.009888	-57.153740
432.682800	-56.094677
433.355713	-57.473064
434.028625	-56.378941
434.701538	-57.475838
435.374451	-56.375084
436.047363	-56.254375
436.720276	-57.249180
437.393188	-57.530430
438.066101	-57.186451
438.739014	-57.509472
439.411926	-55.106674
440.084839	-55.905117
440.757751	-55.192085
441.430664	-56.475639
442.103577	-55.079880
442.776489	-55.671474
443.449402	-55.663250
444.122314	-55.341267
444.795227	-56.296261
445.468140	-56.650051
446.141052	-56.434357
446.813965	-55.222862
447.486877	-54.998554
448.159790	-57.136799
448.832703	-54.413548
449.505615	-55.337341
450.178528	-55.762062
450.851440	-54.678844
451.524353	-55.573002
452.197266	-55.961792
452.870178	-56.398300
453.543091	-56.781418
454.216003	-55.350552
454.888916	-55.636711
455.561829	-56.399574
456.234741	-56.469704
456.907654	-55.158245
457.580566	-55.757111
458.253479	-56.036831
458.926392	-56.100414
459.599304	-55.921829
460.272217	-54.752609
460.945129	-55.787395
461.618042	-54.889523
462.290955	-55.079628
462.963867	-53.927612
463.636780	-55.602234
464.309692	-55.491642
464.982605	-55.429443
465.655518	-54.618164
466.328430	-55.302460
467.001343	-55.038631
467.674255	-55.693146
468.347168	-55.907612
469.020081	-55.565128
469.692993	-55.202961
470.365906	-56.618595
471.038818	-55.866081
471.711731	-55.785824
472.384644	-55.519100
473.057556	-54.395641
473.730469	-55.898430
474.403381	-56.089634
475.076294	-54.628754
475.749207	-55.709099
476.422119	-55.822239
477.095032	-55.090466
477.767944	-55.541382
478.440857	-55.798382
479.113770	-55.999699
479.786682	-55.185913
480.459595	-54.666397
481.132507	-53.807892
481.805420	-54.756424
482.478333	-55.113144
483.151245	-54.995914
483.824158	-54.090313
484.497070	-54.433052
485.169983	-53.993847
485.842896	-54.406403
486.515808	-52.838535
487.188721	-53.718365
487.861633	-53.366814
488.534546	-53.130814
489.207458	-52.973385
489.880371	-53.562016
490.553284	-53.914654
491.226196	-53.282490
491.899109	-53.986908
492.572021	-53.626698
493.244934	-54.478527
493.917847	-54.388634
494.590759	-54.363136
495.263672	-53.265644
495.936584	-51.411263
496.609497	-52.269249
497.282410	-53.442177
497.955322	-53.561264
498.628235	-54.052944
499.301147	-52.695610
499.974060	-52.317558
500.646973	-52.926506
501.319885	-53.553299
501.992798	-53.639023
502.665710	-54.870750
503.338623	-53.521198
504.011536	-54.193195
504.684448	-53.635944
505.357361	-54.577084
506.030273	-52.744030
506.703186	-53.925945
507.376099	-54.148411
508.049011	-53.720387
508.721924	-52.716827
509.394836	-54.178741
510.067749	-54.437233
510.740662	-54.415257
511.413574	-54.414719
512.086487	-54.586121
512.759399	-56.057541
513.432312	-54.360477
514.105225	-54.161789
514.778137	-54.520050
515.451050	-54.365101
516.123962	-55.178749
516.796875	-54.759922
517.469788	-54.781639
518.142700	-54.450226
518.815613	-55.711308
519.488525	-55.216053
520.161438	-55.445709
520.834351	-57.063576
521.507263	-57.233875
522.180176	-55.200806
522.853088	-55.000492
523.526001	-56.098377
524.198914	-55.265793
524.871826	-55.861145
525.544739	-56.799976
526.217651	-56.309906
526.890564	-55.109222
527.563477	-56.745411
528.236389	-55.601204
528.909302	-55.843174
529.582214	-56.003468
530.255127	-54.735954
530.928040	-57.014503
531.600952	-55.949734
532.273865	-54.563473
532.946777	-55.360542
533.619690	-55.839039
534.292603	-56.341488
534.965515	-55.620911
535.638428	-55.105885
536.311340	-55.571815
536.984253	-55.010334
537.657166	-54.871681
538.330078	-54.972904
539.002991	-56.656975
539.675903	-56.977348
540.348816	-55.047913
541.021729	-57.096996
541.694641	-55.796432
542.367554	-56.494015
543.040466	-56.530987
543.713379	-55.486629
544.386292	-57.486931
545.059204	-56.954979
545.732117	-56.480125
546.405029	-56.101662
547.077942	-57.203445
547.750854	-55.731876
548.423767	-55.258080
549.096680	-56.314114
549.769592	-56.306965
550.442505	-56.845444
551.115417	-56.806694
551.788330	-56.346931
552.461243	-56.054070
553.134155	-56.050800
553.807068	-57.177013
554.479980	-57.914436
555.152893	-57.097885
555.825806	-55.844009
556.498718	-58.041622
557.171631	-56.625244
557.844543	-57.245407
558.517456	-57.409340
559.190369	-57.231617
559.863281	-57.651482
560.536194	-56.691948
561.209106	-59.460255
561.882019	-58.356621
562.554932	-57.907974
563.227844	-57.095722
563.900757	-58.234989
564.573669	-58.135399
565.246582	-58.346397
565.919495	-58.335880
566.592407	-58.162388
567.265320	-58.099670
567.938232	-58.665279
568.611145	-58.883770
569.284058	-57.976692
569.956970	-57.849464
570.629883	-57.850780
571.302795	-57.279575
571.975708	-58.001263
572.648621	-57.249199
573.321533	-59.105179
573.994446	-57.445168
574.667358	-57.589363
575.340271	-59.367313
576.013184	-59.711079
576.686096	-58.254772
577.359009	-60.211304
578.031921	-59.989273
578.704834	-58.909515
579.377747	-60.069149
580.050659	-58.536591
580.723572	-59.314228
581.396484	-59.984570
582.069397	-58.792660
582.742310	-59.511105
583.415222	-58.773338
584.088135	-60.093163
584.761047	-59.290791
585.433960	-59.225124
586.106873	-58.649422
586.779785	-59.660801
587.452698	-59.284966
588.125610	-60.589680
588.798523	-59.909542
589.471436	-59.528000
590.144348	-60.076191
590.817261	-59.664497
591.490173	-58.728748
592.163086	-59.667877
592.835999	-59.645771
593.508911	-59.941231
594.181824	-58.682526
594.854736	-58.497410
595.527649	-59.583256
596.200562	-59.299091
596.873474	-59.404530
597.546387	-59.472149
598.219299	-59.996750
598.892212	-59.435219
599.565125	-59.292702
600.238037	-60.327793
600.910950	-59.293736
601.583862	-60.359287
602.256775	-59.612122
602.929688	-59.447899
603.602600	-59.533356
604.275513	-60.743698
604.948425	-60.934105
605.621338	-61.282639
606.294250	-60.865635
606.967163	-60.463753
607.640076	-60.647709
608.312988	-61.486145
608.985901	-59.032181
609.658813	-60.934250
610.331726	-59.119072
611.004639	-60.681980
611.677551	-60.309219
612.350464	-60.631470
613.023376	-60.125580
613.696289	-60.630917
614.369202	-59.929394
615.042114	-61.612286
615.715027	-60.904179
