669.920,788.000,790.000,800.000,799.000,802.000
671.725,791.000,792.000,804.000,803.000,796.000
673.528,807.000,798.000,794.000,812.000,811.000
675.332,794.000,806.000,793.000,800.000,799.000
677.134,795.000,806.000,809.000,806.000,828.000
678.937,791.000,801.000,804.000,804.000,818.000
680.740,789.000,806.000,822.000,811.000,796.000
682.541,802.000,812.000,815.000,802.000,814.000
684.343,796.000,799.000,819.000,797.000,808.000
686.143,788.000,801.000,799.000,799.000,798.000
687.944,796.000,796.000,801.000,803.000,804.000
689.746,794.000,811.000,803.000,806.000,811.000
691.545,814.000,791.000,806.000,803.000,797.000
693.345,789.000,784.000,801.000,789.000,803.000
695.143,793.000,800.000,784.000,796.000,793.000
696.943,787.000,786.000,778.000,794.000,794.000
698.741,797.000,796.000,798.000,794.000,798.000
700.540,791.000,793.000,788.000,798.000,806.000
702.338,783.000,780.000,811.000,794.000,808.000
704.135,800.000,778.000,786.000,771.000,806.000
705.933,778.000,787.000,802.000,791.000,790.000
707.728,788.000,791.000,790.000,792.000,802.000
709.526,791.000,795.000,789.000,802.000,806.000
711.323,806.000,793.000,795.000,798.000,809.000
713.117,802.000,815.000,791.000,795.000,793.000
714.913,784.000,786.000,805.000,802.000,810.000
716.707,807.000,798.000,807.000,805.000,807.000
718.503,806.000,807.000,799.000,813.000,814.000
720.298,797.000,797.000,811.000,807.000,809.000
722.091,813.000,809.000,810.000,817.000,807.000
723.885,817.000,810.000,819.000,810.000,815.000
725.677,792.000,791.000,828.000,817.000,823.000
727.471,797.000,803.000,802.000,810.000,821.000
729.265,818.000,811.000,819.000,816.000,821.000
731.056,829.000,811.000,818.000,817.000,837.000
732.848,836.000,833.000,847.000,835.000,843.000
734.639,833.000,835.000,860.000,848.000,855.000
736.431,846.000,856.000,851.000,855.000,844.000
738.220,864.000,861.000,837.000,863.000,841.000
740.011,855.000,877.000,852.000,871.000,859.000
741.802,878.000,871.000,847.000,871.000,872.000
743.591,859.000,867.000,854.000,869.000,857.000
745.381,859.000,866.000,858.000,859.000,874.000
747.169,853.000,864.000,871.000,873.000,867.000
748.958,851.000,858.000,873.000,874.000,877.000
750.747,866.000,852.000,871.000,874.000,859.000
752.534,859.000,880.000,860.000,873.000,868.000
754.323,868.000,872.000,855.000,876.000,865.000
756.109,875.000,868.000,871.000,882.000,896.000
757.896,858.000,867.000,894.000,863.000,882.000
759.684,870.000,879.000,888.000,895.000,872.000
761.469,881.000,870.000,880.000,864.000,882.000
763.255,865.000,876.000,879.000,872.000,893.000
765.040,864.000,878.000,875.000,846.000,872.000
766.826,881.000,878.000,894.000,884.000,876.000
768.611,865.000,875.000,862.000,883.000,896.000
770.394,880.000,869.000,871.000,842.000,869.000
772.179,862.000,852.000,857.000,866.000,873.000
773.962,870.000,860.000,879.000,883.000,868.000
775.746,865.000,857.000,886.000,864.000,870.000
777.528,877.000,851.000,879.000,881.000,886.000
779.311,859.000,870.000,885.000,881.000,880.000
781.094,851.000,849.000,841.000,887.000,863.000
782.875,851.000,872.000,847.000,851.000,883.000
784.658,863.000,857.000,866.000,869.000,872.000
786.438,861.000,863.000,869.000,876.000,878.000
788.219,851.000,887.000,867.000,872.000,870.000
790.001,859.000,844.000,865.000,859.000,864.000
791.780,860.000,855.000,857.000,859.000,864.000
793.560,858.000,867.000,871.000,847.000,873.000
795.339,854.000,854.000,844.000,859.000,855.000
797.119,851.000,844.000,859.000,867.000,857.000
798.898,844.000,838.000,841.000,864.000,856.000
800.675,851.000,840.000,835.000,834.000,854.000
802.454,835.000,837.000,837.000,840.000,850.000
804.231,838.000,849.000,858.000,827.000,838.000
806.009,830.000,842.000,852.000,836.000,848.000
807.787,843.000,831.000,832.000,833.000,842.000
809.562,834.000,842.000,829.000,855.000,850.000
811.340,834.000,826.000,833.000,851.000,850.000
813.114,833.000,825.000,849.000,847.000,857.000
814.891,819.000,839.000,850.000,844.000,858.000
816.665,838.000,853.000,831.000,851.000,857.000
818.441,844.000,836.000,835.000,850.000,838.000
820.216,843.000,867.000,846.000,843.000,850.000
821.989,838.000,846.000,854.000,862.000,870.000
823.764,845.000,851.000,834.000,854.000,863.000
825.536,831.000,837.000,868.000,851.000,860.000
827.310,848.000,862.000,859.000,851.000,878.000
829.084,865.000,851.000,867.000,860.000,870.000
830.855,859.000,869.000,867.000,883.000,871.000
832.628,876.000,885.000,895.000,879.000,892.000
834.398,903.000,889.000,870.000,895.000,908.000
836.171,903.000,903.000,893.000,905.000,880.000
837.942,899.000,897.000,899.000,892.000,903.000
839.712,900.000,876.000,895.000,918.000,900.000
841.483,902.000,912.000,911.000,900.000,938.000
843.252,908.000,913.000,919.000,904.000,916.000
845.023,913.000,916.000,910.000,899.000,914.000
846.793,892.000,905.000,894.000,904.000,911.000
848.560,910.000,900.000,896.000,943.000,916.000
850.330,919.000,907.000,914.000,912.000,934.000
852.097,918.000,927.000,906.000,921.000,913.000
853.866,907.000,931.000,913.000,910.000,927.000
855.632,905.000,933.000,905.000,955.000,929.000
857.400,921.000,930.000,899.000,894.000,927.000
859.168,888.000,910.000,914.000,903.000,921.000
860.933,887.000,906.000,895.000,898.000,917.000
862.700,893.000,885.000,909.000,910.000,919.000
864.465,884.000,884.000,870.000,889.000,885.000
866.231,882.000,886.000,896.000,895.000,879.000
867.997,891.000,908.000,900.000,876.000,885.000
869.761,873.000,878.000,873.000,872.000,875.000
871.526,869.000,861.000,871.000,868.000,873.000
873.289,866.000,877.000,861.000,883.000,886.000
875.054,883.000,887.000,886.000,865.000,876.000
876.818,861.000,872.000,873.000,871.000,903.000
878.580,871.000,864.000,883.000,874.000,860.000
880.343,858.000,878.000,875.000,867.000,879.000
882.104,873.000,878.000,864.000,867.000,894.000
883.867,875.000,878.000,854.000,868.000,880.000
885.630,867.000,874.000,873.000,884.000,884.000
887.390,869.000,870.000,892.000,876.000,895.000
889.152,871.000,883.000,886.000,898.000,884.000
890.911,895.000,893.000,882.000,895.000,887.000
892.672,889.000,900.000,894.000,915.000,909.000
894.433,895.000,914.000,903.000,907.000,913.000
896.191,906.000,919.000,914.000,920.000,933.000
897.951,898.000,896.000,925.000,899.000,910.000
899.709,915.000,924.000,912.000,919.000,931.000
901.469,916.000,907.000,915.000,913.000,935.000
903.226,888.000,899.000,905.000,922.000,908.000
904.984,889.000,917.000,916.000,901.000,922.000
906.743,904.000,886.000,891.000,923.000,907.000
908.499,887.000,889.000,900.000,876.000,886.000
910.256,882.000,883.000,877.000,900.000,897.000
912.012,877.000,887.000,894.000,905.000,925.000
913.768,872.000,869.000,875.000,908.000,890.000
915.525,865.000,882.000,883.000,893.000,875.000
917.279,867.000,863.000,880.000,868.000,877.000
919.035,880.000,866.000,880.000,898.000,885.000
920.789,849.000,878.000,886.000,890.000,894.000
922.544,872.000,886.000,885.000,880.000,897.000
924.299,884.000,875.000,890.000,893.000,909.000
926.052,879.000,878.000,889.000,901.000,883.000
927.806,884.000,895.000,890.000,905.000,890.000
929.558,899.000,906.000,906.000,913.000,916.000
931.311,938.000,935.000,937.000,922.000,961.000
933.064,976.000,952.000,965.000,973.000,949.000
934.815,968.000,977.000,1004.000,1000.000,991.000
936.568,980.000,991.000,1003.000,996.000,992.000
938.318,952.000,958.000,960.000,985.000,981.000
940.070,923.000,957.000,935.000,935.000,952.000
941.819,910.000,908.000,916.000,925.000,918.000
943.570,887.000,915.000,888.000,882.000,902.000
945.321,893.000,894.000,899.000,883.000,890.000
947.069,885.000,864.000,874.000,887.000,886.000
948.819,861.000,856.000,873.000,870.000,893.000
950.567,851.000,841.000,857.000,872.000,891.000
952.317,855.000,843.000,875.000,860.000,874.000
954.066,859.000,865.000,855.000,845.000,858.000
955.812,859.000,860.000,863.000,854.000,855.000
957.561,872.000,865.000,858.000,857.000,863.000
959.307,854.000,868.000,864.000,878.000,875.000
961.054,862.000,858.000,867.000,863.000,855.000
962.802,868.000,861.000,867.000,873.000,867.000
964.547,864.000,837.000,870.000,883.000,856.000
966.293,855.000,859.000,859.000,868.000,881.000
968.038,863.000,878.000,878.000,880.000,1133.000
969.784,863.000,868.000,867.000,891.000,965.000
971.529,868.000,859.000,882.000,874.000,885.000
973.273,875.000,862.000,858.000,851.000,867.000
975.018,853.000,863.000,856.000,882.000,872.000
976.760,857.000,869.000,864.000,877.000,874.000
978.504,857.000,860.000,876.000,874.000,891.000
980.246,871.000,872.000,872.000,877.000,888.000
981.990,870.000,841.000,878.000,863.000,876.000
983.733,876.000,885.000,895.000,870.000,892.000
985.474,870.000,857.000,875.000,900.000,878.000
987.217,882.000,868.000,871.000,876.000,874.000
988.957,867.000,871.000,859.000,884.000,886.000
990.699,879.000,885.000,874.000,903.000,896.000
992.440,895.000,888.000,876.000,893.000,892.000
994.179,899.000,895.000,895.000,907.000,911.000
995.920,894.000,881.000,875.000,900.000,885.000
997.659,890.000,890.000,902.000,901.000,902.000
999.399,895.000,894.000,908.000,918.000,923.000
1001.139,890.000,911.000,900.000,910.000,914.000
1002.876,896.000,916.000,902.000,927.000,913.000
1004.616,900.000,890.000,904.000,896.000,923.000
1006.352,886.000,901.000,907.000,882.000,899.000
1008.091,906.000,891.000,887.000,916.000,913.000
1009.829,906.000,895.000,926.000,917.000,900.000
1011.565,908.000,894.000,899.000,936.000,930.000
1013.302,915.000,906.000,906.000,925.000,928.000
1015.037,916.000,903.000,898.000,920.000,920.000
1016.774,908.000,904.000,910.000,920.000,921.000
1018.509,904.000,895.000,900.000,920.000,908.000
1020.245,903.000,926.000,913.000,916.000,925.000
1021.980,915.000,910.000,919.000,908.000,926.000
1023.714,909.000,896.000,933.000,920.000,943.000
1025.449,911.000,912.000,898.000,921.000,945.000
1027.182,913.000,917.000,932.000,913.000,923.000
1028.916,909.000,915.000,914.000,914.000,931.000
1030.650,910.000,917.000,906.000,939.000,918.000
1032.382,908.000,909.000,914.000,935.000,935.000
1034.115,906.000,904.000,927.000,918.000,925.000
1035.847,904.000,932.000,909.000,933.000,928.000
1037.579,932.000,922.000,932.000,929.000,916.000
1039.312,906.000,904.000,922.000,918.000,934.000
1041.042,881.000,923.000,898.000,894.000,919.000
1042.773,899.000,922.000,919.000,912.000,913.000
1044.503,904.000,887.000,915.000,895.000,937.000
1046.234,899.000,911.000,907.000,910.000,908.000
1047.964,899.000,904.000,895.000,911.000,920.000
1049.693,900.000,903.000,911.000,920.000,921.000
1051.423,900.000,896.000,923.000,937.000,918.000
1053.151,898.000,924.000,921.000,918.000,944.000
1054.880,892.000,897.000,926.000,902.000,940.000
1056.609,900.000,941.000,924.000,924.000,943.000
1058.336,911.000,931.000,914.000,947.000,934.000
1060.064,898.000,912.000,946.000,941.000,930.000
1061.790,906.000,922.000,925.000,906.000,923.000
1063.518,906.000,912.000,904.000,938.000,936.000
1065.243,936.000,921.000,912.000,900.000,930.000
1066.970,929.000,922.000,930.000,924.000,924.000
1068.697,939.000,935.000,924.000,929.000,953.000
1070.421,939.000,924.000,947.000,936.000,950.000
1072.147,926.000,931.000,940.000,974.000,947.000
1073.871,954.000,928.000,944.000,959.000,956.000
1075.596,951.000,948.000,963.000,959.000,939.000
1077.321,958.000,939.000,954.000,953.000,964.000
1079.044,947.000,955.000,956.000,959.000,950.000
1080.768,935.000,939.000,954.000,952.000,947.000
1082.490,930.000,936.000,945.000,929.000,934.000
1084.213,933.000,927.000,919.000,922.000,947.000
1085.937,921.000,933.000,932.000,939.000,943.000
1087.658,913.000,928.000,938.000,924.000,949.000
1089.380,921.000,923.000,928.000,937.000,963.000
1091.101,912.000,920.000,936.000,944.000,934.000
1092.823,917.000,928.000,924.000,940.000,949.000
1094.544,940.000,915.000,929.000,960.000,933.000
1096.264,927.000,936.000,937.000,936.000,929.000
1097.985,935.000,943.000,961.000,932.000,959.000
1099.703,947.000,961.000,963.000,945.000,980.000
1101.423,926.000,964.000,942.000,962.000,995.000
1103.141,970.000,946.000,969.000,972.000,978.000
1104.861,959.000,946.000,968.000,983.000,980.000
1106.580,965.000,953.000,983.000,969.000,987.000
1108.297,962.000,975.000,960.000,1013.000,986.000
1110.016,990.000,990.000,965.000,986.000,990.000
1111.732,995.000,1004.000,988.000,996.000,1005.000
1113.450,996.000,989.000,995.000,1000.000,1006.000
1115.168,991.000,986.000,1005.000,987.000,1014.000
1116.883,994.000,988.000,1017.000,980.000,992.000
1118.600,965.000,1002.000,1002.000,985.000,991.000
1120.315,975.000,987.000,993.000,984.000,992.000
1122.031,965.000,970.000,979.000,970.000,990.000
1123.747,959.000,973.000,965.000,986.000,995.000
1125.461,967.000,956.000,968.000,971.000,968.000
1127.176,942.000,954.000,951.000,985.000,957.000
1128.889,957.000,959.000,961.000,969.000,960.000
1130.603,954.000,955.000,964.000,964.000,988.000
1132.318,953.000,957.000,947.000,971.000,973.000
1134.030,952.000,939.000,957.000,951.000,985.000
1135.743,933.000,949.000,943.000,959.000,958.000
1137.455,944.000,971.000,969.000,946.000,952.000
1139.168,933.000,948.000,932.000,952.000,954.000
1140.878,959.000,929.000,955.000,951.000,946.000
1142.591,921.000,947.000,927.000,957.000,936.000
1144.302,935.000,939.000,942.000,947.000,963.000
1146.012,942.000,944.000,947.000,960.000,973.000
1147.723,933.000,947.000,943.000,956.000,955.000
1149.432,919.000,937.000,956.000,958.000,951.000
1151.143,950.000,942.000,934.000,965.000,954.000
1152.853,934.000,924.000,935.000,943.000,968.000
1154.561,933.000,942.000,924.000,939.000,977.000
1156.271,927.000,939.000,938.000,944.000,964.000
1157.978,954.000,928.000,959.000,939.000,963.000
1159.687,938.000,939.000,954.000,974.000,962.000
1161.396,952.000,950.000,969.000,949.000,968.000
1163.102,945.000,937.000,951.000,969.000,971.000
1164.810,958.000,950.000,978.000,966.000,964.000
1166.516,948.000,959.000,947.000,967.000,1002.000
1168.223,962.000,971.000,955.000,967.000,969.000
1169.930,993.000,966.000,985.000,971.000,982.000
1171.635,983.000,971.000,982.000,1010.000,982.000
1173.341,992.000,980.000,989.000,1011.000,1025.000
1175.045,956.000,980.000,976.000,977.000,1005.000
1176.751,990.000,990.000,988.000,1014.000,1012.000
1178.454,1010.000,998.000,1014.000,1022.000,1013.000
1180.159,1032.000,1004.000,1027.000,1050.000,1034.000
1181.864,1059.000,1049.000,1072.000,1087.000,1065.000
1183.567,1072.000,1057.000,1085.000,1070.000,1066.000
1185.271,1048.000,1057.000,1072.000,1103.000,1080.000
1186.972,1047.000,1048.000,1058.000,1056.000,1071.000
1188.676,1060.000,1038.000,1061.000,1052.000,1062.000
1190.379,1032.000,1025.000,1035.000,1053.000,1052.000
1192.079,998.000,990.000,1006.000,1019.000,1042.000
1193.782,1014.000,1024.000,1003.000,1035.000,1016.000
1195.482,1014.000,1019.000,1025.000,1046.000,1045.000
1197.184,1004.000,1049.000,1015.000,1050.000,1039.000
1198.885,1003.000,1012.000,1009.000,1048.000,1044.000
1200.584,1022.000,1024.000,1014.000,1019.000,1029.000
1202.285,1042.000,1016.000,1007.000,1052.000,1009.000
1203.983,1027.000,1013.000,1051.000,1006.000,1048.000
1205.683,1006.000,1052.000,1027.000,1025.000,1037.000
1207.383,1023.000,1029.000,1011.000,1035.000,1042.000
1209.081,1026.000,1034.000,1024.000,1043.000,1044.000
1210.780,1005.000,1025.000,1012.000,1033.000,1048.000
1212.476,1010.000,1011.000,1044.000,1006.000,1043.000
1214.175,1045.000,1016.000,1035.000,1027.000,1062.000
1215.873,1040.000,1017.000,1063.000,1057.000,1047.000
1217.569,1040.000,1050.000,1047.000,1066.000,1037.000
1219.266,1056.000,1049.000,1075.000,1074.000,1084.000
1220.961,1074.000,1039.000,1075.000,1088.000,1084.000
1222.658,1095.000,1071.000,1109.000,1086.000,1103.000
1224.353,1117.000,1098.000,1108.000,1088.000,1129.000
1226.049,1102.000,1114.000,1131.000,1137.000,1155.000
1227.745,1138.000,1127.000,1142.000,1149.000,1176.000
1229.438,1151.000,1144.000,1151.000,1166.000,1170.000
1231.133,1166.000,1122.000,1158.000,1171.000,1134.000
1232.826,1148.000,1142.000,1159.000,1161.000,1186.000
1234.521,1166.000,1138.000,1162.000,1152.000,1106.000
1236.215,1163.000,1131.000,1131.000,1169.000,1126.000
1237.907,1105.000,1133.000,1118.000,1129.000,1138.000
1239.600,1108.000,1126.000,1143.000,1132.000,1136.000
1241.292,1118.000,1111.000,1120.000,1122.000,1131.000
1242.984,1116.000,1099.000,1119.000,1119.000,1139.000
1244.677,1099.000,1109.000,1097.000,1129.000,1147.000
1246.367,1105.000,1132.000,1131.000,1132.000,1132.000
1248.059,1109.000,1131.000,1147.000,1161.000,1142.000
1249.749,1138.000,1150.000,1156.000,1131.000,1152.000
1251.440,1151.000,1166.000,1185.000,1173.000,1165.000
1253.131,1174.000,1156.000,1145.000,1146.000,1146.000
1254.820,1131.000,1146.000,1147.000,1165.000,1150.000
1256.510,1140.000,1118.000,1136.000,1146.000,1169.000
1258.198,1113.000,1132.000,1134.000,1133.000,1168.000
1259.887,1117.000,1136.000,1153.000,1152.000,1138.000
1261.575,1135.000,1125.000,1143.000,1139.000,1153.000
1263.264,1139.000,1168.000,1138.000,1153.000,1175.000
1264.952,1153.000,1177.000,1173.000,1171.000,1187.000
1266.639,1150.000,1150.000,1164.000,1170.000,1171.000
1268.327,1164.000,1151.000,1193.000,1179.000,1159.000
1270.013,1178.000,1197.000,1194.000,1175.000,1197.000
1271.700,1211.000,1211.000,1208.000,1231.000,1195.000
1273.387,1154.000,1186.000,1206.000,1215.000,1217.000
1275.072,1211.000,1203.000,1201.000,1194.000,1206.000
1276.758,1176.000,1191.000,1210.000,1186.000,1197.000
1278.442,1204.000,1174.000,1198.000,1204.000,1192.000
1280.128,1210.000,1208.000,1224.000,1187.000,1224.000
1281.813,1217.000,1219.000,1224.000,1231.000,1236.000
1283.496,1241.000,1216.000,1254.000,1256.000,1292.000
1285.181,1274.000,1276.000,1271.000,1291.000,1301.000
1286.864,1292.000,1312.000,1330.000,1343.000,1318.000
1288.548,1343.000,1369.000,1301.000,1363.000,1347.000
1290.231,1424.000,1403.000,1398.000,1433.000,1384.000
1291.913,1465.000,1465.000,1447.000,1463.000,1469.000
1293.596,1511.000,1484.000,1466.000,1531.000,1537.000
1295.277,1570.000,1559.000,1561.000,1544.000,1584.000
1296.959,1607.000,1563.000,1562.000,1609.000,1556.000
1298.641,1593.000,1563.000,1605.000,1607.000,1593.000
1300.321,1591.000,1620.000,1540.000,1544.000,1576.000
1302.003,1542.000,1578.000,1530.000,1548.000,1541.000
1303.682,1493.000,1506.000,1495.000,1519.000,1519.000
1305.363,1481.000,1465.000,1429.000,1455.000,1433.000
1307.042,1411.000,1430.000,1405.000,1424.000,1461.000
1308.722,1369.000,1307.000,1360.000,1374.000,1360.000
1310.402,1290.000,1312.000,1315.000,1300.000,1310.000
1312.079,1293.000,1292.000,1262.000,1252.000,1309.000
1313.759,1240.000,1244.000,1248.000,1271.000,1285.000
1315.436,1206.000,1226.000,1217.000,1229.000,1258.000
1317.114,1216.000,1204.000,1253.000,1222.000,1218.000
1318.792,1218.000,1188.000,1201.000,1200.000,1222.000
1320.469,1199.000,1199.000,1166.000,1181.000,1200.000
1322.146,1182.000,1125.000,1156.000,1149.000,1217.000
1323.822,1115.000,1126.000,1127.000,1162.000,1163.000
1325.499,1136.000,1153.000,1124.000,1156.000,1171.000
1327.175,1119.000,1124.000,1170.000,1149.000,1129.000
1328.850,1130.000,1134.000,1122.000,1150.000,1165.000
1330.526,1124.000,1128.000,1125.000,1132.000,1159.000
1332.199,1104.000,1127.000,1146.000,1150.000,1178.000
1333.875,1108.000,1121.000,1130.000,1130.000,1138.000
1335.548,1124.000,1139.000,1139.000,1139.000,1121.000
1337.223,1115.000,1132.000,1103.000,1113.000,1119.000
1338.897,1136.000,1131.000,1117.000,1127.000,1168.000
1340.569,1123.000,1112.000,1132.000,1141.000,1148.000
1342.243,1145.000,1129.000,1137.000,1150.000,1145.000
1343.915,1107.000,1125.000,1122.000,1132.000,1156.000
1345.588,1114.000,1151.000,1130.000,1134.000,1134.000
1347.261,1110.000,1111.000,1099.000,1104.000,1134.000
1348.931,1120.000,1130.000,1117.000,1117.000,1099.000
1350.603,1115.000,1098.000,1096.000,1114.000,1127.000
1352.273,1087.000,1108.000,1114.000,1129.000,1109.000
1353.945,1089.000,1114.000,1315.000,1129.000,1137.000
1355.616,1102.000,1122.000,1196.000,1121.000,1141.000
1357.285,1105.000,1100.000,1115.000,1118.000,1139.000
1358.956,1094.000,1118.000,1119.000,1140.000,1167.000
1360.624,1144.000,1140.000,1113.000,1130.000,1156.000
1362.294,1156.000,1163.000,1151.000,1181.000,1149.000
1363.963,1139.000,1156.000,1162.000,1164.000,1169.000
1365.631,1133.000,1177.000,1163.000,1164.000,1166.000
1367.300,1155.000,1170.000,1156.000,1163.000,1174.000
1368.967,1139.000,1145.000,1141.000,1165.000,1151.000
1370.635,1160.000,1134.000,1127.000,1138.000,1175.000
1372.303,1138.000,1155.000,1165.000,1158.000,1160.000
1373.969,1127.000,1129.000,1141.000,1152.000,1146.000
1375.636,1119.000,1107.000,1113.000,1144.000,1143.000
1377.301,1097.000,1102.000,1099.000,1138.000,1141.000
1378.968,1098.000,1079.000,1104.000,1080.000,1104.000
1380.633,1062.000,1066.000,1083.000,1091.000,1101.000
1382.299,1053.000,1076.000,1067.000,1078.000,1073.000
1383.964,1050.000,1038.000,1065.000,1051.000,1059.000
1385.628,1046.000,1020.000,1035.000,1045.000,1073.000
1387.293,1021.000,1008.000,1036.000,1054.000,1050.000
1388.956,1006.000,1024.000,1005.000,1047.000,1045.000
1390.621,1014.000,1008.000,998.000,1030.000,1023.000
1392.285,986.000,1030.000,1014.000,997.000,1019.000
1393.947,986.000,991.000,1013.000,1006.000,1022.000
1395.610,997.000,1019.000,1014.000,1010.000,996.000
1397.272,1001.000,1015.000,1003.000,1019.000,1032.000
1398.934,985.000,1006.000,999.000,1002.000,1044.000
1400.597,993.000,1017.000,1019.000,1027.000,1014.000
1402.257,994.000,1022.000,991.000,1020.000,1015.000
1403.919,1013.000,1015.000,996.000,1025.000,1026.000
1405.579,1015.000,1001.000,1039.000,1055.000,1027.000
1407.241,1051.000,1055.000,1043.000,1033.000,1077.000
1408.900,1062.000,1061.000,1052.000,1051.000,1059.000
1410.560,1068.000,1094.000,1092.000,1102.000,1085.000
1412.221,1085.000,1120.000,1108.000,1109.000,1094.000
1413.879,1120.000,1118.000,1119.000,1138.000,1162.000
1415.539,1161.000,1176.000,1177.000,1144.000,1177.000
1417.196,1196.000,1185.000,1185.000,1211.000,1224.000
1418.855,1252.000,1228.000,1283.000,1240.000,1238.000
1420.514,1286.000,1256.000,1274.000,1279.000,1307.000
1422.171,1284.000,1257.000,1291.000,1264.000,1325.000
1423.829,1291.000,1279.000,1276.000,1254.000,1325.000
1425.485,1245.000,1269.000,1295.000,1274.000,1311.000
1427.142,1248.000,1252.000,1276.000,1266.000,1262.000
1428.800,1246.000,1271.000,1275.000,1248.000,1272.000
1430.455,1253.000,1274.000,1270.000,1287.000,1279.000
1432.111,1272.000,1264.000,1237.000,1277.000,1284.000
1433.766,1275.000,1261.000,1279.000,1274.000,1276.000
1435.421,1244.000,1218.000,1266.000,1272.000,1296.000
1437.077,1267.000,1265.000,1265.000,1258.000,1283.000
1438.731,1231.000,1240.000,1273.000,1252.000,1264.000
1440.386,1259.000,1253.000,1255.000,1244.000,1299.000
1442.038,1273.000,1247.000,1259.000,1279.000,1252.000
1443.693,1251.000,1264.000,1259.000,1244.000,1260.000
1445.347,1264.000,1247.000,1265.000,1278.000,1282.000
1446.999,1232.000,1233.000,1286.000,1273.000,1264.000
1448.652,1252.000,1259.000,1274.000,1272.000,1246.000
1450.303,1222.000,1243.000,1263.000,1267.000,1267.000
1451.956,1261.000,1243.000,1224.000,1267.000,1279.000
1453.607,1227.000,1258.000,1232.000,1231.000,1239.000
1455.259,1262.000,1226.000,1246.000,1277.000,1246.000
1456.911,1250.000,1235.000,1212.000,1221.000,1250.000
1458.560,1245.000,1239.000,1227.000,1241.000,1231.000
1460.212,1236.000,1204.000,1240.000,1210.000,1216.000
1461.861,1201.000,1171.000,1193.000,1186.000,1199.000
1463.511,1175.000,1148.000,1187.000,1170.000,1183.000
1465.161,1144.000,1135.000,1156.000,1137.000,1163.000
1466.810,1097.000,1115.000,1120.000,1133.000,1156.000
1468.459,1107.000,1087.000,1103.000,1105.000,1115.000
1470.107,1075.000,1066.000,1083.000,1082.000,1095.000
1471.756,1050.000,1043.000,1073.000,1061.000,1072.000
1473.404,1043.000,1039.000,1029.000,1053.000,1088.000
1475.051,1035.000,1039.000,1029.000,1039.000,1060.000
1476.699,1013.000,1025.000,1036.000,1045.000,1040.000
1478.345,984.000,988.000,1042.000,1050.000,1033.000
1479.992,1027.000,1021.000,1021.000,1030.000,1035.000
1481.639,1043.000,1015.000,1034.000,1012.000,1031.000
1483.284,1011.000,1016.000,1022.000,1037.000,1047.000
1484.931,1032.000,1041.000,1030.000,1042.000,1031.000
1486.575,1030.000,1070.000,1021.000,1036.000,1060.000
1488.221,1070.000,1059.000,1073.000,1060.000,1078.000
1489.865,1044.000,1027.000,1071.000,1075.000,1067.000
1491.510,1051.000,1065.000,1051.000,1083.000,1063.000
1493.155,1048.000,1018.000,1068.000,1042.000,1064.000
1494.798,1050.000,1061.000,1051.000,1071.000,1052.000
1496.442,1025.000,1014.000,1025.000,1044.000,1021.000
1498.084,1010.000,994.000,1002.000,999.000,1006.000
1499.728,1001.000,970.000,999.000,1008.000,1009.000
1501.371,989.000,954.000,992.000,994.000,1009.000
1503.013,977.000,987.000,957.000,993.000,984.000
1504.655,977.000,960.000,979.000,964.000,966.000
1506.296,954.000,945.000,947.000,978.000,961.000
1507.938,952.000,962.000,954.000,968.000,985.000
1509.580,956.000,923.000,990.000,979.000,979.000
1511.220,953.000,949.000,945.000,974.000,971.000
1512.861,969.000,949.000,966.000,966.000,982.000
1514.500,932.000,935.000,961.000,963.000,961.000
1516.140,941.000,936.000,952.000,959.000,976.000
1517.781,944.000,931.000,953.000,941.000,958.000
1519.419,945.000,951.000,960.000,935.000,975.000
1521.058,947.000,958.000,949.000,968.000,966.000
1522.696,943.000,934.000,947.000,970.000,987.000
1524.335,966.000,955.000,948.000,952.000,968.000
1525.974,953.000,954.000,939.000,965.000,973.000
1527.610,946.000,953.000,966.000,969.000,964.000
1529.248,936.000,948.000,952.000,961.000,985.000
1530.884,964.000,962.000,941.000,959.000,989.000
1532.522,963.000,951.000,971.000,984.000,970.000
1534.157,973.000,967.000,979.000,947.000,971.000
1535.794,950.000,953.000,952.000,983.000,975.000
1537.430,970.000,970.000,961.000,989.000,998.000
1539.065,962.000,955.000,951.000,963.000,985.000
1540.701,952.000,953.000,967.000,984.000,1007.000
1542.335,977.000,970.000,980.000,984.000,987.000
1543.970,975.000,974.000,982.000,991.000,996.000
1545.605,981.000,978.000,991.000,985.000,1002.000
1547.238,997.000,983.000,973.000,995.000,990.000
1548.872,989.000,998.000,1008.000,1007.000,1004.000
1550.504,999.000,992.000,994.000,1008.000,1019.000
1552.138,1013.000,990.000,1000.000,1009.000,1019.000
1553.771,1054.000,1002.000,1020.000,1046.000,1034.000
1555.403,1035.000,1032.000,1030.000,1056.000,1059.000
1557.036,1030.000,1035.000,1022.000,1070.000,1059.000
1558.666,1053.000,1046.000,1046.000,1063.000,1044.000
1560.298,1050.000,1054.000,1059.000,1072.000,1069.000
1561.928,1036.000,1066.000,1065.000,1089.000,1074.000
1563.560,1072.000,1087.000,1058.000,1060.000,1105.000
1565.191,1069.000,1055.000,1069.000,1092.000,1073.000
1566.820,1068.000,1084.000,1081.000,1075.000,1100.000
1568.451,1068.000,1062.000,1067.000,1083.000,1083.000
1570.080,1064.000,1072.000,1084.000,1085.000,1104.000
1571.710,1056.000,1079.000,1075.000,1084.000,1120.000
1573.339,1072.000,1076.000,1074.000,1090.000,1099.000
1574.967,1078.000,1083.000,1087.000,1106.000,1138.000
1576.596,1062.000,1100.000,1105.000,1101.000,1109.000
1578.223,1063.000,1109.000,1092.000,1120.000,1116.000
1579.852,1090.000,1105.000,1099.000,1105.000,1122.000
1581.480,1126.000,1116.000,1127.000,1137.000,1120.000
1583.106,1103.000,1127.000,1113.000,1168.000,1130.000
1584.733,1110.000,1119.000,1111.000,1131.000,1164.000
1586.359,1123.000,1113.000,1135.000,1120.000,1158.000
1587.986,1133.000,1127.000,1144.000,1145.000,1155.000
1589.612,1125.000,1141.000,1179.000,1142.000,1166.000
1591.237,1159.000,1152.000,1183.000,1154.000,1167.000
1592.863,1159.000,1164.000,1148.000,1162.000,1189.000
1594.487,1155.000,1185.000,1156.000,1179.000,1189.000
1596.112,1195.000,1210.000,1225.000,1205.000,1222.000
1597.737,1187.000,1187.000,1209.000,1218.000,1211.000
1599.360,1183.000,1203.000,1206.000,1224.000,1222.000
1600.985,1196.000,1200.000,1224.000,1244.000,1235.000
1602.607,1219.000,1221.000,1239.000,1231.000,1266.000
1604.231,1207.000,1235.000,1206.000,1251.000,1245.000
1605.853,1215.000,1213.000,1226.000,1260.000,1249.000
1607.476,1250.000,1231.000,1275.000,1234.000,1280.000
1609.099,1233.000,1246.000,1246.000,1246.000,1250.000
1610.720,1229.000,1238.000,1220.000,1252.000,1268.000
1612.342,1235.000,1286.000,1272.000,1258.000,1287.000
1613.963,1271.000,1238.000,1279.000,1280.000,1272.000
1615.584,1289.000,1262.000,1271.000,1289.000,1299.000
1617.206,1260.000,1269.000,1249.000,1276.000,1297.000
1618.825,1239.000,1269.000,1248.000,1249.000,1306.000
1620.446,1270.000,1270.000,1314.000,1285.000,1278.000
1622.065,1271.000,1297.000,1310.000,1302.000,1327.000
1623.685,1294.000,1278.000,1296.000,1307.000,1333.000
1625.305,1311.000,1336.000,1311.000,1334.000,1325.000
1626.923,1277.000,1310.000,1332.000,1319.000,1353.000
1628.542,1293.000,1294.000,1287.000,1284.000,1312.000
1630.159,1263.000,1278.000,1309.000,1308.000,1291.000
1631.778,1300.000,1290.000,1308.000,1295.000,1296.000
1633.396,1287.000,1255.000,1286.000,1291.000,1283.000
1635.012,1268.000,1273.000,1251.000,1294.000,1317.000
1636.630,1245.000,1247.000,1253.000,1289.000,1278.000
1638.246,1263.000,1253.000,1249.000,1251.000,1257.000
1639.863,1240.000,1251.000,1255.000,1285.000,1263.000
1641.478,1221.000,1228.000,1257.000,1268.000,1268.000
1643.095,1239.000,1242.000,1243.000,1247.000,1274.000
1644.711,1213.000,1216.000,1219.000,1240.000,1253.000
1646.325,1247.000,1232.000,1215.000,1219.000,1260.000
1647.941,1209.000,1215.000,1219.000,1225.000,1241.000
1649.554,1171.000,1188.000,1189.000,1211.000,1228.000
1651.169,1185.000,1205.000,1174.000,1208.000,1241.000
1652.784,1216.000,2955.000,1191.000,1226.000,1206.000
1654.397,1175.000,1326.000,1200.000,1187.000,1202.000
1656.011,1186.000,1190.000,1212.000,1218.000,1226.000
1657.623,1195.000,1194.000,1210.000,1208.000,1230.000
1659.236,1180.000,1172.000,1212.000,1226.000,1217.000
1660.849,1187.000,1195.000,1193.000,1189.000,1218.000
1662.461,1181.000,1182.000,1176.000,1169.000,1182.000
1664.073,1121.000,1150.000,1158.000,1162.000,1156.000
1665.684,1176.000,1148.000,1141.000,1157.000,1172.000
1667.296,1120.000,1142.000,1151.000,1156.000,1119.000
1668.907,1100.000,1130.000,1120.000,1134.000,1122.000
1670.517,1096.000,1095.000,1112.000,1136.000,1117.000
1672.128,1092.000,1076.000,1099.000,1111.000,1105.000
1673.737,1080.000,1074.000,1069.000,1123.000,1109.000
1675.347,1066.000,1065.000,1075.000,1086.000,1116.000
1676.958,1058.000,1074.000,1070.000,1046.000,1092.000
1678.566,1049.000,1063.000,1053.000,1070.000,1085.000
1680.175,1046.000,1043.000,1051.000,1057.000,1054.000
1681.783,1041.000,1049.000,1057.000,1057.000,1056.000
1683.392,1051.000,1027.000,1054.000,1056.000,1053.000
1684.999,1030.000,1014.000,1029.000,1054.000,1070.000
1686.607,1028.000,1023.000,1032.000,1035.000,1052.000
1688.215,1008.000,1008.000,1023.000,1024.000,1028.000
1689.821,992.000,1024.000,1015.000,1011.000,1021.000
1691.428,997.000,1008.000,1006.000,1026.000,1027.000
1693.034,987.000,981.000,995.000,1019.000,1022.000
1694.641,981.000,1008.000,1016.000,1004.000,1003.000
1696.247,978.000,987.000,990.000,1009.000,1010.000
1697.852,983.000,971.000,992.000,1008.000,1020.000
1699.458,995.000,990.000,986.000,986.000,999.000
1701.061,967.000,973.000,991.000,996.000,993.000
1702.667,964.000,956.000,969.000,996.000,989.000
1704.272,962.000,955.000,966.000,986.000,1020.000
1705.875,950.000,959.000,980.000,1000.000,1003.000
1707.479,954.000,973.000,985.000,961.000,989.000
1709.082,953.000,966.000,966.000,971.000,991.000
1710.685,954.000,963.000,961.000,975.000,972.000
1712.287,950.000,956.000,985.000,971.000,1003.000
1713.890,984.000,951.000,965.000,989.000,979.000
1715.493,963.000,949.000,949.000,996.000,993.000
1717.094,966.000,952.000,975.000,961.000,983.000
1718.697,952.000,966.000,946.000,973.000,984.000
1720.297,929.000,953.000,947.000,964.000,954.000
1721.899,945.000,962.000,964.000,946.000,963.000
1723.500,949.000,924.000,945.000,966.000,973.000
1725.099,939.000,966.000,934.000,948.000,974.000
1726.700,946.000,935.000,937.000,957.000,947.000
1728.299,946.000,948.000,949.000,963.000,972.000
1729.899,954.000,932.000,953.000,966.000,962.000
1731.499,920.000,935.000,923.000,941.000,960.000
1733.097,930.000,952.000,955.000,954.000,970.000
1734.696,936.000,912.000,945.000,951.000,980.000
1736.294,964.000,933.000,955.000,928.000,974.000
1737.892,930.000,926.000,956.000,947.000,946.000
1739.491,926.000,937.000,934.000,953.000,969.000
1741.087,928.000,940.000,938.000,944.000,945.000
1742.685,946.000,936.000,948.000,935.000,966.000
1744.281,910.000,927.000,943.000,937.000,944.000
1745.878,923.000,924.000,936.000,974.000,947.000
1747.475,945.000,936.000,934.000,950.000,953.000
1749.070,925.000,908.000,932.000,957.000,963.000
1750.666,928.000,933.000,939.000,957.000,933.000
1752.260,933.000,910.000,945.000,947.000,954.000
1753.856,941.000,939.000,942.000,952.000,953.000
1755.451,935.000,940.000,933.000,946.000,965.000
1757.045,941.000,940.000,943.000,937.000,989.000
1758.640,942.000,913.000,940.000,949.000,946.000
1760.232,939.000,944.000,982.000,951.000,950.000
1761.827,919.000,946.000,945.000,946.000,962.000
1763.419,930.000,942.000,943.000,962.000,943.000
1765.013,929.000,924.000,951.000,950.000,948.000
1766.606,950.000,934.000,938.000,949.000,959.000
1768.197,933.000,935.000,948.000,960.000,956.000
1769.790,926.000,945.000,929.000,944.000,937.000
1771.381,926.000,925.000,933.000,948.000,949.000
1772.973,914.000,916.000,929.000,969.000,947.000
1774.565,911.000,932.000,931.000,954.000,956.000
1776.154,940.000,916.000,932.000,950.000,942.000
1777.746,924.000,930.000,918.000,942.000,950.000
1779.335,928.000,956.000,923.000,937.000,930.000
1780.926,926.000,933.000,919.000,941.000,951.000
1782.514,919.000,928.000,925.000,951.000,935.000
1784.104,924.000,916.000,928.000,936.000,953.000
1785.694,919.000,931.000,930.000,932.000,933.000
1787.282,922.000,907.000,937.000,945.000,941.000
1788.871,907.000,924.000,903.000,932.000,952.000
1790.458,909.000,926.000,941.000,918.000,962.000
1792.047,918.000,924.000,925.000,896.000,904.000
1793.635,930.000,926.000,940.000,941.000,931.000
1795.221,909.000,906.000,923.000,930.000,939.000
1796.809,930.000,910.000,936.000,927.000,951.000
1798.395,931.000,927.000,932.000,942.000,955.000
1799.982,915.000,929.000,911.000,908.000,915.000
1801.569,923.000,927.000,936.000,941.000,923.000
1803.153,906.000,931.000,921.000,933.000,936.000
1804.739,923.000,919.000,927.000,932.000,955.000
1806.324,918.000,917.000,945.000,925.000,944.000
1807.909,910.000,920.000,923.000,938.000,924.000
1809.495,910.000,915.000,921.000,912.000,929.000
1811.078,906.000,918.000,914.000,925.000,941.000
1812.663,944.000,923.000,928.000,918.000,937.000
1814.245,907.000,916.000,919.000,936.000,935.000
1815.830,937.000,924.000,915.000,934.000,932.000
1817.413,923.000,933.000,921.000,923.000,928.000
1818.995,915.000,911.000,955.000,956.000,952.000
1820.578,912.000,907.000,931.000,936.000,929.000
1822.160,919.000,917.000,933.000,920.000,934.000
1823.742,915.000,918.000,939.000,937.000,923.000
1825.325,930.000,915.000,926.000,930.000,941.000
1826.905,908.000,936.000,934.000,955.000,927.000
1828.487,899.000,926.000,925.000,928.000,940.000
1830.067,923.000,920.000,916.000,913.000,941.000
1831.648,931.000,919.000,920.000,949.000,924.000
1833.227,912.000,896.000,936.000,931.000,937.000
1834.808,918.000,931.000,931.000,933.000,939.000
1836.388,908.000,913.000,923.000,941.000,936.000
1837.966,907.000,912.000,922.000,934.000,929.000
1839.546,928.000,946.000,920.000,933.000,935.000
1841.124,913.000,931.000,923.000,981.000,945.000
1842.703,911.000,925.000,916.000,1099.000,943.000
1844.282,922.000,924.000,929.000,935.000,942.000
1845.858,916.000,907.000,929.000,948.000,934.000
1847.437,916.000,923.000,921.000,932.000,910.000
1849.013,929.000,903.000,936.000,925.000,940.000
1850.591,905.000,926.000,929.000,934.000,937.000
1852.168,917.000,927.000,928.000,926.000,929.000
1853.743,902.000,894.000,920.000,926.000,949.000
1855.320,1394.000,935.000,912.000,925.000,932.000
1856.895,1226.000,932.000,918.000,937.000,932.000
1858.471,929.000,933.000,922.000,918.000,932.000
1860.045,920.000,912.000,930.000,932.000,929.000
1861.621,915.000,920.000,929.000,929.000,918.000
1863.196,897.000,926.000,924.000,920.000,931.000
1864.769,921.000,907.000,938.000,915.000,920.000
1866.344,907.000,930.000,926.000,924.000,955.000
1867.917,905.000,900.000,933.000,921.000,924.000
1869.491,921.000,911.000,902.000,922.000,951.000
1871.065,917.000,924.000,929.000,919.000,932.000
1872.637,915.000,919.000,918.000,944.000,927.000
1874.210,921.000,912.000,953.000,925.000,935.000
1875.781,927.000,939.000,908.000,931.000,952.000
1877.354,912.000,921.000,917.000,930.000,926.000
1878.926,927.000,910.000,932.000,923.000,949.000
1880.497,913.000,939.000,938.000,942.000,951.000
1882.069,920.000,912.000,919.000,949.000,923.000
1883.638,928.000,927.000,936.000,942.000,928.000
1885.210,930.000,919.000,931.000,927.000,959.000
1886.781,915.000,902.000,914.000,924.000,926.000
1888.349,923.000,927.000,924.000,935.000,924.000
1889.920,916.000,921.000,936.000,929.000,948.000
1891.488,930.000,918.000,921.000,949.000,947.000
1893.058,919.000,909.000,929.000,949.000,939.000
1894.627,920.000,956.000,940.000,953.000,953.000
1896.195,939.000,960.000,950.000,958.000,960.000
1897.764,930.000,933.000,943.000,937.000,957.000
1899.331,924.000,945.000,937.000,959.000,951.000
1900.899,937.000,926.000,936.000,940.000,955.000
1902.467,919.000,931.000,925.000,937.000,947.000
1904.033,919.000,932.000,932.000,945.000,953.000
1905.600,926.000,916.000,920.000,945.000,957.000
1907.166,954.000,916.000,934.000,952.000,941.000
1908.733,940.000,913.000,913.000,945.000,922.000
1910.298,927.000,919.000,927.000,950.000,939.000
1911.864,951.000,936.000,909.000,928.000,937.000
1913.430,921.000,912.000,920.000,930.000,939.000
1914.994,899.000,930.000,927.000,929.000,930.000
1916.559,936.000,934.000,923.000,920.000,953.000
1918.123,911.000,920.000,931.000,961.000,922.000
1919.687,910.000,925.000,926.000,929.000,938.000
1921.252,923.000,930.000,938.000,958.000,936.000
1922.814,912.000,926.000,928.000,931.000,949.000
1924.378,917.000,928.000,936.000,932.000,948.000
1925.940,929.000,935.000,930.000,937.000,939.000
1927.504,934.000,928.000,932.000,941.000,937.000
1929.065,919.000,930.000,926.000,929.000,925.000
1930.628,915.000,930.000,924.000,937.000,951.000
1932.190,912.000,923.000,928.000,940.000,947.000
1933.751,904.000,951.000,906.000,948.000,937.000
1935.313,917.000,929.000,944.000,921.000,933.000
1936.873,927.000,934.000,928.000,942.000,939.000
1938.434,919.000,899.000,938.000,935.000,919.000
1939.995,930.000,936.000,924.000,917.000,935.000
1941.554,937.000,933.000,942.000,946.000,940.000
1943.115,939.000,913.000,929.000,933.000,947.000
1944.673,932.000,933.000,920.000,913.000,918.000
1946.233,927.000,948.000,932.000,935.000,943.000
1947.793,928.000,920.000,928.000,926.000,937.000
1949.350,931.000,927.000,949.000,951.000,940.000
1950.909,923.000,904.000,936.000,919.000,941.000
1952.467,924.000,922.000,915.000,946.000,943.000
1954.025,933.000,926.000,921.000,929.000,928.000
1955.583,922.000,936.000,917.000,936.000,942.000
1957.139,935.000,944.000,920.000,946.000,949.000
1958.697,938.000,922.000,940.000,940.000,951.000
1960.253,896.000,916.000,912.000,942.000,947.000
1961.810,947.000,925.000,951.000,943.000,934.000
1963.366,918.000,925.000,929.000,951.000,936.000
1964.921,937.000,932.000,941.000,948.000,954.000
1966.477,905.000,934.000,934.000,937.000,932.000
1968.031,908.000,926.000,944.000,942.000,959.000
1969.587,922.000,953.000,943.000,939.000,947.000
1971.142,936.000,939.000,938.000,943.000,916.000
1972.696,924.000,918.000,918.000,936.000,953.000
1974.250,936.000,930.000,940.000,935.000,951.000
1975.803,917.000,933.000,918.000,929.000,933.000
1977.357,929.000,916.000,925.000,956.000,948.000
1978.909,934.000,923.000,943.000,933.000,945.000
1980.463,947.000,916.000,930.000,927.000,955.000
1982.016,908.000,926.000,955.000,935.000,928.000
1983.568,933.000,929.000,929.000,928.000,935.000
1985.120,927.000,924.000,931.000,953.000,933.000
1986.671,926.000,920.000,938.000,953.000,942.000
1988.223,925.000,932.000,920.000,949.000,940.000
1989.775,938.000,917.000,934.000,942.000,945.000
1991.325,940.000,924.000,921.000,940.000,954.000
1992.876,929.000,944.000,929.000,955.000,949.000
1994.425,931.000,935.000,918.000,946.000,961.000
1995.976,950.000,912.000,943.000,926.000,972.000
1997.527,931.000,938.000,934.000,923.000,947.000
1999.075,928.000,921.000,941.000,950.000,957.000
2000.625,923.000,927.000,937.000,931.000,938.000
2002.173,934.000,942.000,939.000,961.000,941.000
2003.722,931.000,920.000,951.000,955.000,960.000
2005.269,940.000,932.000,931.000,942.000,921.000
2006.818,932.000,931.000,932.000,950.000,947.000
2008.366,918.000,918.000,934.000,926.000,955.000
2009.913,935.000,922.000,946.000,948.000,946.000
2011.461,922.000,948.000,938.000,942.000,946.000
2013.007,922.000,932.000,936.000,929.000,950.000
2014.554,931.000,943.000,954.000,932.000,952.000
2016.101,936.000,951.000,933.000,931.000,955.000
2017.646,934.000,934.000,939.000,945.000,960.000
2019.192,922.000,950.000,933.000,962.000,945.000
2020.737,940.000,935.000,954.000,955.000,946.000
2022.283,945.000,942.000,938.000,932.000,948.000
2023.828,929.000,920.000,938.000,951.000,937.000
2025.372,927.000,926.000,934.000,937.000,961.000
2026.917,923.000,932.000,938.000,945.000,957.000
2028.460,931.000,926.000,946.000,933.000,947.000
2030.004,956.000,947.000,939.000,965.000,954.000
2031.548,943.000,948.000,954.000,927.000,952.000
2033.091,938.000,929.000,1729.000,959.000,950.000
2034.634,947.000,935.000,1008.000,937.000,963.000
2036.176,927.000,954.000,938.000,955.000,944.000
2037.719,931.000,924.000,951.000,954.000,973.000
2039.262,961.000,923.000,947.000,955.000,930.000
2040.802,927.000,943.000,935.000,948.000,958.000
2042.344,949.000,943.000,975.000,941.000,959.000
2043.885,933.000,934.000,948.000,919.000,939.000
2045.426,968.000,947.000,947.000,952.000,940.000
2046.968,944.000,922.000,948.000,946.000,955.000
2048.507,939.000,956.000,948.000,965.000,945.000
2050.048,938.000,935.000,951.000,941.000,957.000
2051.586,948.000,943.000,933.000,940.000,961.000
2053.127,929.000,940.000,928.000,948.000,960.000
2054.665,939.000,953.000,939.000,958.000,958.000
2056.204,939.000,932.000,955.000,940.000,944.000
2057.744,936.000,947.000,923.000,971.000,934.000
2059.281,954.000,941.000,945.000,933.000,961.000
2060.820,927.000,939.000,947.000,959.000,969.000
2062.357,951.000,933.000,953.000,953.000,965.000
2063.895,965.000,927.000,957.000,951.000,947.000
2065.433,941.000,957.000,949.000,956.000,941.000
2066.969,935.000,929.000,945.000,955.000,966.000
2068.506,959.000,921.000,934.000,945.000,977.000
2070.041,936.000,944.000,939.000,947.000,982.000
2071.578,948.000,946.000,957.000,974.000,960.000
2073.113,950.000,950.000,939.000,951.000,972.000
2074.649,954.000,932.000,947.000,944.000,983.000
2076.185,960.000,930.000,958.000,958.000,951.000
2077.719,949.000,947.000,945.000,963.000,962.000
2079.255,947.000,953.000,952.000,954.000,938.000
2080.788,940.000,945.000,937.000,973.000,984.000
2082.323,944.000,944.000,951.000,955.000,971.000
2083.857,934.000,950.000,956.000,952.000,960.000
2085.390,938.000,934.000,959.000,970.000,959.000
2086.924,934.000,954.000,956.000,964.000,934.000
2088.456,945.000,960.000,933.000,957.000,964.000
2089.989,965.000,955.000,974.000,961.000,943.000
2091.522,919.000,951.000,967.000,963.000,968.000
2093.054,948.000,963.000,956.000,960.000,961.000
2094.586,967.000,960.000,953.000,956.000,965.000
2096.117,945.000,947.000,971.000,957.000,949.000
2097.649,943.000,961.000,954.000,947.000,973.000
2099.180,935.000,956.000,966.000,969.000,954.000
2100.710,965.000,956.000,942.000,988.000,962.000
2102.241,975.000,935.000,969.000,975.000,948.000
2103.771,957.000,943.000,945.000,973.000,971.000
2105.301,954.000,953.000,951.000,956.000,965.000
2106.832,943.000,943.000,969.000,977.000,965.000
2108.360,954.000,962.000,955.000,971.000,971.000
2109.890,959.000,954.000,964.000,979.000,973.000
2111.417,955.000,952.000,999.000,974.000,963.000
2112.947,957.000,950.000,956.000,982.000,966.000
2114.476,945.000,969.000,940.000,967.000,977.000
2116.002,976.000,966.000,965.000,978.000,962.000
2117.531,947.000,942.000,975.000,978.000,967.000
2119.057,959.000,938.000,952.000,958.000,973.000
2120.585,944.000,978.000,960.000,967.000,988.000
2122.111,938.000,961.000,948.000,985.000,986.000
2123.638,955.000,941.000,977.000,962.000,980.000
2125.165,953.000,953.000,991.000,964.000,975.000
2126.690,951.000,971.000,984.000,973.000,951.000
2128.216,938.000,958.000,949.000,955.000,984.000
2129.741,959.000,963.000,964.000,969.000,982.000
2131.267,960.000,983.000,987.000,972.000,960.000
2132.792,979.000,940.000,964.000,975.000,973.000
2134.316,952.000,960.000,987.000,950.000,989.000
2135.841,973.000,964.000,971.000,960.000,979.000
2137.364,959.000,940.000,974.000,972.000,962.000
2138.888,959.000,973.000,973.000,967.000,984.000
2140.413,955.000,983.000,952.000,983.000,962.000
2141.935,959.000,959.000,975.000,969.000,991.000
2143.458,973.000,969.000,968.000,979.000,970.000
2144.980,954.000,971.000,973.000,978.000,970.000
2146.503,962.000,972.000,958.000,991.000,973.000
2148.024,973.000,983.000,975.000,979.000,994.000
2149.547,966.000,996.000,949.000,994.000,984.000
2151.069,965.000,971.000,961.000,979.000,979.000
2152.589,971.000,972.000,987.000,997.000,988.000
2154.111,965.000,972.000,992.000,979.000,994.000
2155.630,960.000,954.000,973.000,1008.000,1010.000
2157.152,969.000,984.000,982.000,983.000,968.000
2158.672,966.000,980.000,967.000,992.000,970.000
2160.191,987.000,983.000,973.000,960.000,982.000
2161.712,969.000,957.000,982.000,982.000,972.000
2163.230,960.000,957.000,967.000,1012.000,965.000
2164.750,980.000,970.000,974.000,994.000,1002.000
2166.269,986.000,987.000,993.000,992.000,984.000
2167.787,983.000,966.000,987.000,1002.000,986.000
2169.305,1012.000,993.000,977.000,972.000,1015.000
2170.822,990.000,978.000,993.000,978.000,990.000
2172.341,978.000,979.000,997.000,986.000,996.000
2173.859,1002.000,983.000,984.000,1008.000,1003.000
2175.375,982.000,963.000,984.000,981.000,1000.000
2176.892,993.000,1000.000,993.000,982.000,988.000
2178.408,1007.000,983.000,981.000,992.000,998.000
2179.925,967.000,971.000,986.000,1006.000,1000.000
2181.441,992.000,994.000,983.000,1005.000,997.000
2182.956,998.000,998.000,978.000,987.000,1025.000
2184.472,985.000,990.000,995.000,1005.000,984.000
2185.986,996.000,1013.000,998.000,996.000,1019.000
2187.502,969.000,987.000,993.000,1001.000,1009.000
2189.016,1012.000,979.000,987.000,998.000,985.000
2190.531,988.000,994.000,981.000,997.000,1017.000
2192.045,995.000,997.000,1002.000,982.000,1015.000
2193.558,989.000,1006.000,1007.000,1012.000,1000.000
2195.072,995.000,995.000,1002.000,992.000,1006.000
2196.585,996.000,999.000,978.000,998.000,994.000
2198.098,977.000,980.000,1004.000,1019.000,1034.000
2199.612,993.000,1015.000,1020.000,1027.000,1013.000
2201.123,988.000,1016.000,999.000,1002.000,993.000
2202.636,1002.000,1004.000,1008.000,987.000,994.000
2204.147,977.000,992.000,1006.000,998.000,1010.000
2205.659,999.000,997.000,1000.000,1015.000,1000.000
2207.171,994.000,998.000,996.000,1005.000,1002.000
2208.681,1019.000,997.000,982.000,992.000,993.000
2210.192,1021.000,1008.000,991.000,1028.000,1016.000
2211.702,1011.000,989.000,1011.000,994.000,1010.000
2213.213,1015.000,1001.000,1005.000,1026.000,997.000
2214.722,987.000,1017.000,1004.000,999.000,999.000
2216.232,1013.000,988.000,1023.000,1014.000,1013.000
2217.742,1008.000,1009.000,1027.000,1004.000,1043.000
2219.250,1022.000,1031.000,1039.000,1023.000,1042.000
2220.760,1010.000,1020.000,1012.000,1029.000,1026.000
2222.267,982.000,1000.000,1009.000,1014.000,1014.000
2223.776,1010.000,1003.000,1036.000,1015.000,1023.000
2225.285,1026.000,1012.000,1024.000,1036.000,1027.000
2226.791,996.000,1021.000,1010.000,1031.000,1019.000
2228.300,1004.000,1016.000,1025.000,1056.000,1049.000
2229.806,1021.000,1027.000,1021.000,1030.000,1025.000
2231.313,984.000,1022.000,1031.000,1052.000,1027.000
2232.821,1023.000,1028.000,1030.000,1047.000,1029.000
2234.326,1028.000,1034.000,1016.000,1070.000,1055.000
2235.833,1033.000,1024.000,1026.000,1035.000,1046.000
2237.338,1022.000,1034.000,1042.000,1025.000,1053.000
2238.844,1016.000,1021.000,1003.000,1011.000,1032.000
2240.350,1034.000,1027.000,1038.000,1041.000,1036.000
2241.854,1047.000,1019.000,1038.000,1056.000,1032.000
2243.359,1039.000,1021.000,1025.000,1031.000,1048.000
2244.863,1015.000,1035.000,1041.000,1057.000,1064.000
2246.367,1037.000,1057.000,1065.000,1040.000,1074.000
2247.872,1032.000,1048.000,1046.000,1055.000,1066.000
2249.375,1062.000,1041.000,1052.000,1053.000,1040.000
2250.879,1065.000,1044.000,1039.000,1057.000,1059.000
2252.381,1033.000,1035.000,1051.000,1057.000,1034.000
2253.884,1044.000,1056.000,1051.000,1038.000,1041.000
2255.387,1051.000,1037.000,1063.000,1049.000,1072.000
2256.889,1044.000,1061.000,1072.000,1055.000,1062.000
2258.391,1046.000,1058.000,1054.000,1066.000,1083.000
2259.892,1063.000,1050.000,1056.000,1075.000,1056.000
2261.394,1054.000,1040.000,1064.000,1076.000,1038.000
2262.894,1069.000,1050.000,1036.000,1071.000,1064.000
2264.396,1044.000,1043.000,1062.000,1078.000,1066.000
2265.897,1069.000,1060.000,1042.000,1070.000,1070.000
2267.396,1050.000,1060.000,1052.000,1088.000,1078.000
2268.897,1049.000,1079.000,1093.000,1078.000,1077.000
2270.396,1084.000,1064.000,1053.000,1070.000,1096.000
2271.896,1072.000,1055.000,1075.000,1077.000,1106.000
2273.396,1104.000,1062.000,1074.000,1092.000,1106.000
2274.894,1073.000,1079.000,1071.000,1087.000,1111.000
2276.394,1090.000,1086.000,1072.000,1061.000,1100.000
2277.891,1080.000,1074.000,1105.000,1083.000,1102.000
2279.390,1062.000,1075.000,1089.000,1089.000,1124.000
2280.888,1091.000,1096.000,1092.000,1099.000,1087.000
2282.385,1090.000,1077.000,1091.000,1099.000,1106.000
2283.883,1086.000,1108.000,1110.000,1081.000,1087.000
2285.379,1112.000,1104.000,1092.000,1128.000,1140.000
2286.877,1085.000,1097.000,1103.000,1125.000,1117.000
2288.372,1103.000,1092.000,1085.000,1115.000,1101.000
2289.869,1108.000,1107.000,1132.000,1113.000,1113.000
2291.366,1099.000,1103.000,1114.000,1104.000,1133.000
2292.861,1127.000,1118.000,1130.000,1104.000,1125.000
2294.357,1128.000,1130.000,1127.000,1123.000,1121.000
2295.851,1125.000,1094.000,1129.000,1131.000,1144.000
2297.346,1132.000,1141.000,1142.000,1130.000,1116.000
2298.842,1153.000,1112.000,1127.000,1142.000,1148.000
2300.335,1123.000,1119.000,1142.000,1138.000,1155.000
2301.830,1121.000,1139.000,1118.000,1114.000,1164.000
2303.323,1165.000,1150.000,1124.000,1142.000,1154.000
2304.817,1140.000,1150.000,1139.000,1156.000,1152.000
2306.311,1139.000,1144.000,1156.000,1144.000,1165.000
2307.803,1148.000,1158.000,1140.000,1156.000,1185.000
2309.296,1173.000,1122.000,1188.000,1173.000,1151.000
2310.788,1182.000,1155.000,1171.000,1164.000,1157.000
2312.281,1171.000,1172.000,1199.000,1186.000,1153.000
2313.773,1172.000,1171.000,1195.000,1215.000,1187.000
2315.264,1189.000,1204.000,1204.000,1167.000,1159.000
2316.756,1190.000,1194.000,1202.000,1187.000,1199.000
2318.246,1169.000,1189.000,1196.000,1225.000,1210.000
2319.738,1188.000,1229.000,1213.000,1207.000,1210.000
2321.229,1223.000,1203.000,1206.000,1211.000,1241.000
2322.718,1225.000,1249.000,1234.000,1227.000,1242.000
2324.209,1237.000,1273.000,1255.000,1232.000,1246.000
2325.698,1232.000,1239.000,1243.000,1245.000,1232.000
2327.188,1263.000,1270.000,1259.000,1254.000,1282.000
2328.676,1275.000,1272.000,1266.000,1293.000,1279.000
2330.166,1317.000,1268.000,1270.000,1288.000,1292.000
2331.655,1269.000,1300.000,1264.000,1314.000,1334.000
2333.143,1271.000,1294.000,1302.000,1317.000,1336.000
2334.632,1305.000,1333.000,1349.000,1349.000,1296.000
2336.119,1343.000,1364.000,1336.000,1358.000,1341.000
2337.607,1363.000,1323.000,1351.000,1334.000,1373.000
2339.095,1368.000,1380.000,1372.000,1371.000,1397.000
2340.581,1387.000,1400.000,1397.000,1408.000,1404.000
2342.068,1400.000,1422.000,1446.000,1433.000,1439.000
2343.554,1436.000,1442.000,1448.000,1462.000,1443.000
2345.041,1495.000,1535.000,1485.000,1492.000,1558.000
