3998.68465	0.04412
3997.65486	0.04409
3996.62506	0.04393
3995.59527	0.04372
3994.56548	0.04374
3993.53569	0.04364
3992.50589	0.04339
3991.47610	0.04333
3990.44631	0.04355
3989.41652	0.04382
3988.38672	0.04389
3987.35693	0.04355
3986.32714	0.04344
3985.29735	0.04344
3984.26755	0.04340
3983.23776	0.04369
3982.20797	0.04386
3981.17817	0.04401
3980.14838	0.04420
3979.11859	0.04426
3978.08880	0.04400
3977.05900	0.04374
3976.02921	0.04365
3974.99942	0.04374
3973.96963	0.04379
3972.93983	0.04370
3971.91004	0.04390
3970.88025	0.04396
3969.85046	0.04383
3968.82066	0.04397
3967.79087	0.04406
3966.76108	0.04380
3965.73129	0.04349
3964.70149	0.04346
3963.67170	0.04372
3962.64191	0.04377
3961.61212	0.04367
3960.58232	0.04356
3959.55253	0.04326
3958.52274	0.04346
3957.49295	0.04407
3956.46315	0.04403
3955.43336	0.04346
3954.40357	0.04347
3953.37377	0.04389
3952.34398	0.04392
3951.31419	0.04370
3950.28440	0.04346
3949.25460	0.04355
3948.22481	0.04383
3947.19502	0.04377
3946.16523	0.04352
3945.13543	0.04337
3944.10564	0.04345
3943.07585	0.04353
3942.04606	0.04361
3941.01626	0.04353
3939.98647	0.04317
3938.95668	0.04330
3937.92689	0.04328
3936.89709	0.04306
3935.86730	0.04298
3934.83751	0.04270
3933.80772	0.04304
3932.77792	0.04338
3931.74813	0.04321
3930.71834	0.04346
3929.68855	0.04366
3928.65875	0.04346
3927.62896	0.04319
3926.59917	0.04312
3925.56937	0.04327
3924.53958	0.04329
3923.50979	0.04314
3922.48000	0.04293
3921.45020	0.04299
3920.42041	0.04300
3919.39062	0.04297
3918.36083	0.04319
3917.33103	0.04312
3916.30124	0.04310
3915.27145	0.04332
3914.24166	0.04345
3913.21186	0.04327
3912.18207	0.04303
3911.15228	0.04313
3910.12249	0.04337
3909.09269	0.04335
3908.06290	0.04320
3907.03311	0.04313
3906.00332	0.04322
3904.97352	0.04335
3903.94373	0.04291
3902.91394	0.04262
3901.88415	0.04244
3900.85435	0.04289
3899.82456	0.04343
3898.79477	0.04325
3897.76497	0.04313
3896.73518	0.04294
3895.70539	0.04268
3894.67560	0.04276
3893.64580	0.04308
3892.61601	0.04301
3891.58622	0.04277
3890.55643	0.04283
3889.52663	0.04278
3888.49684	0.04271
3887.46705	0.04281
3886.43726	0.04259
3885.40746	0.04276
3884.37767	0.04338
3883.34788	0.04304
3882.31809	0.04252
3881.28829	0.04224
3880.25850	0.04216
3879.22871	0.04269
3878.19892	0.04322
3877.16912	0.04316
3876.13933	0.04277
3875.10954	0.04248
3874.07974	0.04251
3873.04995	0.04288
3872.02016	0.04286
3870.99037	0.04281
3869.96057	0.04313
3868.93078	0.04325
3867.90099	0.04265
3866.87120	0.04229
3865.84140	0.04216
3864.81161	0.04216
3863.78182	0.04255
3862.75203	0.04244
3861.72223	0.04239
3860.69244	0.04244
3859.66265	0.04248
3858.63286	0.04268
3857.60306	0.04245
3856.57327	0.04229
3855.54348	0.04252
3854.51369	0.04242
3853.48389	0.04302
3852.45410	0.04361
3851.42431	0.04323
3850.39452	0.04278
3849.36472	0.04259
3848.33493	0.04255
3847.30514	0.04255
3846.27534	0.04253
3845.24555	0.04223
3844.21576	0.04214
3843.18597	0.04240
3842.15617	0.04256
3841.12638	0.04236
3840.09659	0.04216
3839.06680	0.04258
3838.03700	0.04282
3837.00721	0.04293
3835.97742	0.04280
3834.94763	0.04238
3833.91783	0.04221
3832.88804	0.04237
3831.85825	0.04241
3830.82846	0.04231
3829.79866	0.04206
3828.76887	0.04162
3827.73908	0.04172
3826.70929	0.04198
3825.67949	0.04230
3824.64970	0.04251
3823.61991	0.04251
3822.59012	0.04251
3821.56032	0.04245
3820.53053	0.04263
3819.50074	0.04275
3818.47094	0.04266
3817.44115	0.04224
3816.41136	0.04193
3815.38157	0.04238
3814.35177	0.04265
3813.32198	0.04230
3812.29219	0.04188
3811.26240	0.04184
3810.23260	0.04175
3809.20281	0.04195
3808.17302	0.04197
3807.14323	0.04170
3806.11343	0.04206
3805.08364	0.04211
3804.05385	0.04197
3803.02406	0.04209
3801.99426	0.04219
3800.96447	0.04222
3799.93468	0.04213
3798.90489	0.04200
3797.87509	0.04161
3796.84530	0.04124
3795.81551	0.04152
3794.78572	0.04173
3793.75592	0.04158
3792.72613	0.04128
3791.69634	0.04121
3790.66654	0.04158
3789.63675	0.04172
3788.60696	0.04159
3787.57717	0.04159
3786.54737	0.04157
3785.51758	0.04154
3784.48779	0.04154
3783.45800	0.04180
3782.42820	0.04207
3781.39841	0.04211
3780.36862	0.04203
3779.33883	0.04180
3778.30903	0.04155
3777.27924	0.04150
3776.24945	0.04168
3775.21966	0.04178
3774.18986	0.04205
3773.16007	0.04187
3772.13028	0.04128
3771.10049	0.04140
3770.07069	0.04161
3769.04090	0.04163
3768.01111	0.04146
3766.98132	0.04141
3765.95152	0.04141
3764.92173	0.04125
3763.89194	0.04137
3762.86214	0.04133
3761.83235	0.04114
3760.80256	0.04085
3759.77277	0.04077
3758.74297	0.04122
3757.71318	0.04124
3756.68339	0.04103
3755.65360	0.04120
3754.62380	0.04113
3753.59401	0.04075
3752.56422	0.04079
3751.53443	0.04178
3750.50463	0.04178
3749.47484	0.04082
3748.44505	0.04075
3747.41526	0.04087
3746.38546	0.04096
3745.35567	0.04107
3744.32588	0.04087
3743.29609	0.04148
3742.26629	0.04145
3741.23650	0.04090
3740.20671	0.04063
3739.17691	0.04052
3738.14712	0.04004
3737.11733	0.03971
3736.08754	0.03996
3735.05774	0.03993
3734.02795	0.04004
3732.99816	0.04022
3731.96837	0.04017
3730.93857	0.04068
3729.90878	0.04051
3728.87899	0.03997
3727.84920	0.03997
3726.81940	0.03982
3725.78961	0.04002
3724.75982	0.04068
3723.73003	0.04085
3722.70023	0.04046
3721.67044	0.04014
3720.64065	0.04049
3719.61086	0.04097
3718.58106	0.04076
3717.55127	0.04030
3716.52148	0.04014
3715.49169	0.04006
3714.46189	0.04022
3713.43210	0.04014
3712.40231	0.03994
3711.37251	0.04038
3710.34272	0.04054
3709.31293	0.04025
3708.28314	0.04015
3707.25334	0.04034
3706.22355	0.04029
3705.19376	0.03996
3704.16397	0.03956
3703.13417	0.03932
3702.10438	0.03946
3701.07459	0.03987
3700.04480	0.03998
3699.01500	0.03988
3697.98521	0.04007
3696.95542	0.04038
3695.92563	0.04052
3694.89583	0.04057
3693.86604	0.04041
3692.83625	0.04004
3691.80646	0.03957
3690.77666	0.03983
3689.74687	0.04053
3688.71708	0.04036
3687.68729	0.04037
3686.65749	0.04061
3685.62770	0.04027
3684.59791	0.03988
3683.56811	0.03983
3682.53832	0.04000
3681.50853	0.04020
3680.47874	0.04021
3679.44894	0.04027
3678.41915	0.04052
3677.38936	0.04010
3676.35957	0.03885
3675.32977	0.03840
3674.29998	0.04004
3673.27019	0.04046
3672.24040	0.04015
3671.21060	0.04002
3670.18081	0.04029
3669.15102	0.04039
3668.12123	0.04012
3667.09143	0.04024
3666.06164	0.04013
3665.03185	0.03981
3664.00206	0.03992
3662.97226	0.04004
3661.94247	0.03984
3660.91268	0.03978
3659.88289	0.04011
3658.85309	0.03998
3657.82330	0.03993
3656.79351	0.03990
3655.76371	0.03972
3654.73392	0.03989
3653.70413	0.04023
3652.67434	0.04059
3651.64454	0.04022
3650.61475	0.04028
3649.58496	0.04055
3648.55517	0.03998
3647.52537	0.03949
3646.49558	0.03945
3645.46579	0.03991
3644.43600	0.04002
3643.40620	0.04003
3642.37641	0.03990
3641.34662	0.03988
3640.31683	0.04019
3639.28703	0.03999
3638.25724	0.03997
3637.22745	0.04029
3636.19766	0.04016
3635.16786	0.04007
3634.13807	0.03991
3633.10828	0.03959
3632.07849	0.03919
3631.04869	0.03877
3630.01890	0.03884
3628.98911	0.03890
3627.95931	0.03966
3626.92952	0.04001
3625.89973	0.03970
3624.86994	0.03990
3623.84014	0.03999
3622.81035	0.03973
3621.78056	0.03987
3620.75077	0.04005
3619.72097	0.03966
3618.69118	0.03959
3617.66139	0.04005
3616.63160	0.03994
3615.60180	0.03934
3614.57201	0.03905
3613.54222	0.03929
3612.51243	0.03984
3611.48263	0.04029
3610.45284	0.04019
3609.42305	0.04004
3608.39326	0.04031
3607.36346	0.04042
3606.33367	0.04005
3605.30388	0.03983
3604.27408	0.04000
3603.24429	0.03993
3602.21450	0.03953
3601.18471	0.03963
3600.15491	0.03950
3599.12512	0.03884
3598.09533	0.03888
3597.06554	0.03948
3596.03574	0.03962
3595.00595	0.03952
3593.97616	0.03959
3592.94637	0.03956
3591.91657	0.03947
3590.88678	0.03942
3589.85699	0.03999
3588.82720	0.04050
3587.79740	0.04005
3586.76761	0.03949
3585.73782	0.03954
3584.70803	0.03990
3583.67823	0.03969
3582.64844	0.03922
3581.61865	0.03903
3580.58886	0.03948
3579.55906	0.04006
3578.52927	0.04015
3577.49948	0.03985
3576.46968	0.03977
3575.43989	0.03976
3574.41010	0.03954
3573.38031	0.03981
3572.35051	0.04003
3571.32072	0.04016
3570.29093	0.04025
3569.26114	0.04039
3568.23134	0.04024
3567.20155	0.03983
3566.17176	0.03995
3565.14197	0.04003
3564.11217	0.04010
3563.08238	0.04007
3562.05259	0.03974
3561.02280	0.03945
3559.99300	0.03978
3558.96321	0.04016
3557.93342	0.04004
3556.90363	0.03964
3555.87383	0.03974
3554.84404	0.04016
3553.81425	0.04018
3552.78446	0.04012
3551.75466	0.04013
3550.72487	0.04041
3549.69508	0.04036
3548.66528	0.04015
3547.63549	0.04036
3546.60570	0.04060
3545.57591	0.04051
3544.54611	0.04036
3543.51632	0.04052
3542.48653	0.04085
3541.45674	0.04099
3540.42694	0.04090
3539.39715	0.04111
3538.36736	0.04130
3537.33757	0.04117
3536.30777	0.04113
3535.27798	0.04148
3534.24819	0.04147
3533.21840	0.04098
3532.18860	0.04126
3531.15881	0.04171
3530.12902	0.04156
3529.09923	0.04147
3528.06943	0.04168
3527.03964	0.04165
3526.00985	0.04176
3524.98006	0.04211
3523.95026	0.04197
3522.92047	0.04190
3521.89068	0.04219
3520.86088	0.04227
3519.83109	0.04236
3518.80130	0.04235
3517.77151	0.04255
3516.74171	0.04277
3515.71192	0.04237
3514.68213	0.04212
3513.65234	0.04233
3512.62254	0.04291
3511.59275	0.04323
3510.56296	0.04317
3509.53317	0.04327
3508.50337	0.04332
3507.47358	0.04327
3506.44379	0.04329
3505.41400	0.04381
3504.38420	0.04421
3503.35441	0.04401
3502.32462	0.04367
3501.29483	0.04387
3500.26503	0.04428
3499.23524	0.04433
3498.20545	0.04446
3497.17565	0.04449
3496.14586	0.04449
3495.11607	0.04462
3494.08628	0.04491
3493.05648	0.04533
3492.02669	0.04545
3490.99690	0.04547
3489.96711	0.04552
3488.93731	0.04570
3487.90752	0.04615
3486.87773	0.04661
3485.84794	0.04681
3484.81814	0.04679
3483.78835	0.04673
3482.75856	0.04690
3481.72877	0.04706
3480.69897	0.04732
3479.66918	0.04776
3478.63939	0.04804
3477.60960	0.04839
3476.57980	0.04874
3475.55001	0.04921
3474.52022	0.04951
3473.49043	0.04952
3472.46063	0.04961
3471.43084	0.05002
3470.40105	0.05058
3469.37125	0.05089
3468.34146	0.05119
3467.31167	0.05157
3466.28188	0.05185
3465.25208	0.05216
3464.22229	0.05266
3463.19250	0.05299
3462.16271	0.05341
3461.13291	0.05393
3460.10312	0.05418
3459.07333	0.05450
3458.04354	0.05481
3457.01374	0.05482
3455.98395	0.05506
3454.95416	0.05564
3453.92437	0.05626
3452.89457	0.05702
3451.86478	0.05756
3450.83499	0.05787
3449.80520	0.05795
3448.77540	0.05815
3447.74561	0.05876
3446.71582	0.05943
3445.68603	0.05983
3444.65623	0.05995
3443.62644	0.06019
3442.59665	0.06089
3441.56685	0.06161
3440.53706	0.06190
3439.50727	0.06233
3438.47748	0.06281
3437.44768	0.06318
3436.41789	0.06368
3435.38810	0.06434
3434.35831	0.06484
3433.32851	0.06537
3432.29872	0.06607
3431.26893	0.06677
3430.23914	0.06766
3429.20934	0.06824
3428.17955	0.06895
3427.14976	0.06976
3426.11997	0.07018
3425.09017	0.07077
3424.06038	0.07190
3423.03059	0.07292
3422.00080	0.07364
3420.97100	0.07421
3419.94121	0.07484
3418.91142	0.07583
3417.88163	0.07631
3416.85183	0.07668
3415.82204	0.07770
3414.79225	0.07873
3413.76245	0.07941
3412.73266	0.08015
3411.70287	0.08067
3410.67308	0.08097
3409.64328	0.08156
3408.61349	0.08220
3407.58370	0.08281
3406.55391	0.08333
3405.52411	0.08379
3404.49432	0.08392
3403.46453	0.08375
3402.43474	0.08412
3401.40494	0.08461
3400.37515	0.08471
3399.34536	0.08506
3398.31557	0.08523
3397.28577	0.08507
3396.25598	0.08529
3395.22619	0.08539
3394.19640	0.08526
3393.16660	0.08511
3392.13681	0.08486
3391.10702	0.08482
3390.07723	0.08481
3389.04743	0.08445
3388.01764	0.08379
3386.98785	0.08332
3385.95805	0.08302
3384.92826	0.08258
3383.89847	0.08214
3382.86868	0.08164
3381.83888	0.08121
3380.80909	0.08088
3379.77930	0.08049
3378.74951	0.08022
3377.71971	0.07982
3376.68992	0.07931
3375.66013	0.07876
3374.63034	0.07832
3373.60054	0.07821
3372.57075	0.07802
3371.54096	0.07764
3370.51117	0.07711
3369.48137	0.07638
3368.45158	0.07594
3367.42179	0.07566
3366.39200	0.07540
3365.36220	0.07537
3364.33241	0.07513
3363.30262	0.07461
3362.27282	0.07395
3361.24303	0.07361
3360.21324	0.07352
3359.18345	0.07344
3358.15365	0.07317
3357.12386	0.07243
3356.09407	0.07190
3355.06428	0.07159
3354.03448	0.07124
3353.00469	0.07094
3351.97490	0.07093
3350.94511	0.07082
3349.91531	0.07046
3348.88552	0.07048
3347.85573	0.07044
3346.82594	0.07019
3345.79614	0.07010
3344.76635	0.06999
3343.73656	0.06964
3342.70677	0.06945
3341.67697	0.06932
3340.64718	0.06914
3339.61739	0.06916
3338.58760	0.06921
3337.55780	0.06903
3336.52801	0.06905
3335.49822	0.06908
3334.46842	0.06870
3333.43863	0.06852
3332.40884	0.06859
3331.37905	0.06880
3330.34925	0.06894
3329.31946	0.06872
3328.28967	0.06861
3327.25988	0.06887
3326.23008	0.06893
3325.20029	0.06886
3324.17050	0.06899
3323.14071	0.06895
3322.11091	0.06857
3321.08112	0.06852
3320.05133	0.06894
3319.02154	0.06913
3317.99174	0.06921
3316.96195	0.06926
3315.93216	0.06935
3314.90237	0.06961
3313.87257	0.06982
3312.84278	0.06993
3311.81299	0.06994
3310.78320	0.07024
3309.75340	0.07077
3308.72361	0.07083
3307.69382	0.07061
3306.66402	0.07085
3305.63423	0.07120
3304.60444	0.07137
3303.57465	0.07145
3302.54485	0.07174
3301.51506	0.07227
3300.48527	0.07244
3299.45548	0.07228
3298.42568	0.07226
3297.39589	0.07236
3296.36610	0.07245
3295.33631	0.07288
3294.30651	0.07349
3293.27672	0.07363
3292.24693	0.07344
3291.21714	0.07369
3290.18734	0.07424
3289.15755	0.07460
3288.12776	0.07484
3287.09797	0.07503
3286.06817	0.07540
3285.03838	0.07590
3284.00859	0.07624
3282.97880	0.07652
3281.94900	0.07662
3280.91921	0.07661
3279.88942	0.07708
3278.85962	0.07760
3277.82983	0.07784
3276.80004	0.07802
3275.77025	0.07827
3274.74045	0.07869
3273.71066	0.07894
3272.68087	0.07917
3271.65108	0.07964
3270.62128	0.08003
3269.59149	0.07999
3268.56170	0.07990
3267.53191	0.08022
3266.50211	0.08070
3265.47232	0.08113
3264.44253	0.08139
3263.41274	0.08156
3262.38294	0.08187
3261.35315	0.08228
3260.32336	0.08273
3259.29357	0.08300
3258.26377	0.08311
3257.23398	0.08347
3256.20419	0.08406
3255.17439	0.08428
3254.14460	0.08427
3253.11481	0.08465
3252.08502	0.08493
3251.05522	0.08494
3250.02543	0.08507
3248.99564	0.08571
3247.96585	0.08613
3246.93605	0.08613
3245.90626	0.08624
3244.87647	0.08629
3243.84668	0.08644
3242.81688	0.08678
3241.78709	0.08732
3240.75730	0.08751
3239.72751	0.08742
3238.69771	0.08734
3237.66792	0.08745
3236.63813	0.08777
3235.60834	0.08791
3234.57854	0.08811
3233.54875	0.08866
3232.51896	0.08902
3231.48917	0.08874
3230.45937	0.08886
3229.42958	0.08919
3228.39979	0.08920
3227.36999	0.08913
3226.34020	0.08906
3225.31041	0.08898
3224.28062	0.08905
3223.25082	0.08936
3222.22103	0.08929
3221.19124	0.08924
3220.16145	0.08925
3219.13165	0.08895
3218.10186	0.08898
3217.07207	0.08930
3216.04228	0.08914
3215.01248	0.08888
3213.98269	0.08865
3212.95290	0.08852
3211.92311	0.08885
3210.89331	0.08859
3209.86352	0.08798
3208.83373	0.08800
3207.80394	0.08785
3206.77414	0.08752
3205.74435	0.08735
3204.71456	0.08703
3203.68477	0.08668
3202.65497	0.08643
3201.62518	0.08624
3200.59539	0.08578
3199.56559	0.08531
3198.53580	0.08529
3197.50601	0.08521
3196.47622	0.08489
3195.44642	0.08443
3194.41663	0.08422
3193.38684	0.08397
3192.35705	0.08352
3191.32725	0.08319
3190.29746	0.08292
3189.26767	0.08239
3188.23788	0.08172
3187.20808	0.08129
3186.17829	0.08122
3185.14850	0.08107
3184.11871	0.08052
3183.08891	0.08013
3182.05912	0.07994
3181.02933	0.07971
3179.99954	0.07907
3178.96974	0.07857
3177.93995	0.07834
3176.91016	0.07787
3175.88037	0.07727
3174.85057	0.07656
3173.82078	0.07620
3172.79099	0.07593
3171.76119	0.07536
3170.73140	0.07481
3169.70161	0.07472
3168.67182	0.07450
3167.64202	0.07386
3166.61223	0.07326
3165.58244	0.07281
3164.55265	0.07255
3163.52285	0.07229
3162.49306	0.07201
3161.46327	0.07140
3160.43348	0.07080
3159.40368	0.07058
3158.37389	0.07050
3157.34410	0.07001
3156.31431	0.06919
3155.28451	0.06886
3154.25472	0.06894
3153.22493	0.06864
3152.19514	0.06800
3151.16534	0.06764
3150.13555	0.06724
3149.10576	0.06692
3148.07597	0.06665
3147.04617	0.06641
3146.01638	0.06621
3144.98659	0.06582
3143.95679	0.06543
3142.92700	0.06489
3141.89721	0.06439
3140.86742	0.06424
3139.83762	0.06426
3138.80783	0.06391
3137.77804	0.06335
3136.74825	0.06278
3135.71845	0.06244
3134.68866	0.06236
3133.65887	0.06222
3132.62908	0.06206
3131.59928	0.06184
3130.56949	0.06167
3129.53970	0.06120
3128.50991	0.06047
3127.48011	0.06027
3126.45032	0.06033
3125.42053	0.06021
3124.39074	0.06018
3123.36094	0.06007
3122.33115	0.05992
3121.30136	0.05989
3120.27156	0.05954
3119.24177	0.05923
3118.21198	0.05911
3117.18219	0.05890
3116.15239	0.05861
3115.12260	0.05843
3114.09281	0.05835
3113.06302	0.05795
3112.03322	0.05750
3111.00343	0.05720
3109.97364	0.05676
3108.94385	0.05654
3107.91405	0.05644
3106.88426	0.05617
3105.85447	0.05591
3104.82468	0.05570
3103.79488	0.05543
3102.76509	0.05504
3101.73530	0.05489
3100.70551	0.05487
3099.67571	0.05449
3098.64592	0.05403
3097.61613	0.05412
3096.58634	0.05429
3095.55654	0.05420
3094.52675	0.05380
3093.49696	0.05333
3092.46716	0.05349
3091.43737	0.05366
3090.40758	0.05395
3089.37779	0.05440
3088.34799	0.05468
3087.31820	0.05470
3086.28841	0.05431
3085.25862	0.05389
3084.22882	0.05375
3083.19903	0.05399
3082.16924	0.05411
3081.13945	0.05393
3080.10965	0.05387
3079.07986	0.05404
3078.05007	0.05383
3077.02028	0.05340
3075.99048	0.05319
3074.96069	0.05306
3073.93090	0.05296
3072.90111	0.05285
3071.87131	0.05278
3070.84152	0.05276
3069.81173	0.05291
3068.78194	0.05274
3067.75214	0.05217
3066.72235	0.05204
3065.69256	0.05237
3064.66276	0.05243
3063.63297	0.05238
3062.60318	0.05250
3061.57339	0.05238
3060.54359	0.05215
3059.51380	0.05205
3058.48401	0.05218
3057.45422	0.05247
3056.42442	0.05260
3055.39463	0.05241
3054.36484	0.05241
3053.33505	0.05245
3052.30525	0.05216
3051.27546	0.05202
3050.24567	0.05196
3049.21588	0.05198
3048.18608	0.05200
3047.15629	0.05188
3046.12650	0.05161
3045.09671	0.05162
3044.06691	0.05182
3043.03712	0.05181
3042.00733	0.05199
3040.97754	0.05218
3039.94774	0.05203
3038.91795	0.05202
3037.88816	0.05226
3036.85836	0.05250
3035.82857	0.05275
3034.79878	0.05322
3033.76899	0.05375
3032.73919	0.05387
3031.70940	0.05388
3030.67961	0.05400
3029.64982	0.05388
3028.62002	0.05354
3027.59023	0.05295
3026.56044	0.05244
3025.53065	0.05203
3024.50085	0.05140
3023.47106	0.05075
3022.44127	0.05046
3021.41148	0.05044
3020.38168	0.05029
3019.35189	0.04995
3018.32210	0.04945
3017.29231	0.04895
3016.26251	0.04845
3015.23272	0.04820
3014.20293	0.04820
3013.17313	0.04814
3012.14334	0.04817
3011.11355	0.04827
3010.08376	0.04820
3009.05396	0.04809
3008.02417	0.04814
3006.99438	0.04817
3005.96459	0.04833
3004.93479	0.04889
3003.90500	0.04959
3002.87521	0.05008
3001.84542	0.05052
3000.81562	0.05093
2999.78583	0.05136
2998.75604	0.05235
2997.72625	0.05399
2996.69645	0.05544
2995.66666	0.05636
2994.63687	0.05753
2993.60708	0.05879
2992.57728	0.05966
2991.54749	0.06020
2990.51770	0.06050
2989.48791	0.06079
2988.45811	0.06118
2987.42832	0.06183
2986.39853	0.06250
2985.36873	0.06322
2984.33894	0.06443
2983.30915	0.06652
2982.27936	0.06944
2981.24956	0.07276
2980.21977	0.07624
2979.18998	0.07912
2978.16019	0.08071
2977.13039	0.08089
2976.10060	0.07999
2975.07081	0.07973
2974.04102	0.08144
2973.01122	0.08497
2971.98143	0.08966
2970.95164	0.09408
2969.92185	0.09768
2968.89205	0.09998
2967.86226	0.10055
2966.83247	0.10062
2965.80268	0.10145
2964.77288	0.10312
2963.74309	0.10522
2962.71330	0.10754
2961.68351	0.10997
2960.65371	0.11222
2959.62392	0.11333
2958.59413	0.11321
2957.56433	0.11195
2956.53454	0.10905
2955.50475	0.10533
2954.47496	0.10130
2953.44516	0.09733
2952.41537	0.09422
2951.38558	0.09143
2950.35579	0.08894
2949.32599	0.08719
2948.29620	0.08619
2947.26641	0.08618
2946.23662	0.08650
2945.20682	0.08720
2944.17703	0.08853
2943.14724	0.09025
2942.11745	0.09239
2941.08765	0.09459
2940.05786	0.09689
2939.02807	0.09946
2937.99828	0.10293
2936.96848	0.10757
2935.93869	0.11289
2934.90890	0.11895
2933.87911	0.12574
2932.84931	0.13284
2931.81952	0.14016
2930.78973	0.14752
2929.75993	0.15472
2928.73014	0.16151
2927.70035	0.16689
2926.67056	0.17047
2925.64076	0.17245
2924.61097	0.17288
2923.58118	0.17159
2922.55139	0.16910
2921.52159	0.16626
2920.49180	0.16301
2919.46201	0.15935
2918.43222	0.15525
2917.40242	0.15077
2916.37263	0.14642
2915.34284	0.14221
2914.31305	0.13781
2913.28325	0.13375
2912.25346	0.13022
2911.22367	0.12688
2910.19388	0.12385
2909.16408	0.12112
2908.13429	0.11849
2907.10450	0.11597
2906.07471	0.11379
2905.04491	0.11177
2904.01512	0.10994
2902.98533	0.10807
2901.95553	0.10586
2900.92574	0.10375
2899.89595	0.10180
2898.86616	0.09987
2897.83636	0.09800
2896.80657	0.09651
2895.77678	0.09530
2894.74699	0.09395
2893.71719	0.09247
2892.68740	0.09089
2891.65761	0.08938
2890.62782	0.08829
2889.59802	0.08734
2888.56823	0.08623
2887.53844	0.08515
2886.50865	0.08408
2885.47885	0.08302
2884.44906	0.08208
2883.41927	0.08124
2882.38948	0.08073
2881.35968	0.08065
2880.32989	0.08082
2879.30010	0.08133
2878.27030	0.08249
2877.24051	0.08455
2876.21072	0.08713
2875.18093	0.08965
2874.15113	0.09225
2873.12134	0.09440
2872.09155	0.09537
2871.06176	0.09541
2870.03196	0.09472
2869.00217	0.09380
2867.97238	0.09319
2866.94259	0.09255
2865.91279	0.09216
2864.88300	0.09275
2863.85321	0.09474
2862.82342	0.09820
2861.79362	0.10278
2860.76383	0.10850
2859.73404	0.11518
2858.70425	0.12176
2857.67445	0.12745
2856.64466	0.13198
2855.61487	0.13524
2854.58508	0.13716
2853.55528	0.13810
2852.52549	0.13861
2851.49570	0.13850
2850.46590	0.13693
2849.43611	0.13336
2848.40632	0.12826
2847.37653	0.12225
2846.34673	0.11627
2845.31694	0.11081
2844.28715	0.10570
2843.25736	0.10105
2842.22756	0.09692
2841.19777	0.09336
2840.16798	0.09023
2839.13819	0.08746
2838.10839	0.08494
2837.07860	0.08277
2836.04881	0.08108
2835.01902	0.07948
2833.98922	0.07806
2832.95943	0.07674
2831.92964	0.07542
2830.89985	0.07424
2829.87005	0.07326
2828.84026	0.07243
2827.81047	0.07146
2826.78068	0.07052
2825.75088	0.06983
2824.72109	0.06918
2823.69130	0.06868
2822.66150	0.06818
2821.63171	0.06738
2820.60192	0.06664
2819.57213	0.06614
2818.54233	0.06568
2817.51254	0.06513
2816.48275	0.06463
2815.45296	0.06430
2814.42316	0.06420
2813.39337	0.06400
2812.36358	0.06355
2811.33379	0.06298
2810.30399	0.06247
2809.27420	0.06209
2808.24441	0.06166
2807.21462	0.06142
2806.18482	0.06128
2805.15503	0.06105
2804.12524	0.06082
2803.09545	0.06055
2802.06565	0.06024
2801.03586	0.05989
2800.00607	0.05965
2798.97628	0.05959
2797.94648	0.05947
2796.91669	0.05918
2795.88690	0.05885
2794.85710	0.05857
2793.82731	0.05839
2792.79752	0.05807
2791.76773	0.05773
2790.73793	0.05781
2789.70814	0.05792
2788.67835	0.05757
2787.64856	0.05713
2786.61876	0.05700
2785.58897	0.05686
2784.55918	0.05662
2783.52939	0.05635
2782.49959	0.05613
2781.46980	0.05606
2780.44001	0.05602
2779.41022	0.05586
2778.38042	0.05560
2777.35063	0.05542
2776.32084	0.05524
2775.29105	0.05517
2774.26125	0.05523
2773.23146	0.05509
2772.20167	0.05474
2771.17188	0.05450
2770.14208	0.05447
2769.11229	0.05471
2768.08250	0.05486
2767.05270	0.05470
2766.02291	0.05460
2764.99312	0.05447
2763.96333	0.05427
2762.93353	0.05436
2761.90374	0.05457
2760.87395	0.05444
2759.84416	0.05416
2758.81436	0.05405
2757.78457	0.05416
2756.75478	0.05432
2755.72499	0.05424
2754.69519	0.05387
2753.66540	0.05362
2752.63561	0.05369
2751.60582	0.05362
2750.57602	0.05359
2749.54623	0.05383
2748.51644	0.05399
2747.48665	0.05395
2746.45685	0.05388
2745.42706	0.05393
2744.39727	0.05398
2743.36747	0.05407
2742.33768	0.05416
2741.30789	0.05421
2740.27810	0.05419
2739.24830	0.05421
2738.21851	0.05445
2737.18872	0.05463
2736.15893	0.05466
2735.12913	0.05464
2734.09934	0.05474
2733.06955	0.05506
2732.03976	0.05534
2731.00996	0.05557
2729.98017	0.05574
2728.95038	0.05568
2727.92059	0.05552
2726.89079	0.05544
2725.86100	0.05552
2724.83121	0.05550
2723.80142	0.05522
2722.77162	0.05504
2721.74183	0.05487
2720.71204	0.05450
2719.68225	0.05430
2718.65245	0.05426
2717.62266	0.05432
2716.59287	0.05423
2715.56307	0.05395
2714.53328	0.05371
2713.50349	0.05361
2712.47370	0.05366
2711.44390	0.05357
2710.41411	0.05363
2709.38432	0.05365
2708.35453	0.05349
2707.32473	0.05355
2706.29494	0.05355
2705.26515	0.05346
2704.23536	0.05351
2703.20556	0.05353
2702.17577	0.05343
2701.14598	0.05336
2700.11619	0.05308
2699.08639	0.05289
2698.05660	0.05292
2697.02681	0.05292
2695.99702	0.05287
2694.96722	0.05269
2693.93743	0.05274
2692.90764	0.05281
2691.87785	0.05256
2690.84805	0.05238
2689.81826	0.05234
2688.78847	0.05224
2687.75867	0.05224
2686.72888	0.05223
2685.69909	0.05203
2684.66930	0.05177
2683.63950	0.05171
2682.60971	0.05198
2681.57992	0.05205
2680.55013	0.05174
2679.52033	0.05170
2678.49054	0.05174
2677.46075	0.05149
2676.43096	0.05143
2675.40116	0.05158
2674.37137	0.05165
2673.34158	0.05170
2672.31179	0.05175
2671.28199	0.05188
2670.25220	0.05204
2669.22241	0.05208
2668.19262	0.05212
2667.16282	0.05216
2666.13303	0.05215
2665.10324	0.05216
2664.07345	0.05204
2663.04365	0.05205
2662.01386	0.05216
2660.98407	0.05220
2659.95427	0.05233
2658.92448	0.05238
2657.89469	0.05229
2656.86490	0.05222
2655.83510	0.05231
2654.80531	0.05226
2653.77552	0.05217
2652.74573	0.05222
2651.71593	0.05233
2650.68614	0.05217
2649.65635	0.05195
2648.62656	0.05200
2647.59676	0.05201
2646.56697	0.05191
2645.53718	0.05170
2644.50739	0.05161
2643.47759	0.05175
2642.44780	0.05175
2641.41801	0.05145
2640.38822	0.05122
2639.35842	0.05124
2638.32863	0.05127
2637.29884	0.05129
2636.26904	0.05127
2635.23925	0.05114
2634.20946	0.05081
2633.17967	0.05069
2632.14987	0.05066
2631.12008	0.05049
2630.09029	0.05036
2629.06050	0.05017
2628.03070	0.05007
2627.00091	0.05018
2625.97112	0.04999
2624.94133	0.04963
2623.91153	0.04950
2622.88174	0.04945
2621.85195	0.04947
2620.82216	0.04941
2619.79236	0.04930
2618.76257	0.04898
2617.73278	0.04861
2616.70299	0.04867
2615.67319	0.04885
2614.64340	0.04882
2613.61361	0.04844
2612.58382	0.04827
2611.55402	0.04852
2610.52423	0.04850
2609.49444	0.04812
2608.46464	0.04793
2607.43485	0.04799
2606.40506	0.04816
2605.37527	0.04838
2604.34547	0.04832
2603.31568	0.04826
2602.28589	0.04843
2601.25610	0.04835
2600.22630	0.04825
2599.19651	0.04833
2598.16672	0.04832
2597.13693	0.04840
2596.10713	0.04842
2595.07734	0.04839
2594.04755	0.04832
2593.01776	0.04820
2591.98796	0.04839
2590.95817	0.04880
2589.92838	0.04890
2588.89859	0.04849
2587.86879	0.04822
2586.83900	0.04823
2585.80921	0.04858
2584.77942	0.04891
2583.74962	0.04883
2582.71983	0.04881
2581.69004	0.04858
2580.66024	0.04835
2579.63045	0.04850
2578.60066	0.04835
2577.57087	0.04798
2576.54107	0.04811
2575.51128	0.04810
2574.48149	0.04777
2573.45170	0.04775
2572.42190	0.04776
2571.39211	0.04767
2570.36232	0.04755
2569.33253	0.04772
2568.30273	0.04767
2567.27294	0.04768
2566.24315	0.04811
2565.21336	0.04814
2564.18356	0.04801
2563.15377	0.04796
2562.12398	0.04780
2561.09419	0.04745
2560.06439	0.04710
2559.03460	0.04669
2558.00481	0.04639
2556.97502	0.04657
2555.94522	0.04687
2554.91543	0.04695
2553.88564	0.04676
2552.85584	0.04655
2551.82605	0.04606
2550.79626	0.04602
2549.76647	0.04656
2548.73667	0.04686
2547.70688	0.04686
2546.67709	0.04645
2545.64730	0.04628
2544.61750	0.04637
2543.58771	0.04641
2542.55792	0.04650
2541.52813	0.04646
2540.49833	0.04624
2539.46854	0.04617
2538.43875	0.04660
2537.40896	0.04690
2536.37916	0.04674
2535.34937	0.04653
2534.31958	0.04647
2533.28979	0.04631
2532.25999	0.04622
2531.23020	0.04657
2530.20041	0.04658
2529.17062	0.04622
2528.14082	0.04612
2527.11103	0.04587
2526.08124	0.04568
2525.05144	0.04608
2524.02165	0.04634
2522.99186	0.04619
2521.96207	0.04599
2520.93227	0.04590
2519.90248	0.04591
2518.87269	0.04584
2517.84290	0.04573
2516.81310	0.04591
2515.78331	0.04605
2514.75352	0.04562
2513.72373	0.04555
2512.69393	0.04585
2511.66414	0.04585
2510.63435	0.04603
2509.60456	0.04620
2508.57476	0.04586
2507.54497	0.04561
2506.51518	0.04575
2505.48539	0.04582
2504.45559	0.04553
2503.42580	0.04511
2502.39601	0.04520
2501.36621	0.04515
2500.33642	0.04504
2499.30663	0.04539
2498.27684	0.04537
2497.24704	0.04504
2496.21725	0.04475
2495.18746	0.04449
2494.15767	0.04452
2493.12787	0.04482
2492.09808	0.04474
2491.06829	0.04475
2490.03850	0.04482
2489.00870	0.04455
2487.97891	0.04443
2486.94912	0.04431
2485.91933	0.04438
2484.88953	0.04465
2483.85974	0.04468
2482.82995	0.04457
2481.80016	0.04456
2480.77036	0.04448
2479.74057	0.04449
2478.71078	0.04421
2477.68099	0.04389
2476.65119	0.04411
2475.62140	0.04423
2474.59161	0.04409
2473.56181	0.04409
2472.53202	0.04421
2471.50223	0.04409
2470.47244	0.04410
2469.44264	0.04433
2468.41285	0.04418
2467.38306	0.04361
2466.35327	0.04356
2465.32347	0.04392
2464.29368	0.04388
2463.26389	0.04383
2462.23410	0.04368
2461.20430	0.04369
2460.17451	0.04382
2459.14472	0.04362
2458.11493	0.04359
2457.08513	0.04382
2456.05534	0.04368
2455.02555	0.04349
2453.99576	0.04389
2452.96596	0.04420
2451.93617	0.04417
2450.90638	0.04406
2449.87659	0.04376
2448.84679	0.04374
2447.81700	0.04393
2446.78721	0.04404
2445.75741	0.04406
2444.72762	0.04384
2443.69783	0.04368
2442.66804	0.04342
2441.63824	0.04314
2440.60845	0.04289
2439.57866	0.04282
2438.54887	0.04292
2437.51907	0.04314
2436.48928	0.04355
2435.45949	0.04361
2434.42970	0.04372
2433.39990	0.04371
2432.37011	0.04341
2431.34032	0.04337
2430.31053	0.04367
2429.28073	0.04368
2428.25094	0.04325
2427.22115	0.04300
2426.19136	0.04290
2425.16156	0.04291
2424.13177	0.04281
2423.10198	0.04274
2422.07219	0.04317
2421.04239	0.04342
2420.01260	0.04304
2418.98281	0.04282
2417.95301	0.04311
2416.92322	0.04322
2415.89343	0.04313
2414.86364	0.04309
2413.83384	0.04311
2412.80405	0.04333
2411.77426	0.04329
2410.74447	0.04296
2409.71467	0.04337
2408.68488	0.04367
2407.65509	0.04331
2406.62530	0.04315
2405.59550	0.04330
2404.56571	0.04333
2403.53592	0.04314
2402.50613	0.04296
2401.47633	0.04315
2400.44654	0.04336
2399.41675	0.04302
2398.38696	0.04279
2397.35716	0.04304
2396.32737	0.04351
2395.29758	0.04365
2394.26778	0.04331
2393.23799	0.04300
2392.20820	0.04286
2391.17841	0.04302
2390.14861	0.04303
2389.11882	0.04273
2388.08903	0.04277
2387.05924	0.04301
2386.02944	0.04311
2384.99965	0.04318
2383.96986	0.04301
2382.94007	0.04288
2381.91027	0.04297
2380.88048	0.04303
2379.85069	0.04309
2378.82090	0.04296
2377.79110	0.04271
2376.76131	0.04279
2375.73152	0.04304
2374.70173	0.04293
2373.67193	0.04294
2372.64214	0.04335
2371.61235	0.04352
2370.58256	0.04357
2369.55276	0.04339
2368.52297	0.04299
2367.49318	0.04303
2366.46338	0.04344
2365.43359	0.04331
2364.40380	0.04275
2363.37401	0.04319
2362.34421	0.04426
2361.31442	0.04425
2360.28463	0.04355
2359.25484	0.04322
2358.22504	0.04320
2357.19525	0.04329
2356.16546	0.04338
2355.13567	0.04348
2354.10587	0.04358
2353.07608	0.04402
2352.04629	0.04431
2351.01650	0.04382
2349.98670	0.04348
2348.95691	0.04364
2347.92712	0.04380
2346.89733	0.04390
2345.86753	0.04372
2344.83774	0.04341
2343.80795	0.04371
2342.77816	0.04387
2341.74836	0.04353
2340.71857	0.04343
2339.68878	0.04352
2338.65898	0.04342
2337.62919	0.04339
2336.59940	0.04350
2335.56961	0.04322
2334.53981	0.04311
2333.51002	0.04320
2332.48023	0.04300
2331.45044	0.04299
2330.42064	0.04328
2329.39085	0.04344
2328.36106	0.04369
2327.33127	0.04400
2326.30147	0.04426
2325.27168	0.04453
2324.24189	0.04408
2323.21210	0.04315
2322.18230	0.04297
2321.15251	0.04315
2320.12272	0.04304
2319.09293	0.04298
2318.06313	0.04285
2317.03334	0.04255
2316.00355	0.04237
2314.97376	0.04233
2313.94396	0.04238
2312.91417	0.04248
2311.88438	0.04245
2310.85458	0.04230
2309.82479	0.04225
2308.79500	0.04199
2307.76521	0.04188
2306.73541	0.04202
2305.70562	0.04179
2304.67583	0.04159
2303.64604	0.04166
2302.61624	0.04180
2301.58645	0.04194
2300.55666	0.04195
2299.52687	0.04191
2298.49707	0.04171
2297.46728	0.04153
2296.43749	0.04154
2295.40770	0.04148
2294.37790	0.04143
2293.34811	0.04112
2292.31832	0.04112
2291.28853	0.04150
2290.25873	0.04144
2289.22894	0.04124
2288.19915	0.04104
2287.16936	0.04135
2286.13956	0.04177
2285.10977	0.04169
2284.07998	0.04118
2283.05018	0.04032
2282.02039	0.04001
2280.99060	0.04016
2279.96081	0.03972
2278.93101	0.03936
2277.90122	0.03956
2276.87143	0.03968
2275.84164	0.03975
2274.81184	0.03947
2273.78205	0.03943
2272.75226	0.03961
2271.72247	0.03940
2270.69267	0.03915
2269.66288	0.03912
2268.63309	0.03919
2267.60330	0.03919
2266.57350	0.03912
2265.54371	0.03842
2264.51392	0.03780
2263.48413	0.03774
2262.45433	0.03764
2261.42454	0.03745
2260.39475	0.03721
2259.36495	0.03715
2258.33516	0.03696
2257.30537	0.03682
2256.27558	0.03684
2255.24578	0.03690
2254.21599	0.03720
2253.18620	0.03705
2252.15641	0.03656
2251.12661	0.03689
2250.09682	0.03736
2249.06703	0.03733
2248.03724	0.03714
2247.00744	0.03683
2245.97765	0.03665
2244.94786	0.03689
2243.91807	0.03757
2242.88827	0.03752
2241.85848	0.03694
2240.82869	0.03704
2239.79890	0.03716
2238.76910	0.03697
2237.73931	0.03676
2236.70952	0.03707
2235.67973	0.03687
2234.64993	0.03546
2233.62014	0.03529
2232.59035	0.03633
2231.56055	0.03604
2230.53076	0.03510
2229.50097	0.03546
2228.47118	0.03555
2227.44138	0.03525
2226.41159	0.03561
2225.38180	0.03563
2224.35201	0.03609
2223.32221	0.03635
2222.29242	0.03631
2221.26263	0.03660
2220.23284	0.03647
2219.20304	0.03576
2218.17325	0.03478
2217.14346	0.03402
2216.11367	0.03369
2215.08387	0.03438
2214.05408	0.03435
2213.02429	0.03374
2211.99450	0.03389
2210.96470	0.03426
2209.93491	0.03499
2208.90512	0.03499
2207.87533	0.03433
2206.84553	0.03401
2205.81574	0.03432
2204.78595	0.03481
2203.75615	0.03489
2202.72636	0.03424
2201.69657	0.03381
2200.66678	0.03407
2199.63698	0.03430
2198.60719	0.03429
2197.57740	0.03311
2196.54761	0.03271
2195.51781	0.03441
2194.48802	0.03529
2193.45823	0.03457
2192.42844	0.03390
2191.39864	0.03353
2190.36885	0.03321
2189.33906	0.03251
2188.30927	0.03196
2187.27947	0.03235
2186.24968	0.03322
2185.21989	0.03390
2184.19010	0.03326
2183.16030	0.03250
2182.13051	0.03211
2181.10072	0.03182
2180.07093	0.03282
2179.04113	0.03326
2178.01134	0.03275
2176.98155	0.03240
2175.95175	0.03103
2174.92196	0.03065
2173.89217	0.03210
2172.86238	0.03223
2171.83258	0.03181
2170.80279	0.03248
2169.77300	0.03294
2168.74321	0.03333
2167.71341	0.03370
2166.68362	0.03238
2165.65383	0.03115
2164.62404	0.03075
2163.59424	0.03087
2162.56445	0.03206
2161.53466	0.03224
2160.50487	0.03051
2159.47507	0.02790
2158.44528	0.02716
2157.41549	0.02713
2156.38570	0.02776
2155.35590	0.02958
2154.32611	0.02994
2153.29632	0.03004
2152.26652	0.03082
2151.23673	0.03078
2150.20694	0.02988
2149.17715	0.03053
2148.14735	0.03179
2147.11756	0.03209
2146.08777	0.03146
2145.05798	0.03070
2144.02818	0.03127
2142.99839	0.03154
2141.96860	0.03227
2140.93881	0.03328
2139.90901	0.03313
2138.87922	0.03272
2137.84943	0.03249
2136.81964	0.03264
2135.78984	0.03297
2134.76005	0.03266
2133.73026	0.03241
2132.70047	0.03266
2131.67067	0.03289
2130.64088	0.03362
2129.61109	0.03381
2128.58130	0.03355
2127.55150	0.03374
2126.52171	0.03441
2125.49192	0.03476
2124.46212	0.03468
2123.43233	0.03518
2122.40254	0.03516
2121.37275	0.03497
2120.34295	0.03494
2119.31316	0.03486
2118.28337	0.03539
2117.25358	0.03566
2116.22378	0.03546
2115.19399	0.03561
2114.16420	0.03561
2113.13441	0.03527
2112.10461	0.03470
2111.07482	0.03417
2110.04503	0.03506
2109.01524	0.03606
2107.98544	0.03597
2106.95565	0.03546
2105.92586	0.03487
2104.89607	0.03479
2103.86627	0.03492
2102.83648	0.03458
2101.80669	0.03445
2100.77690	0.03501
2099.74710	0.03547
2098.71731	0.03501
2097.68752	0.03433
2096.65772	0.03431
2095.62793	0.03394
2094.59814	0.03351
2093.56835	0.03347
2092.53855	0.03404
2091.50876	0.03492
2090.47897	0.03463
2089.44918	0.03428
2088.41938	0.03480
2087.38959	0.03514
2086.35980	0.03523
2085.33001	0.03541
2084.30021	0.03540
2083.27042	0.03514
2082.24063	0.03495
2081.21084	0.03505
2080.18104	0.03473
2079.15125	0.03407
2078.12146	0.03397
2077.09167	0.03373
2076.06187	0.03368
2075.03208	0.03428
2074.00229	0.03455
2072.97250	0.03436
2071.94270	0.03362
2070.91291	0.03327
2069.88312	0.03365
2068.85332	0.03337
2067.82353	0.03352
2066.79374	0.03420
2065.76395	0.03373
2064.73415	0.03260
2063.70436	0.03248
2062.67457	0.03300
2061.64478	0.03319
2060.61498	0.03287
2059.58519	0.03239
2058.55540	0.03318
2057.52561	0.03404
2056.49581	0.03360
2055.46602	0.03283
2054.43623	0.03259
2053.40644	0.03293
2052.37664	0.03318
2051.34685	0.03344
2050.31706	0.03286
2049.28727	0.03107
2048.25747	0.03010
2047.22768	0.03073
2046.19789	0.03153
2045.16810	0.03144
2044.13830	0.03062
2043.10851	0.03005
2042.07872	0.03090
2041.04892	0.03171
2040.01913	0.03025
2038.98934	0.02892
2037.95955	0.02992
2036.92975	0.03050
2035.89996	0.02976
2034.87017	0.02887
2033.84038	0.02775
2032.81058	0.02741
2031.78079	0.02819
2030.75100	0.02819
2029.72121	0.02803
2028.69141	0.02940
2027.66162	0.02983
2026.63183	0.02925
2025.60204	0.02974
2024.57224	0.03061
2023.54245	0.03042
2022.51266	0.02935
2021.48287	0.02918
2020.45307	0.02868
2019.42328	0.02778
2018.39349	0.02766
2017.36369	0.02869
2016.33390	0.02956
2015.30411	0.02832
2014.27432	0.02809
2013.24452	0.02878
2012.21473	0.02851
2011.18494	0.02828
2010.15515	0.02791
2009.12535	0.02817
2008.09556	0.02855
2007.06577	0.02780
2006.03598	0.02770
2005.00618	0.02824
2003.97639	0.02852
2002.94660	0.02897
2001.91681	0.02964
2000.88701	0.02986
1999.85722	0.03010
1998.82743	0.03025
1997.79764	0.02961
1996.76784	0.02866
1995.73805	0.02847
1994.70826	0.03047
1993.67847	0.03142
1992.64867	0.03029
1991.61888	0.02982
1990.58909	0.02937
1989.55929	0.02940
1988.52950	0.03014
1987.49971	0.03016
1986.46992	0.02992
1985.44012	0.03005
1984.41033	0.03034
1983.38054	0.03054
1982.35075	0.02961
1981.32095	0.02920
1980.29116	0.03060
1979.26137	0.03097
1978.23158	0.02913
1977.20178	0.02775
1976.17199	0.02741
1975.14220	0.02738
1974.11241	0.02786
1973.08261	0.02863
1972.05282	0.02933
1971.02303	0.02852
1969.99324	0.02790
1968.96344	0.02871
1967.93365	0.02909
1966.90386	0.02917
1965.87407	0.02873
1964.84427	0.02798
1963.81448	0.02845
1962.78469	0.02891
1961.75489	0.02877
1960.72510	0.02872
1959.69531	0.02836
1958.66552	0.02890
1957.63572	0.02984
1956.60593	0.03035
1955.57614	0.03094
1954.54635	0.03151
1953.51655	0.03128
1952.48676	0.03036
1951.45697	0.03009
1950.42718	0.03021
1949.39738	0.03060
1948.36759	0.03100
1947.33780	0.03063
1946.30801	0.03048
1945.27821	0.03107
1944.24842	0.03132
1943.21863	0.03135
1942.18884	0.03210
1941.15904	0.03295
1940.12925	0.03254
1939.09946	0.03114
1938.06967	0.03080
1937.03987	0.03210
1936.01008	0.03321
1934.98029	0.03305
1933.95049	0.03282
1932.92070	0.03255
1931.89091	0.03220
1930.86112	0.03258
1929.83132	0.03349
1928.80153	0.03406
1927.77174	0.03345
1926.74195	0.03296
1925.71215	0.03281
1924.68236	0.03255
1923.65257	0.03291
1922.62278	0.03321
1921.59298	0.03339
1920.56319	0.03362
1919.53340	0.03352
1918.50361	0.03342
1917.47381	0.03373
1916.44402	0.03397
1915.41423	0.03398
1914.38444	0.03373
1913.35464	0.03374
1912.32485	0.03439
1911.29506	0.03510
1910.26527	0.03622
1909.23547	0.03737
1908.20568	0.03781
1907.17589	0.03773
1906.14609	0.03734
1905.11630	0.03697
1904.08651	0.03647
1903.05672	0.03534
1902.02692	0.03474
1900.99713	0.03536
1899.96734	0.03541
1898.93755	0.03465
1897.90775	0.03468
1896.87796	0.03521
1895.84817	0.03530
1894.81838	0.03569
1893.78858	0.03612
1892.75879	0.03606
1891.72900	0.03569
1890.69921	0.03506
1889.66941	0.03450
1888.63962	0.03440
1887.60983	0.03459
1886.58004	0.03469
1885.55024	0.03434
1884.52045	0.03397
1883.49066	0.03406
1882.46086	0.03407
1881.43107	0.03408
1880.40128	0.03423
1879.37149	0.03439
1878.34169	0.03419
1877.31190	0.03401
1876.28211	0.03423
1875.25232	0.03436
1874.22252	0.03408
1873.19273	0.03347
1872.16294	0.03348
1871.13315	0.03397
1870.10335	0.03410
1869.07356	0.03440
1868.04377	0.03477
1867.01398	0.03444
1865.98418	0.03417
1864.95439	0.03397
1863.92460	0.03401
1862.89481	0.03431
1861.86501	0.03442
1860.83522	0.03461
1859.80543	0.03473
1858.77564	0.03475
1857.74584	0.03467
1856.71605	0.03480
1855.68626	0.03503
1854.65646	0.03494
1853.62667	0.03473
1852.59688	0.03467
1851.56709	0.03486
1850.53729	0.03500
1849.50750	0.03505
1848.47771	0.03508
1847.44792	0.03519
1846.41812	0.03559
1845.38833	0.03576
1844.35854	0.03601
1843.32875	0.03649
1842.29895	0.03619
1841.26916	0.03578
1840.23937	0.03532
1839.20958	0.03466
1838.17978	0.03451
1837.14999	0.03484
1836.12020	0.03468
1835.09041	0.03428
1834.06061	0.03431
1833.03082	0.03446
1832.00103	0.03435
1830.97124	0.03404
1829.94144	0.03408
1828.91165	0.03431
1827.88186	0.03420
1826.85206	0.03415
1825.82227	0.03417
1824.79248	0.03418
1823.76269	0.03435
1822.73289	0.03433
1821.70310	0.03425
1820.67331	0.03446
1819.64352	0.03466
1818.61372	0.03453
1817.58393	0.03411
1816.55414	0.03391
1815.52435	0.03398
1814.49455	0.03437
1813.46476	0.03463
1812.43497	0.03465
1811.40518	0.03451
1810.37538	0.03431
1809.34559	0.03426
1808.31580	0.03417
1807.28601	0.03431
1806.25621	0.03429
1805.22642	0.03399
1804.19663	0.03388
1803.16684	0.03406
1802.13704	0.03413
1801.10725	0.03420
1800.07746	0.03450
1799.04766	0.03474
1798.01787	0.03483
1796.98808	0.03476
1795.95829	0.03490
1794.92849	0.03528
1793.89870	0.03535
1792.86891	0.03539
1791.83912	0.03548
1790.80932	0.03523
1789.77953	0.03503
1788.74974	0.03508
1787.71995	0.03489
1786.69015	0.03452
1785.66036	0.03445
1784.63057	0.03445
1783.60078	0.03426
1782.57098	0.03400
1781.54119	0.03387
1780.51140	0.03376
1779.48161	0.03401
1778.45181	0.03451
1777.42202	0.03477
1776.39223	0.03499
1775.36243	0.03553
1774.33264	0.03590
1773.30285	0.03593
1772.27306	0.03609
1771.24326	0.03600
1770.21347	0.03576
1769.18368	0.03534
1768.15389	0.03495
1767.12409	0.03498
1766.09430	0.03487
1765.06451	0.03473
1764.03472	0.03457
1763.00492	0.03447
1761.97513	0.03483
1760.94534	0.03564
1759.91555	0.03593
1758.88575	0.03574
1757.85596	0.03523
1756.82617	0.03479
1755.79638	0.03484
1754.76658	0.03448
1753.73679	0.03408
1752.70700	0.03412
1751.67721	0.03407
1750.64741	0.03399
1749.61762	0.03382
1748.58783	0.03382
1747.55803	0.03389
1746.52824	0.03377
1745.49845	0.03388
1744.46866	0.03396
1743.43886	0.03406
1742.40907	0.03426
1741.37928	0.03402
1740.34949	0.03370
1739.31969	0.03385
1738.28990	0.03367
1737.26011	0.03348
1736.23032	0.03363
1735.20052	0.03366
1734.17073	0.03384
1733.14094	0.03422
1732.11115	0.03413
1731.08135	0.03391
1730.05156	0.03388
1729.02177	0.03399
1727.99198	0.03404
1726.96218	0.03415
1725.93239	0.03428
1724.90260	0.03434
1723.87281	0.03449
1722.84301	0.03464
1721.81322	0.03477
1720.78343	0.03487
1719.75363	0.03493
1718.72384	0.03489
1717.69405	0.03505
1716.66426	0.03518
1715.63446	0.03490
1714.60467	0.03508
1713.57488	0.03537
1712.54509	0.03554
1711.51529	0.03545
1710.48550	0.03546
1709.45571	0.03573
1708.42592	0.03573
1707.39612	0.03546
1706.36633	0.03524
1705.33654	0.03529
1704.30675	0.03529
1703.27695	0.03532
1702.24716	0.03495
1701.21737	0.03437
1700.18758	0.03430
1699.15778	0.03501
1698.12799	0.03479
1697.09820	0.03447
1696.06841	0.03412
1695.03861	0.03414
1694.00882	0.03423
1692.97903	0.03433
1691.94923	0.03449
1690.91944	0.03424
1689.88965	0.03428
1688.85986	0.03446
1687.83006	0.03460
1686.80027	0.03459
1685.77048	0.03456
1684.74069	0.03402
1683.71089	0.03402
1682.68110	0.03436
1681.65131	0.03419
1680.62152	0.03397
1679.59172	0.03387
1678.56193	0.03377
1677.53214	0.03342
1676.50235	0.03321
1675.47255	0.03309
1674.44276	0.03353
1673.41297	0.03338
1672.38318	0.03319
1671.35338	0.03281
1670.32359	0.03275
1669.29380	0.03274
1668.26401	0.03272
1667.23421	0.03268
1666.20442	0.03245
1665.17463	0.03243
1664.14483	0.03226
1663.11504	0.03251
1662.08525	0.03250
1661.05546	0.03240
1660.02566	0.03201
1658.99587	0.03204
1657.96608	0.03209
1656.93629	0.03219
1655.90649	0.03201
1654.87670	0.03155
1653.84691	0.03139
1652.81712	0.03177
1651.78732	0.03276
1650.75753	0.03229
1649.72774	0.03244
1648.69795	0.03239
1647.66815	0.03306
1646.63836	0.03326
1645.60857	0.03393
1644.57878	0.03460
1643.54898	0.03533
1642.51919	0.03616
1641.48940	0.03696
1640.45960	0.03819
1639.42981	0.03873
1638.40002	0.03930
1637.37023	0.03926
1636.34043	0.04010
1635.31064	0.04170
1634.28085	0.04538
1633.25106	0.04738
1632.22126	0.05169
1631.19147	0.05786
1630.16168	0.06660
1629.13189	0.07728
1628.10209	0.09128
1627.07230	0.10924
1626.04251	0.12452
1625.01272	0.13745
1623.98292	0.14898
1622.95313	0.16318
1621.92334	0.17170
1620.89355	0.17678
1619.86375	0.17860
1618.83396	0.17605
1617.80417	0.16845
1616.77438	0.15698
1615.74458	0.14560
1614.71479	0.13985
1613.68500	0.13724
1612.65520	0.13945
1611.62541	0.14422
1610.59562	0.14876
1609.56583	0.15088
1608.53603	0.14960
1607.50624	0.14508
1606.47645	0.13847
1605.44666	0.13094
1604.41686	0.12292
1603.38707	0.11516
1602.35728	0.10746
1601.32749	0.10084
1600.29769	0.09481
1599.26790	0.08983
1598.23811	0.08585
1597.20832	0.08304
1596.17852	0.08111
1595.14873	0.08046
1594.11894	0.08113
1593.08915	0.08365
1592.05935	0.08805
1591.02956	0.09441
1589.99977	0.10301
1588.96998	0.11359
1587.94018	0.12512
1586.91039	0.13620
1585.88060	0.14615
1584.85080	0.15402
1583.82101	0.15924
1582.79122	0.16173
1581.76143	0.16197
1580.73163	0.16032
1579.70184	0.15690
1578.67205	0.15250
1577.64226	0.14705
1576.61246	0.14138
1575.58267	0.13503
1574.55288	0.12987
1573.52309	0.12414
1572.49329	0.11990
1571.46350	0.11673
1570.43371	0.11456
1569.40392	0.11291
1568.37412	0.11129
1567.34433	0.10873
1566.31454	0.10514
1565.28475	0.10077
1564.25495	0.09509
1563.22516	0.08975
1562.19537	0.08427
1561.16558	0.07989
1560.13578	0.07488
1559.10599	0.07201
1558.07620	0.06907
1557.04640	0.06682
1556.01661	0.06496
1554.98682	0.06303
1553.95703	0.06162
1552.92723	0.06032
1551.89744	0.05958
1550.86765	0.05860
1549.83786	0.05805
1548.80806	0.05711
1547.77827	0.05651
1546.74848	0.05557
1545.71869	0.05500
1544.68889	0.05467
1543.65910	0.05416
1542.62931	0.05344
1541.59952	0.05274
1540.56972	0.05200
1539.53993	0.05098
1538.51014	0.05120
1537.48035	0.05060
1536.45055	0.05020
1535.42076	0.04946
1534.39097	0.04892
1533.36117	0.04826
1532.33138	0.04808
1531.30159	0.04781
1530.27180	0.04757
1529.24200	0.04728
1528.21221	0.04703
1527.18242	0.04715
1526.15263	0.04695
1525.12283	0.04765
1524.09304	0.04788
1523.06325	0.04804
1522.03346	0.04822
1521.00366	0.04962
1519.97387	0.05091
1518.94408	0.05142
1517.91429	0.05185
1516.88449	0.05368
1515.85470	0.05586
1514.82491	0.05716
1513.79512	0.05875
1512.76532	0.06008
1511.73553	0.06193
1510.70574	0.06271
1509.67595	0.06304
1508.64615	0.06288
1507.61636	0.06248
1506.58657	0.06253
1505.55677	0.06270
1504.52698	0.06286
1503.49719	0.06282
1502.46740	0.06371
1501.43760	0.06566
1500.40781	0.06943
1499.37802	0.07591
1498.34823	0.08948
1497.31843	0.10116
1496.28864	0.11301
1495.25885	0.12037
1494.22906	0.11643
1493.19926	0.10809
1492.16947	0.09916
1491.13968	0.09063
1490.10989	0.08292
1489.08009	0.07663
1488.05030	0.07219
1487.02051	0.06766
1485.99072	0.06430
1484.96092	0.06169
1483.93113	0.05932
1482.90134	0.05747
1481.87155	0.05596
1480.84175	0.05500
1479.81196	0.05400
1478.78217	0.05345
1477.75237	0.05298
1476.72258	0.05313
1475.69279	0.05353
1474.66300	0.05396
1473.63320	0.05465
1472.60341	0.05664
1471.57362	0.06111
1470.54383	0.06683
1469.51403	0.07498
1468.48424	0.08655
1467.45445	0.09833
1466.42466	0.10714
1465.39486	0.11072
1464.36507	0.10989
1463.33528	0.10590
1462.30549	0.10269
1461.27569	0.10149
1460.24590	0.10192
1459.21611	0.10308
1458.18632	0.10394
1457.15652	0.10374
1456.12673	0.10256
1455.09694	0.10007
1454.06715	0.09678
1453.03735	0.09441
1452.00756	0.09381
1450.97777	0.09440
1449.94797	0.09562
1448.91818	0.09673
1447.88839	0.09817
1446.85860	0.09942
1445.82880	0.10084
1444.79901	0.10410
1443.76922	0.10861
1442.73943	0.11305
1441.70963	0.11665
1440.67984	0.11977
1439.65005	0.12251
1438.62026	0.12435
1437.59046	0.12515
1436.56067	0.12828
1435.53088	0.13235
1434.50109	0.13538
1433.47129	0.14093
1432.44150	0.14717
1431.41171	0.15220
1430.38192	0.15589
1429.35212	0.15938
1428.32233	0.16029
1427.29254	0.15895
1426.26275	0.15632
1425.23295	0.15223
1424.20316	0.14829
1423.17337	0.14433
1422.14357	0.14050
1421.11378	0.13649
1420.08399	0.13267
1419.05420	0.12887
1418.02440	0.12559
1416.99461	0.12187
1415.96482	0.11817
1414.93503	0.11506
1413.90523	0.11291
1412.87544	0.11180
1411.84565	0.11167
1410.81586	0.11305
1409.78606	0.11598
1408.75627	0.12055
1407.72648	0.12672
1406.69669	0.13428
1405.66689	0.14322
1404.63710	0.15509
1403.60731	0.16626
1402.57752	0.17557
1401.54772	0.18403
1400.51793	0.18974
1399.48814	0.19290
1398.45834	0.19306
1397.42855	0.18883
1396.39876	0.18133
1395.36897	0.17249
1394.33917	0.16261
1393.30938	0.15323
1392.27959	0.14424
1391.24980	0.13607
1390.22000	0.13014
1389.19021	0.12738
1388.16042	0.12988
1387.13063	0.13907
1386.10083	0.14475
1385.07104	0.14009
1384.04125	0.13063
1383.01146	0.12329
1381.98166	0.12082
1380.95187	0.12219
1379.92208	0.12437
1378.89229	0.12445
1377.86249	0.12370
1376.83270	0.12363
1375.80291	0.12150
1374.77312	0.11488
1373.74332	0.10520
1372.71353	0.09737
1371.68374	0.09318
1370.65394	0.09185
1369.62415	0.09332
1368.59436	0.09846
1367.56457	0.10828
1366.53477	0.12123
1365.50498	0.13215
1364.47519	0.13452
1363.44540	0.13154
1362.41560	0.13196
1361.38581	0.14204
1360.35602	0.16107
1359.32623	0.17327
1358.29643	0.16899
1357.26664	0.15594
1356.23685	0.14460
1355.20706	0.13752
1354.17726	0.13307
1353.14747	0.12995
1352.11768	0.12757
1351.08789	0.12657
1350.05809	0.12725
1349.02830	0.12895
1347.99851	0.13107
1346.96872	0.13264
1345.93892	0.13293
1344.90913	0.13152
1343.87934	0.12904
1342.84954	0.12548
1341.81975	0.12115
1340.78996	0.11605
1339.76017	0.11059
1338.73037	0.10562
1337.70058	0.10140
1336.67079	0.09865
1335.64100	0.09747
1334.61120	0.09798
1333.58141	0.10011
1332.55162	0.10298
1331.52183	0.10554
1330.49203	0.10763
1329.46224	0.10878
1328.43245	0.10905
1327.40266	0.10829
1326.37286	0.10654
1325.34307	0.10414
1324.31328	0.10139
1323.28349	0.09879
1322.25369	0.09685
1321.22390	0.09548
1320.19411	0.09417
1319.16432	0.09279
1318.13452	0.09088
1317.10473	0.08830
1316.07494	0.08536
1315.04514	0.08267
1314.01535	0.08036
1312.98556	0.07880
1311.95577	0.07839
1310.92597	0.07929
1309.89618	0.08130
1308.86639	0.08422
1307.83660	0.08836
1306.80680	0.09348
1305.77701	0.09997
1304.74722	0.10860
1303.71743	0.12000
1302.68763	0.13335
1301.65784	0.14594
1300.62805	0.15382
1299.59826	0.15443
1298.56846	0.14883
1297.53867	0.14113
1296.50888	0.13549
1295.47909	0.13287
1294.44929	0.13172
1293.41950	0.13008
1292.38971	0.12676
1291.35991	0.12206
1290.33012	0.11752
1289.30033	0.11477
1288.27054	0.11506
1287.24074	0.11860
1286.21095	0.12481
1285.18116	0.13262
1284.15137	0.14000
1283.12157	0.14547
1282.09178	0.14783
1281.06199	0.14614
1280.03220	0.14049
1279.00240	0.13213
1277.97261	0.12272
1276.94282	0.11382
1275.91303	0.10637
1274.88323	0.10059
1273.85344	0.09588
1272.82365	0.09170
1271.79386	0.08801
1270.76406	0.08460
1269.73427	0.08176
1268.70448	0.07953
1267.67469	0.07795
1266.64489	0.07683
1265.61510	0.07611
1264.58531	0.07551
1263.55551	0.07428
1262.52572	0.07277
1261.49593	0.07138
1260.46614	0.07004
1259.43634	0.06866
1258.40655	0.06746
1257.37676	0.06664
1256.34697	0.06618
1255.31717	0.06598
1254.28738	0.06606
1253.25759	0.06637
1252.22780	0.06703
1251.19800	0.06837
1250.16821	0.07053
1249.13842	0.07376
1248.10863	0.07822
1247.07883	0.08371
1246.04904	0.08984
1245.01925	0.09602
1243.98946	0.10167
1242.95966	0.10629
1241.92987	0.10970
1240.90008	0.11222
1239.87029	0.11511
1238.84049	0.11974
1237.81070	0.12665
1236.78091	0.13536
1235.75111	0.14478
1234.72132	0.15341
1233.69153	0.15934
1232.66174	0.16133
1231.63194	0.15912
1230.60215	0.15312
1229.57236	0.14486
1228.54257	0.13617
1227.51277	0.12816
1226.48298	0.12141
1225.45319	0.11591
1224.42340	0.11155
1223.39360	0.10804
1222.36381	0.10527
1221.33402	0.10362
1220.30423	0.10348
1219.27443	0.10475
1218.24464	0.10714
1217.21485	0.11072
1216.18506	0.11523
1215.15526	0.11964
1214.12547	0.12246
1213.09568	0.12264
1212.06589	0.11973
1211.03609	0.11437
1210.00630	0.10764
1208.97651	0.10097
1207.94671	0.09547
1206.91692	0.09127
1205.88713	0.08880
1204.85734	0.08837
1203.82754	0.09000
1202.79775	0.09419
1201.76796	0.10084
1200.73817	0.10904
1199.70837	0.11805
1198.67858	0.12789
1197.64879	0.13946
1196.61900	0.15249
1195.58920	0.16516
1194.55941	0.17445
1193.52962	0.17833
1192.49983	0.17717
1191.47003	0.17217
1190.44024	0.16456
1189.41045	0.15489
1188.38066	0.14387
1187.35086	0.13235
1186.32107	0.12135
1185.29128	0.11184
1184.26149	0.10378
1183.23169	0.09701
1182.20190	0.09156
1181.17211	0.08721
1180.14231	0.08361
1179.11252	0.08077
1178.08273	0.07849
1177.05294	0.07638
1176.02314	0.07440
1174.99335	0.07273
1173.96356	0.07147
1172.93377	0.07038
1171.90397	0.06948
1170.87418	0.06882
1169.84439	0.06816
1168.81460	0.06761
1167.78480	0.06732
1166.75501	0.06737
1165.72522	0.06783
1164.69543	0.06872
1163.66563	0.07022
1162.63584	0.07271
1161.60605	0.07655
1160.57626	0.08242
1159.54646	0.09153
1158.51667	0.10467
1157.48688	0.12207
1156.45708	0.14207
1155.42729	0.16045
1154.39750	0.17241
1153.36771	0.17393
1152.33791	0.16329
1151.30812	0.14447
1150.27833	0.12426
1149.24854	0.10700
1148.21874	0.09443
1147.18895	0.08579
1146.15916	0.07981
1145.12937	0.07594
1144.09957	0.07347
1143.06978	0.07191
1142.03999	0.07088
1141.01020	0.07021
1139.98040	0.07034
1138.95061	0.07134
1137.92082	0.07338
1136.89103	0.07695
1135.86123	0.08215
1134.83144	0.09004
1133.80165	0.10174
1132.77186	0.11843
1131.74206	0.14044
1130.71227	0.16553
1129.68248	0.18877
1128.65268	0.20448
1127.62289	0.21085
1126.59310	0.21040
1125.56331	0.20628
1124.53351	0.19843
1123.50372	0.18618
1122.47393	0.17076
1121.44414	0.15409
1120.41434	0.13875
1119.38455	0.12689
1118.35476	0.11850
1117.32497	0.11294
1116.29517	0.11006
1115.26538	0.10885
1114.23559	0.10822
1113.20580	0.10691
1112.17600	0.10422
1111.14621	0.10019
1110.11642	0.09572
1109.08663	0.09174
1108.05683	0.08866
1107.02704	0.08714
1105.99725	0.08733
1104.96746	0.08995
1103.93766	0.09595
1102.90787	0.10648
1101.87808	0.12182
1100.84828	0.13858
1099.81849	0.15125
1098.78870	0.15596
1097.75891	0.15212
1096.72911	0.14146
1095.69932	0.12743
1094.66953	0.11345
1093.63974	0.10153
1092.60994	0.09211
1091.58015	0.08493
1090.55036	0.07953
1089.52057	0.07542
1088.49077	0.07249
1087.46098	0.07042
1086.43119	0.06863
1085.40140	0.06702
1084.37160	0.06569
1083.34181	0.06459
1082.31202	0.06391
1081.28223	0.06362
1080.25243	0.06315
1079.22264	0.06252
1078.19285	0.06226
1077.16306	0.06217
1076.13326	0.06203
1075.10347	0.06222
1074.07368	0.06272
1073.04388	0.06334
1072.01409	0.06441
1070.98430	0.06583
1069.95451	0.06742
1068.92471	0.06925
1067.89492	0.07124
1066.86513	0.07338
1065.83534	0.07545
1064.80554	0.07794
1063.77575	0.08177
1062.74596	0.08735
1061.71617	0.09509
1060.68637	0.10573
1059.65658	0.11996
1058.62679	0.13824
1057.59700	0.16096
1056.56720	0.18731
1055.53741	0.21420
1054.50762	0.23667
1053.47783	0.25150
1052.44803	0.26004
1051.41824	0.26573
1050.38845	0.27089
1049.35866	0.27490
1048.32886	0.27522
1047.29907	0.27033
1046.26928	0.26066
1045.23948	0.24704
1044.20969	0.23049
1043.17990	0.21250
1042.15011	0.19454
1041.12031	0.17780
1040.09052	0.16359
1039.06073	0.15331
1038.03094	0.14719
1037.00114	0.14491
1035.97135	0.14562
1034.94156	0.14740
1033.91177	0.14888
1032.88197	0.14996
1031.85218	0.15376
1030.82239	0.16497
1029.79260	0.18495
1028.76280	0.21130
1027.73301	0.23801
1026.70322	0.25768
1025.67343	0.26451
1024.64363	0.25708
1023.61384	0.23973
1022.58405	0.21860
1021.55425	0.19798
1020.52446	0.17931
1019.49467	0.16323
1018.46488	0.14933
1017.43508	0.13719
1016.40529	0.12760
1015.37550	0.11986
1014.34571	0.11332
1013.31591	0.10811
1012.28612	0.10410
1011.25633	0.10152
1010.22654	0.10086
1009.19674	0.10290
1008.16695	0.10810
1007.13716	0.11581
1006.10737	0.12453
1005.07757	0.13340
1004.04778	0.14166
1003.01799	0.14696
1001.98820	0.14709
1000.95840	0.14337
999.92861	0.13923
998.89882	0.13599
997.86903	0.13258
996.83923	0.12874
995.80944	0.12571
994.77965	0.12392
993.74985	0.12252
992.72006	0.12017
991.69027	0.11610
990.66048	0.11061
989.63068	0.10448
988.60089	0.09887
987.57110	0.09445
986.54131	0.09085
985.51151	0.08770
984.48172	0.08495
983.45193	0.08283
982.42214	0.08125
981.39234	0.07988
980.36255	0.07877
979.33276	0.07819
978.30297	0.07824
977.27317	0.07835
976.24338	0.07834
975.21359	0.07836
974.18380	0.07805
973.15400	0.07743
972.12421	0.07687
971.09442	0.07659
970.06463	0.07622
969.03483	0.07598
968.00504	0.07566
966.97525	0.07534
965.94545	0.07564
964.91566	0.07637
963.88587	0.07812
962.85608	0.08074
961.82628	0.08261
960.79649	0.08207
959.76670	0.07891
958.73691	0.07478
957.70711	0.07090
956.67732	0.06790
955.64753	0.06594
954.61774	0.06411
953.58794	0.06201
952.55815	0.06040
951.52836	0.05936
950.49857	0.05908
949.46877	0.06083
948.43898	0.06478
947.40919	0.06664
946.37940	0.06427
945.34960	0.06195
944.31981	0.06129
943.29002	0.06171
942.26023	0.06327
941.23043	0.06520
940.20064	0.06705
939.17085	0.06906
938.14105	0.07067
937.11126	0.07136
936.08147	0.07184
935.05168	0.07272
934.02188	0.07488
932.99209	0.07794
931.96230	0.08025
930.93251	0.08036
929.90271	0.07794
928.87292	0.07508
927.84313	0.07345
926.81334	0.07270
925.78354	0.07294
924.75375	0.07505
923.72396	0.07951
922.69417	0.08567
921.66437	0.09032
920.63458	0.09108
919.60479	0.08810
918.57500	0.08226
917.54520	0.07558
916.51541	0.06970
915.48562	0.06529
914.45582	0.06211
913.42603	0.05961
912.39624	0.05753
911.36645	0.05591
910.33665	0.05470
909.30686	0.05390
908.27707	0.05388
907.24728	0.05424
906.21748	0.05485
905.18769	0.05653
904.15790	0.05924
903.12811	0.06310
902.09831	0.06962
901.06852	0.07841
900.03873	0.08722
899.00894	0.09303
897.97914	0.09277
896.94935	0.08718
895.91956	0.07968
894.88977	0.07306
893.85997	0.06908
892.83018	0.06955
891.80039	0.07682
890.77060	0.09019
889.74080	0.10039
888.71101	0.09687
887.68122	0.08328
886.65142	0.07075
885.62163	0.06350
884.59184	0.06021
883.56205	0.05883
882.53225	0.05841
881.50246	0.05889
880.47267	0.05980
879.44288	0.06174
878.41308	0.06564
877.38329	0.07242
876.35350	0.08326
875.32371	0.09742
874.29391	0.11330
873.26412	0.13114
872.23433	0.15105
871.20454	0.17012
870.17474	0.18472
869.14495	0.19091
868.11516	0.18670
867.08537	0.17566
866.05557	0.16359
865.02578	0.15341
863.99599	0.14338
862.96620	0.13182
861.93640	0.11976
860.90661	0.10871
859.87682	0.09963
858.84702	0.09295
857.81723	0.08991
856.78744	0.09195
855.75765	0.09930
854.72785	0.11006
853.69806	0.11918
852.66827	0.12499
851.63848	0.13245
850.60868	0.14569
849.57889	0.16177
848.54910	0.17142
847.51931	0.16937
846.48951	0.15903
845.45972	0.14587
844.42993	0.13363
843.40014	0.12364
842.37034	0.11589
841.34055	0.11070
840.31076	0.10827
839.28097	0.10860
838.25117	0.11310
837.22138	0.12359
836.19159	0.13873
835.16180	0.15348
834.13200	0.16374
833.10221	0.16942
832.07242	0.17124
831.04262	0.16749
830.01283	0.15724
828.98304	0.14187
827.95325	0.12422
826.92345	0.10850
825.89366	0.09736
824.86387	0.09132
823.83408	0.09162
822.80428	0.10365
821.77449	0.13567
820.74470	0.18411
819.71491	0.21427
818.68511	0.20412
817.65532	0.19302
816.62553	0.21755
815.59574	0.26100
814.56594	0.26965
813.53615	0.23200
812.50636	0.18671
811.47657	0.15288
810.44677	0.12974
809.41698	0.11392
808.38719	0.10303
807.35740	0.09525
806.32760	0.08948
805.29781	0.08493
804.26802	0.08149
803.23822	0.07882
802.20843	0.07617
801.17864	0.07406
800.14885	0.07251
799.11905	0.07096
798.08926	0.06928
797.05947	0.06800
796.02968	0.06705
794.99988	0.06620
793.97009	0.06488
792.94030	0.06374
791.91051	0.06312
790.88071	0.06216
789.85092	0.06147
788.82113	0.06093
787.79134	0.06033
786.76154	0.05966
785.73175	0.05933
784.70196	0.05866
783.67217	0.05777
782.64237	0.05760
781.61258	0.05753
780.58279	0.05794
779.55299	0.05808
778.52320	0.05808
777.49341	0.06013
776.46362	0.06600
775.43382	0.07511
774.40403	0.08425
773.37424	0.08723
772.34445	0.08074
771.31465	0.07152
770.28486	0.06548
769.25507	0.06329
768.22528	0.06262
767.19548	0.06136
766.16569	0.06059
765.13590	0.06057
764.10611	0.06097
763.07631	0.06211
762.04652	0.06440
761.01673	0.06776
759.98694	0.07113
758.95714	0.07274
757.92735	0.07200
756.89756	0.06952
755.86777	0.06618
754.83797	0.06329
753.80818	0.06133
752.77839	0.05987
751.74859	0.05894
750.71880	0.05873
749.68901	0.05847
748.65922	0.05852
747.62942	0.05901
746.59963	0.05938
745.56984	0.05982
744.54005	0.06032
743.51025	0.06123
742.48046	0.06289
741.45067	0.06511
740.42088	0.06800
739.39108	0.07278
738.36129	0.08115
737.33150	0.09425
736.30171	0.11130
735.27191	0.12825
734.24212	0.13487
733.21233	0.12771
732.18254	0.11799
731.15274	0.11427
730.12295	0.11762
729.09316	0.12537
728.06337	0.13175
727.03357	0.13032
726.00378	0.11992
724.97399	0.10632
723.94419	0.09537
722.91440	0.08783
721.88461	0.08297
720.85482	0.08083
719.82502	0.08057
718.79523	0.08243
717.76544	0.08739
716.73565	0.09543
715.70585	0.10382
714.67606	0.10877
713.64627	0.10876
712.61648	0.10599
711.58668	0.10218
710.55689	0.09725
709.52710	0.09235
708.49731	0.08868
707.46751	0.08635
706.43772	0.08487
705.40793	0.08504
704.37814	0.08657
703.34834	0.08880
702.31855	0.09145
701.28876	0.09390
700.25897	0.09685
699.22917	0.10031
698.19938	0.10313
697.16959	0.10427
696.13979	0.10295
695.11000	0.09862
694.08021	0.09325
693.05042	0.09007
692.02062	0.08957
690.99083	0.09245
689.96104	0.10009
688.93125	0.10995
687.90145	0.11652
686.87166	0.11554
685.84187	0.10926
684.81208	0.10280
683.78228	0.09793
682.75249	0.09491
681.72270	0.09382
680.69291	0.09386
679.66311	0.09458
678.63332	0.09631
677.60353	0.09813
676.57374	0.10119
675.54394	0.10596
674.51415	0.11201
673.48436	0.11866
672.45456	0.12491
671.42477	0.12948
670.39498	0.13086
669.36519	0.12936
668.33539	0.12550
667.30560	0.11976
666.27581	0.11658
665.24602	0.11523
664.21622	0.11683
663.18643	0.11975
662.15664	0.12304
661.12685	0.12516
660.09705	0.12482
659.06726	0.12113
658.03747	0.11477
657.00768	0.10787
655.97788	0.10298
654.94809	0.09955
653.91830	0.09612
652.88851	0.09462
651.85871	0.09337
650.82892	0.09167
649.79913	0.09016
648.76934	0.08862
647.73954	0.08799
646.70975	0.08765
645.67996	0.08703
644.65016	0.08633
643.62037	0.08532
642.59058	0.08416
641.56079	0.08343
640.53099	0.08329
639.50120	0.08321
638.47141	0.08231
637.44162	0.08146
636.41182	0.08148
635.38203	0.08182
634.35224	0.08171
633.32245	0.08150
632.29265	0.08126
631.26286	0.08131
630.23307	0.08173
629.20328	0.08208
628.17348	0.08276
627.14369	0.08392
626.11390	0.08623
625.08411	0.08946
624.05431	0.09317
623.02452	0.09762
621.99473	0.10288
620.96494	0.10835
619.93514	0.11237
618.90535	0.11365
617.87556	0.11219
616.84576	0.10749
615.81597	0.10056
614.78618	0.09341
613.75639	0.08771
612.72659	0.08343
611.69680	0.07974
610.66701	0.07885
609.63722	0.08138
608.60742	0.08619
607.57763	0.09479
606.54784	0.10678
605.51805	0.11904
604.48825	0.12934
603.45846	0.13645
602.42867	0.14132
601.39888	0.14467
600.36908	0.14621
599.33929	0.14670
598.30950	0.14649
597.27971	0.14672
596.24991	0.14677
595.22012	0.14631
594.19033	0.14619
593.16054	0.14504
592.13074	0.14317
591.10095	0.14106
590.07116	0.13777
589.04136	0.13356
588.01157	0.12952
586.98178	0.12699
585.95199	0.12460
584.92219	0.12166
583.89240	0.12090
582.86261	0.12181
581.83282	0.12229
580.80302	0.12212
579.77323	0.12398
578.74344	0.13192
577.71365	0.14615
576.68385	0.15921
575.65406	0.16310
574.62427	0.15762
573.59448	0.14673
572.56468	0.13575
571.53489	0.12714
570.50510	0.11984
569.47531	0.11321
568.44551	0.10782
567.41572	0.10490
566.38593	0.10520
565.35614	0.10867
564.32634	0.11379
563.29655	0.12000
562.26676	0.12693
561.23696	0.13533
560.20717	0.14437
559.17738	0.14939
558.14759	0.14687
557.11779	0.14057
556.08800	0.13518
555.05821	0.12919
554.02842	0.12302
552.99862	0.11986
551.96883	0.11995
550.93904	0.12349
549.90925	0.13087
548.87945	0.14009
547.84966	0.15014
546.81987	0.16004
545.79008	0.16569
544.76028	0.16455
543.73049	0.15989
542.70070	0.15409
541.67091	0.14794
540.64111	0.14184
539.61132	0.13598
538.58153	0.13171
537.55173	0.12887
536.52194	0.12838
535.49215	0.12912
534.46236	0.13207
533.43256	0.13978
532.40277	0.14992
531.37298	0.15899
530.34319	0.16213
529.31339	0.15839
528.28360	0.15027
527.25381	0.14166
526.22402	0.13357
525.19422	0.12522
524.16443	0.11845
523.13464	0.11317
522.10485	0.10881
521.07505	0.10416
520.04526	0.10053
519.01547	0.09882
517.98568	0.09753
516.95588	0.09621
515.92609	0.09456
514.89630	0.09282
513.86651	0.09121
512.83671	0.08967
511.80692	0.08908
510.77713	0.09048
509.74733	0.09189
508.71754	0.09269
507.68775	0.09419
506.65796	0.09574
505.62816	0.09681
504.59837	0.09685
503.56858	0.09517
502.53879	0.09140
501.50899	0.08765
500.47920	0.08501
499.44941	0.08259
498.41962	0.08147
497.38982	0.08146
496.36003	0.08240
495.33024	0.08439
494.30045	0.08742
493.27065	0.09009
492.24086	0.09262
491.21107	0.09421
490.18128	0.09337
489.15148	0.09055
488.12169	0.08742
487.09190	0.08462
486.06211	0.08172
485.03231	0.08055
484.00252	0.07876
482.97273	0.07705
481.94293	0.07717
480.91314	0.07644
479.88335	0.07506
478.85356	0.07423
477.82376	0.07250
476.79397	0.07067
475.76418	0.07013
474.73439	0.06973
473.70459	0.06997
472.67480	0.06875
471.64501	0.06657
470.61522	0.06687
469.58542	0.06778
468.55563	0.06632
467.52584	0.06391
466.49605	0.06365
465.46625	0.06401
464.43646	0.06356
463.40667	0.06333
462.37688	0.06273
461.34708	0.06140
460.31729	0.06208
459.28750	0.06304
458.25771	0.06300
457.22791	0.06325
456.19812	0.06416
455.16833	0.06532
454.13853	0.06399
453.10874	0.06231
452.07895	0.06350
451.04916	0.06304
450.01936	0.06101
448.98957	0.05922
447.95978	0.05750
446.92999	0.05806
445.90019	0.05777
444.87040	0.05651
443.84061	0.05687
442.81082	0.05889
441.78102	0.06040
440.75123	0.06137
439.72144	0.06419
438.69165	0.06644
437.66185	0.06636
436.63206	0.06338
435.60227	0.05947
434.57248	0.05769
433.54268	0.05752
432.51289	0.05802
431.48310	0.05805
430.45330	0.05643
429.42351	0.05494
428.39372	0.05487
427.36393	0.05523
426.33413	0.05444
425.30434	0.05229
424.27455	0.05262
423.24476	0.05378
422.21496	0.05230
421.18517	0.04868
420.15538	0.04813
419.12559	0.05244
418.09579	0.05190
417.06600	0.05117
416.03621	0.05260
415.00642	0.05438
413.97662	0.05642
412.94683	0.06032
411.91704	0.06677
410.88725	0.07386
409.85745	0.07950
408.82766	0.08106
407.79787	0.07650
406.76808	0.07045
405.73828	0.06666
404.70849	0.06473
403.67870	0.06107
402.64890	0.05814
401.61911	0.05933
400.58932	0.05746
399.55953	0.05380
