3998.68465	0.02431
3997.65486	0.02436
3996.62506	0.02426
3995.59527	0.02366
3994.56548	0.02333
3993.53569	0.02338
3992.50589	0.02371
3991.47610	0.02414
3990.44631	0.02442
3989.41652	0.02462
3988.38672	0.02451
3987.35693	0.02415
3986.32714	0.02391
3985.29735	0.02391
3984.26755	0.02391
3983.23776	0.02401
3982.20797	0.02396
3981.17817	0.02388
3980.14838	0.02394
3979.11859	0.02399
3978.08880	0.02405
3977.05900	0.02388
3976.02921	0.02385
3974.99942	0.02415
3973.96963	0.02447
3972.93983	0.02441
3971.91004	0.02416
3970.88025	0.02383
3969.85046	0.02386
3968.82066	0.02428
3967.79087	0.02445
3966.76108	0.02429
3965.73129	0.02403
3964.70149	0.02408
3963.67170	0.02416
3962.64191	0.02400
3961.61212	0.02372
3960.58232	0.02367
3959.55253	0.02397
3958.52274	0.02425
3957.49295	0.02410
3956.46315	0.02395
3955.43336	0.02413
3954.40357	0.02425
3953.37377	0.02423
3952.34398	0.02397
3951.31419	0.02377
3950.28440	0.02401
3949.25460	0.02447
3948.22481	0.02431
3947.19502	0.02413
3946.16523	0.02433
3945.13543	0.02430
3944.10564	0.02437
3943.07585	0.02431
3942.04606	0.02398
3941.01626	0.02398
3939.98647	0.02425
3938.95668	0.02420
3937.92689	0.02398
3936.89709	0.02413
3935.86730	0.02439
3934.83751	0.02435
3933.80772	0.02446
3932.77792	0.02477
3931.74813	0.02464
3930.71834	0.02436
3929.68855	0.02406
3928.65875	0.02408
3927.62896	0.02402
3926.59917	0.02399
3925.56937	0.02423
3924.53958	0.02449
3923.50979	0.02469
3922.48000	0.02447
3921.45020	0.02431
3920.42041	0.02431
3919.39062	0.02442
3918.36083	0.02447
3917.33103	0.02442
3916.30124	0.02461
3915.27145	0.02465
3914.24166	0.02438
3913.21186	0.02437
3912.18207	0.02425
3911.15228	0.02367
3910.12249	0.02352
3909.09269	0.02385
3908.06290	0.02397
3907.03311	0.02382
3906.00332	0.02381
3904.97352	0.02383
3903.94373	0.02355
3902.91394	0.02329
3901.88415	0.02364
3900.85435	0.02397
3899.82456	0.02361
3898.79477	0.02326
3897.76497	0.02343
3896.73518	0.02373
3895.70539	0.02375
3894.67560	0.02372
3893.64580	0.02374
3892.61601	0.02391
3891.58622	0.02411
3890.55643	0.02389
3889.52663	0.02381
3888.49684	0.02376
3887.46705	0.02372
3886.43726	0.02371
3885.40746	0.02355
3884.37767	0.02368
3883.34788	0.02361
3882.31809	0.02341
3881.28829	0.02342
3880.25850	0.02310
3879.22871	0.02320
3878.19892	0.02353
3877.16912	0.02360
3876.13933	0.02386
3875.10954	0.02387
3874.07974	0.02351
3873.04995	0.02355
3872.02016	0.02368
3870.99037	0.02352
3869.96057	0.02347
3868.93078	0.02374
3867.90099	0.02397
3866.87120	0.02404
3865.84140	0.02377
3864.81161	0.02319
3863.78182	0.02300
3862.75203	0.02306
3861.72223	0.02333
3860.69244	0.02396
3859.66265	0.02394
3858.63286	0.02365
3857.60306	0.02335
3856.57327	0.02307
3855.54348	0.02311
3854.51369	0.02292
3853.48389	0.02341
3852.45410	0.02394
3851.42431	0.02405
3850.39452	0.02397
3849.36472	0.02382
3848.33493	0.02343
3847.30514	0.02305
3846.27534	0.02297
3845.24555	0.02296
3844.21576	0.02311
3843.18597	0.02311
3842.15617	0.02337
3841.12638	0.02396
3840.09659	0.02413
3839.06680	0.02383
3838.03700	0.02360
3837.00721	0.02388
3835.97742	0.02383
3834.94763	0.02331
3833.91783	0.02325
3832.88804	0.02329
3831.85825	0.02305
3830.82846	0.02310
3829.79866	0.02311
3828.76887	0.02289
3827.73908	0.02264
3826.70929	0.02270
3825.67949	0.02305
3824.64970	0.02352
3823.61991	0.02358
3822.59012	0.02332
3821.56032	0.02324
3820.53053	0.02289
3819.50074	0.02290
3818.47094	0.02327
3817.44115	0.02336
3816.41136	0.02271
3815.38157	0.02257
3814.35177	0.02334
3813.32198	0.02352
3812.29219	0.02335
3811.26240	0.02347
3810.23260	0.02340
3809.20281	0.02321
3808.17302	0.02339
3807.14323	0.02311
3806.11343	0.02299
3805.08364	0.02293
3804.05385	0.02270
3803.02406	0.02273
3801.99426	0.02275
3800.96447	0.02287
3799.93468	0.02281
3798.90489	0.02308
3797.87509	0.02365
3796.84530	0.02367
3795.81551	0.02310
3794.78572	0.02298
3793.75592	0.02310
3792.72613	0.02309
3791.69634	0.02308
3790.66654	0.02303
3789.63675	0.02289
3788.60696	0.02281
3787.57717	0.02278
3786.54737	0.02266
3785.51758	0.02270
3784.48779	0.02281
3783.45800	0.02295
3782.42820	0.02298
3781.39841	0.02283
3780.36862	0.02287
3779.33883	0.02291
3778.30903	0.02280
3777.27924	0.02265
3776.24945	0.02236
3775.21966	0.02231
3774.18986	0.02268
3773.16007	0.02304
3772.13028	0.02318
3771.10049	0.02326
3770.07069	0.02327
3769.04090	0.02301
3768.01111	0.02282
3766.98132	0.02267
3765.95152	0.02259
3764.92173	0.02287
3763.89194	0.02304
3762.86214	0.02317
3761.83235	0.02319
3760.80256	0.02289
3759.77277	0.02271
3758.74297	0.02298
3757.71318	0.02310
3756.68339	0.02274
3755.65360	0.02261
3754.62380	0.02278
3753.59401	0.02272
3752.56422	0.02300
3751.53443	0.02353
3750.50463	0.02351
3749.47484	0.02270
3748.44505	0.02219
3747.41526	0.02290
3746.38546	0.02301
3745.35567	0.02280
3744.32588	0.02296
3743.29609	0.02287
3742.26629	0.02229
3741.23650	0.02199
3740.20671	0.02239
3739.17691	0.02230
3738.14712	0.02232
3737.11733	0.02268
3736.08754	0.02264
3735.05774	0.02245
3734.02795	0.02266
3732.99816	0.02246
3731.96837	0.02175
3730.93857	0.02184
3729.90878	0.02196
3728.87899	0.02201
3727.84920	0.02193
3726.81940	0.02165
3725.78961	0.02167
3724.75982	0.02213
3723.73003	0.02264
3722.70023	0.02265
3721.67044	0.02207
3720.64065	0.02154
3719.61086	0.02168
3718.58106	0.02243
3717.55127	0.02285
3716.52148	0.02251
3715.49169	0.02248
3714.46189	0.02261
3713.43210	0.02222
3712.40231	0.02213
3711.37251	0.02258
3710.34272	0.02252
3709.31293	0.02205
3708.28314	0.02221
3707.25334	0.02226
3706.22355	0.02213
3705.19376	0.02222
3704.16397	0.02213
3703.13417	0.02215
3702.10438	0.02219
3701.07459	0.02175
3700.04480	0.02154
3699.01500	0.02188
3697.98521	0.02199
3696.95542	0.02201
3695.92563	0.02212
3694.89583	0.02208
3693.86604	0.02215
3692.83625	0.02219
3691.80646	0.02187
3690.77666	0.02138
3689.74687	0.02163
3688.71708	0.02211
3687.68729	0.02193
3686.65749	0.02159
3685.62770	0.02152
3684.59791	0.02154
3683.56811	0.02194
3682.53832	0.02223
3681.50853	0.02214
3680.47874	0.02205
3679.44894	0.02199
3678.41915	0.02193
3677.38936	0.02205
3676.35957	0.02224
3675.32977	0.02155
3674.29998	0.02146
3673.27019	0.02181
3672.24040	0.02193
3671.21060	0.02169
3670.18081	0.02146
3669.15102	0.02145
3668.12123	0.02128
3667.09143	0.02161
3666.06164	0.02183
3665.03185	0.02175
3664.00206	0.02166
3662.97226	0.02173
3661.94247	0.02177
3660.91268	0.02189
3659.88289	0.02191
3658.85309	0.02200
3657.82330	0.02187
3656.79351	0.02108
3655.76371	0.02085
3654.73392	0.02132
3653.70413	0.02144
3652.67434	0.02134
3651.64454	0.02154
3650.61475	0.02167
3649.58496	0.02161
3648.55517	0.02149
3647.52537	0.02135
3646.49558	0.02142
3645.46579	0.02164
3644.43600	0.02172
3643.40620	0.02172
3642.37641	0.02203
3641.34662	0.02191
3640.31683	0.02178
3639.28703	0.02175
3638.25724	0.02163
3637.22745	0.02170
3636.19766	0.02141
3635.16786	0.02111
3634.13807	0.02125
3633.10828	0.02149
3632.07849	0.02150
3631.04869	0.02158
3630.01890	0.02154
3628.98911	0.02147
3627.95931	0.02149
3626.92952	0.02149
3625.89973	0.02153
3624.86994	0.02147
3623.84014	0.02151
3622.81035	0.02171
3621.78056	0.02195
3620.75077	0.02184
3619.72097	0.02140
3618.69118	0.02137
3617.66139	0.02159
3616.63160	0.02135
3615.60180	0.02122
3614.57201	0.02151
3613.54222	0.02159
3612.51243	0.02130
3611.48263	0.02127
3610.45284	0.02155
3609.42305	0.02141
3608.39326	0.02126
3607.36346	0.02164
3606.33367	0.02184
3605.30388	0.02178
3604.27408	0.02163
3603.24429	0.02152
3602.21450	0.02156
3601.18471	0.02168
3600.15491	0.02169
3599.12512	0.02139
3598.09533	0.02126
3597.06554	0.02160
3596.03574	0.02171
3595.00595	0.02163
3593.97616	0.02159
3592.94637	0.02160
3591.91657	0.02162
3590.88678	0.02153
3589.85699	0.02161
3588.82720	0.02162
3587.79740	0.02183
3586.76761	0.02222
3585.73782	0.02219
3584.70803	0.02203
3583.67823	0.02203
3582.64844	0.02218
3581.61865	0.02230
3580.58886	0.02228
3579.55906	0.02216
3578.52927	0.02227
3577.49948	0.02232
3576.46968	0.02210
3575.43989	0.02203
3574.41010	0.02202
3573.38031	0.02198
3572.35051	0.02193
3571.32072	0.02198
3570.29093	0.02227
3569.26114	0.02219
3568.23134	0.02186
3567.20155	0.02212
3566.17176	0.02218
3565.14197	0.02233
3564.11217	0.02270
3563.08238	0.02252
3562.05259	0.02243
3561.02280	0.02306
3559.99300	0.02345
3558.96321	0.02333
3557.93342	0.02343
3556.90363	0.02359
3555.87383	0.02364
3554.84404	0.02359
3553.81425	0.02388
3552.78446	0.02440
3551.75466	0.02472
3550.72487	0.02491
3549.69508	0.02522
3548.66528	0.02543
3547.63549	0.02556
3546.60570	0.02594
3545.57591	0.02615
3544.54611	0.02672
3543.51632	0.02745
3542.48653	0.02808
3541.45674	0.02899
3540.42694	0.02964
3539.39715	0.03021
3538.36736	0.03129
3537.33757	0.03243
3536.30777	0.03358
3535.27798	0.03489
3534.24819	0.03616
3533.21840	0.03792
3532.18860	0.04009
3531.15881	0.04257
3530.12902	0.04567
3529.09923	0.04915
3528.06943	0.05331
3527.03964	0.05848
3526.00985	0.06378
3524.98006	0.06918
3523.95026	0.07451
3522.92047	0.07889
3521.89068	0.08270
3520.86088	0.08569
3519.83109	0.08725
3518.80130	0.08785
3517.77151	0.08753
3516.74171	0.08613
3515.71192	0.08386
3514.68213	0.08067
3513.65234	0.07730
3512.62254	0.07387
3511.59275	0.07003
3510.56296	0.06673
3509.53317	0.06349
3508.50337	0.06071
3507.47358	0.05881
3506.44379	0.05665
3505.41400	0.05490
3504.38420	0.05332
3503.35441	0.05159
3502.32462	0.05012
3501.29483	0.04932
3500.26503	0.04900
3499.23524	0.04871
3498.20545	0.04809
3497.17565	0.04719
3496.14586	0.04703
3495.11607	0.04721
3494.08628	0.04718
3493.05648	0.04718
3492.02669	0.04734
3490.99690	0.04746
3489.96711	0.04762
3488.93731	0.04796
3487.90752	0.04813
3486.87773	0.04831
3485.84794	0.04869
3484.81814	0.04905
3483.78835	0.04923
3482.75856	0.04926
3481.72877	0.04972
3480.69897	0.05055
3479.66918	0.05128
3478.63939	0.05213
3477.60960	0.05272
3476.57980	0.05329
3475.55001	0.05412
3474.52022	0.05484
3473.49043	0.05570
3472.46063	0.05639
3471.43084	0.05692
3470.40105	0.05779
3469.37125	0.05871
3468.34146	0.05958
3467.31167	0.06064
3466.28188	0.06148
3465.25208	0.06233
3464.22229	0.06334
3463.19250	0.06449
3462.16271	0.06595
3461.13291	0.06706
3460.10312	0.06802
3459.07333	0.06902
3458.04354	0.06990
3457.01374	0.07096
3455.98395	0.07224
3454.95416	0.07335
3453.92437	0.07445
3452.89457	0.07561
3451.86478	0.07661
3450.83499	0.07770
3449.80520	0.07884
3448.77540	0.07974
3447.74561	0.08040
3446.71582	0.08166
3445.68603	0.08312
3444.65623	0.08430
3443.62644	0.08543
3442.59665	0.08635
3441.56685	0.08749
3440.53706	0.08824
3439.50727	0.08858
3438.47748	0.08940
3437.44768	0.09077
3436.41789	0.09221
3435.38810	0.09320
3434.35831	0.09388
3433.32851	0.09470
3432.29872	0.09585
3431.26893	0.09691
3430.23914	0.09774
3429.20934	0.09856
3428.17955	0.09932
3427.14976	0.10031
3426.11997	0.10140
3425.09017	0.10243
3424.06038	0.10391
3423.03059	0.10550
3422.00080	0.10689
3420.97100	0.10816
3419.94121	0.10977
3418.91142	0.11170
3417.88163	0.11361
3416.85183	0.11567
3415.82204	0.11741
3414.79225	0.11888
3413.76245	0.12068
3412.73266	0.12261
3411.70287	0.12414
3410.67308	0.12594
3409.64328	0.12774
3408.61349	0.12868
3407.58370	0.12929
3406.55391	0.12969
3405.52411	0.12969
3404.49432	0.12901
3403.46453	0.12779
3402.43474	0.12598
3401.40494	0.12333
3400.37515	0.12093
3399.34536	0.11887
3398.31557	0.11618
3397.28577	0.11289
3396.25598	0.10941
3395.22619	0.10602
3394.19640	0.10257
3393.16660	0.09936
3392.13681	0.09638
3391.10702	0.09344
3390.07723	0.09064
3389.04743	0.08800
3388.01764	0.08555
3386.98785	0.08339
3385.95805	0.08143
3384.92826	0.07927
3383.89847	0.07711
3382.86868	0.07517
3381.83888	0.07343
3380.80909	0.07202
3379.77930	0.07065
3378.74951	0.06895
3377.71971	0.06726
3376.68992	0.06619
3375.66013	0.06537
3374.63034	0.06418
3373.60054	0.06269
3372.57075	0.06160
3371.54096	0.06081
3370.51117	0.05959
3369.48137	0.05841
3368.45158	0.05763
3367.42179	0.05705
3366.39200	0.05615
3365.36220	0.05514
3364.33241	0.05423
3363.30262	0.05342
3362.27282	0.05278
3361.24303	0.05222
3360.21324	0.05168
3359.18345	0.05086
3358.15365	0.05004
3357.12386	0.04917
3356.09407	0.04851
3355.06428	0.04806
3354.03448	0.04754
3353.00469	0.04717
3351.97490	0.04672
3350.94511	0.04624
3349.91531	0.04558
3348.88552	0.04486
3347.85573	0.04436
3346.82594	0.04397
3345.79614	0.04341
3344.76635	0.04287
3343.73656	0.04271
3342.70677	0.04244
3341.67697	0.04192
3340.64718	0.04138
3339.61739	0.04124
3338.58760	0.04127
3337.55780	0.04092
3336.52801	0.04034
3335.49822	0.03987
3334.46842	0.03948
3333.43863	0.03905
3332.40884	0.03890
3331.37905	0.03863
3330.34925	0.03786
3329.31946	0.03748
3328.28967	0.03750
3327.25988	0.03748
3326.23008	0.03740
3325.20029	0.03708
3324.17050	0.03667
3323.14071	0.03631
3322.11091	0.03595
3321.08112	0.03564
3320.05133	0.03566
3319.02154	0.03572
3317.99174	0.03549
3316.96195	0.03525
3315.93216	0.03493
3314.90237	0.03474
3313.87257	0.03475
3312.84278	0.03459
3311.81299	0.03416
3310.78320	0.03385
3309.75340	0.03375
3308.72361	0.03350
3307.69382	0.03346
3306.66402	0.03348
3305.63423	0.03331
3304.60444	0.03306
3303.57465	0.03278
3302.54485	0.03261
3301.51506	0.03238
3300.48527	0.03218
3299.45548	0.03191
3298.42568	0.03176
3297.39589	0.03199
3296.36610	0.03203
3295.33631	0.03162
3294.30651	0.03113
3293.27672	0.03093
3292.24693	0.03108
3291.21714	0.03096
3290.18734	0.03044
3289.15755	0.03020
3288.12776	0.03010
3287.09797	0.03010
3286.06817	0.03002
3285.03838	0.02988
3284.00859	0.02961
3282.97880	0.02944
3281.94900	0.02968
3280.91921	0.02954
3279.88942	0.02956
3278.85962	0.02966
3277.82983	0.02917
3276.80004	0.02879
3275.77025	0.02882
3274.74045	0.02893
3273.71066	0.02884
3272.68087	0.02864
3271.65108	0.02861
3270.62128	0.02859
3269.59149	0.02833
3268.56170	0.02824
3267.53191	0.02833
3266.50211	0.02830
3265.47232	0.02824
3264.44253	0.02820
3263.41274	0.02834
3262.38294	0.02858
3261.35315	0.02845
3260.32336	0.02824
3259.29357	0.02812
3258.26377	0.02796
3257.23398	0.02806
3256.20419	0.02804
3255.17439	0.02781
3254.14460	0.02775
3253.11481	0.02774
3252.08502	0.02761
3251.05522	0.02754
3250.02543	0.02768
3248.99564	0.02769
3247.96585	0.02760
3246.93605	0.02751
3245.90626	0.02739
3244.87647	0.02723
3243.84668	0.02705
3242.81688	0.02722
3241.78709	0.02730
3240.75730	0.02698
3239.72751	0.02677
3238.69771	0.02684
3237.66792	0.02709
3236.63813	0.02714
3235.60834	0.02698
3234.57854	0.02697
3233.54875	0.02705
3232.51896	0.02711
3231.48917	0.02698
3230.45937	0.02672
3229.42958	0.02654
3228.39979	0.02639
3227.36999	0.02645
3226.34020	0.02670
3225.31041	0.02685
3224.28062	0.02679
3223.25082	0.02660
3222.22103	0.02663
3221.19124	0.02676
3220.16145	0.02666
3219.13165	0.02664
3218.10186	0.02690
3217.07207	0.02681
3216.04228	0.02652
3215.01248	0.02646
3213.98269	0.02633
3212.95290	0.02634
3211.92311	0.02649
3210.89331	0.02648
3209.86352	0.02616
3208.83373	0.02609
3207.80394	0.02643
3206.77414	0.02636
3205.74435	0.02624
3204.71456	0.02641
3203.68477	0.02656
3202.65497	0.02676
3201.62518	0.02653
3200.59539	0.02614
3199.56559	0.02641
3198.53580	0.02681
3197.50601	0.02680
3196.47622	0.02676
3195.44642	0.02668
3194.41663	0.02611
3193.38684	0.02575
3192.35705	0.02608
3191.32725	0.02627
3190.29746	0.02610
3189.26767	0.02592
3188.23788	0.02578
3187.20808	0.02580
3186.17829	0.02589
3185.14850	0.02589
3184.11871	0.02581
3183.08891	0.02582
3182.05912	0.02601
3181.02933	0.02602
3179.99954	0.02593
3178.96974	0.02583
3177.93995	0.02543
3176.91016	0.02510
3175.88037	0.02535
3174.85057	0.02558
3173.82078	0.02552
3172.79099	0.02541
3171.76119	0.02542
3170.73140	0.02556
3169.70161	0.02559
3168.67182	0.02564
3167.64202	0.02548
3166.61223	0.02531
3165.58244	0.02526
3164.55265	0.02527
3163.52285	0.02536
3162.49306	0.02519
3161.46327	0.02515
3160.43348	0.02516
3159.40368	0.02506
3158.37389	0.02536
3157.34410	0.02575
3156.31431	0.02555
3155.28451	0.02531
3154.25472	0.02551
3153.22493	0.02572
3152.19514	0.02562
3151.16534	0.02533
3150.13555	0.02518
3149.10576	0.02508
3148.07597	0.02514
3147.04617	0.02526
3146.01638	0.02512
3144.98659	0.02499
3143.95679	0.02510
3142.92700	0.02526
3141.89721	0.02549
3140.86742	0.02576
3139.83762	0.02560
3138.80783	0.02515
3137.77804	0.02491
3136.74825	0.02486
3135.71845	0.02501
3134.68866	0.02545
3133.65887	0.02591
3132.62908	0.02590
3131.59928	0.02554
3130.56949	0.02547
3129.53970	0.02545
3128.50991	0.02534
3127.48011	0.02534
3126.45032	0.02534
3125.42053	0.02527
3124.39074	0.02522
3123.36094	0.02533
3122.33115	0.02540
3121.30136	0.02538
3120.27156	0.02549
3119.24177	0.02574
3118.21198	0.02563
3117.18219	0.02539
3116.15239	0.02535
3115.12260	0.02539
3114.09281	0.02542
3113.06302	0.02543
3112.03322	0.02551
3111.00343	0.02551
3109.97364	0.02570
3108.94385	0.02587
3107.91405	0.02589
3106.88426	0.02560
3105.85447	0.02527
3104.82468	0.02526
3103.79488	0.02517
3102.76509	0.02525
3101.73530	0.02543
3100.70551	0.02538
3099.67571	0.02507
3098.64592	0.02497
3097.61613	0.02530
3096.58634	0.02560
3095.55654	0.02555
3094.52675	0.02561
3093.49696	0.02577
3092.46716	0.02591
3091.43737	0.02602
3090.40758	0.02577
3089.37779	0.02565
3088.34799	0.02572
3087.31820	0.02586
3086.28841	0.02598
3085.25862	0.02613
3084.22882	0.02647
3083.19903	0.02693
3082.16924	0.02750
3081.13945	0.02824
3080.10965	0.02944
3079.07986	0.03111
3078.05007	0.03340
3077.02028	0.03596
3075.99048	0.03825
3074.96069	0.03999
3073.93090	0.04085
3072.90111	0.04020
3071.87131	0.03830
3070.84152	0.03614
3069.81173	0.03404
3068.78194	0.03222
3067.75214	0.03066
3066.72235	0.02952
3065.69256	0.02861
3064.66276	0.02808
3063.63297	0.02817
3062.60318	0.02796
3061.57339	0.02746
3060.54359	0.02726
3059.51380	0.02712
3058.48401	0.02681
3057.45422	0.02664
3056.42442	0.02665
3055.39463	0.02656
3054.36484	0.02643
3053.33505	0.02650
3052.30525	0.02666
3051.27546	0.02655
3050.24567	0.02655
3049.21588	0.02661
3048.18608	0.02663
3047.15629	0.02682
3046.12650	0.02684
3045.09671	0.02704
3044.06691	0.02742
3043.03712	0.02754
3042.00733	0.02747
3040.97754	0.02756
3039.94774	0.02778
3038.91795	0.02787
3037.88816	0.02802
3036.85836	0.02845
3035.82857	0.02902
3034.79878	0.02923
3033.76899	0.02951
3032.73919	0.02997
3031.70940	0.03001
3030.67961	0.02992
3029.64982	0.02991
3028.62002	0.02954
3027.59023	0.02882
3026.56044	0.02840
3025.53065	0.02815
3024.50085	0.02790
3023.47106	0.02779
3022.44127	0.02752
3021.41148	0.02725
3020.38168	0.02716
3019.35189	0.02699
3018.32210	0.02701
3017.29231	0.02713
3016.26251	0.02706
3015.23272	0.02717
3014.20293	0.02740
3013.17313	0.02742
3012.14334	0.02725
3011.11355	0.02740
3010.08376	0.02776
3009.05396	0.02794
3008.02417	0.02817
3006.99438	0.02830
3005.96459	0.02839
3004.93479	0.02867
3003.90500	0.02873
3002.87521	0.02859
3001.84542	0.02877
3000.81562	0.02918
2999.78583	0.02968
2998.75604	0.03004
2997.72625	0.03013
2996.69645	0.03029
2995.66666	0.03041
2994.63687	0.03049
2993.60708	0.03095
2992.57728	0.03143
2991.54749	0.03196
2990.51770	0.03276
2989.48791	0.03341
2988.45811	0.03382
2987.42832	0.03416
2986.39853	0.03436
2985.36873	0.03453
2984.33894	0.03483
2983.30915	0.03533
2982.27936	0.03616
2981.24956	0.03711
2980.21977	0.03823
2979.18998	0.03968
2978.16019	0.04113
2977.13039	0.04265
2976.10060	0.04475
2975.07081	0.04771
2974.04102	0.05096
2973.01122	0.05472
2971.98143	0.05885
2970.95164	0.06277
2969.92185	0.06686
2968.89205	0.07086
2967.86226	0.07442
2966.83247	0.07728
2965.80268	0.07926
2964.77288	0.08007
2963.74309	0.08014
2962.71330	0.07995
2961.68351	0.07944
2960.65371	0.07902
2959.62392	0.07854
2958.59413	0.07711
2957.56433	0.07490
2956.53454	0.07265
2955.50475	0.07047
2954.47496	0.06837
2953.44516	0.06627
2952.41537	0.06445
2951.38558	0.06327
2950.35579	0.06251
2949.32599	0.06218
2948.29620	0.06278
2947.26641	0.06446
2946.23662	0.06693
2945.20682	0.07035
2944.17703	0.07428
2943.14724	0.07814
2942.11745	0.08161
2941.08765	0.08425
2940.05786	0.08649
2939.02807	0.08873
2937.99828	0.09118
2936.96848	0.09422
2935.93869	0.09743
2934.90890	0.10079
2933.87911	0.10489
2932.84931	0.10921
2931.81952	0.11319
2930.78973	0.11733
2929.75993	0.12192
2928.73014	0.12635
2927.70035	0.13074
2926.67056	0.13486
2925.64076	0.13766
2924.61097	0.13926
2923.58118	0.13959
2922.55139	0.13900
2921.52159	0.13803
2920.49180	0.13696
2919.46201	0.13615
2918.43222	0.13563
2917.40242	0.13521
2916.37263	0.13476
2915.34284	0.13392
2914.31305	0.13248
2913.28325	0.13061
2912.25346	0.12806
2911.22367	0.12474
2910.19388	0.12102
2909.16408	0.11731
2908.13429	0.11356
2907.10450	0.11008
2906.07471	0.10658
2905.04491	0.10300
2904.01512	0.10020
2902.98533	0.09772
2901.95553	0.09541
2900.92574	0.09359
2899.89595	0.09222
2898.86616	0.09058
2897.83636	0.08820
2896.80657	0.08556
2895.77678	0.08304
2894.74699	0.08060
2893.71719	0.07806
2892.68740	0.07592
2891.65761	0.07427
2890.62782	0.07275
2889.59802	0.07144
2888.56823	0.07059
2887.53844	0.06994
2886.50865	0.06934
2885.47885	0.06888
2884.44906	0.06849
2883.41927	0.06843
2882.38948	0.06836
2881.35968	0.06807
2880.32989	0.06814
2879.30010	0.06857
2878.27030	0.06903
2877.24051	0.06974
2876.21072	0.07089
2875.18093	0.07215
2874.15113	0.07335
2873.12134	0.07464
2872.09155	0.07573
2871.06176	0.07636
2870.03196	0.07630
2869.00217	0.07528
2867.97238	0.07382
2866.94259	0.07263
2865.91279	0.07213
2864.88300	0.07221
2863.85321	0.07322
2862.82342	0.07570
2861.79362	0.07943
2860.76383	0.08412
2859.73404	0.08996
2858.70425	0.09713
2857.67445	0.10455
2856.64466	0.11098
2855.61487	0.11508
2854.58508	0.11566
2853.55528	0.11267
2852.52549	0.10725
2851.49570	0.10086
2850.46590	0.09428
2849.43611	0.08792
2848.40632	0.08189
2847.37653	0.07641
2846.34673	0.07146
2845.31694	0.06723
2844.28715	0.06352
2843.25736	0.06028
2842.22756	0.05805
2841.19777	0.05615
2840.16798	0.05440
2839.13819	0.05312
2838.10839	0.05234
2837.07860	0.05206
2836.04881	0.05236
2835.01902	0.05355
2833.98922	0.05575
2832.95943	0.05889
2831.92964	0.06298
2830.89985	0.06769
2829.87005	0.07166
2828.84026	0.07363
2827.81047	0.07268
2826.78068	0.06913
2825.75088	0.06439
2824.72109	0.05937
2823.69130	0.05495
2822.66150	0.05151
2821.63171	0.04891
2820.60192	0.04690
2819.57213	0.04524
2818.54233	0.04396
2817.51254	0.04294
2816.48275	0.04197
2815.45296	0.04109
2814.42316	0.04026
2813.39337	0.03961
2812.36358	0.03922
2811.33379	0.03867
2810.30399	0.03811
2809.27420	0.03773
2808.24441	0.03748
2807.21462	0.03730
2806.18482	0.03701
2805.15503	0.03672
2804.12524	0.03634
2803.09545	0.03582
2802.06565	0.03528
2801.03586	0.03492
2800.00607	0.03473
2798.97628	0.03453
2797.94648	0.03455
2796.91669	0.03441
2795.88690	0.03420
2794.85710	0.03414
2793.82731	0.03383
2792.79752	0.03365
2791.76773	0.03358
2790.73793	0.03327
2789.70814	0.03301
2788.67835	0.03294
2787.64856	0.03285
2786.61876	0.03268
2785.58897	0.03250
2784.55918	0.03234
2783.52939	0.03214
2782.49959	0.03187
2781.46980	0.03184
2780.44001	0.03191
2779.41022	0.03174
2778.38042	0.03153
2777.35063	0.03138
2776.32084	0.03121
2775.29105	0.03104
2774.26125	0.03092
2773.23146	0.03095
2772.20167	0.03104
2771.17188	0.03088
2770.14208	0.03064
2769.11229	0.03049
2768.08250	0.03055
2767.05270	0.03076
2766.02291	0.03063
2764.99312	0.03031
2763.96333	0.03030
2762.93353	0.03034
2761.90374	0.03018
2760.87395	0.03000
2759.84416	0.02988
2758.81436	0.02983
2757.78457	0.02979
2756.75478	0.02965
2755.72499	0.02954
2754.69519	0.02947
2753.66540	0.02928
2752.63561	0.02915
2751.60582	0.02924
2750.57602	0.02926
2749.54623	0.02902
2748.51644	0.02889
2747.48665	0.02922
2746.45685	0.02945
2745.42706	0.02934
2744.39727	0.02932
2743.36747	0.02948
2742.33768	0.02960
2741.30789	0.02970
2740.27810	0.02995
2739.24830	0.03003
2738.21851	0.02977
2737.18872	0.02973
2736.15893	0.02996
2735.12913	0.03025
2734.09934	0.03053
2733.06955	0.03078
2732.03976	0.03103
2731.00996	0.03132
2729.98017	0.03164
2728.95038	0.03199
2727.92059	0.03209
2726.89079	0.03196
2725.86100	0.03178
2724.83121	0.03150
2723.80142	0.03129
2722.77162	0.03096
2721.74183	0.03053
2720.71204	0.03017
2719.68225	0.02992
2718.65245	0.02985
2717.62266	0.02972
2716.59287	0.02960
2715.56307	0.02947
2714.53328	0.02931
2713.50349	0.02923
2712.47370	0.02907
2711.44390	0.02896
2710.41411	0.02896
2709.38432	0.02901
2708.35453	0.02882
2707.32473	0.02839
2706.29494	0.02833
2705.26515	0.02831
2704.23536	0.02817
2703.20556	0.02832
2702.17577	0.02854
2701.14598	0.02848
2700.11619	0.02822
2699.08639	0.02810
2698.05660	0.02807
2697.02681	0.02804
2695.99702	0.02812
2694.96722	0.02826
2693.93743	0.02829
2692.90764	0.02819
2691.87785	0.02811
2690.84805	0.02803
2689.81826	0.02815
2688.78847	0.02836
2687.75867	0.02822
2686.72888	0.02814
2685.69909	0.02817
2684.66930	0.02814
2683.63950	0.02826
2682.60971	0.02835
2681.57992	0.02841
2680.55013	0.02840
2679.52033	0.02845
2678.49054	0.02853
2677.46075	0.02853
2676.43096	0.02872
2675.40116	0.02884
2674.37137	0.02890
2673.34158	0.02902
2672.31179	0.02899
2671.28199	0.02890
2670.25220	0.02879
2669.22241	0.02875
2668.19262	0.02887
2667.16282	0.02884
2666.13303	0.02889
2665.10324	0.02890
2664.07345	0.02883
2663.04365	0.02910
2662.01386	0.02927
2660.98407	0.02900
2659.95427	0.02879
2658.92448	0.02894
2657.89469	0.02900
2656.86490	0.02879
2655.83510	0.02860
2654.80531	0.02854
2653.77552	0.02853
2652.74573	0.02849
2651.71593	0.02834
2650.68614	0.02825
2649.65635	0.02829
2648.62656	0.02823
2647.59676	0.02819
2646.56697	0.02814
2645.53718	0.02801
2644.50739	0.02785
2643.47759	0.02779
2642.44780	0.02782
2641.41801	0.02768
2640.38822	0.02757
2639.35842	0.02752
2638.32863	0.02742
2637.29884	0.02745
2636.26904	0.02756
2635.23925	0.02756
2634.20946	0.02757
2633.17967	0.02758
2632.14987	0.02735
2631.12008	0.02723
2630.09029	0.02743
2629.06050	0.02758
2628.03070	0.02747
2627.00091	0.02736
2625.97112	0.02745
2624.94133	0.02742
2623.91153	0.02736
2622.88174	0.02732
2621.85195	0.02720
2620.82216	0.02708
2619.79236	0.02686
2618.76257	0.02675
2617.73278	0.02685
2616.70299	0.02703
2615.67319	0.02702
2614.64340	0.02680
2613.61361	0.02664
2612.58382	0.02664
2611.55402	0.02686
2610.52423	0.02690
2609.49444	0.02681
2608.46464	0.02692
2607.43485	0.02708
2606.40506	0.02689
2605.37527	0.02638
2604.34547	0.02627
2603.31568	0.02652
2602.28589	0.02673
2601.25610	0.02679
2600.22630	0.02673
2599.19651	0.02672
2598.16672	0.02656
2597.13693	0.02620
2596.10713	0.02611
2595.07734	0.02640
2594.04755	0.02675
2593.01776	0.02689
2591.98796	0.02661
2590.95817	0.02646
2589.92838	0.02636
2588.89859	0.02616
2587.86879	0.02613
2586.83900	0.02619
2585.80921	0.02651
2584.77942	0.02644
2583.74962	0.02599
2582.71983	0.02599
2581.69004	0.02639
2580.66024	0.02659
2579.63045	0.02649
2578.60066	0.02636
2577.57087	0.02608
2576.54107	0.02592
2575.51128	0.02609
2574.48149	0.02636
2573.45170	0.02634
2572.42190	0.02624
2571.39211	0.02615
2570.36232	0.02602
2569.33253	0.02602
2568.30273	0.02605
2567.27294	0.02599
2566.24315	0.02578
2565.21336	0.02574
2564.18356	0.02569
2563.15377	0.02559
2562.12398	0.02592
2561.09419	0.02629
2560.06439	0.02616
2559.03460	0.02608
2558.00481	0.02626
2556.97502	0.02631
2555.94522	0.02622
2554.91543	0.02605
2553.88564	0.02575
2552.85584	0.02559
2551.82605	0.02562
2550.79626	0.02565
2549.76647	0.02558
2548.73667	0.02545
2547.70688	0.02558
2546.67709	0.02557
2545.64730	0.02527
2544.61750	0.02503
2543.58771	0.02500
2542.55792	0.02537
2541.52813	0.02559
2540.49833	0.02557
2539.46854	0.02562
2538.43875	0.02546
2537.40896	0.02505
2536.37916	0.02501
2535.34937	0.02543
2534.31958	0.02577
2533.28979	0.02570
2532.25999	0.02564
2531.23020	0.02589
2530.20041	0.02593
2529.17062	0.02590
2528.14082	0.02589
2527.11103	0.02593
2526.08124	0.02590
2525.05144	0.02592
2524.02165	0.02574
2522.99186	0.02563
2521.96207	0.02595
2520.93227	0.02561
2519.90248	0.02517
2518.87269	0.02532
2517.84290	0.02561
2516.81310	0.02545
2515.78331	0.02519
2514.75352	0.02552
2513.72373	0.02590
2512.69393	0.02597
2511.66414	0.02585
2510.63435	0.02586
2509.60456	0.02587
2508.57476	0.02588
2507.54497	0.02602
2506.51518	0.02590
2505.48539	0.02547
2504.45559	0.02539
2503.42580	0.02585
2502.39601	0.02595
2501.36621	0.02555
2500.33642	0.02530
2499.30663	0.02519
2498.27684	0.02521
2497.24704	0.02546
2496.21725	0.02549
2495.18746	0.02543
2494.15767	0.02540
2493.12787	0.02556
2492.09808	0.02604
2491.06829	0.02627
2490.03850	0.02600
2489.00870	0.02545
2487.97891	0.02516
2486.94912	0.02533
2485.91933	0.02564
2484.88953	0.02559
2483.85974	0.02550
2482.82995	0.02549
2481.80016	0.02535
2480.77036	0.02527
2479.74057	0.02536
2478.71078	0.02562
2477.68099	0.02566
2476.65119	0.02556
2475.62140	0.02541
2474.59161	0.02530
2473.56181	0.02552
2472.53202	0.02594
2471.50223	0.02621
2470.47244	0.02577
2469.44264	0.02522
2468.41285	0.02525
2467.38306	0.02550
2466.35327	0.02554
2465.32347	0.02538
2464.29368	0.02547
2463.26389	0.02586
2462.23410	0.02602
2461.20430	0.02576
2460.17451	0.02557
2459.14472	0.02583
2458.11493	0.02625
2457.08513	0.02609
2456.05534	0.02613
2455.02555	0.02642
2453.99576	0.02609
2452.96596	0.02591
2451.93617	0.02601
2450.90638	0.02607
2449.87659	0.02603
2448.84679	0.02570
2447.81700	0.02538
2446.78721	0.02555
2445.75741	0.02559
2444.72762	0.02525
2443.69783	0.02517
2442.66804	0.02514
2441.63824	0.02500
2440.60845	0.02493
2439.57866	0.02516
2438.54887	0.02533
2437.51907	0.02520
2436.48928	0.02479
2435.45949	0.02455
2434.42970	0.02490
2433.39990	0.02503
2432.37011	0.02450
2431.34032	0.02396
2430.31053	0.02391
2429.28073	0.02416
2428.25094	0.02450
2427.22115	0.02448
2426.19136	0.02421
2425.16156	0.02406
2424.13177	0.02400
2423.10198	0.02409
2422.07219	0.02416
2421.04239	0.02407
2420.01260	0.02398
2418.98281	0.02410
2417.95301	0.02432
2416.92322	0.02429
2415.89343	0.02415
2414.86364	0.02420
2413.83384	0.02438
2412.80405	0.02451
2411.77426	0.02431
2410.74447	0.02424
2409.71467	0.02443
2408.68488	0.02465
2407.65509	0.02442
2406.62530	0.02387
2405.59550	0.02378
2404.56571	0.02366
2403.53592	0.02389
2402.50613	0.02420
2401.47633	0.02429
2400.44654	0.02442
2399.41675	0.02424
2398.38696	0.02393
2397.35716	0.02394
2396.32737	0.02417
2395.29758	0.02410
2394.26778	0.02430
2393.23799	0.02435
2392.20820	0.02428
2391.17841	0.02451
2390.14861	0.02462
2389.11882	0.02464
2388.08903	0.02457
2387.05924	0.02448
2386.02944	0.02441
2384.99965	0.02442
2383.96986	0.02443
2382.94007	0.02452
2381.91027	0.02472
2380.88048	0.02482
2379.85069	0.02490
2378.82090	0.02495
2377.79110	0.02468
2376.76131	0.02436
2375.73152	0.02454
2374.70173	0.02483
2373.67193	0.02474
2372.64214	0.02457
2371.61235	0.02465
2370.58256	0.02456
2369.55276	0.02431
2368.52297	0.02438
2367.49318	0.02464
2366.46338	0.02459
2365.43359	0.02452
2364.40380	0.02492
2363.37401	0.02523
2362.34421	0.02491
2361.31442	0.02450
2360.28463	0.02458
2359.25484	0.02471
2358.22504	0.02461
2357.19525	0.02459
2356.16546	0.02501
2355.13567	0.02528
2354.10587	0.02527
2353.07608	0.02528
2352.04629	0.02524
2351.01650	0.02537
2349.98670	0.02544
2348.95691	0.02520
2347.92712	0.02501
2346.89733	0.02505
2345.86753	0.02508
2344.83774	0.02502
2343.80795	0.02488
2342.77816	0.02470
2341.74836	0.02441
2340.71857	0.02448
2339.68878	0.02500
2338.65898	0.02540
2337.62919	0.02522
2336.59940	0.02460
2335.56961	0.02421
2334.53981	0.02438
2333.51002	0.02467
2332.48023	0.02454
2331.45044	0.02433
2330.42064	0.02418
2329.39085	0.02442
2328.36106	0.02487
2327.33127	0.02493
2326.30147	0.02511
2325.27168	0.02539
2324.24189	0.02552
2323.21210	0.02556
2322.18230	0.02542
2321.15251	0.02507
2320.12272	0.02458
2319.09293	0.02425
2318.06313	0.02428
2317.03334	0.02458
2316.00355	0.02466
2314.97376	0.02423
2313.94396	0.02412
2312.91417	0.02417
2311.88438	0.02396
2310.85458	0.02413
2309.82479	0.02434
2308.79500	0.02422
2307.76521	0.02383
2306.73541	0.02356
2305.70562	0.02372
2304.67583	0.02393
2303.64604	0.02390
2302.61624	0.02412
2301.58645	0.02456
2300.55666	0.02473
2299.52687	0.02459
2298.49707	0.02427
2297.46728	0.02419
2296.43749	0.02399
2295.40770	0.02386
2294.37790	0.02387
2293.34811	0.02395
2292.31832	0.02406
2291.28853	0.02389
2290.25873	0.02391
2289.22894	0.02378
2288.19915	0.02357
2287.16936	0.02353
2286.13956	0.02354
2285.10977	0.02371
2284.07998	0.02364
2283.05018	0.02332
2282.02039	0.02309
2280.99060	0.02298
2279.96081	0.02285
2278.93101	0.02299
2277.90122	0.02314
2276.87143	0.02270
2275.84164	0.02208
2274.81184	0.02203
2273.78205	0.02204
2272.75226	0.02219
2271.72247	0.02246
2270.69267	0.02254
2269.66288	0.02277
2268.63309	0.02270
2267.60330	0.02251
2266.57350	0.02222
2265.54371	0.02217
2264.51392	0.02227
2263.48413	0.02202
2262.45433	0.02225
2261.42454	0.02207
2260.39475	0.02142
2259.36495	0.02159
2258.33516	0.02175
2257.30537	0.02148
2256.27558	0.02165
2255.24578	0.02181
2254.21599	0.02175
2253.18620	0.02182
2252.15641	0.02200
2251.12661	0.02183
2250.09682	0.02106
2249.06703	0.02073
2248.03724	0.02138
2247.00744	0.02231
2245.97765	0.02240
2244.94786	0.02206
2243.91807	0.02162
2242.88827	0.02138
2241.85848	0.02184
2240.82869	0.02164
2239.79890	0.02163
2238.76910	0.02233
2237.73931	0.02254
2236.70952	0.02217
2235.67973	0.02138
2234.64993	0.02099
2233.62014	0.02127
2232.59035	0.02125
2231.56055	0.02074
2230.53076	0.02091
2229.50097	0.02112
2228.47118	0.02046
2227.44138	0.02079
2226.41159	0.02191
2225.38180	0.02232
2224.35201	0.02216
2223.32221	0.02149
2222.29242	0.02109
2221.26263	0.02074
2220.23284	0.02049
2219.20304	0.02086
2218.17325	0.02086
2217.14346	0.02074
2216.11367	0.01994
2215.08387	0.01906
2214.05408	0.01990
2213.02429	0.02102
2211.99450	0.02096
2210.96470	0.02052
2209.93491	0.02029
2208.90512	0.02033
2207.87533	0.02069
2206.84553	0.02095
2205.81574	0.02096
2204.78595	0.02044
2203.75615	0.01969
2202.72636	0.01931
2201.69657	0.01945
2200.66678	0.01962
2199.63698	0.02013
2198.60719	0.02064
2197.57740	0.01989
2196.54761	0.01919
2195.51781	0.01944
2194.48802	0.01985
2193.45823	0.01976
2192.42844	0.01930
2191.39864	0.01891
2190.36885	0.01876
2189.33906	0.01853
2188.30927	0.01900
2187.27947	0.01966
2186.24968	0.01919
2185.21989	0.01841
2184.19010	0.01792
2183.16030	0.01837
2182.13051	0.01828
2181.10072	0.01767
2180.07093	0.01767
2179.04113	0.01853
2178.01134	0.02010
2176.98155	0.01997
2175.95175	0.01873
2174.92196	0.01778
2173.89217	0.01771
2172.86238	0.01891
2171.83258	0.01976
2170.80279	0.01967
2169.77300	0.01930
2168.74321	0.01896
2167.71341	0.01971
2166.68362	0.02057
2165.65383	0.02016
2164.62404	0.02009
2163.59424	0.01991
2162.56445	0.01910
2161.53466	0.01896
2160.50487	0.01935
2159.47507	0.01829
2158.44528	0.01636
2157.41549	0.01578
2156.38570	0.01559
2155.35590	0.01489
2154.32611	0.01507
2153.29632	0.01678
2152.26652	0.01729
2151.23673	0.01692
2150.20694	0.01752
2149.17715	0.01786
2148.14735	0.01806
2147.11756	0.01838
2146.08777	0.01844
2145.05798	0.01850
2144.02818	0.01886
2142.99839	0.01918
2141.96860	0.01889
2140.93881	0.01851
2139.90901	0.01842
2138.87922	0.01823
2137.84943	0.01850
2136.81964	0.01942
2135.78984	0.01974
2134.76005	0.01919
2133.73026	0.01845
2132.70047	0.01840
2131.67067	0.01857
2130.64088	0.01850
2129.61109	0.01910
2128.58130	0.01962
2127.55150	0.01985
2126.52171	0.02036
2125.49192	0.02029
2124.46212	0.02027
2123.43233	0.02014
2122.40254	0.01951
2121.37275	0.01938
2120.34295	0.01949
2119.31316	0.02014
2118.28337	0.02086
2117.25358	0.02096
2116.22378	0.02087
2115.19399	0.02053
2114.16420	0.02031
2113.13441	0.02044
2112.10461	0.02032
2111.07482	0.01987
2110.04503	0.01979
2109.01524	0.02047
2107.98544	0.02130
2106.95565	0.02120
2105.92586	0.02069
2104.89607	0.02030
2103.86627	0.01998
2102.83648	0.02051
2101.80669	0.02118
2100.77690	0.02106
2099.74710	0.02081
2098.71731	0.02086
2097.68752	0.02020
2096.65772	0.01929
2095.62793	0.01947
2094.59814	0.01934
2093.56835	0.01898
2092.53855	0.01978
2091.50876	0.02060
2090.47897	0.02094
2089.44918	0.02101
2088.41938	0.02088
2087.38959	0.02028
2086.35980	0.01978
2085.33001	0.02041
2084.30021	0.02113
2083.27042	0.02106
2082.24063	0.02015
2081.21084	0.01931
2080.18104	0.01915
2079.15125	0.01925
2078.12146	0.01933
2077.09167	0.01983
2076.06187	0.02043
2075.03208	0.01982
2074.00229	0.01941
2072.97250	0.01963
2071.94270	0.01946
2070.91291	0.01903
2069.88312	0.01863
2068.85332	0.01910
2067.82353	0.01983
2066.79374	0.01995
2065.76395	0.01975
2064.73415	0.01914
2063.70436	0.01866
2062.67457	0.01937
2061.64478	0.02017
2060.61498	0.01948
2059.58519	0.01868
2058.55540	0.01886
2057.52561	0.01911
2056.49581	0.01941
2055.46602	0.01964
2054.43623	0.01939
2053.40644	0.01927
2052.37664	0.01964
2051.34685	0.02008
2050.31706	0.01949
2049.28727	0.01851
2048.25747	0.01836
2047.22768	0.01864
2046.19789	0.01921
2045.16810	0.01941
2044.13830	0.01831
2043.10851	0.01692
2042.07872	0.01684
2041.04892	0.01749
2040.01913	0.01819
2038.98934	0.01847
2037.95955	0.01755
2036.92975	0.01652
2035.89996	0.01655
2034.87017	0.01730
2033.84038	0.01780
2032.81058	0.01698
2031.78079	0.01652
2030.75100	0.01733
2029.72121	0.01729
2028.69141	0.01675
2027.66162	0.01617
2026.63183	0.01627
2025.60204	0.01692
2024.57224	0.01703
2023.54245	0.01787
2022.51266	0.01810
2021.48287	0.01732
2020.45307	0.01709
2019.42328	0.01642
2018.39349	0.01606
2017.36369	0.01639
2016.33390	0.01619
2015.30411	0.01644
2014.27432	0.01724
2013.24452	0.01732
2012.21473	0.01681
2011.18494	0.01671
2010.15515	0.01730
2009.12535	0.01773
2008.09556	0.01752
2007.06577	0.01764
2006.03598	0.01768
2005.00618	0.01689
2003.97639	0.01678
2002.94660	0.01758
2001.91681	0.01805
2000.88701	0.01800
1999.85722	0.01800
1998.82743	0.01795
1997.79764	0.01743
1996.76784	0.01718
1995.73805	0.01762
1994.70826	0.01812
1993.67847	0.01811
1992.64867	0.01775
1991.61888	0.01756
1990.58909	0.01758
1989.55929	0.01786
1988.52950	0.01815
1987.49971	0.01839
1986.46992	0.01869
1985.44012	0.01829
1984.41033	0.01777
1983.38054	0.01803
1982.35075	0.01867
1981.32095	0.01855
1980.29116	0.01797
1979.26137	0.01767
1978.23158	0.01832
1977.20178	0.01876
1976.17199	0.01692
1975.14220	0.01543
1974.11241	0.01575
1973.08261	0.01619
1972.05282	0.01624
1971.02303	0.01708
1969.99324	0.01704
1968.96344	0.01661
1967.93365	0.01679
1966.90386	0.01582
1965.87407	0.01533
1964.84427	0.01595
1963.81448	0.01670
1962.78469	0.01713
1961.75489	0.01765
1960.72510	0.01747
1959.69531	0.01693
1958.66552	0.01700
1957.63572	0.01725
1956.60593	0.01732
1955.57614	0.01711
1954.54635	0.01745
1953.51655	0.01830
1952.48676	0.01892
1951.45697	0.01879
1950.42718	0.01849
1949.39738	0.01799
1948.36759	0.01783
1947.33780	0.01795
1946.30801	0.01812
1945.27821	0.01873
1944.24842	0.01867
1943.21863	0.01776
1942.18884	0.01714
1941.15904	0.01797
1940.12925	0.01866
1939.09946	0.01856
1938.06967	0.01820
1937.03987	0.01800
1936.01008	0.01853
1934.98029	0.01872
1933.95049	0.01849
1932.92070	0.01869
1931.89091	0.01868
1930.86112	0.01847
1929.83132	0.01854
1928.80153	0.01865
1927.77174	0.01899
1926.74195	0.01966
1925.71215	0.01954
1924.68236	0.01895
1923.65257	0.01920
1922.62278	0.01925
1921.59298	0.01930
1920.56319	0.01979
1919.53340	0.02019
1918.50361	0.02041
1917.47381	0.01983
1916.44402	0.01932
1915.41423	0.01989
1914.38444	0.02039
1913.35464	0.02005
1912.32485	0.02009
1911.29506	0.02017
1910.26527	0.02011
1909.23547	0.02026
1908.20568	0.02018
1907.17589	0.02003
1906.14609	0.01987
1905.11630	0.02006
1904.08651	0.02025
1903.05672	0.02007
1902.02692	0.02008
1900.99713	0.02012
1899.96734	0.01969
1898.93755	0.01960
1897.90775	0.01989
1896.87796	0.01976
1895.84817	0.01967
1894.81838	0.01981
1893.78858	0.01977
1892.75879	0.01987
1891.72900	0.02040
1890.69921	0.02074
1889.66941	0.02059
1888.63962	0.02040
1887.60983	0.02005
1886.58004	0.01967
1885.55024	0.01992
1884.52045	0.02002
1883.49066	0.02006
1882.46086	0.02055
1881.43107	0.02059
1880.40128	0.02043
1879.37149	0.02040
1878.34169	0.02042
1877.31190	0.02079
1876.28211	0.02093
1875.25232	0.02053
1874.22252	0.02020
1873.19273	0.02023
1872.16294	0.02042
1871.13315	0.02066
1870.10335	0.02073
1869.07356	0.02026
1868.04377	0.02001
1867.01398	0.02012
1865.98418	0.02029
1864.95439	0.02058
1863.92460	0.02057
1862.89481	0.02014
1861.86501	0.01988
1860.83522	0.02021
1859.80543	0.02046
1858.77564	0.02052
1857.74584	0.02056
1856.71605	0.02042
1855.68626	0.02045
1854.65646	0.02040
1853.62667	0.02020
1852.59688	0.02015
1851.56709	0.02025
1850.53729	0.02044
1849.50750	0.02049
1848.47771	0.02030
1847.44792	0.02025
1846.41812	0.02040
1845.38833	0.02037
1844.35854	0.02058
1843.32875	0.02066
1842.29895	0.02028
1841.26916	0.02014
1840.23937	0.02044
1839.20958	0.02062
1838.17978	0.02056
1837.14999	0.02067
1836.12020	0.02074
1835.09041	0.02087
1834.06061	0.02089
1833.03082	0.02070
1832.00103	0.02084
1830.97124	0.02087
1829.94144	0.02057
1828.91165	0.02088
1827.88186	0.02121
1826.85206	0.02106
1825.82227	0.02088
1824.79248	0.02099
1823.76269	0.02098
1822.73289	0.02084
1821.70310	0.02106
1820.67331	0.02110
1819.64352	0.02120
1818.61372	0.02122
1817.58393	0.02086
1816.55414	0.02077
1815.52435	0.02097
1814.49455	0.02122
1813.46476	0.02149
1812.43497	0.02159
1811.40518	0.02136
1810.37538	0.02129
1809.34559	0.02129
1808.31580	0.02167
1807.28601	0.02192
1806.25621	0.02189
1805.22642	0.02211
1804.19663	0.02242
1803.16684	0.02286
1802.13704	0.02296
1801.10725	0.02283
1800.07746	0.02272
1799.04766	0.02260
1798.01787	0.02241
1796.98808	0.02238
1795.95829	0.02249
1794.92849	0.02241
1793.89870	0.02222
1792.86891	0.02203
1791.83912	0.02176
1790.80932	0.02151
1789.77953	0.02166
1788.74974	0.02197
1787.71995	0.02207
1786.69015	0.02178
1785.66036	0.02163
1784.63057	0.02161
1783.60078	0.02170
1782.57098	0.02184
1781.54119	0.02177
1780.51140	0.02176
1779.48161	0.02168
1778.45181	0.02182
1777.42202	0.02218
1776.39223	0.02228
1775.36243	0.02247
1774.33264	0.02268
1773.30285	0.02278
1772.27306	0.02332
1771.24326	0.02350
1770.21347	0.02323
1769.18368	0.02300
1768.15389	0.02288
1767.12409	0.02285
1766.09430	0.02253
1765.06451	0.02223
1764.03472	0.02205
1763.00492	0.02183
1761.97513	0.02183
1760.94534	0.02189
1759.91555	0.02174
1758.88575	0.02176
1757.85596	0.02179
1756.82617	0.02187
1755.79638	0.02191
1754.76658	0.02174
1753.73679	0.02174
1752.70700	0.02167
1751.67721	0.02134
1750.64741	0.02107
1749.61762	0.02116
1748.58783	0.02129
1747.55803	0.02125
1746.52824	0.02119
1745.49845	0.02120
1744.46866	0.02124
1743.43886	0.02121
1742.40907	0.02128
1741.37928	0.02137
1740.34949	0.02138
1739.31969	0.02159
1738.28990	0.02161
1737.26011	0.02141
1736.23032	0.02152
1735.20052	0.02167
1734.17073	0.02162
1733.14094	0.02169
1732.11115	0.02171
1731.08135	0.02161
1730.05156	0.02146
1729.02177	0.02164
1727.99198	0.02171
1726.96218	0.02161
1725.93239	0.02156
1724.90260	0.02150
1723.87281	0.02162
1722.84301	0.02185
1721.81322	0.02198
1720.78343	0.02180
1719.75363	0.02177
1718.72384	0.02164
1717.69405	0.02155
1716.66426	0.02202
1715.63446	0.02198
1714.60467	0.02176
1713.57488	0.02182
1712.54509	0.02205
1711.51529	0.02227
1710.48550	0.02240
1709.45571	0.02242
1708.42592	0.02252
1707.39612	0.02252
1706.36633	0.02254
1705.33654	0.02264
1704.30675	0.02270
1703.27695	0.02269
1702.24716	0.02261
1701.21737	0.02227
1700.18758	0.02199
1699.15778	0.02293
1698.12799	0.02304
1697.09820	0.02311
1696.06841	0.02277
1695.03861	0.02292
1694.00882	0.02314
1692.97903	0.02289
1691.94923	0.02275
1690.91944	0.02279
1689.88965	0.02262
1688.85986	0.02243
1687.83006	0.02262
1686.80027	0.02253
1685.77048	0.02244
1684.74069	0.02179
1683.71089	0.02180
1682.68110	0.02237
1681.65131	0.02257
1680.62152	0.02247
1679.59172	0.02229
1678.56193	0.02228
1677.53214	0.02247
1676.50235	0.02277
1675.47255	0.02282
1674.44276	0.02317
1673.41297	0.02301
1672.38318	0.02290
1671.35338	0.02304
1670.32359	0.02355
1669.29380	0.02375
1668.26401	0.02414
1667.23421	0.02439
1666.20442	0.02479
1665.17463	0.02545
1664.14483	0.02584
1663.11504	0.02628
1662.08525	0.02660
1661.05546	0.02691
1660.02566	0.02662
1658.99587	0.02658
1657.96608	0.02629
1656.93629	0.02649
1655.90649	0.02664
1654.87670	0.02696
1653.84691	0.02755
1652.81712	0.02900
1651.78732	0.03128
1650.75753	0.03222
1649.72774	0.03408
1648.69795	0.03662
1647.66815	0.04166
1646.63836	0.04851
1645.60857	0.06029
1644.57878	0.06887
1643.54898	0.07285
1642.51919	0.07293
1641.48940	0.06916
1640.45960	0.06440
1639.42981	0.06098
1638.40002	0.06047
1637.37023	0.06254
1636.34043	0.06641
1635.31064	0.07529
1634.28085	0.08601
1633.25106	0.09132
1632.22126	0.09749
1631.19147	0.10209
1630.16168	0.10529
1629.13189	0.10679
1628.10209	0.10931
1627.07230	0.11372
1626.04251	0.11959
1625.01272	0.12650
1623.98292	0.13447
1622.95313	0.14266
1621.92334	0.14285
1620.89355	0.13647
1619.86375	0.12618
1618.83396	0.11427
1617.80417	0.10311
1616.77438	0.09177
1615.74458	0.08152
1614.71479	0.07539
1613.68500	0.06961
1612.65520	0.06486
1611.62541	0.06056
1610.59562	0.05704
1609.56583	0.05367
1608.53603	0.05124
1607.50624	0.04890
1606.47645	0.04699
1605.44666	0.04543
1604.41686	0.04442
1603.38707	0.04358
1602.35728	0.04319
1601.32749	0.04306
1600.29769	0.04301
1599.26790	0.04340
1598.23811	0.04402
1597.20832	0.04524
1596.17852	0.04705
1595.14873	0.04938
1594.11894	0.05258
1593.08915	0.05719
1592.05935	0.06309
1591.02956	0.07139
1589.99977	0.08213
1588.96998	0.09485
1587.94018	0.10798
1586.91039	0.12053
1585.88060	0.13182
1584.85080	0.14172
1583.82101	0.15123
1582.79122	0.15974
1581.76143	0.16582
1580.73163	0.16751
1579.70184	0.16333
1578.67205	0.15482
1577.64226	0.14405
1576.61246	0.13266
1575.58267	0.11868
1574.55288	0.10958
1573.52309	0.10072
1572.49329	0.09257
1571.46350	0.08498
1570.43371	0.07867
1569.40392	0.07186
1568.37412	0.06643
1567.34433	0.06182
1566.31454	0.05739
1565.28475	0.05371
1564.25495	0.05027
1563.22516	0.04802
1562.19537	0.04573
1561.16558	0.04442
1560.13578	0.04287
1559.10599	0.04208
1558.07620	0.04034
1557.04640	0.03966
1556.01661	0.03878
1554.98682	0.03783
1553.95703	0.03707
1552.92723	0.03651
1551.89744	0.03603
1550.86765	0.03514
1549.83786	0.03458
1548.80806	0.03378
1547.77827	0.03342
1546.74848	0.03292
1545.71869	0.03281
1544.68889	0.03253
1543.65910	0.03212
1542.62931	0.03150
1541.59952	0.03119
1540.56972	0.03088
1539.53993	0.03060
1538.51014	0.03129
1537.48035	0.03111
1536.45055	0.03113
1535.42076	0.03091
1534.39097	0.03086
1533.36117	0.03063
1532.33138	0.03059
1531.30159	0.03035
1530.27180	0.03040
1529.24200	0.03047
1528.21221	0.03065
1527.18242	0.03094
1526.15263	0.03095
1525.12283	0.03150
1524.09304	0.03210
1523.06325	0.03284
1522.03346	0.03383
1521.00366	0.03664
1519.97387	0.04013
1518.94408	0.04291
1517.91429	0.04537
1516.88449	0.04920
1515.85470	0.05191
1514.82491	0.05382
1513.79512	0.05482
1512.76532	0.05431
1511.73553	0.05220
1510.70574	0.04960
1509.67595	0.04669
1508.64615	0.04419
1507.61636	0.04238
1506.58657	0.04080
1505.55677	0.04031
1504.52698	0.03949
1503.49719	0.03883
1502.46740	0.03826
1501.43760	0.03781
1500.40781	0.03711
1499.37802	0.03633
1498.34823	0.03538
1497.31843	0.03448
1496.28864	0.03368
1495.25885	0.03299
1494.22906	0.03235
1493.19926	0.03151
1492.16947	0.03085
1491.13968	0.03001
1490.10989	0.02963
1489.08009	0.02924
1488.05030	0.02898
1487.02051	0.02857
1485.99072	0.02841
1484.96092	0.02834
1483.93113	0.02819
1482.90134	0.02825
1481.87155	0.02815
1480.84175	0.02835
1479.81196	0.02835
1478.78217	0.02872
1477.75237	0.02894
1476.72258	0.02931
1475.69279	0.02998
1474.66300	0.03073
1473.63320	0.03160
1472.60341	0.03322
1471.57362	0.03608
1470.54383	0.03931
1469.51403	0.04439
1468.48424	0.05121
1467.45445	0.05786
1466.42466	0.06171
1465.39486	0.06330
1464.36507	0.06456
1463.33528	0.06577
1462.30549	0.06799
1461.27569	0.07076
1460.24590	0.07267
1459.21611	0.07347
1458.18632	0.07430
1457.15652	0.07580
1456.12673	0.08015
1455.09694	0.08292
1454.06715	0.08713
1453.03735	0.09321
1452.00756	0.10173
1450.97777	0.11238
1449.94797	0.12344
1448.91818	0.13547
1447.88839	0.15036
1446.85860	0.16655
1445.82880	0.17744
1444.79901	0.18706
1443.76922	0.19249
1442.73943	0.19455
1441.70963	0.19466
1440.67984	0.19278
1439.65005	0.19066
1438.62026	0.18688
1437.59046	0.18332
1436.56067	0.17949
1435.53088	0.17712
1434.50109	0.17069
1433.47129	0.16457
1432.44150	0.15790
1431.41171	0.15194
1430.38192	0.14508
1429.35212	0.13532
1428.32233	0.12380
1427.29254	0.11019
1426.26275	0.09788
1425.23295	0.08671
1424.20316	0.07788
1423.17337	0.06999
1422.14357	0.06458
1421.11378	0.06034
1420.08399	0.05669
1419.05420	0.05331
1418.02440	0.05075
1416.99461	0.04914
1415.96482	0.04708
1414.93503	0.04581
1413.90523	0.04424
1412.87544	0.04313
1411.84565	0.04192
1410.81586	0.04107
1409.78606	0.04030
1408.75627	0.03975
1407.72648	0.03901
1406.69669	0.03845
1405.66689	0.03817
1404.63710	0.03772
1403.60731	0.03760
1402.57752	0.03702
1401.54772	0.03664
1400.51793	0.03614
1399.48814	0.03609
1398.45834	0.03578
1397.42855	0.03554
1396.39876	0.03532
1395.36897	0.03508
1394.33917	0.03475
1393.30938	0.03428
1392.27959	0.03408
1391.24980	0.03381
1390.22000	0.03364
1389.19021	0.03348
1388.16042	0.03371
1387.13063	0.03412
1386.10083	0.03517
1385.07104	0.03624
1384.04125	0.03785
1383.01146	0.04018
1381.98166	0.04351
1380.95187	0.04811
1379.92208	0.05435
1378.89229	0.06281
1377.86249	0.07333
1376.83270	0.08404
1375.80291	0.09279
1374.77312	0.09729
1373.74332	0.09519
1372.71353	0.08940
1371.68374	0.08379
1370.65394	0.07868
1369.62415	0.07378
1368.59436	0.06932
1367.56457	0.06592
1366.53477	0.06320
1365.50498	0.06069
1364.47519	0.05790
1363.44540	0.05498
1362.41560	0.05242
1361.38581	0.05078
1360.35602	0.04964
1359.32623	0.04858
1358.29643	0.04759
1357.26664	0.04691
1356.23685	0.04655
1355.20706	0.04643
1354.17726	0.04654
1353.14747	0.04674
1352.11768	0.04701
1351.08789	0.04710
1350.05809	0.04736
1349.02830	0.04795
1347.99851	0.04892
1346.96872	0.05009
1345.93892	0.05140
1344.90913	0.05280
1343.87934	0.05421
1342.84954	0.05550
1341.81975	0.05619
1340.78996	0.05612
1339.76017	0.05507
1338.73037	0.05306
1337.70058	0.05079
1336.67079	0.04900
1335.64100	0.04809
1334.61120	0.04801
1333.58141	0.04872
1332.55162	0.05024
1331.52183	0.05191
1330.49203	0.05381
1329.46224	0.05599
1328.43245	0.05782
1327.40266	0.05925
1326.37286	0.06073
1325.34307	0.06275
1324.31328	0.06496
1323.28349	0.06606
1322.25369	0.06481
1321.22390	0.06168
1320.19411	0.05858
1319.16432	0.05659
1318.13452	0.05619
1317.10473	0.05776
1316.07494	0.06150
1315.04514	0.06747
1314.01535	0.07539
1312.98556	0.08344
1311.95577	0.08925
1310.92597	0.09190
1309.89618	0.09131
1308.86639	0.08821
1307.83660	0.08463
1306.80680	0.08250
1305.77701	0.08243
1304.74722	0.08418
1303.71743	0.08707
1302.68763	0.08994
1301.65784	0.09183
1300.62805	0.09232
1299.59826	0.09153
1298.56846	0.09035
1297.53867	0.08930
1296.50888	0.08771
1295.47909	0.08543
1294.44929	0.08272
1293.41950	0.08007
1292.38971	0.07770
1291.35991	0.07539
1290.33012	0.07311
1289.30033	0.07116
1288.27054	0.07010
1287.24074	0.07036
1286.21095	0.07200
1285.18116	0.07478
1284.15137	0.07838
1283.12157	0.08241
1282.09178	0.08625
1281.06199	0.08939
1280.03220	0.09193
1279.00240	0.09355
1277.97261	0.09397
1276.94282	0.09337
1275.91303	0.09175
1274.88323	0.08907
1273.85344	0.08542
1272.82365	0.08115
1271.79386	0.07629
1270.76406	0.07094
1269.73427	0.06554
1268.70448	0.06049
1267.67469	0.05621
1266.64489	0.05253
1265.61510	0.04931
1264.58531	0.04674
1263.55551	0.04483
1262.52572	0.04330
1261.49593	0.04198
1260.46614	0.04059
1259.43634	0.03927
1258.40655	0.03846
1257.37676	0.03786
1256.34697	0.03743
1255.31717	0.03741
1254.28738	0.03743
1253.25759	0.03760
1252.22780	0.03855
1251.19800	0.04054
1250.16821	0.04317
1249.13842	0.04569
1248.10863	0.04733
1247.07883	0.04775
1246.04904	0.04786
1245.01925	0.04875
1243.98946	0.05114
1242.95966	0.05539
1241.92987	0.06181
1240.90008	0.07042
1239.87029	0.08062
1238.84049	0.09134
1237.81070	0.10058
1236.78091	0.10624
1235.75111	0.10759
1234.72132	0.10638
1233.69153	0.10463
1232.66174	0.10218
1231.63194	0.09768
1230.60215	0.09188
1229.57236	0.08786
1228.54257	0.08770
1227.51277	0.09162
1226.48298	0.09859
1225.45319	0.10715
1224.42340	0.11602
1223.39360	0.12467
1222.36381	0.13383
1221.33402	0.14424
1220.30423	0.15666
1219.27443	0.17226
1218.24464	0.19146
1217.21485	0.21205
1216.18506	0.23012
1215.15526	0.24244
1214.12547	0.24742
1213.09568	0.24519
1212.06589	0.23666
1211.03609	0.22390
1210.00630	0.20924
1208.97651	0.19476
1207.94671	0.18166
1206.91692	0.17064
1205.88713	0.16153
1204.85734	0.15320
1203.82754	0.14442
1202.79775	0.13446
1201.76796	0.12378
1200.73817	0.11337
1199.70837	0.10375
1198.67858	0.09516
1197.64879	0.08809
1196.61900	0.08241
1195.58920	0.07787
1194.55941	0.07443
1193.52962	0.07213
1192.49983	0.07108
1191.47003	0.07102
1190.44024	0.07177
1189.41045	0.07291
1188.38066	0.07430
1187.35086	0.07590
1186.32107	0.07750
1185.29128	0.07916
1184.26149	0.08094
1183.23169	0.08288
1182.20190	0.08451
1181.17211	0.08555
1180.14231	0.08619
1179.11252	0.08697
1178.08273	0.08822
1177.05294	0.08905
1176.02314	0.08906
1174.99335	0.08910
1173.96356	0.09155
1172.93377	0.09829
1171.90397	0.10528
1170.87418	0.10507
1169.84439	0.09666
1168.81460	0.08568
1167.78480	0.07599
1166.75501	0.06837
1165.72522	0.06268
1164.69543	0.05829
1163.66563	0.05482
1162.63584	0.05236
1161.60605	0.05067
1160.57626	0.04934
1159.54646	0.04853
1158.51667	0.04828
1157.48688	0.04877
1156.45708	0.05032
1155.42729	0.05359
1154.39750	0.05988
1153.36771	0.07054
1152.33791	0.08605
1151.30812	0.10325
1150.27833	0.11419
1149.24854	0.11099
1148.21874	0.09617
1147.18895	0.07984
1146.15916	0.06739
1145.12937	0.05896
1144.09957	0.05344
1143.06978	0.04987
1142.03999	0.04770
1141.01020	0.04641
1139.98040	0.04581
1138.95061	0.04601
1137.92082	0.04673
1136.89103	0.04769
1135.86123	0.04875
1134.83144	0.04968
1133.80165	0.04970
1132.77186	0.04855
1131.74206	0.04670
1130.71227	0.04453
1129.68248	0.04245
1128.65268	0.04071
1127.62289	0.03915
1126.59310	0.03784
1125.56331	0.03695
1124.53351	0.03612
1123.50372	0.03557
1122.47393	0.03538
1121.44414	0.03517
1120.41434	0.03506
1119.38455	0.03494
1118.35476	0.03471
1117.32497	0.03468
1116.29517	0.03507
1115.26538	0.03564
1114.23559	0.03607
1113.20580	0.03630
1112.17600	0.03636
1111.14621	0.03661
1110.11642	0.03728
1109.08663	0.03809
1108.05683	0.03924
1107.02704	0.04088
1105.99725	0.04240
1104.96746	0.04387
1103.93766	0.04559
1102.90787	0.04755
1101.87808	0.05000
1100.84828	0.05306
1099.81849	0.05629
1098.78870	0.05840
1097.75891	0.05800
1096.72911	0.05527
1095.69932	0.05149
1094.66953	0.04791
1093.63974	0.04535
1092.60994	0.04368
1091.58015	0.04231
1090.55036	0.04098
1089.52057	0.03978
1088.49077	0.03899
1087.46098	0.03876
1086.43119	0.03889
1085.40140	0.03972
1084.37160	0.04162
1083.34181	0.04423
1082.31202	0.04784
1081.28223	0.05227
1080.25243	0.05610
1079.22264	0.05802
1078.19285	0.05743
1077.16306	0.05485
1076.13326	0.05147
1075.10347	0.04828
1074.07368	0.04578
1073.04388	0.04395
1072.01409	0.04237
1070.98430	0.04101
1069.95451	0.03993
1068.92471	0.03902
1067.89492	0.03827
1066.86513	0.03780
1065.83534	0.03774
1064.80554	0.03780
1063.77575	0.03818
1062.74596	0.03876
1061.71617	0.03966
1060.68637	0.04137
1059.65658	0.04364
1058.62679	0.04667
1057.59700	0.05153
1056.56720	0.05941
1055.53741	0.07117
1054.50762	0.08593
1053.47783	0.09987
1052.44803	0.10842
1051.41824	0.11161
1050.38845	0.11251
1049.35866	0.11084
1048.32886	0.10428
1047.29907	0.09345
1046.26928	0.08203
1045.23948	0.07312
1044.20969	0.06764
1043.17990	0.06518
1042.15011	0.06488
1041.12031	0.06584
1040.09052	0.06729
1039.06073	0.06938
1038.03094	0.07265
1037.00114	0.07764
1035.97135	0.08540
1034.94156	0.09673
1033.91177	0.11049
1032.88197	0.12298
1031.85218	0.12986
1030.82239	0.12917
1029.79260	0.12251
1028.76280	0.11314
1027.73301	0.10417
1026.70322	0.09771
1025.67343	0.09516
1024.64363	0.09706
1023.61384	0.10322
1022.58405	0.11371
1021.55425	0.12809
1020.52446	0.14402
1019.49467	0.15716
1018.46488	0.16249
1017.43508	0.15812
1016.40529	0.14807
1015.37550	0.13747
1014.34571	0.12757
1013.31591	0.11733
1012.28612	0.10723
1011.25633	0.09937
1010.22654	0.09477
1009.19674	0.09305
1008.16695	0.09273
1007.13716	0.09344
1006.10737	0.09614
1005.07757	0.10151
1004.04778	0.10864
1003.01799	0.11413
1001.98820	0.11667
1000.95840	0.11700
999.92861	0.11431
998.89882	0.10730
997.86903	0.09718
996.83923	0.08702
995.80944	0.07856
994.77965	0.07208
993.74985	0.06767
992.72006	0.06509
991.69027	0.06363
990.66048	0.06370
989.63068	0.06547
988.60089	0.06785
987.57110	0.07012
986.54131	0.07200
985.51151	0.07350
984.48172	0.07437
983.45193	0.07356
982.42214	0.07040
981.39234	0.06593
980.36255	0.06204
979.33276	0.05955
978.30297	0.05815
977.27317	0.05721
976.24338	0.05618
975.21359	0.05515
974.18380	0.05420
973.15400	0.05337
972.12421	0.05315
971.09442	0.05379
970.06463	0.05531
969.03483	0.05741
968.00504	0.05971
966.97525	0.06211
965.94545	0.06481
964.91566	0.06800
963.88587	0.07219
962.85608	0.07749
961.82628	0.08227
960.79649	0.08429
959.76670	0.08248
958.73691	0.07723
957.70711	0.07038
956.67732	0.06370
955.64753	0.05795
954.61774	0.05361
953.58794	0.05051
952.55815	0.04810
951.52836	0.04616
950.49857	0.04482
949.46877	0.04381
948.43898	0.04279
947.40919	0.04195
946.37940	0.04140
945.34960	0.04092
944.31981	0.04020
943.29002	0.03960
942.26023	0.03932
941.23043	0.03901
940.20064	0.03851
939.17085	0.03816
938.14105	0.03799
937.11126	0.03756
936.08147	0.03746
935.05168	0.03779
934.02188	0.03808
932.99209	0.03836
931.96230	0.03896
930.93251	0.04009
929.90271	0.04117
928.87292	0.04188
927.84313	0.04196
926.81334	0.04134
925.78354	0.04086
924.75375	0.04075
923.72396	0.04052
922.69417	0.04025
921.66437	0.04001
920.63458	0.04008
919.60479	0.04085
918.57500	0.04220
917.54520	0.04395
916.51541	0.04568
915.48562	0.04722
914.45582	0.04780
913.42603	0.04692
912.39624	0.04565
911.36645	0.04489
910.33665	0.04469
909.30686	0.04525
908.27707	0.04692
907.24728	0.04964
906.21748	0.05358
905.18769	0.05851
904.15790	0.06414
903.12811	0.07040
902.09831	0.07755
901.06852	0.08689
900.03873	0.09985
899.00894	0.11746
897.97914	0.13838
896.94935	0.15686
895.91956	0.16472
894.88977	0.15913
893.85997	0.14569
892.83018	0.13097
891.80039	0.11726
890.77060	0.10602
889.74080	0.09912
888.71101	0.09729
887.68122	0.10205
886.65142	0.11542
885.62163	0.13799
884.59184	0.16603
883.56205	0.18892
882.53225	0.19496
881.50246	0.18249
880.47267	0.15959
879.44288	0.13547
878.41308	0.11607
877.38329	0.10210
876.35350	0.09198
875.32371	0.08527
874.29391	0.08160
873.26412	0.08066
872.23433	0.08240
871.20454	0.08711
870.17474	0.09269
869.14495	0.09438
868.11516	0.09097
867.08537	0.08578
866.05557	0.08325
865.02578	0.08528
863.99599	0.09177
862.96620	0.10116
861.93640	0.10884
860.90661	0.11189
859.87682	0.11058
858.84702	0.10723
857.81723	0.10541
856.78744	0.10654
855.75765	0.11001
854.72785	0.11406
853.69806	0.11702
852.66827	0.11932
851.63848	0.12187
850.60868	0.12420
849.57889	0.12417
848.54910	0.12053
847.51931	0.11467
846.48951	0.10919
845.45972	0.10546
844.42993	0.10339
843.40014	0.10290
842.37034	0.10197
841.34055	0.09915
840.31076	0.09560
839.28097	0.09309
838.25117	0.09249
837.22138	0.09272
836.19159	0.09357
835.16180	0.09570
834.13200	0.09901
833.10221	0.10302
832.07242	0.10743
831.04262	0.11175
830.01283	0.11577
828.98304	0.11939
827.95325	0.12216
826.92345	0.12318
825.89366	0.12088
824.86387	0.11525
823.83408	0.10836
822.80428	0.10174
821.77449	0.09452
820.74470	0.08706
819.71491	0.08025
818.68511	0.07380
817.65532	0.06826
816.62553	0.06420
815.59574	0.06224
814.56594	0.06089
813.53615	0.05895
812.50636	0.05706
811.47657	0.05587
810.44677	0.05562
809.41698	0.05654
808.38719	0.06033
807.35740	0.06886
806.32760	0.08330
805.29781	0.10057
804.26802	0.11133
803.23822	0.10875
802.20843	0.09783
801.17864	0.08711
800.14885	0.07865
799.11905	0.07178
798.08926	0.06610
797.05947	0.06161
796.02968	0.05874
794.99988	0.05716
793.97009	0.05614
792.94030	0.05566
791.91051	0.05566
790.88071	0.05564
789.85092	0.05489
788.82113	0.05384
787.79134	0.05340
786.76154	0.05387
785.73175	0.05512
784.70196	0.05538
783.67217	0.05384
782.64237	0.05164
781.61258	0.04998
780.58279	0.04921
779.55299	0.04887
778.52320	0.04893
777.49341	0.04905
776.46362	0.04884
775.43382	0.04795
774.40403	0.04695
773.37424	0.04673
772.34445	0.04700
771.31465	0.04766
770.28486	0.04825
769.25507	0.04830
768.22528	0.04744
767.19548	0.04570
766.16569	0.04375
765.13590	0.04192
764.10611	0.04082
763.07631	0.04009
762.04652	0.03929
761.01673	0.03871
759.98694	0.03841
758.95714	0.03843
757.92735	0.03891
756.89756	0.03983
755.86777	0.04087
754.83797	0.04291
753.80818	0.04672
752.77839	0.05150
751.74859	0.05463
750.71880	0.05477
749.68901	0.05542
748.65922	0.05798
747.62942	0.05827
746.59963	0.05485
745.56984	0.05049
744.54005	0.04693
743.51025	0.04447
742.48046	0.04265
741.45067	0.04121
740.42088	0.04026
739.39108	0.03969
738.36129	0.03913
737.33150	0.03913
736.30171	0.04012
735.27191	0.04140
734.24212	0.04327
733.21233	0.04606
732.18254	0.05021
731.15274	0.05461
730.12295	0.05578
729.09316	0.05291
728.06337	0.04922
727.03357	0.04706
726.00378	0.04579
724.97399	0.04499
723.94419	0.04437
722.91440	0.04355
721.88461	0.04318
720.85482	0.04322
719.82502	0.04300
718.79523	0.04235
717.76544	0.04127
716.73565	0.03997
715.70585	0.03875
714.67606	0.03747
713.64627	0.03646
712.61648	0.03642
711.58668	0.03682
710.55689	0.03699
709.52710	0.03674
708.49731	0.03584
707.46751	0.03473
706.43772	0.03401
705.40793	0.03370
704.37814	0.03332
703.34834	0.03299
702.31855	0.03281
701.28876	0.03231
700.25897	0.03195
699.22917	0.03200
698.19938	0.03214
697.16959	0.03212
696.13979	0.03203
695.11000	0.03189
694.08021	0.03155
693.05042	0.03192
692.02062	0.03272
690.99083	0.03287
689.96104	0.03287
688.93125	0.03278
687.90145	0.03239
686.87166	0.03247
685.84187	0.03256
684.81208	0.03229
683.78228	0.03284
682.75249	0.03327
681.72270	0.03314
680.69291	0.03330
679.66311	0.03414
678.63332	0.03545
677.60353	0.03595
676.57374	0.03621
675.54394	0.03662
674.51415	0.03794
673.48436	0.03992
672.45456	0.04166
671.42477	0.04363
670.39498	0.04646
669.36519	0.04887
668.33539	0.05028
667.30560	0.05139
666.27581	0.05146
665.24602	0.05236
664.21622	0.05397
663.18643	0.05481
662.15664	0.05453
661.12685	0.05443
660.09705	0.05472
659.06726	0.05481
658.03747	0.05511
657.00768	0.05479
655.97788	0.05375
654.94809	0.05297
653.91830	0.05269
652.88851	0.05314
651.85871	0.05459
650.82892	0.05652
649.79913	0.05872
648.76934	0.06019
647.73954	0.06002
646.70975	0.05819
645.67996	0.05532
644.65016	0.05247
643.62037	0.04996
642.59058	0.04844
641.56079	0.04703
640.53099	0.04548
639.50120	0.04442
638.47141	0.04401
637.44162	0.04416
636.41182	0.04424
635.38203	0.04411
634.35224	0.04436
633.32245	0.04510
632.29265	0.04562
631.26286	0.04667
630.23307	0.04787
629.20328	0.04860
628.17348	0.04948
627.14369	0.05048
626.11390	0.05176
625.08411	0.05300
624.05431	0.05383
623.02452	0.05376
621.99473	0.05315
620.96494	0.05216
619.93514	0.05014
618.90535	0.04783
617.87556	0.04526
616.84576	0.04290
615.81597	0.04195
614.78618	0.04342
613.75639	0.04771
612.72659	0.05391
611.69680	0.06039
610.66701	0.06336
609.63722	0.06202
608.60742	0.05935
607.57763	0.05697
606.54784	0.05629
605.51805	0.05750
604.48825	0.05928
603.45846	0.06057
602.42867	0.06146
601.39888	0.06228
600.36908	0.06446
599.33929	0.06778
598.30950	0.07000
597.27971	0.06980
596.24991	0.06783
595.22012	0.06724
594.19033	0.06812
593.16054	0.06962
592.13074	0.07194
591.10095	0.07580
590.07116	0.08096
589.04136	0.08595
588.01157	0.09074
586.98178	0.09372
585.95199	0.09365
584.92219	0.09189
583.89240	0.08968
582.86261	0.08545
581.83282	0.08040
580.80302	0.07654
579.77323	0.07255
578.74344	0.06974
577.71365	0.06799
576.68385	0.06713
575.65406	0.06709
574.62427	0.06729
573.59448	0.06838
572.56468	0.06968
571.53489	0.07030
570.50510	0.07061
569.47531	0.07153
568.44551	0.07269
567.41572	0.07431
566.38593	0.07483
565.35614	0.07469
564.32634	0.07587
563.29655	0.07560
562.26676	0.07487
561.23696	0.07525
560.20717	0.07551
559.17738	0.07500
558.14759	0.07390
557.11779	0.07408
556.08800	0.07453
555.05821	0.07440
554.02842	0.07439
552.99862	0.07508
551.96883	0.07794
550.93904	0.08161
549.90925	0.08456
548.87945	0.08567
547.84966	0.08552
546.81987	0.08751
545.79008	0.09174
544.76028	0.09540
543.73049	0.09671
542.70070	0.09617
541.67091	0.09506
540.64111	0.09549
539.61132	0.09875
538.58153	0.10410
537.55173	0.11123
536.52194	0.11898
535.49215	0.12332
534.46236	0.12214
533.43256	0.11838
532.40277	0.11436
531.37298	0.11211
530.34319	0.11117
529.31339	0.10940
528.28360	0.10859
527.25381	0.11119
526.22402	0.11896
525.19422	0.12908
524.16443	0.13674
523.13464	0.14511
522.10485	0.15543
521.07505	0.15907
520.04526	0.14930
519.01547	0.13319
517.98568	0.12035
516.95588	0.10997
515.92609	0.10128
514.89630	0.09558
513.86651	0.09391
512.83671	0.09414
511.80692	0.09296
510.77713	0.09289
509.74733	0.09459
508.71754	0.09746
507.68775	0.10128
506.65796	0.10635
505.62816	0.11161
504.59837	0.11625
503.56858	0.12142
502.53879	0.12730
501.50899	0.13453
500.47920	0.14148
499.44941	0.14669
498.41962	0.15077
497.38982	0.15522
496.36003	0.15883
495.33024	0.16023
494.30045	0.16113
493.27065	0.16232
492.24086	0.16227
491.21107	0.16059
490.18128	0.15830
489.15148	0.15677
488.12169	0.15652
487.09190	0.15638
486.06211	0.15596
485.03231	0.15600
484.00252	0.15642
482.97273	0.15605
481.94293	0.15382
480.91314	0.14993
479.88335	0.14577
478.85356	0.14162
477.82376	0.13777
476.79397	0.13473
475.76418	0.13350
474.73439	0.13349
473.70459	0.13457
472.67480	0.13670
471.64501	0.13855
470.61522	0.14066
469.58542	0.14252
468.55563	0.14667
467.52584	0.15158
466.49605	0.15282
465.46625	0.15366
464.43646	0.15333
463.40667	0.15210
462.37688	0.15240
461.34708	0.15182
460.31729	0.15005
459.28750	0.14879
458.25771	0.14794
457.22791	0.14896
456.19812	0.15003
455.16833	0.14948
454.13853	0.14910
453.10874	0.14932
452.07895	0.15030
451.04916	0.14898
450.01936	0.14475
448.98957	0.14167
447.95978	0.13987
446.92999	0.13699
445.90019	0.13378
444.87040	0.13051
443.84061	0.12659
442.81082	0.12484
441.78102	0.12312
440.75123	0.12223
439.72144	0.12258
438.69165	0.12267
437.66185	0.12192
436.63206	0.12031
435.60227	0.12170
434.57248	0.12231
433.54268	0.12133
432.51289	0.12095
431.48310	0.12244
430.45330	0.12646
429.42351	0.13011
428.39372	0.13468
427.36393	0.14180
426.33413	0.14838
425.30434	0.15429
424.27455	0.15852
423.24476	0.16101
422.21496	0.16144
421.18517	0.15673
420.15538	0.15240
419.12559	0.15175
418.09579	0.15082
417.06600	0.14871
416.03621	0.14369
415.00642	0.14256
413.97662	0.14674
412.94683	0.14987
411.91704	0.15230
410.88725	0.15560
409.85745	0.16143
408.82766	0.16628
407.79787	0.16771
406.76808	0.17038
405.73828	0.17440
404.70849	0.17743
403.67870	0.18120
402.64890	0.18304
401.61911	0.18245
400.58932	0.18563
399.55953	0.19127
