PE IR       SUBTECH     SPECTRUM    ASCII       PEDS        4.00        
   -1
4_8_24 BW ECS outer 1.ASC
24/04/08
18:07:17.00
24/04/08
18:07:43.00
Yarger Lab
Sample 086 By YargerLab Date Monday, April 08 2024
400.000000
#HDR
-1
-1
#GR
cm-1
A
1.0
0.0
4500.000000
-1.000000
4101
8
0.043400
0.005040
#DATA
4500.000000	0.005568
4499.000000	0.005568
4498.000000	0.005570
4497.000000	0.005574
4496.000000	0.005574
4495.000000	0.005570
4494.000000	0.005563
4493.000000	0.005554
4492.000000	0.005541
4491.000000	0.005518
4490.000000	0.005485
4489.000000	0.005450
4488.000000	0.005428
4487.000000	0.005423
4486.000000	0.005429
4485.000000	0.005429
4484.000000	0.005410
4483.000000	0.005376
4482.000000	0.005345
4481.000000	0.005338
4480.000000	0.005369
4479.000000	0.005430
4478.000000	0.005501
4477.000000	0.005558
4476.000000	0.005583
4475.000000	0.005575
4474.000000	0.005547
4473.000000	0.005524
4472.000000	0.005527
4471.000000	0.005562
4470.000000	0.005617
4469.000000	0.005667
4468.000000	0.005689
4467.000000	0.005672
4466.000000	0.005625
4465.000000	0.005572
4464.000000	0.005533
4463.000000	0.005518
4462.000000	0.005516
4461.000000	0.005514
4460.000000	0.005502
4459.000000	0.005482
4458.000000	0.005467
4457.000000	0.005465
4456.000000	0.005478
4455.000000	0.005498
4454.000000	0.005514
4453.000000	0.005526
4452.000000	0.005540
4451.000000	0.005566
4450.000000	0.005604
4449.000000	0.005639
4448.000000	0.005657
4447.000000	0.005650
4446.000000	0.005626
4445.000000	0.005603
4444.000000	0.005592
4443.000000	0.005591
4442.000000	0.005587
4441.000000	0.005570
4440.000000	0.005542
4439.000000	0.005516
4438.000000	0.005504
4437.000000	0.005510
4436.000000	0.005530
4435.000000	0.005554
4434.000000	0.005574
4433.000000	0.005588
4432.000000	0.005598
4431.000000	0.005609
4430.000000	0.005625
4429.000000	0.005641
4428.000000	0.005651
4427.000000	0.005645
4426.000000	0.005618
4425.000000	0.005575
4424.000000	0.005527
4423.000000	0.005490
4422.000000	0.005475
4421.000000	0.005487
4420.000000	0.005519
4419.000000	0.005561
4418.000000	0.005601
4417.000000	0.005634
4416.000000	0.005658
4415.000000	0.005671
4414.000000	0.005671
4413.000000	0.005655
4412.000000	0.005629
4411.000000	0.005602
4410.000000	0.005579
4409.000000	0.005561
4408.000000	0.005546
4407.000000	0.005531
4406.000000	0.005522
4405.000000	0.005525
4404.000000	0.005545
4403.000000	0.005577
4402.000000	0.005611
4401.000000	0.005635
4400.000000	0.005644
4399.000000	0.005642
4398.000000	0.005639
4397.000000	0.005644
4396.000000	0.005659
4395.000000	0.005679
4394.000000	0.005699
4393.000000	0.005711
4392.000000	0.005710
4391.000000	0.005692
4390.000000	0.005662
4389.000000	0.005629
4388.000000	0.005602
4387.000000	0.005584
4386.000000	0.005565
4385.000000	0.005536
4384.000000	0.005502
4383.000000	0.005482
4382.000000	0.005497
4381.000000	0.005550
4380.000000	0.005617
4379.000000	0.005664
4378.000000	0.005668
4377.000000	0.005635
4376.000000	0.005591
4375.000000	0.005562
4374.000000	0.005558
4373.000000	0.005573
4372.000000	0.005595
4371.000000	0.005619
4370.000000	0.005642
4369.000000	0.005665
4368.000000	0.005677
4367.000000	0.005667
4366.000000	0.005635
4365.000000	0.005590
4364.000000	0.005552
4363.000000	0.005533
4362.000000	0.005533
4361.000000	0.005544
4360.000000	0.005558
4359.000000	0.005571
4358.000000	0.005583
4357.000000	0.005595
4356.000000	0.005608
4355.000000	0.005622
4354.000000	0.005637
4353.000000	0.005647
4352.000000	0.005648
4351.000000	0.005641
4350.000000	0.005630
4349.000000	0.005622
4348.000000	0.005617
4347.000000	0.005614
4346.000000	0.005613
4345.000000	0.005618
4344.000000	0.005633
4343.000000	0.005654
4342.000000	0.005675
4341.000000	0.005691
4340.000000	0.005705
4339.000000	0.005723
4338.000000	0.005741
4337.000000	0.005750
4336.000000	0.005742
4335.000000	0.005719
4334.000000	0.005690
4333.000000	0.005668
4332.000000	0.005656
4331.000000	0.005654
4330.000000	0.005660
4329.000000	0.005672
4328.000000	0.005692
4327.000000	0.005714
4326.000000	0.005731
4325.000000	0.005739
4324.000000	0.005737
4323.000000	0.005729
4322.000000	0.005722
4321.000000	0.005715
4320.000000	0.005703
4319.000000	0.005679
4318.000000	0.005644
4317.000000	0.005604
4316.000000	0.005570
4315.000000	0.005550
4314.000000	0.005547
4313.000000	0.005563
4312.000000	0.005594
4311.000000	0.005633
4310.000000	0.005666
4309.000000	0.005677
4308.000000	0.005662
4307.000000	0.005627
4306.000000	0.005591
4305.000000	0.005573
4304.000000	0.005579
4303.000000	0.005602
4302.000000	0.005626
4301.000000	0.005640
4300.000000	0.005637
4299.000000	0.005623
4298.000000	0.005610
4297.000000	0.005610
4296.000000	0.005624
4295.000000	0.005643
4294.000000	0.005651
4293.000000	0.005645
4292.000000	0.005627
4291.000000	0.005609
4290.000000	0.005598
4289.000000	0.005590
4288.000000	0.005582
4287.000000	0.005571
4286.000000	0.005561
4285.000000	0.005557
4284.000000	0.005559
4283.000000	0.005566
4282.000000	0.005577
4281.000000	0.005594
4280.000000	0.005616
4279.000000	0.005636
4278.000000	0.005640
4277.000000	0.005622
4276.000000	0.005587
4275.000000	0.005554
4274.000000	0.005540
4273.000000	0.005553
4272.000000	0.005586
4271.000000	0.005626
4270.000000	0.005659
4269.000000	0.005677
4268.000000	0.005680
4267.000000	0.005672
4266.000000	0.005666
4265.000000	0.005669
4264.000000	0.005685
4263.000000	0.005706
4262.000000	0.005720
4261.000000	0.005719
4260.000000	0.005706
4259.000000	0.005690
4258.000000	0.005681
4257.000000	0.005680
4256.000000	0.005686
4255.000000	0.005694
4254.000000	0.005701
4253.000000	0.005709
4252.000000	0.005716
4251.000000	0.005717
4250.000000	0.005706
4249.000000	0.005682
4248.000000	0.005654
4247.000000	0.005631
4246.000000	0.005619
4245.000000	0.005618
4244.000000	0.005626
4243.000000	0.005640
4242.000000	0.005654
4241.000000	0.005665
4240.000000	0.005667
4239.000000	0.005660
4238.000000	0.005646
4237.000000	0.005632
4236.000000	0.005624
4235.000000	0.005625
4234.000000	0.005629
4233.000000	0.005629
4232.000000	0.005617
4231.000000	0.005599
4230.000000	0.005588
4229.000000	0.005596
4228.000000	0.005622
4227.000000	0.005655
4226.000000	0.005676
4225.000000	0.005677
4224.000000	0.005661
4223.000000	0.005640
4222.000000	0.005625
4221.000000	0.005624
4220.000000	0.005635
4219.000000	0.005654
4218.000000	0.005678
4217.000000	0.005703
4216.000000	0.005728
4215.000000	0.005748
4214.000000	0.005754
4213.000000	0.005744
4212.000000	0.005721
4211.000000	0.005699
4210.000000	0.005688
4209.000000	0.005691
4208.000000	0.005699
4207.000000	0.005704
4206.000000	0.005703
4205.000000	0.005705
4204.000000	0.005715
4203.000000	0.005728
4202.000000	0.005731
4201.000000	0.005721
4200.000000	0.005707
4199.000000	0.005699
4198.000000	0.005696
4197.000000	0.005687
4196.000000	0.005662
4195.000000	0.005624
4194.000000	0.005591
4193.000000	0.005575
4192.000000	0.005582
4191.000000	0.005603
4190.000000	0.005632
4189.000000	0.005662
4188.000000	0.005687
4187.000000	0.005701
4186.000000	0.005700
4185.000000	0.005685
4184.000000	0.005665
4183.000000	0.005650
4182.000000	0.005648
4181.000000	0.005659
4180.000000	0.005678
4179.000000	0.005697
4178.000000	0.005705
4177.000000	0.005694
4176.000000	0.005661
4175.000000	0.005618
4174.000000	0.005584
4173.000000	0.005572
4172.000000	0.005576
4171.000000	0.005582
4170.000000	0.005580
4169.000000	0.005574
4168.000000	0.005577
4167.000000	0.005596
4166.000000	0.005629
4165.000000	0.005664
4164.000000	0.005691
4163.000000	0.005710
4162.000000	0.005725
4161.000000	0.005741
4160.000000	0.005758
4159.000000	0.005767
4158.000000	0.005756
4157.000000	0.005725
4156.000000	0.005683
4155.000000	0.005646
4154.000000	0.005624
4153.000000	0.005619
4152.000000	0.005628
4151.000000	0.005644
4150.000000	0.005663
4149.000000	0.005682
4148.000000	0.005700
4147.000000	0.005709
4146.000000	0.005701
4145.000000	0.005675
4144.000000	0.005640
4143.000000	0.005611
4142.000000	0.005600
4141.000000	0.005607
4140.000000	0.005625
4139.000000	0.005647
4138.000000	0.005669
4137.000000	0.005686
4136.000000	0.005692
4135.000000	0.005681
4134.000000	0.005655
4133.000000	0.005624
4132.000000	0.005601
4131.000000	0.005597
4130.000000	0.005613
4129.000000	0.005645
4128.000000	0.005679
4127.000000	0.005703
4126.000000	0.005714
4125.000000	0.005717
4124.000000	0.005722
4123.000000	0.005729
4122.000000	0.005732
4121.000000	0.005723
4120.000000	0.005706
4119.000000	0.005689
4118.000000	0.005680
4117.000000	0.005681
4116.000000	0.005687
4115.000000	0.005693
4114.000000	0.005698
4113.000000	0.005701
4112.000000	0.005699
4111.000000	0.005689
4110.000000	0.005672
4109.000000	0.005655
4108.000000	0.005649
4107.000000	0.005657
4106.000000	0.005671
4105.000000	0.005675
4104.000000	0.005658
4103.000000	0.005622
4102.000000	0.005584
4101.000000	0.005564
4100.000000	0.005567
4099.000000	0.005589
4098.000000	0.005615
4097.000000	0.005641
4096.000000	0.005662
4095.000000	0.005680
4094.000000	0.005694
4093.000000	0.005703
4092.000000	0.005707
4091.000000	0.005707
4090.000000	0.005700
4089.000000	0.005689
4088.000000	0.005675
4087.000000	0.005665
4086.000000	0.005661
4085.000000	0.005663
4084.000000	0.005664
4083.000000	0.005662
4082.000000	0.005662
4081.000000	0.005670
4080.000000	0.005690
4079.000000	0.005719
4078.000000	0.005747
4077.000000	0.005766
4076.000000	0.005769
4075.000000	0.005757
4074.000000	0.005734
4073.000000	0.005708
4072.000000	0.005683
4071.000000	0.005661
4070.000000	0.005642
4069.000000	0.005626
4068.000000	0.005617
4067.000000	0.005618
4066.000000	0.005631
4065.000000	0.005656
4064.000000	0.005685
4063.000000	0.005711
4062.000000	0.005730
4061.000000	0.005747
4060.000000	0.005769
4059.000000	0.005798
4058.000000	0.005827
4057.000000	0.005844
4056.000000	0.005836
4055.000000	0.005798
4054.000000	0.005741
4053.000000	0.005687
4052.000000	0.005658
4051.000000	0.005658
4050.000000	0.005675
4049.000000	0.005693
4048.000000	0.005704
4047.000000	0.005713
4046.000000	0.005722
4045.000000	0.005727
4044.000000	0.005721
4043.000000	0.005703
4042.000000	0.005688
4041.000000	0.005684
4040.000000	0.005689
4039.000000	0.005693
4038.000000	0.005687
4037.000000	0.005674
4036.000000	0.005657
4035.000000	0.005639
4034.000000	0.005617
4033.000000	0.005596
4032.000000	0.005583
4031.000000	0.005581
4030.000000	0.005592
4029.000000	0.005611
4028.000000	0.005639
4027.000000	0.005669
4026.000000	0.005695
4025.000000	0.005709
4024.000000	0.005711
4023.000000	0.005709
4022.000000	0.005711
4021.000000	0.005721
4020.000000	0.005734
4019.000000	0.005741
4018.000000	0.005738
4017.000000	0.005726
4016.000000	0.005710
4015.000000	0.005702
4014.000000	0.005711
4013.000000	0.005738
4012.000000	0.005771
4011.000000	0.005795
4010.000000	0.005797
4009.000000	0.005783
4008.000000	0.005771
4007.000000	0.005773
4006.000000	0.005785
4005.000000	0.005793
4004.000000	0.005783
4003.000000	0.005756
4002.000000	0.005725
4001.000000	0.005701
4000.000000	0.005690
3999.000000	0.005687
3998.000000	0.005687
3997.000000	0.005682
3996.000000	0.005670
3995.000000	0.005650
3994.000000	0.005627
3993.000000	0.005611
3992.000000	0.005612
3991.000000	0.005634
3990.000000	0.005668
3989.000000	0.005701
3988.000000	0.005724
3987.000000	0.005731
3986.000000	0.005724
3985.000000	0.005706
3984.000000	0.005685
3983.000000	0.005669
3982.000000	0.005664
3981.000000	0.005672
3980.000000	0.005683
3979.000000	0.005687
3978.000000	0.005677
3977.000000	0.005661
3976.000000	0.005651
3975.000000	0.005658
3974.000000	0.005679
3973.000000	0.005705
3972.000000	0.005725
3971.000000	0.005733
3970.000000	0.005731
3969.000000	0.005723
3968.000000	0.005712
3967.000000	0.005699
3966.000000	0.005686
3965.000000	0.005673
3964.000000	0.005663
3963.000000	0.005654
3962.000000	0.005652
3961.000000	0.005660
3960.000000	0.005682
3959.000000	0.005717
3958.000000	0.005754
3957.000000	0.005779
3956.000000	0.005780
3955.000000	0.005756
3954.000000	0.005715
3953.000000	0.005669
3952.000000	0.005628
3951.000000	0.005604
3950.000000	0.005605
3949.000000	0.005630
3948.000000	0.005669
3947.000000	0.005702
3946.000000	0.005716
3945.000000	0.005712
3944.000000	0.005697
3943.000000	0.005683
3942.000000	0.005673
3941.000000	0.005666
3940.000000	0.005659
3939.000000	0.005653
3938.000000	0.005647
3937.000000	0.005643
3936.000000	0.005644
3935.000000	0.005653
3934.000000	0.005672
3933.000000	0.005694
3932.000000	0.005710
3931.000000	0.005713
3930.000000	0.005709
3929.000000	0.005707
3928.000000	0.005711
3927.000000	0.005718
3926.000000	0.005720
3925.000000	0.005712
3924.000000	0.005696
3923.000000	0.005678
3922.000000	0.005662
3921.000000	0.005648
3920.000000	0.005634
3919.000000	0.005621
3918.000000	0.005619
3917.000000	0.005635
3916.000000	0.005669
3915.000000	0.005710
3914.000000	0.005742
3913.000000	0.005753
3912.000000	0.005745
3911.000000	0.005733
3910.000000	0.005726
3909.000000	0.005722
3908.000000	0.005711
3907.000000	0.005687
3906.000000	0.005662
3905.000000	0.005657
3904.000000	0.005681
3903.000000	0.005713
3902.000000	0.005726
3901.000000	0.005704
3900.000000	0.005660
3899.000000	0.005618
3898.000000	0.005594
3897.000000	0.005587
3896.000000	0.005589
3895.000000	0.005598
3894.000000	0.005615
3893.000000	0.005643
3892.000000	0.005674
3891.000000	0.005699
3890.000000	0.005719
3889.000000	0.005738
3888.000000	0.005757
3887.000000	0.005766
3886.000000	0.005758
3885.000000	0.005739
3884.000000	0.005719
3883.000000	0.005709
3882.000000	0.005710
3881.000000	0.005720
3880.000000	0.005733
3879.000000	0.005740
3878.000000	0.005734
3877.000000	0.005710
3876.000000	0.005677
3875.000000	0.005651
3874.000000	0.005653
3873.000000	0.005686
3872.000000	0.005729
3871.000000	0.005754
3870.000000	0.005752
3869.000000	0.005736
3868.000000	0.005728
3867.000000	0.005733
3866.000000	0.005737
3865.000000	0.005732
3864.000000	0.005716
3863.000000	0.005693
3862.000000	0.005667
3861.000000	0.005642
3860.000000	0.005624
3859.000000	0.005619
3858.000000	0.005628
3857.000000	0.005645
3856.000000	0.005659
3855.000000	0.005663
3854.000000	0.005663
3853.000000	0.005664
3852.000000	0.005664
3851.000000	0.005664
3850.000000	0.005663
3849.000000	0.005656
3848.000000	0.005642
3847.000000	0.005630
3846.000000	0.005627
3845.000000	0.005637
3844.000000	0.005654
3843.000000	0.005671
3842.000000	0.005686
3841.000000	0.005698
3840.000000	0.005706
3839.000000	0.005706
3838.000000	0.005698
3837.000000	0.005682
3836.000000	0.005666
3835.000000	0.005659
3834.000000	0.005664
3833.000000	0.005676
3832.000000	0.005686
3831.000000	0.005692
3830.000000	0.005697
3829.000000	0.005705
3828.000000	0.005711
3827.000000	0.005709
3826.000000	0.005698
3825.000000	0.005685
3824.000000	0.005679
3823.000000	0.005679
3822.000000	0.005678
3821.000000	0.005672
3820.000000	0.005662
3819.000000	0.005653
3818.000000	0.005649
3817.000000	0.005647
3816.000000	0.005640
3815.000000	0.005624
3814.000000	0.005604
3813.000000	0.005586
3812.000000	0.005574
3811.000000	0.005564
3810.000000	0.005552
3809.000000	0.005534
3808.000000	0.005519
3807.000000	0.005524
3806.000000	0.005561
3805.000000	0.005615
3804.000000	0.005658
3803.000000	0.005665
3802.000000	0.005639
3801.000000	0.005607
3800.000000	0.005598
3799.000000	0.005613
3798.000000	0.005631
3797.000000	0.005627
3796.000000	0.005590
3795.000000	0.005533
3794.000000	0.005482
3793.000000	0.005457
3792.000000	0.005459
3791.000000	0.005477
3790.000000	0.005493
3789.000000	0.005498
3788.000000	0.005492
3787.000000	0.005484
3786.000000	0.005478
3785.000000	0.005474
3784.000000	0.005471
3783.000000	0.005468
3782.000000	0.005467
3781.000000	0.005467
3780.000000	0.005471
3779.000000	0.005479
3778.000000	0.005490
3777.000000	0.005503
3776.000000	0.005510
3775.000000	0.005510
3774.000000	0.005505
3773.000000	0.005498
3772.000000	0.005491
3771.000000	0.005483
3770.000000	0.005475
3769.000000	0.005468
3768.000000	0.005464
3767.000000	0.005456
3766.000000	0.005442
3765.000000	0.005431
3764.000000	0.005439
3763.000000	0.005473
3762.000000	0.005523
3761.000000	0.005565
3760.000000	0.005580
3759.000000	0.005565
3758.000000	0.005530
3757.000000	0.005491
3756.000000	0.005463
3755.000000	0.005455
3754.000000	0.005472
3753.000000	0.005511
3752.000000	0.005566
3751.000000	0.005626
3750.000000	0.005671
3749.000000	0.005688
3748.000000	0.005680
3747.000000	0.005654
3746.000000	0.005618
3745.000000	0.005586
3744.000000	0.005565
3743.000000	0.005558
3742.000000	0.005563
3741.000000	0.005576
3740.000000	0.005590
3739.000000	0.005596
3738.000000	0.005585
3737.000000	0.005560
3736.000000	0.005537
3735.000000	0.005532
3734.000000	0.005543
3733.000000	0.005557
3732.000000	0.005571
3731.000000	0.005593
3730.000000	0.005626
3729.000000	0.005656
3728.000000	0.005663
3727.000000	0.005646
3726.000000	0.005625
3725.000000	0.005623
3724.000000	0.005634
3723.000000	0.005629
3722.000000	0.005586
3721.000000	0.005511
3720.000000	0.005435
3719.000000	0.005386
3718.000000	0.005373
3717.000000	0.005388
3716.000000	0.005413
3715.000000	0.005438
3714.000000	0.005454
3713.000000	0.005461
3712.000000	0.005468
3711.000000	0.005490
3710.000000	0.005532
3709.000000	0.005581
3708.000000	0.005611
3707.000000	0.005604
3706.000000	0.005559
3705.000000	0.005493
3704.000000	0.005433
3703.000000	0.005393
3702.000000	0.005377
3701.000000	0.005378
3700.000000	0.005389
3699.000000	0.005410
3698.000000	0.005437
3697.000000	0.005463
3696.000000	0.005476
3695.000000	0.005475
3694.000000	0.005460
3693.000000	0.005441
3692.000000	0.005427
3691.000000	0.005432
3690.000000	0.005456
3689.000000	0.005481
3688.000000	0.005483
3687.000000	0.005456
3686.000000	0.005415
3685.000000	0.005378
3684.000000	0.005355
3683.000000	0.005356
3682.000000	0.005376
3681.000000	0.005404
3680.000000	0.005428
3679.000000	0.005451
3678.000000	0.005488
3677.000000	0.005546
3676.000000	0.005612
3675.000000	0.005655
3674.000000	0.005665
3673.000000	0.005657
3672.000000	0.005638
3671.000000	0.005603
3670.000000	0.005557
3669.000000	0.005514
3668.000000	0.005488
3667.000000	0.005480
3666.000000	0.005484
3665.000000	0.005484
3664.000000	0.005471
3663.000000	0.005445
3662.000000	0.005416
3661.000000	0.005399
3660.000000	0.005400
3659.000000	0.005417
3658.000000	0.005441
3657.000000	0.005470
3656.000000	0.005505
3655.000000	0.005545
3654.000000	0.005587
3653.000000	0.005620
3652.000000	0.005629
3651.000000	0.005612
3650.000000	0.005586
3649.000000	0.005567
3648.000000	0.005557
3647.000000	0.005558
3646.000000	0.005572
3645.000000	0.005593
3644.000000	0.005611
3643.000000	0.005616
3642.000000	0.005606
3641.000000	0.005591
3640.000000	0.005579
3639.000000	0.005578
3638.000000	0.005589
3637.000000	0.005605
3636.000000	0.005624
3635.000000	0.005643
3634.000000	0.005672
3633.000000	0.005714
3632.000000	0.005766
3631.000000	0.005811
3630.000000	0.005839
3629.000000	0.005850
3628.000000	0.005846
3627.000000	0.005832
3626.000000	0.005816
3625.000000	0.005803
3624.000000	0.005793
3623.000000	0.005785
3622.000000	0.005781
3621.000000	0.005774
3620.000000	0.005760
3619.000000	0.005735
3618.000000	0.005708
3617.000000	0.005694
3616.000000	0.005708
3615.000000	0.005750
3614.000000	0.005807
3613.000000	0.005857
3612.000000	0.005888
3611.000000	0.005900
3610.000000	0.005903
3609.000000	0.005906
3608.000000	0.005915
3607.000000	0.005926
3606.000000	0.005936
3605.000000	0.005946
3604.000000	0.005955
3603.000000	0.005960
3602.000000	0.005964
3601.000000	0.005975
3600.000000	0.006001
3599.000000	0.006039
3598.000000	0.006072
3597.000000	0.006085
3596.000000	0.006079
3595.000000	0.006070
3594.000000	0.006072
3593.000000	0.006088
3592.000000	0.006115
3591.000000	0.006143
3590.000000	0.006168
3589.000000	0.006195
3588.000000	0.006229
3587.000000	0.006269
3586.000000	0.006303
3585.000000	0.006314
3584.000000	0.006303
3583.000000	0.006284
3582.000000	0.006277
3581.000000	0.006291
3580.000000	0.006315
3579.000000	0.006330
3578.000000	0.006327
3577.000000	0.006319
3576.000000	0.006325
3575.000000	0.006356
3574.000000	0.006399
3573.000000	0.006439
3572.000000	0.006467
3571.000000	0.006485
3570.000000	0.006498
3569.000000	0.006511
3568.000000	0.006531
3567.000000	0.006562
3566.000000	0.006602
3565.000000	0.006641
3564.000000	0.006672
3563.000000	0.006693
3562.000000	0.006704
3561.000000	0.006707
3560.000000	0.006704
3559.000000	0.006700
3558.000000	0.006705
3557.000000	0.006725
3556.000000	0.006761
3555.000000	0.006799
3554.000000	0.006822
3553.000000	0.006822
3552.000000	0.006804
3551.000000	0.006786
3550.000000	0.006782
3549.000000	0.006794
3548.000000	0.006820
3547.000000	0.006859
3546.000000	0.006909
3545.000000	0.006958
3544.000000	0.006992
3543.000000	0.007007
3542.000000	0.007015
3541.000000	0.007028
3540.000000	0.007052
3539.000000	0.007076
3538.000000	0.007084
3537.000000	0.007071
3536.000000	0.007051
3535.000000	0.007047
3534.000000	0.007070
3533.000000	0.007111
3532.000000	0.007149
3531.000000	0.007173
3530.000000	0.007188
3529.000000	0.007208
3528.000000	0.007234
3527.000000	0.007260
3526.000000	0.007274
3525.000000	0.007275
3524.000000	0.007277
3523.000000	0.007296
3522.000000	0.007341
3521.000000	0.007399
3520.000000	0.007443
3519.000000	0.007461
3518.000000	0.007461
3517.000000	0.007463
3516.000000	0.007481
3515.000000	0.007518
3514.000000	0.007564
3513.000000	0.007606
3512.000000	0.007628
3511.000000	0.007624
3510.000000	0.007607
3509.000000	0.007595
3508.000000	0.007604
3507.000000	0.007634
3506.000000	0.007676
3505.000000	0.007720
3504.000000	0.007758
3503.000000	0.007782
3502.000000	0.007791
3501.000000	0.007793
3500.000000	0.007802
3499.000000	0.007827
3498.000000	0.007866
3497.000000	0.007916
3496.000000	0.007966
3495.000000	0.008004
3494.000000	0.008020
3493.000000	0.008013
3492.000000	0.007997
3491.000000	0.007988
3490.000000	0.008001
3489.000000	0.008037
3488.000000	0.008088
3487.000000	0.008145
3486.000000	0.008200
3485.000000	0.008246
3484.000000	0.008271
3483.000000	0.008275
3482.000000	0.008267
3481.000000	0.008259
3480.000000	0.008261
3479.000000	0.008274
3478.000000	0.008302
3477.000000	0.008347
3476.000000	0.008411
3475.000000	0.008489
3474.000000	0.008569
3473.000000	0.008638
3472.000000	0.008692
3471.000000	0.008736
3470.000000	0.008776
3469.000000	0.008809
3468.000000	0.008828
3467.000000	0.008832
3466.000000	0.008830
3465.000000	0.008832
3464.000000	0.008841
3463.000000	0.008848
3462.000000	0.008846
3461.000000	0.008842
3460.000000	0.008848
3459.000000	0.008872
3458.000000	0.008911
3457.000000	0.008956
3456.000000	0.009000
3455.000000	0.009045
3454.000000	0.009092
3453.000000	0.009136
3452.000000	0.009169
3451.000000	0.009189
3450.000000	0.009207
3449.000000	0.009236
3448.000000	0.009279
3447.000000	0.009326
3446.000000	0.009366
3445.000000	0.009398
3444.000000	0.009424
3443.000000	0.009449
3442.000000	0.009476
3441.000000	0.009507
3440.000000	0.009543
3439.000000	0.009580
3438.000000	0.009614
3437.000000	0.009642
3436.000000	0.009666
3435.000000	0.009690
3434.000000	0.009724
3433.000000	0.009773
3432.000000	0.009836
3431.000000	0.009901
3430.000000	0.009954
3429.000000	0.009991
3428.000000	0.010013
3427.000000	0.010025
3426.000000	0.010027
3425.000000	0.010023
3424.000000	0.010026
3423.000000	0.010048
3422.000000	0.010090
3421.000000	0.010138
3420.000000	0.010180
3419.000000	0.010207
3418.000000	0.010223
3417.000000	0.010234
3416.000000	0.010248
3415.000000	0.010267
3414.000000	0.010292
3413.000000	0.010320
3412.000000	0.010347
3411.000000	0.010374
3410.000000	0.010404
3409.000000	0.010437
3408.000000	0.010472
3407.000000	0.010509
3406.000000	0.010551
3405.000000	0.010598
3404.000000	0.010642
3403.000000	0.010675
3402.000000	0.010697
3401.000000	0.010721
3400.000000	0.010755
3399.000000	0.010798
3398.000000	0.010837
3397.000000	0.010866
3396.000000	0.010890
3395.000000	0.010924
3394.000000	0.010973
3393.000000	0.011027
3392.000000	0.011071
3391.000000	0.011096
3390.000000	0.011103
3389.000000	0.011103
3388.000000	0.011109
3387.000000	0.011135
3386.000000	0.011186
3385.000000	0.011254
3384.000000	0.011322
3383.000000	0.011374
3382.000000	0.011403
3381.000000	0.011413
3380.000000	0.011414
3379.000000	0.011421
3378.000000	0.011445
3377.000000	0.011490
3376.000000	0.011548
3375.000000	0.011603
3374.000000	0.011646
3373.000000	0.011677
3372.000000	0.011702
3371.000000	0.011726
3370.000000	0.011751
3369.000000	0.011777
3368.000000	0.011809
3367.000000	0.011862
3366.000000	0.011947
3365.000000	0.012051
3364.000000	0.012146
3363.000000	0.012205
3362.000000	0.012228
3361.000000	0.012242
3360.000000	0.012279
3359.000000	0.012349
3358.000000	0.012439
3357.000000	0.012523
3356.000000	0.012585
3355.000000	0.012626
3354.000000	0.012662
3353.000000	0.012703
3352.000000	0.012754
3351.000000	0.012812
3350.000000	0.012880
3349.000000	0.012961
3348.000000	0.013053
3347.000000	0.013148
3346.000000	0.013235
3345.000000	0.013313
3344.000000	0.013383
3343.000000	0.013446
3342.000000	0.013498
3341.000000	0.013537
3340.000000	0.013570
3339.000000	0.013607
3338.000000	0.013658
3337.000000	0.013721
3336.000000	0.013794
3335.000000	0.013876
3334.000000	0.013964
3333.000000	0.014052
3332.000000	0.014131
3331.000000	0.014203
3330.000000	0.014279
3329.000000	0.014363
3328.000000	0.014452
3327.000000	0.014543
3326.000000	0.014637
3325.000000	0.014737
3324.000000	0.014837
3323.000000	0.014925
3322.000000	0.014998
3321.000000	0.015061
3320.000000	0.015124
3319.000000	0.015197
3318.000000	0.015290
3317.000000	0.015403
3316.000000	0.015523
3315.000000	0.015638
3314.000000	0.015745
3313.000000	0.015850
3312.000000	0.015953
3311.000000	0.016055
3310.000000	0.016157
3309.000000	0.016263
3308.000000	0.016373
3307.000000	0.016474
3306.000000	0.016566
3305.000000	0.016661
3304.000000	0.016772
3303.000000	0.016896
3302.000000	0.017019
3301.000000	0.017131
3300.000000	0.017236
3299.000000	0.017340
3298.000000	0.017443
3297.000000	0.017539
3296.000000	0.017622
3295.000000	0.017699
3294.000000	0.017787
3293.000000	0.017901
3292.000000	0.018039
3291.000000	0.018187
3290.000000	0.018326
3289.000000	0.018450
3288.000000	0.018562
3287.000000	0.018667
3286.000000	0.018766
3285.000000	0.018853
3284.000000	0.018924
3283.000000	0.018980
3282.000000	0.019031
3281.000000	0.019089
3280.000000	0.019161
3279.000000	0.019238
3278.000000	0.019300
3277.000000	0.019337
3276.000000	0.019358
3275.000000	0.019376
3274.000000	0.019397
3273.000000	0.019419
3272.000000	0.019442
3271.000000	0.019468
3270.000000	0.019490
3269.000000	0.019489
3268.000000	0.019453
3267.000000	0.019387
3266.000000	0.019308
3265.000000	0.019226
3264.000000	0.019143
3263.000000	0.019071
3262.000000	0.019023
3261.000000	0.019003
3260.000000	0.018993
3259.000000	0.018964
3258.000000	0.018894
3257.000000	0.018781
3256.000000	0.018644
3255.000000	0.018508
3254.000000	0.018393
3253.000000	0.018300
3252.000000	0.018216
3251.000000	0.018133
3250.000000	0.018056
3249.000000	0.017997
3248.000000	0.017952
3247.000000	0.017903
3246.000000	0.017831
3245.000000	0.017737
3244.000000	0.017640
3243.000000	0.017564
3242.000000	0.017512
3241.000000	0.017469
3240.000000	0.017413
3239.000000	0.017334
3238.000000	0.017240
3237.000000	0.017143
3236.000000	0.017059
3235.000000	0.016995
3234.000000	0.016952
3233.000000	0.016913
3232.000000	0.016862
3231.000000	0.016794
3230.000000	0.016726
3229.000000	0.016682
3228.000000	0.016665
3227.000000	0.016657
3226.000000	0.016630
3225.000000	0.016574
3224.000000	0.016507
3223.000000	0.016451
3222.000000	0.016414
3221.000000	0.016385
3220.000000	0.016345
3219.000000	0.016293
3218.000000	0.016242
3217.000000	0.016208
3216.000000	0.016197
3215.000000	0.016199
3214.000000	0.016201
3213.000000	0.016190
3212.000000	0.016161
3211.000000	0.016120
3210.000000	0.016077
3209.000000	0.016040
3208.000000	0.016013
3207.000000	0.015994
3206.000000	0.015976
3205.000000	0.015947
3204.000000	0.015899
3203.000000	0.015838
3202.000000	0.015783
3201.000000	0.015745
3200.000000	0.015722
3199.000000	0.015702
3198.000000	0.015681
3197.000000	0.015662
3196.000000	0.015644
3195.000000	0.015624
3194.000000	0.015599
3193.000000	0.015575
3192.000000	0.015558
3191.000000	0.015549
3190.000000	0.015546
3189.000000	0.015534
3188.000000	0.015503
3187.000000	0.015453
3186.000000	0.015401
3185.000000	0.015363
3184.000000	0.015337
3183.000000	0.015302
3182.000000	0.015238
3181.000000	0.015149
3180.000000	0.015052
3179.000000	0.014973
3178.000000	0.014927
3177.000000	0.014912
3176.000000	0.014911
3175.000000	0.014906
3174.000000	0.014890
3173.000000	0.014866
3172.000000	0.014836
3171.000000	0.014792
3170.000000	0.014731
3169.000000	0.014658
3168.000000	0.014587
3167.000000	0.014528
3166.000000	0.014482
3165.000000	0.014445
3164.000000	0.014412
3163.000000	0.014384
3162.000000	0.014360
3161.000000	0.014334
3160.000000	0.014299
3159.000000	0.014253
3158.000000	0.014202
3157.000000	0.014154
3156.000000	0.014114
3155.000000	0.014080
3154.000000	0.014048
3153.000000	0.014015
3152.000000	0.013974
3151.000000	0.013923
3150.000000	0.013873
3149.000000	0.013837
3148.000000	0.013819
3147.000000	0.013808
3146.000000	0.013791
3145.000000	0.013766
3144.000000	0.013736
3143.000000	0.013702
3142.000000	0.013666
3141.000000	0.013627
3140.000000	0.013585
3139.000000	0.013543
3138.000000	0.013501
3137.000000	0.013463
3136.000000	0.013436
3135.000000	0.013425
3134.000000	0.013425
3133.000000	0.013428
3132.000000	0.013424
3131.000000	0.013414
3130.000000	0.013403
3129.000000	0.013389
3128.000000	0.013364
3127.000000	0.013324
3126.000000	0.013276
3125.000000	0.013236
3124.000000	0.013215
3123.000000	0.013211
3122.000000	0.013213
3121.000000	0.013213
3120.000000	0.013204
3119.000000	0.013186
3118.000000	0.013163
3117.000000	0.013139
3116.000000	0.013121
3115.000000	0.013109
3114.000000	0.013105
3113.000000	0.013112
3112.000000	0.013130
3111.000000	0.013157
3110.000000	0.013187
3109.000000	0.013215
3108.000000	0.013241
3107.000000	0.013267
3106.000000	0.013288
3105.000000	0.013303
3104.000000	0.013314
3103.000000	0.013325
3102.000000	0.013342
3101.000000	0.013362
3100.000000	0.013373
3099.000000	0.013362
3098.000000	0.013327
3097.000000	0.013282
3096.000000	0.013246
3095.000000	0.013233
3094.000000	0.013246
3093.000000	0.013278
3092.000000	0.013315
3091.000000	0.013350
3090.000000	0.013385
3089.000000	0.013425
3088.000000	0.013466
3087.000000	0.013500
3086.000000	0.013519
3085.000000	0.013524
3084.000000	0.013520
3083.000000	0.013515
3082.000000	0.013520
3081.000000	0.013541
3080.000000	0.013579
3079.000000	0.013623
3078.000000	0.013660
3077.000000	0.013683
3076.000000	0.013693
3075.000000	0.013697
3074.000000	0.013699
3073.000000	0.013704
3072.000000	0.013704
3071.000000	0.013695
3070.000000	0.013681
3069.000000	0.013672
3068.000000	0.013675
3067.000000	0.013686
3066.000000	0.013701
3065.000000	0.013717
3064.000000	0.013728
3063.000000	0.013719
3062.000000	0.013683
3061.000000	0.013632
3060.000000	0.013593
3059.000000	0.013585
3058.000000	0.013605
3057.000000	0.013628
3056.000000	0.013627
3055.000000	0.013592
3054.000000	0.013536
3053.000000	0.013486
3052.000000	0.013464
3051.000000	0.013472
3050.000000	0.013491
3049.000000	0.013496
3048.000000	0.013466
3047.000000	0.013400
3046.000000	0.013311
3045.000000	0.013223
3044.000000	0.013162
3043.000000	0.013138
3042.000000	0.013146
3041.000000	0.013167
3040.000000	0.013179
3039.000000	0.013169
3038.000000	0.013136
3037.000000	0.013089
3036.000000	0.013039
3035.000000	0.012990
3034.000000	0.012940
3033.000000	0.012892
3032.000000	0.012852
3031.000000	0.012826
3030.000000	0.012806
3029.000000	0.012777
3028.000000	0.012729
3027.000000	0.012677
3026.000000	0.012645
3025.000000	0.012644
3024.000000	0.012663
3023.000000	0.012674
3022.000000	0.012664
3021.000000	0.012635
3020.000000	0.012598
3019.000000	0.012562
3018.000000	0.012528
3017.000000	0.012498
3016.000000	0.012470
3015.000000	0.012443
3014.000000	0.012414
3013.000000	0.012387
3012.000000	0.012366
3011.000000	0.012355
3010.000000	0.012349
3009.000000	0.012342
3008.000000	0.012332
3007.000000	0.012316
3006.000000	0.012293
3005.000000	0.012268
3004.000000	0.012247
3003.000000	0.012242
3002.000000	0.012253
3001.000000	0.012271
3000.000000	0.012283
2999.000000	0.012285
2998.000000	0.012290
2997.000000	0.012311
2996.000000	0.012351
2995.000000	0.012396
2994.000000	0.012430
2993.000000	0.012445
2992.000000	0.012449
2991.000000	0.012453
2990.000000	0.012465
2989.000000	0.012484
2988.000000	0.012510
2987.000000	0.012546
2986.000000	0.012594
2985.000000	0.012651
2984.000000	0.012709
2983.000000	0.012766
2982.000000	0.012828
2981.000000	0.012899
2980.000000	0.012972
2979.000000	0.013039
2978.000000	0.013098
2977.000000	0.013156
2976.000000	0.013215
2975.000000	0.013273
2974.000000	0.013324
2973.000000	0.013369
2972.000000	0.013418
2971.000000	0.013477
2970.000000	0.013546
2969.000000	0.013612
2968.000000	0.013665
2967.000000	0.013709
2966.000000	0.013760
2965.000000	0.013827
2964.000000	0.013902
2963.000000	0.013970
2962.000000	0.014027
2961.000000	0.014079
2960.000000	0.014132
2959.000000	0.014181
2958.000000	0.014215
2957.000000	0.014232
2956.000000	0.014234
2955.000000	0.014222
2954.000000	0.014199
2953.000000	0.014170
2952.000000	0.014152
2951.000000	0.014153
2950.000000	0.014165
2949.000000	0.014171
2948.000000	0.014166
2947.000000	0.014164
2946.000000	0.014189
2945.000000	0.014249
2944.000000	0.014336
2943.000000	0.014446
2942.000000	0.014575
2941.000000	0.014717
2940.000000	0.014863
2939.000000	0.015014
2938.000000	0.015187
2937.000000	0.015397
2936.000000	0.015634
2935.000000	0.015878
2934.000000	0.016115
2933.000000	0.016342
2932.000000	0.016555
2931.000000	0.016743
2930.000000	0.016906
2929.000000	0.017058
2928.000000	0.017211
2927.000000	0.017360
2926.000000	0.017481
2925.000000	0.017552
2924.000000	0.017561
2923.000000	0.017507
2922.000000	0.017399
2921.000000	0.017248
2920.000000	0.017057
2919.000000	0.016822
2918.000000	0.016539
2917.000000	0.016231
2916.000000	0.015939
2915.000000	0.015699
2914.000000	0.015521
2913.000000	0.015384
2912.000000	0.015261
2911.000000	0.015136
2910.000000	0.015008
2909.000000	0.014886
2908.000000	0.014776
2907.000000	0.014677
2906.000000	0.014585
2905.000000	0.014494
2904.000000	0.014400
2903.000000	0.014301
2902.000000	0.014204
2901.000000	0.014115
2900.000000	0.014044
2899.000000	0.013987
2898.000000	0.013933
2897.000000	0.013871
2896.000000	0.013800
2895.000000	0.013727
2894.000000	0.013660
2893.000000	0.013597
2892.000000	0.013533
2891.000000	0.013468
2890.000000	0.013408
2889.000000	0.013360
2888.000000	0.013325
2887.000000	0.013305
2886.000000	0.013292
2885.000000	0.013280
2884.000000	0.013264
2883.000000	0.013251
2882.000000	0.013246
2881.000000	0.013252
2880.000000	0.013261
2879.000000	0.013265
2878.000000	0.013266
2877.000000	0.013268
2876.000000	0.013276
2875.000000	0.013290
2874.000000	0.013305
2873.000000	0.013312
2872.000000	0.013305
2871.000000	0.013286
2870.000000	0.013276
2869.000000	0.013287
2868.000000	0.013312
2867.000000	0.013325
2866.000000	0.013314
2865.000000	0.013298
2864.000000	0.013302
2863.000000	0.013341
2862.000000	0.013410
2861.000000	0.013501
2860.000000	0.013616
2859.000000	0.013758
2858.000000	0.013919
2857.000000	0.014086
2856.000000	0.014237
2855.000000	0.014351
2854.000000	0.014407
2853.000000	0.014388
2852.000000	0.014287
2851.000000	0.014112
2850.000000	0.013884
2849.000000	0.013637
2848.000000	0.013408
2847.000000	0.013219
2846.000000	0.013073
2845.000000	0.012951
2844.000000	0.012828
2843.000000	0.012691
2842.000000	0.012547
2841.000000	0.012412
2840.000000	0.012298
2839.000000	0.012204
2838.000000	0.012126
2837.000000	0.012062
2836.000000	0.012008
2835.000000	0.011964
2834.000000	0.011928
2833.000000	0.011897
2832.000000	0.011863
2831.000000	0.011822
2830.000000	0.011780
2829.000000	0.011745
2828.000000	0.011716
2827.000000	0.011683
2826.000000	0.011640
2825.000000	0.011596
2824.000000	0.011565
2823.000000	0.011548
2822.000000	0.011534
2821.000000	0.011511
2820.000000	0.011481
2819.000000	0.011448
2818.000000	0.011411
2817.000000	0.011374
2816.000000	0.011339
2815.000000	0.011311
2814.000000	0.011289
2813.000000	0.011272
2812.000000	0.011259
2811.000000	0.011249
2810.000000	0.011233
2809.000000	0.011204
2808.000000	0.011166
2807.000000	0.011135
2806.000000	0.011126
2805.000000	0.011137
2804.000000	0.011150
2803.000000	0.011148
2802.000000	0.011119
2801.000000	0.011068
2800.000000	0.011014
2799.000000	0.010976
2798.000000	0.010961
2797.000000	0.010965
2796.000000	0.010977
2795.000000	0.010988
2794.000000	0.010991
2793.000000	0.010983
2792.000000	0.010964
2791.000000	0.010936
2790.000000	0.010906
2789.000000	0.010880
2788.000000	0.010861
2787.000000	0.010849
2786.000000	0.010842
2785.000000	0.010831
2784.000000	0.010811
2783.000000	0.010783
2782.000000	0.010751
2781.000000	0.010725
2780.000000	0.010714
2779.000000	0.010718
2778.000000	0.010732
2777.000000	0.010742
2776.000000	0.010734
2775.000000	0.010712
2774.000000	0.010685
2773.000000	0.010662
2772.000000	0.010641
2771.000000	0.010618
2770.000000	0.010596
2769.000000	0.010581
2768.000000	0.010577
2767.000000	0.010581
2766.000000	0.010586
2765.000000	0.010589
2764.000000	0.010586
2763.000000	0.010575
2762.000000	0.010555
2761.000000	0.010530
2760.000000	0.010508
2759.000000	0.010493
2758.000000	0.010486
2757.000000	0.010483
2756.000000	0.010480
2755.000000	0.010473
2754.000000	0.010460
2753.000000	0.010443
2752.000000	0.010426
2751.000000	0.010415
2750.000000	0.010409
2749.000000	0.010400
2748.000000	0.010382
2747.000000	0.010357
2746.000000	0.010333
2745.000000	0.010316
2744.000000	0.010307
2743.000000	0.010305
2742.000000	0.010306
2741.000000	0.010301
2740.000000	0.010282
2739.000000	0.010248
2738.000000	0.010214
2737.000000	0.010194
2736.000000	0.010188
2735.000000	0.010188
2734.000000	0.010190
2733.000000	0.010189
2732.000000	0.010182
2731.000000	0.010166
2730.000000	0.010144
2729.000000	0.010122
2728.000000	0.010102
2727.000000	0.010079
2726.000000	0.010059
2725.000000	0.010052
2724.000000	0.010059
2723.000000	0.010068
2722.000000	0.010067
2721.000000	0.010054
2720.000000	0.010034
2719.000000	0.010013
2718.000000	0.009988
2717.000000	0.009962
2716.000000	0.009939
2715.000000	0.009924
2714.000000	0.009915
2713.000000	0.009908
2712.000000	0.009898
2711.000000	0.009882
2710.000000	0.009857
2709.000000	0.009826
2708.000000	0.009800
2707.000000	0.009788
2706.000000	0.009788
2705.000000	0.009791
2704.000000	0.009789
2703.000000	0.009784
2702.000000	0.009783
2701.000000	0.009786
2700.000000	0.009786
2699.000000	0.009777
2698.000000	0.009764
2697.000000	0.009755
2696.000000	0.009752
2695.000000	0.009749
2694.000000	0.009735
2693.000000	0.009712
2692.000000	0.009690
2691.000000	0.009678
2690.000000	0.009677
2689.000000	0.009676
2688.000000	0.009669
2687.000000	0.009656
2686.000000	0.009642
2685.000000	0.009629
2684.000000	0.009615
2683.000000	0.009599
2682.000000	0.009586
2681.000000	0.009582
2680.000000	0.009581
2679.000000	0.009576
2678.000000	0.009561
2677.000000	0.009544
2676.000000	0.009532
2675.000000	0.009527
2674.000000	0.009530
2673.000000	0.009541
2672.000000	0.009553
2671.000000	0.009558
2670.000000	0.009551
2669.000000	0.009539
2668.000000	0.009530
2667.000000	0.009523
2666.000000	0.009512
2665.000000	0.009497
2664.000000	0.009488
2663.000000	0.009493
2662.000000	0.009506
2661.000000	0.009514
2660.000000	0.009512
2659.000000	0.009506
2658.000000	0.009507
2657.000000	0.009513
2656.000000	0.009513
2655.000000	0.009495
2654.000000	0.009460
2653.000000	0.009425
2652.000000	0.009411
2651.000000	0.009423
2650.000000	0.009445
2649.000000	0.009451
2648.000000	0.009430
2647.000000	0.009395
2646.000000	0.009370
2645.000000	0.009364
2644.000000	0.009366
2643.000000	0.009360
2642.000000	0.009347
2641.000000	0.009336
2640.000000	0.009336
2639.000000	0.009340
2638.000000	0.009341
2637.000000	0.009340
2636.000000	0.009341
2635.000000	0.009345
2634.000000	0.009348
2633.000000	0.009345
2632.000000	0.009336
2631.000000	0.009327
2630.000000	0.009325
2629.000000	0.009330
2628.000000	0.009330
2627.000000	0.009313
2626.000000	0.009280
2625.000000	0.009244
2624.000000	0.009219
2623.000000	0.009209
2622.000000	0.009208
2621.000000	0.009217
2620.000000	0.009236
2619.000000	0.009259
2618.000000	0.009272
2617.000000	0.009267
2616.000000	0.009247
2615.000000	0.009220
2614.000000	0.009186
2613.000000	0.009140
2612.000000	0.009089
2611.000000	0.009051
2610.000000	0.009047
2609.000000	0.009075
2608.000000	0.009118
2607.000000	0.009152
2606.000000	0.009162
2605.000000	0.009150
2604.000000	0.009127
2603.000000	0.009107
2602.000000	0.009103
2601.000000	0.009116
2600.000000	0.009136
2599.000000	0.009150
2598.000000	0.009147
2597.000000	0.009129
2596.000000	0.009107
2595.000000	0.009089
2594.000000	0.009083
2593.000000	0.009094
2592.000000	0.009117
2591.000000	0.009137
2590.000000	0.009140
2589.000000	0.009126
2588.000000	0.009107
2587.000000	0.009098
2586.000000	0.009105
2585.000000	0.009120
2584.000000	0.009131
2583.000000	0.009133
2582.000000	0.009125
2581.000000	0.009106
2580.000000	0.009068
2579.000000	0.009008
2578.000000	0.008944
2577.000000	0.008902
2576.000000	0.008895
2575.000000	0.008912
2574.000000	0.008931
2573.000000	0.008934
2572.000000	0.008914
2571.000000	0.008876
2570.000000	0.008837
2569.000000	0.008817
2568.000000	0.008826
2567.000000	0.008854
2566.000000	0.008884
2565.000000	0.008908
2564.000000	0.008929
2563.000000	0.008952
2562.000000	0.008976
2561.000000	0.008992
2560.000000	0.008986
2559.000000	0.008947
2558.000000	0.008884
2557.000000	0.008825
2556.000000	0.008800
2555.000000	0.008818
2554.000000	0.008858
2553.000000	0.008890
2552.000000	0.008901
2551.000000	0.008897
2550.000000	0.008887
2549.000000	0.008874
2548.000000	0.008863
2547.000000	0.008856
2546.000000	0.008852
2545.000000	0.008844
2544.000000	0.008831
2543.000000	0.008813
2542.000000	0.008793
2541.000000	0.008771
2540.000000	0.008745
2539.000000	0.008723
2538.000000	0.008713
2537.000000	0.008713
2536.000000	0.008712
2535.000000	0.008699
2534.000000	0.008673
2533.000000	0.008643
2532.000000	0.008616
2531.000000	0.008598
2530.000000	0.008592
2529.000000	0.008600
2528.000000	0.008621
2527.000000	0.008655
2526.000000	0.008698
2525.000000	0.008738
2524.000000	0.008764
2523.000000	0.008769
2522.000000	0.008760
2521.000000	0.008747
2520.000000	0.008736
2519.000000	0.008720
2518.000000	0.008696
2517.000000	0.008670
2516.000000	0.008653
2515.000000	0.008649
2514.000000	0.008645
2513.000000	0.008621
2512.000000	0.008573
2511.000000	0.008523
2510.000000	0.008498
2509.000000	0.008508
2508.000000	0.008535
2507.000000	0.008565
2506.000000	0.008595
2505.000000	0.008629
2504.000000	0.008658
2503.000000	0.008667
2502.000000	0.008650
2501.000000	0.008617
2500.000000	0.008579
2499.000000	0.008549
2498.000000	0.008531
2497.000000	0.008530
2496.000000	0.008545
2495.000000	0.008572
2494.000000	0.008603
2493.000000	0.008624
2492.000000	0.008618
2491.000000	0.008580
2490.000000	0.008524
2489.000000	0.008478
2488.000000	0.008454
2487.000000	0.008442
2486.000000	0.008425
2485.000000	0.008409
2484.000000	0.008415
2483.000000	0.008456
2482.000000	0.008516
2481.000000	0.008554
2480.000000	0.008536
2479.000000	0.008462
2478.000000	0.008370
2477.000000	0.008312
2476.000000	0.008307
2475.000000	0.008332
2474.000000	0.008351
2473.000000	0.008350
2472.000000	0.008347
2471.000000	0.008364
2470.000000	0.008408
2469.000000	0.008465
2468.000000	0.008511
2467.000000	0.008529
2466.000000	0.008516
2465.000000	0.008482
2464.000000	0.008437
2463.000000	0.008384
2462.000000	0.008321
2461.000000	0.008263
2460.000000	0.008235
2459.000000	0.008245
2458.000000	0.008276
2457.000000	0.008300
2456.000000	0.008304
2455.000000	0.008294
2454.000000	0.008279
2453.000000	0.008261
2452.000000	0.008243
2451.000000	0.008231
2450.000000	0.008225
2449.000000	0.008218
2448.000000	0.008194
2447.000000	0.008155
2446.000000	0.008119
2445.000000	0.008109
2444.000000	0.008133
2443.000000	0.008179
2442.000000	0.008227
2441.000000	0.008262
2440.000000	0.008280
2439.000000	0.008279
2438.000000	0.008254
2437.000000	0.008208
2436.000000	0.008159
2435.000000	0.008134
2434.000000	0.008143
2433.000000	0.008164
2432.000000	0.008162
2431.000000	0.008126
2430.000000	0.008074
2429.000000	0.008037
2428.000000	0.008032
2427.000000	0.008050
2426.000000	0.008076
2425.000000	0.008102
2424.000000	0.008128
2423.000000	0.008154
2422.000000	0.008166
2421.000000	0.008152
2420.000000	0.008118
2419.000000	0.008086
2418.000000	0.008067
2417.000000	0.008057
2416.000000	0.008051
2415.000000	0.008064
2414.000000	0.008102
2413.000000	0.008145
2412.000000	0.008157
2411.000000	0.008127
2410.000000	0.008081
2409.000000	0.008049
2408.000000	0.008035
2407.000000	0.008022
2406.000000	0.007997
2405.000000	0.007966
2404.000000	0.007939
2403.000000	0.007933
2402.000000	0.007953
2401.000000	0.007990
2400.000000	0.008019
2399.000000	0.008023
2398.000000	0.008010
2397.000000	0.008000
2396.000000	0.008006
2395.000000	0.008020
2394.000000	0.008031
2393.000000	0.008034
2392.000000	0.008030
2391.000000	0.008020
2390.000000	0.008002
2389.000000	0.007977
2388.000000	0.007950
2387.000000	0.007926
2386.000000	0.007911
2385.000000	0.007911
2384.000000	0.007927
2383.000000	0.007953
2382.000000	0.007968
2381.000000	0.007954
2380.000000	0.007914
2379.000000	0.007873
2378.000000	0.007856
2377.000000	0.007864
2376.000000	0.007882
2375.000000	0.007900
2374.000000	0.007916
2373.000000	0.007925
2372.000000	0.007917
2371.000000	0.007901
2370.000000	0.007893
2369.000000	0.007894
2368.000000	0.007883
2367.000000	0.007856
2366.000000	0.007843
2365.000000	0.007871
2364.000000	0.007937
2363.000000	0.008005
2362.000000	0.008031
2361.000000	0.007985
2360.000000	0.007884
2359.000000	0.007785
2358.000000	0.007740
2357.000000	0.007749
2356.000000	0.007775
2355.000000	0.007805
2354.000000	0.007840
2353.000000	0.007869
2352.000000	0.007874
2351.000000	0.007857
2350.000000	0.007839
2349.000000	0.007833
2348.000000	0.007832
2347.000000	0.007822
2346.000000	0.007812
2345.000000	0.007824
2344.000000	0.007853
2343.000000	0.007867
2342.000000	0.007834
2341.000000	0.007769
2340.000000	0.007714
2339.000000	0.007705
2338.000000	0.007738
2337.000000	0.007780
2336.000000	0.007801
2335.000000	0.007794
2334.000000	0.007777
2333.000000	0.007773
2332.000000	0.007790
2331.000000	0.007816
2330.000000	0.007839
2329.000000	0.007847
2328.000000	0.007838
2327.000000	0.007801
2326.000000	0.007740
2325.000000	0.007677
2324.000000	0.007646
2323.000000	0.007659
2322.000000	0.007700
2321.000000	0.007744
2320.000000	0.007776
2319.000000	0.007794
2318.000000	0.007801
2317.000000	0.007804
2316.000000	0.007804
2315.000000	0.007797
2314.000000	0.007776
2313.000000	0.007741
2312.000000	0.007706
2311.000000	0.007685
2310.000000	0.007681
2309.000000	0.007676
2308.000000	0.007652
2307.000000	0.007616
2306.000000	0.007601
2305.000000	0.007625
2304.000000	0.007663
2303.000000	0.007668
2302.000000	0.007621
2301.000000	0.007559
2300.000000	0.007531
2299.000000	0.007551
2298.000000	0.007588
2297.000000	0.007603
2296.000000	0.007588
2295.000000	0.007562
2294.000000	0.007546
2293.000000	0.007545
2292.000000	0.007546
2291.000000	0.007547
2290.000000	0.007559
2289.000000	0.007598
2288.000000	0.007657
2287.000000	0.007705
2286.000000	0.007714
2285.000000	0.007691
2284.000000	0.007665
2283.000000	0.007651
2282.000000	0.007644
2281.000000	0.007640
2280.000000	0.007655
2279.000000	0.007703
2278.000000	0.007771
2277.000000	0.007815
2276.000000	0.007798
2275.000000	0.007727
2274.000000	0.007642
2273.000000	0.007582
2272.000000	0.007556
2271.000000	0.007553
2270.000000	0.007567
2269.000000	0.007595
2268.000000	0.007629
2267.000000	0.007653
2266.000000	0.007667
2265.000000	0.007684
2264.000000	0.007713
2263.000000	0.007735
2262.000000	0.007719
2261.000000	0.007650
2260.000000	0.007542
2259.000000	0.007425
2258.000000	0.007321
2257.000000	0.007249
2256.000000	0.007234
2255.000000	0.007293
2254.000000	0.007402
2253.000000	0.007490
2252.000000	0.007504
2251.000000	0.007458
2250.000000	0.007413
2249.000000	0.007397
2248.000000	0.007387
2247.000000	0.007358
2246.000000	0.007329
2245.000000	0.007328
2244.000000	0.007342
2243.000000	0.007331
2242.000000	0.007276
2241.000000	0.007205
2240.000000	0.007153
2239.000000	0.007133
2238.000000	0.007136
2237.000000	0.007156
2236.000000	0.007199
2235.000000	0.007273
2234.000000	0.007370
2233.000000	0.007458
2232.000000	0.007497
2231.000000	0.007479
2230.000000	0.007432
2229.000000	0.007394
2228.000000	0.007377
2227.000000	0.007376
2226.000000	0.007389
2225.000000	0.007421
2224.000000	0.007467
2223.000000	0.007517
2222.000000	0.007566
2221.000000	0.007611
2220.000000	0.007648
2219.000000	0.007675
2218.000000	0.007692
2217.000000	0.007681
2216.000000	0.007609
2215.000000	0.007481
2214.000000	0.007356
2213.000000	0.007297
2212.000000	0.007300
2211.000000	0.007303
2210.000000	0.007264
2209.000000	0.007202
2208.000000	0.007155
2207.000000	0.007120
2206.000000	0.007060
2205.000000	0.006947
2204.000000	0.006805
2203.000000	0.006697
2202.000000	0.006682
2201.000000	0.006764
2200.000000	0.006891
2199.000000	0.007002
2198.000000	0.007068
2197.000000	0.007097
2196.000000	0.007107
2195.000000	0.007114
2194.000000	0.007137
2193.000000	0.007198
2192.000000	0.007315
2191.000000	0.007495
2190.000000	0.007705
2189.000000	0.007857
2188.000000	0.007860
2187.000000	0.007721
2186.000000	0.007558
2185.000000	0.007481
2184.000000	0.007480
2183.000000	0.007459
2182.000000	0.007381
2181.000000	0.007313
2180.000000	0.007329
2179.000000	0.007415
2178.000000	0.007477
2177.000000	0.007425
2176.000000	0.007245
2175.000000	0.007007
2174.000000	0.006821
2173.000000	0.006758
2172.000000	0.006816
2171.000000	0.006938
2170.000000	0.007057
2169.000000	0.007111
2168.000000	0.007052
2167.000000	0.006900
2166.000000	0.006771
2165.000000	0.006814
2164.000000	0.007079
2163.000000	0.007452
2162.000000	0.007717
2161.000000	0.007710
2160.000000	0.007448
2159.000000	0.007130
2158.000000	0.006946
2157.000000	0.006921
2156.000000	0.006942
2155.000000	0.006927
2154.000000	0.006899
2153.000000	0.006911
2152.000000	0.006961
2151.000000	0.006997
2150.000000	0.006990
2149.000000	0.006977
2148.000000	0.007009
2147.000000	0.007098
2146.000000	0.007190
2145.000000	0.007206
2144.000000	0.007119
2143.000000	0.006990
2142.000000	0.006916
2141.000000	0.006929
2140.000000	0.006985
2139.000000	0.007035
2138.000000	0.007075
2137.000000	0.007109
2136.000000	0.007114
2135.000000	0.007086
2134.000000	0.007065
2133.000000	0.007089
2132.000000	0.007137
2131.000000	0.007155
2130.000000	0.007120
2129.000000	0.007063
2128.000000	0.007023
2127.000000	0.007017
2126.000000	0.007043
2125.000000	0.007085
2124.000000	0.007119
2123.000000	0.007131
2122.000000	0.007132
2121.000000	0.007148
2120.000000	0.007182
2119.000000	0.007220
2118.000000	0.007252
2117.000000	0.007280
2116.000000	0.007307
2115.000000	0.007321
2114.000000	0.007315
2113.000000	0.007286
2112.000000	0.007240
2111.000000	0.007184
2110.000000	0.007137
2109.000000	0.007111
2108.000000	0.007101
2107.000000	0.007087
2106.000000	0.007063
2105.000000	0.007042
2104.000000	0.007041
2103.000000	0.007067
2102.000000	0.007112
2101.000000	0.007163
2100.000000	0.007198
2099.000000	0.007207
2098.000000	0.007187
2097.000000	0.007147
2096.000000	0.007099
2095.000000	0.007065
2094.000000	0.007059
2093.000000	0.007073
2092.000000	0.007086
2091.000000	0.007097
2090.000000	0.007119
2089.000000	0.007153
2088.000000	0.007171
2087.000000	0.007157
2086.000000	0.007132
2085.000000	0.007122
2084.000000	0.007120
2083.000000	0.007102
2082.000000	0.007070
2081.000000	0.007044
2080.000000	0.007032
2079.000000	0.007033
2078.000000	0.007059
2077.000000	0.007122
2076.000000	0.007199
2075.000000	0.007235
2074.000000	0.007196
2073.000000	0.007104
2072.000000	0.007027
2071.000000	0.007030
2070.000000	0.007132
2069.000000	0.007284
2068.000000	0.007403
2067.000000	0.007439
2066.000000	0.007403
2065.000000	0.007331
2064.000000	0.007237
2063.000000	0.007130
2062.000000	0.007040
2061.000000	0.006997
2060.000000	0.007001
2059.000000	0.007028
2058.000000	0.007056
2057.000000	0.007057
2056.000000	0.007005
2055.000000	0.006910
2054.000000	0.006831
2053.000000	0.006815
2052.000000	0.006847
2051.000000	0.006895
2050.000000	0.006979
2049.000000	0.007133
2048.000000	0.007318
2047.000000	0.007447
2046.000000	0.007466
2045.000000	0.007382
2044.000000	0.007227
2043.000000	0.007044
2042.000000	0.006886
2041.000000	0.006777
2040.000000	0.006692
2039.000000	0.006629
2038.000000	0.006653
2037.000000	0.006811
2036.000000	0.007031
2035.000000	0.007190
2034.000000	0.007270
2033.000000	0.007330
2032.000000	0.007367
2031.000000	0.007323
2030.000000	0.007221
2029.000000	0.007178
2028.000000	0.007250
2027.000000	0.007364
2026.000000	0.007409
2025.000000	0.007354
2024.000000	0.007250
2023.000000	0.007191
2022.000000	0.007241
2021.000000	0.007350
2020.000000	0.007358
2019.000000	0.007139
2018.000000	0.006757
2017.000000	0.006409
2016.000000	0.006226
2015.000000	0.006199
2014.000000	0.006284
2013.000000	0.006450
2012.000000	0.006639
2011.000000	0.006779
2010.000000	0.006864
2009.000000	0.006944
2008.000000	0.007029
2007.000000	0.007058
2006.000000	0.007000
2005.000000	0.006894
2004.000000	0.006782
2003.000000	0.006675
2002.000000	0.006579
2001.000000	0.006521
2000.000000	0.006509
1999.000000	0.006533
1998.000000	0.006586
1997.000000	0.006665
1996.000000	0.006737
1995.000000	0.006769
1994.000000	0.006779
1993.000000	0.006807
1992.000000	0.006845
1991.000000	0.006859
1990.000000	0.006874
1989.000000	0.006954
1988.000000	0.007094
1987.000000	0.007220
1986.000000	0.007302
1985.000000	0.007386
1984.000000	0.007485
1983.000000	0.007497
1982.000000	0.007319
1981.000000	0.006986
1980.000000	0.006666
1979.000000	0.006519
1978.000000	0.006575
1977.000000	0.006734
1976.000000	0.006849
1975.000000	0.006827
1974.000000	0.006682
1973.000000	0.006499
1972.000000	0.006373
1971.000000	0.006353
1970.000000	0.006424
1969.000000	0.006510
1968.000000	0.006532
1967.000000	0.006491
1966.000000	0.006461
1965.000000	0.006479
1964.000000	0.006498
1963.000000	0.006487
1962.000000	0.006503
1961.000000	0.006592
1960.000000	0.006676
1959.000000	0.006640
1958.000000	0.006492
1957.000000	0.006354
1956.000000	0.006316
1955.000000	0.006366
1954.000000	0.006453
1953.000000	0.006537
1952.000000	0.006584
1951.000000	0.006572
1950.000000	0.006528
1949.000000	0.006501
1948.000000	0.006501
1947.000000	0.006494
1946.000000	0.006474
1945.000000	0.006475
1944.000000	0.006513
1943.000000	0.006560
1942.000000	0.006582
1941.000000	0.006565
1940.000000	0.006512
1939.000000	0.006447
1938.000000	0.006422
1937.000000	0.006463
1936.000000	0.006517
1935.000000	0.006506
1934.000000	0.006428
1933.000000	0.006353
1932.000000	0.006331
1931.000000	0.006345
1930.000000	0.006374
1929.000000	0.006429
1928.000000	0.006508
1927.000000	0.006568
1926.000000	0.006571
1925.000000	0.006525
1924.000000	0.006455
1923.000000	0.006374
1922.000000	0.006296
1921.000000	0.006249
1920.000000	0.006244
1919.000000	0.006254
1918.000000	0.006245
1917.000000	0.006223
1916.000000	0.006221
1915.000000	0.006257
1914.000000	0.006316
1913.000000	0.006369
1912.000000	0.006382
1911.000000	0.006338
1910.000000	0.006255
1909.000000	0.006181
1908.000000	0.006144
1907.000000	0.006142
1906.000000	0.006158
1905.000000	0.006186
1904.000000	0.006223
1903.000000	0.006255
1902.000000	0.006274
1901.000000	0.006276
1900.000000	0.006250
1899.000000	0.006190
1898.000000	0.006118
1897.000000	0.006081
1896.000000	0.006103
1895.000000	0.006158
1894.000000	0.006198
1893.000000	0.006198
1892.000000	0.006171
1891.000000	0.006147
1890.000000	0.006147
1889.000000	0.006165
1888.000000	0.006170
1887.000000	0.006151
1886.000000	0.006132
1885.000000	0.006152
1884.000000	0.006215
1883.000000	0.006287
1882.000000	0.006330
1881.000000	0.006324
1880.000000	0.006272
1879.000000	0.006190
1878.000000	0.006117
1877.000000	0.006078
1876.000000	0.006059
1875.000000	0.006029
1874.000000	0.005990
1873.000000	0.005964
1872.000000	0.005951
1871.000000	0.005923
1870.000000	0.005882
1869.000000	0.005873
1868.000000	0.005914
1867.000000	0.005958
1866.000000	0.005956
1865.000000	0.005913
1864.000000	0.005875
1863.000000	0.005872
1862.000000	0.005898
1861.000000	0.005924
1860.000000	0.005931
1859.000000	0.005914
1858.000000	0.005890
1857.000000	0.005878
1856.000000	0.005875
1855.000000	0.005867
1854.000000	0.005845
1853.000000	0.005816
1852.000000	0.005780
1851.000000	0.005730
1850.000000	0.005677
1849.000000	0.005650
1848.000000	0.005665
1847.000000	0.005702
1846.000000	0.005733
1845.000000	0.005754
1844.000000	0.005770
1843.000000	0.005781
1842.000000	0.005796
1841.000000	0.005829
1840.000000	0.005874
1839.000000	0.005911
1838.000000	0.005921
1837.000000	0.005899
1836.000000	0.005845
1835.000000	0.005767
1834.000000	0.005692
1833.000000	0.005651
1832.000000	0.005653
1831.000000	0.005677
1830.000000	0.005696
1829.000000	0.005692
1828.000000	0.005671
1827.000000	0.005652
1826.000000	0.005657
1825.000000	0.005693
1824.000000	0.005734
1823.000000	0.005746
1822.000000	0.005724
1821.000000	0.005690
1820.000000	0.005657
1819.000000	0.005627
1818.000000	0.005597
1817.000000	0.005574
1816.000000	0.005557
1815.000000	0.005537
1814.000000	0.005512
1813.000000	0.005491
1812.000000	0.005482
1811.000000	0.005484
1810.000000	0.005487
1809.000000	0.005492
1808.000000	0.005502
1807.000000	0.005509
1806.000000	0.005498
1805.000000	0.005467
1804.000000	0.005425
1803.000000	0.005384
1802.000000	0.005352
1801.000000	0.005327
1800.000000	0.005308
1799.000000	0.005293
1798.000000	0.005285
1797.000000	0.005283
1796.000000	0.005281
1795.000000	0.005273
1794.000000	0.005260
1793.000000	0.005255
1792.000000	0.005264
1791.000000	0.005278
1790.000000	0.005292
1789.000000	0.005300
1788.000000	0.005286
1787.000000	0.005246
1786.000000	0.005200
1785.000000	0.005173
1784.000000	0.005168
1783.000000	0.005171
1782.000000	0.005178
1781.000000	0.005194
1780.000000	0.005212
1779.000000	0.005216
1778.000000	0.005212
1777.000000	0.005224
1776.000000	0.005259
1775.000000	0.005302
1774.000000	0.005331
1773.000000	0.005336
1772.000000	0.005302
1771.000000	0.005230
1770.000000	0.005155
1769.000000	0.005107
1768.000000	0.005080
1767.000000	0.005056
1766.000000	0.005040
1765.000000	0.005052
1764.000000	0.005084
1763.000000	0.005111
1762.000000	0.005125
1761.000000	0.005132
1760.000000	0.005137
1759.000000	0.005143
1758.000000	0.005164
1757.000000	0.005216
1756.000000	0.005281
1755.000000	0.005331
1754.000000	0.005360
1753.000000	0.005386
1752.000000	0.005417
1751.000000	0.005452
1750.000000	0.005499
1749.000000	0.005564
1748.000000	0.005628
1747.000000	0.005665
1746.000000	0.005686
1745.000000	0.005738
1744.000000	0.005829
1743.000000	0.005926
1742.000000	0.006001
1741.000000	0.006051
1740.000000	0.006067
1739.000000	0.006042
1738.000000	0.006014
1737.000000	0.006031
1736.000000	0.006087
1735.000000	0.006124
1734.000000	0.006099
1733.000000	0.006020
1732.000000	0.005947
1731.000000	0.005907
1730.000000	0.005892
1729.000000	0.005892
1728.000000	0.005892
1727.000000	0.005889
1726.000000	0.005899
1725.000000	0.005948
1724.000000	0.006022
1723.000000	0.006079
1722.000000	0.006116
1721.000000	0.006181
1720.000000	0.006303
1719.000000	0.006452
1718.000000	0.006580
1717.000000	0.006647
1716.000000	0.006657
1715.000000	0.006642
1714.000000	0.006642
1713.000000	0.006692
1712.000000	0.006796
1711.000000	0.006934
1710.000000	0.007108
1709.000000	0.007344
1708.000000	0.007649
1707.000000	0.007996
1706.000000	0.008378
1705.000000	0.008815
1704.000000	0.009318
1703.000000	0.009895
1702.000000	0.010595
1701.000000	0.011487
1700.000000	0.012442
1699.000000	0.013197
1698.000000	0.013729
1697.000000	0.014163
1696.000000	0.014525
1695.000000	0.014776
1694.000000	0.014962
1693.000000	0.015192
1692.000000	0.015502
1691.000000	0.015866
1690.000000	0.016268
1689.000000	0.016718
1688.000000	0.017222
1687.000000	0.017769
1686.000000	0.018355
1685.000000	0.019002
1684.000000	0.019624
1683.000000	0.020071
1682.000000	0.020403
1681.000000	0.020788
1680.000000	0.021282
1679.000000	0.021854
1678.000000	0.022467
1677.000000	0.023116
1676.000000	0.023781
1675.000000	0.024400
1674.000000	0.024953
1673.000000	0.025508
1672.000000	0.026112
1671.000000	0.026740
1670.000000	0.027352
1669.000000	0.027938
1668.000000	0.028504
1667.000000	0.029058
1666.000000	0.029630
1665.000000	0.030253
1664.000000	0.030916
1663.000000	0.031555
1662.000000	0.032129
1661.000000	0.032673
1660.000000	0.033229
1659.000000	0.033784
1658.000000	0.034328
1657.000000	0.034900
1656.000000	0.035521
1655.000000	0.036118
1654.000000	0.036575
1653.000000	0.036815
1652.000000	0.036915
1651.000000	0.037049
1650.000000	0.037272
1649.000000	0.037521
1648.000000	0.037725
1647.000000	0.037832
1646.000000	0.037858
1645.000000	0.037885
1644.000000	0.037968
1643.000000	0.038078
1642.000000	0.038179
1641.000000	0.038288
1640.000000	0.038460
1639.000000	0.038710
1638.000000	0.038990
1637.000000	0.039234
1636.000000	0.039399
1635.000000	0.039491
1634.000000	0.039590
1633.000000	0.039788
1632.000000	0.040092
1631.000000	0.040450
1630.000000	0.040815
1629.000000	0.041178
1628.000000	0.041552
1627.000000	0.041938
1626.000000	0.042328
1625.000000	0.042696
1624.000000	0.042991
1623.000000	0.043158
1622.000000	0.043218
1621.000000	0.043269
1620.000000	0.043355
1619.000000	0.043400
1618.000000	0.043264
1617.000000	0.042872
1616.000000	0.042302
1615.000000	0.041695
1614.000000	0.041104
1613.000000	0.040494
1612.000000	0.039817
1611.000000	0.039059
1610.000000	0.038234
1609.000000	0.037362
1608.000000	0.036460
1607.000000	0.035553
1606.000000	0.034661
1605.000000	0.033784
1604.000000	0.032917
1603.000000	0.032070
1602.000000	0.031268
1601.000000	0.030529
1600.000000	0.029845
1599.000000	0.029196
1598.000000	0.028566
1597.000000	0.027950
1596.000000	0.027366
1595.000000	0.026847
1594.000000	0.026392
1593.000000	0.025965
1592.000000	0.025532
1591.000000	0.025103
1590.000000	0.024702
1589.000000	0.024336
1588.000000	0.023999
1587.000000	0.023696
1586.000000	0.023435
1585.000000	0.023208
1584.000000	0.023000
1583.000000	0.022813
1582.000000	0.022661
1581.000000	0.022557
1580.000000	0.022512
1579.000000	0.022528
1578.000000	0.022575
1577.000000	0.022609
1576.000000	0.022622
1575.000000	0.022662
1574.000000	0.022780
1573.000000	0.022963
1572.000000	0.023168
1571.000000	0.023377
1570.000000	0.023608
1569.000000	0.023860
1568.000000	0.024119
1567.000000	0.024403
1566.000000	0.024737
1565.000000	0.025122
1564.000000	0.025552
1563.000000	0.026041
1562.000000	0.026605
1561.000000	0.027220
1560.000000	0.027886
1559.000000	0.028569
1558.000000	0.029081
1557.000000	0.029413
1556.000000	0.029738
1555.000000	0.030133
1554.000000	0.030599
1553.000000	0.031083
1552.000000	0.031561
1551.000000	0.032059
1550.000000	0.032605
1549.000000	0.033160
1548.000000	0.033663
1547.000000	0.034108
1546.000000	0.034541
1545.000000	0.035011
1544.000000	0.035523
1543.000000	0.036048
1542.000000	0.036546
1541.000000	0.036975
1540.000000	0.037286
1539.000000	0.037468
1538.000000	0.037613
1537.000000	0.037811
1536.000000	0.038048
1535.000000	0.038271
1534.000000	0.038463
1533.000000	0.038650
1532.000000	0.038858
1531.000000	0.039092
1530.000000	0.039337
1529.000000	0.039573
1528.000000	0.039795
1527.000000	0.040014
1526.000000	0.040236
1525.000000	0.040460
1524.000000	0.040675
1523.000000	0.040857
1522.000000	0.040994
1521.000000	0.041109
1520.000000	0.041239
1519.000000	0.041401
1518.000000	0.041570
1517.000000	0.041713
1516.000000	0.041816
1515.000000	0.041864
1514.000000	0.041811
1513.000000	0.041606
1512.000000	0.041281
1511.000000	0.040962
1510.000000	0.040732
1509.000000	0.040534
1508.000000	0.040228
1507.000000	0.039700
1506.000000	0.038973
1505.000000	0.038246
1504.000000	0.037661
1503.000000	0.037181
1502.000000	0.036714
1501.000000	0.036210
1500.000000	0.035680
1499.000000	0.035146
1498.000000	0.034579
1497.000000	0.033936
1496.000000	0.033250
1495.000000	0.032609
1494.000000	0.032045
1493.000000	0.031506
1492.000000	0.030922
1491.000000	0.030279
1490.000000	0.029627
1489.000000	0.029021
1488.000000	0.028474
1487.000000	0.027959
1486.000000	0.027454
1485.000000	0.026968
1484.000000	0.026523
1483.000000	0.026120
1482.000000	0.025757
1481.000000	0.025449
1480.000000	0.025201
1479.000000	0.024996
1478.000000	0.024809
1477.000000	0.024656
1476.000000	0.024567
1475.000000	0.024542
1474.000000	0.024550
1473.000000	0.024581
1472.000000	0.024634
1471.000000	0.024704
1470.000000	0.024786
1469.000000	0.024885
1468.000000	0.024991
1467.000000	0.025084
1466.000000	0.025140
1465.000000	0.025155
1464.000000	0.025150
1463.000000	0.025157
1462.000000	0.025214
1461.000000	0.025342
1460.000000	0.025541
1459.000000	0.025789
1458.000000	0.026074
1457.000000	0.026365
1456.000000	0.026583
1455.000000	0.026711
1454.000000	0.026807
1453.000000	0.026903
1452.000000	0.026999
1451.000000	0.027082
1450.000000	0.027141
1449.000000	0.027176
1448.000000	0.027190
1447.000000	0.027181
1446.000000	0.027143
1445.000000	0.027073
1444.000000	0.026968
1443.000000	0.026826
1442.000000	0.026655
1441.000000	0.026481
1440.000000	0.026331
1439.000000	0.026189
1438.000000	0.026008
1437.000000	0.025757
1436.000000	0.025471
1435.000000	0.025222
1434.000000	0.025043
1433.000000	0.024907
1432.000000	0.024779
1431.000000	0.024655
1430.000000	0.024553
1429.000000	0.024490
1428.000000	0.024467
1427.000000	0.024467
1426.000000	0.024477
1425.000000	0.024505
1424.000000	0.024577
1423.000000	0.024699
1422.000000	0.024844
1421.000000	0.024984
1420.000000	0.025120
1419.000000	0.025279
1418.000000	0.025462
1417.000000	0.025652
1416.000000	0.025838
1415.000000	0.026016
1414.000000	0.026184
1413.000000	0.026352
1412.000000	0.026528
1411.000000	0.026712
1410.000000	0.026894
1409.000000	0.027065
1408.000000	0.027215
1407.000000	0.027346
1406.000000	0.027471
1405.000000	0.027608
1404.000000	0.027744
1403.000000	0.027857
1402.000000	0.027933
1401.000000	0.027977
1400.000000	0.028001
1399.000000	0.028019
1398.000000	0.028052
1397.000000	0.028112
1396.000000	0.028189
1395.000000	0.028258
1394.000000	0.028305
1393.000000	0.028339
1392.000000	0.028375
1391.000000	0.028405
1390.000000	0.028419
1389.000000	0.028422
1388.000000	0.028435
1387.000000	0.028467
1386.000000	0.028508
1385.000000	0.028543
1384.000000	0.028564
1383.000000	0.028568
1382.000000	0.028554
1381.000000	0.028518
1380.000000	0.028463
1379.000000	0.028398
1378.000000	0.028336
1377.000000	0.028288
1376.000000	0.028247
1375.000000	0.028207
1374.000000	0.028176
1373.000000	0.028161
1372.000000	0.028149
1371.000000	0.028118
1370.000000	0.028061
1369.000000	0.027983
1368.000000	0.027882
1367.000000	0.027738
1366.000000	0.027545
1365.000000	0.027331
1364.000000	0.027138
1363.000000	0.027000
1362.000000	0.026915
1361.000000	0.026851
1360.000000	0.026785
1359.000000	0.026708
1358.000000	0.026630
1357.000000	0.026576
1356.000000	0.026561
1355.000000	0.026576
1354.000000	0.026605
1353.000000	0.026637
1352.000000	0.026675
1351.000000	0.026718
1350.000000	0.026755
1349.000000	0.026785
1348.000000	0.026819
1347.000000	0.026871
1346.000000	0.026939
1345.000000	0.027012
1344.000000	0.027079
1343.000000	0.027133
1342.000000	0.027173
1341.000000	0.027207
1340.000000	0.027243
1339.000000	0.027284
1338.000000	0.027325
1337.000000	0.027359
1336.000000	0.027384
1335.000000	0.027400
1334.000000	0.027401
1333.000000	0.027390
1332.000000	0.027372
1331.000000	0.027356
1330.000000	0.027338
1329.000000	0.027307
1328.000000	0.027255
1327.000000	0.027189
1326.000000	0.027124
1325.000000	0.027075
1324.000000	0.027041
1323.000000	0.027018
1322.000000	0.027006
1321.000000	0.027007
1320.000000	0.027011
1319.000000	0.027015
1318.000000	0.027026
1317.000000	0.027051
1316.000000	0.027074
1315.000000	0.027075
1314.000000	0.027050
1313.000000	0.027017
1312.000000	0.026990
1311.000000	0.026961
1310.000000	0.026918
1309.000000	0.026860
1308.000000	0.026794
1307.000000	0.026721
1306.000000	0.026642
1305.000000	0.026564
1304.000000	0.026492
1303.000000	0.026423
1302.000000	0.026355
1301.000000	0.026289
1300.000000	0.026220
1299.000000	0.026138
1298.000000	0.026041
1297.000000	0.025938
1296.000000	0.025840
1295.000000	0.025745
1294.000000	0.025645
1293.000000	0.025546
1292.000000	0.025461
1291.000000	0.025398
1290.000000	0.025347
1289.000000	0.025295
1288.000000	0.025235
1287.000000	0.025164
1286.000000	0.025087
1285.000000	0.025015
1284.000000	0.024960
1283.000000	0.024927
1282.000000	0.024909
1281.000000	0.024891
1280.000000	0.024854
1279.000000	0.024792
1278.000000	0.024722
1277.000000	0.024668
1276.000000	0.024644
1275.000000	0.024638
1274.000000	0.024629
1273.000000	0.024611
1272.000000	0.024595
1271.000000	0.024595
1270.000000	0.024614
1269.000000	0.024647
1268.000000	0.024683
1267.000000	0.024720
1266.000000	0.024759
1265.000000	0.024805
1264.000000	0.024855
1263.000000	0.024904
1262.000000	0.024959
1261.000000	0.025040
1260.000000	0.025163
1259.000000	0.025309
1258.000000	0.025447
1257.000000	0.025562
1256.000000	0.025669
1255.000000	0.025787
1254.000000	0.025920
1253.000000	0.026065
1252.000000	0.026218
1251.000000	0.026378
1250.000000	0.026546
1249.000000	0.026719
1248.000000	0.026896
1247.000000	0.027075
1246.000000	0.027251
1245.000000	0.027421
1244.000000	0.027582
1243.000000	0.027730
1242.000000	0.027865
1241.000000	0.027983
1240.000000	0.028079
1239.000000	0.028152
1238.000000	0.028210
1237.000000	0.028268
1236.000000	0.028337
1235.000000	0.028407
1234.000000	0.028460
1233.000000	0.028484
1232.000000	0.028487
1231.000000	0.028481
1230.000000	0.028472
1229.000000	0.028460
1228.000000	0.028443
1227.000000	0.028423
1226.000000	0.028397
1225.000000	0.028355
1224.000000	0.028286
1223.000000	0.028193
1222.000000	0.028099
1221.000000	0.028024
1220.000000	0.027964
1219.000000	0.027891
1218.000000	0.027788
1217.000000	0.027663
1216.000000	0.027537
1215.000000	0.027422
1214.000000	0.027313
1213.000000	0.027195
1212.000000	0.027051
1211.000000	0.026869
1210.000000	0.026660
1209.000000	0.026453
1208.000000	0.026270
1207.000000	0.026108
1206.000000	0.025951
1205.000000	0.025787
1204.000000	0.025616
1203.000000	0.025440
1202.000000	0.025253
1201.000000	0.025055
1200.000000	0.024854
1199.000000	0.024667
1198.000000	0.024507
1197.000000	0.024375
1196.000000	0.024260
1195.000000	0.024143
1194.000000	0.024015
1193.000000	0.023884
1192.000000	0.023776
1191.000000	0.023702
1190.000000	0.023647
1189.000000	0.023583
1188.000000	0.023495
1187.000000	0.023397
1186.000000	0.023314
1185.000000	0.023256
1184.000000	0.023219
1183.000000	0.023201
1182.000000	0.023202
1181.000000	0.023222
1180.000000	0.023256
1179.000000	0.023296
1178.000000	0.023347
1177.000000	0.023426
1176.000000	0.023550
1175.000000	0.023720
1174.000000	0.023910
1173.000000	0.024088
1172.000000	0.024228
1171.000000	0.024321
1170.000000	0.024378
1169.000000	0.024430
1168.000000	0.024508
1167.000000	0.024622
1166.000000	0.024749
1165.000000	0.024858
1164.000000	0.024929
1163.000000	0.024960
1162.000000	0.024955
1161.000000	0.024916
1160.000000	0.024845
1159.000000	0.024757
1158.000000	0.024668
1157.000000	0.024587
1156.000000	0.024505
1155.000000	0.024411
1154.000000	0.024298
1153.000000	0.024169
1152.000000	0.024032
1151.000000	0.023905
1150.000000	0.023795
1149.000000	0.023689
1148.000000	0.023559
1147.000000	0.023394
1146.000000	0.023210
1145.000000	0.023038
1144.000000	0.022891
1143.000000	0.022765
1142.000000	0.022652
1141.000000	0.022553
1140.000000	0.022474
1139.000000	0.022416
1138.000000	0.022371
1137.000000	0.022328
1136.000000	0.022277
1135.000000	0.022206
1134.000000	0.022122
1133.000000	0.022044
1132.000000	0.021988
1131.000000	0.021944
1130.000000	0.021886
1129.000000	0.021800
1128.000000	0.021709
1127.000000	0.021642
1126.000000	0.021614
1125.000000	0.021612
1124.000000	0.021613
1123.000000	0.021599
1122.000000	0.021564
1121.000000	0.021517
1120.000000	0.021466
1119.000000	0.021416
1118.000000	0.021367
1117.000000	0.021329
1116.000000	0.021311
1115.000000	0.021314
1114.000000	0.021315
1113.000000	0.021288
1112.000000	0.021227
1111.000000	0.021150
1110.000000	0.021078
1109.000000	0.021026
1108.000000	0.021005
1107.000000	0.021018
1106.000000	0.021053
1105.000000	0.021084
1104.000000	0.021090
1103.000000	0.021075
1102.000000	0.021049
1101.000000	0.021020
1100.000000	0.020989
1099.000000	0.020964
1098.000000	0.020958
1097.000000	0.020978
1096.000000	0.021021
1095.000000	0.021073
1094.000000	0.021125
1093.000000	0.021185
1092.000000	0.021271
1091.000000	0.021393
1090.000000	0.021537
1089.000000	0.021677
1088.000000	0.021798
1087.000000	0.021911
1086.000000	0.022042
1085.000000	0.022211
1084.000000	0.022415
1083.000000	0.022631
1082.000000	0.022834
1081.000000	0.023023
1080.000000	0.023207
1079.000000	0.023395
1078.000000	0.023576
1077.000000	0.023739
1076.000000	0.023889
1075.000000	0.024050
1074.000000	0.024229
1073.000000	0.024406
1072.000000	0.024556
1071.000000	0.024676
1070.000000	0.024792
1069.000000	0.024924
1068.000000	0.025057
1067.000000	0.025166
1066.000000	0.025237
1065.000000	0.025276
1064.000000	0.025295
1063.000000	0.025300
1062.000000	0.025297
1061.000000	0.025293
1060.000000	0.025290
1059.000000	0.025283
1058.000000	0.025266
1057.000000	0.025234
1056.000000	0.025179
1055.000000	0.025097
1054.000000	0.024998
1053.000000	0.024901
1052.000000	0.024817
1051.000000	0.024729
1050.000000	0.024617
1049.000000	0.024495
1048.000000	0.024405
1047.000000	0.024374
1046.000000	0.024380
1045.000000	0.024377
1044.000000	0.024350
1043.000000	0.024327
1042.000000	0.024347
1041.000000	0.024409
1040.000000	0.024478
1039.000000	0.024514
1038.000000	0.024505
1037.000000	0.024463
1036.000000	0.024401
1035.000000	0.024329
1034.000000	0.024259
1033.000000	0.024188
1032.000000	0.024099
1031.000000	0.023969
1030.000000	0.023791
1029.000000	0.023584
1028.000000	0.023378
1027.000000	0.023183
1026.000000	0.022990
1025.000000	0.022786
1024.000000	0.022567
1023.000000	0.022338
1022.000000	0.022100
1021.000000	0.021853
1020.000000	0.021610
1019.000000	0.021397
1018.000000	0.021231
1017.000000	0.021096
1016.000000	0.020959
1015.000000	0.020796
1014.000000	0.020616
1013.000000	0.020453
1012.000000	0.020340
1011.000000	0.020281
1010.000000	0.020243
1009.000000	0.020175
1008.000000	0.020046
1007.000000	0.019863
1006.000000	0.019662
1005.000000	0.019478
1004.000000	0.019331
1003.000000	0.019226
1002.000000	0.019154
1001.000000	0.019098
1000.000000	0.019038
999.000000	0.018969
998.000000	0.018897
997.000000	0.018831
996.000000	0.018775
995.000000	0.018727
994.000000	0.018680
993.000000	0.018625
992.000000	0.018560
991.000000	0.018490
990.000000	0.018423
989.000000	0.018357
988.000000	0.018284
987.000000	0.018216
986.000000	0.018193
985.000000	0.018255
984.000000	0.018398
983.000000	0.018564
982.000000	0.018675
981.000000	0.018691
980.000000	0.018626
979.000000	0.018534
978.000000	0.018472
977.000000	0.018474
976.000000	0.018536
975.000000	0.018631
974.000000	0.018730
973.000000	0.018813
972.000000	0.018875
971.000000	0.018919
970.000000	0.018954
969.000000	0.018995
968.000000	0.019051
967.000000	0.019112
966.000000	0.019154
965.000000	0.019156
964.000000	0.019118
963.000000	0.019058
962.000000	0.018996
961.000000	0.018945
960.000000	0.018910
959.000000	0.018882
958.000000	0.018845
957.000000	0.018774
956.000000	0.018654
955.000000	0.018495
954.000000	0.018327
953.000000	0.018188
952.000000	0.018095
951.000000	0.018038
950.000000	0.017985
949.000000	0.017912
948.000000	0.017829
947.000000	0.017770
946.000000	0.017756
945.000000	0.017764
944.000000	0.017744
943.000000	0.017682
942.000000	0.017610
941.000000	0.017567
940.000000	0.017562
939.000000	0.017577
938.000000	0.017601
937.000000	0.017633
936.000000	0.017665
935.000000	0.017681
934.000000	0.017679
933.000000	0.017681
932.000000	0.017697
931.000000	0.017712
930.000000	0.017709
929.000000	0.017687
928.000000	0.017657
927.000000	0.017631
926.000000	0.017614
925.000000	0.017609
924.000000	0.017603
923.000000	0.017576
922.000000	0.017520
921.000000	0.017464
920.000000	0.017430
919.000000	0.017404
918.000000	0.017347
917.000000	0.017245
916.000000	0.017122
915.000000	0.017014
914.000000	0.016938
913.000000	0.016895
912.000000	0.016873
911.000000	0.016850
910.000000	0.016795
909.000000	0.016695
908.000000	0.016575
907.000000	0.016475
906.000000	0.016419
905.000000	0.016413
904.000000	0.016445
903.000000	0.016491
902.000000	0.016517
901.000000	0.016502
900.000000	0.016461
899.000000	0.016425
898.000000	0.016419
897.000000	0.016438
896.000000	0.016460
895.000000	0.016469
894.000000	0.016462
893.000000	0.016445
892.000000	0.016417
891.000000	0.016362
890.000000	0.016256
889.000000	0.016096
888.000000	0.015914
887.000000	0.015770
886.000000	0.015721
885.000000	0.015778
884.000000	0.015886
883.000000	0.015951
882.000000	0.015922
881.000000	0.015834
880.000000	0.015774
879.000000	0.015789
878.000000	0.015844
877.000000	0.015870
876.000000	0.015840
875.000000	0.015782
874.000000	0.015743
873.000000	0.015741
872.000000	0.015767
871.000000	0.015792
870.000000	0.015790
869.000000	0.015751
868.000000	0.015692
867.000000	0.015637
866.000000	0.015598
865.000000	0.015568
864.000000	0.015546
863.000000	0.015544
862.000000	0.015582
861.000000	0.015654
860.000000	0.015728
859.000000	0.015772
858.000000	0.015775
857.000000	0.015743
856.000000	0.015677
855.000000	0.015580
854.000000	0.015487
853.000000	0.015456
852.000000	0.015512
851.000000	0.015618
850.000000	0.015709
849.000000	0.015757
848.000000	0.015774
847.000000	0.015770
846.000000	0.015746
845.000000	0.015718
844.000000	0.015714
843.000000	0.015741
842.000000	0.015768
841.000000	0.015770
840.000000	0.015761
839.000000	0.015778
838.000000	0.015839
837.000000	0.015937
836.000000	0.016059
835.000000	0.016195
834.000000	0.016330
833.000000	0.016460
832.000000	0.016591
831.000000	0.016733
830.000000	0.016881
829.000000	0.017014
828.000000	0.017109
827.000000	0.017149
826.000000	0.017129
825.000000	0.017063
824.000000	0.016965
823.000000	0.016836
822.000000	0.016679
821.000000	0.016534
820.000000	0.016456
819.000000	0.016457
818.000000	0.016482
817.000000	0.016473
816.000000	0.016436
815.000000	0.016433
814.000000	0.016505
813.000000	0.016620
812.000000	0.016716
811.000000	0.016762
810.000000	0.016772
809.000000	0.016778
808.000000	0.016803
807.000000	0.016844
806.000000	0.016887
805.000000	0.016931
804.000000	0.016998
803.000000	0.017096
802.000000	0.017204
801.000000	0.017273
800.000000	0.017283
799.000000	0.017255
798.000000	0.017236
797.000000	0.017243
796.000000	0.017264
795.000000	0.017293
794.000000	0.017355
793.000000	0.017472
792.000000	0.017617
791.000000	0.017728
790.000000	0.017783
789.000000	0.017830
788.000000	0.017939
787.000000	0.018120
786.000000	0.018322
785.000000	0.018492
784.000000	0.018619
783.000000	0.018721
782.000000	0.018832
781.000000	0.018986
780.000000	0.019185
779.000000	0.019385
778.000000	0.019521
777.000000	0.019577
776.000000	0.019606
775.000000	0.019680
774.000000	0.019825
773.000000	0.020013
772.000000	0.020196
771.000000	0.020318
770.000000	0.020347
769.000000	0.020303
768.000000	0.020249
767.000000	0.020232
766.000000	0.020252
765.000000	0.020278
764.000000	0.020293
763.000000	0.020296
762.000000	0.020281
761.000000	0.020255
760.000000	0.020242
759.000000	0.020271
758.000000	0.020336
757.000000	0.020414
756.000000	0.020489
755.000000	0.020546
754.000000	0.020579
753.000000	0.020614
752.000000	0.020720
751.000000	0.020933
750.000000	0.021180
749.000000	0.021339
748.000000	0.021375
747.000000	0.021385
746.000000	0.021485
745.000000	0.021675
744.000000	0.021858
743.000000	0.021961
742.000000	0.022008
741.000000	0.022067
740.000000	0.022160
739.000000	0.022238
738.000000	0.022239
737.000000	0.022172
736.000000	0.022105
735.000000	0.022095
734.000000	0.022132
733.000000	0.022171
732.000000	0.022217
731.000000	0.022324
730.000000	0.022527
729.000000	0.022780
728.000000	0.022998
727.000000	0.023145
726.000000	0.023276
725.000000	0.023484
724.000000	0.023806
723.000000	0.024182
722.000000	0.024505
721.000000	0.024734
720.000000	0.024938
719.000000	0.025226
718.000000	0.025625
717.000000	0.026047
716.000000	0.026377
715.000000	0.026579
714.000000	0.026712
713.000000	0.026866
712.000000	0.027104
711.000000	0.027436
710.000000	0.027818
709.000000	0.028171
708.000000	0.028444
707.000000	0.028673
706.000000	0.028950
705.000000	0.029319
704.000000	0.029721
703.000000	0.030073
702.000000	0.030377
701.000000	0.030694
700.000000	0.031034
699.000000	0.031304
698.000000	0.031407
697.000000	0.031351
696.000000	0.031230
695.000000	0.031120
694.000000	0.031034
693.000000	0.030985
692.000000	0.031018
691.000000	0.031146
690.000000	0.031283
689.000000	0.031318
688.000000	0.031243
687.000000	0.031162
686.000000	0.031160
685.000000	0.031210
684.000000	0.031253
683.000000	0.031298
682.000000	0.031408
681.000000	0.031597
680.000000	0.031802
679.000000	0.031928
678.000000	0.031927
677.000000	0.031838
676.000000	0.031763
675.000000	0.031776
674.000000	0.031865
673.000000	0.031963
672.000000	0.032011
671.000000	0.031981
670.000000	0.031850
669.000000	0.031634
668.000000	0.031509
667.000000	0.031693
666.000000	0.032060
665.000000	0.032444
664.000000	0.032766
663.000000	0.032996
662.000000	0.033143
661.000000	0.033225
660.000000	0.033241
659.000000	0.033220
658.000000	0.033247
657.000000	0.033379
656.000000	0.033543
655.000000	0.033574
654.000000	0.033415
653.000000	0.033187
652.000000	0.033052
651.000000	0.033066
650.000000	0.033184
649.000000	0.033355
648.000000	0.033558
647.000000	0.033790
646.000000	0.034030
645.000000	0.034227
644.000000	0.034332
643.000000	0.034353
642.000000	0.034347
641.000000	0.034351
640.000000	0.034335
639.000000	0.034273
638.000000	0.034219
637.000000	0.034245
636.000000	0.034353
635.000000	0.034497
634.000000	0.034676
633.000000	0.034925
632.000000	0.035221
631.000000	0.035479
630.000000	0.035653
629.000000	0.035774
628.000000	0.035862
627.000000	0.035895
626.000000	0.035875
625.000000	0.035866
624.000000	0.035940
623.000000	0.036126
622.000000	0.036412
621.000000	0.036744
620.000000	0.036995
619.000000	0.037029
618.000000	0.036830
617.000000	0.036555
616.000000	0.036401
615.000000	0.036470
614.000000	0.036733
613.000000	0.037061
612.000000	0.037284
611.000000	0.037293
610.000000	0.037150
609.000000	0.037024
608.000000	0.036988
607.000000	0.036927
606.000000	0.036700
605.000000	0.036341
604.000000	0.036041
603.000000	0.035944
602.000000	0.036019
601.000000	0.036092
600.000000	0.036024
599.000000	0.035839
598.000000	0.035696
597.000000	0.035711
596.000000	0.035832
595.000000	0.035934
594.000000	0.035999
593.000000	0.036113
592.000000	0.036299
591.000000	0.036452
590.000000	0.036489
589.000000	0.036443
588.000000	0.036359
587.000000	0.036214
586.000000	0.036016
585.000000	0.035887
584.000000	0.035933
583.000000	0.036109
582.000000	0.036303
581.000000	0.036525
580.000000	0.036875
579.000000	0.037338
578.000000	0.037721
577.000000	0.037858
576.000000	0.037783
575.000000	0.037676
574.000000	0.037645
573.000000	0.037608
572.000000	0.037420
571.000000	0.037090
570.000000	0.036831
569.000000	0.036837
568.000000	0.037047
567.000000	0.037229
566.000000	0.037287
565.000000	0.037362
564.000000	0.037607
563.000000	0.037956
562.000000	0.038204
561.000000	0.038233
560.000000	0.038083
559.000000	0.037863
558.000000	0.037695
557.000000	0.037672
556.000000	0.037788
555.000000	0.037931
554.000000	0.037992
553.000000	0.037990
552.000000	0.038015
551.000000	0.038087
550.000000	0.038137
549.000000	0.038079
548.000000	0.037864
547.000000	0.037526
546.000000	0.037249
545.000000	0.037284
544.000000	0.037693
543.000000	0.038235
542.000000	0.038600
541.000000	0.038742
540.000000	0.038850
539.000000	0.039022
538.000000	0.039112
537.000000	0.038987
536.000000	0.038772
535.000000	0.038744
534.000000	0.038988
533.000000	0.039294
532.000000	0.039419
531.000000	0.039402
530.000000	0.039544
529.000000	0.040075
528.000000	0.040860
527.000000	0.041478
526.000000	0.041605
525.000000	0.041312
524.000000	0.040921
523.000000	0.040643
522.000000	0.040455
521.000000	0.040225
520.000000	0.039871
519.000000	0.039422
518.000000	0.039017
517.000000	0.038814
516.000000	0.038822
515.000000	0.038848
514.000000	0.038677
513.000000	0.038316
512.000000	0.038008
511.000000	0.038025
510.000000	0.038419
509.000000	0.038985
508.000000	0.039425
507.000000	0.039540
506.000000	0.039346
505.000000	0.039010
504.000000	0.038654
503.000000	0.038260
502.000000	0.037803
501.000000	0.037414
500.000000	0.037299
499.000000	0.037489
498.000000	0.037760
497.000000	0.037848
496.000000	0.037727
495.000000	0.037612
494.000000	0.037684
493.000000	0.037858
492.000000	0.037896
491.000000	0.037740
490.000000	0.037594
489.000000	0.037632
488.000000	0.037679
487.000000	0.037344
486.000000	0.036490
485.000000	0.035516
484.000000	0.035067
483.000000	0.035445
482.000000	0.036333
481.000000	0.037135
480.000000	0.037496
479.000000	0.037488
478.000000	0.037413
477.000000	0.037480
476.000000	0.037665
475.000000	0.037879
474.000000	0.038164
473.000000	0.038626
472.000000	0.039182
471.000000	0.039499
470.000000	0.039260
469.000000	0.038426
468.000000	0.037289
467.000000	0.036390
466.000000	0.036204
465.000000	0.036680
464.000000	0.037165
463.000000	0.036931
462.000000	0.035917
461.000000	0.034863
460.000000	0.034593
459.000000	0.035265
458.000000	0.036266
457.000000	0.036796
456.000000	0.036652
455.000000	0.036275
454.000000	0.036106
453.000000	0.036084
452.000000	0.035725
451.000000	0.034738
450.000000	0.033601
449.000000	0.033262
448.000000	0.034200
447.000000	0.035815
446.000000	0.036907
445.000000	0.036833
444.000000	0.035991
443.000000	0.035286
442.000000	0.035244
441.000000	0.035633
440.000000	0.035925
439.000000	0.035930
438.000000	0.035883
437.000000	0.036018
436.000000	0.036171
435.000000	0.035914
434.000000	0.035081
433.000000	0.033958
432.000000	0.032951
431.000000	0.032238
430.000000	0.031741
429.000000	0.031367
428.000000	0.031177
427.000000	0.031291
426.000000	0.031724
425.000000	0.032297
424.000000	0.032697
423.000000	0.032708
422.000000	0.032452
421.000000	0.032275
420.000000	0.032340
419.000000	0.032293
418.000000	0.031476
417.000000	0.029775
416.000000	0.027765
415.000000	0.026207
414.000000	0.025746
413.000000	0.026497
412.000000	0.027906
411.000000	0.029286
410.000000	0.030492
409.000000	0.031854
408.000000	0.033344
407.000000	0.034226
406.000000	0.033871
405.000000	0.032630
404.000000	0.031359
403.000000	0.030445
402.000000	0.029680
401.000000	0.028768
400.000000	0.027636
