##TITLE= Sample 148 By YargerLab Date Wednesday, June 05 2024
##JCAMP-DX= 4.24
##DATA TYPE= INFRARED SPECTRUM
##ORIGIN= Exported PE Spectrum Data File
##OWNER= Yarger Lab
##DATE= 24/06/05
##TIME= 20:39:10.00
##SPECTROMETER/DATA SYSTEM= PERKIN-ELMER Spectrum Two IR
##INSTRUMENT PARAMETERS=
  APODIZATION=Strong
  DETECTOR=LiTa03
##RESOLUTION= 4.000000
##DELTAX= -1.000000
##XUNITS= 1/CM
##YUNITS= A
##XFACTOR= 1.00
##YFACTOR= 0.00000000023841857910
##FIRSTX= 4000.00
##LASTX= 400.00
##NPOINTS= 3601
##FIRSTY= 0.006110
##MAXY= 0.090946
##MINY= 0.005181
##XYDATA= (X++(Y..Y))
  4000.000000   025628558   025638802   025628632   025609734   025695503  
  3995.000000   025689627   025668710   025630333   025587553   025560742  
  3990.000000   025562816   025590253   025627436   025656920   025668292  
  3985.000000   025661834   025647947   025641795   025654881   025687532  
  3980.000000   025726817   025754572   025759882   025746610   025729318  
  3975.000000   025719419   025714958   025702868   025672123   025625587  
  3970.000000   025577811   025543485   025529014   025531644   025543468  
  3965.000000   025555174   025557997   025547310   025526474   025503279  
  3960.000000   025483681   025470531   025465185   025470550   025489623  
  3955.000000   025519464   025548649   025561493   025548471   025512839  
  3950.000000   025468834   025436746   025432862   025459094   025500453  
  3945.000000   025534472   025544525   025528697   025503194   025490080  
  3940.000000   025498761   025518605   025523700   025492653   025427610  
  3935.000000   025354071   025303763   025289415   025301178   025320290  
  3930.000000   025335770   025351504   025372232   025394680   025411195  
  3925.000000   025411784   025391456   025357369   025323798   025302587  
  3920.000000   025294789   025295300   025301388   025309162   025310036  
  3915.000000   025299526   025290215   025298928   025323968   025344875  
  3910.000000   025337165   025294278   025230543   025164478   025107119  
  3905.000000   025059281   025019771   024992979   024981929   024980035  
  3900.000000   024974947   024954645   024928038   024920476   024948374  
  3895.000000   025007263   025074044   025118777   025124687   025096115  
  3890.000000   025049268   025002288   024969724   024956360   024949026  
  3885.000000   024927669   024892880   024870153   024880902   024912819  
  3880.000000   024929433   024907258   024859403   024819018   024810053  
  3875.000000   024825064   024833351   024808619   024761568   024730805  
  3870.000000   024734169   024745600   024729301   024686260   024650274  
  3865.000000   024637070   024636820   024646340   024671326   024718770  
  3860.000000   024784225   024859545   024937302   025006656   025040150  
  3855.000000   025001770   024890076   024782108   024725769   024698545  
  3850.000000   024675855   024650946   024621333   024598332   024595397  
  3845.000000   024605307   024607971   024587407   024543698   024499023  
  3840.000000   024473108   024465851   024468758   024471169   024465419  
  3835.000000   024449849   024427653   024407177   024391618   024383821  
  3830.000000   024394884   024429354   024476277   024515426   024527051  
  3825.000000   024503608   024454705   024403168   024365499   024345253  
  3820.000000   024326934   024312006   024319000   024358101   024413646  
  3815.000000   024457980   024492479   024535717   024590571   024635143  
  3810.000000   024641481   024597821   024525113   024458295   024417976  
  3805.000000   024407082   024420342   024439310   024421057   024331252  
  3800.000000   024199671   024099556   024080651   024137545   024225260  
  3795.000000   024303966   024363776   024409694   024435815   024432798  
  3790.000000   024403169   024364383   024336357   024328830   024340850  
  3785.000000   024364392   024384416   024387620   024372785   024345997  
  3780.000000   024315037   024286301   024265881   024257514   024264935  
  3775.000000   024288295   024320570   024351433   024377578   024402676  
  3770.000000   024415875   024401189   024362093   024324378   024313697  
  3765.000000   024326726   024338747   024330504   024303101   024263980  
  3760.000000   024213139   024158027   024111475   024070458   024021673  
  3755.000000   023964147   023918773   023909675   023933293   023970397  
  3750.000000   024007376   024032436   024042273   024051346   024085267  
  3745.000000   024141156   024179283   024157638   024079853   023983933  
  3740.000000   023887571   023793604   023716897   023680304   023686436  
  3735.000000   023702457   023716554   023756048   023831815   023921881  
  3730.000000   024003434   024069265   024118430   024138723   024118732  
  3725.000000   024072148   024039150   024039690   024056311   024063765  
  3720.000000   024045775   024006645   023970407   023956458   023968746  
  3715.000000   023994888   024022917   024048118   024067424   024089551  
  3710.000000   024119955   024149722   024166503   024163866   024146740  
  3705.000000   024122981   024099748   024085674   024089527   024116271  
  3700.000000   024154978   024187431   024210637   024228567   024243408  
  3695.000000   024262726   024301704   024364307   024425103   024452667  
  3690.000000   024450747   024460436   024499251   024543773   024572945  
  3685.000000   024593352   024616557   024655645   024735193   024880637  
  3680.000000   025093868   025332139   025542153   025697409   025785855  
  3675.000000   025802214   025755030   025678717   025613846   025583026  
  3670.000000   025584326   025623303   025715878   025860486   026034801  
  3665.000000   026214751   026381456   026530755   026666896   026791350  
  3660.000000   026903521   027000444   027085425   027166854   027253166  
  3655.000000   027348459   027450439   027556380   027652242   027712572  
  3650.000000   027733769   027778777   027914274   028126699   028360250  
  3645.000000   028584182   028793696   028988056   029162912   029316887  
  3640.000000   029458758   029596811   029731153   029859450   029990774  
  3635.000000   030143707   030326434   030534713   030769808   031042246  
  3630.000000   031337376   031586385   031725415   031782512   031839684  
  3625.000000   031948125   032101269   032268934   032445558   032659712  
  3620.000000   032920106   033178954   033372858   033488479   033574137  
  3615.000000   033696149   033877851   034082086   034260446   034411919  
  3610.000000   034587838   034832412   035126169   035414982   035667150  
  3605.000000   035886363   036087201   036276961   036461377   036648499  
  3600.000000   036841014   037045351   037281109   037557277   037857721  
  3595.000000   038147536   038394031   038583330   038725934   038861499  
  3590.000000   039052280   039342160   039702412   040046008   040318480  
  3585.000000   040541097   040762059   041006174   041272135   041546894  
  3580.000000   041819439   042088325   042362751   042647605   042932302  
  3575.000000   043203432   043456725   043693747   043914294   044124717  
  3570.000000   044351979   044635266   044981432   045340214   045645556  
  3565.000000   045880409   046082181   046302551   046569567   046878181  
  3560.000000   047203139   047521867   047824866   048108801   048371002  
  3555.000000   048620823   048880877   049162218   049446163   049706481  
  3550.000000   049943292   050183607   050449890   050743990   051056019  
  3545.000000   051372286   051673771   051944656   052188159   052428545  
  3540.000000   052692789   052991265   053314131   053636525   053933344  
  3535.000000   054194597   054430521   054659212   054894578   055148141  
  3530.000000   055429778   055736932   056048263   056343812   056629443  
  3525.000000   056927961   057244647   057556048   057835210   058078733  
  3520.000000   058306220   058544390   058815645   059127666   059467670  
  3515.000000   059809673   060133056   060436221   060735426   061048795  
  3510.000000   061376874   061696134   061980989   062238495   062511898  
  3505.000000   062839194   063208025   063563749   063864958   064122419  
  3500.000000   064378673   064664521   064980025   065305912   065625600  
  3495.000000   065938630   066256772   066590063   066940017   067303202  
  3490.000000   067672962   068035835   068374911   068685663   068984065  
  3485.000000   069291424   069616608   069956388   070304654   070653443  
  3480.000000   070993860   071328740   071677159   072053992   072445673  
  3475.000000   072818737   073153434   073461462   073773121   074114131  
  3470.000000   074488246   074870381   075220270   075517748   075786739  
  3465.000000   076072975   076397243   076740066   077071060   077381388  
  3460.000000   077684078   077993692   078311940   078628485   078934178  
  3455.000000   079232054   079533628   079841751   080145782   080442502  
  3450.000000   080750586   081090225   081450253   081794116   082103673  
  3445.000000   082401133   082719559   083063943   083411604   083744762  
  3440.000000   084073077   084421714   084799678   085183457   085535534  
  3435.000000   085839591   086117440   086411181   086750727   087136519  
  3430.000000   087543772   087940503   088307343   088648665   088985486  
  3425.000000   089336541   089707967   090097915   090502141   090911558  
  3420.000000   091313027   091698920   092070808   092430549   092774496  
  3415.000000   093101255   093418404   093734999   094051890   094365469  
  3410.000000   094676632   094989145   095302215   095610761   095911488  
  3405.000000   096204543   096492330   096780610   097078082   097389248  
  3400.000000   097708084   098021834   098320279   098601805   098873633  
  3395.000000   099147499   099432530   099732271   100051048   100397672  
  3390.000000   100773391   101159324   101529601   101879293   102225768  
  3385.000000   102575788   102907193   103197220   103460217   103740582  
  3380.000000   104071323   104451815   104861734   105281090   105691593  
  3375.000000   106070976   106397970   106666322   106895773   107131766  
  3370.000000   107430463   107834627   108353164   108955359   109583162  
  3365.000000   110177939   110712821   111208282   111711588   112257004  
  3360.000000   112845691   113459120   114076838   114674145   115216742  
  3355.000000   115678559   116072070   116456413   116910443   117489380  
  3350.000000   118191648   118956583   119698574   120357405   120931024  
  3345.000000   121467278   122023042   122620585   123235391   123833023  
  3340.000000   124425348   125082377   125871093   126780910   127725461  
  3335.000000   128618380   129435128   130203438   130955104   131695498  
  3330.000000   132404270   133056922   133660922   134279808   135004259  
  3325.000000   135878997   136860245   137853703   138788831   139655266  
  3320.000000   140486145   141324040   142195344   143097358   144001096  
  3315.000000   144867209   145659259   146348690   146928697   147432833  
  3310.000000   147928093   148480006   149131539   149916183   150866254  
  3305.000000   151982497   153200204   154407362   155498997   156414097  
  3300.000000   157140939   157712910   158195669   158653990   159121452  
  3295.000000   159609962   160146333   160779208   161537070   162385193  
  3290.000000   163231689   163977472   164568115   165012187   165356439  
  3285.000000   165637809   165860311   166013653   166101714   166138215  
  3280.000000   166112454   165983477   165719205   165330642   164855481  
  3275.000000   164311348   163691119   163018594   162389496   161924848  
  3270.000000   161664023   161509964   161295864   160907905   160342215  
  3265.000000   159659831   158911750   158115435   157274016   156386137  
  3260.000000   155435359   154400098   153298055   152210538   151240696  
  3255.000000   150432228   149725733   148994354   148122227   147063676  
  3250.000000   145865679   144659796   143611888   142829719   142284621  
  3245.000000   141829957   141319907   140714772   140068508   139435036  
  3240.000000   138802025   138100893   137259467   136255193   135157774  
  3235.000000   134131024   133356609   132913928   132725978   132623235  
  3230.000000   132458346   132166456   131749704   131243009   130691314  
  3225.000000   130129896   129567901   128995217   128409921   127833511  
  3220.000000   127294127   126799361   126330263   125861481   125384025  
  3215.000000   124909700   124457821   124036899   123635547   123225157  
  3210.000000   122772646   122261885   121711662   121168363   120669073  
  3205.000000   120209572   119753472   119271229   118763705   118249190  
  3200.000000   117739914   117233067   116714042   116164679   115578297  
  3195.000000   114972871   114380312   113816578   113268544   112713784  
  3190.000000   112144501   111564893   110975345   110372100   109757730  
  3185.000000   109140556   108522373   107894564   107249292   106591435  
  3180.000000   105938977   105311396   104713512   104128439   103530568  
  3175.000000   102906708   102264135   101620522   100992676   100391823  
  3170.000000   099817524   099253534   098679580   098092868   097509416  
  3165.000000   096941422   096383151   095823851   095262656   094702697  
  3160.000000   094140225   093568003   092980416   092367864   091719017  
  3155.000000   091045368   090398184   089845153   089421141   089102876  
  3150.000000   088826693   088527889   088175253   087780004   087372372  
  3145.000000   086960942   086517369   086008393   085444306   084891651  
  3140.000000   084435997   084125238   083938622   083802980   083642927  
  3135.000000   083420213   083131805   082787877   082411771   082055078  
  3130.000000   081780615   081609785   081498120   081373607   081187108  
  3125.000000   080918833   080561581   080128398   079670017   079256959  
  3120.000000   078938311   078728633   078629070   078641307   078754913  
  3115.000000   078933966   079119048   079244633   079272081   079224475  
  3110.000000   079185588   079239150   079400694   079612370   079798279  
  3105.000000   079910786   079934936   079883726   079807174   079785741  
  3100.000000   079885870   080112480   080408255   080695172   080912349  
  3095.000000   081025328   081024379   080934237   080821846   080769560  
  3090.000000   080815418   080918988   081000153   081016727   080995152  
  3085.000000   080984210   080994547   080994655   080956779   080895793  
  3080.000000   080870707   080956167   081197391   081569547   081976451  
  3075.000000   082305934   082494698   082540008   082455704   082243801  
  3070.000000   081923631   081574147   081316160   081231674   081304642  
  3065.000000   081447090   081573578   081637853   081608985   081447004  
  3060.000000   081127697   080682576   080197444   079761611   079412476  
  3055.000000   079115609   078796603   078411474   077997288   077639889  
  3050.000000   077371994   077115506   076748690   076224268   075601265  
  3045.000000   074976788   074426380   074007990   073770252   073712048  
  3040.000000   073741634   073705125   073474929   073030153   072476868  
  3035.000000   071986776   071684602   071568640   071539547   071499437  
  3030.000000   071402007   071218826   070916162   070500688   070054768  
  3025.000000   069675355   069376020   069081477   068719157   068288650  
  3020.000000   067838976   067405961   066990379   066583833   066199225  
  3015.000000   065874020   065652050   065566340   065633435   065848704  
  3010.000000   066167217   066496000   066732291   066831398   066835819  
  3005.000000   066830945   066875238   066966427   067058641   067108154  
  3000.000000   067123956   067182229   067368479   067687933   068053569  
  2995.000000   068385207   068706375   069118833   069688416   070384197  
  2990.000000   071124477   071852881   072559513   073249740   073913587  
  2985.000000   074526438   075077044   075595648   076150313   076805026  
  2980.000000   077572999   078406763   079232375   079998391   080706722  
  2975.000000   081401364   082121177   082859362   083575516   084244118  
  2970.000000   084872308   085468285   086013390   086481238   086869430  
  2965.000000   087197150   087484106   087742611   087976832   088171198  
  2960.000000   088289706   088305161   088217533   088030904   087730897  
  2955.000000   087316955   086851104   086437779   086140960   085938202  
  2950.000000   085768080   085610485   085515034   085565796   085828172  
  2945.000000   086322161   087023988   087883838   088840568   089832556  
  2940.000000   090813228   091764947   092697174   093623318   094539601  
  2935.000000   095419185   096219185   096902250   097472975   097999472  
  2930.000000   098577152   099252828   099986962   100695965   101321534  
  2925.000000   101853580   102303884   102673652   102935652   103036650  
  2920.000000   102916435   102527500   101827529   100758206   099271133  
  2915.000000   097397858   095284235   093128143   091084028   089231520  
  2910.000000   087600975   086192304   084967585   083869069   082864925  
  2905.000000   081965205   081191101   080539570   079983287   079477822  
  2900.000000   078973224   078438046   077887037   077377421   076962010  
  2895.000000   076648403   076403803   076190426   075989178   075797778  
  2890.000000   075618575   075454246   075313906   075217936   075187946  
  2885.000000   075228016   075321325   075449675   075609543   075800933  
  2880.000000   076005443   076182381   076284883   076280004   076165231  
  2875.000000   075977022   075773060   075586137   075391326   075126208  
  2870.000000   074745160   074253825   073701298   073152389   072661664  
  2865.000000   072253390   071920661   071654162   071473905   071424881  
  2860.000000   071539664   071816322   072232523   072768575   073411117  
  2855.000000   074143785   074932192   075696561   076289611   076511271  
  2850.000000   076179873   075223420   073720897   071865988   069885176  
  2845.000000   067962066   066200942   064634215   063253780   062052966  
  2840.000000   061048539   060261114   059675761   059229183   058846834  
  2835.000000   058492664   058173418   057900576   057665114   057448145  
  2830.000000   057239481   057036106   056832056   056618664   056388995  
  2825.000000   056140141   055879770   055632083   055425027   055265022  
  2820.000000   055132969   055008746   054888203   054771750   054649410  
  2815.000000   054506334   054335140   054137621   053925454   053725106  
  2810.000000   053568618   053467406   053400611   053335896   053254253  
  2805.000000   053151436   053028078   052887891   052736981   052577942  
  2800.000000   052413344   052258668   052137865   052057163   051994553  
  2795.000000   051922499   051828708   051709840   051565316   051411533  
  2790.000000   051285281   051211814   051174760   051131816   051053995  
  2785.000000   050940713   050809183   050684468   050589759   050527154  
  2780.000000   050468126   050374865   050230979   050048700   049856917  
  2775.000000   049690488   049576736   049514802   049473410   049420239  
  2770.000000   049348017   049265001   049174049   049075874   048981252  
  2765.000000   048900178   048823376   048730743   048615338   048486637  
  2760.000000   048355399   048229267   048118858   048031242   047955194  
  2755.000000   047863988   047736555   047573534   047397223   047241273  
  2750.000000   047133650   047079412   047059515   047047548   047023931  
  2745.000000   046977101   046905890   046825125   046754164   046693471  
  2740.000000   046626222   046548755   046480854   046434353   046390054  
  2735.000000   046322995   046236638   046153169   046079266   045998857  
  2730.000000   045894119   045759895   045605081   045453700   045336131  
  2725.000000   045263940   045217453   045167687   045102633   045023718  
  2720.000000   044931285   044829613   044733828   044652641   044572824  
  2715.000000   044478779   044379642   044297368   044232937   044163963  
  2710.000000   044074458   043970484   043866875   043773240   043693595  
  2705.000000   043626995   043566235   043503867   043438641   043370956  
  2700.000000   043297644   043218914   043144339   043082914   043032365  
  2695.000000   042985096   042937489   042886378   042825638   042756075  
  2690.000000   042690970   042642141   042606207   042570555   042524272  
  2685.000000   042458637   042370193   042271313   042184535   042117422  
  2680.000000   042056699   041995578   041948817   041927157   041914133  
  2675.000000   041886498   041844671   041805416   041775335   041748100  
  2670.000000   041717383   041676280   041615155   041537585   041468107  
  2665.000000   041425315   041396136   041354628   041297566   041242857  
  2660.000000   041200620   041165739   041133320   041101568   041062825  
  2655.000000   041011730   040960995   040931907   040928600   040934055  
  2650.000000   040929184   040905020   040862913   040816483   040787233  
  2645.000000   040783715   040789286   040781089   040753333   040712410  
  2640.000000   040663142   040614784   040586409   040586304   040596482  
  2635.000000   040595960   040587801   040584199   040577588   040550224  
  2630.000000   040504501   040461888   040437808   040434875   040450656  
  2625.000000   040472834   040477025   040450865   040412187   040386493  
  2620.000000   040377551   040375539   040376298   040370674   040334925  
  2615.000000   040259692   040174324   040114670   040079744   040047543  
  2610.000000   040017996   040007230   040010013   040003245   039983606  
  2605.000000   039972047   039981821   040004232   040021325   040013468  
  2600.000000   039965132   039885357   039811152   039767582   039737023  
  2595.000000   039690902   039634972   039595633   039575634   039552997  
  2590.000000   039512722   039452949   039373849   039288215   039227996  
  2585.000000   039209464   039205003   039178759   039134630   039096587  
  2580.000000   039057790   038989219   038890957   038798414   038740383  
  2575.000000   038721345   038739100   038785121   038826372   038817356  
  2570.000000   038740239   038621681   038512476   038457156   038468514  
  2565.000000   038516470   038555139   038571449   038587542   038608284  
  2560.000000   038600316   038542581   038463629   038401495   038356919  
  2555.000000   038315615   038286590   038285335   038303764   038325836  
  2550.000000   038345787   038344012   038282835   038164795   038061008  
  2545.000000   038036637   038072286   038101615   038100370   038092709  
  2540.000000   038093025   038092003   038087681   038086063   038080301  
  2535.000000   038064717   038058554   038083728   038132854   038186632  
  2530.000000   038242354   038298205   038335868   038350998   038373822  
  2525.000000   038424639   038477245   038503649   038526162   038583728  
  2520.000000   038670650   038749172   038798543   038815357   038795596  
  2515.000000   038758948   038762121   038840933   038961322   039071540  
  2510.000000   039176481   039312314   039475678   039630849   039771619  
  2505.000000   039925931   040111056   040329396   040591638   040899627  
  2500.000000   041219585   041512878   041781142   042046861   042311595  
  2495.000000   042574663   042868888   043229985   043643324   044061787  
  2490.000000   044460221   044834117   045167590   045449361   045706644  
  2485.000000   045977940   046261390   046525095   046756353   046965991  
  2480.000000   047157839   047330659   047498028   047676486   047866662  
  2475.000000   048066047   048275850   048471975   048604961   048664765  
  2470.000000   048711440   048802141   048916603   048994926   049018628  
  2465.000000   049008572   048973749   048914023   048854408   048827634  
  2460.000000   048834388   048857718   048897334   048953018   048999875  
  2455.000000   049023297   049054742   049128602   049225875   049302709  
  2450.000000   049349809   049379815   049385145   049362823   049358049  
  2445.000000   049426629   049565400   049727329   049891706   050072203  
  2440.000000   050270887   050471860   050672291   050883245   051110920  
  2435.000000   051367011   051673093   052018724   052343069   052598339  
  2430.000000   052806477   053014327   053224626   053414321   053587183  
  2425.000000   053754735   053891777   053969015   054009089   054057111  
  2420.000000   054111339   054132693   054108921   054058297   053982872  
  2415.000000   053865741   053703396   053500427   053244328   052928284  
  2410.000000   052585043   052252561   051920769   051552820   051144674  
  2405.000000   050721096   050285645   049822196   049335549   048847392  
  2400.000000   048359493   047857841   047346039   046839787   046338457  
  2395.000000   045835460   045345712   044892443   044479818   044106172  
  2390.000000   043781013   043496861   043207797   042876129   042524933  
  2385.000000   042206840   041941691   041718277   041534583   041394766  
  2380.000000   041279608   041164616   041054039   040958037   040854761  
  2375.000000   040719371   040573539   040451352   040332360   040168295  
  2370.000000   039963337   039766327   039601056   039465065   039367988  
  2365.000000   039305047   039220898   039062809   038850008   038647309  
  2360.000000   038471796   038297400   038140352   038016958   037929961  
  2355.000000   037882540   037864829   037833191   037738436   037599746  
  2350.000000   037463443   037361072   037288048   037201297   037080712  
  2345.000000   036940828   036806646   036648971   036460801   036304251  
  2340.000000   036196330   036116732   036068632   036077778   036119323  
  2335.000000   036151716   036160695   036161850   036140240   036095160  
  2330.000000   036034086   035955555   035816966   035591057   035351421  
  2325.000000   035191765   035137455   035121895   035090937   035055319  
  2320.000000   035021062   034985075   034945720   034914918   034867077  
  2315.000000   034776165   034661027   034561988   034473269   034362733  
  2310.000000   034240550   034146964   034086027   034021737   033946379  
  2305.000000   033883725   033835954   033778068   033700027   033618028  
  2300.000000   033534705   033447036   033369555   033316425   033269795  
  2295.000000   033209352   033155490   033130437   033119367   033099758  
  2290.000000   033085119   033073817   033017659   032899693   032799095  
  2285.000000   032787353   032808903   032758574   032638089   032533845  
  2280.000000   032478324   032448856   032460960   032539851   032617090  
  2275.000000   032589541   032465354   032340883   032253318   032174061  
  2270.000000   032123779   032155094   032231118   032249504   032187114  
  2265.000000   032108839   032047686   031989886   031958317   031981992  
  2260.000000   032005394   031948551   031841149   031777119   031756498  
  2255.000000   031703706   031613720   031550878   031523381   031493387  
  2250.000000   031480613   031522717   031569769   031557993   031548060  
  2245.000000   031632541   031740606   031706802   031522012   031345592  
  2240.000000   031271157   031242206   031210440   031218608   031302633  
  2235.000000   031442161   031616334   031788850   031849025   031697877  
  2230.000000   031391681   031095261   030910293   030843700   030884823  
  2225.000000   030987979   031039028   030972796   030863449   030783945  
  2220.000000   030675829   030502651   030410262   030538639   030768962  
  2215.000000   030865090   030791404   030688246   030615943   030533603  
  2210.000000   030461252   030449173   030448504   030408748   030420459  
  2205.000000   030555798   030667501   030576889   030364583   030233661  
  2200.000000   030179258   030061876   029918423   029911552   030023418  
  2195.000000   030080798   030048755   030035712   030056029   030046540  
  2190.000000   030062751   030188833   030310385   030254438   030097242  
  2185.000000   030038341   030034233   029874300   029574548   029367082  
  2180.000000   029327489   029328724   029318402   029345202   029362011  
  2175.000000   029290356   029220618   029269466   029326584   029231032  
  2170.000000   029096308   029146488   029305336   029284652   029031217  
  2165.000000   028738172   028460559   028101287   027765584   027724064  
  2160.000000   027985381   028297147   028550628   028768603   028842911  
  2155.000000   028683388   028457112   028373852   028384291   028348468  
  2150.000000   028324547   028413917   028499004   028439506   028364753  
  2145.000000   028465494   028647978   028701414   028666286   028726105  
  2140.000000   028855562   028883427   028825899   028862686   029033790  
  2135.000000   029218035   029364811   029514297   029643541   029700726  
  2130.000000   029736173   029827181   029929489   029959342   029958895  
  2125.000000   030025064   030132076   030174410   030129044   030039578  
  2120.000000   029911240   029762307   029700236   029791093   029919778  
  2115.000000   029934356   029858796   029809499   029791508   029751065  
  2110.000000   029743137   029840772   029946820   029904758   029744467  
  2105.000000   029621419   029568357   029508068   029455894   029496837  
  2100.000000   029597893   029644750   029627469   029603998   029534942  
  2095.000000   029355228   029151373   029065539   029079572   029080851  
  2090.000000   029072749   029126096   029191575   029166475   029088323  
  2085.000000   029052832   029000333   028804817   028530578   028369128  
  2080.000000   028348416   028326696   028247609   028177762   028118371  
  2075.000000   028007643   027885941   027840700   027822093   027729580  
  2070.000000   027623856   027622685   027657973   027594144   027519529  
  2065.000000   027638469   027913775   028102722   028108944   028015492  
  2060.000000   027833054   027512120   027172852   027025917   027050492  
  2055.000000   027000081   026728778   026297957   025822778   025455338  
  2050.000000   025431272   025814090   026270239   026450467   026457464  
  2045.000000   026572655   026723081   026650132   026422163   026292880  
  2040.000000   026191045   025875431   025486199   025393110   025561575  
  2035.000000   025616451   025488823   025424629   025426319   025284517  
  2030.000000   025085900   025107690   025286610   025339532   025303685  
  2025.000000   025414205   025573180   025495646   025266937   025223333  
  2020.000000   025397163   025592422   025859160   026334891   026746221  
  2015.000000   026651957   026076235   025419199   024908063   024576753  
  2010.000000   024581913   024999950   025467646   025585901   025510908  
  2005.000000   025622919   025876514   025997872   026037708   026197170  
  2000.000000   026333553   026172424   025849442   025726455   025797204  
  1995.000000   025778808   025668220   025700229   025824548   025754376  
  1990.000000   025500898   025321119   025218814   025022471   024864244  
  1985.000000   025044761   025450765   025622295   025392077   025001795  
  1980.000000   024631294   024299038   024192013   024499706   024943809  
  1975.000000   025078573   024942640   024884917   024955248   024986455  
  1970.000000   025056560   025325167   025597693   025589748   025450230  
  1965.000000   025477087   025546604   025369058   025068973   024993047  
  1960.000000   025123748   025194095   025199489   025287017   025339961  
  1955.000000   025160106   024907362   024903382   025116580   025267299  
  1950.000000   025311111   025400369   025498660   025449261   025320283  
  1945.000000   025301871   025366765   025388333   025462401   025699877  
  1940.000000   025886203   025767926   025482246   025357624   025422046  
  1935.000000   025449337   025395883   025411182   025493833   025508162  
  1930.000000   025480275   025533362   025592710   025479942   025240172  
  1925.000000   025084903   025061888   025054249   025041460   025077619  
  1920.000000   025096980   025008831   024925473   024995422   025097861  
  1915.000000   025053646   024951787   024970730   025051792   025012933  
  1910.000000   024894559   024887494   024989055   025050926   025078001  
  1905.000000   025169182   025259648   025222133   025131123   025138417  
  1900.000000   025178049   025081422   024895503   024805915   024815423  
  1895.000000   024779750   024696864   024664618   024640679   024523177  
  1890.000000   024405063   024451231   024575649   024594437   024569828  
  1885.000000   024664822   024803911   024779647   024612106   024503668  
  1880.000000   024501435   024492550   024467407   024503169   024528881  
  1875.000000   024392859   024140226   023957817   023882096   023798577  
  1870.000000   023698846   023702454   023777017   023763255   023698669  
  1865.000000   023726624   023797025   023768448   023691413   023722974  
  1860.000000   023823004   023823677   023744513   023746107   023828170  
  1855.000000   023856493   023828057   023831911   023817624   023674230  
  1850.000000   023465994   023343033   023272140   023121241   022947272  
  1845.000000   022946172   023113246   023217531   023192574   023189597  
  1840.000000   023249267   023264649   023233030   023270598   023358855  
  1835.000000   023351602   023234930   023122686   023026465   022851089  
  1830.000000   022665162   022636480   022680543   022616013   022506488  
  1825.000000   022558532   022763516   022903605   022920127   022921923  
  1820.000000   022909233   022795735   022654781   022653231   022739434  
  1815.000000   022704612   022528732   022388342   022350762   022311294  
  1810.000000   022256119   022293865   022400403   022434536   022387833  
  1805.000000   022362629   022336696   022194747   021987786   021915795  
  1800.000000   021989445   022006841   021916286   021855242   021854852  
  1795.000000   021815182   021729812   021734024   021875759   022010881  
  1790.000000   022075133   022152292   022227757   022202221   022123767  
  1785.000000   022142558   022212151   022148200   021980716   021932299  
  1780.000000   022049509   022136239   022098518   022042237   022016721  
  1775.000000   021972987   021926691   021984162   022152615   022244306  
  1770.000000   022216127   022292447   022534150   022722587   022752181  
  1765.000000   022765913   022861545   022950881   023010250   023148305  
  1760.000000   023314883   023372215   023415422   023666139   024071663  
  1755.000000   024328448   024388051   024515468   024821148   025112227  
  1750.000000   025310763   025628460   026118702   026554430   026855915  
  1745.000000   027209570   027691653   028121480   028409927   028707939  
  1740.000000   029051363   029230682   029192862   029206717   029457437  
  1735.000000   029703184   029822785   030065550   030353308   030492817  
  1730.000000   030651749   031056768   031605137   031988343   032197777  
  1725.000000   032515507   033019570   033442415   033668793   033917942  
  1720.000000   034329917   034714117   035115229   036074312   037537903  
  1715.000000   038876245   040041273   041416468   043066267   044764800  
  1710.000000   046534257   048666158   051292903   054368551   058050419  
  1705.000000   062358601   066635655   070764772   076138506   084769363  
  1700.000000   095492604   104179284   110462807   117514828   126447608  
  1695.000000   134703107   140032670   143310505   146057257   148814770  
  1690.000000   151503930   153948341   156035184   158023575   160766289  
  1685.000000   165312824   171114501   175788287   178806125   181702284  
  1680.000000   185147896   188661378   192025183   195972993   201107775  
  1675.000000   206520527   210747708   213897808   217235707   221620336  
  1670.000000   227080664   232820855   237720310   241346476   244330969  
  1665.000000   247772054   252340232   257618381   262516025   266579010  
  1660.000000   270203913   273595158   276552735   278879159   281178239  
  1655.000000   284743537   291345413   299842837   305069672   305913133  
  1650.000000   305624461   306592150   309795433   314466306   318598557  
  1645.000000   321174571   322770429   324173419   325784600   327646797  
  1640.000000   329402077   330818087   332456839   335534472   340350047  
  1635.000000   344902526   347412472   348664840   350018133   351951738  
  1630.000000   354503861   357639169   361031664   364010835   366452756  
  1625.000000   369125468   372645071   376284485   378621450   379404164  
  1620.000000   379596601   380054482   380915458   381456325   380481979  
  1615.000000   377501577   373105876   368087748   362702209   356677169  
  1610.000000   349756544   342079536   333982631   325657961   317141543  
  1605.000000   308497076   299833903   291226776   282704430   274319994  
  1600.000000   266190373   258419206   250994984   243828288   236912733  
  1595.000000   230347874   224170470   218296759   212714092   207575222  
  1590.000000   202968892   198789062   194962465   191592719   188731317  
  1585.000000   186206490   183904267   181985580   180541951   179323553  
  1580.000000   178106487   177115770   176807468   177301310   178186824  
  1575.000000   178876016   179094955   179070854   179346378   180516076  
  1570.000000   182747389   185275915   187281086   189021847   191214587  
  1565.000000   193849297   196310377   198164942   199875698   202448952  
  1560.000000   207239919   214787914   221747669   225384790   227679336  
  1555.000000   230763727   234683707   238481098   241819161   245467662  
  1550.000000   249793273   254061273   257509764   260505347   263849887  
  1545.000000   267666412   271352236   274666297   278318744   283325146  
  1540.000000   289407497   294265087   296376695   296714139   296955542  
  1535.000000   298330203   301118564   304126900   305969397   306770694  
  1530.000000   307441925   308401473   309607343   310929998   312099620  
  1525.000000   312710228   312874252   313438917   315062513   316915686  
  1520.000000   317589476   317291554   317159499   317397975   317139039  
  1515.000000   315784442   313669838   311153680   308106200   304399151  
  1510.000000   300321225   296362755   292692884   289019664   284895318  
  1505.000000   280133047   275041735   269990432   265070193   260211533  
  1500.000000   255312038   250307635   245132060   239744063   234191187  
  1495.000000   228596308   223135744   217938107   212941337   207958471  
  1490.000000   203126798   198969868   195669013   192937825   190610926  
  1485.000000   188754009   187422815   186618982   186400086   186785720  
  1480.000000   187594379   188669491   190146827   192214601   194739595  
  1475.000000   197578047   201135663   205877119   211020929   215080755  
  1470.000000   217801213   219926685   222002416   224245240   226827189  
  1465.000000   229714491   232316111   234044476   235064868   235915691  
  1460.000000   237041660   238912017   242231219   246833389   250648011  
  1455.000000   252352191   252856719   253231874   253648081   253853341  
  1450.000000   253832142   253808537   253736895   253315903   252449830  
  1445.000000   251323235   250087693   248746424   247251535   245574968  
  1440.000000   243748090   241896954   240127948   238309272   236102264  
  1435.000000   233340413   230231830   227065916   223930233   220780883  
  1430.000000   217624483   214583795   211783514   209261634   207009636  
  1425.000000   205031157   203338341   201863793   200547998   199508059  
  1420.000000   198925543   198724112   198516514   198098699   197643030  
  1415.000000   197275235   196905800   196480507   196093012   195783779  
  1410.000000   195422823   194907757   194285778   193644928   193029042  
  1405.000000   192457033   191900446   191240960   190414937   189542192  
  1400.000000   188797873   188191646   187586254   186999313   186667073  
  1395.000000   186685494   186789686   186684073   186379718   186015625  
  1390.000000   185640961   185275891   184970067   184673279   184190928  
  1385.000000   183434335   182535070   181627461   180713584   179787970  
  1380.000000   178938877   178232258   177599719   176967743   176422311  
  1375.000000   176126393   176082398   176078181   175919044   175563006  
  1370.000000   174997124   174158526   173002042   171534104   169793048  
  1365.000000   167867627   165931804   164197887   162759487   161535615  
  1360.000000   160424826   159400089   158455305   157592679   156855367  
  1355.000000   156284637   155850624   155488571   155182029   154951219  
  1350.000000   154786424   154650674   154540014   154474076   154438554  
  1345.000000   154387235   154285229   154113923   153870489   153610990  
  1340.000000   153456657   153468304   153546203   153547133   153426073  
  1335.000000   153199700   152869654   152451951   152018447   151639548  
  1330.000000   151316653   151021063   150758619   150542842   150349962  
  1325.000000   150158443   149994732   149880041   149780687   149673404  
  1320.000000   149609736   149644282   149737775   149806656   149831632  
  1315.000000   149845318   149854405   149840691   149801326   149732139  
  1310.000000   149608975   149432624   149250369   149090557   148918460  
  1305.000000   148703161   148477990   148283175   148102701   147912738  
  1300.000000   147739885   147610871   147496041   147365222   147254849  
  1295.000000   147214633   147230416   147259731   147300641   147369279  
  1290.000000   147451080   147531984   147635595   147772392   147896111  
  1285.000000   147965153   147999588   148024022   148005093   147905800  
  1280.000000   147759468   147627598   147516752   147396068   147263033  
  1275.000000   147136674   147019730   146923286   146897457   146987798  
  1270.000000   147187803   147476164   147867375   148375228   148973651  
  1265.000000   149640451   150391503   151230419   152111208   153003364  
  1260.000000   153941368   154955646   156011805   157069941   158150837  
  1255.000000   159292400   160486425   161705214   162941441   164181154  
  1250.000000   165387852   166553286   167719459   168917215   170135221  
  1245.000000   171379181   172697114   174098819   175503525   176808849  
  1240.000000   177959447   178919553   179626798   180024320   180109950  
  1235.000000   179919361   179506520   178946473   178319132   177663663  
  1230.000000   176960662   176184111   175331902   174397930   173363330  
  1225.000000   172230836   171033570   169783173   168448661   167013968  
  1220.000000   165511215   163973252   162392609   160761332   159113773  
  1215.000000   157483833   155854638   154194313   152512239   150834650  
  1210.000000   149151422   147436858   145699918   143966877   142235589  
  1205.000000   140494210   138763436   137073833   135425815   133816183  
  1200.000000   132280815   130858246   129535475   128287159   127131913  
  1195.000000   126094536   125142697   124225619   123356335   122581105  
  1190.000000   121894314   121250732   120638459   120080786   119582113  
  1185.000000   119141696   118801760   118610746   118563629   118630447  
  1180.000000   118825234   119192757   119746167   120484684   121426485  
  1175.000000   122558921   123792283   125021333   126210365   127364154  
  1170.000000   128466343   129510094   130541156   131597023   132633938  
  1165.000000   133573667   134379772   135039414   135507579   135738056  
  1160.000000   135742730   135553277   135166688   134570296   133790231  
  1155.000000   132868037   131809289   130619401   129351607   128062738  
  1150.000000   126752501   125397915   124025133   122687742   121403567  
  1145.000000   120172164   119028202   118009290   117095930   116252056  
  1140.000000   115495160   114869663   114373007   113974825   113684392  
  1135.000000   113522856   113460718   113443765   113454649   113493861  
  1130.000000   113533515   113557670   113606458   113710639   113822524  
  1125.000000   113881393   113911372   113981932   114106838   114253510  
  1120.000000   114413877   114594248   114773050   114940709   115142527  
  1115.000000   115407333   115675358   115876980   116043190   116263255  
  1110.000000   116570332   116949847   117421014   118014719   118702067  
  1105.000000   119423339   120161297   120919604   121669058   122399283  
  1100.000000   123178076   124070043   125034230   125973529   126864318  
  1095.000000   127766302   128740379   129827434   131061024   132420746  
  1090.000000   133803691   135120088   136397361   137730263   139167494  
  1085.000000   140704915   142343307   144084056   145898673   147765165  
  1080.000000   149698242   151688826   153659096   155534039   157317949  
  1075.000000   159047190   160714343   162283861   163742423   165080368  
  1070.000000   166257923   167248596   168079347   168793270   169394727  
  1065.000000   169854554   170151761   170275283   170219448   170001306  
  1060.000000   169650359   169176701   168576563   167888854   167204900  
  1055.000000   166591838   166039524   165499478   164939700   164336218  
  1050.000000   163655734   162891107   162076884   161227629   160294969  
  1045.000000   159219631   158007386   156720550   155415157   154117828  
  1040.000000   152840798   151590757   150374557   149217536   148155170  
  1035.000000   147185649   146255278   145312963   144345127   143333367  
  1030.000000   142219396   140955480   139565520   138124129   136703928  
  1025.000000   135366559   134162542   133091901   132091867   131102442  
  1020.000000   130111296   129094140   127960255   126615145   125052819  
  1015.000000   123331863   121490395   119546937   117555776   115599806  
  1010.000000   113730025   111961798   110316610   108818118   107457281  
  1005.000000   106208951   105068783   104028040   103045674   102092029  
  1000.000000   101192390   100375162   099607220   098841269   098092461  
   995.000000   097400367   096744282   096065151   095355434   094662425  
   990.000000   094017214   093422642   092891282   092436124   092035520  
   985.000000   091659089   091310757   090999394   090702106   090411287  
   980.000000   090177140   090040943   089957996   089855752   089737006  
   975.000000   089655829   089630555   089650794   089738687   089919970  
   970.000000   090156449   090388097   090624142   090918777   091275221  
   965.000000   091646700   092017833   092412620   092831528   093246182  
   960.000000   093644326   094022610   094351099   094601855   094791287  
   955.000000   094944825   095047160   095084594   095099993   095138127  
   950.000000   095174705   095175061   095191587   095312049   095534716  
   945.000000   095782995   096038272   096368485   096820251   097367667  
   940.000000   097973607   098628167   099305085   099940179   100473788  
   935.000000   100880754   101159720   101330611   101438571   101514624  
   930.000000   101537409   101470099   101319583   101122590   100888400  
   925.000000   100602631   100272374   099916188   099525124   099083264  
   920.000000   098620637   098195287   097828012   097496292   097184245  
   915.000000   096898330   096646093   096447936   096356141   096419766  
   910.000000   096638797   096983840   097435756   097961697   098489211  
   905.000000   098963677   099404954   099849320   100253131   100512729  
   900.000000   100562398   100402016   100048227   099524207   098895633  
   895.000000   098250834   097632816   097018501   096365977   095649582  
   890.000000   094861579   094025381   093204201   092459760   091803578  
   885.000000   091211414   090663575   090144618   089636718   089155503  
   880.000000   088761492   088482458   088251885   087982438   087674870  
   875.000000   087397587   087178629   086975017   086736287   086445802  
   870.000000   086112779   085767632   085450828   085169911   084886988  
   865.000000   084578211   084274725   084008806   083760239   083500875  
   860.000000   083254800   083063354   082923878   082816755   082757393  
   855.000000   082766844   082819255   082873803   082928977   082991122  
   850.000000   083021860   082977212   082874941   082768083   082677309  
   845.000000   082602361   082574248   082635391   082785946   082998440  
   840.000000   083266949   083596207   083966677   084361183   084801138  
   835.000000   085309970   085865453   086433116   087018254   087636660  
   830.000000   088262940   088862211   089449146   090060761   090686712  
   825.000000   091278717   091817339   092326380   092836285   093370572  
   820.000000   093950971   094580674   095233902   095883404   096524362  
   815.000000   097162752   097808836   098488809   099225652   099994253  
   810.000000   100730732   101393233   101978049   102481360   102901986  
   805.000000   103285519   103698434   104141501   104548409   104888728  
   800.000000   105210069   105562846   105952700   106388595   106901878  
   795.000000   107480794   108055596   108593547   109156904   109832164  
   790.000000   110646075   111569783   112544196   113479695   114300708  
   785.000000   115029413   115774398   116605667   117489209   118362970  
   780.000000   119214905   120057674   120887680   121705860   122533113  
   775.000000   123376141   124218257   125057678   125906540   126743620  
   770.000000   127527932   128270379   129025731   129798398   130527085  
   765.000000   131188053   131843415   132557528   133331812   134155721  
   760.000000   135051994   136022454   136999958   137901619   138700344  
   755.000000   139420473   140103879   140802697   141563028   142387746  
   750.000000   143240336   144086961   144895288   145600821   146140650  
   745.000000   146534628   146876035   147223121   147551670   147832507  
   740.000000   148101957   148431817   148871240   149435708   150114968  
   735.000000   150879785   151715778   152653272   153723812   154894164  
   730.000000   156092778   157302587   158576846   159963931   161474159  
   725.000000   163112420   164882849   166753597   168659442   170543667  
   720.000000   172373357   174135294   175854850   177594953   179399485  
   715.000000   181266800   183216588   185338383   187717380   190348264  
   710.000000   193171374   196153807   199278146   202490942   205726171  
   705.000000   208939083   212058028   214952930   217503207   219660984  
   700.000000   221416399   222744245   223639373   224168191   224436411  
   695.000000   224539992   224572070   224630532   224770654   224971556  
   690.000000   225206666   225521294   225990552   226631132   227390852  
   685.000000   228197215   228985470   229715523   230392885   231043362  
   680.000000   231663364   232246344   232852717   233580176   234439408  
   675.000000   235341476   236221086   237084438   237931221   238749009  
   670.000000   239597919   240564294   241588558   242245233   242284999  
   665.000000   242119395   242145857   242392253   242743484   243142049  
   660.000000   243619602   244168954   244742431   245331571   245944955  
   655.000000   246545837   247111042   247695418   248351837   249065106  
   650.000000   249835794   250734609   251777902   252849274   253866560  
   645.000000   254924031   256153483   257527826   258913459   260244027  
   640.000000   261532893   262794141   264073342   265474068   267033334  
   635.000000   268638522   270152307   271533855   272754027   273722916  
   630.000000   274412738   274934204   275375543   275698795   275890953  
   625.000000   276055745   276250971   276393257   276423581   276402168  
   620.000000   276343344   276136620   275769255   275444088   275314245  
   615.000000   275256468   275079157   274801186   274555326   274349161  
   610.000000   274092542   273775915   273456894   273143681   272828804  
   605.000000   272570836   272428518   272385894   272426025   272587321  
   600.000000   272851723   273075896   273129685   273022991   272833140  
   595.000000   272619686   272474398   272518025   272757502   273052399  
   590.000000   273306543   273563923   273853606   274110227   274329097  
   585.000000   274621294   275004362   275324866   275519775   275773915  
   580.000000   276240581   276783585   277174594   277412289   277663135  
   575.000000   277997402   278357784   278690429   278953046   279093111  
   570.000000   279167266   279379204   279866333   280537717   281224562  
   565.000000   281860430   282407178   282771681   282943241   283080269  
   560.000000   283335481   283724859   284235881   284885028   285578273  
   555.000000   286122768   286506416   286954784   287571570   288161672  
   550.000000   288558000   288899092   289402498   290096194   290947686  
   545.000000   292001761   293190381   294257246   295105791   295998359  
   540.000000   297184230   298528700   299744930   300775881   301687061  
   535.000000   302405959   302857382   303195924   303614160   304075235  
   530.000000   304436058   304676257   304841324   304974163   305244937  
   525.000000   305854571   306633945   307081290   306936404   306450841  
   520.000000   306003401   305733442   305685685   305933859   306300264  
   515.000000   306356275   305997282   305628308   305549182   305510988  
   510.000000   305173460   304669889   304325656   304114764   303756862  
   505.000000   303159111   302414462   301585678   300802325   300312332  
   500.000000   300143229   299996755   299643702   299161682   298656999  
   495.000000   298044090   297315568   296710776   296355181   296021990  
   490.000000   295508959   294939110   294422307   293777644   292861022  
   485.000000   291852672   290921394   289907542   288677622   287465172  
   480.000000   286560611   285957858   285523290   285226605   284951713  
   475.000000   284410693   283571338   282978141   283259855   284427828  
   470.000000   286054182   287789867   289228758   289819192   289479423  
   465.000000   288815633   288274108   287636931   286683574   285785633  
   460.000000   285397645   285438550   285637802   286145548   287177183  
   455.000000   288488565   289745965   290914097   291966528   292581705  
   450.000000   292485775   291802259   290795556   289688907   288890014  
   445.000000   288942071   289907130   291142923   292045924   292645682  
   440.000000   293079680   293138316   292863706   292948077   293831361  
   435.000000   294754441   294605662   293335517   291838703   291001869  
   430.000000   291220770   292324124   293453666   293395858   291783198  
   425.000000   289710364   288465535   287983508   287233896   285739956  
   420.000000   283973500   282953935   283300471   284217751   284433144  
   415.000000   283177267   280703914   278481156   277932832   278908620  
   410.000000   279875487   279410622   277141547   273859871   271254665  
   405.000000   270494137   270624563   269537340   266705829   264197692  
   400.000000   263891744  
##END= 
