PE IR       SUBTECH     SPECTRUM    ASCII       PEDS        4.00        
   -1
2024_06_05_BW_EggCase_Inner_Redried_PostssNMR_10.ASC
24/06/05
20:53:42.00
24/06/05
21:16:45.00
Yarger Lab
Sample 150 By YargerLab Date Wednesday, June 05 2024
400.000000
#HDR
-1
-1
#GR
cm-1
A
1.0
0.0
4000.000000
-1.000000
3601
8
0.146232
0.009066
#DATA
4000.000000	0.009898
3999.000000	0.009897
3998.000000	0.009889
3997.000000	0.009882
3996.000000	0.009927
3995.000000	0.009932
3994.000000	0.009935
3993.000000	0.009931
3992.000000	0.009925
3991.000000	0.009919
3990.000000	0.009918
3989.000000	0.009921
3988.000000	0.009927
3987.000000	0.009933
3986.000000	0.009935
3985.000000	0.009934
3984.000000	0.009928
3983.000000	0.009920
3982.000000	0.009913
3981.000000	0.009910
3980.000000	0.009912
3979.000000	0.009920
3978.000000	0.009928
3977.000000	0.009933
3976.000000	0.009936
3975.000000	0.009937
3974.000000	0.009938
3973.000000	0.009939
3972.000000	0.009937
3971.000000	0.009931
3970.000000	0.009923
3969.000000	0.009916
3968.000000	0.009912
3967.000000	0.009912
3966.000000	0.009915
3965.000000	0.009918
3964.000000	0.009919
3963.000000	0.009914
3962.000000	0.009904
3961.000000	0.009890
3960.000000	0.009877
3959.000000	0.009867
3958.000000	0.009861
3957.000000	0.009860
3956.000000	0.009865
3955.000000	0.009874
3954.000000	0.009884
3953.000000	0.009892
3952.000000	0.009893
3951.000000	0.009887
3950.000000	0.009877
3949.000000	0.009867
3948.000000	0.009861
3947.000000	0.009860
3946.000000	0.009865
3945.000000	0.009874
3944.000000	0.009881
3943.000000	0.009883
3942.000000	0.009880
3941.000000	0.009877
3940.000000	0.009875
3939.000000	0.009875
3938.000000	0.009873
3937.000000	0.009867
3936.000000	0.009858
3935.000000	0.009847
3934.000000	0.009841
3933.000000	0.009839
3932.000000	0.009842
3931.000000	0.009845
3930.000000	0.009845
3929.000000	0.009843
3928.000000	0.009845
3927.000000	0.009852
3926.000000	0.009861
3925.000000	0.009863
3924.000000	0.009854
3923.000000	0.009838
3922.000000	0.009819
3921.000000	0.009802
3920.000000	0.009791
3919.000000	0.009788
3918.000000	0.009794
3917.000000	0.009804
3916.000000	0.009813
3915.000000	0.009816
3914.000000	0.009815
3913.000000	0.009809
3912.000000	0.009800
3911.000000	0.009789
3910.000000	0.009778
3909.000000	0.009770
3908.000000	0.009766
3907.000000	0.009767
3906.000000	0.009769
3905.000000	0.009766
3904.000000	0.009758
3903.000000	0.009753
3902.000000	0.009759
3901.000000	0.009774
3900.000000	0.009787
3899.000000	0.009791
3898.000000	0.009788
3897.000000	0.009784
3896.000000	0.009780
3895.000000	0.009776
3894.000000	0.009772
3893.000000	0.009764
3892.000000	0.009751
3891.000000	0.009732
3890.000000	0.009716
3889.000000	0.009712
3888.000000	0.009721
3887.000000	0.009732
3886.000000	0.009734
3885.000000	0.009728
3884.000000	0.009729
3883.000000	0.009741
3882.000000	0.009756
3881.000000	0.009758
3880.000000	0.009746
3879.000000	0.009729
3878.000000	0.009720
3877.000000	0.009723
3876.000000	0.009733
3875.000000	0.009735
3874.000000	0.009724
3873.000000	0.009712
3872.000000	0.009709
3871.000000	0.009711
3870.000000	0.009708
3869.000000	0.009704
3868.000000	0.009709
3867.000000	0.009720
3866.000000	0.009729
3865.000000	0.009724
3864.000000	0.009707
3863.000000	0.009692
3862.000000	0.009684
3861.000000	0.009688
3860.000000	0.009702
3859.000000	0.009722
3858.000000	0.009749
3857.000000	0.009781
3856.000000	0.009813
3855.000000	0.009827
3854.000000	0.009814
3853.000000	0.009807
3852.000000	0.009813
3851.000000	0.009804
3850.000000	0.009771
3849.000000	0.009726
3848.000000	0.009682
3847.000000	0.009650
3846.000000	0.009633
3845.000000	0.009625
3844.000000	0.009621
3843.000000	0.009618
3842.000000	0.009622
3841.000000	0.009642
3840.000000	0.009670
3839.000000	0.009690
3838.000000	0.009700
3837.000000	0.009705
3836.000000	0.009706
3835.000000	0.009698
3834.000000	0.009683
3833.000000	0.009663
3832.000000	0.009638
3831.000000	0.009611
3830.000000	0.009593
3829.000000	0.009590
3828.000000	0.009598
3827.000000	0.009605
3826.000000	0.009604
3825.000000	0.009602
3824.000000	0.009609
3823.000000	0.009623
3822.000000	0.009627
3821.000000	0.009616
3820.000000	0.009608
3819.000000	0.009617
3818.000000	0.009638
3817.000000	0.009655
3816.000000	0.009657
3815.000000	0.009651
3814.000000	0.009651
3813.000000	0.009652
3812.000000	0.009645
3811.000000	0.009629
3810.000000	0.009617
3809.000000	0.009614
3808.000000	0.009611
3807.000000	0.009599
3806.000000	0.009590
3805.000000	0.009600
3804.000000	0.009630
3803.000000	0.009660
3802.000000	0.009662
3801.000000	0.009640
3800.000000	0.009615
3799.000000	0.009597
3798.000000	0.009580
3797.000000	0.009561
3796.000000	0.009542
3795.000000	0.009535
3794.000000	0.009541
3793.000000	0.009555
3792.000000	0.009563
3791.000000	0.009562
3790.000000	0.009555
3789.000000	0.009546
3788.000000	0.009536
3787.000000	0.009526
3786.000000	0.009518
3785.000000	0.009512
3784.000000	0.009509
3783.000000	0.009511
3782.000000	0.009518
3781.000000	0.009525
3780.000000	0.009525
3779.000000	0.009515
3778.000000	0.009509
3777.000000	0.009511
3776.000000	0.009516
3775.000000	0.009514
3774.000000	0.009510
3773.000000	0.009511
3772.000000	0.009520
3771.000000	0.009530
3770.000000	0.009534
3769.000000	0.009535
3768.000000	0.009536
3767.000000	0.009536
3766.000000	0.009535
3765.000000	0.009530
3764.000000	0.009522
3763.000000	0.009515
3762.000000	0.009512
3761.000000	0.009509
3760.000000	0.009501
3759.000000	0.009492
3758.000000	0.009485
3757.000000	0.009483
3756.000000	0.009483
3755.000000	0.009484
3754.000000	0.009486
3753.000000	0.009486
3752.000000	0.009482
3751.000000	0.009485
3750.000000	0.009507
3749.000000	0.009536
3748.000000	0.009556
3747.000000	0.009567
3746.000000	0.009572
3745.000000	0.009569
3744.000000	0.009565
3743.000000	0.009559
3742.000000	0.009536
3741.000000	0.009494
3740.000000	0.009441
3739.000000	0.009394
3738.000000	0.009374
3737.000000	0.009378
3736.000000	0.009388
3735.000000	0.009386
3734.000000	0.009383
3733.000000	0.009395
3732.000000	0.009415
3731.000000	0.009429
3730.000000	0.009431
3729.000000	0.009426
3728.000000	0.009418
3727.000000	0.009403
3726.000000	0.009387
3725.000000	0.009380
3724.000000	0.009384
3723.000000	0.009394
3722.000000	0.009403
3721.000000	0.009413
3720.000000	0.009421
3719.000000	0.009420
3718.000000	0.009410
3717.000000	0.009395
3716.000000	0.009386
3715.000000	0.009387
3714.000000	0.009402
3713.000000	0.009425
3712.000000	0.009444
3711.000000	0.009455
3710.000000	0.009463
3709.000000	0.009472
3708.000000	0.009475
3707.000000	0.009467
3706.000000	0.009452
3705.000000	0.009441
3704.000000	0.009436
3703.000000	0.009433
3702.000000	0.009430
3701.000000	0.009434
3700.000000	0.009443
3699.000000	0.009450
3698.000000	0.009454
3697.000000	0.009455
3696.000000	0.009458
3695.000000	0.009468
3694.000000	0.009488
3693.000000	0.009521
3692.000000	0.009558
3691.000000	0.009581
3690.000000	0.009588
3689.000000	0.009598
3688.000000	0.009621
3687.000000	0.009641
3686.000000	0.009647
3685.000000	0.009642
3684.000000	0.009632
3683.000000	0.009630
3682.000000	0.009653
3681.000000	0.009708
3680.000000	0.009783
3679.000000	0.009862
3678.000000	0.009937
3677.000000	0.010000
3676.000000	0.010033
3675.000000	0.010040
3674.000000	0.010040
3673.000000	0.010047
3672.000000	0.010059
3671.000000	0.010067
3670.000000	0.010072
3669.000000	0.010090
3668.000000	0.010125
3667.000000	0.010159
3666.000000	0.010185
3665.000000	0.010209
3664.000000	0.010236
3663.000000	0.010268
3662.000000	0.010301
3661.000000	0.010330
3660.000000	0.010352
3659.000000	0.010372
3658.000000	0.010403
3657.000000	0.010449
3656.000000	0.010503
3655.000000	0.010553
3654.000000	0.010593
3653.000000	0.010632
3652.000000	0.010676
3651.000000	0.010725
3650.000000	0.010784
3649.000000	0.010874
3648.000000	0.010990
3647.000000	0.011094
3646.000000	0.011160
3645.000000	0.011195
3644.000000	0.011214
3643.000000	0.011232
3642.000000	0.011257
3641.000000	0.011293
3640.000000	0.011340
3639.000000	0.011392
3638.000000	0.011446
3637.000000	0.011502
3636.000000	0.011559
3635.000000	0.011610
3634.000000	0.011649
3633.000000	0.011681
3632.000000	0.011724
3631.000000	0.011800
3630.000000	0.011920
3629.000000	0.012066
3628.000000	0.012197
3627.000000	0.012279
3626.000000	0.012313
3625.000000	0.012322
3624.000000	0.012324
3623.000000	0.012332
3622.000000	0.012363
3621.000000	0.012436
3620.000000	0.012543
3619.000000	0.012658
3618.000000	0.012750
3617.000000	0.012811
3616.000000	0.012855
3615.000000	0.012904
3614.000000	0.012975
3613.000000	0.013065
3612.000000	0.013155
3611.000000	0.013238
3610.000000	0.013327
3609.000000	0.013439
3608.000000	0.013560
3607.000000	0.013666
3606.000000	0.013744
3605.000000	0.013803
3604.000000	0.013853
3603.000000	0.013904
3602.000000	0.013965
3601.000000	0.014041
3600.000000	0.014122
3599.000000	0.014196
3598.000000	0.014264
3597.000000	0.014339
3596.000000	0.014430
3595.000000	0.014529
3594.000000	0.014621
3593.000000	0.014690
3592.000000	0.014731
3591.000000	0.014758
3590.000000	0.014813
3589.000000	0.014932
3588.000000	0.015111
3587.000000	0.015300
3586.000000	0.015457
3585.000000	0.015566
3584.000000	0.015641
3583.000000	0.015699
3582.000000	0.015760
3581.000000	0.015834
3580.000000	0.015920
3579.000000	0.016010
3578.000000	0.016104
3577.000000	0.016208
3576.000000	0.016318
3575.000000	0.016427
3574.000000	0.016525
3573.000000	0.016605
3572.000000	0.016659
3571.000000	0.016693
3570.000000	0.016739
3569.000000	0.016841
3568.000000	0.017015
3567.000000	0.017230
3566.000000	0.017433
3565.000000	0.017583
3564.000000	0.017678
3563.000000	0.017742
3562.000000	0.017806
3561.000000	0.017892
3560.000000	0.017997
3559.000000	0.018107
3558.000000	0.018209
3557.000000	0.018303
3556.000000	0.018392
3555.000000	0.018486
3554.000000	0.018598
3553.000000	0.018728
3552.000000	0.018853
3551.000000	0.018950
3550.000000	0.019019
3549.000000	0.019084
3548.000000	0.019174
3547.000000	0.019297
3546.000000	0.019449
3545.000000	0.019610
3544.000000	0.019754
3543.000000	0.019867
3542.000000	0.019955
3541.000000	0.020032
3540.000000	0.020109
3539.000000	0.020190
3538.000000	0.020287
3537.000000	0.020403
3536.000000	0.020528
3535.000000	0.020642
3534.000000	0.020738
3533.000000	0.020822
3532.000000	0.020905
3531.000000	0.020995
3530.000000	0.021098
3529.000000	0.021216
3528.000000	0.021340
3527.000000	0.021461
3526.000000	0.021580
3525.000000	0.021708
3524.000000	0.021845
3523.000000	0.021978
3522.000000	0.022099
3521.000000	0.022207
3520.000000	0.022306
3519.000000	0.022402
3518.000000	0.022500
3517.000000	0.022606
3516.000000	0.022718
3515.000000	0.022834
3514.000000	0.022950
3513.000000	0.023068
3512.000000	0.023187
3511.000000	0.023309
3510.000000	0.023437
3509.000000	0.023569
3508.000000	0.023690
3507.000000	0.023793
3506.000000	0.023893
3505.000000	0.024015
3504.000000	0.024165
3503.000000	0.024326
3502.000000	0.024475
3501.000000	0.024603
3500.000000	0.024713
3499.000000	0.024814
3498.000000	0.024921
3497.000000	0.025042
3496.000000	0.025172
3495.000000	0.025301
3494.000000	0.025427
3493.000000	0.025555
3492.000000	0.025687
3491.000000	0.025820
3490.000000	0.025954
3489.000000	0.026094
3488.000000	0.026237
3487.000000	0.026377
3486.000000	0.026509
3485.000000	0.026636
3484.000000	0.026759
3483.000000	0.026885
3482.000000	0.027020
3481.000000	0.027165
3480.000000	0.027308
3479.000000	0.027440
3478.000000	0.027567
3477.000000	0.027699
3476.000000	0.027840
3475.000000	0.027978
3474.000000	0.028106
3473.000000	0.028227
3472.000000	0.028346
3471.000000	0.028466
3470.000000	0.028588
3469.000000	0.028717
3468.000000	0.028846
3467.000000	0.028965
3466.000000	0.029077
3465.000000	0.029191
3464.000000	0.029313
3463.000000	0.029442
3462.000000	0.029574
3461.000000	0.029707
3460.000000	0.029836
3459.000000	0.029958
3458.000000	0.030075
3457.000000	0.030193
3456.000000	0.030311
3455.000000	0.030427
3454.000000	0.030545
3453.000000	0.030670
3452.000000	0.030795
3451.000000	0.030910
3450.000000	0.031022
3449.000000	0.031147
3448.000000	0.031295
3447.000000	0.031453
3446.000000	0.031603
3445.000000	0.031738
3444.000000	0.031864
3443.000000	0.031988
3442.000000	0.032115
3441.000000	0.032244
3440.000000	0.032371
3439.000000	0.032494
3438.000000	0.032620
3437.000000	0.032752
3436.000000	0.032886
3435.000000	0.033013
3434.000000	0.033137
3433.000000	0.033265
3432.000000	0.033400
3431.000000	0.033538
3430.000000	0.033679
3429.000000	0.033823
3428.000000	0.033964
3427.000000	0.034098
3426.000000	0.034224
3425.000000	0.034346
3424.000000	0.034465
3423.000000	0.034587
3422.000000	0.034722
3421.000000	0.034876
3420.000000	0.035035
3419.000000	0.035187
3418.000000	0.035326
3417.000000	0.035457
3416.000000	0.035581
3415.000000	0.035701
3414.000000	0.035820
3413.000000	0.035943
3412.000000	0.036065
3411.000000	0.036182
3410.000000	0.036295
3409.000000	0.036407
3408.000000	0.036517
3407.000000	0.036622
3406.000000	0.036723
3405.000000	0.036826
3404.000000	0.036933
3403.000000	0.037042
3402.000000	0.037152
3401.000000	0.037265
3400.000000	0.037381
3399.000000	0.037498
3398.000000	0.037615
3397.000000	0.037727
3396.000000	0.037827
3395.000000	0.037916
3394.000000	0.038009
3393.000000	0.038128
3392.000000	0.038270
3391.000000	0.038418
3390.000000	0.038556
3389.000000	0.038679
3388.000000	0.038790
3387.000000	0.038897
3386.000000	0.039008
3385.000000	0.039126
3384.000000	0.039243
3383.000000	0.039349
3382.000000	0.039449
3381.000000	0.039557
3380.000000	0.039679
3379.000000	0.039810
3378.000000	0.039948
3377.000000	0.040093
3376.000000	0.040241
3375.000000	0.040383
3374.000000	0.040508
3373.000000	0.040617
3372.000000	0.040714
3371.000000	0.040812
3370.000000	0.040927
3369.000000	0.041073
3368.000000	0.041249
3367.000000	0.041448
3366.000000	0.041661
3365.000000	0.041875
3364.000000	0.042077
3363.000000	0.042261
3362.000000	0.042442
3361.000000	0.042636
3360.000000	0.042847
3359.000000	0.043062
3358.000000	0.043274
3357.000000	0.043481
3356.000000	0.043683
3355.000000	0.043870
3354.000000	0.044041
3353.000000	0.044207
3352.000000	0.044386
3351.000000	0.044594
3350.000000	0.044837
3349.000000	0.045104
3348.000000	0.045373
3347.000000	0.045621
3346.000000	0.045847
3345.000000	0.046062
3344.000000	0.046279
3343.000000	0.046501
3342.000000	0.046725
3341.000000	0.046947
3340.000000	0.047173
3339.000000	0.047416
3338.000000	0.047693
3337.000000	0.048002
3336.000000	0.048321
3335.000000	0.048627
3334.000000	0.048912
3333.000000	0.049183
3332.000000	0.049445
3331.000000	0.049697
3330.000000	0.049938
3329.000000	0.050170
3328.000000	0.050401
3327.000000	0.050645
3326.000000	0.050926
3325.000000	0.051249
3324.000000	0.051594
3323.000000	0.051932
3322.000000	0.052250
3321.000000	0.052555
3320.000000	0.052856
3319.000000	0.053156
3318.000000	0.053460
3317.000000	0.053770
3316.000000	0.054079
3315.000000	0.054378
3314.000000	0.054662
3313.000000	0.054927
3312.000000	0.055164
3311.000000	0.055378
3310.000000	0.055592
3309.000000	0.055833
3308.000000	0.056108
3307.000000	0.056411
3306.000000	0.056745
3305.000000	0.057113
3304.000000	0.057501
3303.000000	0.057878
3302.000000	0.058220
3301.000000	0.058520
3300.000000	0.058776
3299.000000	0.058994
3298.000000	0.059188
3297.000000	0.059379
3296.000000	0.059570
3295.000000	0.059759
3294.000000	0.059955
3293.000000	0.060176
3292.000000	0.060430
3291.000000	0.060698
3290.000000	0.060953
3289.000000	0.061173
3288.000000	0.061344
3287.000000	0.061470
3286.000000	0.061563
3285.000000	0.061639
3284.000000	0.061702
3283.000000	0.061749
3282.000000	0.061777
3281.000000	0.061783
3280.000000	0.061756
3279.000000	0.061682
3278.000000	0.061564
3277.000000	0.061421
3276.000000	0.061270
3275.000000	0.061106
3274.000000	0.060915
3273.000000	0.060700
3272.000000	0.060481
3271.000000	0.060287
3270.000000	0.060133
3269.000000	0.060001
3268.000000	0.059852
3267.000000	0.059659
3266.000000	0.059421
3265.000000	0.059155
3264.000000	0.058867
3263.000000	0.058557
3262.000000	0.058230
3261.000000	0.057888
3260.000000	0.057527
3259.000000	0.057138
3258.000000	0.056734
3257.000000	0.056349
3256.000000	0.056014
3255.000000	0.055727
3254.000000	0.055459
3253.000000	0.055173
3252.000000	0.054841
3251.000000	0.054456
3250.000000	0.054036
3249.000000	0.053620
3248.000000	0.053251
3247.000000	0.052958
3246.000000	0.052737
3245.000000	0.052551
3244.000000	0.052356
3243.000000	0.052133
3242.000000	0.051891
3241.000000	0.051647
3240.000000	0.051399
3239.000000	0.051130
3238.000000	0.050826
3237.000000	0.050487
3236.000000	0.050130
3235.000000	0.049797
3234.000000	0.049537
3233.000000	0.049372
3232.000000	0.049273
3231.000000	0.049186
3230.000000	0.049073
3229.000000	0.048927
3228.000000	0.048756
3227.000000	0.048562
3226.000000	0.048352
3225.000000	0.048138
3224.000000	0.047923
3223.000000	0.047705
3222.000000	0.047490
3221.000000	0.047289
3220.000000	0.047112
3219.000000	0.046950
3218.000000	0.046787
3217.000000	0.046611
3216.000000	0.046426
3215.000000	0.046244
3214.000000	0.046075
3213.000000	0.045917
3212.000000	0.045756
3211.000000	0.045583
3210.000000	0.045399
3209.000000	0.045211
3208.000000	0.045022
3207.000000	0.044836
3206.000000	0.044658
3205.000000	0.044487
3204.000000	0.044313
3203.000000	0.044125
3202.000000	0.043923
3201.000000	0.043721
3200.000000	0.043528
3199.000000	0.043344
3198.000000	0.043164
3197.000000	0.042978
3196.000000	0.042774
3195.000000	0.042552
3194.000000	0.042324
3193.000000	0.042102
3192.000000	0.041888
3191.000000	0.041675
3190.000000	0.041461
3189.000000	0.041248
3188.000000	0.041030
3187.000000	0.040805
3186.000000	0.040577
3185.000000	0.040354
3184.000000	0.040131
3183.000000	0.039901
3182.000000	0.039664
3181.000000	0.039427
3180.000000	0.039195
3179.000000	0.038966
3178.000000	0.038739
3177.000000	0.038516
3176.000000	0.038291
3175.000000	0.038056
3174.000000	0.037814
3173.000000	0.037574
3172.000000	0.037343
3171.000000	0.037121
3170.000000	0.036911
3169.000000	0.036710
3168.000000	0.036509
3167.000000	0.036299
3166.000000	0.036081
3165.000000	0.035866
3164.000000	0.035656
3163.000000	0.035450
3162.000000	0.035247
3161.000000	0.035050
3160.000000	0.034853
3159.000000	0.034645
3158.000000	0.034426
3157.000000	0.034203
3156.000000	0.033978
3155.000000	0.033754
3154.000000	0.033545
3153.000000	0.033367
3152.000000	0.033222
3151.000000	0.033093
3150.000000	0.032963
3149.000000	0.032824
3148.000000	0.032678
3147.000000	0.032528
3146.000000	0.032380
3145.000000	0.032232
3144.000000	0.032072
3143.000000	0.031890
3142.000000	0.031696
3141.000000	0.031518
3140.000000	0.031379
3139.000000	0.031281
3138.000000	0.031207
3137.000000	0.031138
3136.000000	0.031055
3135.000000	0.030950
3134.000000	0.030833
3133.000000	0.030711
3132.000000	0.030589
3131.000000	0.030470
3130.000000	0.030367
3129.000000	0.030290
3128.000000	0.030227
3127.000000	0.030160
3126.000000	0.030080
3125.000000	0.029987
3124.000000	0.029877
3123.000000	0.029751
3122.000000	0.029621
3121.000000	0.029506
3120.000000	0.029411
3119.000000	0.029334
3118.000000	0.029279
3117.000000	0.029262
3116.000000	0.029284
3115.000000	0.029332
3114.000000	0.029379
3113.000000	0.029406
3112.000000	0.029399
3111.000000	0.029365
3110.000000	0.029332
3109.000000	0.029333
3108.000000	0.029374
3107.000000	0.029434
3106.000000	0.029486
3105.000000	0.029516
3104.000000	0.029517
3103.000000	0.029492
3102.000000	0.029458
3101.000000	0.029447
3100.000000	0.029474
3099.000000	0.029535
3098.000000	0.029612
3097.000000	0.029690
3096.000000	0.029755
3095.000000	0.029793
3094.000000	0.029797
3093.000000	0.029776
3092.000000	0.029751
3091.000000	0.029743
3090.000000	0.029762
3089.000000	0.029796
3088.000000	0.029819
3087.000000	0.029816
3086.000000	0.029800
3085.000000	0.029792
3084.000000	0.029796
3083.000000	0.029799
3082.000000	0.029790
3081.000000	0.029778
3080.000000	0.029778
3079.000000	0.029805
3078.000000	0.029870
3077.000000	0.029966
3076.000000	0.030067
3075.000000	0.030141
3074.000000	0.030176
3073.000000	0.030177
3072.000000	0.030146
3071.000000	0.030078
3070.000000	0.029978
3069.000000	0.029873
3068.000000	0.029798
3067.000000	0.029773
3066.000000	0.029786
3065.000000	0.029812
3064.000000	0.029826
3063.000000	0.029811
3062.000000	0.029765
3061.000000	0.029684
3060.000000	0.029568
3059.000000	0.029422
3058.000000	0.029271
3057.000000	0.029139
3056.000000	0.029032
3055.000000	0.028930
3054.000000	0.028807
3053.000000	0.028660
3052.000000	0.028512
3051.000000	0.028387
3050.000000	0.028289
3049.000000	0.028190
3048.000000	0.028053
3047.000000	0.027870
3046.000000	0.027662
3045.000000	0.027464
3044.000000	0.027293
3043.000000	0.027161
3042.000000	0.027076
3041.000000	0.027037
3040.000000	0.027013
3039.000000	0.026957
3038.000000	0.026840
3037.000000	0.026673
3036.000000	0.026494
3035.000000	0.026348
3034.000000	0.026259
3033.000000	0.026218
3032.000000	0.026194
3031.000000	0.026160
3030.000000	0.026107
3029.000000	0.026029
3028.000000	0.025915
3027.000000	0.025763
3026.000000	0.025600
3025.000000	0.025464
3024.000000	0.025360
3023.000000	0.025262
3022.000000	0.025142
3021.000000	0.024998
3020.000000	0.024845
3019.000000	0.024695
3018.000000	0.024555
3017.000000	0.024427
3016.000000	0.024313
3015.000000	0.024220
3014.000000	0.024159
3013.000000	0.024145
3012.000000	0.024178
3011.000000	0.024246
3010.000000	0.024333
3009.000000	0.024417
3008.000000	0.024474
3007.000000	0.024493
3006.000000	0.024487
3005.000000	0.024481
3004.000000	0.024493
3003.000000	0.024521
3002.000000	0.024555
3001.000000	0.024586
3000.000000	0.024619
2999.000000	0.024670
2998.000000	0.024757
2997.000000	0.024879
2996.000000	0.025012
2995.000000	0.025134
2994.000000	0.025257
2993.000000	0.025413
2992.000000	0.025615
2991.000000	0.025851
2990.000000	0.026099
2989.000000	0.026351
2988.000000	0.026604
2987.000000	0.026849
2986.000000	0.027080
2985.000000	0.027294
2984.000000	0.027494
2983.000000	0.027688
2982.000000	0.027896
2981.000000	0.028136
2980.000000	0.028410
2979.000000	0.028700
2978.000000	0.028982
2977.000000	0.029247
2976.000000	0.029494
2975.000000	0.029732
2974.000000	0.029972
2973.000000	0.030216
2972.000000	0.030452
2971.000000	0.030669
2970.000000	0.030868
2969.000000	0.031053
2968.000000	0.031224
2967.000000	0.031371
2966.000000	0.031492
2965.000000	0.031591
2964.000000	0.031674
2963.000000	0.031744
2962.000000	0.031806
2961.000000	0.031856
2960.000000	0.031881
2959.000000	0.031869
2958.000000	0.031821
2957.000000	0.031744
2956.000000	0.031639
2955.000000	0.031508
2954.000000	0.031373
2953.000000	0.031260
2952.000000	0.031184
2951.000000	0.031131
2950.000000	0.031089
2949.000000	0.031064
2948.000000	0.031071
2947.000000	0.031127
2946.000000	0.031241
2945.000000	0.031419
2944.000000	0.031652
2943.000000	0.031923
2942.000000	0.032214
2941.000000	0.032512
2940.000000	0.032804
2939.000000	0.033085
2938.000000	0.033350
2937.000000	0.033603
2936.000000	0.033840
2935.000000	0.034052
2934.000000	0.034227
2933.000000	0.034361
2932.000000	0.034457
2931.000000	0.034537
2930.000000	0.034630
2929.000000	0.034751
2928.000000	0.034884
2927.000000	0.035006
2926.000000	0.035104
2925.000000	0.035186
2924.000000	0.035258
2923.000000	0.035316
2922.000000	0.035352
2921.000000	0.035352
2920.000000	0.035297
2919.000000	0.035164
2918.000000	0.034936
2917.000000	0.034600
2916.000000	0.034150
2915.000000	0.033603
2914.000000	0.033005
2913.000000	0.032417
2912.000000	0.031876
2911.000000	0.031395
2910.000000	0.030977
2909.000000	0.030620
2908.000000	0.030310
2907.000000	0.030026
2906.000000	0.029765
2905.000000	0.029534
2904.000000	0.029341
2903.000000	0.029177
2902.000000	0.029033
2901.000000	0.028900
2900.000000	0.028765
2899.000000	0.028620
2898.000000	0.028469
2897.000000	0.028335
2896.000000	0.028234
2895.000000	0.028167
2894.000000	0.028122
2893.000000	0.028088
2892.000000	0.028056
2891.000000	0.028023
2890.000000	0.027990
2889.000000	0.027964
2888.000000	0.027948
2887.000000	0.027943
2886.000000	0.027953
2885.000000	0.027981
2884.000000	0.028027
2883.000000	0.028084
2882.000000	0.028150
2881.000000	0.028224
2880.000000	0.028296
2879.000000	0.028353
2878.000000	0.028381
2877.000000	0.028373
2876.000000	0.028326
2875.000000	0.028246
2874.000000	0.028152
2873.000000	0.028057
2872.000000	0.027954
2871.000000	0.027825
2870.000000	0.027658
2869.000000	0.027459
2868.000000	0.027241
2867.000000	0.027018
2866.000000	0.026806
2865.000000	0.026618
2864.000000	0.026453
2863.000000	0.026308
2862.000000	0.026188
2861.000000	0.026110
2860.000000	0.026083
2859.000000	0.026099
2858.000000	0.026148
2857.000000	0.026228
2856.000000	0.026341
2855.000000	0.026482
2854.000000	0.026644
2853.000000	0.026807
2852.000000	0.026925
2851.000000	0.026935
2850.000000	0.026789
2849.000000	0.026475
2848.000000	0.026023
2847.000000	0.025486
2846.000000	0.024929
2845.000000	0.024403
2844.000000	0.023931
2843.000000	0.023514
2842.000000	0.023142
2841.000000	0.022814
2840.000000	0.022534
2839.000000	0.022307
2838.000000	0.022132
2837.000000	0.021999
2836.000000	0.021890
2835.000000	0.021790
2834.000000	0.021697
2833.000000	0.021616
2832.000000	0.021544
2831.000000	0.021469
2830.000000	0.021389
2829.000000	0.021310
2828.000000	0.021234
2827.000000	0.021158
2826.000000	0.021082
2825.000000	0.021010
2824.000000	0.020942
2823.000000	0.020877
2822.000000	0.020817
2821.000000	0.020767
2820.000000	0.020721
2819.000000	0.020674
2818.000000	0.020627
2817.000000	0.020585
2816.000000	0.020543
2815.000000	0.020492
2814.000000	0.020430
2813.000000	0.020367
2812.000000	0.020309
2811.000000	0.020256
2810.000000	0.020212
2809.000000	0.020176
2808.000000	0.020143
2807.000000	0.020106
2806.000000	0.020065
2805.000000	0.020025
2804.000000	0.019982
2803.000000	0.019927
2802.000000	0.019861
2801.000000	0.019795
2800.000000	0.019736
2799.000000	0.019686
2798.000000	0.019648
2797.000000	0.019620
2796.000000	0.019595
2795.000000	0.019562
2794.000000	0.019520
2793.000000	0.019475
2792.000000	0.019431
2791.000000	0.019388
2790.000000	0.019353
2789.000000	0.019333
2788.000000	0.019323
2787.000000	0.019308
2786.000000	0.019279
2785.000000	0.019240
2784.000000	0.019200
2783.000000	0.019161
2782.000000	0.019130
2781.000000	0.019109
2780.000000	0.019089
2779.000000	0.019055
2778.000000	0.019002
2777.000000	0.018939
2776.000000	0.018878
2775.000000	0.018827
2774.000000	0.018792
2773.000000	0.018772
2772.000000	0.018757
2771.000000	0.018733
2770.000000	0.018700
2769.000000	0.018667
2768.000000	0.018638
2767.000000	0.018612
2766.000000	0.018586
2765.000000	0.018557
2764.000000	0.018525
2763.000000	0.018486
2762.000000	0.018444
2761.000000	0.018408
2760.000000	0.018377
2759.000000	0.018348
2758.000000	0.018321
2757.000000	0.018295
2756.000000	0.018268
2755.000000	0.018232
2754.000000	0.018190
2753.000000	0.018146
2752.000000	0.018104
2751.000000	0.018061
2750.000000	0.018021
2749.000000	0.017991
2748.000000	0.017972
2747.000000	0.017958
2746.000000	0.017942
2745.000000	0.017923
2744.000000	0.017902
2743.000000	0.017878
2742.000000	0.017851
2741.000000	0.017823
2740.000000	0.017792
2739.000000	0.017759
2738.000000	0.017729
2737.000000	0.017707
2736.000000	0.017689
2735.000000	0.017668
2734.000000	0.017643
2733.000000	0.017622
2732.000000	0.017602
2731.000000	0.017575
2730.000000	0.017537
2729.000000	0.017493
2728.000000	0.017447
2727.000000	0.017401
2726.000000	0.017363
2725.000000	0.017337
2724.000000	0.017317
2723.000000	0.017295
2722.000000	0.017269
2721.000000	0.017243
2720.000000	0.017216
2719.000000	0.017184
2718.000000	0.017151
2717.000000	0.017121
2716.000000	0.017096
2715.000000	0.017068
2714.000000	0.017035
2713.000000	0.017002
2712.000000	0.016969
2711.000000	0.016933
2710.000000	0.016897
2709.000000	0.016867
2708.000000	0.016841
2707.000000	0.016814
2706.000000	0.016786
2705.000000	0.016761
2704.000000	0.016737
2703.000000	0.016709
2702.000000	0.016680
2701.000000	0.016654
2700.000000	0.016632
2699.000000	0.016610
2698.000000	0.016589
2697.000000	0.016573
2696.000000	0.016557
2695.000000	0.016536
2694.000000	0.016509
2693.000000	0.016484
2692.000000	0.016463
2691.000000	0.016444
2690.000000	0.016430
2689.000000	0.016423
2688.000000	0.016416
2687.000000	0.016402
2686.000000	0.016376
2685.000000	0.016347
2684.000000	0.016316
2683.000000	0.016285
2682.000000	0.016256
2681.000000	0.016235
2680.000000	0.016217
2679.000000	0.016199
2678.000000	0.016184
2677.000000	0.016177
2676.000000	0.016172
2675.000000	0.016162
2674.000000	0.016148
2673.000000	0.016138
2672.000000	0.016132
2671.000000	0.016121
2670.000000	0.016105
2669.000000	0.016090
2668.000000	0.016078
2667.000000	0.016068
2666.000000	0.016061
2665.000000	0.016059
2664.000000	0.016059
2663.000000	0.016054
2662.000000	0.016044
2661.000000	0.016037
2660.000000	0.016033
2659.000000	0.016025
2658.000000	0.016014
2657.000000	0.016004
2656.000000	0.015995
2655.000000	0.015984
2654.000000	0.015971
2653.000000	0.015962
2652.000000	0.015957
2651.000000	0.015952
2650.000000	0.015945
2649.000000	0.015940
2648.000000	0.015936
2647.000000	0.015928
2646.000000	0.015917
2645.000000	0.015907
2644.000000	0.015897
2643.000000	0.015881
2642.000000	0.015864
2641.000000	0.015853
2640.000000	0.015850
2639.000000	0.015848
2638.000000	0.015846
2637.000000	0.015843
2636.000000	0.015836
2635.000000	0.015821
2634.000000	0.015805
2633.000000	0.015797
2632.000000	0.015794
2631.000000	0.015788
2630.000000	0.015774
2629.000000	0.015762
2628.000000	0.015756
2627.000000	0.015753
2626.000000	0.015749
2625.000000	0.015746
2624.000000	0.015737
2623.000000	0.015717
2622.000000	0.015692
2621.000000	0.015676
2620.000000	0.015672
2619.000000	0.015670
2618.000000	0.015666
2617.000000	0.015661
2616.000000	0.015653
2615.000000	0.015637
2614.000000	0.015617
2613.000000	0.015602
2612.000000	0.015593
2611.000000	0.015580
2610.000000	0.015564
2609.000000	0.015555
2608.000000	0.015551
2607.000000	0.015545
2606.000000	0.015535
2605.000000	0.015530
2604.000000	0.015528
2603.000000	0.015521
2602.000000	0.015508
2601.000000	0.015496
2600.000000	0.015481
2599.000000	0.015457
2598.000000	0.015431
2597.000000	0.015416
2596.000000	0.015412
2595.000000	0.015406
2594.000000	0.015394
2593.000000	0.015383
2592.000000	0.015374
2591.000000	0.015360
2590.000000	0.015337
2589.000000	0.015312
2588.000000	0.015290
2587.000000	0.015269
2586.000000	0.015256
2585.000000	0.015252
2584.000000	0.015247
2583.000000	0.015227
2582.000000	0.015199
2581.000000	0.015181
2580.000000	0.015173
2579.000000	0.015161
2578.000000	0.015140
2577.000000	0.015123
2576.000000	0.015115
2575.000000	0.015111
2574.000000	0.015111
2573.000000	0.015118
2572.000000	0.015123
2571.000000	0.015116
2570.000000	0.015096
2569.000000	0.015076
2568.000000	0.015056
2567.000000	0.015029
2566.000000	0.015000
2565.000000	0.014983
2564.000000	0.014982
2563.000000	0.014984
2562.000000	0.014979
2561.000000	0.014967
2560.000000	0.014948
2559.000000	0.014923
2558.000000	0.014905
2557.000000	0.014901
2556.000000	0.014905
2555.000000	0.014902
2554.000000	0.014897
2553.000000	0.014902
2552.000000	0.014909
2551.000000	0.014901
2550.000000	0.014880
2549.000000	0.014860
2548.000000	0.014842
2547.000000	0.014820
2546.000000	0.014799
2545.000000	0.014793
2544.000000	0.014799
2543.000000	0.014800
2542.000000	0.014795
2541.000000	0.014798
2540.000000	0.014808
2539.000000	0.014812
2538.000000	0.014807
2537.000000	0.014804
2536.000000	0.014807
2535.000000	0.014810
2534.000000	0.014814
2533.000000	0.014826
2532.000000	0.014839
2531.000000	0.014840
2530.000000	0.014833
2529.000000	0.014836
2528.000000	0.014850
2527.000000	0.014861
2526.000000	0.014864
2525.000000	0.014868
2524.000000	0.014871
2523.000000	0.014872
2522.000000	0.014877
2521.000000	0.014897
2520.000000	0.014926
2519.000000	0.014944
2518.000000	0.014951
2517.000000	0.014959
2516.000000	0.014972
2515.000000	0.014984
2514.000000	0.015005
2513.000000	0.015046
2512.000000	0.015095
2511.000000	0.015134
2510.000000	0.015164
2509.000000	0.015203
2508.000000	0.015255
2507.000000	0.015302
2506.000000	0.015342
2505.000000	0.015388
2504.000000	0.015449
2503.000000	0.015522
2502.000000	0.015606
2501.000000	0.015700
2500.000000	0.015795
2499.000000	0.015876
2498.000000	0.015949
2497.000000	0.016032
2496.000000	0.016125
2495.000000	0.016214
2494.000000	0.016304
2493.000000	0.016411
2492.000000	0.016538
2491.000000	0.016670
2490.000000	0.016798
2489.000000	0.016928
2488.000000	0.017052
2487.000000	0.017161
2486.000000	0.017256
2485.000000	0.017350
2484.000000	0.017441
2483.000000	0.017522
2482.000000	0.017598
2481.000000	0.017681
2480.000000	0.017765
2479.000000	0.017837
2478.000000	0.017897
2477.000000	0.017957
2476.000000	0.018015
2475.000000	0.018062
2474.000000	0.018101
2473.000000	0.018143
2472.000000	0.018184
2471.000000	0.018212
2470.000000	0.018233
2469.000000	0.018262
2468.000000	0.018297
2467.000000	0.018320
2466.000000	0.018331
2465.000000	0.018340
2464.000000	0.018347
2463.000000	0.018343
2462.000000	0.018336
2461.000000	0.018345
2460.000000	0.018366
2459.000000	0.018379
2458.000000	0.018377
2457.000000	0.018370
2456.000000	0.018365
2455.000000	0.018359
2454.000000	0.018356
2453.000000	0.018366
2452.000000	0.018382
2451.000000	0.018393
2450.000000	0.018399
2449.000000	0.018412
2448.000000	0.018425
2447.000000	0.018427
2446.000000	0.018429
2445.000000	0.018451
2444.000000	0.018493
2443.000000	0.018536
2442.000000	0.018573
2441.000000	0.018613
2440.000000	0.018659
2439.000000	0.018702
2438.000000	0.018745
2437.000000	0.018802
2436.000000	0.018876
2435.000000	0.018957
2434.000000	0.019044
2433.000000	0.019144
2432.000000	0.019244
2431.000000	0.019324
2430.000000	0.019386
2429.000000	0.019450
2428.000000	0.019520
2427.000000	0.019582
2426.000000	0.019633
2425.000000	0.019676
2424.000000	0.019707
2423.000000	0.019719
2422.000000	0.019719
2421.000000	0.019724
2420.000000	0.019732
2419.000000	0.019729
2418.000000	0.019712
2417.000000	0.019691
2416.000000	0.019663
2415.000000	0.019618
2414.000000	0.019556
2413.000000	0.019490
2412.000000	0.019413
2411.000000	0.019310
2410.000000	0.019181
2409.000000	0.019044
2408.000000	0.018906
2407.000000	0.018765
2406.000000	0.018625
2405.000000	0.018493
2404.000000	0.018363
2403.000000	0.018219
2402.000000	0.018062
2401.000000	0.017905
2400.000000	0.017749
2399.000000	0.017586
2398.000000	0.017420
2397.000000	0.017266
2396.000000	0.017120
2395.000000	0.016969
2394.000000	0.016814
2393.000000	0.016672
2392.000000	0.016549
2391.000000	0.016434
2390.000000	0.016325
2389.000000	0.016223
2388.000000	0.016119
2387.000000	0.016001
2386.000000	0.015873
2385.000000	0.015751
2384.000000	0.015637
2383.000000	0.015520
2382.000000	0.015399
2381.000000	0.015286
2380.000000	0.015182
2379.000000	0.015079
2378.000000	0.014980
2377.000000	0.014897
2376.000000	0.014824
2375.000000	0.014738
2374.000000	0.014638
2373.000000	0.014541
2372.000000	0.014456
2371.000000	0.014371
2370.000000	0.014285
2369.000000	0.014212
2368.000000	0.014154
2367.000000	0.014102
2366.000000	0.014062
2365.000000	0.014047
2364.000000	0.014043
2363.000000	0.014024
2362.000000	0.013990
2361.000000	0.013966
2360.000000	0.013945
2359.000000	0.013899
2358.000000	0.013827
2357.000000	0.013760
2356.000000	0.013719
2355.000000	0.013706
2354.000000	0.013720
2353.000000	0.013752
2352.000000	0.013764
2351.000000	0.013727
2350.000000	0.013656
2349.000000	0.013595
2348.000000	0.013571
2347.000000	0.013582
2346.000000	0.013609
2345.000000	0.013627
2344.000000	0.013603
2343.000000	0.013533
2342.000000	0.013456
2341.000000	0.013412
2340.000000	0.013403
2339.000000	0.013406
2338.000000	0.013410
2337.000000	0.013416
2336.000000	0.013414
2335.000000	0.013392
2334.000000	0.013363
2333.000000	0.013350
2332.000000	0.013353
2331.000000	0.013362
2330.000000	0.013391
2329.000000	0.013463
2328.000000	0.013558
2327.000000	0.013614
2326.000000	0.013594
2325.000000	0.013513
2324.000000	0.013413
2323.000000	0.013328
2322.000000	0.013271
2321.000000	0.013245
2320.000000	0.013237
2319.000000	0.013228
2318.000000	0.013215
2317.000000	0.013205
2316.000000	0.013201
2315.000000	0.013198
2314.000000	0.013199
2313.000000	0.013208
2312.000000	0.013211
2311.000000	0.013189
2310.000000	0.013151
2309.000000	0.013123
2308.000000	0.013111
2307.000000	0.013107
2306.000000	0.013108
2305.000000	0.013123
2304.000000	0.013143
2303.000000	0.013150
2302.000000	0.013147
2301.000000	0.013147
2300.000000	0.013155
2299.000000	0.013160
2298.000000	0.013165
2297.000000	0.013182
2296.000000	0.013207
2295.000000	0.013227
2294.000000	0.013244
2293.000000	0.013268
2292.000000	0.013292
2291.000000	0.013304
2290.000000	0.013311
2289.000000	0.013328
2288.000000	0.013340
2287.000000	0.013325
2286.000000	0.013293
2285.000000	0.013276
2284.000000	0.013273
2283.000000	0.013256
2282.000000	0.013224
2281.000000	0.013200
2280.000000	0.013184
2279.000000	0.013158
2278.000000	0.013126
2277.000000	0.013114
2276.000000	0.013120
2275.000000	0.013117
2274.000000	0.013104
2273.000000	0.013097
2272.000000	0.013088
2271.000000	0.013050
2270.000000	0.012995
2269.000000	0.012955
2268.000000	0.012928
2267.000000	0.012889
2266.000000	0.012849
2265.000000	0.012843
2264.000000	0.012872
2263.000000	0.012899
2262.000000	0.012915
2261.000000	0.012938
2260.000000	0.012957
2259.000000	0.012933
2258.000000	0.012866
2257.000000	0.012804
2256.000000	0.012770
2255.000000	0.012754
2254.000000	0.012752
2253.000000	0.012770
2252.000000	0.012781
2251.000000	0.012755
2250.000000	0.012718
2249.000000	0.012723
2248.000000	0.012765
2247.000000	0.012791
2246.000000	0.012790
2245.000000	0.012797
2244.000000	0.012817
2243.000000	0.012810
2242.000000	0.012772
2241.000000	0.012746
2240.000000	0.012744
2239.000000	0.012733
2238.000000	0.012702
2237.000000	0.012681
2236.000000	0.012680
2235.000000	0.012678
2234.000000	0.012669
2233.000000	0.012669
2232.000000	0.012670
2231.000000	0.012641
2230.000000	0.012595
2229.000000	0.012575
2228.000000	0.012584
2227.000000	0.012593
2226.000000	0.012597
2225.000000	0.012611
2224.000000	0.012615
2223.000000	0.012576
2222.000000	0.012519
2221.000000	0.012496
2220.000000	0.012504
2219.000000	0.012504
2218.000000	0.012502
2217.000000	0.012536
2216.000000	0.012583
2215.000000	0.012583
2214.000000	0.012539
2213.000000	0.012510
2212.000000	0.012509
2211.000000	0.012494
2210.000000	0.012459
2209.000000	0.012439
2208.000000	0.012436
2207.000000	0.012425
2206.000000	0.012424
2205.000000	0.012470
2204.000000	0.012528
2203.000000	0.012530
2202.000000	0.012481
2201.000000	0.012444
2200.000000	0.012431
2199.000000	0.012407
2198.000000	0.012387
2197.000000	0.012413
2196.000000	0.012461
2195.000000	0.012465
2194.000000	0.012433
2193.000000	0.012428
2192.000000	0.012450
2191.000000	0.012444
2190.000000	0.012411
2189.000000	0.012402
2188.000000	0.012410
2187.000000	0.012382
2186.000000	0.012331
2185.000000	0.012308
2184.000000	0.012291
2183.000000	0.012221
2182.000000	0.012140
2181.000000	0.012147
2180.000000	0.012225
2179.000000	0.012257
2178.000000	0.012211
2177.000000	0.012164
2176.000000	0.012146
2175.000000	0.012112
2174.000000	0.012068
2173.000000	0.012080
2172.000000	0.012148
2171.000000	0.012201
2170.000000	0.012234
2169.000000	0.012301
2168.000000	0.012389
2167.000000	0.012423
2166.000000	0.012412
2165.000000	0.012439
2164.000000	0.012464
2163.000000	0.012306
2162.000000	0.011870
2161.000000	0.011306
2160.000000	0.010860
2159.000000	0.010679
2158.000000	0.010765
2157.000000	0.011007
2156.000000	0.011230
2155.000000	0.011331
2154.000000	0.011364
2153.000000	0.011426
2152.000000	0.011506
2151.000000	0.011532
2150.000000	0.011511
2149.000000	0.011501
2148.000000	0.011497
2147.000000	0.011458
2146.000000	0.011413
2145.000000	0.011426
2144.000000	0.011478
2143.000000	0.011502
2142.000000	0.011504
2141.000000	0.011534
2140.000000	0.011574
2139.000000	0.011559
2138.000000	0.011487
2137.000000	0.011423
2136.000000	0.011401
2135.000000	0.011418
2134.000000	0.011487
2133.000000	0.011619
2132.000000	0.011761
2131.000000	0.011848
2130.000000	0.011887
2129.000000	0.011926
2128.000000	0.011967
2127.000000	0.011987
2126.000000	0.011999
2125.000000	0.012039
2124.000000	0.012096
2123.000000	0.012133
2122.000000	0.012150
2121.000000	0.012173
2120.000000	0.012197
2119.000000	0.012206
2118.000000	0.012222
2117.000000	0.012276
2116.000000	0.012333
2115.000000	0.012336
2114.000000	0.012293
2113.000000	0.012261
2112.000000	0.012250
2111.000000	0.012229
2110.000000	0.012203
2109.000000	0.012204
2108.000000	0.012219
2107.000000	0.012204
2106.000000	0.012167
2105.000000	0.012152
2104.000000	0.012160
2103.000000	0.012154
2102.000000	0.012137
2101.000000	0.012140
2100.000000	0.012146
2099.000000	0.012105
2098.000000	0.012019
2097.000000	0.011949
2096.000000	0.011923
2095.000000	0.011922
2094.000000	0.011936
2093.000000	0.011970
2092.000000	0.011998
2091.000000	0.011989
2090.000000	0.011967
2089.000000	0.011981
2088.000000	0.012020
2087.000000	0.012040
2086.000000	0.012040
2085.000000	0.012046
2084.000000	0.012041
2083.000000	0.011986
2082.000000	0.011902
2081.000000	0.011850
2080.000000	0.011838
2079.000000	0.011829
2078.000000	0.011815
2077.000000	0.011818
2076.000000	0.011813
2075.000000	0.011758
2074.000000	0.011677
2073.000000	0.011633
2072.000000	0.011627
2071.000000	0.011611
2070.000000	0.011585
2069.000000	0.011583
2068.000000	0.011587
2067.000000	0.011553
2066.000000	0.011504
2065.000000	0.011500
2064.000000	0.011519
2063.000000	0.011490
2062.000000	0.011415
2061.000000	0.011360
2060.000000	0.011340
2059.000000	0.011306
2058.000000	0.011252
2057.000000	0.011231
2056.000000	0.011265
2055.000000	0.011336
2054.000000	0.011428
2053.000000	0.011506
2052.000000	0.011481
2051.000000	0.011317
2050.000000	0.011138
2049.000000	0.011095
2048.000000	0.011157
2047.000000	0.011182
2046.000000	0.011154
2045.000000	0.011163
2044.000000	0.011202
2043.000000	0.011171
2042.000000	0.011077
2041.000000	0.011018
2040.000000	0.010996
2039.000000	0.010926
2038.000000	0.010824
2037.000000	0.010784
2036.000000	0.010789
2035.000000	0.010737
2034.000000	0.010653
2033.000000	0.010657
2032.000000	0.010736
2031.000000	0.010767
2030.000000	0.010729
2029.000000	0.010705
2028.000000	0.010690
2027.000000	0.010620
2026.000000	0.010546
2025.000000	0.010583
2024.000000	0.010694
2023.000000	0.010753
2022.000000	0.010766
2021.000000	0.010834
2020.000000	0.010935
2019.000000	0.010951
2018.000000	0.010891
2017.000000	0.010874
2016.000000	0.010910
2015.000000	0.010897
2014.000000	0.010820
2013.000000	0.010751
2012.000000	0.010700
2011.000000	0.010631
2010.000000	0.010589
2009.000000	0.010636
2008.000000	0.010703
2007.000000	0.010686
2006.000000	0.010644
2005.000000	0.010695
2004.000000	0.010801
2003.000000	0.010852
2002.000000	0.010863
2001.000000	0.010920
2000.000000	0.010981
1999.000000	0.010945
1998.000000	0.010842
1997.000000	0.010797
1996.000000	0.010829
1995.000000	0.010856
1994.000000	0.010856
1993.000000	0.010873
1992.000000	0.010877
1991.000000	0.010810
1990.000000	0.010726
1989.000000	0.010718
1988.000000	0.010760
1987.000000	0.010766
1986.000000	0.010777
1985.000000	0.010893
1984.000000	0.011075
1983.000000	0.011172
1982.000000	0.011127
1981.000000	0.010987
1980.000000	0.010768
1979.000000	0.010492
1978.000000	0.010306
1977.000000	0.010330
1976.000000	0.010455
1975.000000	0.010491
1974.000000	0.010454
1973.000000	0.010468
1972.000000	0.010513
1971.000000	0.010491
1970.000000	0.010444
1969.000000	0.010479
1968.000000	0.010550
1967.000000	0.010534
1966.000000	0.010465
1965.000000	0.010468
1964.000000	0.010522
1963.000000	0.010499
1962.000000	0.010399
1961.000000	0.010330
1960.000000	0.010323
1959.000000	0.010329
1958.000000	0.010363
1957.000000	0.010457
1956.000000	0.010546
1955.000000	0.010542
1954.000000	0.010489
1953.000000	0.010489
1952.000000	0.010529
1951.000000	0.010528
1950.000000	0.010504
1949.000000	0.010530
1948.000000	0.010579
1947.000000	0.010576
1946.000000	0.010548
1945.000000	0.010569
1944.000000	0.010597
1943.000000	0.010541
1942.000000	0.010448
1941.000000	0.010446
1940.000000	0.010530
1939.000000	0.010584
1938.000000	0.010573
1937.000000	0.010561
1936.000000	0.010573
1935.000000	0.010566
1934.000000	0.010543
1933.000000	0.010547
1932.000000	0.010567
1931.000000	0.010553
1930.000000	0.010527
1929.000000	0.010539
1928.000000	0.010551
1927.000000	0.010499
1926.000000	0.010421
1925.000000	0.010406
1924.000000	0.010430
1923.000000	0.010394
1922.000000	0.010318
1921.000000	0.010314
1920.000000	0.010386
1919.000000	0.010417
1918.000000	0.010351
1917.000000	0.010266
1916.000000	0.010236
1915.000000	0.010251
1914.000000	0.010289
1913.000000	0.010350
1912.000000	0.010407
1911.000000	0.010410
1910.000000	0.010373
1909.000000	0.010353
1908.000000	0.010355
1907.000000	0.010354
1906.000000	0.010361
1905.000000	0.010410
1904.000000	0.010460
1903.000000	0.010451
1902.000000	0.010410
1901.000000	0.010397
1900.000000	0.010399
1899.000000	0.010371
1898.000000	0.010335
1897.000000	0.010342
1896.000000	0.010358
1895.000000	0.010315
1894.000000	0.010249
1893.000000	0.010260
1892.000000	0.010343
1891.000000	0.010393
1890.000000	0.010351
1889.000000	0.010263
1888.000000	0.010187
1887.000000	0.010147
1886.000000	0.010160
1885.000000	0.010223
1884.000000	0.010278
1883.000000	0.010268
1882.000000	0.010215
1881.000000	0.010177
1880.000000	0.010152
1879.000000	0.010118
1878.000000	0.010099
1877.000000	0.010133
1876.000000	0.010180
1875.000000	0.010163
1874.000000	0.010095
1873.000000	0.010062
1872.000000	0.010093
1871.000000	0.010131
1870.000000	0.010129
1869.000000	0.010081
1868.000000	0.009987
1867.000000	0.009883
1866.000000	0.009846
1865.000000	0.009898
1864.000000	0.009961
1863.000000	0.009957
1862.000000	0.009915
1861.000000	0.009909
1860.000000	0.009935
1859.000000	0.009945
1858.000000	0.009943
1857.000000	0.009964
1856.000000	0.009991
1855.000000	0.009978
1854.000000	0.009946
1853.000000	0.009936
1852.000000	0.009927
1851.000000	0.009891
1850.000000	0.009843
1849.000000	0.009823
1848.000000	0.009832
1847.000000	0.009831
1846.000000	0.009797
1845.000000	0.009697
1844.000000	0.009489
1843.000000	0.009270
1842.000000	0.009255
1841.000000	0.009471
1840.000000	0.009723
1839.000000	0.009843
1838.000000	0.009840
1837.000000	0.009826
1836.000000	0.009825
1835.000000	0.009792
1834.000000	0.009769
1833.000000	0.009842
1832.000000	0.010007
1831.000000	0.010125
1830.000000	0.010059
1829.000000	0.009867
1828.000000	0.009726
1827.000000	0.009687
1826.000000	0.009667
1825.000000	0.009605
1824.000000	0.009525
1823.000000	0.009494
1822.000000	0.009542
1821.000000	0.009626
1820.000000	0.009666
1819.000000	0.009617
1818.000000	0.009536
1817.000000	0.009517
1816.000000	0.009558
1815.000000	0.009594
1814.000000	0.009621
1813.000000	0.009677
1812.000000	0.009743
1811.000000	0.009731
1810.000000	0.009636
1809.000000	0.009564
1808.000000	0.009555
1807.000000	0.009567
1806.000000	0.009577
1805.000000	0.009592
1804.000000	0.009583
1803.000000	0.009521
1802.000000	0.009461
1801.000000	0.009467
1800.000000	0.009510
1799.000000	0.009498
1798.000000	0.009443
1797.000000	0.009444
1796.000000	0.009520
1795.000000	0.009606
1794.000000	0.009637
1793.000000	0.009568
1792.000000	0.009372
1791.000000	0.009137
1790.000000	0.009066
1789.000000	0.009217
1788.000000	0.009420
1787.000000	0.009497
1786.000000	0.009438
1785.000000	0.009371
1784.000000	0.009380
1783.000000	0.009463
1782.000000	0.009571
1781.000000	0.009628
1780.000000	0.009600
1779.000000	0.009525
1778.000000	0.009508
1777.000000	0.009593
1776.000000	0.009720
1775.000000	0.009836
1774.000000	0.009940
1773.000000	0.009979
1772.000000	0.009823
1771.000000	0.009506
1770.000000	0.009252
1769.000000	0.009176
1768.000000	0.009208
1767.000000	0.009273
1766.000000	0.009414
1765.000000	0.009668
1764.000000	0.009925
1763.000000	0.010016
1762.000000	0.009892
1761.000000	0.009724
1760.000000	0.009706
1759.000000	0.009818
1758.000000	0.009944
1757.000000	0.010011
1756.000000	0.010031
1755.000000	0.010071
1754.000000	0.010148
1753.000000	0.010226
1752.000000	0.010280
1751.000000	0.010328
1750.000000	0.010474
1749.000000	0.010790
1748.000000	0.011137
1747.000000	0.011369
1746.000000	0.011532
1745.000000	0.011756
1744.000000	0.012069
1743.000000	0.012392
1742.000000	0.012716
1741.000000	0.013076
1740.000000	0.013369
1739.000000	0.013465
1738.000000	0.013501
1737.000000	0.013660
1736.000000	0.013888
1735.000000	0.013962
1734.000000	0.013755
1733.000000	0.013648
1732.000000	0.014065
1731.000000	0.014769
1730.000000	0.015369
1729.000000	0.015796
1728.000000	0.016136
1727.000000	0.016442
1726.000000	0.016729
1725.000000	0.017043
1724.000000	0.017381
1723.000000	0.017662
1722.000000	0.017919
1721.000000	0.018263
1720.000000	0.018666
1719.000000	0.018950
1718.000000	0.019026
1717.000000	0.019134
1716.000000	0.019518
1715.000000	0.020075
1714.000000	0.020665
1713.000000	0.021312
1712.000000	0.022002
1711.000000	0.022639
1710.000000	0.023243
1709.000000	0.023963
1708.000000	0.024894
1707.000000	0.025996
1706.000000	0.027209
1705.000000	0.028461
1704.000000	0.029584
1703.000000	0.030629
1702.000000	0.032191
1701.000000	0.035149
1700.000000	0.038901
1699.000000	0.041812
1698.000000	0.043982
1697.000000	0.046536
1696.000000	0.049678
1695.000000	0.052442
1694.000000	0.054241
1693.000000	0.055483
1692.000000	0.056500
1691.000000	0.057411
1690.000000	0.058290
1689.000000	0.059077
1688.000000	0.059582
1687.000000	0.059840
1686.000000	0.060427
1685.000000	0.062276
1684.000000	0.065039
1683.000000	0.067122
1682.000000	0.068324
1681.000000	0.069404
1680.000000	0.070590
1679.000000	0.071707
1678.000000	0.072665
1677.000000	0.073851
1676.000000	0.075738
1675.000000	0.078039
1674.000000	0.079894
1673.000000	0.081124
1672.000000	0.082280
1671.000000	0.083908
1670.000000	0.086194
1669.000000	0.088646
1668.000000	0.090560
1667.000000	0.091758
1666.000000	0.092548
1665.000000	0.093478
1664.000000	0.095057
1663.000000	0.097272
1662.000000	0.099472
1661.000000	0.101134
1660.000000	0.102369
1659.000000	0.103385
1658.000000	0.104142
1657.000000	0.104342
1656.000000	0.104096
1655.000000	0.104289
1654.000000	0.107062
1653.000000	0.112267
1652.000000	0.115744
1651.000000	0.116383
1650.000000	0.116026
1649.000000	0.115842
1648.000000	0.116848
1647.000000	0.119175
1646.000000	0.121539
1645.000000	0.122860
1644.000000	0.123387
1643.000000	0.123648
1642.000000	0.123955
1641.000000	0.124424
1640.000000	0.124860
1639.000000	0.125017
1638.000000	0.125179
1637.000000	0.126403
1636.000000	0.129341
1635.000000	0.132544
1634.000000	0.134220
1633.000000	0.134595
1632.000000	0.134571
1631.000000	0.134682
1630.000000	0.135298
1629.000000	0.136574
1628.000000	0.138209
1627.000000	0.139538
1626.000000	0.140321
1625.000000	0.141108
1624.000000	0.142628
1623.000000	0.144685
1622.000000	0.146123
1621.000000	0.146232
1620.000000	0.145379
1619.000000	0.144382
1618.000000	0.144113
1617.000000	0.144870
1616.000000	0.145619
1615.000000	0.145112
1614.000000	0.143264
1613.000000	0.140677
1612.000000	0.137895
1611.000000	0.135148
1610.000000	0.132351
1609.000000	0.129362
1608.000000	0.126194
1607.000000	0.122923
1606.000000	0.119540
1605.000000	0.116043
1604.000000	0.112558
1603.000000	0.109204
1602.000000	0.105935
1601.000000	0.102659
1600.000000	0.099421
1599.000000	0.096345
1598.000000	0.093442
1597.000000	0.090645
1596.000000	0.087967
1595.000000	0.085481
1594.000000	0.083163
1593.000000	0.080908
1592.000000	0.078723
1591.000000	0.076736
1590.000000	0.074985
1589.000000	0.073371
1588.000000	0.071861
1587.000000	0.070547
1586.000000	0.069464
1585.000000	0.068498
1584.000000	0.067596
1583.000000	0.066878
1582.000000	0.066371
1581.000000	0.065897
1580.000000	0.065313
1579.000000	0.064720
1578.000000	0.064381
1577.000000	0.064510
1576.000000	0.064977
1575.000000	0.065417
1574.000000	0.065651
1573.000000	0.065673
1572.000000	0.065686
1571.000000	0.066156
1570.000000	0.067266
1569.000000	0.068435
1568.000000	0.069180
1567.000000	0.069791
1566.000000	0.070663
1565.000000	0.071704
1564.000000	0.072536
1563.000000	0.072801
1562.000000	0.072626
1561.000000	0.072672
1560.000000	0.074558
1559.000000	0.078886
1558.000000	0.082573
1557.000000	0.083928
1556.000000	0.084539
1555.000000	0.085517
1554.000000	0.086922
1553.000000	0.088287
1552.000000	0.089447
1551.000000	0.090786
1550.000000	0.092496
1549.000000	0.094157
1548.000000	0.095274
1547.000000	0.096016
1546.000000	0.096912
1545.000000	0.098193
1544.000000	0.099567
1543.000000	0.100780
1542.000000	0.102177
1541.000000	0.104560
1540.000000	0.107851
1539.000000	0.110424
1538.000000	0.111322
1537.000000	0.111120
1536.000000	0.110628
1535.000000	0.110731
1534.000000	0.112060
1533.000000	0.113928
1532.000000	0.115048
1531.000000	0.115244
1530.000000	0.115149
1529.000000	0.115193
1528.000000	0.115509
1527.000000	0.116131
1526.000000	0.116878
1525.000000	0.117289
1524.000000	0.117202
1523.000000	0.117207
1522.000000	0.118146
1521.000000	0.119688
1520.000000	0.120585
1519.000000	0.120676
1518.000000	0.120744
1517.000000	0.121181
1516.000000	0.121500
1515.000000	0.121078
1514.000000	0.120013
1513.000000	0.118709
1512.000000	0.117329
1511.000000	0.115701
1510.000000	0.113715
1509.000000	0.111702
1508.000000	0.110550
1507.000000	0.110706
1506.000000	0.110766
1505.000000	0.109483
1504.000000	0.107365
1503.000000	0.104979
1502.000000	0.102520
1501.000000	0.100174
1500.000000	0.098012
1499.000000	0.095978
1498.000000	0.093986
1497.000000	0.092056
1496.000000	0.090142
1495.000000	0.088124
1494.000000	0.085978
1493.000000	0.083753
1492.000000	0.081557
1491.000000	0.079570
1490.000000	0.077928
1489.000000	0.076608
1488.000000	0.075449
1487.000000	0.074315
1486.000000	0.073242
1485.000000	0.072314
1484.000000	0.071567
1483.000000	0.071061
1482.000000	0.070863
1481.000000	0.070931
1480.000000	0.071087
1479.000000	0.071244
1478.000000	0.071540
1477.000000	0.072123
1476.000000	0.072891
1475.000000	0.073736
1474.000000	0.074959
1473.000000	0.076897
1472.000000	0.079119
1471.000000	0.080811
1470.000000	0.081831
1469.000000	0.082484
1468.000000	0.083008
1467.000000	0.083621
1466.000000	0.084590
1465.000000	0.085945
1464.000000	0.087228
1463.000000	0.087979
1462.000000	0.088234
1461.000000	0.088233
1460.000000	0.088191
1459.000000	0.088470
1458.000000	0.089745
1457.000000	0.092072
1456.000000	0.094167
1455.000000	0.095227
1454.000000	0.095603
1453.000000	0.095707
1452.000000	0.095710
1451.000000	0.095618
1450.000000	0.095464
1449.000000	0.095404
1448.000000	0.095474
1447.000000	0.095461
1446.000000	0.095161
1445.000000	0.094614
1444.000000	0.093989
1443.000000	0.093369
1442.000000	0.092711
1441.000000	0.091899
1440.000000	0.090849
1439.000000	0.089626
1438.000000	0.088531
1437.000000	0.087881
1436.000000	0.087498
1435.000000	0.086892
1434.000000	0.085891
1433.000000	0.084649
1432.000000	0.083392
1431.000000	0.082264
1430.000000	0.081226
1429.000000	0.080205
1428.000000	0.079187
1427.000000	0.078200
1426.000000	0.077298
1425.000000	0.076572
1424.000000	0.076056
1423.000000	0.075545
1422.000000	0.074825
1421.000000	0.074042
1420.000000	0.073672
1419.000000	0.073909
1418.000000	0.074321
1417.000000	0.074560
1416.000000	0.074682
1415.000000	0.074766
1414.000000	0.074792
1413.000000	0.074768
1412.000000	0.074783
1411.000000	0.074850
1410.000000	0.074839
1409.000000	0.074656
1408.000000	0.074341
1407.000000	0.073981
1406.000000	0.073638
1405.000000	0.073329
1404.000000	0.073031
1403.000000	0.072655
1402.000000	0.072139
1401.000000	0.071569
1400.000000	0.071132
1399.000000	0.070870
1398.000000	0.070618
1397.000000	0.070310
1396.000000	0.070109
1395.000000	0.070150
1394.000000	0.070299
1393.000000	0.070353
1392.000000	0.070289
1391.000000	0.070134
1390.000000	0.069875
1389.000000	0.069582
1388.000000	0.069421
1387.000000	0.069446
1386.000000	0.069489
1385.000000	0.069385
1384.000000	0.069154
1383.000000	0.068887
1382.000000	0.068620
1381.000000	0.068349
1380.000000	0.068110
1379.000000	0.067944
1378.000000	0.067819
1377.000000	0.067683
1376.000000	0.067586
1375.000000	0.067627
1374.000000	0.067774
1373.000000	0.067868
1372.000000	0.067826
1371.000000	0.067680
1370.000000	0.067454
1369.000000	0.067118
1368.000000	0.066649
1367.000000	0.066041
1366.000000	0.065283
1365.000000	0.064414
1364.000000	0.063565
1363.000000	0.062886
1362.000000	0.062391
1361.000000	0.061987
1360.000000	0.061618
1359.000000	0.061281
1358.000000	0.060965
1357.000000	0.060657
1356.000000	0.060390
1355.000000	0.060208
1354.000000	0.060087
1353.000000	0.059981
1352.000000	0.059891
1351.000000	0.059857
1350.000000	0.059881
1349.000000	0.059924
1348.000000	0.059982
1347.000000	0.060084
1346.000000	0.060224
1345.000000	0.060360
1344.000000	0.060460
1343.000000	0.060515
1342.000000	0.060512
1341.000000	0.060470
1340.000000	0.060461
1339.000000	0.060529
1338.000000	0.060608
1337.000000	0.060601
1336.000000	0.060488
1335.000000	0.060298
1334.000000	0.060041
1333.000000	0.059720
1332.000000	0.059390
1331.000000	0.059114
1330.000000	0.058896
1329.000000	0.058701
1328.000000	0.058532
1327.000000	0.058414
1326.000000	0.058335
1325.000000	0.058256
1324.000000	0.058189
1323.000000	0.058165
1322.000000	0.058171
1321.000000	0.058176
1320.000000	0.058194
1319.000000	0.058256
1318.000000	0.058330
1317.000000	0.058365
1316.000000	0.058372
1315.000000	0.058396
1314.000000	0.058436
1313.000000	0.058460
1312.000000	0.058465
1311.000000	0.058471
1310.000000	0.058458
1309.000000	0.058402
1308.000000	0.058327
1307.000000	0.058273
1306.000000	0.058231
1305.000000	0.058168
1304.000000	0.058095
1303.000000	0.058050
1302.000000	0.058026
1301.000000	0.057990
1300.000000	0.057954
1299.000000	0.057949
1298.000000	0.057969
1297.000000	0.057988
1296.000000	0.058016
1295.000000	0.058083
1294.000000	0.058169
1293.000000	0.058235
1292.000000	0.058289
1291.000000	0.058364
1290.000000	0.058454
1289.000000	0.058537
1288.000000	0.058629
1287.000000	0.058760
1286.000000	0.058906
1285.000000	0.059017
1284.000000	0.059095
1283.000000	0.059168
1282.000000	0.059231
1281.000000	0.059261
1280.000000	0.059276
1279.000000	0.059310
1278.000000	0.059354
1277.000000	0.059373
1276.000000	0.059381
1275.000000	0.059419
1274.000000	0.059487
1273.000000	0.059562
1272.000000	0.059661
1271.000000	0.059819
1270.000000	0.060029
1269.000000	0.060259
1268.000000	0.060521
1267.000000	0.060843
1266.000000	0.061208
1265.000000	0.061576
1264.000000	0.061948
1263.000000	0.062351
1262.000000	0.062775
1261.000000	0.063190
1260.000000	0.063607
1259.000000	0.064055
1258.000000	0.064517
1257.000000	0.064963
1256.000000	0.065412
1255.000000	0.065904
1254.000000	0.066429
1253.000000	0.066946
1252.000000	0.067456
1251.000000	0.067982
1250.000000	0.068512
1249.000000	0.069018
1248.000000	0.069511
1247.000000	0.070016
1246.000000	0.070516
1245.000000	0.070977
1244.000000	0.071413
1243.000000	0.071850
1242.000000	0.072265
1241.000000	0.072610
1240.000000	0.072886
1239.000000	0.073119
1238.000000	0.073290
1237.000000	0.073359
1236.000000	0.073331
1235.000000	0.073236
1234.000000	0.073072
1233.000000	0.072823
1232.000000	0.072519
1231.000000	0.072205
1230.000000	0.071875
1229.000000	0.071491
1228.000000	0.071056
1227.000000	0.070605
1226.000000	0.070132
1225.000000	0.069605
1224.000000	0.069035
1223.000000	0.068457
1222.000000	0.067865
1221.000000	0.067227
1220.000000	0.066558
1219.000000	0.065895
1218.000000	0.065232
1217.000000	0.064533
1216.000000	0.063810
1215.000000	0.063106
1214.000000	0.062421
1213.000000	0.061721
1212.000000	0.061019
1211.000000	0.060353
1210.000000	0.059711
1209.000000	0.059038
1208.000000	0.058333
1207.000000	0.057639
1206.000000	0.056960
1205.000000	0.056263
1204.000000	0.055554
1203.000000	0.054877
1202.000000	0.054232
1201.000000	0.053583
1200.000000	0.052938
1199.000000	0.052340
1198.000000	0.051789
1197.000000	0.051244
1196.000000	0.050707
1195.000000	0.050220
1194.000000	0.049781
1193.000000	0.049352
1192.000000	0.048935
1191.000000	0.048573
1190.000000	0.048264
1189.000000	0.047968
1188.000000	0.047689
1187.000000	0.047469
1186.000000	0.047309
1185.000000	0.047170
1184.000000	0.047062
1183.000000	0.047031
1182.000000	0.047076
1181.000000	0.047153
1180.000000	0.047270
1179.000000	0.047475
1178.000000	0.047770
1177.000000	0.048114
1176.000000	0.048508
1175.000000	0.048983
1174.000000	0.049519
1173.000000	0.050049
1172.000000	0.050560
1171.000000	0.051087
1170.000000	0.051624
1169.000000	0.052132
1168.000000	0.052618
1167.000000	0.053129
1166.000000	0.053652
1165.000000	0.054123
1164.000000	0.054524
1163.000000	0.054877
1162.000000	0.055167
1161.000000	0.055340
1160.000000	0.055395
1159.000000	0.055378
1158.000000	0.055287
1157.000000	0.055084
1156.000000	0.054778
1155.000000	0.054423
1154.000000	0.054032
1153.000000	0.053576
1152.000000	0.053072
1151.000000	0.052571
1150.000000	0.052073
1149.000000	0.051536
1148.000000	0.050981
1147.000000	0.050473
1146.000000	0.050026
1145.000000	0.049599
1144.000000	0.049196
1143.000000	0.048869
1142.000000	0.048619
1141.000000	0.048399
1140.000000	0.048208
1139.000000	0.048095
1138.000000	0.048058
1137.000000	0.048048
1136.000000	0.048070
1135.000000	0.048171
1134.000000	0.048339
1133.000000	0.048508
1132.000000	0.048663
1131.000000	0.048850
1130.000000	0.049070
1129.000000	0.049277
1128.000000	0.049473
1127.000000	0.049701
1126.000000	0.049948
1125.000000	0.050152
1124.000000	0.050310
1123.000000	0.050483
1122.000000	0.050680
1121.000000	0.050855
1120.000000	0.051003
1119.000000	0.051173
1118.000000	0.051363
1117.000000	0.051523
1116.000000	0.051652
1115.000000	0.051800
1114.000000	0.051963
1113.000000	0.052096
1112.000000	0.052214
1111.000000	0.052384
1110.000000	0.052608
1109.000000	0.052833
1108.000000	0.053069
1107.000000	0.053380
1106.000000	0.053758
1105.000000	0.054131
1104.000000	0.054481
1103.000000	0.054858
1102.000000	0.055267
1101.000000	0.055654
1100.000000	0.056018
1099.000000	0.056410
1098.000000	0.056826
1097.000000	0.057215
1096.000000	0.057590
1095.000000	0.058024
1094.000000	0.058521
1093.000000	0.059025
1092.000000	0.059540
1091.000000	0.060126
1090.000000	0.060778
1089.000000	0.061427
1088.000000	0.062074
1087.000000	0.062784
1086.000000	0.063563
1085.000000	0.064344
1084.000000	0.065113
1083.000000	0.065926
1082.000000	0.066785
1081.000000	0.067630
1080.000000	0.068451
1079.000000	0.069290
1078.000000	0.070129
1077.000000	0.070904
1076.000000	0.071616
1075.000000	0.072331
1074.000000	0.073045
1073.000000	0.073690
1072.000000	0.074258
1071.000000	0.074812
1070.000000	0.075354
1069.000000	0.075820
1068.000000	0.076200
1067.000000	0.076549
1066.000000	0.076863
1065.000000	0.077079
1064.000000	0.077198
1063.000000	0.077284
1062.000000	0.077338
1061.000000	0.077293
1060.000000	0.077142
1059.000000	0.076950
1058.000000	0.076728
1057.000000	0.076430
1056.000000	0.076076
1055.000000	0.075751
1054.000000	0.075477
1053.000000	0.075192
1052.000000	0.074881
1051.000000	0.074594
1050.000000	0.074319
1049.000000	0.073976
1048.000000	0.073551
1047.000000	0.073113
1046.000000	0.072669
1045.000000	0.072156
1044.000000	0.071577
1043.000000	0.071012
1042.000000	0.070488
1041.000000	0.069953
1040.000000	0.069406
1039.000000	0.068921
1038.000000	0.068518
1037.000000	0.068136
1036.000000	0.067756
1035.000000	0.067419
1034.000000	0.067116
1033.000000	0.066775
1032.000000	0.066380
1031.000000	0.065980
1030.000000	0.065570
1029.000000	0.065090
1028.000000	0.064557
1027.000000	0.064077
1026.000000	0.063692
1025.000000	0.063355
1024.000000	0.063051
1023.000000	0.062823
1022.000000	0.062651
1021.000000	0.062450
1020.000000	0.062193
1019.000000	0.061917
1018.000000	0.061585
1017.000000	0.061076
1016.000000	0.060346
1015.000000	0.059472
1014.000000	0.058514
1013.000000	0.057469
1012.000000	0.056377
1011.000000	0.055341
1010.000000	0.054398
1009.000000	0.053500
1008.000000	0.052641
1007.000000	0.051885
1006.000000	0.051241
1005.000000	0.050645
1004.000000	0.050080
1003.000000	0.049594
1002.000000	0.049185
1001.000000	0.048782
1000.000000	0.048367
999.000000	0.048000
998.000000	0.047687
997.000000	0.047362
996.000000	0.047013
995.000000	0.046696
994.000000	0.046419
993.000000	0.046113
992.000000	0.045767
991.000000	0.045440
990.000000	0.045147
989.000000	0.044832
988.000000	0.044490
987.000000	0.044188
986.000000	0.043931
985.000000	0.043650
984.000000	0.043327
983.000000	0.043022
982.000000	0.042749
981.000000	0.042457
980.000000	0.042154
979.000000	0.041912
978.000000	0.041744
977.000000	0.041579
976.000000	0.041400
975.000000	0.041267
974.000000	0.041190
973.000000	0.041107
972.000000	0.041008
971.000000	0.040954
970.000000	0.040956
969.000000	0.040948
968.000000	0.040916
967.000000	0.040922
966.000000	0.040977
965.000000	0.041017
964.000000	0.041022
963.000000	0.041053
962.000000	0.041119
961.000000	0.041151
960.000000	0.041130
959.000000	0.041111
958.000000	0.041100
957.000000	0.041035
956.000000	0.040903
955.000000	0.040774
954.000000	0.040666
953.000000	0.040521
952.000000	0.040337
951.000000	0.040185
950.000000	0.040084
949.000000	0.039971
948.000000	0.039832
947.000000	0.039731
946.000000	0.039685
945.000000	0.039628
944.000000	0.039549
943.000000	0.039516
942.000000	0.039546
941.000000	0.039576
940.000000	0.039589
939.000000	0.039644
938.000000	0.039751
937.000000	0.039837
936.000000	0.039876
935.000000	0.039923
934.000000	0.039982
933.000000	0.039988
932.000000	0.039925
931.000000	0.039863
930.000000	0.039822
929.000000	0.039739
928.000000	0.039603
927.000000	0.039479
926.000000	0.039381
925.000000	0.039237
924.000000	0.039026
923.000000	0.038815
922.000000	0.038626
921.000000	0.038402
920.000000	0.038136
919.000000	0.037903
918.000000	0.037728
917.000000	0.037549
916.000000	0.037350
915.000000	0.037196
914.000000	0.037108
913.000000	0.037028
912.000000	0.036951
911.000000	0.036954
910.000000	0.037052
909.000000	0.037174
908.000000	0.037290
907.000000	0.037450
906.000000	0.037656
905.000000	0.037833
904.000000	0.037962
903.000000	0.038106
902.000000	0.038266
901.000000	0.038354
900.000000	0.038340
899.000000	0.038292
898.000000	0.038231
897.000000	0.038096
896.000000	0.037878
895.000000	0.037663
894.000000	0.037480
893.000000	0.037259
892.000000	0.036975
891.000000	0.036700
890.000000	0.036456
889.000000	0.036180
888.000000	0.035861
887.000000	0.035583
886.000000	0.035383
885.000000	0.035204
884.000000	0.035029
883.000000	0.034920
882.000000	0.034887
881.000000	0.034849
880.000000	0.034785
879.000000	0.034765
878.000000	0.034803
877.000000	0.034817
876.000000	0.034789
875.000000	0.034795
874.000000	0.034839
873.000000	0.034809
872.000000	0.034649
871.000000	0.034424
870.000000	0.034180
869.000000	0.033882
868.000000	0.033557
867.000000	0.033302
866.000000	0.033136
865.000000	0.032971
864.000000	0.032776
863.000000	0.032626
862.000000	0.032544
861.000000	0.032454
860.000000	0.032335
859.000000	0.032263
858.000000	0.032262
857.000000	0.032263
856.000000	0.032242
855.000000	0.032266
854.000000	0.032347
853.000000	0.032401
852.000000	0.032411
851.000000	0.032452
850.000000	0.032537
849.000000	0.032572
848.000000	0.032534
847.000000	0.032510
846.000000	0.032536
845.000000	0.032537
844.000000	0.032494
843.000000	0.032489
842.000000	0.032558
841.000000	0.032630
840.000000	0.032686
839.000000	0.032796
838.000000	0.032975
837.000000	0.033140
836.000000	0.033269
835.000000	0.033447
834.000000	0.033691
833.000000	0.033909
832.000000	0.034071
831.000000	0.034264
830.000000	0.034520
829.000000	0.034755
828.000000	0.034936
827.000000	0.035141
826.000000	0.035390
825.000000	0.035595
824.000000	0.035737
823.000000	0.035914
822.000000	0.036161
821.000000	0.036385
820.000000	0.036556
819.000000	0.036758
818.000000	0.037019
817.000000	0.037256
816.000000	0.037451
815.000000	0.037692
814.000000	0.037999
813.000000	0.038277
812.000000	0.038490
811.000000	0.038721
810.000000	0.038990
809.000000	0.039207
808.000000	0.039343
807.000000	0.039493
806.000000	0.039697
805.000000	0.039873
804.000000	0.039984
803.000000	0.040110
802.000000	0.040281
801.000000	0.040425
800.000000	0.040530
799.000000	0.040691
798.000000	0.040937
797.000000	0.041180
796.000000	0.041386
795.000000	0.041637
794.000000	0.041950
793.000000	0.042230
792.000000	0.042444
791.000000	0.042684
790.000000	0.042988
789.000000	0.043275
788.000000	0.043516
787.000000	0.043787
786.000000	0.044111
785.000000	0.044409
784.000000	0.044666
783.000000	0.044972
782.000000	0.045345
781.000000	0.045680
780.000000	0.045940
779.000000	0.046217
778.000000	0.046553
777.000000	0.046875
776.000000	0.047156
775.000000	0.047478
774.000000	0.047860
773.000000	0.048210
772.000000	0.048492
771.000000	0.048788
770.000000	0.049129
769.000000	0.049431
768.000000	0.049661
767.000000	0.049908
766.000000	0.050208
765.000000	0.050481
764.000000	0.050700
763.000000	0.050953
762.000000	0.051278
761.000000	0.051597
760.000000	0.051878
759.000000	0.052194
758.000000	0.052562
757.000000	0.052893
756.000000	0.053156
755.000000	0.053442
754.000000	0.053784
753.000000	0.054090
752.000000	0.054334
751.000000	0.054613
750.000000	0.054962
749.000000	0.055281
748.000000	0.055515
747.000000	0.055736
746.000000	0.055982
745.000000	0.056185
744.000000	0.056330
743.000000	0.056524
742.000000	0.056817
741.000000	0.057130
740.000000	0.057432
739.000000	0.057815
738.000000	0.058328
737.000000	0.058887
736.000000	0.059446
735.000000	0.060074
734.000000	0.060802
733.000000	0.061547
732.000000	0.062269
731.000000	0.063042
730.000000	0.063895
729.000000	0.064737
728.000000	0.065529
727.000000	0.066346
726.000000	0.067204
725.000000	0.067983
724.000000	0.068609
723.000000	0.069152
722.000000	0.069657
721.000000	0.070056
720.000000	0.070332
719.000000	0.070596
718.000000	0.070924
717.000000	0.071270
716.000000	0.071632
715.000000	0.072114
714.000000	0.072758
713.000000	0.073480
712.000000	0.074249
711.000000	0.075150
710.000000	0.076207
709.000000	0.077302
708.000000	0.078377
707.000000	0.079518
706.000000	0.080763
705.000000	0.081997
704.000000	0.083119
703.000000	0.084157
702.000000	0.085108
701.000000	0.085862
700.000000	0.086376
699.000000	0.086758
698.000000	0.087065
697.000000	0.087224
696.000000	0.087221
695.000000	0.087204
694.000000	0.087271
693.000000	0.087345
692.000000	0.087361
691.000000	0.087402
690.000000	0.087530
689.000000	0.087676
688.000000	0.087813
687.000000	0.088034
686.000000	0.088365
685.000000	0.088678
684.000000	0.088911
683.000000	0.089177
682.000000	0.089549
681.000000	0.089918
680.000000	0.090204
679.000000	0.090495
678.000000	0.090868
677.000000	0.091242
676.000000	0.091556
675.000000	0.091899
674.000000	0.092326
673.000000	0.092695
672.000000	0.092859
671.000000	0.092883
670.000000	0.092985
669.000000	0.093375
668.000000	0.094101
667.000000	0.094853
666.000000	0.095199
665.000000	0.095101
664.000000	0.094875
663.000000	0.094831
662.000000	0.095020
661.000000	0.095244
660.000000	0.095409
659.000000	0.095622
658.000000	0.095911
657.000000	0.096127
656.000000	0.096236
655.000000	0.096396
654.000000	0.096680
653.000000	0.096958
652.000000	0.097167
651.000000	0.097429
650.000000	0.097805
649.000000	0.098175
648.000000	0.098486
647.000000	0.098855
646.000000	0.099327
645.000000	0.099785
644.000000	0.100185
643.000000	0.100641
642.000000	0.101176
641.000000	0.101649
640.000000	0.102022
639.000000	0.102451
638.000000	0.103000
637.000000	0.103542
636.000000	0.104018
635.000000	0.104550
634.000000	0.105164
633.000000	0.105691
632.000000	0.106056
631.000000	0.106400
630.000000	0.106796
629.000000	0.107117
628.000000	0.107299
627.000000	0.107479
626.000000	0.107739
625.000000	0.107959
624.000000	0.108068
623.000000	0.108177
622.000000	0.108335
621.000000	0.108415
620.000000	0.108377
619.000000	0.108377
618.000000	0.108490
617.000000	0.108567
616.000000	0.108524
615.000000	0.108479
614.000000	0.108487
613.000000	0.108410
612.000000	0.108214
611.000000	0.108080
610.000000	0.108091
609.000000	0.108075
608.000000	0.107941
607.000000	0.107835
606.000000	0.107845
605.000000	0.107819
604.000000	0.107682
603.000000	0.107602
602.000000	0.107670
601.000000	0.107735
600.000000	0.107711
599.000000	0.107748
598.000000	0.107910
597.000000	0.108023
596.000000	0.107998
595.000000	0.107999
594.000000	0.108120
593.000000	0.108211
592.000000	0.108214
591.000000	0.108318
590.000000	0.108591
589.000000	0.108817
588.000000	0.108874
587.000000	0.108938
586.000000	0.109129
585.000000	0.109301
584.000000	0.109371
583.000000	0.109508
582.000000	0.109799
581.000000	0.110052
580.000000	0.110163
579.000000	0.110307
578.000000	0.110583
577.000000	0.110830
576.000000	0.110983
575.000000	0.111222
574.000000	0.111575
573.000000	0.111791
572.000000	0.111793
571.000000	0.111860
570.000000	0.112150
569.000000	0.112462
568.000000	0.112654
567.000000	0.112899
566.000000	0.113266
565.000000	0.113527
564.000000	0.113602
563.000000	0.113768
562.000000	0.114160
561.000000	0.114515
560.000000	0.114658
559.000000	0.114790
558.000000	0.115066
557.000000	0.115306
556.000000	0.115411
555.000000	0.115592
554.000000	0.115946
553.000000	0.116220
552.000000	0.116295
551.000000	0.116429
550.000000	0.116784
549.000000	0.117140
548.000000	0.117369
547.000000	0.117698
546.000000	0.118233
545.000000	0.118702
544.000000	0.118955
543.000000	0.119246
542.000000	0.119733
541.000000	0.120205
540.000000	0.120534
539.000000	0.120933
538.000000	0.121475
537.000000	0.121877
536.000000	0.122035
535.000000	0.122267
534.000000	0.122741
533.000000	0.123176
532.000000	0.123391
531.000000	0.123613
530.000000	0.123967
529.000000	0.124185
528.000000	0.124153
527.000000	0.124215
526.000000	0.124593
525.000000	0.124993
524.000000	0.125177
523.000000	0.125341
522.000000	0.125589
521.000000	0.125656
520.000000	0.125452
519.000000	0.125352
518.000000	0.125574
517.000000	0.125791
516.000000	0.125761
515.000000	0.125740
514.000000	0.125887
513.000000	0.125934
512.000000	0.125745
511.000000	0.125633
510.000000	0.125779
509.000000	0.125902
508.000000	0.125827
507.000000	0.125812
506.000000	0.125930
505.000000	0.125803
504.000000	0.125315
503.000000	0.124936
502.000000	0.124954
501.000000	0.124980
500.000000	0.124730
499.000000	0.124511
498.000000	0.124534
497.000000	0.124483
496.000000	0.124161
495.000000	0.123901
494.000000	0.123908
493.000000	0.123829
492.000000	0.123464
491.000000	0.123218
490.000000	0.123311
489.000000	0.123293
488.000000	0.122854
487.000000	0.122401
486.000000	0.122291
485.000000	0.122205
484.000000	0.121840
483.000000	0.121528
482.000000	0.121520
481.000000	0.121424
480.000000	0.120983
479.000000	0.120609
478.000000	0.120602
477.000000	0.120580
476.000000	0.120279
475.000000	0.120119
474.000000	0.120403
473.000000	0.120698
472.000000	0.120679
471.000000	0.120803
470.000000	0.121316
469.000000	0.121691
468.000000	0.121681
467.000000	0.121845
466.000000	0.122437
465.000000	0.122789
464.000000	0.122473
463.000000	0.122036
462.000000	0.121922
461.000000	0.121688
460.000000	0.121043
459.000000	0.120644
458.000000	0.120983
457.000000	0.121358
456.000000	0.121188
455.000000	0.121036
454.000000	0.121324
453.000000	0.121583
452.000000	0.121448
451.000000	0.121326
450.000000	0.121385
449.000000	0.121019
448.000000	0.120020
447.000000	0.119179
446.000000	0.118988
445.000000	0.118865
444.000000	0.118461
443.000000	0.118448
442.000000	0.119094
441.000000	0.119407
440.000000	0.118740
439.000000	0.117801
438.000000	0.117269
437.000000	0.116775
436.000000	0.115988
435.000000	0.115537
434.000000	0.115734
433.000000	0.115759
432.000000	0.115139
431.000000	0.114660
430.000000	0.114819
429.000000	0.114780
428.000000	0.113954
427.000000	0.113133
426.000000	0.112948
425.000000	0.112617
424.000000	0.111530
423.000000	0.110581
422.000000	0.110401
421.000000	0.109987
420.000000	0.108693
419.000000	0.108152
418.000000	0.109533
417.000000	0.110763
416.000000	0.110539
415.000000	0.110050
414.000000	0.110151
413.000000	0.109870
412.000000	0.108521
411.000000	0.107464
410.000000	0.107724
409.000000	0.107917
408.000000	0.106853
407.000000	0.105840
406.000000	0.106040
405.000000	0.105995
404.000000	0.104493
403.000000	0.103105
402.000000	0.103262
401.000000	0.103256
400.000000	0.101457
