PE IR       SUBTECH     SPECTRUM    ASCII       PEDS        4.00        
   -1
2024_06_05_BW_EggCase_Inner_Redried_PostssNMR_2.ASC
24/06/05
19:56:33.00
24/06/05
21:16:14.00
Yarger Lab
Sample 143 By YargerLab Date Wednesday, June 05 2024
400.000000
#HDR
-1
-1
#GR
cm-1
A
1.0
0.0
4000.000000
-1.000000
3601
8
0.068794
0.004177
#DATA
4000.000000	0.004861
3999.000000	0.004865
3998.000000	0.004869
3997.000000	0.004872
3996.000000	0.004873
3995.000000	0.004871
3994.000000	0.004868
3993.000000	0.004863
3992.000000	0.004859
3991.000000	0.004860
3990.000000	0.004864
3989.000000	0.004869
3988.000000	0.004870
3987.000000	0.004868
3986.000000	0.004863
3985.000000	0.004857
3984.000000	0.004852
3983.000000	0.004847
3982.000000	0.004844
3981.000000	0.004845
3980.000000	0.004852
3979.000000	0.004861
3978.000000	0.004869
3977.000000	0.004875
3976.000000	0.004879
3975.000000	0.004882
3974.000000	0.004886
3973.000000	0.004890
3972.000000	0.004890
3971.000000	0.004886
3970.000000	0.004882
3969.000000	0.004880
3968.000000	0.004881
3967.000000	0.004883
3966.000000	0.004884
3965.000000	0.004883
3964.000000	0.004879
3963.000000	0.004873
3962.000000	0.004867
3961.000000	0.004862
3960.000000	0.004860
3959.000000	0.004858
3958.000000	0.004855
3957.000000	0.004852
3956.000000	0.004851
3955.000000	0.004852
3954.000000	0.004859
3953.000000	0.004868
3952.000000	0.004876
3951.000000	0.004877
3950.000000	0.004872
3949.000000	0.004865
3948.000000	0.004863
3947.000000	0.004865
3946.000000	0.004867
3945.000000	0.004866
3944.000000	0.004860
3943.000000	0.004854
3942.000000	0.004850
3941.000000	0.004845
3940.000000	0.004836
3939.000000	0.004824
3938.000000	0.004815
3937.000000	0.004811
3936.000000	0.004811
3935.000000	0.004811
3934.000000	0.004812
3933.000000	0.004814
3932.000000	0.004814
3931.000000	0.004812
3930.000000	0.004810
3929.000000	0.004812
3928.000000	0.004817
3927.000000	0.004822
3926.000000	0.004829
3925.000000	0.004836
3924.000000	0.004842
3923.000000	0.004841
3922.000000	0.004836
3921.000000	0.004834
3920.000000	0.004839
3919.000000	0.004846
3918.000000	0.004848
3917.000000	0.004842
3916.000000	0.004830
3915.000000	0.004814
3914.000000	0.004802
3913.000000	0.004799
3912.000000	0.004803
3911.000000	0.004809
3910.000000	0.004811
3909.000000	0.004811
3908.000000	0.004810
3907.000000	0.004813
3906.000000	0.004821
3905.000000	0.004836
3904.000000	0.004851
3903.000000	0.004855
3902.000000	0.004846
3901.000000	0.004826
3900.000000	0.004808
3899.000000	0.004795
3898.000000	0.004787
3897.000000	0.004783
3896.000000	0.004783
3895.000000	0.004787
3894.000000	0.004792
3893.000000	0.004798
3892.000000	0.004807
3891.000000	0.004823
3890.000000	0.004836
3889.000000	0.004835
3888.000000	0.004822
3887.000000	0.004810
3886.000000	0.004807
3885.000000	0.004813
3884.000000	0.004812
3883.000000	0.004797
3882.000000	0.004779
3881.000000	0.004772
3880.000000	0.004780
3879.000000	0.004790
3878.000000	0.004789
3877.000000	0.004779
3876.000000	0.004773
3875.000000	0.004777
3874.000000	0.004790
3873.000000	0.004798
3872.000000	0.004794
3871.000000	0.004782
3870.000000	0.004777
3869.000000	0.004779
3868.000000	0.004769
3867.000000	0.004746
3866.000000	0.004730
3865.000000	0.004732
3864.000000	0.004745
3863.000000	0.004754
3862.000000	0.004758
3861.000000	0.004764
3860.000000	0.004775
3859.000000	0.004788
3858.000000	0.004803
3857.000000	0.004815
3856.000000	0.004817
3855.000000	0.004803
3854.000000	0.004784
3853.000000	0.004788
3852.000000	0.004797
3851.000000	0.004779
3850.000000	0.004751
3849.000000	0.004738
3848.000000	0.004738
3847.000000	0.004740
3846.000000	0.004739
3845.000000	0.004739
3844.000000	0.004743
3843.000000	0.004751
3842.000000	0.004760
3841.000000	0.004768
3840.000000	0.004772
3839.000000	0.004772
3838.000000	0.004769
3837.000000	0.004763
3836.000000	0.004752
3835.000000	0.004738
3834.000000	0.004726
3833.000000	0.004723
3832.000000	0.004726
3831.000000	0.004729
3830.000000	0.004725
3829.000000	0.004716
3828.000000	0.004711
3827.000000	0.004717
3826.000000	0.004733
3825.000000	0.004748
3824.000000	0.004751
3823.000000	0.004741
3822.000000	0.004732
3821.000000	0.004741
3820.000000	0.004758
3819.000000	0.004759
3818.000000	0.004746
3817.000000	0.004741
3816.000000	0.004752
3815.000000	0.004765
3814.000000	0.004764
3813.000000	0.004753
3812.000000	0.004748
3811.000000	0.004753
3810.000000	0.004757
3809.000000	0.004754
3808.000000	0.004749
3807.000000	0.004753
3806.000000	0.004766
3805.000000	0.004771
3804.000000	0.004766
3803.000000	0.004758
3802.000000	0.004754
3801.000000	0.004756
3800.000000	0.004748
3799.000000	0.004721
3798.000000	0.004698
3797.000000	0.004695
3796.000000	0.004709
3795.000000	0.004721
3794.000000	0.004724
3793.000000	0.004721
3792.000000	0.004718
3791.000000	0.004715
3790.000000	0.004711
3789.000000	0.004708
3788.000000	0.004708
3787.000000	0.004710
3786.000000	0.004717
3785.000000	0.004730
3784.000000	0.004744
3783.000000	0.004750
3782.000000	0.004743
3781.000000	0.004728
3780.000000	0.004718
3779.000000	0.004716
3778.000000	0.004719
3777.000000	0.004721
3776.000000	0.004720
3775.000000	0.004722
3774.000000	0.004727
3773.000000	0.004734
3772.000000	0.004744
3771.000000	0.004758
3770.000000	0.004775
3769.000000	0.004786
3768.000000	0.004778
3767.000000	0.004755
3766.000000	0.004737
3765.000000	0.004734
3764.000000	0.004737
3763.000000	0.004731
3762.000000	0.004717
3761.000000	0.004709
3760.000000	0.004713
3759.000000	0.004725
3758.000000	0.004738
3757.000000	0.004746
3756.000000	0.004747
3755.000000	0.004739
3754.000000	0.004730
3753.000000	0.004729
3752.000000	0.004735
3751.000000	0.004749
3750.000000	0.004770
3749.000000	0.004786
3748.000000	0.004784
3747.000000	0.004762
3746.000000	0.004736
3745.000000	0.004726
3744.000000	0.004743
3743.000000	0.004759
3742.000000	0.004749
3741.000000	0.004736
3740.000000	0.004741
3739.000000	0.004756
3738.000000	0.004767
3737.000000	0.004770
3736.000000	0.004764
3735.000000	0.004750
3734.000000	0.004736
3733.000000	0.004731
3732.000000	0.004737
3731.000000	0.004745
3730.000000	0.004747
3729.000000	0.004747
3728.000000	0.004753
3727.000000	0.004761
3726.000000	0.004767
3725.000000	0.004764
3724.000000	0.004758
3723.000000	0.004755
3722.000000	0.004762
3721.000000	0.004774
3720.000000	0.004780
3719.000000	0.004778
3718.000000	0.004773
3717.000000	0.004773
3716.000000	0.004775
3715.000000	0.004775
3714.000000	0.004775
3713.000000	0.004774
3712.000000	0.004769
3711.000000	0.004761
3710.000000	0.004756
3709.000000	0.004755
3708.000000	0.004756
3707.000000	0.004752
3706.000000	0.004743
3705.000000	0.004731
3704.000000	0.004720
3703.000000	0.004718
3702.000000	0.004732
3701.000000	0.004760
3700.000000	0.004783
3699.000000	0.004786
3698.000000	0.004776
3697.000000	0.004769
3696.000000	0.004769
3695.000000	0.004772
3694.000000	0.004776
3693.000000	0.004786
3692.000000	0.004799
3691.000000	0.004810
3690.000000	0.004825
3689.000000	0.004852
3688.000000	0.004878
3687.000000	0.004882
3686.000000	0.004860
3685.000000	0.004835
3684.000000	0.004824
3683.000000	0.004829
3682.000000	0.004850
3681.000000	0.004889
3680.000000	0.004944
3679.000000	0.004998
3678.000000	0.005034
3677.000000	0.005050
3676.000000	0.005061
3675.000000	0.005086
3674.000000	0.005106
3673.000000	0.005098
3672.000000	0.005072
3671.000000	0.005046
3670.000000	0.005040
3669.000000	0.005060
3668.000000	0.005084
3667.000000	0.005098
3666.000000	0.005112
3665.000000	0.005132
3664.000000	0.005155
3663.000000	0.005173
3662.000000	0.005191
3661.000000	0.005213
3660.000000	0.005239
3659.000000	0.005261
3658.000000	0.005279
3657.000000	0.005302
3656.000000	0.005338
3655.000000	0.005380
3654.000000	0.005419
3653.000000	0.005455
3652.000000	0.005486
3651.000000	0.005504
3650.000000	0.005510
3649.000000	0.005521
3648.000000	0.005543
3647.000000	0.005567
3646.000000	0.005588
3645.000000	0.005608
3644.000000	0.005630
3643.000000	0.005656
3642.000000	0.005687
3641.000000	0.005721
3640.000000	0.005753
3639.000000	0.005783
3638.000000	0.005816
3637.000000	0.005856
3636.000000	0.005898
3635.000000	0.005938
3634.000000	0.005984
3633.000000	0.006042
3632.000000	0.006103
3631.000000	0.006152
3630.000000	0.006178
3629.000000	0.006192
3628.000000	0.006203
3627.000000	0.006205
3626.000000	0.006207
3625.000000	0.006233
3624.000000	0.006287
3623.000000	0.006349
3622.000000	0.006403
3621.000000	0.006449
3620.000000	0.006492
3619.000000	0.006534
3618.000000	0.006573
3617.000000	0.006604
3616.000000	0.006628
3615.000000	0.006653
3614.000000	0.006688
3613.000000	0.006736
3612.000000	0.006786
3611.000000	0.006826
3610.000000	0.006856
3609.000000	0.006883
3608.000000	0.006913
3607.000000	0.006948
3606.000000	0.006989
3605.000000	0.007034
3604.000000	0.007076
3603.000000	0.007111
3602.000000	0.007142
3601.000000	0.007181
3600.000000	0.007229
3599.000000	0.007279
3598.000000	0.007329
3597.000000	0.007379
3596.000000	0.007425
3595.000000	0.007467
3594.000000	0.007509
3593.000000	0.007560
3592.000000	0.007621
3591.000000	0.007686
3590.000000	0.007750
3589.000000	0.007807
3588.000000	0.007850
3587.000000	0.007881
3586.000000	0.007910
3585.000000	0.007947
3584.000000	0.007991
3583.000000	0.008036
3582.000000	0.008082
3581.000000	0.008128
3580.000000	0.008176
3579.000000	0.008226
3578.000000	0.008282
3577.000000	0.008342
3576.000000	0.008402
3575.000000	0.008456
3574.000000	0.008509
3573.000000	0.008575
3572.000000	0.008658
3571.000000	0.008752
3570.000000	0.008840
3569.000000	0.008907
3568.000000	0.008941
3567.000000	0.008950
3566.000000	0.008960
3565.000000	0.008989
3564.000000	0.009036
3563.000000	0.009090
3562.000000	0.009147
3561.000000	0.009209
3560.000000	0.009274
3559.000000	0.009340
3558.000000	0.009408
3557.000000	0.009481
3556.000000	0.009553
3555.000000	0.009614
3554.000000	0.009663
3553.000000	0.009709
3552.000000	0.009759
3551.000000	0.009816
3550.000000	0.009883
3549.000000	0.009957
3548.000000	0.010027
3547.000000	0.010084
3546.000000	0.010127
3545.000000	0.010166
3544.000000	0.010207
3543.000000	0.010251
3542.000000	0.010300
3541.000000	0.010358
3540.000000	0.010423
3539.000000	0.010488
3538.000000	0.010549
3537.000000	0.010607
3536.000000	0.010663
3535.000000	0.010716
3534.000000	0.010769
3533.000000	0.010827
3532.000000	0.010888
3531.000000	0.010949
3530.000000	0.011010
3529.000000	0.011073
3528.000000	0.011137
3527.000000	0.011201
3526.000000	0.011264
3525.000000	0.011325
3524.000000	0.011378
3523.000000	0.011422
3522.000000	0.011464
3521.000000	0.011513
3520.000000	0.011569
3519.000000	0.011627
3518.000000	0.011689
3517.000000	0.011757
3516.000000	0.011828
3515.000000	0.011901
3514.000000	0.011975
3513.000000	0.012053
3512.000000	0.012130
3511.000000	0.012197
3510.000000	0.012254
3509.000000	0.012312
3508.000000	0.012377
3507.000000	0.012450
3506.000000	0.012528
3505.000000	0.012605
3504.000000	0.012674
3503.000000	0.012730
3502.000000	0.012782
3501.000000	0.012842
3500.000000	0.012914
3499.000000	0.012990
3498.000000	0.013065
3497.000000	0.013133
3496.000000	0.013194
3495.000000	0.013252
3494.000000	0.013317
3493.000000	0.013395
3492.000000	0.013480
3491.000000	0.013566
3490.000000	0.013645
3489.000000	0.013721
3488.000000	0.013790
3487.000000	0.013853
3486.000000	0.013918
3485.000000	0.013989
3484.000000	0.014063
3483.000000	0.014128
3482.000000	0.014183
3481.000000	0.014239
3480.000000	0.014301
3479.000000	0.014375
3478.000000	0.014459
3477.000000	0.014549
3476.000000	0.014632
3475.000000	0.014699
3474.000000	0.014751
3473.000000	0.014800
3472.000000	0.014857
3471.000000	0.014923
3470.000000	0.014999
3469.000000	0.015079
3468.000000	0.015153
3467.000000	0.015213
3466.000000	0.015270
3465.000000	0.015335
3464.000000	0.015412
3463.000000	0.015490
3462.000000	0.015562
3461.000000	0.015629
3460.000000	0.015692
3459.000000	0.015752
3458.000000	0.015810
3457.000000	0.015874
3456.000000	0.015944
3455.000000	0.016016
3454.000000	0.016088
3453.000000	0.016161
3452.000000	0.016237
3451.000000	0.016314
3450.000000	0.016391
3449.000000	0.016465
3448.000000	0.016527
3447.000000	0.016577
3446.000000	0.016625
3445.000000	0.016683
3444.000000	0.016748
3443.000000	0.016811
3442.000000	0.016871
3441.000000	0.016934
3440.000000	0.017001
3439.000000	0.017068
3438.000000	0.017135
3437.000000	0.017205
3436.000000	0.017277
3435.000000	0.017346
3434.000000	0.017410
3433.000000	0.017474
3432.000000	0.017542
3431.000000	0.017613
3430.000000	0.017686
3429.000000	0.017758
3428.000000	0.017823
3427.000000	0.017880
3426.000000	0.017935
3425.000000	0.017998
3424.000000	0.018066
3423.000000	0.018131
3422.000000	0.018190
3421.000000	0.018247
3420.000000	0.018304
3419.000000	0.018365
3418.000000	0.018432
3417.000000	0.018508
3416.000000	0.018587
3415.000000	0.018659
3414.000000	0.018724
3413.000000	0.018784
3412.000000	0.018841
3411.000000	0.018893
3410.000000	0.018944
3409.000000	0.019001
3408.000000	0.019063
3407.000000	0.019125
3406.000000	0.019184
3405.000000	0.019242
3404.000000	0.019297
3403.000000	0.019347
3402.000000	0.019395
3401.000000	0.019448
3400.000000	0.019504
3399.000000	0.019559
3398.000000	0.019611
3397.000000	0.019660
3396.000000	0.019707
3395.000000	0.019750
3394.000000	0.019794
3393.000000	0.019842
3392.000000	0.019895
3391.000000	0.019953
3390.000000	0.020021
3389.000000	0.020101
3388.000000	0.020183
3387.000000	0.020255
3386.000000	0.020313
3385.000000	0.020361
3384.000000	0.020406
3383.000000	0.020450
3382.000000	0.020500
3381.000000	0.020559
3380.000000	0.020627
3379.000000	0.020697
3378.000000	0.020765
3377.000000	0.020837
3376.000000	0.020912
3375.000000	0.020985
3374.000000	0.021054
3373.000000	0.021119
3372.000000	0.021180
3371.000000	0.021237
3370.000000	0.021298
3369.000000	0.021369
3368.000000	0.021447
3367.000000	0.021528
3366.000000	0.021614
3365.000000	0.021708
3364.000000	0.021804
3363.000000	0.021897
3362.000000	0.021988
3361.000000	0.022084
3360.000000	0.022188
3359.000000	0.022298
3358.000000	0.022410
3357.000000	0.022522
3356.000000	0.022630
3355.000000	0.022727
3354.000000	0.022818
3353.000000	0.022906
3352.000000	0.022995
3351.000000	0.023088
3350.000000	0.023193
3349.000000	0.023318
3348.000000	0.023455
3347.000000	0.023587
3346.000000	0.023707
3345.000000	0.023815
3344.000000	0.023920
3343.000000	0.024029
3342.000000	0.024147
3341.000000	0.024270
3340.000000	0.024391
3339.000000	0.024510
3338.000000	0.024636
3337.000000	0.024781
3336.000000	0.024938
3335.000000	0.025097
3334.000000	0.025253
3333.000000	0.025407
3332.000000	0.025558
3331.000000	0.025703
3330.000000	0.025844
3329.000000	0.025982
3328.000000	0.026114
3327.000000	0.026238
3326.000000	0.026369
3325.000000	0.026520
3324.000000	0.026694
3323.000000	0.026872
3322.000000	0.027044
3321.000000	0.027209
3320.000000	0.027372
3319.000000	0.027535
3318.000000	0.027702
3317.000000	0.027876
3316.000000	0.028052
3315.000000	0.028219
3314.000000	0.028374
3313.000000	0.028519
3312.000000	0.028655
3311.000000	0.028780
3310.000000	0.028900
3309.000000	0.029025
3308.000000	0.029161
3307.000000	0.029309
3306.000000	0.029471
3305.000000	0.029650
3304.000000	0.029839
3303.000000	0.030030
3302.000000	0.030217
3301.000000	0.030396
3300.000000	0.030561
3299.000000	0.030706
3298.000000	0.030832
3297.000000	0.030950
3296.000000	0.031065
3295.000000	0.031176
3294.000000	0.031283
3293.000000	0.031392
3292.000000	0.031505
3291.000000	0.031625
3290.000000	0.031748
3289.000000	0.031870
3288.000000	0.031981
3287.000000	0.032071
3286.000000	0.032139
3285.000000	0.032191
3284.000000	0.032233
3283.000000	0.032266
3282.000000	0.032293
3281.000000	0.032318
3280.000000	0.032333
3279.000000	0.032325
3278.000000	0.032289
3277.000000	0.032229
3276.000000	0.032154
3275.000000	0.032068
3274.000000	0.031970
3273.000000	0.031860
3272.000000	0.031741
3271.000000	0.031623
3270.000000	0.031519
3269.000000	0.031431
3268.000000	0.031346
3267.000000	0.031247
3266.000000	0.031129
3265.000000	0.030996
3264.000000	0.030851
3263.000000	0.030695
3262.000000	0.030536
3261.000000	0.030375
3260.000000	0.030205
3259.000000	0.030015
3258.000000	0.029809
3257.000000	0.029603
3256.000000	0.029411
3255.000000	0.029236
3254.000000	0.029073
3253.000000	0.028911
3252.000000	0.028739
3251.000000	0.028549
3250.000000	0.028345
3249.000000	0.028141
3248.000000	0.027952
3247.000000	0.027782
3246.000000	0.027633
3245.000000	0.027500
3244.000000	0.027376
3243.000000	0.027254
3242.000000	0.027136
3241.000000	0.027020
3240.000000	0.026896
3239.000000	0.026755
3238.000000	0.026596
3237.000000	0.026426
3236.000000	0.026249
3235.000000	0.026076
3234.000000	0.025928
3233.000000	0.025822
3232.000000	0.025756
3231.000000	0.025705
3230.000000	0.025646
3229.000000	0.025567
3228.000000	0.025463
3227.000000	0.025341
3226.000000	0.025216
3225.000000	0.025101
3224.000000	0.024996
3223.000000	0.024894
3222.000000	0.024790
3221.000000	0.024682
3220.000000	0.024572
3219.000000	0.024466
3218.000000	0.024370
3217.000000	0.024284
3216.000000	0.024199
3215.000000	0.024105
3214.000000	0.024007
3213.000000	0.023919
3212.000000	0.023840
3211.000000	0.023758
3210.000000	0.023664
3209.000000	0.023566
3208.000000	0.023467
3207.000000	0.023372
3206.000000	0.023281
3205.000000	0.023194
3204.000000	0.023107
3203.000000	0.023013
3202.000000	0.022914
3201.000000	0.022812
3200.000000	0.022710
3199.000000	0.022603
3198.000000	0.022494
3197.000000	0.022388
3196.000000	0.022285
3195.000000	0.022182
3194.000000	0.022079
3193.000000	0.021977
3192.000000	0.021873
3191.000000	0.021764
3190.000000	0.021655
3189.000000	0.021549
3188.000000	0.021440
3187.000000	0.021321
3186.000000	0.021196
3185.000000	0.021072
3184.000000	0.020953
3183.000000	0.020835
3182.000000	0.020718
3181.000000	0.020603
3180.000000	0.020487
3179.000000	0.020366
3178.000000	0.020240
3177.000000	0.020118
3176.000000	0.020002
3175.000000	0.019887
3174.000000	0.019771
3173.000000	0.019656
3172.000000	0.019540
3171.000000	0.019422
3170.000000	0.019303
3169.000000	0.019191
3168.000000	0.019084
3167.000000	0.018978
3166.000000	0.018871
3165.000000	0.018765
3164.000000	0.018663
3163.000000	0.018560
3162.000000	0.018455
3161.000000	0.018348
3160.000000	0.018238
3159.000000	0.018124
3158.000000	0.018011
3157.000000	0.017903
3156.000000	0.017796
3155.000000	0.017685
3154.000000	0.017571
3153.000000	0.017463
3152.000000	0.017368
3151.000000	0.017283
3150.000000	0.017209
3149.000000	0.017140
3148.000000	0.017069
3147.000000	0.016993
3146.000000	0.016917
3145.000000	0.016846
3144.000000	0.016776
3143.000000	0.016693
3142.000000	0.016597
3141.000000	0.016494
3140.000000	0.016397
3139.000000	0.016312
3138.000000	0.016244
3137.000000	0.016192
3136.000000	0.016145
3135.000000	0.016093
3134.000000	0.016033
3133.000000	0.015970
3132.000000	0.015907
3131.000000	0.015849
3130.000000	0.015798
3129.000000	0.015758
3128.000000	0.015723
3127.000000	0.015684
3126.000000	0.015639
3125.000000	0.015589
3124.000000	0.015533
3123.000000	0.015465
3122.000000	0.015389
3121.000000	0.015321
3120.000000	0.015268
3119.000000	0.015229
3118.000000	0.015198
3117.000000	0.015174
3116.000000	0.015158
3115.000000	0.015153
3114.000000	0.015161
3113.000000	0.015180
3112.000000	0.015197
3111.000000	0.015199
3110.000000	0.015189
3109.000000	0.015180
3108.000000	0.015182
3107.000000	0.015192
3106.000000	0.015208
3105.000000	0.015226
3104.000000	0.015236
3103.000000	0.015227
3102.000000	0.015202
3101.000000	0.015176
3100.000000	0.015165
3099.000000	0.015175
3098.000000	0.015203
3097.000000	0.015239
3096.000000	0.015273
3095.000000	0.015293
3094.000000	0.015301
3093.000000	0.015301
3092.000000	0.015297
3091.000000	0.015291
3090.000000	0.015290
3089.000000	0.015299
3088.000000	0.015309
3087.000000	0.015307
3086.000000	0.015296
3085.000000	0.015287
3084.000000	0.015287
3083.000000	0.015291
3082.000000	0.015292
3081.000000	0.015289
3080.000000	0.015284
3079.000000	0.015281
3078.000000	0.015290
3077.000000	0.015319
3076.000000	0.015362
3075.000000	0.015404
3074.000000	0.015435
3073.000000	0.015451
3072.000000	0.015448
3071.000000	0.015420
3070.000000	0.015371
3069.000000	0.015312
3068.000000	0.015259
3067.000000	0.015224
3066.000000	0.015210
3065.000000	0.015211
3064.000000	0.015216
3063.000000	0.015213
3062.000000	0.015197
3061.000000	0.015170
3060.000000	0.015125
3059.000000	0.015059
3058.000000	0.014978
3057.000000	0.014901
3056.000000	0.014837
3055.000000	0.014782
3054.000000	0.014727
3053.000000	0.014668
3052.000000	0.014603
3051.000000	0.014536
3050.000000	0.014475
3049.000000	0.014420
3048.000000	0.014357
3047.000000	0.014273
3046.000000	0.014171
3045.000000	0.014065
3044.000000	0.013968
3043.000000	0.013884
3042.000000	0.013820
3041.000000	0.013784
3040.000000	0.013770
3039.000000	0.013757
3038.000000	0.013721
3037.000000	0.013653
3036.000000	0.013561
3035.000000	0.013467
3034.000000	0.013395
3033.000000	0.013355
3032.000000	0.013336
3031.000000	0.013319
3030.000000	0.013294
3029.000000	0.013258
3028.000000	0.013205
3027.000000	0.013133
3026.000000	0.013053
3025.000000	0.012983
3024.000000	0.012931
3023.000000	0.012883
3022.000000	0.012822
3021.000000	0.012747
3020.000000	0.012667
3019.000000	0.012591
3018.000000	0.012526
3017.000000	0.012470
3016.000000	0.012418
3015.000000	0.012366
3014.000000	0.012319
3013.000000	0.012291
3012.000000	0.012287
3011.000000	0.012303
3010.000000	0.012336
3009.000000	0.012376
3008.000000	0.012410
3007.000000	0.012426
3006.000000	0.012427
3005.000000	0.012426
3004.000000	0.012433
3003.000000	0.012446
3002.000000	0.012464
3001.000000	0.012484
3000.000000	0.012503
2999.000000	0.012522
2998.000000	0.012551
2997.000000	0.012599
2996.000000	0.012661
2995.000000	0.012725
2994.000000	0.012792
2993.000000	0.012872
2992.000000	0.012972
2991.000000	0.013084
2990.000000	0.013203
2989.000000	0.013327
2988.000000	0.013455
2987.000000	0.013579
2986.000000	0.013697
2985.000000	0.013807
2984.000000	0.013909
2983.000000	0.014006
2982.000000	0.014106
2981.000000	0.014221
2980.000000	0.014353
2979.000000	0.014494
2978.000000	0.014632
2977.000000	0.014764
2976.000000	0.014888
2975.000000	0.015008
2974.000000	0.015127
2973.000000	0.015247
2972.000000	0.015361
2971.000000	0.015463
2970.000000	0.015553
2969.000000	0.015639
2968.000000	0.015718
2967.000000	0.015784
2966.000000	0.015834
2965.000000	0.015874
2964.000000	0.015912
2963.000000	0.015945
2962.000000	0.015975
2961.000000	0.015997
2960.000000	0.016006
2959.000000	0.015992
2958.000000	0.015960
2957.000000	0.015919
2956.000000	0.015873
2955.000000	0.015814
2954.000000	0.015745
2953.000000	0.015682
2952.000000	0.015637
2951.000000	0.015609
2950.000000	0.015592
2949.000000	0.015585
2948.000000	0.015591
2947.000000	0.015616
2946.000000	0.015668
2945.000000	0.015751
2944.000000	0.015857
2943.000000	0.015975
2942.000000	0.016101
2941.000000	0.016237
2940.000000	0.016377
2939.000000	0.016515
2938.000000	0.016645
2937.000000	0.016769
2936.000000	0.016888
2935.000000	0.016994
2934.000000	0.017087
2933.000000	0.017167
2932.000000	0.017235
2931.000000	0.017293
2930.000000	0.017351
2929.000000	0.017425
2928.000000	0.017514
2927.000000	0.017608
2926.000000	0.017693
2925.000000	0.017771
2924.000000	0.017847
2923.000000	0.017923
2922.000000	0.017995
2921.000000	0.018059
2920.000000	0.018101
2919.000000	0.018104
2918.000000	0.018053
2917.000000	0.017938
2916.000000	0.017745
2915.000000	0.017473
2914.000000	0.017140
2913.000000	0.016787
2912.000000	0.016450
2911.000000	0.016147
2910.000000	0.015886
2909.000000	0.015672
2908.000000	0.015498
2907.000000	0.015348
2906.000000	0.015214
2905.000000	0.015094
2904.000000	0.014987
2903.000000	0.014893
2902.000000	0.014808
2901.000000	0.014733
2900.000000	0.014666
2899.000000	0.014598
2898.000000	0.014527
2897.000000	0.014463
2896.000000	0.014413
2895.000000	0.014377
2894.000000	0.014353
2893.000000	0.014338
2892.000000	0.014325
2891.000000	0.014306
2890.000000	0.014280
2889.000000	0.014254
2888.000000	0.014237
2887.000000	0.014231
2886.000000	0.014238
2885.000000	0.014258
2884.000000	0.014284
2883.000000	0.014309
2882.000000	0.014335
2881.000000	0.014365
2880.000000	0.014400
2879.000000	0.014427
2878.000000	0.014441
2877.000000	0.014442
2876.000000	0.014428
2875.000000	0.014396
2874.000000	0.014349
2873.000000	0.014291
2872.000000	0.014228
2871.000000	0.014153
2870.000000	0.014063
2869.000000	0.013960
2868.000000	0.013848
2867.000000	0.013732
2866.000000	0.013618
2865.000000	0.013514
2864.000000	0.013423
2863.000000	0.013341
2862.000000	0.013268
2861.000000	0.013215
2860.000000	0.013188
2859.000000	0.013183
2858.000000	0.013198
2857.000000	0.013235
2856.000000	0.013296
2855.000000	0.013382
2854.000000	0.013491
2853.000000	0.013619
2852.000000	0.013742
2851.000000	0.013822
2850.000000	0.013819
2849.000000	0.013708
2848.000000	0.013490
2847.000000	0.013195
2846.000000	0.012868
2845.000000	0.012552
2844.000000	0.012268
2843.000000	0.012018
2842.000000	0.011798
2841.000000	0.011606
2840.000000	0.011445
2839.000000	0.011313
2838.000000	0.011209
2837.000000	0.011128
2836.000000	0.011061
2835.000000	0.010998
2834.000000	0.010942
2833.000000	0.010897
2832.000000	0.010861
2831.000000	0.010826
2830.000000	0.010789
2829.000000	0.010752
2828.000000	0.010714
2827.000000	0.010673
2826.000000	0.010627
2825.000000	0.010580
2824.000000	0.010536
2823.000000	0.010495
2822.000000	0.010462
2821.000000	0.010439
2820.000000	0.010419
2819.000000	0.010395
2818.000000	0.010368
2817.000000	0.010343
2816.000000	0.010320
2815.000000	0.010294
2814.000000	0.010264
2813.000000	0.010232
2812.000000	0.010200
2811.000000	0.010164
2810.000000	0.010128
2809.000000	0.010098
2808.000000	0.010075
2807.000000	0.010054
2806.000000	0.010034
2805.000000	0.010013
2804.000000	0.009991
2803.000000	0.009961
2802.000000	0.009928
2801.000000	0.009898
2800.000000	0.009876
2799.000000	0.009855
2798.000000	0.009833
2797.000000	0.009812
2796.000000	0.009793
2795.000000	0.009777
2794.000000	0.009763
2793.000000	0.009753
2792.000000	0.009737
2791.000000	0.009710
2790.000000	0.009676
2789.000000	0.009648
2788.000000	0.009633
2787.000000	0.009626
2786.000000	0.009619
2785.000000	0.009608
2784.000000	0.009591
2783.000000	0.009568
2782.000000	0.009546
2781.000000	0.009534
2780.000000	0.009527
2779.000000	0.009515
2778.000000	0.009490
2777.000000	0.009458
2776.000000	0.009424
2775.000000	0.009390
2774.000000	0.009363
2773.000000	0.009346
2772.000000	0.009334
2771.000000	0.009318
2770.000000	0.009296
2769.000000	0.009276
2768.000000	0.009262
2767.000000	0.009253
2766.000000	0.009244
2765.000000	0.009237
2764.000000	0.009229
2763.000000	0.009214
2762.000000	0.009192
2761.000000	0.009169
2760.000000	0.009150
2759.000000	0.009133
2758.000000	0.009117
2757.000000	0.009101
2756.000000	0.009085
2755.000000	0.009066
2754.000000	0.009044
2753.000000	0.009023
2752.000000	0.009003
2751.000000	0.008979
2750.000000	0.008954
2749.000000	0.008937
2748.000000	0.008931
2747.000000	0.008929
2746.000000	0.008924
2745.000000	0.008912
2744.000000	0.008895
2743.000000	0.008875
2742.000000	0.008858
2741.000000	0.008845
2740.000000	0.008834
2739.000000	0.008821
2738.000000	0.008808
2737.000000	0.008801
2736.000000	0.008796
2735.000000	0.008784
2734.000000	0.008765
2733.000000	0.008746
2732.000000	0.008730
2731.000000	0.008714
2730.000000	0.008694
2729.000000	0.008675
2728.000000	0.008657
2727.000000	0.008639
2726.000000	0.008620
2725.000000	0.008603
2724.000000	0.008588
2723.000000	0.008573
2722.000000	0.008557
2721.000000	0.008540
2720.000000	0.008523
2719.000000	0.008506
2718.000000	0.008493
2717.000000	0.008486
2716.000000	0.008480
2715.000000	0.008469
2714.000000	0.008450
2713.000000	0.008429
2712.000000	0.008409
2711.000000	0.008386
2710.000000	0.008362
2709.000000	0.008341
2708.000000	0.008325
2707.000000	0.008308
2706.000000	0.008289
2705.000000	0.008274
2704.000000	0.008263
2703.000000	0.008254
2702.000000	0.008244
2701.000000	0.008233
2700.000000	0.008222
2699.000000	0.008208
2698.000000	0.008193
2697.000000	0.008180
2696.000000	0.008170
2695.000000	0.008157
2694.000000	0.008141
2693.000000	0.008126
2692.000000	0.008114
2691.000000	0.008105
2690.000000	0.008099
2689.000000	0.008095
2688.000000	0.008090
2687.000000	0.008081
2686.000000	0.008067
2685.000000	0.008056
2684.000000	0.008047
2683.000000	0.008037
2682.000000	0.008024
2681.000000	0.008011
2680.000000	0.008000
2679.000000	0.007988
2678.000000	0.007973
2677.000000	0.007960
2676.000000	0.007951
2675.000000	0.007945
2674.000000	0.007940
2673.000000	0.007939
2672.000000	0.007939
2671.000000	0.007932
2670.000000	0.007919
2669.000000	0.007903
2668.000000	0.007890
2667.000000	0.007879
2666.000000	0.007872
2665.000000	0.007875
2664.000000	0.007884
2663.000000	0.007892
2662.000000	0.007894
2661.000000	0.007892
2660.000000	0.007889
2659.000000	0.007882
2658.000000	0.007872
2657.000000	0.007865
2656.000000	0.007866
2655.000000	0.007869
2654.000000	0.007869
2653.000000	0.007866
2652.000000	0.007861
2651.000000	0.007856
2650.000000	0.007853
2649.000000	0.007858
2648.000000	0.007867
2647.000000	0.007874
2646.000000	0.007875
2645.000000	0.007871
2644.000000	0.007866
2643.000000	0.007861
2642.000000	0.007857
2641.000000	0.007860
2640.000000	0.007865
2639.000000	0.007868
2638.000000	0.007866
2637.000000	0.007868
2636.000000	0.007875
2635.000000	0.007881
2634.000000	0.007881
2633.000000	0.007880
2632.000000	0.007882
2631.000000	0.007884
2630.000000	0.007883
2629.000000	0.007883
2628.000000	0.007884
2627.000000	0.007885
2626.000000	0.007885
2625.000000	0.007886
2624.000000	0.007887
2623.000000	0.007881
2622.000000	0.007871
2621.000000	0.007868
2620.000000	0.007873
2619.000000	0.007875
2618.000000	0.007867
2617.000000	0.007854
2616.000000	0.007842
2615.000000	0.007834
2614.000000	0.007828
2613.000000	0.007827
2612.000000	0.007832
2611.000000	0.007837
2610.000000	0.007841
2609.000000	0.007847
2608.000000	0.007851
2607.000000	0.007847
2606.000000	0.007834
2605.000000	0.007823
2604.000000	0.007820
2603.000000	0.007820
2602.000000	0.007821
2601.000000	0.007821
2600.000000	0.007820
2599.000000	0.007813
2598.000000	0.007802
2597.000000	0.007797
2596.000000	0.007799
2595.000000	0.007800
2594.000000	0.007794
2593.000000	0.007784
2592.000000	0.007773
2591.000000	0.007758
2590.000000	0.007739
2589.000000	0.007723
2588.000000	0.007717
2587.000000	0.007719
2586.000000	0.007728
2585.000000	0.007741
2584.000000	0.007746
2583.000000	0.007734
2582.000000	0.007710
2581.000000	0.007691
2580.000000	0.007684
2579.000000	0.007677
2578.000000	0.007665
2577.000000	0.007658
2576.000000	0.007662
2575.000000	0.007673
2574.000000	0.007682
2573.000000	0.007687
2572.000000	0.007685
2571.000000	0.007673
2570.000000	0.007654
2569.000000	0.007639
2568.000000	0.007630
2567.000000	0.007623
2566.000000	0.007616
2565.000000	0.007613
2564.000000	0.007616
2563.000000	0.007620
2562.000000	0.007626
2561.000000	0.007635
2560.000000	0.007642
2559.000000	0.007637
2558.000000	0.007623
2557.000000	0.007607
2556.000000	0.007592
2555.000000	0.007576
2554.000000	0.007561
2553.000000	0.007558
2552.000000	0.007562
2551.000000	0.007560
2550.000000	0.007549
2549.000000	0.007538
2548.000000	0.007530
2547.000000	0.007521
2546.000000	0.007513
2545.000000	0.007518
2544.000000	0.007535
2543.000000	0.007548
2542.000000	0.007548
2541.000000	0.007543
2540.000000	0.007541
2539.000000	0.007541
2538.000000	0.007542
2537.000000	0.007545
2536.000000	0.007547
2535.000000	0.007543
2534.000000	0.007535
2533.000000	0.007536
2532.000000	0.007545
2531.000000	0.007554
2530.000000	0.007561
2529.000000	0.007570
2528.000000	0.007582
2527.000000	0.007588
2526.000000	0.007588
2525.000000	0.007591
2524.000000	0.007600
2523.000000	0.007608
2522.000000	0.007614
2521.000000	0.007623
2520.000000	0.007636
2519.000000	0.007645
2518.000000	0.007651
2517.000000	0.007657
2516.000000	0.007660
2515.000000	0.007655
2514.000000	0.007654
2513.000000	0.007675
2512.000000	0.007714
2511.000000	0.007746
2510.000000	0.007762
2509.000000	0.007777
2508.000000	0.007802
2507.000000	0.007829
2506.000000	0.007853
2505.000000	0.007886
2504.000000	0.007936
2503.000000	0.007995
2502.000000	0.008052
2501.000000	0.008104
2500.000000	0.008148
2499.000000	0.008185
2498.000000	0.008224
2497.000000	0.008279
2496.000000	0.008348
2495.000000	0.008417
2494.000000	0.008478
2493.000000	0.008540
2492.000000	0.008610
2491.000000	0.008685
2490.000000	0.008764
2489.000000	0.008851
2488.000000	0.008941
2487.000000	0.009019
2486.000000	0.009077
2485.000000	0.009124
2484.000000	0.009169
2483.000000	0.009214
2482.000000	0.009262
2481.000000	0.009319
2480.000000	0.009379
2479.000000	0.009430
2478.000000	0.009471
2477.000000	0.009514
2476.000000	0.009563
2475.000000	0.009610
2474.000000	0.009648
2473.000000	0.009683
2472.000000	0.009714
2471.000000	0.009735
2470.000000	0.009747
2469.000000	0.009760
2468.000000	0.009774
2467.000000	0.009779
2466.000000	0.009777
2465.000000	0.009778
2464.000000	0.009784
2463.000000	0.009785
2462.000000	0.009779
2461.000000	0.009778
2460.000000	0.009792
2459.000000	0.009811
2458.000000	0.009827
2457.000000	0.009839
2456.000000	0.009847
2455.000000	0.009843
2454.000000	0.009832
2453.000000	0.009831
2452.000000	0.009841
2451.000000	0.009851
2450.000000	0.009852
2449.000000	0.009851
2448.000000	0.009852
2447.000000	0.009850
2446.000000	0.009850
2445.000000	0.009861
2444.000000	0.009888
2443.000000	0.009918
2442.000000	0.009941
2441.000000	0.009962
2440.000000	0.009986
2439.000000	0.010010
2438.000000	0.010031
2437.000000	0.010054
2436.000000	0.010083
2435.000000	0.010114
2434.000000	0.010152
2433.000000	0.010201
2432.000000	0.010256
2431.000000	0.010302
2430.000000	0.010337
2429.000000	0.010370
2428.000000	0.010408
2427.000000	0.010444
2426.000000	0.010474
2425.000000	0.010501
2424.000000	0.010522
2423.000000	0.010533
2422.000000	0.010534
2421.000000	0.010540
2420.000000	0.010551
2419.000000	0.010558
2418.000000	0.010554
2417.000000	0.010545
2416.000000	0.010532
2415.000000	0.010508
2414.000000	0.010471
2413.000000	0.010427
2412.000000	0.010377
2411.000000	0.010310
2410.000000	0.010228
2409.000000	0.010148
2408.000000	0.010081
2407.000000	0.010021
2406.000000	0.009959
2405.000000	0.009890
2404.000000	0.009812
2403.000000	0.009716
2402.000000	0.009609
2401.000000	0.009503
2400.000000	0.009405
2399.000000	0.009308
2398.000000	0.009211
2397.000000	0.009123
2396.000000	0.009044
2395.000000	0.008961
2394.000000	0.008868
2393.000000	0.008776
2392.000000	0.008696
2391.000000	0.008630
2390.000000	0.008575
2389.000000	0.008522
2388.000000	0.008458
2387.000000	0.008371
2386.000000	0.008267
2385.000000	0.008173
2384.000000	0.008101
2383.000000	0.008047
2382.000000	0.008002
2381.000000	0.007966
2380.000000	0.007942
2379.000000	0.007928
2378.000000	0.007923
2377.000000	0.007927
2376.000000	0.007930
2375.000000	0.007914
2374.000000	0.007875
2373.000000	0.007826
2372.000000	0.007777
2371.000000	0.007724
2370.000000	0.007667
2369.000000	0.007620
2368.000000	0.007594
2367.000000	0.007581
2366.000000	0.007571
2365.000000	0.007564
2364.000000	0.007555
2363.000000	0.007534
2362.000000	0.007505
2361.000000	0.007484
2360.000000	0.007473
2359.000000	0.007457
2358.000000	0.007426
2357.000000	0.007391
2356.000000	0.007363
2355.000000	0.007337
2354.000000	0.007311
2353.000000	0.007294
2352.000000	0.007289
2351.000000	0.007280
2350.000000	0.007262
2349.000000	0.007244
2348.000000	0.007227
2347.000000	0.007208
2346.000000	0.007190
2345.000000	0.007188
2344.000000	0.007197
2343.000000	0.007189
2342.000000	0.007163
2341.000000	0.007133
2340.000000	0.007111
2339.000000	0.007092
2338.000000	0.007072
2337.000000	0.007057
2336.000000	0.007048
2335.000000	0.007031
2334.000000	0.007005
2333.000000	0.006984
2332.000000	0.006977
2331.000000	0.006977
2330.000000	0.006975
2329.000000	0.006976
2328.000000	0.006979
2327.000000	0.006971
2326.000000	0.006946
2325.000000	0.006917
2324.000000	0.006898
2323.000000	0.006887
2322.000000	0.006878
2321.000000	0.006874
2320.000000	0.006880
2319.000000	0.006888
2318.000000	0.006888
2317.000000	0.006878
2316.000000	0.006859
2315.000000	0.006829
2314.000000	0.006799
2313.000000	0.006785
2312.000000	0.006788
2311.000000	0.006791
2310.000000	0.006780
2309.000000	0.006762
2308.000000	0.006751
2307.000000	0.006746
2306.000000	0.006742
2305.000000	0.006740
2304.000000	0.006733
2303.000000	0.006715
2302.000000	0.006692
2301.000000	0.006680
2300.000000	0.006683
2299.000000	0.006685
2298.000000	0.006674
2297.000000	0.006658
2296.000000	0.006649
2295.000000	0.006650
2294.000000	0.006662
2293.000000	0.006685
2292.000000	0.006711
2291.000000	0.006727
2290.000000	0.006733
2289.000000	0.006738
2288.000000	0.006736
2287.000000	0.006714
2286.000000	0.006680
2285.000000	0.006660
2284.000000	0.006659
2283.000000	0.006659
2282.000000	0.006649
2281.000000	0.006641
2280.000000	0.006640
2279.000000	0.006634
2278.000000	0.006620
2277.000000	0.006613
2276.000000	0.006618
2275.000000	0.006621
2274.000000	0.006615
2273.000000	0.006613
2272.000000	0.006619
2271.000000	0.006615
2270.000000	0.006594
2269.000000	0.006570
2268.000000	0.006552
2267.000000	0.006531
2266.000000	0.006508
2265.000000	0.006504
2264.000000	0.006520
2263.000000	0.006529
2262.000000	0.006519
2261.000000	0.006510
2260.000000	0.006513
2259.000000	0.006512
2258.000000	0.006493
2257.000000	0.006466
2256.000000	0.006439
2255.000000	0.006410
2254.000000	0.006388
2253.000000	0.006397
2252.000000	0.006435
2251.000000	0.006474
2250.000000	0.006498
2249.000000	0.006516
2248.000000	0.006529
2247.000000	0.006518
2246.000000	0.006487
2245.000000	0.006472
2244.000000	0.006484
2243.000000	0.006488
2242.000000	0.006466
2241.000000	0.006447
2240.000000	0.006454
2239.000000	0.006473
2238.000000	0.006484
2237.000000	0.006496
2236.000000	0.006515
2235.000000	0.006531
2234.000000	0.006536
2233.000000	0.006547
2232.000000	0.006560
2231.000000	0.006541
2230.000000	0.006478
2229.000000	0.006409
2228.000000	0.006374
2227.000000	0.006369
2226.000000	0.006373
2225.000000	0.006383
2224.000000	0.006394
2223.000000	0.006383
2222.000000	0.006346
2221.000000	0.006310
2220.000000	0.006295
2219.000000	0.006291
2218.000000	0.006288
2217.000000	0.006299
2216.000000	0.006322
2215.000000	0.006329
2214.000000	0.006314
2213.000000	0.006308
2212.000000	0.006324
2211.000000	0.006345
2210.000000	0.006355
2209.000000	0.006369
2208.000000	0.006385
2207.000000	0.006383
2206.000000	0.006364
2205.000000	0.006362
2204.000000	0.006386
2203.000000	0.006409
2202.000000	0.006420
2201.000000	0.006435
2200.000000	0.006443
2199.000000	0.006402
2198.000000	0.006317
2197.000000	0.006258
2196.000000	0.006275
2195.000000	0.006336
2194.000000	0.006387
2193.000000	0.006420
2192.000000	0.006435
2191.000000	0.006419
2190.000000	0.006379
2189.000000	0.006356
2188.000000	0.006361
2187.000000	0.006361
2186.000000	0.006338
2185.000000	0.006321
2184.000000	0.006312
2183.000000	0.006273
2182.000000	0.006204
2181.000000	0.006164
2180.000000	0.006181
2179.000000	0.006207
2178.000000	0.006207
2177.000000	0.006211
2176.000000	0.006246
2175.000000	0.006279
2174.000000	0.006280
2173.000000	0.006277
2172.000000	0.006300
2171.000000	0.006327
2170.000000	0.006341
2169.000000	0.006363
2168.000000	0.006402
2167.000000	0.006418
2166.000000	0.006392
2165.000000	0.006363
2164.000000	0.006352
2163.000000	0.006299
2162.000000	0.006140
2161.000000	0.005911
2160.000000	0.005714
2159.000000	0.005604
2158.000000	0.005583
2157.000000	0.005631
2156.000000	0.005704
2155.000000	0.005751
2154.000000	0.005769
2153.000000	0.005793
2152.000000	0.005827
2151.000000	0.005839
2150.000000	0.005823
2149.000000	0.005818
2148.000000	0.005836
2147.000000	0.005851
2146.000000	0.005856
2145.000000	0.005874
2144.000000	0.005896
2143.000000	0.005890
2142.000000	0.005862
2141.000000	0.005862
2140.000000	0.005892
2139.000000	0.005902
2138.000000	0.005878
2137.000000	0.005865
2136.000000	0.005889
2135.000000	0.005914
2134.000000	0.005914
2133.000000	0.005916
2132.000000	0.005948
2131.000000	0.005991
2130.000000	0.006017
2129.000000	0.006039
2128.000000	0.006079
2127.000000	0.006129
2126.000000	0.006166
2125.000000	0.006186
2124.000000	0.006196
2123.000000	0.006198
2122.000000	0.006191
2121.000000	0.006181
2120.000000	0.006169
2119.000000	0.006156
2118.000000	0.006158
2117.000000	0.006191
2116.000000	0.006237
2115.000000	0.006251
2114.000000	0.006224
2113.000000	0.006188
2112.000000	0.006170
2111.000000	0.006164
2110.000000	0.006162
2109.000000	0.006171
2108.000000	0.006178
2107.000000	0.006163
2106.000000	0.006130
2105.000000	0.006118
2104.000000	0.006137
2103.000000	0.006158
2102.000000	0.006159
2101.000000	0.006155
2100.000000	0.006156
2099.000000	0.006145
2098.000000	0.006114
2097.000000	0.006084
2096.000000	0.006069
2095.000000	0.006051
2094.000000	0.006022
2093.000000	0.006001
2092.000000	0.005995
2091.000000	0.005988
2090.000000	0.005975
2089.000000	0.005978
2088.000000	0.006003
2087.000000	0.006025
2086.000000	0.006030
2085.000000	0.006039
2084.000000	0.006055
2083.000000	0.006048
2082.000000	0.005999
2081.000000	0.005942
2080.000000	0.005915
2079.000000	0.005913
2078.000000	0.005907
2077.000000	0.005887
2076.000000	0.005861
2075.000000	0.005832
2074.000000	0.005819
2073.000000	0.005840
2072.000000	0.005882
2071.000000	0.005899
2070.000000	0.005873
2069.000000	0.005832
2068.000000	0.005804
2067.000000	0.005783
2066.000000	0.005767
2065.000000	0.005768
2064.000000	0.005779
2063.000000	0.005768
2062.000000	0.005728
2061.000000	0.005697
2060.000000	0.005689
2059.000000	0.005678
2058.000000	0.005649
2057.000000	0.005626
2056.000000	0.005626
2055.000000	0.005635
2054.000000	0.005637
2053.000000	0.005642
2052.000000	0.005645
2051.000000	0.005626
2050.000000	0.005598
2049.000000	0.005607
2048.000000	0.005648
2047.000000	0.005664
2046.000000	0.005637
2045.000000	0.005623
2044.000000	0.005647
2043.000000	0.005669
2042.000000	0.005661
2041.000000	0.005653
2040.000000	0.005657
2039.000000	0.005629
2038.000000	0.005562
2037.000000	0.005516
2036.000000	0.005525
2035.000000	0.005531
2034.000000	0.005490
2033.000000	0.005438
2032.000000	0.005418
2031.000000	0.005409
2030.000000	0.005388
2029.000000	0.005379
2028.000000	0.005382
2027.000000	0.005358
2026.000000	0.005308
2025.000000	0.005295
2024.000000	0.005336
2023.000000	0.005376
2022.000000	0.005384
2021.000000	0.005402
2020.000000	0.005445
2019.000000	0.005466
2018.000000	0.005453
2017.000000	0.005462
2016.000000	0.005510
2015.000000	0.005520
2014.000000	0.005443
2013.000000	0.005334
2012.000000	0.005259
2011.000000	0.005220
2010.000000	0.005206
2009.000000	0.005243
2008.000000	0.005334
2007.000000	0.005430
2006.000000	0.005502
2005.000000	0.005575
2004.000000	0.005646
2003.000000	0.005670
2002.000000	0.005637
2001.000000	0.005596
2000.000000	0.005573
1999.000000	0.005537
1998.000000	0.005485
1997.000000	0.005463
1996.000000	0.005482
1995.000000	0.005479
1994.000000	0.005427
1993.000000	0.005387
1992.000000	0.005409
1991.000000	0.005454
1990.000000	0.005473
1989.000000	0.005479
1988.000000	0.005496
1987.000000	0.005505
1986.000000	0.005497
1985.000000	0.005509
1984.000000	0.005561
1983.000000	0.005604
1982.000000	0.005593
1981.000000	0.005545
1980.000000	0.005487
1979.000000	0.005410
1978.000000	0.005325
1977.000000	0.005290
1976.000000	0.005312
1975.000000	0.005327
1974.000000	0.005301
1973.000000	0.005273
1972.000000	0.005273
1971.000000	0.005278
1970.000000	0.005281
1969.000000	0.005313
1968.000000	0.005360
1967.000000	0.005357
1966.000000	0.005299
1965.000000	0.005259
1964.000000	0.005274
1963.000000	0.005291
1962.000000	0.005269
1961.000000	0.005241
1960.000000	0.005244
1959.000000	0.005260
1958.000000	0.005274
1957.000000	0.005298
1956.000000	0.005328
1955.000000	0.005328
1954.000000	0.005308
1953.000000	0.005315
1952.000000	0.005361
1951.000000	0.005391
1950.000000	0.005371
1949.000000	0.005332
1948.000000	0.005305
1947.000000	0.005269
1946.000000	0.005214
1945.000000	0.005168
1944.000000	0.005162
1943.000000	0.005188
1942.000000	0.005239
1941.000000	0.005317
1940.000000	0.005388
1939.000000	0.005397
1938.000000	0.005347
1937.000000	0.005299
1936.000000	0.005292
1935.000000	0.005300
1934.000000	0.005295
1933.000000	0.005289
1932.000000	0.005299
1931.000000	0.005310
1930.000000	0.005302
1929.000000	0.005278
1928.000000	0.005246
1927.000000	0.005198
1926.000000	0.005144
1925.000000	0.005114
1924.000000	0.005126
1923.000000	0.005156
1922.000000	0.005173
1921.000000	0.005173
1920.000000	0.005166
1919.000000	0.005161
1918.000000	0.005175
1917.000000	0.005212
1916.000000	0.005240
1915.000000	0.005223
1914.000000	0.005177
1913.000000	0.005146
1912.000000	0.005127
1911.000000	0.005091
1910.000000	0.005039
1909.000000	0.005018
1908.000000	0.005046
1907.000000	0.005085
1906.000000	0.005104
1905.000000	0.005112
1904.000000	0.005126
1903.000000	0.005135
1902.000000	0.005133
1901.000000	0.005131
1900.000000	0.005128
1899.000000	0.005103
1898.000000	0.005056
1897.000000	0.005019
1896.000000	0.005019
1895.000000	0.005045
1894.000000	0.005072
1893.000000	0.005084
1892.000000	0.005067
1891.000000	0.005018
1890.000000	0.004969
1889.000000	0.004969
1888.000000	0.005011
1887.000000	0.005033
1886.000000	0.005019
1885.000000	0.005010
1884.000000	0.005029
1883.000000	0.005043
1882.000000	0.005024
1881.000000	0.004991
1880.000000	0.004968
1879.000000	0.004955
1878.000000	0.004948
1877.000000	0.004951
1876.000000	0.004960
1875.000000	0.004950
1874.000000	0.004909
1873.000000	0.004856
1872.000000	0.004806
1871.000000	0.004756
1870.000000	0.004710
1869.000000	0.004695
1868.000000	0.004728
1867.000000	0.004774
1866.000000	0.004802
1865.000000	0.004822
1864.000000	0.004842
1863.000000	0.004842
1862.000000	0.004818
1861.000000	0.004805
1860.000000	0.004823
1859.000000	0.004849
1858.000000	0.004862
1857.000000	0.004871
1856.000000	0.004879
1855.000000	0.004872
1854.000000	0.004844
1853.000000	0.004820
1852.000000	0.004807
1851.000000	0.004780
1850.000000	0.004736
1849.000000	0.004692
1848.000000	0.004644
1847.000000	0.004583
1846.000000	0.004548
1845.000000	0.004607
1844.000000	0.004764
1843.000000	0.004906
1842.000000	0.004921
1841.000000	0.004838
1840.000000	0.004751
1839.000000	0.004695
1838.000000	0.004654
1837.000000	0.004637
1836.000000	0.004657
1835.000000	0.004684
1834.000000	0.004672
1833.000000	0.004617
1832.000000	0.004544
1831.000000	0.004478
1830.000000	0.004454
1829.000000	0.004493
1828.000000	0.004538
1827.000000	0.004526
1826.000000	0.004479
1825.000000	0.004474
1824.000000	0.004531
1823.000000	0.004594
1822.000000	0.004617
1821.000000	0.004612
1820.000000	0.004597
1819.000000	0.004568
1818.000000	0.004532
1817.000000	0.004516
1816.000000	0.004529
1815.000000	0.004530
1814.000000	0.004492
1813.000000	0.004433
1812.000000	0.004386
1811.000000	0.004366
1810.000000	0.004372
1809.000000	0.004402
1808.000000	0.004447
1807.000000	0.004479
1806.000000	0.004482
1805.000000	0.004467
1804.000000	0.004442
1803.000000	0.004395
1802.000000	0.004329
1801.000000	0.004283
1800.000000	0.004286
1799.000000	0.004317
1798.000000	0.004329
1797.000000	0.004307
1796.000000	0.004257
1795.000000	0.004202
1794.000000	0.004177
1793.000000	0.004220
1792.000000	0.004327
1791.000000	0.004434
1790.000000	0.004475
1789.000000	0.004455
1788.000000	0.004427
1787.000000	0.004414
1786.000000	0.004413
1785.000000	0.004428
1784.000000	0.004440
1783.000000	0.004399
1782.000000	0.004314
1781.000000	0.004257
1780.000000	0.004266
1779.000000	0.004303
1778.000000	0.004312
1777.000000	0.004284
1776.000000	0.004240
1775.000000	0.004200
1774.000000	0.004200
1773.000000	0.004266
1772.000000	0.004376
1771.000000	0.004455
1770.000000	0.004461
1769.000000	0.004462
1768.000000	0.004528
1767.000000	0.004601
1766.000000	0.004588
1765.000000	0.004495
1764.000000	0.004413
1763.000000	0.004395
1762.000000	0.004443
1761.000000	0.004523
1760.000000	0.004569
1759.000000	0.004539
1758.000000	0.004497
1757.000000	0.004540
1756.000000	0.004653
1755.000000	0.004726
1754.000000	0.004723
1753.000000	0.004732
1752.000000	0.004797
1751.000000	0.004844
1750.000000	0.004805
1749.000000	0.004741
1748.000000	0.004753
1747.000000	0.004844
1746.000000	0.004963
1745.000000	0.005092
1744.000000	0.005239
1743.000000	0.005394
1742.000000	0.005546
1741.000000	0.005736
1740.000000	0.005998
1739.000000	0.006260
1738.000000	0.006416
1737.000000	0.006517
1736.000000	0.006733
1735.000000	0.007105
1734.000000	0.007518
1733.000000	0.007834
1732.000000	0.007909
1731.000000	0.007789
1730.000000	0.007717
1729.000000	0.007836
1728.000000	0.008089
1727.000000	0.008330
1726.000000	0.008508
1725.000000	0.008669
1724.000000	0.008861
1723.000000	0.009063
1722.000000	0.009222
1721.000000	0.009359
1720.000000	0.009557
1719.000000	0.009832
1718.000000	0.010131
1717.000000	0.010457
1716.000000	0.010791
1715.000000	0.011035
1714.000000	0.011203
1713.000000	0.011399
1712.000000	0.011651
1711.000000	0.011909
1710.000000	0.012147
1709.000000	0.012401
1708.000000	0.012695
1707.000000	0.013026
1706.000000	0.013427
1705.000000	0.013975
1704.000000	0.014649
1703.000000	0.015417
1702.000000	0.016413
1701.000000	0.017832
1700.000000	0.019560
1699.000000	0.021071
1698.000000	0.022148
1697.000000	0.023214
1696.000000	0.024584
1695.000000	0.025968
1694.000000	0.026896
1693.000000	0.027352
1692.000000	0.027663
1691.000000	0.027992
1690.000000	0.028302
1689.000000	0.028609
1688.000000	0.029024
1687.000000	0.029610
1686.000000	0.030281
1685.000000	0.030797
1684.000000	0.031130
1683.000000	0.031528
1682.000000	0.031986
1681.000000	0.032465
1680.000000	0.033065
1679.000000	0.033771
1678.000000	0.034529
1677.000000	0.035315
1676.000000	0.036074
1675.000000	0.036738
1674.000000	0.037346
1673.000000	0.037955
1672.000000	0.038589
1671.000000	0.039216
1670.000000	0.039784
1669.000000	0.040400
1668.000000	0.041159
1667.000000	0.041967
1666.000000	0.042748
1665.000000	0.043516
1664.000000	0.044227
1663.000000	0.044798
1662.000000	0.045304
1661.000000	0.045912
1660.000000	0.046632
1659.000000	0.047385
1658.000000	0.048134
1657.000000	0.048972
1656.000000	0.049978
1655.000000	0.051049
1654.000000	0.051553
1653.000000	0.051427
1652.000000	0.051699
1651.000000	0.052266
1650.000000	0.052656
1649.000000	0.053076
1648.000000	0.053459
1647.000000	0.053639
1646.000000	0.053838
1645.000000	0.054332
1644.000000	0.054973
1643.000000	0.055568
1642.000000	0.056104
1641.000000	0.056632
1640.000000	0.057201
1639.000000	0.057825
1638.000000	0.058434
1637.000000	0.058826
1636.000000	0.058855
1635.000000	0.058872
1634.000000	0.059252
1633.000000	0.059890
1632.000000	0.060647
1631.000000	0.061439
1630.000000	0.062128
1629.000000	0.062656
1628.000000	0.063123
1627.000000	0.063683
1626.000000	0.064365
1625.000000	0.065043
1624.000000	0.065531
1623.000000	0.065800
1622.000000	0.066109
1621.000000	0.066701
1620.000000	0.067548
1619.000000	0.068394
1618.000000	0.068794
1617.000000	0.068437
1616.000000	0.067675
1615.000000	0.067055
1614.000000	0.066636
1613.000000	0.066243
1612.000000	0.065697
1611.000000	0.064848
1610.000000	0.063688
1609.000000	0.062333
1608.000000	0.060907
1607.000000	0.059469
1606.000000	0.058043
1605.000000	0.056614
1604.000000	0.055126
1603.000000	0.053560
1602.000000	0.051975
1601.000000	0.050437
1600.000000	0.048969
1599.000000	0.047564
1598.000000	0.046208
1597.000000	0.044874
1596.000000	0.043541
1595.000000	0.042238
1594.000000	0.041026
1593.000000	0.039923
1592.000000	0.038898
1591.000000	0.037933
1590.000000	0.037041
1589.000000	0.036228
1588.000000	0.035488
1587.000000	0.034826
1586.000000	0.034251
1585.000000	0.033752
1584.000000	0.033299
1583.000000	0.032897
1582.000000	0.032587
1581.000000	0.032372
1580.000000	0.032226
1579.000000	0.032160
1578.000000	0.032170
1577.000000	0.032120
1576.000000	0.031944
1575.000000	0.031793
1574.000000	0.031729
1573.000000	0.031716
1572.000000	0.031769
1571.000000	0.031853
1570.000000	0.031931
1569.000000	0.032090
1568.000000	0.032372
1567.000000	0.032711
1566.000000	0.033084
1565.000000	0.033504
1564.000000	0.033975
1563.000000	0.034579
1562.000000	0.035403
1561.000000	0.036368
1560.000000	0.036982
1559.000000	0.037021
1558.000000	0.037371
1557.000000	0.038157
1556.000000	0.038803
1555.000000	0.039395
1554.000000	0.040087
1553.000000	0.040811
1552.000000	0.041440
1551.000000	0.041993
1550.000000	0.042586
1549.000000	0.043295
1548.000000	0.044101
1547.000000	0.044927
1546.000000	0.045706
1545.000000	0.046383
1544.000000	0.046993
1543.000000	0.047649
1542.000000	0.048341
1541.000000	0.048824
1540.000000	0.049025
1539.000000	0.049363
1538.000000	0.049942
1537.000000	0.050480
1536.000000	0.050953
1535.000000	0.051346
1534.000000	0.051505
1533.000000	0.051520
1532.000000	0.051712
1531.000000	0.052148
1530.000000	0.052653
1529.000000	0.053074
1528.000000	0.053345
1527.000000	0.053499
1526.000000	0.053643
1525.000000	0.053877
1524.000000	0.054204
1523.000000	0.054500
1522.000000	0.054546
1521.000000	0.054400
1520.000000	0.054381
1519.000000	0.054506
1518.000000	0.054556
1517.000000	0.054407
1516.000000	0.054209
1515.000000	0.054185
1514.000000	0.054270
1513.000000	0.054243
1512.000000	0.054012
1511.000000	0.053709
1510.000000	0.053489
1509.000000	0.053261
1508.000000	0.052580
1507.000000	0.051169
1506.000000	0.049857
1505.000000	0.049241
1504.000000	0.048818
1503.000000	0.048312
1502.000000	0.047764
1501.000000	0.047139
1500.000000	0.046407
1499.000000	0.045588
1498.000000	0.044666
1497.000000	0.043584
1496.000000	0.042463
1495.000000	0.041487
1494.000000	0.040667
1493.000000	0.039916
1492.000000	0.039114
1491.000000	0.038118
1490.000000	0.036945
1489.000000	0.035886
1488.000000	0.035174
1487.000000	0.034752
1486.000000	0.034470
1485.000000	0.034272
1484.000000	0.034143
1483.000000	0.034047
1482.000000	0.033969
1481.000000	0.033963
1480.000000	0.034103
1479.000000	0.034373
1478.000000	0.034696
1477.000000	0.035036
1476.000000	0.035441
1475.000000	0.035947
1474.000000	0.036501
1473.000000	0.037021
1472.000000	0.037547
1471.000000	0.038127
1470.000000	0.038692
1469.000000	0.039212
1468.000000	0.039723
1467.000000	0.040209
1466.000000	0.040604
1465.000000	0.040893
1464.000000	0.041179
1463.000000	0.041552
1462.000000	0.041990
1461.000000	0.042458
1460.000000	0.042952
1459.000000	0.043435
1458.000000	0.043772
1457.000000	0.043957
1456.000000	0.044223
1455.000000	0.044548
1454.000000	0.044793
1453.000000	0.045000
1452.000000	0.045195
1451.000000	0.045356
1450.000000	0.045446
1449.000000	0.045409
1448.000000	0.045239
1447.000000	0.045046
1446.000000	0.044942
1445.000000	0.044892
1444.000000	0.044796
1443.000000	0.044634
1442.000000	0.044445
1441.000000	0.044272
1440.000000	0.044148
1439.000000	0.044063
1438.000000	0.043855
1437.000000	0.043307
1436.000000	0.042548
1435.000000	0.041929
1434.000000	0.041507
1433.000000	0.041132
1432.000000	0.040680
1431.000000	0.040119
1430.000000	0.039514
1429.000000	0.038956
1428.000000	0.038519
1427.000000	0.038202
1426.000000	0.037925
1425.000000	0.037582
1424.000000	0.037194
1423.000000	0.036941
1422.000000	0.036913
1421.000000	0.036971
1420.000000	0.036864
1419.000000	0.036543
1418.000000	0.036247
1417.000000	0.036120
1416.000000	0.036124
1415.000000	0.036223
1414.000000	0.036366
1413.000000	0.036473
1412.000000	0.036509
1411.000000	0.036516
1410.000000	0.036523
1409.000000	0.036499
1408.000000	0.036407
1407.000000	0.036236
1406.000000	0.035981
1405.000000	0.035659
1404.000000	0.035349
1403.000000	0.035142
1402.000000	0.035020
1401.000000	0.034870
1400.000000	0.034614
1399.000000	0.034314
1398.000000	0.034090
1397.000000	0.033951
1396.000000	0.033831
1395.000000	0.033719
1394.000000	0.033670
1393.000000	0.033687
1392.000000	0.033725
1391.000000	0.033773
1390.000000	0.033826
1389.000000	0.033824
1388.000000	0.033711
1387.000000	0.033531
1386.000000	0.033375
1385.000000	0.033260
1384.000000	0.033157
1383.000000	0.033060
1382.000000	0.032967
1381.000000	0.032868
1380.000000	0.032770
1379.000000	0.032698
1378.000000	0.032656
1377.000000	0.032614
1376.000000	0.032542
1375.000000	0.032449
1374.000000	0.032386
1373.000000	0.032394
1372.000000	0.032457
1371.000000	0.032509
1370.000000	0.032483
1369.000000	0.032346
1368.000000	0.032132
1367.000000	0.031907
1366.000000	0.031680
1365.000000	0.031391
1364.000000	0.030998
1363.000000	0.030553
1362.000000	0.030172
1361.000000	0.029914
1360.000000	0.029749
1359.000000	0.029626
1358.000000	0.029507
1357.000000	0.029367
1356.000000	0.029220
1355.000000	0.029103
1354.000000	0.029033
1353.000000	0.028991
1352.000000	0.028962
1351.000000	0.028954
1350.000000	0.028968
1349.000000	0.028995
1348.000000	0.029046
1347.000000	0.029137
1346.000000	0.029260
1345.000000	0.029386
1344.000000	0.029502
1343.000000	0.029612
1342.000000	0.029690
1341.000000	0.029688
1340.000000	0.029613
1339.000000	0.029533
1338.000000	0.029490
1337.000000	0.029450
1336.000000	0.029376
1335.000000	0.029270
1334.000000	0.029138
1333.000000	0.028971
1332.000000	0.028778
1331.000000	0.028602
1330.000000	0.028469
1329.000000	0.028364
1328.000000	0.028275
1327.000000	0.028210
1326.000000	0.028163
1325.000000	0.028116
1324.000000	0.028068
1323.000000	0.028045
1322.000000	0.028047
1321.000000	0.028043
1320.000000	0.028022
1319.000000	0.028014
1318.000000	0.028033
1317.000000	0.028062
1316.000000	0.028084
1315.000000	0.028106
1314.000000	0.028125
1313.000000	0.028126
1312.000000	0.028117
1311.000000	0.028124
1310.000000	0.028144
1309.000000	0.028146
1308.000000	0.028123
1307.000000	0.028102
1306.000000	0.028092
1305.000000	0.028074
1304.000000	0.028043
1303.000000	0.028024
1302.000000	0.028023
1301.000000	0.028021
1300.000000	0.028014
1299.000000	0.028027
1298.000000	0.028062
1297.000000	0.028095
1296.000000	0.028119
1295.000000	0.028157
1294.000000	0.028210
1293.000000	0.028255
1292.000000	0.028287
1291.000000	0.028331
1290.000000	0.028392
1289.000000	0.028443
1288.000000	0.028482
1287.000000	0.028533
1286.000000	0.028605
1285.000000	0.028669
1284.000000	0.028715
1283.000000	0.028766
1282.000000	0.028825
1281.000000	0.028870
1280.000000	0.028895
1279.000000	0.028925
1278.000000	0.028971
1277.000000	0.029009
1276.000000	0.029034
1275.000000	0.029069
1274.000000	0.029123
1273.000000	0.029177
1272.000000	0.029229
1271.000000	0.029306
1270.000000	0.029417
1269.000000	0.029541
1268.000000	0.029669
1267.000000	0.029820
1266.000000	0.029994
1265.000000	0.030162
1264.000000	0.030319
1263.000000	0.030491
1262.000000	0.030684
1261.000000	0.030872
1260.000000	0.031049
1259.000000	0.031243
1258.000000	0.031461
1257.000000	0.031674
1256.000000	0.031872
1255.000000	0.032082
1254.000000	0.032317
1253.000000	0.032557
1252.000000	0.032795
1251.000000	0.033044
1250.000000	0.033305
1249.000000	0.033552
1248.000000	0.033782
1247.000000	0.034017
1246.000000	0.034256
1245.000000	0.034472
1244.000000	0.034659
1243.000000	0.034841
1242.000000	0.035014
1241.000000	0.035146
1240.000000	0.035225
1239.000000	0.035282
1238.000000	0.035327
1237.000000	0.035333
1236.000000	0.035288
1235.000000	0.035212
1234.000000	0.035116
1233.000000	0.034982
1232.000000	0.034809
1231.000000	0.034630
1230.000000	0.034456
1229.000000	0.034261
1228.000000	0.034031
1227.000000	0.033791
1226.000000	0.033550
1225.000000	0.033287
1224.000000	0.032996
1223.000000	0.032703
1222.000000	0.032416
1221.000000	0.032111
1220.000000	0.031786
1219.000000	0.031464
1218.000000	0.031152
1217.000000	0.030822
1216.000000	0.030471
1215.000000	0.030132
1214.000000	0.029814
1213.000000	0.029489
1212.000000	0.029147
1211.000000	0.028821
1210.000000	0.028517
1209.000000	0.028198
1208.000000	0.027852
1207.000000	0.027512
1206.000000	0.027195
1205.000000	0.026876
1204.000000	0.026547
1203.000000	0.026234
1202.000000	0.025944
1201.000000	0.025645
1200.000000	0.025330
1199.000000	0.025032
1198.000000	0.024763
1197.000000	0.024494
1196.000000	0.024218
1195.000000	0.023968
1194.000000	0.023751
1193.000000	0.023534
1192.000000	0.023308
1191.000000	0.023109
1190.000000	0.022951
1189.000000	0.022799
1188.000000	0.022639
1187.000000	0.022502
1186.000000	0.022404
1185.000000	0.022318
1184.000000	0.022238
1183.000000	0.022201
1182.000000	0.022215
1181.000000	0.022248
1180.000000	0.022289
1179.000000	0.022373
1178.000000	0.022512
1177.000000	0.022677
1176.000000	0.022854
1175.000000	0.023068
1174.000000	0.023316
1173.000000	0.023556
1172.000000	0.023777
1171.000000	0.024010
1170.000000	0.024258
1169.000000	0.024481
1168.000000	0.024676
1167.000000	0.024889
1166.000000	0.025134
1165.000000	0.025368
1164.000000	0.025564
1163.000000	0.025748
1162.000000	0.025924
1161.000000	0.026052
1160.000000	0.026119
1159.000000	0.026159
1158.000000	0.026179
1157.000000	0.026135
1156.000000	0.026017
1155.000000	0.025874
1154.000000	0.025732
1153.000000	0.025561
1152.000000	0.025346
1151.000000	0.025122
1150.000000	0.024906
1149.000000	0.024676
1148.000000	0.024432
1147.000000	0.024213
1146.000000	0.024031
1145.000000	0.023851
1144.000000	0.023668
1143.000000	0.023524
1142.000000	0.023433
1141.000000	0.023353
1140.000000	0.023278
1139.000000	0.023250
1138.000000	0.023279
1137.000000	0.023321
1136.000000	0.023361
1135.000000	0.023436
1134.000000	0.023549
1133.000000	0.023653
1132.000000	0.023738
1131.000000	0.023851
1130.000000	0.024005
1129.000000	0.024149
1128.000000	0.024260
1127.000000	0.024377
1126.000000	0.024508
1125.000000	0.024610
1124.000000	0.024676
1123.000000	0.024753
1122.000000	0.024861
1121.000000	0.024955
1120.000000	0.025018
1119.000000	0.025090
1118.000000	0.025181
1117.000000	0.025241
1116.000000	0.025255
1115.000000	0.025273
1114.000000	0.025318
1113.000000	0.025351
1112.000000	0.025367
1111.000000	0.025422
1110.000000	0.025537
1109.000000	0.025662
1108.000000	0.025779
1107.000000	0.025935
1106.000000	0.026144
1105.000000	0.026352
1104.000000	0.026535
1103.000000	0.026734
1102.000000	0.026968
1101.000000	0.027191
1100.000000	0.027389
1099.000000	0.027607
1098.000000	0.027856
1097.000000	0.028078
1096.000000	0.028260
1095.000000	0.028460
1094.000000	0.028709
1093.000000	0.028961
1092.000000	0.029197
1091.000000	0.029463
1090.000000	0.029778
1089.000000	0.030100
1088.000000	0.030417
1087.000000	0.030779
1086.000000	0.031192
1085.000000	0.031593
1084.000000	0.031956
1083.000000	0.032336
1082.000000	0.032757
1081.000000	0.033169
1080.000000	0.033550
1079.000000	0.033947
1078.000000	0.034366
1077.000000	0.034742
1076.000000	0.035050
1075.000000	0.035350
1074.000000	0.035675
1073.000000	0.035975
1072.000000	0.036223
1071.000000	0.036462
1070.000000	0.036710
1069.000000	0.036917
1068.000000	0.037070
1067.000000	0.037221
1066.000000	0.037380
1065.000000	0.037479
1064.000000	0.037492
1063.000000	0.037477
1062.000000	0.037468
1061.000000	0.037418
1060.000000	0.037305
1059.000000	0.037181
1058.000000	0.037072
1057.000000	0.036933
1056.000000	0.036751
1055.000000	0.036591
1054.000000	0.036480
1053.000000	0.036357
1052.000000	0.036189
1051.000000	0.036022
1050.000000	0.035880
1049.000000	0.035710
1048.000000	0.035496
1047.000000	0.035301
1046.000000	0.035146
1045.000000	0.034970
1044.000000	0.034743
1043.000000	0.034514
1042.000000	0.034307
1041.000000	0.034075
1040.000000	0.033807
1039.000000	0.033567
1038.000000	0.033384
1037.000000	0.033200
1036.000000	0.032986
1035.000000	0.032793
1034.000000	0.032646
1033.000000	0.032500
1032.000000	0.032330
1031.000000	0.032177
1030.000000	0.032045
1029.000000	0.031873
1028.000000	0.031658
1027.000000	0.031486
1026.000000	0.031403
1025.000000	0.031358
1024.000000	0.031308
1023.000000	0.031281
1022.000000	0.031282
1021.000000	0.031254
1020.000000	0.031175
1019.000000	0.031087
1018.000000	0.030980
1017.000000	0.030764
1016.000000	0.030394
1015.000000	0.029930
1014.000000	0.029422
1013.000000	0.028855
1012.000000	0.028247
1011.000000	0.027682
1010.000000	0.027198
1009.000000	0.026744
1008.000000	0.026292
1007.000000	0.025889
1006.000000	0.025555
1005.000000	0.025241
1004.000000	0.024926
1003.000000	0.024657
1002.000000	0.024449
1001.000000	0.024245
1000.000000	0.024027
999.000000	0.023851
998.000000	0.023729
997.000000	0.023599
996.000000	0.023433
995.000000	0.023278
994.000000	0.023151
993.000000	0.022998
992.000000	0.022800
991.000000	0.022615
990.000000	0.022465
989.000000	0.022301
988.000000	0.022101
987.000000	0.021918
986.000000	0.021765
985.000000	0.021588
984.000000	0.021369
983.000000	0.021170
982.000000	0.021016
981.000000	0.020860
980.000000	0.020687
979.000000	0.020553
978.000000	0.020474
977.000000	0.020388
976.000000	0.020272
975.000000	0.020182
974.000000	0.020145
973.000000	0.020110
972.000000	0.020055
971.000000	0.020026
970.000000	0.020029
969.000000	0.019999
968.000000	0.019923
967.000000	0.019874
966.000000	0.019885
965.000000	0.019899
964.000000	0.019885
963.000000	0.019889
962.000000	0.019925
961.000000	0.019931
960.000000	0.019884
959.000000	0.019844
958.000000	0.019832
957.000000	0.019793
956.000000	0.019706
955.000000	0.019627
954.000000	0.019576
953.000000	0.019496
952.000000	0.019368
951.000000	0.019262
950.000000	0.019205
949.000000	0.019137
948.000000	0.019029
947.000000	0.018935
946.000000	0.018887
945.000000	0.018836
944.000000	0.018762
943.000000	0.018718
942.000000	0.018722
941.000000	0.018716
940.000000	0.018683
939.000000	0.018682
938.000000	0.018730
937.000000	0.018758
936.000000	0.018735
935.000000	0.018720
934.000000	0.018738
933.000000	0.018731
932.000000	0.018674
931.000000	0.018632
930.000000	0.018637
929.000000	0.018625
928.000000	0.018560
927.000000	0.018490
926.000000	0.018439
925.000000	0.018357
924.000000	0.018227
923.000000	0.018108
922.000000	0.018023
921.000000	0.017915
920.000000	0.017764
919.000000	0.017634
918.000000	0.017557
917.000000	0.017478
916.000000	0.017367
915.000000	0.017279
914.000000	0.017235
913.000000	0.017179
912.000000	0.017095
911.000000	0.017053
910.000000	0.017088
909.000000	0.017144
908.000000	0.017190
907.000000	0.017272
906.000000	0.017398
905.000000	0.017493
904.000000	0.017534
903.000000	0.017589
902.000000	0.017684
901.000000	0.017743
900.000000	0.017725
899.000000	0.017690
898.000000	0.017669
897.000000	0.017603
896.000000	0.017468
895.000000	0.017338
894.000000	0.017252
893.000000	0.017153
892.000000	0.017010
891.000000	0.016881
890.000000	0.016788
889.000000	0.016663
888.000000	0.016487
887.000000	0.016338
886.000000	0.016260
885.000000	0.016189
884.000000	0.016092
883.000000	0.016030
882.000000	0.016029
881.000000	0.016022
880.000000	0.015979
879.000000	0.015974
878.000000	0.016043
877.000000	0.016116
876.000000	0.016158
875.000000	0.016229
874.000000	0.016345
873.000000	0.016401
872.000000	0.016334
871.000000	0.016205
870.000000	0.016065
869.000000	0.015880
868.000000	0.015653
867.000000	0.015467
866.000000	0.015354
865.000000	0.015246
864.000000	0.015115
863.000000	0.015030
862.000000	0.015016
861.000000	0.014994
860.000000	0.014927
859.000000	0.014882
858.000000	0.014892
857.000000	0.014896
856.000000	0.014868
855.000000	0.014877
854.000000	0.014947
853.000000	0.014999
852.000000	0.014998
851.000000	0.015013
850.000000	0.015069
849.000000	0.015100
848.000000	0.015083
847.000000	0.015090
846.000000	0.015142
845.000000	0.015148
844.000000	0.015081
843.000000	0.015031
842.000000	0.015049
841.000000	0.015067
840.000000	0.015052
839.000000	0.015079
838.000000	0.015178
837.000000	0.015271
836.000000	0.015323
835.000000	0.015404
834.000000	0.015546
833.000000	0.015669
832.000000	0.015738
831.000000	0.015830
830.000000	0.015970
829.000000	0.016071
828.000000	0.016101
827.000000	0.016157
826.000000	0.016281
825.000000	0.016380
824.000000	0.016407
823.000000	0.016454
822.000000	0.016574
821.000000	0.016694
820.000000	0.016769
819.000000	0.016874
818.000000	0.017031
817.000000	0.017154
816.000000	0.017208
815.000000	0.017290
814.000000	0.017448
813.000000	0.017603
812.000000	0.017705
811.000000	0.017819
810.000000	0.017979
809.000000	0.018105
808.000000	0.018160
807.000000	0.018223
806.000000	0.018329
805.000000	0.018404
804.000000	0.018418
803.000000	0.018456
802.000000	0.018553
801.000000	0.018624
800.000000	0.018637
799.000000	0.018687
798.000000	0.018820
797.000000	0.018952
796.000000	0.019036
795.000000	0.019145
794.000000	0.019308
793.000000	0.019443
792.000000	0.019514
791.000000	0.019609
790.000000	0.019770
789.000000	0.019916
788.000000	0.020011
787.000000	0.020136
786.000000	0.020327
785.000000	0.020495
784.000000	0.020598
783.000000	0.020718
782.000000	0.020895
781.000000	0.021050
780.000000	0.021148
779.000000	0.021269
778.000000	0.021447
777.000000	0.021599
776.000000	0.021689
775.000000	0.021804
774.000000	0.021987
773.000000	0.022157
772.000000	0.022274
771.000000	0.022416
770.000000	0.022616
769.000000	0.022783
768.000000	0.022877
767.000000	0.022986
766.000000	0.023157
765.000000	0.023304
764.000000	0.023387
763.000000	0.023488
762.000000	0.023652
761.000000	0.023805
760.000000	0.023910
759.000000	0.024047
758.000000	0.024244
757.000000	0.024402
756.000000	0.024476
755.000000	0.024561
754.000000	0.024710
753.000000	0.024848
752.000000	0.024939
751.000000	0.025069
750.000000	0.025279
749.000000	0.025472
748.000000	0.025585
747.000000	0.025689
746.000000	0.025830
745.000000	0.025942
744.000000	0.026000
743.000000	0.026099
742.000000	0.026282
741.000000	0.026463
740.000000	0.026605
739.000000	0.026805
738.000000	0.027117
737.000000	0.027460
736.000000	0.027778
735.000000	0.028142
734.000000	0.028592
733.000000	0.029046
732.000000	0.029461
731.000000	0.029913
730.000000	0.030439
729.000000	0.030949
728.000000	0.031398
727.000000	0.031870
726.000000	0.032395
725.000000	0.032867
724.000000	0.033220
723.000000	0.033523
722.000000	0.033807
721.000000	0.033977
720.000000	0.033998
719.000000	0.033994
718.000000	0.034049
717.000000	0.034103
716.000000	0.034125
715.000000	0.034204
714.000000	0.034395
713.000000	0.034623
712.000000	0.034858
711.000000	0.035193
710.000000	0.035657
709.000000	0.036142
708.000000	0.036588
707.000000	0.037075
706.000000	0.037637
705.000000	0.038165
704.000000	0.038602
703.000000	0.039024
702.000000	0.039457
701.000000	0.039786
700.000000	0.039958
699.000000	0.040084
698.000000	0.040233
697.000000	0.040319
696.000000	0.040302
695.000000	0.040296
694.000000	0.040359
693.000000	0.040395
692.000000	0.040363
691.000000	0.040369
690.000000	0.040464
689.000000	0.040536
688.000000	0.040539
687.000000	0.040604
686.000000	0.040795
685.000000	0.040984
684.000000	0.041092
683.000000	0.041219
682.000000	0.041414
681.000000	0.041563
680.000000	0.041620
679.000000	0.041722
678.000000	0.041938
677.000000	0.042149
676.000000	0.042282
675.000000	0.042444
674.000000	0.042690
673.000000	0.042914
672.000000	0.043086
671.000000	0.043336
670.000000	0.043674
669.000000	0.043851
668.000000	0.043705
667.000000	0.043490
666.000000	0.043487
665.000000	0.043604
664.000000	0.043665
663.000000	0.043702
662.000000	0.043802
661.000000	0.043910
660.000000	0.043964
659.000000	0.044039
658.000000	0.044185
657.000000	0.044296
656.000000	0.044309
655.000000	0.044342
654.000000	0.044480
653.000000	0.044616
652.000000	0.044668
651.000000	0.044737
650.000000	0.044905
649.000000	0.045073
648.000000	0.045164
647.000000	0.045279
646.000000	0.045490
645.000000	0.045697
644.000000	0.045833
643.000000	0.046003
642.000000	0.046260
641.000000	0.046478
640.000000	0.046581
639.000000	0.046691
638.000000	0.046896
637.000000	0.047101
636.000000	0.047237
635.000000	0.047418
634.000000	0.047707
633.000000	0.047967
632.000000	0.048113
631.000000	0.048255
630.000000	0.048468
629.000000	0.048643
628.000000	0.048712
627.000000	0.048798
626.000000	0.048972
625.000000	0.049103
624.000000	0.049117
623.000000	0.049152
622.000000	0.049289
621.000000	0.049387
620.000000	0.049346
619.000000	0.049289
618.000000	0.049313
617.000000	0.049312
616.000000	0.049224
615.000000	0.049185
614.000000	0.049253
613.000000	0.049271
612.000000	0.049168
611.000000	0.049114
610.000000	0.049202
609.000000	0.049256
608.000000	0.049152
607.000000	0.049042
606.000000	0.049046
605.000000	0.049032
604.000000	0.048910
603.000000	0.048842
602.000000	0.048934
601.000000	0.049019
600.000000	0.048980
599.000000	0.048967
598.000000	0.049078
597.000000	0.049142
596.000000	0.049043
595.000000	0.048950
594.000000	0.048993
593.000000	0.049030
592.000000	0.048960
591.000000	0.048957
590.000000	0.049130
589.000000	0.049285
588.000000	0.049271
587.000000	0.049238
586.000000	0.049326
585.000000	0.049409
584.000000	0.049392
583.000000	0.049431
582.000000	0.049615
581.000000	0.049753
580.000000	0.049731
579.000000	0.049736
578.000000	0.049894
577.000000	0.050028
576.000000	0.050024
575.000000	0.050073
574.000000	0.050284
573.000000	0.050438
572.000000	0.050400
571.000000	0.050383
570.000000	0.050544
569.000000	0.050683
568.000000	0.050645
567.000000	0.050627
566.000000	0.050785
565.000000	0.050931
564.000000	0.050929
563.000000	0.050981
562.000000	0.051229
561.000000	0.051448
560.000000	0.051459
559.000000	0.051457
558.000000	0.051621
557.000000	0.051775
556.000000	0.051767
555.000000	0.051782
554.000000	0.051977
553.000000	0.052178
552.000000	0.052243
551.000000	0.052334
550.000000	0.052548
549.000000	0.052674
548.000000	0.052627
547.000000	0.052689
546.000000	0.053012
545.000000	0.053326
544.000000	0.053430
543.000000	0.053527
542.000000	0.053768
541.000000	0.053950
540.000000	0.053964
539.000000	0.054075
538.000000	0.054418
537.000000	0.054711
536.000000	0.054769
535.000000	0.054846
534.000000	0.055124
533.000000	0.055357
532.000000	0.055371
531.000000	0.055414
530.000000	0.055661
529.000000	0.055861
528.000000	0.055831
527.000000	0.055821
526.000000	0.056027
525.000000	0.056210
524.000000	0.056204
523.000000	0.056261
522.000000	0.056498
521.000000	0.056591
520.000000	0.056357
519.000000	0.056150
518.000000	0.056266
517.000000	0.056446
516.000000	0.056428
515.000000	0.056414
514.000000	0.056550
513.000000	0.056574
512.000000	0.056366
511.000000	0.056275
510.000000	0.056501
509.000000	0.056705
508.000000	0.056631
507.000000	0.056558
506.000000	0.056708
505.000000	0.056789
504.000000	0.056584
503.000000	0.056382
502.000000	0.056412
501.000000	0.056398
500.000000	0.056181
499.000000	0.056092
498.000000	0.056286
497.000000	0.056375
496.000000	0.056137
495.000000	0.055947
494.000000	0.056064
493.000000	0.056126
492.000000	0.055866
491.000000	0.055654
490.000000	0.055771
489.000000	0.055863
488.000000	0.055648
487.000000	0.055457
486.000000	0.055541
485.000000	0.055533
484.000000	0.055171
483.000000	0.054858
482.000000	0.054884
481.000000	0.054866
480.000000	0.054554
479.000000	0.054380
478.000000	0.054632
477.000000	0.054853
476.000000	0.054693
475.000000	0.054549
474.000000	0.054735
473.000000	0.054811
472.000000	0.054502
471.000000	0.054409
470.000000	0.054880
469.000000	0.055296
468.000000	0.055197
467.000000	0.055055
466.000000	0.055271
465.000000	0.055364
464.000000	0.054952
463.000000	0.054550
462.000000	0.054609
461.000000	0.054685
460.000000	0.054374
459.000000	0.054132
458.000000	0.054363
457.000000	0.054518
456.000000	0.054228
455.000000	0.054115
454.000000	0.054512
453.000000	0.054765
452.000000	0.054421
451.000000	0.054068
450.000000	0.054162
449.000000	0.054151
448.000000	0.053624
447.000000	0.053185
446.000000	0.053326
445.000000	0.053502
444.000000	0.053271
443.000000	0.053208
442.000000	0.053702
441.000000	0.054014
440.000000	0.053645
439.000000	0.053279
438.000000	0.053483
437.000000	0.053702
436.000000	0.053404
435.000000	0.053161
434.000000	0.053420
433.000000	0.053500
432.000000	0.052911
431.000000	0.052388
430.000000	0.052535
429.000000	0.052677
428.000000	0.052225
427.000000	0.051822
426.000000	0.051996
425.000000	0.051976
424.000000	0.051202
423.000000	0.050665
422.000000	0.051134
421.000000	0.051557
420.000000	0.050798
419.000000	0.049916
418.000000	0.050313
417.000000	0.050669
416.000000	0.050028
415.000000	0.049574
414.000000	0.050061
413.000000	0.050423
412.000000	0.049844
411.000000	0.049461
410.000000	0.050088
409.000000	0.050339
408.000000	0.049194
407.000000	0.048141
406.000000	0.048479
405.000000	0.048788
404.000000	0.047706
403.000000	0.046604
402.000000	0.046891
401.000000	0.047080
400.000000	0.045652
