Created as New Dataset,Sample 209 By YargerLab Date Monday, June 10 2024
cm-1,A
4000.00,0.0031
3999.00,0.0031
3998.00,0.0031
3997.00,0.0031
3996.00,0.0031
3995.00,0.0031
3994.00,0.0031
3993.00,0.0032
3992.00,0.0032
3991.00,0.0031
3990.00,0.0031
3989.00,0.0031
3988.00,0.0031
3987.00,0.0031
3986.00,0.0031
3985.00,0.0031
3984.00,0.0031
3983.00,0.0031
3982.00,0.0031
3981.00,0.0031
3980.00,0.0031
3979.00,0.0031
3978.00,0.0031
3977.00,0.0031
3976.00,0.0031
3975.00,0.0031
3974.00,0.0031
3973.00,0.0031
3972.00,0.0031
3971.00,0.0031
3970.00,0.0031
3969.00,0.0031
3968.00,0.0031
3967.00,0.0031
3966.00,0.0031
3965.00,0.0031
3964.00,0.0031
3963.00,0.0031
3962.00,0.0031
3961.00,0.0031
3960.00,0.0031
3959.00,0.0031
3958.00,0.0031
3957.00,0.0031
3956.00,0.0031
3955.00,0.0031
3954.00,0.0031
3953.00,0.0031
3952.00,0.0031
3951.00,0.0031
3950.00,0.0031
3949.00,0.0031
3948.00,0.0032
3947.00,0.0032
3946.00,0.0032
3945.00,0.0032
3944.00,0.0031
3943.00,0.0031
3942.00,0.0031
3941.00,0.0031
3940.00,0.0031
3939.00,0.0031
3938.00,0.0031
3937.00,0.0031
3936.00,0.0031
3935.00,0.0031
3934.00,0.0032
3933.00,0.0032
3932.00,0.0032
3931.00,0.0032
3930.00,0.0031
3929.00,0.0031
3928.00,0.0031
3927.00,0.0031
3926.00,0.0031
3925.00,0.0031
3924.00,0.0031
3923.00,0.0031
3922.00,0.0031
3921.00,0.0032
3920.00,0.0032
3919.00,0.0032
3918.00,0.0032
3917.00,0.0032
3916.00,0.0031
3915.00,0.0031
3914.00,0.0031
3913.00,0.0031
3912.00,0.0031
3911.00,0.0031
3910.00,0.0031
3909.00,0.0031
3908.00,0.0031
3907.00,0.0031
3906.00,0.0031
3905.00,0.0031
3904.00,0.0032
3903.00,0.0033
3902.00,0.0033
3901.00,0.0033
3900.00,0.0033
3899.00,0.0032
3898.00,0.0032
3897.00,0.0032
3896.00,0.0032
3895.00,0.0031
3894.00,0.0031
3893.00,0.0031
3892.00,0.0030
3891.00,0.0031
3890.00,0.0031
3889.00,0.0031
3888.00,0.0032
3887.00,0.0032
3886.00,0.0032
3885.00,0.0032
3884.00,0.0032
3883.00,0.0032
3882.00,0.0032
3881.00,0.0032
3880.00,0.0031
3879.00,0.0031
3878.00,0.0031
3877.00,0.0031
3876.00,0.0032
3875.00,0.0032
3874.00,0.0032
3873.00,0.0032
3872.00,0.0032
3871.00,0.0032
3870.00,0.0032
3869.00,0.0032
3868.00,0.0032
3867.00,0.0032
3866.00,0.0032
3865.00,0.0032
3864.00,0.0031
3863.00,0.0031
3862.00,0.0032
3861.00,0.0032
3860.00,0.0032
3859.00,0.0032
3858.00,0.0031
3857.00,0.0030
3856.00,0.0030
3855.00,0.0029
3854.00,0.0030
3853.00,0.0030
3852.00,0.0031
3851.00,0.0032
3850.00,0.0032
3849.00,0.0032
3848.00,0.0031
3847.00,0.0031
3846.00,0.0031
3845.00,0.0031
3844.00,0.0031
3843.00,0.0031
3842.00,0.0032
3841.00,0.0032
3840.00,0.0032
3839.00,0.0032
3838.00,0.0032
3837.00,0.0031
3836.00,0.0031
3835.00,0.0031
3834.00,0.0031
3833.00,0.0031
3832.00,0.0031
3831.00,0.0031
3830.00,0.0031
3829.00,0.0031
3828.00,0.0031
3827.00,0.0031
3826.00,0.0031
3825.00,0.0031
3824.00,0.0031
3823.00,0.0031
3822.00,0.0032
3821.00,0.0031
3820.00,0.0031
3819.00,0.0031
3818.00,0.0031
3817.00,0.0031
3816.00,0.0031
3815.00,0.0030
3814.00,0.0030
3813.00,0.0030
3812.00,0.0030
3811.00,0.0030
3810.00,0.0030
3809.00,0.0030
3808.00,0.0030
3807.00,0.0030
3806.00,0.0030
3805.00,0.0030
3804.00,0.0031
3803.00,0.0031
3802.00,0.0031
3801.00,0.0031
3800.00,0.0031
3799.00,0.0031
3798.00,0.0031
3797.00,0.0030
3796.00,0.0030
3795.00,0.0030
3794.00,0.0030
3793.00,0.0029
3792.00,0.0029
3791.00,0.0029
3790.00,0.0029
3789.00,0.0029
3788.00,0.0029
3787.00,0.0029
3786.00,0.0029
3785.00,0.0029
3784.00,0.0029
3783.00,0.0029
3782.00,0.0029
3781.00,0.0030
3780.00,0.0030
3779.00,0.0029
3778.00,0.0029
3777.00,0.0029
3776.00,0.0029
3775.00,0.0028
3774.00,0.0028
3773.00,0.0028
3772.00,0.0029
3771.00,0.0029
3770.00,0.0029
3769.00,0.0029
3768.00,0.0029
3767.00,0.0029
3766.00,0.0030
3765.00,0.0029
3764.00,0.0029
3763.00,0.0029
3762.00,0.0029
3761.00,0.0029
3760.00,0.0029
3759.00,0.0030
3758.00,0.0030
3757.00,0.0030
3756.00,0.0030
3755.00,0.0031
3754.00,0.0031
3753.00,0.0031
3752.00,0.0031
3751.00,0.0031
3750.00,0.0032
3749.00,0.0032
3748.00,0.0032
3747.00,0.0031
3746.00,0.0031
3745.00,0.0032
3744.00,0.0031
3743.00,0.0031
3742.00,0.0031
3741.00,0.0032
3740.00,0.0032
3739.00,0.0033
3738.00,0.0033
3737.00,0.0033
3736.00,0.0033
3735.00,0.0032
3734.00,0.0032
3733.00,0.0032
3732.00,0.0032
3731.00,0.0031
3730.00,0.0031
3729.00,0.0031
3728.00,0.0031
3727.00,0.0031
3726.00,0.0031
3725.00,0.0031
3724.00,0.0031
3723.00,0.0031
3722.00,0.0030
3721.00,0.0030
3720.00,0.0030
3719.00,0.0029
3718.00,0.0029
3717.00,0.0029
3716.00,0.0029
3715.00,0.0030
3714.00,0.0030
3713.00,0.0030
3712.00,0.0030
3711.00,0.0030
3710.00,0.0030
3709.00,0.0030
3708.00,0.0030
3707.00,0.0030
3706.00,0.0030
3705.00,0.0030
3704.00,0.0030
3703.00,0.0030
3702.00,0.0029
3701.00,0.0029
3700.00,0.0029
3699.00,0.0029
3698.00,0.0030
3697.00,0.0030
3696.00,0.0030
3695.00,0.0030
3694.00,0.0031
3693.00,0.0031
3692.00,0.0031
3691.00,0.0032
3690.00,0.0032
3689.00,0.0033
3688.00,0.0033
3687.00,0.0034
3686.00,0.0034
3685.00,0.0035
3684.00,0.0036
3683.00,0.0037
3682.00,0.0038
3681.00,0.0039
3680.00,0.0040
3679.00,0.0041
3678.00,0.0042
3677.00,0.0044
3676.00,0.0045
3675.00,0.0047
3674.00,0.0048
3673.00,0.0049
3672.00,0.0049
3671.00,0.0050
3670.00,0.0050
3669.00,0.0050
3668.00,0.0050
3667.00,0.0051
3666.00,0.0051
3665.00,0.0051
3664.00,0.0052
3663.00,0.0052
3662.00,0.0053
3661.00,0.0053
3660.00,0.0054
3659.00,0.0055
3658.00,0.0055
3657.00,0.0055
3656.00,0.0056
3655.00,0.0056
3654.00,0.0056
3653.00,0.0057
3652.00,0.0057
3651.00,0.0058
3650.00,0.0058
3649.00,0.0058
3648.00,0.0058
3647.00,0.0057
3646.00,0.0057
3645.00,0.0056
3644.00,0.0055
3643.00,0.0054
3642.00,0.0053
3641.00,0.0053
3640.00,0.0053
3639.00,0.0053
3638.00,0.0053
3637.00,0.0053
3636.00,0.0053
3635.00,0.0051
3634.00,0.0050
3633.00,0.0049
3632.00,0.0049
3631.00,0.0049
3630.00,0.0049
3629.00,0.0048
3628.00,0.0048
3627.00,0.0048
3626.00,0.0049
3625.00,0.0049
3624.00,0.0049
3623.00,0.0049
3622.00,0.0049
3621.00,0.0049
3620.00,0.0049
3619.00,0.0049
3618.00,0.0049
3617.00,0.0050
3616.00,0.0050
3615.00,0.0051
3614.00,0.0051
3613.00,0.0051
3612.00,0.0051
3611.00,0.0051
3610.00,0.0051
3609.00,0.0051
3608.00,0.0051
3607.00,0.0051
3606.00,0.0051
3605.00,0.0052
3604.00,0.0052
3603.00,0.0052
3602.00,0.0053
3601.00,0.0053
3600.00,0.0053
3599.00,0.0054
3598.00,0.0054
3597.00,0.0055
3596.00,0.0055
3595.00,0.0055
3594.00,0.0055
3593.00,0.0056
3592.00,0.0057
3591.00,0.0057
3590.00,0.0058
3589.00,0.0058
3588.00,0.0058
3587.00,0.0058
3586.00,0.0058
3585.00,0.0059
3584.00,0.0059
3583.00,0.0059
3582.00,0.0059
3581.00,0.0060
3580.00,0.0060
3579.00,0.0060
3578.00,0.0061
3577.00,0.0061
3576.00,0.0062
3575.00,0.0062
3574.00,0.0063
3573.00,0.0063
3572.00,0.0064
3571.00,0.0065
3570.00,0.0066
3569.00,0.0067
3568.00,0.0067
3567.00,0.0067
3566.00,0.0068
3565.00,0.0068
3564.00,0.0069
3563.00,0.0069
3562.00,0.0069
3561.00,0.0069
3560.00,0.0070
3559.00,0.0070
3558.00,0.0070
3557.00,0.0071
3556.00,0.0071
3555.00,0.0071
3554.00,0.0072
3553.00,0.0072
3552.00,0.0073
3551.00,0.0073
3550.00,0.0074
3549.00,0.0075
3548.00,0.0076
3547.00,0.0076
3546.00,0.0077
3545.00,0.0077
3544.00,0.0077
3543.00,0.0077
3542.00,0.0078
3541.00,0.0078
3540.00,0.0078
3539.00,0.0079
3538.00,0.0079
3537.00,0.0080
3536.00,0.0080
3535.00,0.0080
3534.00,0.0081
3533.00,0.0081
3532.00,0.0082
3531.00,0.0082
3530.00,0.0083
3529.00,0.0083
3528.00,0.0084
3527.00,0.0084
3526.00,0.0085
3525.00,0.0086
3524.00,0.0086
3523.00,0.0086
3522.00,0.0086
3521.00,0.0086
3520.00,0.0086
3519.00,0.0087
3518.00,0.0087
3517.00,0.0088
3516.00,0.0088
3515.00,0.0089
3514.00,0.0089
3513.00,0.0089
3512.00,0.0090
3511.00,0.0090
3510.00,0.0090
3509.00,0.0091
3508.00,0.0091
3507.00,0.0092
3506.00,0.0093
3505.00,0.0093
3504.00,0.0094
3503.00,0.0094
3502.00,0.0094
3501.00,0.0094
3500.00,0.0095
3499.00,0.0095
3498.00,0.0095
3497.00,0.0096
3496.00,0.0096
3495.00,0.0096
3494.00,0.0097
3493.00,0.0097
3492.00,0.0098
3491.00,0.0098
3490.00,0.0098
3489.00,0.0099
3488.00,0.0099
3487.00,0.0099
3486.00,0.0100
3485.00,0.0100
3484.00,0.0101
3483.00,0.0101
3482.00,0.0102
3481.00,0.0102
3480.00,0.0102
3479.00,0.0103
3478.00,0.0103
3477.00,0.0103
3476.00,0.0104
3475.00,0.0104
3474.00,0.0104
3473.00,0.0105
3472.00,0.0105
3471.00,0.0106
3470.00,0.0106
3469.00,0.0107
3468.00,0.0107
3467.00,0.0107
3466.00,0.0107
3465.00,0.0108
3464.00,0.0108
3463.00,0.0108
3462.00,0.0108
3461.00,0.0109
3460.00,0.0109
3459.00,0.0109
3458.00,0.0110
3457.00,0.0110
3456.00,0.0110
3455.00,0.0111
3454.00,0.0111
3453.00,0.0112
3452.00,0.0112
3451.00,0.0113
3450.00,0.0113
3449.00,0.0114
3448.00,0.0114
3447.00,0.0114
3446.00,0.0115
3445.00,0.0115
3444.00,0.0116
3443.00,0.0116
3442.00,0.0116
3441.00,0.0117
3440.00,0.0117
3439.00,0.0118
3438.00,0.0118
3437.00,0.0119
3436.00,0.0119
3435.00,0.0120
3434.00,0.0120
3433.00,0.0121
3432.00,0.0121
3431.00,0.0122
3430.00,0.0122
3429.00,0.0123
3428.00,0.0123
3427.00,0.0123
3426.00,0.0124
3425.00,0.0124
3424.00,0.0125
3423.00,0.0126
3422.00,0.0126
3421.00,0.0127
3420.00,0.0127
3419.00,0.0128
3418.00,0.0128
3417.00,0.0129
3416.00,0.0130
3415.00,0.0131
3414.00,0.0131
3413.00,0.0132
3412.00,0.0132
3411.00,0.0133
3410.00,0.0133
3409.00,0.0134
3408.00,0.0134
3407.00,0.0135
3406.00,0.0136
3405.00,0.0136
3404.00,0.0137
3403.00,0.0138
3402.00,0.0138
3401.00,0.0139
3400.00,0.0139
3399.00,0.0140
3398.00,0.0140
3397.00,0.0141
3396.00,0.0141
3395.00,0.0142
3394.00,0.0143
3393.00,0.0143
3392.00,0.0144
3391.00,0.0144
3390.00,0.0145
3389.00,0.0145
3388.00,0.0146
3387.00,0.0147
3386.00,0.0147
3385.00,0.0148
3384.00,0.0148
3383.00,0.0149
3382.00,0.0150
3381.00,0.0150
3380.00,0.0151
3379.00,0.0152
3378.00,0.0153
3377.00,0.0153
3376.00,0.0154
3375.00,0.0155
3374.00,0.0156
3373.00,0.0157
3372.00,0.0158
3371.00,0.0159
3370.00,0.0160
3369.00,0.0160
3368.00,0.0161
3367.00,0.0162
3366.00,0.0163
3365.00,0.0164
3364.00,0.0165
3363.00,0.0166
3362.00,0.0167
3361.00,0.0168
3360.00,0.0169
3359.00,0.0170
3358.00,0.0171
3357.00,0.0172
3356.00,0.0173
3355.00,0.0174
3354.00,0.0175
3353.00,0.0177
3352.00,0.0178
3351.00,0.0179
3350.00,0.0181
3349.00,0.0182
3348.00,0.0183
3347.00,0.0185
3346.00,0.0186
3345.00,0.0188
3344.00,0.0189
3343.00,0.0191
3342.00,0.0192
3341.00,0.0194
3340.00,0.0195
3339.00,0.0197
3338.00,0.0198
3337.00,0.0200
3336.00,0.0202
3335.00,0.0203
3334.00,0.0205
3333.00,0.0206
3332.00,0.0208
3331.00,0.0210
3330.00,0.0212
3329.00,0.0214
3328.00,0.0216
3327.00,0.0218
3326.00,0.0219
3325.00,0.0221
3324.00,0.0223
3323.00,0.0225
3322.00,0.0227
3321.00,0.0229
3320.00,0.0231
3319.00,0.0233
3318.00,0.0235
3317.00,0.0237
3316.00,0.0239
3315.00,0.0241
3314.00,0.0244
3313.00,0.0246
3312.00,0.0248
3311.00,0.0250
3310.00,0.0252
3309.00,0.0254
3308.00,0.0256
3307.00,0.0258
3306.00,0.0260
3305.00,0.0262
3304.00,0.0264
3303.00,0.0265
3302.00,0.0267
3301.00,0.0269
3300.00,0.0270
3299.00,0.0272
3298.00,0.0274
3297.00,0.0276
3296.00,0.0277
3295.00,0.0279
3294.00,0.0280
3293.00,0.0281
3292.00,0.0282
3291.00,0.0282
3290.00,0.0283
3289.00,0.0283
3288.00,0.0283
3287.00,0.0284
3286.00,0.0284
3285.00,0.0284
3284.00,0.0283
3283.00,0.0283
3282.00,0.0283
3281.00,0.0282
3280.00,0.0281
3279.00,0.0281
3278.00,0.0280
3277.00,0.0279
3276.00,0.0278
3275.00,0.0276
3274.00,0.0275
3273.00,0.0273
3272.00,0.0271
3271.00,0.0270
3270.00,0.0268
3269.00,0.0266
3268.00,0.0263
3267.00,0.0261
3266.00,0.0259
3265.00,0.0257
3264.00,0.0255
3263.00,0.0253
3262.00,0.0250
3261.00,0.0248
3260.00,0.0246
3259.00,0.0244
3258.00,0.0242
3257.00,0.0240
3256.00,0.0238
3255.00,0.0236
3254.00,0.0234
3253.00,0.0232
3252.00,0.0231
3251.00,0.0229
3250.00,0.0227
3249.00,0.0226
3248.00,0.0224
3247.00,0.0223
3246.00,0.0221
3245.00,0.0219
3244.00,0.0217
3243.00,0.0216
3242.00,0.0214
3241.00,0.0212
3240.00,0.0211
3239.00,0.0210
3238.00,0.0208
3237.00,0.0207
3236.00,0.0206
3235.00,0.0205
3234.00,0.0204
3233.00,0.0203
3232.00,0.0201
3231.00,0.0200
3230.00,0.0198
3229.00,0.0197
3228.00,0.0196
3227.00,0.0195
3226.00,0.0194
3225.00,0.0193
3224.00,0.0192
3223.00,0.0191
3222.00,0.0190
3221.00,0.0189
3220.00,0.0188
3219.00,0.0187
3218.00,0.0186
3217.00,0.0185
3216.00,0.0184
3215.00,0.0183
3214.00,0.0181
3213.00,0.0180
3212.00,0.0179
3211.00,0.0178
3210.00,0.0177
3209.00,0.0176
3208.00,0.0175
3207.00,0.0174
3206.00,0.0173
3205.00,0.0172
3204.00,0.0171
3203.00,0.0170
3202.00,0.0169
3201.00,0.0168
3200.00,0.0167
3199.00,0.0166
3198.00,0.0165
3197.00,0.0164
3196.00,0.0163
3195.00,0.0161
3194.00,0.0160
3193.00,0.0159
3192.00,0.0158
3191.00,0.0157
3190.00,0.0156
3189.00,0.0155
3188.00,0.0154
3187.00,0.0153
3186.00,0.0152
3185.00,0.0151
3184.00,0.0150
3183.00,0.0149
3182.00,0.0148
3181.00,0.0147
3180.00,0.0146
3179.00,0.0144
3178.00,0.0143
3177.00,0.0142
3176.00,0.0141
3175.00,0.0140
3174.00,0.0139
3173.00,0.0138
3172.00,0.0137
3171.00,0.0135
3170.00,0.0134
3169.00,0.0133
3168.00,0.0132
3167.00,0.0131
3166.00,0.0130
3165.00,0.0129
3164.00,0.0128
3163.00,0.0127
3162.00,0.0126
3161.00,0.0126
3160.00,0.0125
3159.00,0.0124
3158.00,0.0123
3157.00,0.0122
3156.00,0.0122
3155.00,0.0121
3154.00,0.0120
3153.00,0.0119
3152.00,0.0119
3151.00,0.0118
3150.00,0.0117
3149.00,0.0116
3148.00,0.0115
3147.00,0.0115
3146.00,0.0114
3145.00,0.0113
3144.00,0.0113
3143.00,0.0112
3142.00,0.0112
3141.00,0.0111
3140.00,0.0111
3139.00,0.0111
3138.00,0.0110
3137.00,0.0110
3136.00,0.0109
3135.00,0.0108
3134.00,0.0108
3133.00,0.0108
3132.00,0.0107
3131.00,0.0107
3130.00,0.0107
3129.00,0.0107
3128.00,0.0106
3127.00,0.0106
3126.00,0.0106
3125.00,0.0106
3124.00,0.0105
3123.00,0.0105
3122.00,0.0105
3121.00,0.0105
3120.00,0.0105
3119.00,0.0105
3118.00,0.0105
3117.00,0.0105
3116.00,0.0105
3115.00,0.0105
3114.00,0.0105
3113.00,0.0105
3112.00,0.0105
3111.00,0.0105
3110.00,0.0106
3109.00,0.0106
3108.00,0.0106
3107.00,0.0106
3106.00,0.0106
3105.00,0.0106
3104.00,0.0107
3103.00,0.0107
3102.00,0.0107
3101.00,0.0108
3100.00,0.0108
3099.00,0.0108
3098.00,0.0108
3097.00,0.0108
3096.00,0.0108
3095.00,0.0109
3094.00,0.0109
3093.00,0.0109
3092.00,0.0110
3091.00,0.0110
3090.00,0.0110
3089.00,0.0111
3088.00,0.0111
3087.00,0.0111
3086.00,0.0112
3085.00,0.0112
3084.00,0.0112
3083.00,0.0113
3082.00,0.0113
3081.00,0.0113
3080.00,0.0113
3079.00,0.0113
3078.00,0.0113
3077.00,0.0113
3076.00,0.0113
3075.00,0.0113
3074.00,0.0113
3073.00,0.0113
3072.00,0.0113
3071.00,0.0113
3070.00,0.0113
3069.00,0.0113
3068.00,0.0113
3067.00,0.0113
3066.00,0.0113
3065.00,0.0112
3064.00,0.0112
3063.00,0.0112
3062.00,0.0111
3061.00,0.0111
3060.00,0.0110
3059.00,0.0110
3058.00,0.0109
3057.00,0.0109
3056.00,0.0108
3055.00,0.0108
3054.00,0.0107
3053.00,0.0107
3052.00,0.0106
3051.00,0.0106
3050.00,0.0105
3049.00,0.0104
3048.00,0.0104
3047.00,0.0103
3046.00,0.0103
3045.00,0.0102
3044.00,0.0101
3043.00,0.0101
3042.00,0.0100
3041.00,0.0099
3040.00,0.0099
3039.00,0.0098
3038.00,0.0098
3037.00,0.0097
3036.00,0.0097
3035.00,0.0096
3034.00,0.0096
3033.00,0.0095
3032.00,0.0095
3031.00,0.0094
3030.00,0.0094
3029.00,0.0093
3028.00,0.0093
3027.00,0.0092
3026.00,0.0092
3025.00,0.0092
3024.00,0.0092
3023.00,0.0092
3022.00,0.0092
3021.00,0.0092
3020.00,0.0093
3019.00,0.0094
3018.00,0.0095
3017.00,0.0096
3016.00,0.0098
3015.00,0.0099
3014.00,0.0101
3013.00,0.0104
3012.00,0.0107
3011.00,0.0110
3010.00,0.0114
3009.00,0.0119
3008.00,0.0124
3007.00,0.0129
3006.00,0.0134
3005.00,0.0140
3004.00,0.0146
3003.00,0.0152
3002.00,0.0159
3001.00,0.0165
3000.00,0.0171
2999.00,0.0176
2998.00,0.0181
2997.00,0.0186
2996.00,0.0190
2995.00,0.0194
2994.00,0.0198
2993.00,0.0202
2992.00,0.0206
2991.00,0.0210
2990.00,0.0213
2989.00,0.0217
2988.00,0.0221
2987.00,0.0228
2986.00,0.0237
2985.00,0.0252
2984.00,0.0271
2983.00,0.0290
2982.00,0.0303
2981.00,0.0309
2980.00,0.0306
2979.00,0.0298
2978.00,0.0289
2977.00,0.0281
2976.00,0.0275
2975.00,0.0273
2974.00,0.0274
2973.00,0.0277
2972.00,0.0279
2971.00,0.0278
2970.00,0.0274
2969.00,0.0267
2968.00,0.0261
2967.00,0.0255
2966.00,0.0250
2965.00,0.0246
2964.00,0.0243
2963.00,0.0239
2962.00,0.0236
2961.00,0.0234
2960.00,0.0231
2959.00,0.0228
2958.00,0.0226
2957.00,0.0223
2956.00,0.0221
2955.00,0.0218
2954.00,0.0216
2953.00,0.0213
2952.00,0.0210
2951.00,0.0208
2950.00,0.0205
2949.00,0.0203
2948.00,0.0202
2947.00,0.0200
2946.00,0.0198
2945.00,0.0197
2944.00,0.0196
2943.00,0.0196
2942.00,0.0196
2941.00,0.0197
2940.00,0.0199
2939.00,0.0201
2938.00,0.0203
2937.00,0.0205
2936.00,0.0207
2935.00,0.0210
2934.00,0.0213
2933.00,0.0216
2932.00,0.0219
2931.00,0.0222
2930.00,0.0224
2929.00,0.0226
2928.00,0.0227
2927.00,0.0228
2926.00,0.0230
2925.00,0.0231
2924.00,0.0232
2923.00,0.0233
2922.00,0.0234
2921.00,0.0234
2920.00,0.0235
2919.00,0.0235
2918.00,0.0234
2917.00,0.0232
2916.00,0.0229
2915.00,0.0225
2914.00,0.0220
2913.00,0.0215
2912.00,0.0211
2911.00,0.0206
2910.00,0.0203
2909.00,0.0200
2908.00,0.0197
2907.00,0.0194
2906.00,0.0192
2905.00,0.0190
2904.00,0.0189
2903.00,0.0187
2902.00,0.0185
2901.00,0.0184
2900.00,0.0182
2899.00,0.0181
2898.00,0.0180
2897.00,0.0179
2896.00,0.0178
2895.00,0.0177
2894.00,0.0177
2893.00,0.0177
2892.00,0.0177
2891.00,0.0177
2890.00,0.0177
2889.00,0.0176
2888.00,0.0174
2887.00,0.0173
2886.00,0.0172
2885.00,0.0171
2884.00,0.0170
2883.00,0.0168
2882.00,0.0165
2881.00,0.0161
2880.00,0.0157
2879.00,0.0154
2878.00,0.0152
2877.00,0.0150
2876.00,0.0148
2875.00,0.0147
2874.00,0.0146
2873.00,0.0145
2872.00,0.0144
2871.00,0.0143
2870.00,0.0142
2869.00,0.0140
2868.00,0.0139
2867.00,0.0137
2866.00,0.0136
2865.00,0.0135
2864.00,0.0133
2863.00,0.0132
2862.00,0.0132
2861.00,0.0132
2860.00,0.0132
2859.00,0.0133
2858.00,0.0134
2857.00,0.0135
2856.00,0.0137
2855.00,0.0139
2854.00,0.0141
2853.00,0.0143
2852.00,0.0145
2851.00,0.0145
2850.00,0.0144
2849.00,0.0141
2848.00,0.0137
2847.00,0.0131
2846.00,0.0125
2845.00,0.0119
2844.00,0.0113
2843.00,0.0108
2842.00,0.0103
2841.00,0.0099
2840.00,0.0096
2839.00,0.0093
2838.00,0.0091
2837.00,0.0088
2836.00,0.0086
2835.00,0.0084
2834.00,0.0083
2833.00,0.0081
2832.00,0.0080
2831.00,0.0079
2830.00,0.0078
2829.00,0.0077
2828.00,0.0076
2827.00,0.0075
2826.00,0.0074
2825.00,0.0074
2824.00,0.0073
2823.00,0.0072
2822.00,0.0071
2821.00,0.0071
2820.00,0.0070
2819.00,0.0069
2818.00,0.0069
2817.00,0.0068
2816.00,0.0068
2815.00,0.0068
2814.00,0.0067
2813.00,0.0067
2812.00,0.0066
2811.00,0.0066
2810.00,0.0065
2809.00,0.0065
2808.00,0.0064
2807.00,0.0064
2806.00,0.0063
2805.00,0.0063
2804.00,0.0063
2803.00,0.0062
2802.00,0.0062
2801.00,0.0062
2800.00,0.0061
2799.00,0.0061
2798.00,0.0061
2797.00,0.0061
2796.00,0.0060
2795.00,0.0060
2794.00,0.0060
2793.00,0.0059
2792.00,0.0059
2791.00,0.0059
2790.00,0.0058
2789.00,0.0058
2788.00,0.0058
2787.00,0.0058
2786.00,0.0057
2785.00,0.0057
2784.00,0.0057
2783.00,0.0056
2782.00,0.0056
2781.00,0.0056
2780.00,0.0055
2779.00,0.0055
2778.00,0.0055
2777.00,0.0054
2776.00,0.0054
2775.00,0.0054
2774.00,0.0054
2773.00,0.0054
2772.00,0.0054
2771.00,0.0053
2770.00,0.0053
2769.00,0.0053
2768.00,0.0053
2767.00,0.0052
2766.00,0.0052
2765.00,0.0052
2764.00,0.0052
2763.00,0.0051
2762.00,0.0051
2761.00,0.0051
2760.00,0.0051
2759.00,0.0050
2758.00,0.0050
2757.00,0.0050
2756.00,0.0050
2755.00,0.0050
2754.00,0.0050
2753.00,0.0050
2752.00,0.0049
2751.00,0.0049
2750.00,0.0049
2749.00,0.0049
2748.00,0.0049
2747.00,0.0048
2746.00,0.0048
2745.00,0.0048
2744.00,0.0048
2743.00,0.0048
2742.00,0.0047
2741.00,0.0047
2740.00,0.0047
2739.00,0.0047
2738.00,0.0047
2737.00,0.0047
2736.00,0.0047
2735.00,0.0046
2734.00,0.0046
2733.00,0.0046
2732.00,0.0046
2731.00,0.0046
2730.00,0.0045
2729.00,0.0045
2728.00,0.0045
2727.00,0.0045
2726.00,0.0045
2725.00,0.0044
2724.00,0.0044
2723.00,0.0044
2722.00,0.0044
2721.00,0.0044
2720.00,0.0044
2719.00,0.0043
2718.00,0.0043
2717.00,0.0043
2716.00,0.0043
2715.00,0.0043
2714.00,0.0042
2713.00,0.0042
2712.00,0.0042
2711.00,0.0042
2710.00,0.0042
2709.00,0.0042
2708.00,0.0041
2707.00,0.0041
2706.00,0.0041
2705.00,0.0041
2704.00,0.0041
2703.00,0.0041
2702.00,0.0041
2701.00,0.0041
2700.00,0.0040
2699.00,0.0040
2698.00,0.0040
2697.00,0.0040
2696.00,0.0040
2695.00,0.0040
2694.00,0.0040
2693.00,0.0040
2692.00,0.0040
2691.00,0.0040
2690.00,0.0040
2689.00,0.0040
2688.00,0.0040
2687.00,0.0040
2686.00,0.0040
2685.00,0.0040
2684.00,0.0040
2683.00,0.0040
2682.00,0.0040
2681.00,0.0040
2680.00,0.0040
2679.00,0.0040
2678.00,0.0040
2677.00,0.0040
2676.00,0.0039
2675.00,0.0039
2674.00,0.0039
2673.00,0.0039
2672.00,0.0039
2671.00,0.0040
2670.00,0.0040
2669.00,0.0040
2668.00,0.0040
2667.00,0.0040
2666.00,0.0040
2665.00,0.0040
2664.00,0.0040
2663.00,0.0040
2662.00,0.0039
2661.00,0.0039
2660.00,0.0039
2659.00,0.0039
2658.00,0.0039
2657.00,0.0039
2656.00,0.0039
2655.00,0.0039
2654.00,0.0039
2653.00,0.0039
2652.00,0.0039
2651.00,0.0038
2650.00,0.0038
2649.00,0.0038
2648.00,0.0039
2647.00,0.0039
2646.00,0.0039
2645.00,0.0038
2644.00,0.0038
2643.00,0.0038
2642.00,0.0038
2641.00,0.0038
2640.00,0.0038
2639.00,0.0038
2638.00,0.0038
2637.00,0.0038
2636.00,0.0038
2635.00,0.0037
2634.00,0.0037
2633.00,0.0037
2632.00,0.0037
2631.00,0.0037
2630.00,0.0037
2629.00,0.0037
2628.00,0.0037
2627.00,0.0037
2626.00,0.0037
2625.00,0.0037
2624.00,0.0037
2623.00,0.0037
2622.00,0.0036
2621.00,0.0036
2620.00,0.0036
2619.00,0.0036
2618.00,0.0036
2617.00,0.0036
2616.00,0.0036
2615.00,0.0036
2614.00,0.0036
2613.00,0.0036
2612.00,0.0036
2611.00,0.0036
2610.00,0.0036
2609.00,0.0036
2608.00,0.0036
2607.00,0.0036
2606.00,0.0035
2605.00,0.0035
2604.00,0.0035
2603.00,0.0035
2602.00,0.0035
2601.00,0.0034
2600.00,0.0034
2599.00,0.0034
2598.00,0.0034
2597.00,0.0034
2596.00,0.0034
2595.00,0.0034
2594.00,0.0034
2593.00,0.0034
2592.00,0.0034
2591.00,0.0034
2590.00,0.0033
2589.00,0.0033
2588.00,0.0033
2587.00,0.0033
2586.00,0.0032
2585.00,0.0032
2584.00,0.0032
2583.00,0.0032
2582.00,0.0032
2581.00,0.0032
2580.00,0.0032
2579.00,0.0032
2578.00,0.0032
2577.00,0.0032
2576.00,0.0032
2575.00,0.0032
2574.00,0.0032
2573.00,0.0032
2572.00,0.0032
2571.00,0.0032
2570.00,0.0031
2569.00,0.0031
2568.00,0.0031
2567.00,0.0031
2566.00,0.0031
2565.00,0.0031
2564.00,0.0031
2563.00,0.0031
2562.00,0.0031
2561.00,0.0031
2560.00,0.0030
2559.00,0.0030
2558.00,0.0030
2557.00,0.0030
2556.00,0.0030
2555.00,0.0030
2554.00,0.0030
2553.00,0.0030
2552.00,0.0030
2551.00,0.0030
2550.00,0.0029
2549.00,0.0029
2548.00,0.0029
2547.00,0.0029
2546.00,0.0029
2545.00,0.0029
2544.00,0.0029
2543.00,0.0029
2542.00,0.0029
2541.00,0.0029
2540.00,0.0029
2539.00,0.0030
2538.00,0.0030
2537.00,0.0030
2536.00,0.0030
2535.00,0.0029
2534.00,0.0029
2533.00,0.0029
2532.00,0.0029
2531.00,0.0029
2530.00,0.0029
2529.00,0.0029
2528.00,0.0029
2527.00,0.0029
2526.00,0.0029
2525.00,0.0029
2524.00,0.0029
2523.00,0.0028
2522.00,0.0028
2521.00,0.0028
2520.00,0.0028
2519.00,0.0028
2518.00,0.0028
2517.00,0.0028
2516.00,0.0028
2515.00,0.0028
2514.00,0.0028
2513.00,0.0028
2512.00,0.0028
2511.00,0.0028
2510.00,0.0028
2509.00,0.0028
2508.00,0.0028
2507.00,0.0028
2506.00,0.0028
2505.00,0.0028
2504.00,0.0028
2503.00,0.0028
2502.00,0.0028
2501.00,0.0028
2500.00,0.0028
2499.00,0.0028
2498.00,0.0028
2497.00,0.0028
2496.00,0.0028
2495.00,0.0028
2494.00,0.0028
2493.00,0.0028
2492.00,0.0028
2491.00,0.0028
2490.00,0.0028
2489.00,0.0028
2488.00,0.0027
2487.00,0.0027
2486.00,0.0027
2485.00,0.0027
2484.00,0.0027
2483.00,0.0027
2482.00,0.0027
2481.00,0.0027
2480.00,0.0027
2479.00,0.0027
2478.00,0.0027
2477.00,0.0026
2476.00,0.0026
2475.00,0.0026
2474.00,0.0026
2473.00,0.0026
2472.00,0.0026
2471.00,0.0026
2470.00,0.0026
2469.00,0.0026
2468.00,0.0026
2467.00,0.0026
2466.00,0.0026
2465.00,0.0026
2464.00,0.0026
2463.00,0.0026
2462.00,0.0026
2461.00,0.0026
2460.00,0.0026
2459.00,0.0026
2458.00,0.0026
2457.00,0.0026
2456.00,0.0026
2455.00,0.0026
2454.00,0.0026
2453.00,0.0025
2452.00,0.0025
2451.00,0.0025
2450.00,0.0025
2449.00,0.0025
2448.00,0.0025
2447.00,0.0025
2446.00,0.0025
2445.00,0.0025
2444.00,0.0025
2443.00,0.0025
2442.00,0.0025
2441.00,0.0024
2440.00,0.0024
2439.00,0.0024
2438.00,0.0024
2437.00,0.0024
2436.00,0.0024
2435.00,0.0024
2434.00,0.0024
2433.00,0.0024
2432.00,0.0024
2431.00,0.0024
2430.00,0.0024
2429.00,0.0024
2428.00,0.0023
2427.00,0.0023
2426.00,0.0023
2425.00,0.0024
2424.00,0.0024
2423.00,0.0024
2422.00,0.0023
2421.00,0.0023
2420.00,0.0023
2419.00,0.0023
2418.00,0.0023
2417.00,0.0023
2416.00,0.0023
2415.00,0.0023
2414.00,0.0023
2413.00,0.0023
2412.00,0.0023
2411.00,0.0023
2410.00,0.0023
2409.00,0.0022
2408.00,0.0022
2407.00,0.0022
2406.00,0.0022
2405.00,0.0022
2404.00,0.0022
2403.00,0.0022
2402.00,0.0022
2401.00,0.0022
2400.00,0.0022
2399.00,0.0022
2398.00,0.0022
2397.00,0.0021
2396.00,0.0022
2395.00,0.0022
2394.00,0.0022
2393.00,0.0022
2392.00,0.0021
2391.00,0.0021
2390.00,0.0021
2389.00,0.0021
2388.00,0.0021
2387.00,0.0021
2386.00,0.0021
2385.00,0.0021
2384.00,0.0021
2383.00,0.0021
2382.00,0.0021
2381.00,0.0021
2380.00,0.0021
2379.00,0.0021
2378.00,0.0021
2377.00,0.0021
2376.00,0.0021
2375.00,0.0021
2374.00,0.0021
2373.00,0.0021
2372.00,0.0021
2371.00,0.0021
2370.00,0.0020
2369.00,0.0020
2368.00,0.0021
2367.00,0.0021
2366.00,0.0021
2365.00,0.0021
2364.00,0.0021
2363.00,0.0021
2362.00,0.0021
2361.00,0.0021
2360.00,0.0020
2359.00,0.0020
2358.00,0.0020
2357.00,0.0020
2356.00,0.0020
2355.00,0.0020
2354.00,0.0020
2353.00,0.0020
2352.00,0.0020
2351.00,0.0020
2350.00,0.0020
2349.00,0.0020
2348.00,0.0020
2347.00,0.0020
2346.00,0.0021
2345.00,0.0021
2344.00,0.0021
2343.00,0.0021
2342.00,0.0021
2341.00,0.0021
2340.00,0.0021
2339.00,0.0021
2338.00,0.0021
2337.00,0.0020
2336.00,0.0020
2335.00,0.0020
2334.00,0.0020
2333.00,0.0020
2332.00,0.0020
2331.00,0.0020
2330.00,0.0020
2329.00,0.0020
2328.00,0.0021
2327.00,0.0021
2326.00,0.0021
2325.00,0.0021
2324.00,0.0021
2323.00,0.0021
2322.00,0.0021
2321.00,0.0021
2320.00,0.0021
2319.00,0.0021
2318.00,0.0020
2317.00,0.0020
2316.00,0.0020
2315.00,0.0020
2314.00,0.0020
2313.00,0.0021
2312.00,0.0021
2311.00,0.0021
2310.00,0.0021
2309.00,0.0021
2308.00,0.0020
2307.00,0.0020
2306.00,0.0020
2305.00,0.0020
2304.00,0.0020
2303.00,0.0020
2302.00,0.0020
2301.00,0.0020
2300.00,0.0020
2299.00,0.0020
2298.00,0.0020
2297.00,0.0020
2296.00,0.0020
2295.00,0.0020
2294.00,0.0020
2293.00,0.0020
2292.00,0.0020
2291.00,0.0020
2290.00,0.0020
2289.00,0.0020
2288.00,0.0020
2287.00,0.0020
2286.00,0.0020
2285.00,0.0020
2284.00,0.0020
2283.00,0.0019
2282.00,0.0019
2281.00,0.0019
2280.00,0.0020
2279.00,0.0020
2278.00,0.0020
2277.00,0.0020
2276.00,0.0019
2275.00,0.0019
2274.00,0.0019
2273.00,0.0019
2272.00,0.0019
2271.00,0.0019
2270.00,0.0019
2269.00,0.0019
2268.00,0.0019
2267.00,0.0019
2266.00,0.0019
2265.00,0.0019
2264.00,0.0019
2263.00,0.0019
2262.00,0.0019
2261.00,0.0019
2260.00,0.0019
2259.00,0.0019
2258.00,0.0018
2257.00,0.0018
2256.00,0.0018
2255.00,0.0018
2254.00,0.0018
2253.00,0.0018
2252.00,0.0018
2251.00,0.0018
2250.00,0.0018
2249.00,0.0018
2248.00,0.0018
2247.00,0.0018
2246.00,0.0018
2245.00,0.0018
2244.00,0.0018
2243.00,0.0018
2242.00,0.0018
2241.00,0.0018
2240.00,0.0018
2239.00,0.0019
2238.00,0.0019
2237.00,0.0018
2236.00,0.0018
2235.00,0.0018
2234.00,0.0018
2233.00,0.0018
2232.00,0.0018
2231.00,0.0018
2230.00,0.0018
2229.00,0.0018
2228.00,0.0017
2227.00,0.0017
2226.00,0.0017
2225.00,0.0017
2224.00,0.0017
2223.00,0.0017
2222.00,0.0017
2221.00,0.0017
2220.00,0.0017
2219.00,0.0017
2218.00,0.0017
2217.00,0.0017
2216.00,0.0017
2215.00,0.0017
2214.00,0.0017
2213.00,0.0017
2212.00,0.0017
2211.00,0.0018
2210.00,0.0018
2209.00,0.0018
2208.00,0.0019
2207.00,0.0019
2206.00,0.0019
2205.00,0.0019
2204.00,0.0019
2203.00,0.0019
2202.00,0.0019
2201.00,0.0019
2200.00,0.0019
2199.00,0.0019
2198.00,0.0019
2197.00,0.0020
2196.00,0.0019
2195.00,0.0019
2194.00,0.0018
2193.00,0.0017
2192.00,0.0017
2191.00,0.0017
2190.00,0.0018
2189.00,0.0018
2188.00,0.0018
2187.00,0.0018
2186.00,0.0018
2185.00,0.0018
2184.00,0.0017
2183.00,0.0017
2182.00,0.0017
2181.00,0.0017
2180.00,0.0017
2179.00,0.0017
2178.00,0.0017
2177.00,0.0017
2176.00,0.0017
2175.00,0.0018
2174.00,0.0017
2173.00,0.0017
2172.00,0.0017
2171.00,0.0017
2170.00,0.0017
2169.00,0.0017
2168.00,0.0016
2167.00,0.0016
2166.00,0.0016
2165.00,0.0017
2164.00,0.0018
2163.00,0.0018
2162.00,0.0017
2161.00,0.0017
2160.00,0.0016
2159.00,0.0015
2158.00,0.0015
2157.00,0.0014
2156.00,0.0014
2155.00,0.0014
2154.00,0.0015
2153.00,0.0015
2152.00,0.0016
2151.00,0.0015
2150.00,0.0015
2149.00,0.0014
2148.00,0.0014
2147.00,0.0014
2146.00,0.0015
2145.00,0.0015
2144.00,0.0016
2143.00,0.0016
2142.00,0.0015
2141.00,0.0015
2140.00,0.0014
2139.00,0.0014
2138.00,0.0014
2137.00,0.0014
2136.00,0.0014
2135.00,0.0015
2134.00,0.0015
2133.00,0.0015
2132.00,0.0016
2131.00,0.0016
2130.00,0.0016
2129.00,0.0016
2128.00,0.0016
2127.00,0.0016
2126.00,0.0016
2125.00,0.0016
2124.00,0.0016
2123.00,0.0016
2122.00,0.0016
2121.00,0.0016
2120.00,0.0016
2119.00,0.0016
2118.00,0.0016
2117.00,0.0016
2116.00,0.0016
2115.00,0.0016
2114.00,0.0016
2113.00,0.0016
2112.00,0.0016
2111.00,0.0017
2110.00,0.0017
2109.00,0.0017
2108.00,0.0017
2107.00,0.0017
2106.00,0.0016
2105.00,0.0016
2104.00,0.0016
2103.00,0.0016
2102.00,0.0016
2101.00,0.0016
2100.00,0.0016
2099.00,0.0017
2098.00,0.0017
2097.00,0.0016
2096.00,0.0016
2095.00,0.0016
2094.00,0.0016
2093.00,0.0016
2092.00,0.0016
2091.00,0.0016
2090.00,0.0016
2089.00,0.0016
2088.00,0.0016
2087.00,0.0016
2086.00,0.0016
2085.00,0.0016
2084.00,0.0016
2083.00,0.0016
2082.00,0.0016
2081.00,0.0016
2080.00,0.0016
2079.00,0.0016
2078.00,0.0016
2077.00,0.0016
2076.00,0.0016
2075.00,0.0017
2074.00,0.0017
2073.00,0.0017
2072.00,0.0016
2071.00,0.0016
2070.00,0.0015
2069.00,0.0015
2068.00,0.0015
2067.00,0.0015
2066.00,0.0015
2065.00,0.0015
2064.00,0.0015
2063.00,0.0015
2062.00,0.0014
2061.00,0.0014
2060.00,0.0014
2059.00,0.0015
2058.00,0.0015
2057.00,0.0015
2056.00,0.0014
2055.00,0.0014
2054.00,0.0014
2053.00,0.0014
2052.00,0.0014
2051.00,0.0014
2050.00,0.0015
2049.00,0.0015
2048.00,0.0015
2047.00,0.0015
2046.00,0.0014
2045.00,0.0014
2044.00,0.0013
2043.00,0.0014
2042.00,0.0014
2041.00,0.0014
2040.00,0.0015
2039.00,0.0014
2038.00,0.0014
2037.00,0.0014
2036.00,0.0014
2035.00,0.0014
2034.00,0.0014
2033.00,0.0014
2032.00,0.0014
2031.00,0.0013
2030.00,0.0013
2029.00,0.0013
2028.00,0.0013
2027.00,0.0013
2026.00,0.0013
2025.00,0.0013
2024.00,0.0013
2023.00,0.0013
2022.00,0.0014
2021.00,0.0014
2020.00,0.0014
2019.00,0.0013
2018.00,0.0012
2017.00,0.0011
2016.00,0.0012
2015.00,0.0012
2014.00,0.0013
2013.00,0.0012
2012.00,0.0011
2011.00,0.0011
2010.00,0.0011
2009.00,0.0011
2008.00,0.0011
2007.00,0.0011
2006.00,0.0010
2005.00,0.0010
2004.00,0.0010
2003.00,0.0011
2002.00,0.0011
2001.00,0.0011
2000.00,0.0012
1999.00,0.0012
1998.00,0.0012
1997.00,0.0012
1996.00,0.0012
1995.00,0.0012
1994.00,0.0012
1993.00,0.0012
1992.00,0.0012
1991.00,0.0013
1990.00,0.0013
1989.00,0.0013
1988.00,0.0013
1987.00,0.0013
1986.00,0.0013
1985.00,0.0013
1984.00,0.0014
1983.00,0.0015
1982.00,0.0015
1981.00,0.0014
1980.00,0.0012
1979.00,0.0011
1978.00,0.0010
1977.00,0.0010
1976.00,0.0011
1975.00,0.0011
1974.00,0.0011
1973.00,0.0011
1972.00,0.0010
1971.00,0.0010
1970.00,0.0009
1969.00,0.0009
1968.00,0.0009
1967.00,0.0010
1966.00,0.0011
1965.00,0.0012
1964.00,0.0011
1963.00,0.0011
1962.00,0.0010
1961.00,0.0009
1960.00,0.0009
1959.00,0.0010
1958.00,0.0010
1957.00,0.0009
1956.00,0.0009
1955.00,0.0009
1954.00,0.0009
1953.00,0.0009
1952.00,0.0010
1951.00,0.0010
1950.00,0.0010
1949.00,0.0010
1948.00,0.0010
1947.00,0.0010
1946.00,0.0009
1945.00,0.0008
1944.00,0.0007
1943.00,0.0007
1942.00,0.0008
1941.00,0.0009
1940.00,0.0009
1939.00,0.0009
1938.00,0.0008
1937.00,0.0008
1936.00,0.0008
1935.00,0.0009
1934.00,0.0009
1933.00,0.0009
1932.00,0.0009
1931.00,0.0010
1930.00,0.0010
1929.00,0.0010
1928.00,0.0010
1927.00,0.0009
1926.00,0.0009
1925.00,0.0007
1924.00,0.0006
1923.00,0.0006
1922.00,0.0007
1921.00,0.0007
1920.00,0.0008
1919.00,0.0008
1918.00,0.0008
1917.00,0.0009
1916.00,0.0010
1915.00,0.0010
1914.00,0.0009
1913.00,0.0009
1912.00,0.0008
1911.00,0.0008
1910.00,0.0008
1909.00,0.0008
1908.00,0.0008
1907.00,0.0009
1906.00,0.0009
1905.00,0.0009
1904.00,0.0009
1903.00,0.0009
1902.00,0.0009
1901.00,0.0009
1900.00,0.0009
1899.00,0.0009
1898.00,0.0009
1897.00,0.0008
1896.00,0.0008
1895.00,0.0008
1894.00,0.0008
1893.00,0.0008
1892.00,0.0008
1891.00,0.0007
1890.00,0.0007
1889.00,0.0008
1888.00,0.0009
1887.00,0.0009
1886.00,0.0009
1885.00,0.0009
1884.00,0.0009
1883.00,0.0009
1882.00,0.0009
1881.00,0.0009
1880.00,0.0009
1879.00,0.0009
1878.00,0.0009
1877.00,0.0009
1876.00,0.0009
1875.00,0.0009
1874.00,0.0008
1873.00,0.0008
1872.00,0.0007
1871.00,0.0005
1870.00,0.0004
1869.00,0.0005
1868.00,0.0006
1867.00,0.0007
1866.00,0.0008
1865.00,0.0008
1864.00,0.0008
1863.00,0.0008
1862.00,0.0008
1861.00,0.0008
1860.00,0.0008
1859.00,0.0008
1858.00,0.0008
1857.00,0.0008
1856.00,0.0008
1855.00,0.0008
1854.00,0.0008
1853.00,0.0008
1852.00,0.0008
1851.00,0.0007
1850.00,0.0007
1849.00,0.0006
1848.00,0.0006
1847.00,0.0005
1846.00,0.0006
1845.00,0.0007
1844.00,0.0009
1843.00,0.0010
1842.00,0.0010
1841.00,0.0009
1840.00,0.0008
1839.00,0.0007
1838.00,0.0007
1837.00,0.0007
1836.00,0.0007
1835.00,0.0007
1834.00,0.0007
1833.00,0.0006
1832.00,0.0005
1831.00,0.0004
1830.00,0.0004
1829.00,0.0006
1828.00,0.0006
1827.00,0.0006
1826.00,0.0005
1825.00,0.0005
1824.00,0.0006
1823.00,0.0007
1822.00,0.0007
1821.00,0.0007
1820.00,0.0007
1819.00,0.0007
1818.00,0.0006
1817.00,0.0006
1816.00,0.0007
1815.00,0.0007
1814.00,0.0006
1813.00,0.0006
1812.00,0.0005
1811.00,0.0005
1810.00,0.0006
1809.00,0.0006
1808.00,0.0007
1807.00,0.0007
1806.00,0.0007
1805.00,0.0006
1804.00,0.0005
1803.00,0.0004
1802.00,0.0003
1801.00,0.0004
1800.00,0.0005
1799.00,0.0006
1798.00,0.0007
1797.00,0.0006
1796.00,0.0006
1795.00,0.0006
1794.00,0.0006
1793.00,0.0007
1792.00,0.0008
1791.00,0.0009
1790.00,0.0010
1789.00,0.0010
1788.00,0.0009
1787.00,0.0009
1786.00,0.0008
1785.00,0.0008
1784.00,0.0009
1783.00,0.0008
1782.00,0.0008
1781.00,0.0007
1780.00,0.0008
1779.00,0.0009
1778.00,0.0009
1777.00,0.0009
1776.00,0.0009
1775.00,0.0010
1774.00,0.0011
1773.00,0.0013
1772.00,0.0014
1771.00,0.0014
1770.00,0.0013
1769.00,0.0013
1768.00,0.0013
1767.00,0.0014
1766.00,0.0014
1765.00,0.0013
1764.00,0.0012
1763.00,0.0012
1762.00,0.0013
1761.00,0.0014
1760.00,0.0015
1759.00,0.0015
1758.00,0.0014
1757.00,0.0015
1756.00,0.0018
1755.00,0.0019
1754.00,0.0021
1753.00,0.0022
1752.00,0.0023
1751.00,0.0024
1750.00,0.0024
1749.00,0.0025
1748.00,0.0027
1747.00,0.0029
1746.00,0.0032
1745.00,0.0034
1744.00,0.0037
1743.00,0.0040
1742.00,0.0044
1741.00,0.0048
1740.00,0.0052
1739.00,0.0055
1738.00,0.0057
1737.00,0.0060
1736.00,0.0064
1735.00,0.0068
1734.00,0.0070
1733.00,0.0070
1732.00,0.0067
1731.00,0.0062
1730.00,0.0059
1729.00,0.0059
1728.00,0.0059
1727.00,0.0060
1726.00,0.0059
1725.00,0.0058
1724.00,0.0057
1723.00,0.0057
1722.00,0.0057
1721.00,0.0058
1720.00,0.0060
1719.00,0.0063
1718.00,0.0066
1717.00,0.0069
1716.00,0.0070
1715.00,0.0071
1714.00,0.0072
1713.00,0.0074
1712.00,0.0078
1711.00,0.0082
1710.00,0.0086
1709.00,0.0091
1708.00,0.0097
1707.00,0.0104
1706.00,0.0112
1705.00,0.0123
1704.00,0.0135
1703.00,0.0149
1702.00,0.0164
1701.00,0.0179
1700.00,0.0192
1699.00,0.0203
1698.00,0.0209
1697.00,0.0214
1696.00,0.0218
1695.00,0.0221
1694.00,0.0222
1693.00,0.0221
1692.00,0.0222
1691.00,0.0225
1690.00,0.0228
1689.00,0.0233
1688.00,0.0241
1687.00,0.0252
1686.00,0.0262
1685.00,0.0267
1684.00,0.0270
1683.00,0.0274
1682.00,0.0277
1681.00,0.0282
1680.00,0.0289
1679.00,0.0298
1678.00,0.0308
1677.00,0.0317
1676.00,0.0325
1675.00,0.0332
1674.00,0.0339
1673.00,0.0347
1672.00,0.0355
1671.00,0.0362
1670.00,0.0369
1669.00,0.0377
1668.00,0.0386
1667.00,0.0396
1666.00,0.0406
1665.00,0.0416
1664.00,0.0425
1663.00,0.0433
1662.00,0.0442
1661.00,0.0451
1660.00,0.0461
1659.00,0.0471
1658.00,0.0481
1657.00,0.0493
1656.00,0.0509
1655.00,0.0525
1654.00,0.0532
1653.00,0.0531
1652.00,0.0532
1651.00,0.0533
1650.00,0.0536
1649.00,0.0540
1648.00,0.0544
1647.00,0.0545
1646.00,0.0545
1645.00,0.0548
1644.00,0.0551
1643.00,0.0555
1642.00,0.0558
1641.00,0.0561
1640.00,0.0565
1639.00,0.0571
1638.00,0.0577
1637.00,0.0579
1636.00,0.0576
1635.00,0.0572
1634.00,0.0570
1633.00,0.0572
1632.00,0.0575
1631.00,0.0579
1630.00,0.0580
1629.00,0.0579
1628.00,0.0577
1627.00,0.0575
1626.00,0.0575
1625.00,0.0572
1624.00,0.0565
1623.00,0.0555
1622.00,0.0544
1621.00,0.0538
1620.00,0.0534
1619.00,0.0531
1618.00,0.0523
1617.00,0.0506
1616.00,0.0485
1615.00,0.0466
1614.00,0.0451
1613.00,0.0438
1612.00,0.0425
1611.00,0.0411
1610.00,0.0395
1609.00,0.0379
1608.00,0.0364
1607.00,0.0349
1606.00,0.0336
1605.00,0.0324
1604.00,0.0312
1603.00,0.0300
1602.00,0.0290
1601.00,0.0281
1600.00,0.0273
1599.00,0.0266
1598.00,0.0259
1597.00,0.0253
1596.00,0.0247
1595.00,0.0241
1594.00,0.0235
1593.00,0.0230
1592.00,0.0225
1591.00,0.0221
1590.00,0.0217
1589.00,0.0213
1588.00,0.0210
1587.00,0.0208
1586.00,0.0206
1585.00,0.0205
1584.00,0.0204
1583.00,0.0203
1582.00,0.0203
1581.00,0.0204
1580.00,0.0206
1579.00,0.0209
1578.00,0.0215
1577.00,0.0222
1576.00,0.0226
1575.00,0.0227
1574.00,0.0228
1573.00,0.0229
1572.00,0.0232
1571.00,0.0236
1570.00,0.0241
1569.00,0.0247
1568.00,0.0254
1567.00,0.0260
1566.00,0.0266
1565.00,0.0272
1564.00,0.0280
1563.00,0.0290
1562.00,0.0303
1561.00,0.0315
1560.00,0.0323
1559.00,0.0327
1558.00,0.0334
1557.00,0.0342
1556.00,0.0347
1555.00,0.0353
1554.00,0.0360
1553.00,0.0368
1552.00,0.0374
1551.00,0.0379
1550.00,0.0385
1549.00,0.0393
1548.00,0.0402
1547.00,0.0410
1546.00,0.0416
1545.00,0.0421
1544.00,0.0427
1543.00,0.0436
1542.00,0.0445
1541.00,0.0452
1540.00,0.0456
1539.00,0.0459
1538.00,0.0461
1537.00,0.0464
1536.00,0.0467
1535.00,0.0471
1534.00,0.0472
1533.00,0.0474
1532.00,0.0478
1531.00,0.0484
1530.00,0.0490
1529.00,0.0495
1528.00,0.0498
1527.00,0.0501
1526.00,0.0506
1525.00,0.0512
1524.00,0.0519
1523.00,0.0526
1522.00,0.0530
1521.00,0.0533
1520.00,0.0536
1519.00,0.0541
1518.00,0.0545
1517.00,0.0548
1516.00,0.0551
1515.00,0.0555
1514.00,0.0559
1513.00,0.0559
1512.00,0.0556
1511.00,0.0552
1510.00,0.0551
1509.00,0.0550
1508.00,0.0544
1507.00,0.0531
1506.00,0.0520
1505.00,0.0512
1504.00,0.0505
1503.00,0.0498
1502.00,0.0491
1501.00,0.0484
1500.00,0.0475
1499.00,0.0466
1498.00,0.0456
1497.00,0.0445
1496.00,0.0432
1495.00,0.0420
1494.00,0.0410
1493.00,0.0400
1492.00,0.0389
1491.00,0.0375
1490.00,0.0361
1489.00,0.0348
1488.00,0.0339
1487.00,0.0332
1486.00,0.0325
1485.00,0.0319
1484.00,0.0312
1483.00,0.0305
1482.00,0.0298
1481.00,0.0292
1480.00,0.0287
1479.00,0.0283
1478.00,0.0280
1477.00,0.0278
1476.00,0.0278
1475.00,0.0281
1474.00,0.0285
1473.00,0.0287
1472.00,0.0287
1471.00,0.0285
1470.00,0.0284
1469.00,0.0283
1468.00,0.0283
1467.00,0.0284
1466.00,0.0287
1465.00,0.0290
1464.00,0.0294
1463.00,0.0297
1462.00,0.0298
1461.00,0.0299
1460.00,0.0300
1459.00,0.0302
1458.00,0.0305
1457.00,0.0308
1456.00,0.0312
1455.00,0.0314
1454.00,0.0315
1453.00,0.0316
1452.00,0.0319
1451.00,0.0321
1450.00,0.0323
1449.00,0.0323
1448.00,0.0322
1447.00,0.0320
1446.00,0.0319
1445.00,0.0318
1444.00,0.0316
1443.00,0.0312
1442.00,0.0309
1441.00,0.0305
1440.00,0.0301
1439.00,0.0298
1438.00,0.0293
1437.00,0.0285
1436.00,0.0277
1435.00,0.0271
1434.00,0.0265
1433.00,0.0260
1432.00,0.0255
1431.00,0.0249
1430.00,0.0245
1429.00,0.0242
1428.00,0.0239
1427.00,0.0237
1426.00,0.0236
1425.00,0.0234
1424.00,0.0233
1423.00,0.0234
1422.00,0.0237
1421.00,0.0240
1420.00,0.0241
1419.00,0.0240
1418.00,0.0241
1417.00,0.0243
1416.00,0.0246
1415.00,0.0249
1414.00,0.0253
1413.00,0.0255
1412.00,0.0257
1411.00,0.0259
1410.00,0.0261
1409.00,0.0263
1408.00,0.0264
1407.00,0.0265
1406.00,0.0265
1405.00,0.0265
1404.00,0.0267
1403.00,0.0269
1402.00,0.0271
1401.00,0.0272
1400.00,0.0273
1399.00,0.0274
1398.00,0.0276
1397.00,0.0278
1396.00,0.0281
1395.00,0.0284
1394.00,0.0287
1393.00,0.0290
1392.00,0.0292
1391.00,0.0293
1390.00,0.0293
1389.00,0.0294
1388.00,0.0295
1387.00,0.0296
1386.00,0.0297
1385.00,0.0299
1384.00,0.0300
1383.00,0.0301
1382.00,0.0301
1381.00,0.0300
1380.00,0.0298
1379.00,0.0295
1378.00,0.0293
1377.00,0.0290
1376.00,0.0286
1375.00,0.0282
1374.00,0.0278
1373.00,0.0276
1372.00,0.0274
1371.00,0.0271
1370.00,0.0267
1369.00,0.0262
1368.00,0.0257
1367.00,0.0253
1366.00,0.0248
1365.00,0.0241
1364.00,0.0234
1363.00,0.0227
1362.00,0.0222
1361.00,0.0219
1360.00,0.0217
1359.00,0.0215
1358.00,0.0212
1357.00,0.0210
1356.00,0.0207
1355.00,0.0205
1354.00,0.0203
1353.00,0.0202
1352.00,0.0201
1351.00,0.0200
1350.00,0.0200
1349.00,0.0200
1348.00,0.0200
1347.00,0.0201
1346.00,0.0202
1345.00,0.0203
1344.00,0.0203
1343.00,0.0204
1342.00,0.0203
1341.00,0.0202
1340.00,0.0201
1339.00,0.0201
1338.00,0.0201
1337.00,0.0203
1336.00,0.0203
1335.00,0.0203
1334.00,0.0202
1333.00,0.0201
1332.00,0.0199
1331.00,0.0197
1330.00,0.0195
1329.00,0.0193
1328.00,0.0191
1327.00,0.0190
1326.00,0.0188
1325.00,0.0187
1324.00,0.0185
1323.00,0.0184
1322.00,0.0183
1321.00,0.0183
1320.00,0.0182
1319.00,0.0181
1318.00,0.0182
1317.00,0.0182
1316.00,0.0183
1315.00,0.0183
1314.00,0.0183
1313.00,0.0184
1312.00,0.0185
1311.00,0.0186
1310.00,0.0187
1309.00,0.0188
1308.00,0.0188
1307.00,0.0189
1306.00,0.0190
1305.00,0.0190
1304.00,0.0191
1303.00,0.0191
1302.00,0.0192
1301.00,0.0193
1300.00,0.0193
1299.00,0.0194
1298.00,0.0194
1297.00,0.0195
1296.00,0.0196
1295.00,0.0197
1294.00,0.0198
1293.00,0.0199
1292.00,0.0201
1291.00,0.0202
1290.00,0.0203
1289.00,0.0205
1288.00,0.0207
1287.00,0.0209
1286.00,0.0211
1285.00,0.0213
1284.00,0.0216
1283.00,0.0218
1282.00,0.0220
1281.00,0.0223
1280.00,0.0226
1279.00,0.0230
1278.00,0.0234
1277.00,0.0238
1276.00,0.0242
1275.00,0.0247
1274.00,0.0252
1273.00,0.0258
1272.00,0.0263
1271.00,0.0269
1270.00,0.0275
1269.00,0.0281
1268.00,0.0287
1267.00,0.0293
1266.00,0.0299
1265.00,0.0304
1264.00,0.0308
1263.00,0.0312
1262.00,0.0315
1261.00,0.0318
1260.00,0.0320
1259.00,0.0322
1258.00,0.0325
1257.00,0.0327
1256.00,0.0330
1255.00,0.0334
1254.00,0.0337
1253.00,0.0341
1252.00,0.0344
1251.00,0.0347
1250.00,0.0350
1249.00,0.0352
1248.00,0.0354
1247.00,0.0356
1246.00,0.0359
1245.00,0.0362
1244.00,0.0365
1243.00,0.0368
1242.00,0.0372
1241.00,0.0375
1240.00,0.0378
1239.00,0.0381
1238.00,0.0383
1237.00,0.0384
1236.00,0.0385
1235.00,0.0385
1234.00,0.0384
1233.00,0.0383
1232.00,0.0382
1231.00,0.0379
1230.00,0.0376
1229.00,0.0372
1228.00,0.0368
1227.00,0.0363
1226.00,0.0358
1225.00,0.0352
1224.00,0.0346
1223.00,0.0340
1222.00,0.0333
1221.00,0.0327
1220.00,0.0320
1219.00,0.0314
1218.00,0.0307
1217.00,0.0300
1216.00,0.0293
1215.00,0.0286
1214.00,0.0280
1213.00,0.0273
1212.00,0.0266
1211.00,0.0259
1210.00,0.0253
1209.00,0.0246
1208.00,0.0240
1207.00,0.0234
1206.00,0.0228
1205.00,0.0222
1204.00,0.0216
1203.00,0.0211
1202.00,0.0206
1201.00,0.0201
1200.00,0.0196
1199.00,0.0192
1198.00,0.0189
1197.00,0.0186
1196.00,0.0184
1195.00,0.0182
1194.00,0.0180
1193.00,0.0179
1192.00,0.0179
1191.00,0.0178
1190.00,0.0178
1189.00,0.0179
1188.00,0.0180
1187.00,0.0181
1186.00,0.0183
1185.00,0.0185
1184.00,0.0188
1183.00,0.0191
1182.00,0.0195
1181.00,0.0199
1180.00,0.0203
1179.00,0.0208
1178.00,0.0213
1177.00,0.0219
1176.00,0.0224
1175.00,0.0230
1174.00,0.0235
1173.00,0.0241
1172.00,0.0245
1171.00,0.0250
1170.00,0.0253
1169.00,0.0256
1168.00,0.0258
1167.00,0.0260
1166.00,0.0262
1165.00,0.0263
1164.00,0.0264
1163.00,0.0265
1162.00,0.0265
1161.00,0.0264
1160.00,0.0264
1159.00,0.0263
1158.00,0.0262
1157.00,0.0261
1156.00,0.0260
1155.00,0.0258
1154.00,0.0257
1153.00,0.0254
1152.00,0.0252
1151.00,0.0249
1150.00,0.0246
1149.00,0.0243
1148.00,0.0240
1147.00,0.0236
1146.00,0.0233
1145.00,0.0230
1144.00,0.0226
1143.00,0.0223
1142.00,0.0221
1141.00,0.0219
1140.00,0.0216
1139.00,0.0215
1138.00,0.0213
1137.00,0.0212
1136.00,0.0210
1135.00,0.0209
1134.00,0.0208
1133.00,0.0208
1132.00,0.0208
1131.00,0.0208
1130.00,0.0209
1129.00,0.0209
1128.00,0.0209
1127.00,0.0208
1126.00,0.0208
1125.00,0.0208
1124.00,0.0207
1123.00,0.0206
1122.00,0.0206
1121.00,0.0205
1120.00,0.0204
1119.00,0.0203
1118.00,0.0202
1117.00,0.0201
1116.00,0.0200
1115.00,0.0199
1114.00,0.0198
1113.00,0.0198
1112.00,0.0198
1111.00,0.0198
1110.00,0.0199
1109.00,0.0200
1108.00,0.0201
1107.00,0.0202
1106.00,0.0204
1105.00,0.0205
1104.00,0.0206
1103.00,0.0207
1102.00,0.0208
1101.00,0.0209
1100.00,0.0209
1099.00,0.0210
1098.00,0.0211
1097.00,0.0212
1096.00,0.0213
1095.00,0.0214
1094.00,0.0216
1093.00,0.0218
1092.00,0.0220
1091.00,0.0222
1090.00,0.0225
1089.00,0.0227
1088.00,0.0228
1087.00,0.0229
1086.00,0.0231
1085.00,0.0233
1084.00,0.0235
1083.00,0.0237
1082.00,0.0240
1081.00,0.0242
1080.00,0.0243
1079.00,0.0244
1078.00,0.0245
1077.00,0.0246
1076.00,0.0247
1075.00,0.0248
1074.00,0.0249
1073.00,0.0249
1072.00,0.0249
1071.00,0.0248
1070.00,0.0247
1069.00,0.0246
1068.00,0.0244
1067.00,0.0241
1066.00,0.0240
1065.00,0.0238
1064.00,0.0236
1063.00,0.0235
1062.00,0.0234
1061.00,0.0233
1060.00,0.0231
1059.00,0.0229
1058.00,0.0227
1057.00,0.0224
1056.00,0.0221
1055.00,0.0218
1054.00,0.0215
1053.00,0.0212
1052.00,0.0209
1051.00,0.0205
1050.00,0.0203
1049.00,0.0200
1048.00,0.0196
1047.00,0.0193
1046.00,0.0191
1045.00,0.0188
1044.00,0.0185
1043.00,0.0182
1042.00,0.0180
1041.00,0.0177
1040.00,0.0175
1039.00,0.0173
1038.00,0.0172
1037.00,0.0170
1036.00,0.0169
1035.00,0.0168
1034.00,0.0167
1033.00,0.0166
1032.00,0.0166
1031.00,0.0165
1030.00,0.0165
1029.00,0.0165
1028.00,0.0165
1027.00,0.0165
1026.00,0.0167
1025.00,0.0168
1024.00,0.0170
1023.00,0.0172
1022.00,0.0174
1021.00,0.0177
1020.00,0.0179
1019.00,0.0182
1018.00,0.0184
1017.00,0.0185
1016.00,0.0185
1015.00,0.0183
1014.00,0.0182
1013.00,0.0179
1012.00,0.0176
1011.00,0.0173
1010.00,0.0170
1009.00,0.0167
1008.00,0.0164
1007.00,0.0162
1006.00,0.0160
1005.00,0.0158
1004.00,0.0157
1003.00,0.0156
1002.00,0.0155
1001.00,0.0154
1000.00,0.0153
999.00,0.0152
998.00,0.0150
997.00,0.0149
996.00,0.0146
995.00,0.0143
994.00,0.0140
993.00,0.0138
992.00,0.0135
991.00,0.0132
990.00,0.0130
989.00,0.0128
988.00,0.0127
987.00,0.0126
986.00,0.0126
985.00,0.0126
984.00,0.0127
983.00,0.0129
982.00,0.0132
981.00,0.0134
980.00,0.0137
979.00,0.0140
978.00,0.0144
977.00,0.0148
976.00,0.0152
975.00,0.0155
974.00,0.0159
973.00,0.0163
972.00,0.0166
971.00,0.0168
970.00,0.0170
969.00,0.0172
968.00,0.0172
967.00,0.0172
966.00,0.0171
965.00,0.0170
964.00,0.0168
963.00,0.0166
962.00,0.0165
961.00,0.0165
960.00,0.0165
959.00,0.0167
958.00,0.0169
957.00,0.0170
956.00,0.0170
955.00,0.0169
954.00,0.0169
953.00,0.0168
952.00,0.0166
951.00,0.0164
950.00,0.0162
949.00,0.0160
948.00,0.0157
947.00,0.0155
946.00,0.0154
945.00,0.0153
944.00,0.0152
943.00,0.0150
942.00,0.0148
941.00,0.0147
940.00,0.0144
939.00,0.0141
938.00,0.0139
937.00,0.0136
936.00,0.0133
935.00,0.0129
934.00,0.0126
933.00,0.0123
932.00,0.0119
931.00,0.0116
930.00,0.0114
929.00,0.0111
928.00,0.0107
927.00,0.0104
926.00,0.0102
925.00,0.0099
924.00,0.0096
923.00,0.0094
922.00,0.0092
921.00,0.0090
920.00,0.0087
919.00,0.0085
918.00,0.0084
917.00,0.0082
916.00,0.0080
915.00,0.0079
914.00,0.0078
913.00,0.0077
912.00,0.0076
911.00,0.0076
910.00,0.0075
909.00,0.0075
908.00,0.0074
907.00,0.0073
906.00,0.0073
905.00,0.0072
904.00,0.0071
903.00,0.0071
902.00,0.0071
901.00,0.0070
900.00,0.0070
899.00,0.0070
898.00,0.0070
897.00,0.0070
896.00,0.0070
895.00,0.0070
894.00,0.0070
893.00,0.0069
892.00,0.0069
891.00,0.0069
890.00,0.0069
889.00,0.0069
888.00,0.0068
887.00,0.0068
886.00,0.0068
885.00,0.0069
884.00,0.0068
883.00,0.0069
882.00,0.0069
881.00,0.0070
880.00,0.0070
879.00,0.0071
878.00,0.0072
877.00,0.0073
876.00,0.0073
875.00,0.0073
874.00,0.0074
873.00,0.0075
872.00,0.0074
871.00,0.0074
870.00,0.0074
869.00,0.0074
868.00,0.0073
867.00,0.0073
866.00,0.0074
865.00,0.0074
864.00,0.0075
863.00,0.0075
862.00,0.0077
861.00,0.0078
860.00,0.0079
859.00,0.0080
858.00,0.0082
857.00,0.0083
856.00,0.0084
855.00,0.0086
854.00,0.0087
853.00,0.0088
852.00,0.0089
851.00,0.0089
850.00,0.0090
849.00,0.0090
848.00,0.0090
847.00,0.0090
846.00,0.0090
845.00,0.0090
844.00,0.0090
843.00,0.0091
842.00,0.0092
841.00,0.0093
840.00,0.0093
839.00,0.0094
838.00,0.0096
837.00,0.0098
836.00,0.0099
835.00,0.0101
834.00,0.0103
833.00,0.0105
832.00,0.0106
831.00,0.0107
830.00,0.0108
829.00,0.0109
828.00,0.0110
827.00,0.0110
826.00,0.0110
825.00,0.0111
824.00,0.0111
823.00,0.0111
822.00,0.0112
821.00,0.0113
820.00,0.0113
819.00,0.0113
818.00,0.0114
817.00,0.0115
816.00,0.0115
815.00,0.0115
814.00,0.0116
813.00,0.0116
812.00,0.0117
811.00,0.0117
810.00,0.0118
809.00,0.0119
808.00,0.0120
807.00,0.0120
806.00,0.0121
805.00,0.0122
804.00,0.0123
803.00,0.0123
802.00,0.0123
801.00,0.0124
800.00,0.0123
799.00,0.0123
798.00,0.0123
797.00,0.0124
796.00,0.0124
795.00,0.0124
794.00,0.0125
793.00,0.0126
792.00,0.0126
791.00,0.0126
790.00,0.0127
789.00,0.0127
788.00,0.0127
787.00,0.0127
786.00,0.0128
785.00,0.0129
784.00,0.0130
783.00,0.0130
782.00,0.0131
781.00,0.0132
780.00,0.0133
779.00,0.0133
778.00,0.0135
777.00,0.0136
776.00,0.0137
775.00,0.0138
774.00,0.0139
773.00,0.0140
772.00,0.0141
771.00,0.0142
770.00,0.0144
769.00,0.0145
768.00,0.0146
767.00,0.0147
766.00,0.0149
765.00,0.0150
764.00,0.0151
763.00,0.0152
762.00,0.0153
761.00,0.0154
760.00,0.0155
759.00,0.0157
758.00,0.0158
757.00,0.0160
756.00,0.0161
755.00,0.0163
754.00,0.0165
753.00,0.0166
752.00,0.0167
751.00,0.0169
750.00,0.0171
749.00,0.0172
748.00,0.0174
747.00,0.0176
746.00,0.0178
745.00,0.0180
744.00,0.0181
743.00,0.0183
742.00,0.0185
741.00,0.0188
740.00,0.0190
739.00,0.0193
738.00,0.0196
737.00,0.0200
736.00,0.0203
735.00,0.0206
734.00,0.0211
733.00,0.0216
732.00,0.0220
731.00,0.0225
730.00,0.0230
729.00,0.0235
728.00,0.0239
727.00,0.0242
726.00,0.0246
725.00,0.0250
724.00,0.0252
723.00,0.0256
722.00,0.0259
721.00,0.0263
720.00,0.0264
719.00,0.0265
718.00,0.0266
717.00,0.0266
716.00,0.0265
715.00,0.0264
714.00,0.0265
713.00,0.0266
712.00,0.0266
711.00,0.0267
710.00,0.0269
709.00,0.0271
708.00,0.0272
707.00,0.0274
706.00,0.0276
705.00,0.0278
704.00,0.0280
703.00,0.0282
702.00,0.0284
701.00,0.0286
700.00,0.0286
699.00,0.0287
698.00,0.0288
697.00,0.0289
696.00,0.0288
695.00,0.0288
694.00,0.0289
693.00,0.0290
692.00,0.0290
691.00,0.0291
690.00,0.0292
689.00,0.0293
688.00,0.0293
687.00,0.0293
686.00,0.0294
685.00,0.0296
684.00,0.0297
683.00,0.0297
682.00,0.0299
681.00,0.0299
680.00,0.0300
679.00,0.0300
678.00,0.0301
677.00,0.0302
676.00,0.0303
675.00,0.0303
674.00,0.0303
673.00,0.0304
672.00,0.0305
671.00,0.0306
670.00,0.0308
669.00,0.0309
668.00,0.0308
667.00,0.0306
666.00,0.0307
665.00,0.0309
664.00,0.0309
663.00,0.0310
662.00,0.0311
661.00,0.0312
660.00,0.0312
659.00,0.0312
658.00,0.0314
657.00,0.0315
656.00,0.0315
655.00,0.0316
654.00,0.0317
653.00,0.0318
652.00,0.0318
651.00,0.0319
650.00,0.0320
649.00,0.0320
648.00,0.0320
647.00,0.0321
646.00,0.0322
645.00,0.0322
644.00,0.0323
643.00,0.0323
642.00,0.0324
641.00,0.0325
640.00,0.0325
639.00,0.0325
638.00,0.0326
637.00,0.0326
636.00,0.0326
635.00,0.0325
634.00,0.0326
633.00,0.0328
632.00,0.0328
631.00,0.0328
630.00,0.0329
629.00,0.0329
628.00,0.0328
627.00,0.0328
626.00,0.0328
625.00,0.0328
624.00,0.0328
623.00,0.0328
622.00,0.0329
621.00,0.0330
620.00,0.0330
619.00,0.0330
618.00,0.0332
617.00,0.0333
616.00,0.0333
615.00,0.0333
614.00,0.0334
613.00,0.0335
612.00,0.0335
611.00,0.0335
610.00,0.0335
609.00,0.0336
608.00,0.0334
607.00,0.0333
606.00,0.0332
605.00,0.0331
604.00,0.0329
603.00,0.0328
602.00,0.0327
601.00,0.0327
600.00,0.0325
599.00,0.0324
598.00,0.0324
597.00,0.0323
596.00,0.0322
595.00,0.0321
594.00,0.0321
593.00,0.0322
592.00,0.0321
591.00,0.0321
590.00,0.0322
589.00,0.0323
588.00,0.0322
587.00,0.0321
586.00,0.0322
585.00,0.0322
584.00,0.0322
583.00,0.0321
582.00,0.0323
581.00,0.0324
580.00,0.0324
579.00,0.0325
578.00,0.0327
577.00,0.0328
576.00,0.0328
575.00,0.0329
574.00,0.0331
573.00,0.0333
572.00,0.0333
571.00,0.0332
570.00,0.0334
569.00,0.0336
568.00,0.0338
567.00,0.0339
566.00,0.0343
565.00,0.0346
564.00,0.0347
563.00,0.0349
562.00,0.0352
561.00,0.0355
560.00,0.0357
559.00,0.0359
558.00,0.0362
557.00,0.0366
556.00,0.0367
555.00,0.0369
554.00,0.0371
553.00,0.0373
552.00,0.0372
551.00,0.0371
550.00,0.0372
549.00,0.0371
548.00,0.0370
547.00,0.0368
546.00,0.0369
545.00,0.0369
544.00,0.0368
543.00,0.0367
542.00,0.0368
541.00,0.0368
540.00,0.0366
539.00,0.0365
538.00,0.0364
537.00,0.0363
536.00,0.0361
535.00,0.0359
534.00,0.0360
533.00,0.0361
532.00,0.0359
531.00,0.0357
530.00,0.0358
529.00,0.0358
528.00,0.0356
527.00,0.0354
526.00,0.0354
525.00,0.0354
524.00,0.0353
523.00,0.0352
522.00,0.0353
521.00,0.0353
520.00,0.0350
519.00,0.0348
518.00,0.0349
517.00,0.0350
516.00,0.0349
515.00,0.0348
514.00,0.0349
513.00,0.0349
512.00,0.0346
511.00,0.0344
510.00,0.0345
509.00,0.0346
508.00,0.0344
507.00,0.0343
506.00,0.0344
505.00,0.0345
504.00,0.0343
503.00,0.0341
502.00,0.0341
501.00,0.0342
500.00,0.0340
499.00,0.0339
498.00,0.0341
497.00,0.0342
496.00,0.0341
495.00,0.0339
494.00,0.0341
493.00,0.0342
492.00,0.0341
491.00,0.0341
490.00,0.0342
489.00,0.0342
488.00,0.0339
487.00,0.0336
486.00,0.0336
485.00,0.0337
484.00,0.0335
483.00,0.0334
482.00,0.0336
481.00,0.0337
480.00,0.0334
479.00,0.0333
478.00,0.0335
477.00,0.0336
476.00,0.0332
475.00,0.0328
474.00,0.0328
473.00,0.0327
472.00,0.0324
471.00,0.0323
470.00,0.0325
469.00,0.0326
468.00,0.0323
467.00,0.0320
466.00,0.0321
465.00,0.0322
464.00,0.0319
463.00,0.0318
462.00,0.0319
461.00,0.0320
460.00,0.0317
459.00,0.0313
458.00,0.0314
457.00,0.0314
456.00,0.0310
455.00,0.0307
454.00,0.0309
453.00,0.0311
452.00,0.0309
451.00,0.0306
450.00,0.0307
449.00,0.0307
448.00,0.0301
447.00,0.0296
446.00,0.0296
445.00,0.0296
444.00,0.0292
443.00,0.0289
442.00,0.0292
441.00,0.0293
440.00,0.0289
439.00,0.0286
438.00,0.0288
437.00,0.0290
436.00,0.0287
435.00,0.0283
434.00,0.0286
433.00,0.0289
432.00,0.0287
431.00,0.0286
430.00,0.0291
429.00,0.0296
428.00,0.0294
427.00,0.0292
426.00,0.0294
425.00,0.0294
424.00,0.0287
423.00,0.0282
422.00,0.0286
421.00,0.0289
420.00,0.0280
419.00,0.0270
418.00,0.0272
417.00,0.0276
416.00,0.0273
415.00,0.0273
414.00,0.0280
413.00,0.0283
412.00,0.0274
411.00,0.0265
410.00,0.0264
409.00,0.0262
408.00,0.0251
407.00,0.0245
406.00,0.0252
405.00,0.0259
404.00,0.0253
403.00,0.0248
402.00,0.0259
401.00,0.0270
400.00,0.0266
