PE IR       SUBTECH     SPECTRUM    ASCII       PEDS        4.00        
   -1
2024_06_05_DegummedBMori_1.ASC
24/06/05
11:35:15.00
24/06/05
11:35:32.00
Yarger Lab
Sample 126 By YargerLab Date Wednesday, June 05 2024
400.000000
#HDR
-1
-1
#GR
cm-1
A
1.0
0.0
4000.000000
-1.000000
3601
8
0.028508
-0.000030
#DATA
4000.000000	0.003498
3999.000000	0.003495
3998.000000	0.003484
3997.000000	0.003474
3996.000000	0.003467
3995.000000	0.003465
3994.000000	0.003466
3993.000000	0.003470
3992.000000	0.003474
3991.000000	0.003479
3990.000000	0.003485
3989.000000	0.003490
3988.000000	0.003493
3987.000000	0.003489
3986.000000	0.003481
3985.000000	0.003472
3984.000000	0.003466
3983.000000	0.003460
3982.000000	0.003455
3981.000000	0.003454
3980.000000	0.003460
3979.000000	0.003473
3978.000000	0.003484
3977.000000	0.003485
3976.000000	0.003474
3975.000000	0.003456
3974.000000	0.003442
3973.000000	0.003435
3972.000000	0.003433
3971.000000	0.003432
3970.000000	0.003428
3969.000000	0.003427
3968.000000	0.003432
3967.000000	0.003444
3966.000000	0.003461
3965.000000	0.003475
3964.000000	0.003481
3963.000000	0.003479
3962.000000	0.003472
3961.000000	0.003462
3960.000000	0.003456
3959.000000	0.003454
3958.000000	0.003450
3957.000000	0.003444
3956.000000	0.003437
3955.000000	0.003431
3954.000000	0.003426
3953.000000	0.003426
3952.000000	0.003436
3951.000000	0.003459
3950.000000	0.003497
3949.000000	0.003544
3948.000000	0.003584
3947.000000	0.003599
3946.000000	0.003585
3945.000000	0.003547
3944.000000	0.003492
3943.000000	0.003443
3942.000000	0.003421
3941.000000	0.003431
3940.000000	0.003459
3939.000000	0.003482
3938.000000	0.003490
3937.000000	0.003496
3936.000000	0.003520
3935.000000	0.003565
3934.000000	0.003605
3933.000000	0.003612
3932.000000	0.003584
3931.000000	0.003546
3930.000000	0.003522
3929.000000	0.003510
3928.000000	0.003495
3927.000000	0.003466
3926.000000	0.003428
3925.000000	0.003402
3924.000000	0.003419
3923.000000	0.003486
3922.000000	0.003577
3921.000000	0.003651
3920.000000	0.003688
3919.000000	0.003699
3918.000000	0.003688
3917.000000	0.003651
3916.000000	0.003589
3915.000000	0.003530
3914.000000	0.003492
3913.000000	0.003466
3912.000000	0.003444
3911.000000	0.003426
3910.000000	0.003421
3909.000000	0.003430
3908.000000	0.003444
3907.000000	0.003471
3906.000000	0.003533
3905.000000	0.003651
3904.000000	0.003821
3903.000000	0.003992
3902.000000	0.004087
3901.000000	0.004070
3900.000000	0.003956
3899.000000	0.003814
3898.000000	0.003719
3897.000000	0.003684
3896.000000	0.003678
3895.000000	0.003657
3894.000000	0.003605
3893.000000	0.003544
3892.000000	0.003517
3891.000000	0.003540
3890.000000	0.003603
3889.000000	0.003706
3888.000000	0.003831
3887.000000	0.003905
3886.000000	0.003874
3885.000000	0.003788
3884.000000	0.003746
3883.000000	0.003767
3882.000000	0.003787
3881.000000	0.003764
3880.000000	0.003727
3879.000000	0.003719
3878.000000	0.003749
3877.000000	0.003791
3876.000000	0.003792
3875.000000	0.003729
3874.000000	0.003655
3873.000000	0.003666
3872.000000	0.003783
3871.000000	0.003909
3870.000000	0.003946
3869.000000	0.003915
3868.000000	0.003913
3867.000000	0.003975
3866.000000	0.004015
3865.000000	0.003956
3864.000000	0.003865
3863.000000	0.003842
3862.000000	0.003888
3861.000000	0.003935
3860.000000	0.003923
3859.000000	0.003819
3858.000000	0.003628
3857.000000	0.003406
3856.000000	0.003255
3855.000000	0.003221
3854.000000	0.003300
3853.000000	0.003464
3852.000000	0.003629
3851.000000	0.003746
3850.000000	0.003828
3849.000000	0.003865
3848.000000	0.003865
3847.000000	0.003853
3846.000000	0.003839
3845.000000	0.003829
3844.000000	0.003832
3843.000000	0.003850
3842.000000	0.003885
3841.000000	0.003928
3840.000000	0.003954
3839.000000	0.003955
3838.000000	0.003941
3837.000000	0.003919
3836.000000	0.003896
3835.000000	0.003885
3834.000000	0.003891
3833.000000	0.003898
3832.000000	0.003884
3831.000000	0.003855
3830.000000	0.003833
3829.000000	0.003820
3828.000000	0.003805
3827.000000	0.003775
3826.000000	0.003749
3825.000000	0.003779
3824.000000	0.003891
3823.000000	0.004009
3822.000000	0.004026
3821.000000	0.003953
3820.000000	0.003907
3819.000000	0.003935
3818.000000	0.004000
3817.000000	0.004004
3816.000000	0.003890
3815.000000	0.003728
3814.000000	0.003625
3813.000000	0.003600
3812.000000	0.003594
3811.000000	0.003570
3810.000000	0.003554
3809.000000	0.003583
3808.000000	0.003644
3807.000000	0.003699
3806.000000	0.003750
3805.000000	0.003830
3804.000000	0.003932
3803.000000	0.003977
3802.000000	0.003906
3801.000000	0.003799
3800.000000	0.003765
3799.000000	0.003810
3798.000000	0.003854
3797.000000	0.003827
3796.000000	0.003732
3795.000000	0.003625
3794.000000	0.003547
3793.000000	0.003486
3792.000000	0.003422
3791.000000	0.003358
3790.000000	0.003315
3789.000000	0.003303
3788.000000	0.003310
3787.000000	0.003320
3786.000000	0.003333
3785.000000	0.003355
3784.000000	0.003391
3783.000000	0.003447
3782.000000	0.003509
3781.000000	0.003541
3780.000000	0.003524
3779.000000	0.003485
3778.000000	0.003457
3777.000000	0.003450
3776.000000	0.003451
3775.000000	0.003445
3774.000000	0.003439
3773.000000	0.003466
3772.000000	0.003535
3771.000000	0.003606
3770.000000	0.003648
3769.000000	0.003681
3768.000000	0.003722
3767.000000	0.003756
3766.000000	0.003757
3765.000000	0.003722
3764.000000	0.003695
3763.000000	0.003716
3762.000000	0.003766
3761.000000	0.003780
3760.000000	0.003753
3759.000000	0.003751
3758.000000	0.003802
3757.000000	0.003865
3756.000000	0.003918
3755.000000	0.003988
3754.000000	0.004089
3753.000000	0.004188
3752.000000	0.004271
3751.000000	0.004379
3750.000000	0.004488
3749.000000	0.004510
3748.000000	0.004447
3747.000000	0.004397
3746.000000	0.004384
3745.000000	0.004334
3744.000000	0.004222
3743.000000	0.004146
3742.000000	0.004191
3741.000000	0.004315
3740.000000	0.004434
3739.000000	0.004528
3738.000000	0.004603
3737.000000	0.004621
3736.000000	0.004541
3735.000000	0.004426
3734.000000	0.004355
3733.000000	0.004296
3732.000000	0.004184
3731.000000	0.004029
3730.000000	0.003906
3729.000000	0.003862
3728.000000	0.003864
3727.000000	0.003840
3726.000000	0.003783
3725.000000	0.003743
3724.000000	0.003729
3723.000000	0.003706
3722.000000	0.003660
3721.000000	0.003607
3720.000000	0.003561
3719.000000	0.003535
3718.000000	0.003518
3717.000000	0.003510
3716.000000	0.003527
3715.000000	0.003592
3714.000000	0.003685
3713.000000	0.003749
3712.000000	0.003766
3711.000000	0.003768
3710.000000	0.003763
3709.000000	0.003734
3708.000000	0.003673
3707.000000	0.003590
3706.000000	0.003509
3705.000000	0.003443
3704.000000	0.003383
3703.000000	0.003313
3702.000000	0.003249
3701.000000	0.003216
3700.000000	0.003217
3699.000000	0.003243
3698.000000	0.003273
3697.000000	0.003283
3696.000000	0.003287
3695.000000	0.003323
3694.000000	0.003394
3693.000000	0.003455
3692.000000	0.003465
3691.000000	0.003456
3690.000000	0.003495
3689.000000	0.003581
3688.000000	0.003633
3687.000000	0.003612
3686.000000	0.003575
3685.000000	0.003564
3684.000000	0.003568
3683.000000	0.003574
3682.000000	0.003579
3681.000000	0.003585
3680.000000	0.003591
3679.000000	0.003639
3678.000000	0.003784
3677.000000	0.003965
3676.000000	0.004057
3675.000000	0.004056
3674.000000	0.004056
3673.000000	0.004114
3672.000000	0.004190
3671.000000	0.004160
3670.000000	0.004009
3669.000000	0.003863
3668.000000	0.003787
3667.000000	0.003740
3666.000000	0.003687
3665.000000	0.003617
3664.000000	0.003542
3663.000000	0.003483
3662.000000	0.003446
3661.000000	0.003436
3660.000000	0.003457
3659.000000	0.003512
3658.000000	0.003586
3657.000000	0.003650
3656.000000	0.003700
3655.000000	0.003764
3654.000000	0.003883
3653.000000	0.004062
3652.000000	0.004248
3651.000000	0.004366
3650.000000	0.004434
3649.000000	0.004493
3648.000000	0.004494
3647.000000	0.004388
3646.000000	0.004226
3645.000000	0.004074
3644.000000	0.003946
3643.000000	0.003823
3642.000000	0.003703
3641.000000	0.003615
3640.000000	0.003579
3639.000000	0.003580
3638.000000	0.003596
3637.000000	0.003629
3636.000000	0.003683
3635.000000	0.003732
3634.000000	0.003752
3633.000000	0.003771
3632.000000	0.003847
3631.000000	0.003981
3630.000000	0.004085
3629.000000	0.004120
3628.000000	0.004138
3627.000000	0.004160
3626.000000	0.004176
3625.000000	0.004176
3624.000000	0.004147
3623.000000	0.004099
3622.000000	0.004053
3621.000000	0.004006
3620.000000	0.003967
3619.000000	0.003982
3618.000000	0.004068
3617.000000	0.004184
3616.000000	0.004291
3615.000000	0.004353
3614.000000	0.004366
3613.000000	0.004369
3612.000000	0.004408
3611.000000	0.004482
3610.000000	0.004533
3609.000000	0.004497
3608.000000	0.004389
3607.000000	0.004281
3606.000000	0.004216
3605.000000	0.004185
3604.000000	0.004159
3603.000000	0.004127
3602.000000	0.004103
3601.000000	0.004099
3600.000000	0.004118
3599.000000	0.004156
3598.000000	0.004196
3597.000000	0.004217
3596.000000	0.004216
3595.000000	0.004208
3594.000000	0.004217
3593.000000	0.004261
3592.000000	0.004337
3591.000000	0.004431
3590.000000	0.004508
3589.000000	0.004520
3588.000000	0.004467
3587.000000	0.004420
3586.000000	0.004413
3585.000000	0.004424
3584.000000	0.004419
3583.000000	0.004390
3582.000000	0.004345
3581.000000	0.004295
3580.000000	0.004251
3579.000000	0.004223
3578.000000	0.004214
3577.000000	0.004219
3576.000000	0.004234
3575.000000	0.004258
3574.000000	0.004292
3573.000000	0.004342
3572.000000	0.004416
3571.000000	0.004523
3570.000000	0.004656
3569.000000	0.004771
3568.000000	0.004818
3567.000000	0.004809
3566.000000	0.004789
3565.000000	0.004779
3564.000000	0.004770
3563.000000	0.004746
3562.000000	0.004701
3561.000000	0.004648
3560.000000	0.004605
3559.000000	0.004584
3558.000000	0.004583
3557.000000	0.004595
3556.000000	0.004614
3555.000000	0.004632
3554.000000	0.004647
3553.000000	0.004663
3552.000000	0.004697
3551.000000	0.004758
3550.000000	0.004840
3549.000000	0.004925
3548.000000	0.004987
3547.000000	0.005009
3546.000000	0.005000
3545.000000	0.004979
3544.000000	0.004962
3543.000000	0.004950
3542.000000	0.004943
3541.000000	0.004935
3540.000000	0.004924
3539.000000	0.004913
3538.000000	0.004904
3537.000000	0.004901
3536.000000	0.004910
3535.000000	0.004934
3534.000000	0.004971
3533.000000	0.005013
3532.000000	0.005050
3531.000000	0.005081
3530.000000	0.005110
3529.000000	0.005149
3528.000000	0.005204
3527.000000	0.005267
3526.000000	0.005321
3525.000000	0.005345
3524.000000	0.005333
3523.000000	0.005303
3522.000000	0.005279
3521.000000	0.005269
3520.000000	0.005265
3519.000000	0.005258
3518.000000	0.005252
3517.000000	0.005257
3516.000000	0.005275
3515.000000	0.005296
3514.000000	0.005313
3513.000000	0.005328
3512.000000	0.005344
3511.000000	0.005360
3510.000000	0.005381
3509.000000	0.005414
3508.000000	0.005461
3507.000000	0.005512
3506.000000	0.005547
3505.000000	0.005558
3504.000000	0.005556
3503.000000	0.005562
3502.000000	0.005588
3501.000000	0.005625
3500.000000	0.005652
3499.000000	0.005658
3498.000000	0.005646
3497.000000	0.005632
3496.000000	0.005628
3495.000000	0.005637
3494.000000	0.005654
3493.000000	0.005670
3492.000000	0.005684
3491.000000	0.005699
3490.000000	0.005717
3489.000000	0.005738
3488.000000	0.005759
3487.000000	0.005778
3486.000000	0.005799
3485.000000	0.005820
3484.000000	0.005834
3483.000000	0.005842
3482.000000	0.005853
3481.000000	0.005874
3480.000000	0.005901
3479.000000	0.005922
3478.000000	0.005931
3477.000000	0.005929
3476.000000	0.005924
3475.000000	0.005924
3474.000000	0.005935
3473.000000	0.005957
3472.000000	0.005987
3471.000000	0.006016
3470.000000	0.006041
3469.000000	0.006061
3468.000000	0.006077
3467.000000	0.006090
3466.000000	0.006103
3465.000000	0.006117
3464.000000	0.006130
3463.000000	0.006139
3462.000000	0.006146
3461.000000	0.006154
3460.000000	0.006161
3459.000000	0.006165
3458.000000	0.006166
3457.000000	0.006172
3456.000000	0.006185
3455.000000	0.006203
3454.000000	0.006221
3453.000000	0.006239
3452.000000	0.006260
3451.000000	0.006283
3450.000000	0.006303
3449.000000	0.006316
3448.000000	0.006325
3447.000000	0.006341
3446.000000	0.006370
3445.000000	0.006405
3444.000000	0.006432
3443.000000	0.006442
3442.000000	0.006442
3441.000000	0.006446
3440.000000	0.006461
3439.000000	0.006484
3438.000000	0.006506
3437.000000	0.006526
3436.000000	0.006544
3435.000000	0.006563
3434.000000	0.006580
3433.000000	0.006597
3432.000000	0.006615
3431.000000	0.006632
3430.000000	0.006644
3429.000000	0.006654
3428.000000	0.006669
3427.000000	0.006688
3426.000000	0.006711
3425.000000	0.006731
3424.000000	0.006748
3423.000000	0.006760
3422.000000	0.006767
3421.000000	0.006776
3420.000000	0.006791
3419.000000	0.006811
3418.000000	0.006831
3417.000000	0.006847
3416.000000	0.006860
3415.000000	0.006875
3414.000000	0.006889
3413.000000	0.006903
3412.000000	0.006919
3411.000000	0.006938
3410.000000	0.006961
3409.000000	0.006986
3408.000000	0.007009
3407.000000	0.007027
3406.000000	0.007041
3405.000000	0.007056
3404.000000	0.007074
3403.000000	0.007097
3402.000000	0.007125
3401.000000	0.007157
3400.000000	0.007190
3399.000000	0.007219
3398.000000	0.007240
3397.000000	0.007256
3396.000000	0.007269
3395.000000	0.007276
3394.000000	0.007278
3393.000000	0.007278
3392.000000	0.007286
3391.000000	0.007302
3390.000000	0.007317
3389.000000	0.007325
3388.000000	0.007329
3387.000000	0.007334
3386.000000	0.007344
3385.000000	0.007362
3384.000000	0.007389
3383.000000	0.007419
3382.000000	0.007446
3381.000000	0.007467
3380.000000	0.007482
3379.000000	0.007494
3378.000000	0.007507
3377.000000	0.007522
3376.000000	0.007537
3375.000000	0.007550
3374.000000	0.007562
3373.000000	0.007577
3372.000000	0.007601
3371.000000	0.007634
3370.000000	0.007671
3369.000000	0.007708
3368.000000	0.007740
3367.000000	0.007766
3366.000000	0.007785
3365.000000	0.007801
3364.000000	0.007816
3363.000000	0.007835
3362.000000	0.007856
3361.000000	0.007878
3360.000000	0.007899
3359.000000	0.007916
3358.000000	0.007931
3357.000000	0.007950
3356.000000	0.007975
3355.000000	0.008004
3354.000000	0.008031
3353.000000	0.008051
3352.000000	0.008063
3351.000000	0.008076
3350.000000	0.008096
3349.000000	0.008122
3348.000000	0.008153
3347.000000	0.008184
3346.000000	0.008214
3345.000000	0.008244
3344.000000	0.008274
3343.000000	0.008309
3342.000000	0.008352
3341.000000	0.008403
3340.000000	0.008458
3339.000000	0.008506
3338.000000	0.008539
3337.000000	0.008555
3336.000000	0.008563
3335.000000	0.008570
3334.000000	0.008585
3333.000000	0.008611
3332.000000	0.008647
3331.000000	0.008691
3330.000000	0.008740
3329.000000	0.008791
3328.000000	0.008841
3327.000000	0.008889
3326.000000	0.008935
3325.000000	0.008980
3324.000000	0.009023
3323.000000	0.009061
3322.000000	0.009099
3321.000000	0.009138
3320.000000	0.009182
3319.000000	0.009231
3318.000000	0.009285
3317.000000	0.009340
3316.000000	0.009394
3315.000000	0.009447
3314.000000	0.009501
3313.000000	0.009559
3312.000000	0.009622
3311.000000	0.009686
3310.000000	0.009745
3309.000000	0.009794
3308.000000	0.009837
3307.000000	0.009881
3306.000000	0.009934
3305.000000	0.010000
3304.000000	0.010073
3303.000000	0.010141
3302.000000	0.010200
3301.000000	0.010254
3300.000000	0.010309
3299.000000	0.010369
3298.000000	0.010435
3297.000000	0.010502
3296.000000	0.010566
3295.000000	0.010624
3294.000000	0.010673
3293.000000	0.010718
3292.000000	0.010765
3291.000000	0.010818
3290.000000	0.010873
3289.000000	0.010926
3288.000000	0.010975
3287.000000	0.011020
3286.000000	0.011060
3285.000000	0.011097
3284.000000	0.011131
3283.000000	0.011164
3282.000000	0.011195
3281.000000	0.011224
3280.000000	0.011254
3279.000000	0.011288
3278.000000	0.011328
3277.000000	0.011369
3276.000000	0.011403
3275.000000	0.011421
3274.000000	0.011422
3273.000000	0.011415
3272.000000	0.011406
3271.000000	0.011401
3270.000000	0.011396
3269.000000	0.011387
3268.000000	0.011369
3267.000000	0.011341
3266.000000	0.011307
3265.000000	0.011271
3264.000000	0.011234
3263.000000	0.011198
3262.000000	0.011162
3261.000000	0.011128
3260.000000	0.011094
3259.000000	0.011058
3258.000000	0.011019
3257.000000	0.010980
3256.000000	0.010940
3255.000000	0.010900
3254.000000	0.010859
3253.000000	0.010818
3252.000000	0.010777
3251.000000	0.010737
3250.000000	0.010698
3249.000000	0.010661
3248.000000	0.010624
3247.000000	0.010584
3246.000000	0.010537
3245.000000	0.010486
3244.000000	0.010435
3243.000000	0.010388
3242.000000	0.010345
3241.000000	0.010302
3240.000000	0.010259
3239.000000	0.010218
3238.000000	0.010180
3237.000000	0.010144
3236.000000	0.010106
3235.000000	0.010068
3234.000000	0.010031
3233.000000	0.009994
3232.000000	0.009956
3231.000000	0.009914
3230.000000	0.009872
3229.000000	0.009832
3228.000000	0.009797
3227.000000	0.009764
3226.000000	0.009733
3225.000000	0.009702
3224.000000	0.009672
3223.000000	0.009643
3222.000000	0.009612
3221.000000	0.009578
3220.000000	0.009540
3219.000000	0.009505
3218.000000	0.009475
3217.000000	0.009450
3216.000000	0.009425
3215.000000	0.009396
3214.000000	0.009365
3213.000000	0.009333
3212.000000	0.009302
3211.000000	0.009270
3210.000000	0.009237
3209.000000	0.009203
3208.000000	0.009166
3207.000000	0.009122
3206.000000	0.009074
3205.000000	0.009029
3204.000000	0.008994
3203.000000	0.008968
3202.000000	0.008946
3201.000000	0.008920
3200.000000	0.008889
3199.000000	0.008856
3198.000000	0.008821
3197.000000	0.008785
3196.000000	0.008748
3195.000000	0.008713
3194.000000	0.008682
3193.000000	0.008653
3192.000000	0.008622
3191.000000	0.008589
3190.000000	0.008552
3189.000000	0.008516
3188.000000	0.008482
3187.000000	0.008449
3186.000000	0.008416
3185.000000	0.008381
3184.000000	0.008343
3183.000000	0.008308
3182.000000	0.008279
3181.000000	0.008255
3180.000000	0.008229
3179.000000	0.008195
3178.000000	0.008152
3177.000000	0.008104
3176.000000	0.008056
3175.000000	0.008011
3174.000000	0.007972
3173.000000	0.007939
3172.000000	0.007908
3171.000000	0.007875
3170.000000	0.007839
3169.000000	0.007801
3168.000000	0.007762
3167.000000	0.007728
3166.000000	0.007698
3165.000000	0.007673
3164.000000	0.007649
3163.000000	0.007623
3162.000000	0.007597
3161.000000	0.007573
3160.000000	0.007552
3159.000000	0.007531
3158.000000	0.007506
3157.000000	0.007474
3156.000000	0.007440
3155.000000	0.007409
3154.000000	0.007386
3153.000000	0.007371
3152.000000	0.007356
3151.000000	0.007335
3150.000000	0.007306
3149.000000	0.007270
3148.000000	0.007234
3147.000000	0.007205
3146.000000	0.007185
3145.000000	0.007172
3144.000000	0.007157
3143.000000	0.007135
3142.000000	0.007106
3141.000000	0.007073
3140.000000	0.007043
3139.000000	0.007020
3138.000000	0.007005
3137.000000	0.006997
3136.000000	0.006991
3135.000000	0.006979
3134.000000	0.006961
3133.000000	0.006939
3132.000000	0.006922
3131.000000	0.006910
3130.000000	0.006902
3129.000000	0.006893
3128.000000	0.006883
3127.000000	0.006873
3126.000000	0.006864
3125.000000	0.006854
3124.000000	0.006841
3123.000000	0.006827
3122.000000	0.006812
3121.000000	0.006799
3120.000000	0.006792
3119.000000	0.006790
3118.000000	0.006792
3117.000000	0.006795
3116.000000	0.006800
3115.000000	0.006804
3114.000000	0.006802
3113.000000	0.006790
3112.000000	0.006772
3111.000000	0.006758
3110.000000	0.006756
3109.000000	0.006760
3108.000000	0.006764
3107.000000	0.006767
3106.000000	0.006771
3105.000000	0.006778
3104.000000	0.006787
3103.000000	0.006795
3102.000000	0.006796
3101.000000	0.006793
3100.000000	0.006790
3099.000000	0.006792
3098.000000	0.006797
3097.000000	0.006800
3096.000000	0.006802
3095.000000	0.006807
3094.000000	0.006818
3093.000000	0.006832
3092.000000	0.006842
3091.000000	0.006848
3090.000000	0.006849
3089.000000	0.006845
3088.000000	0.006835
3087.000000	0.006822
3086.000000	0.006811
3085.000000	0.006807
3084.000000	0.006812
3083.000000	0.006821
3082.000000	0.006831
3081.000000	0.006841
3080.000000	0.006853
3079.000000	0.006867
3078.000000	0.006877
3077.000000	0.006878
3076.000000	0.006869
3075.000000	0.006860
3074.000000	0.006856
3073.000000	0.006857
3072.000000	0.006857
3071.000000	0.006852
3070.000000	0.006842
3069.000000	0.006834
3068.000000	0.006831
3067.000000	0.006835
3066.000000	0.006841
3065.000000	0.006845
3064.000000	0.006842
3063.000000	0.006831
3062.000000	0.006811
3061.000000	0.006785
3060.000000	0.006756
3059.000000	0.006728
3058.000000	0.006699
3057.000000	0.006668
3056.000000	0.006637
3055.000000	0.006608
3054.000000	0.006582
3053.000000	0.006559
3052.000000	0.006540
3051.000000	0.006526
3050.000000	0.006514
3049.000000	0.006500
3048.000000	0.006481
3047.000000	0.006458
3046.000000	0.006431
3045.000000	0.006403
3044.000000	0.006373
3043.000000	0.006346
3042.000000	0.006323
3041.000000	0.006306
3040.000000	0.006293
3039.000000	0.006278
3038.000000	0.006258
3037.000000	0.006232
3036.000000	0.006205
3035.000000	0.006180
3034.000000	0.006160
3033.000000	0.006141
3032.000000	0.006122
3031.000000	0.006099
3030.000000	0.006074
3029.000000	0.006047
3028.000000	0.006022
3027.000000	0.006001
3026.000000	0.005984
3025.000000	0.005972
3024.000000	0.005960
3023.000000	0.005947
3022.000000	0.005932
3021.000000	0.005916
3020.000000	0.005898
3019.000000	0.005879
3018.000000	0.005857
3017.000000	0.005835
3016.000000	0.005814
3015.000000	0.005799
3014.000000	0.005791
3013.000000	0.005793
3012.000000	0.005805
3011.000000	0.005826
3010.000000	0.005855
3009.000000	0.005884
3008.000000	0.005910
3007.000000	0.005933
3006.000000	0.005958
3005.000000	0.005988
3004.000000	0.006022
3003.000000	0.006056
3002.000000	0.006089
3001.000000	0.006120
3000.000000	0.006144
2999.000000	0.006162
2998.000000	0.006176
2997.000000	0.006191
2996.000000	0.006206
2995.000000	0.006223
2994.000000	0.006240
2993.000000	0.006260
2992.000000	0.006282
2991.000000	0.006302
2990.000000	0.006320
2989.000000	0.006337
2988.000000	0.006358
2987.000000	0.006389
2986.000000	0.006445
2985.000000	0.006536
2984.000000	0.006657
2983.000000	0.006780
2982.000000	0.006869
2981.000000	0.006903
2980.000000	0.006885
2979.000000	0.006836
2978.000000	0.006776
2977.000000	0.006723
2976.000000	0.006685
2975.000000	0.006667
2974.000000	0.006668
2973.000000	0.006680
2972.000000	0.006685
2971.000000	0.006671
2970.000000	0.006636
2969.000000	0.006594
2968.000000	0.006560
2967.000000	0.006537
2966.000000	0.006520
2965.000000	0.006506
2964.000000	0.006497
2963.000000	0.006492
2962.000000	0.006487
2961.000000	0.006479
2960.000000	0.006466
2959.000000	0.006447
2958.000000	0.006421
2957.000000	0.006384
2956.000000	0.006333
2955.000000	0.006270
2954.000000	0.006194
2953.000000	0.006109
2952.000000	0.006021
2951.000000	0.005935
2950.000000	0.005856
2949.000000	0.005787
2948.000000	0.005732
2947.000000	0.005694
2946.000000	0.005672
2945.000000	0.005664
2944.000000	0.005670
2943.000000	0.005690
2942.000000	0.005724
2941.000000	0.005768
2940.000000	0.005819
2939.000000	0.005878
2938.000000	0.005949
2937.000000	0.006031
2936.000000	0.006125
2935.000000	0.006229
2934.000000	0.006346
2933.000000	0.006479
2932.000000	0.006627
2931.000000	0.006787
2930.000000	0.006953
2929.000000	0.007129
2928.000000	0.007323
2927.000000	0.007548
2926.000000	0.007812
2925.000000	0.008115
2924.000000	0.008458
2923.000000	0.008846
2922.000000	0.009286
2921.000000	0.009773
2920.000000	0.010281
2919.000000	0.010759
2918.000000	0.011131
2917.000000	0.011305
2916.000000	0.011207
2915.000000	0.010828
2914.000000	0.010235
2913.000000	0.009547
2912.000000	0.008878
2911.000000	0.008303
2910.000000	0.007844
2909.000000	0.007492
2908.000000	0.007231
2907.000000	0.007040
2906.000000	0.006897
2905.000000	0.006786
2904.000000	0.006693
2903.000000	0.006615
2902.000000	0.006551
2901.000000	0.006499
2900.000000	0.006459
2899.000000	0.006427
2898.000000	0.006399
2897.000000	0.006367
2896.000000	0.006328
2895.000000	0.006285
2894.000000	0.006245
2893.000000	0.006213
2892.000000	0.006189
2891.000000	0.006168
2890.000000	0.006146
2889.000000	0.006121
2888.000000	0.006093
2887.000000	0.006065
2886.000000	0.006038
2885.000000	0.006014
2884.000000	0.005989
2883.000000	0.005961
2882.000000	0.005928
2881.000000	0.005894
2880.000000	0.005863
2879.000000	0.005837
2878.000000	0.005813
2877.000000	0.005783
2876.000000	0.005745
2875.000000	0.005702
2874.000000	0.005661
2873.000000	0.005624
2872.000000	0.005588
2871.000000	0.005549
2870.000000	0.005510
2869.000000	0.005479
2868.000000	0.005462
2867.000000	0.005456
2866.000000	0.005459
2865.000000	0.005470
2864.000000	0.005494
2863.000000	0.005532
2862.000000	0.005586
2861.000000	0.005649
2860.000000	0.005719
2859.000000	0.005793
2858.000000	0.005876
2857.000000	0.005983
2856.000000	0.006133
2855.000000	0.006352
2854.000000	0.006666
2853.000000	0.007093
2852.000000	0.007615
2851.000000	0.008154
2850.000000	0.008571
2849.000000	0.008725
2848.000000	0.008548
2847.000000	0.008085
2846.000000	0.007470
2845.000000	0.006851
2844.000000	0.006328
2843.000000	0.005935
2842.000000	0.005657
2841.000000	0.005460
2840.000000	0.005319
2839.000000	0.005214
2838.000000	0.005134
2837.000000	0.005070
2836.000000	0.005019
2835.000000	0.004978
2834.000000	0.004946
2833.000000	0.004919
2832.000000	0.004896
2831.000000	0.004877
2830.000000	0.004860
2829.000000	0.004844
2828.000000	0.004829
2827.000000	0.004814
2826.000000	0.004801
2825.000000	0.004792
2824.000000	0.004786
2823.000000	0.004784
2822.000000	0.004783
2821.000000	0.004782
2820.000000	0.004781
2819.000000	0.004776
2818.000000	0.004770
2817.000000	0.004760
2816.000000	0.004749
2815.000000	0.004738
2814.000000	0.004730
2813.000000	0.004726
2812.000000	0.004722
2811.000000	0.004716
2810.000000	0.004708
2809.000000	0.004700
2808.000000	0.004693
2807.000000	0.004686
2806.000000	0.004677
2805.000000	0.004668
2804.000000	0.004660
2803.000000	0.004652
2802.000000	0.004640
2801.000000	0.004625
2800.000000	0.004611
2799.000000	0.004604
2798.000000	0.004602
2797.000000	0.004599
2796.000000	0.004590
2795.000000	0.004577
2794.000000	0.004566
2793.000000	0.004558
2792.000000	0.004552
2791.000000	0.004544
2790.000000	0.004531
2789.000000	0.004516
2788.000000	0.004500
2787.000000	0.004487
2786.000000	0.004478
2785.000000	0.004474
2784.000000	0.004473
2783.000000	0.004470
2782.000000	0.004464
2781.000000	0.004455
2780.000000	0.004446
2779.000000	0.004439
2778.000000	0.004434
2777.000000	0.004432
2776.000000	0.004431
2775.000000	0.004428
2774.000000	0.004420
2773.000000	0.004409
2772.000000	0.004398
2771.000000	0.004389
2770.000000	0.004383
2769.000000	0.004378
2768.000000	0.004372
2767.000000	0.004364
2766.000000	0.004356
2765.000000	0.004351
2764.000000	0.004345
2763.000000	0.004337
2762.000000	0.004324
2761.000000	0.004309
2760.000000	0.004296
2759.000000	0.004285
2758.000000	0.004274
2757.000000	0.004263
2756.000000	0.004253
2755.000000	0.004247
2754.000000	0.004242
2753.000000	0.004237
2752.000000	0.004231
2751.000000	0.004224
2750.000000	0.004216
2749.000000	0.004208
2748.000000	0.004199
2747.000000	0.004191
2746.000000	0.004183
2745.000000	0.004175
2744.000000	0.004168
2743.000000	0.004162
2742.000000	0.004158
2741.000000	0.004155
2740.000000	0.004153
2739.000000	0.004152
2738.000000	0.004148
2737.000000	0.004143
2736.000000	0.004136
2735.000000	0.004128
2734.000000	0.004120
2733.000000	0.004111
2732.000000	0.004099
2731.000000	0.004087
2730.000000	0.004077
2729.000000	0.004071
2728.000000	0.004067
2727.000000	0.004063
2726.000000	0.004056
2725.000000	0.004046
2724.000000	0.004037
2723.000000	0.004031
2722.000000	0.004030
2721.000000	0.004031
2720.000000	0.004031
2719.000000	0.004022
2718.000000	0.004005
2717.000000	0.003987
2716.000000	0.003972
2715.000000	0.003964
2714.000000	0.003960
2713.000000	0.003954
2712.000000	0.003947
2711.000000	0.003940
2710.000000	0.003934
2709.000000	0.003932
2708.000000	0.003931
2707.000000	0.003927
2706.000000	0.003918
2705.000000	0.003907
2704.000000	0.003899
2703.000000	0.003899
2702.000000	0.003905
2701.000000	0.003912
2700.000000	0.003914
2699.000000	0.003910
2698.000000	0.003900
2697.000000	0.003888
2696.000000	0.003879
2695.000000	0.003873
2694.000000	0.003868
2693.000000	0.003864
2692.000000	0.003860
2691.000000	0.003857
2690.000000	0.003854
2689.000000	0.003854
2688.000000	0.003855
2687.000000	0.003857
2686.000000	0.003857
2685.000000	0.003854
2684.000000	0.003847
2683.000000	0.003838
2682.000000	0.003830
2681.000000	0.003824
2680.000000	0.003823
2679.000000	0.003824
2678.000000	0.003826
2677.000000	0.003825
2676.000000	0.003823
2675.000000	0.003823
2674.000000	0.003825
2673.000000	0.003827
2672.000000	0.003828
2671.000000	0.003826
2670.000000	0.003823
2669.000000	0.003826
2668.000000	0.003839
2667.000000	0.003865
2666.000000	0.003904
2665.000000	0.003948
2664.000000	0.003995
2663.000000	0.004040
2662.000000	0.004079
2661.000000	0.004110
2660.000000	0.004134
2659.000000	0.004156
2658.000000	0.004177
2657.000000	0.004197
2656.000000	0.004212
2655.000000	0.004222
2654.000000	0.004227
2653.000000	0.004229
2652.000000	0.004227
2651.000000	0.004224
2650.000000	0.004221
2649.000000	0.004222
2648.000000	0.004227
2647.000000	0.004233
2646.000000	0.004236
2645.000000	0.004235
2644.000000	0.004230
2643.000000	0.004222
2642.000000	0.004211
2641.000000	0.004197
2640.000000	0.004185
2639.000000	0.004179
2638.000000	0.004178
2637.000000	0.004179
2636.000000	0.004179
2635.000000	0.004179
2634.000000	0.004177
2633.000000	0.004170
2632.000000	0.004158
2631.000000	0.004146
2630.000000	0.004135
2629.000000	0.004125
2628.000000	0.004113
2627.000000	0.004098
2626.000000	0.004081
2625.000000	0.004067
2624.000000	0.004059
2623.000000	0.004056
2622.000000	0.004053
2621.000000	0.004047
2620.000000	0.004038
2619.000000	0.004028
2618.000000	0.004021
2617.000000	0.004013
2616.000000	0.004001
2615.000000	0.003982
2614.000000	0.003961
2613.000000	0.003941
2612.000000	0.003930
2611.000000	0.003925
2610.000000	0.003922
2609.000000	0.003915
2608.000000	0.003904
2607.000000	0.003893
2606.000000	0.003884
2605.000000	0.003877
2604.000000	0.003870
2603.000000	0.003860
2602.000000	0.003850
2601.000000	0.003840
2600.000000	0.003829
2599.000000	0.003818
2598.000000	0.003807
2597.000000	0.003796
2596.000000	0.003787
2595.000000	0.003780
2594.000000	0.003769
2593.000000	0.003752
2592.000000	0.003731
2591.000000	0.003713
2590.000000	0.003701
2589.000000	0.003695
2588.000000	0.003691
2587.000000	0.003684
2586.000000	0.003672
2585.000000	0.003658
2584.000000	0.003648
2583.000000	0.003648
2582.000000	0.003656
2581.000000	0.003666
2580.000000	0.003672
2579.000000	0.003668
2578.000000	0.003658
2577.000000	0.003644
2576.000000	0.003629
2575.000000	0.003611
2574.000000	0.003586
2573.000000	0.003556
2572.000000	0.003529
2571.000000	0.003513
2570.000000	0.003507
2569.000000	0.003509
2568.000000	0.003513
2567.000000	0.003516
2566.000000	0.003515
2565.000000	0.003510
2564.000000	0.003501
2563.000000	0.003490
2562.000000	0.003479
2561.000000	0.003467
2560.000000	0.003462
2559.000000	0.003465
2558.000000	0.003471
2557.000000	0.003472
2556.000000	0.003461
2555.000000	0.003446
2554.000000	0.003431
2553.000000	0.003419
2552.000000	0.003407
2551.000000	0.003394
2550.000000	0.003380
2549.000000	0.003369
2548.000000	0.003366
2547.000000	0.003373
2546.000000	0.003385
2545.000000	0.003391
2544.000000	0.003385
2543.000000	0.003368
2542.000000	0.003348
2541.000000	0.003336
2540.000000	0.003332
2539.000000	0.003332
2538.000000	0.003335
2537.000000	0.003339
2536.000000	0.003344
2535.000000	0.003346
2534.000000	0.003338
2533.000000	0.003320
2532.000000	0.003295
2531.000000	0.003273
2530.000000	0.003256
2529.000000	0.003246
2528.000000	0.003243
2527.000000	0.003244
2526.000000	0.003247
2525.000000	0.003253
2524.000000	0.003258
2523.000000	0.003260
2522.000000	0.003254
2521.000000	0.003242
2520.000000	0.003233
2519.000000	0.003234
2518.000000	0.003241
2517.000000	0.003248
2516.000000	0.003251
2515.000000	0.003247
2514.000000	0.003237
2513.000000	0.003222
2512.000000	0.003204
2511.000000	0.003188
2510.000000	0.003179
2509.000000	0.003180
2508.000000	0.003187
2507.000000	0.003195
2506.000000	0.003194
2505.000000	0.003183
2504.000000	0.003171
2503.000000	0.003166
2502.000000	0.003168
2501.000000	0.003172
2500.000000	0.003171
2499.000000	0.003164
2498.000000	0.003154
2497.000000	0.003147
2496.000000	0.003147
2495.000000	0.003152
2494.000000	0.003154
2493.000000	0.003149
2492.000000	0.003142
2491.000000	0.003137
2490.000000	0.003132
2489.000000	0.003125
2488.000000	0.003117
2487.000000	0.003113
2486.000000	0.003111
2485.000000	0.003105
2484.000000	0.003097
2483.000000	0.003092
2482.000000	0.003092
2481.000000	0.003093
2480.000000	0.003094
2479.000000	0.003096
2478.000000	0.003099
2477.000000	0.003099
2476.000000	0.003096
2475.000000	0.003093
2474.000000	0.003093
2473.000000	0.003087
2472.000000	0.003072
2471.000000	0.003055
2470.000000	0.003050
2469.000000	0.003060
2468.000000	0.003078
2467.000000	0.003096
2466.000000	0.003106
2465.000000	0.003110
2464.000000	0.003108
2463.000000	0.003105
2462.000000	0.003108
2461.000000	0.003122
2460.000000	0.003145
2459.000000	0.003173
2458.000000	0.003199
2457.000000	0.003214
2456.000000	0.003217
2455.000000	0.003208
2454.000000	0.003195
2453.000000	0.003182
2452.000000	0.003170
2451.000000	0.003158
2450.000000	0.003146
2449.000000	0.003139
2448.000000	0.003136
2447.000000	0.003132
2446.000000	0.003119
2445.000000	0.003097
2444.000000	0.003073
2443.000000	0.003055
2442.000000	0.003044
2441.000000	0.003035
2440.000000	0.003025
2439.000000	0.003012
2438.000000	0.002999
2437.000000	0.002988
2436.000000	0.002975
2435.000000	0.002962
2434.000000	0.002950
2433.000000	0.002940
2432.000000	0.002931
2431.000000	0.002921
2430.000000	0.002913
2429.000000	0.002908
2428.000000	0.002904
2427.000000	0.002899
2426.000000	0.002889
2425.000000	0.002879
2424.000000	0.002877
2423.000000	0.002881
2422.000000	0.002881
2421.000000	0.002865
2420.000000	0.002832
2419.000000	0.002795
2418.000000	0.002769
2417.000000	0.002763
2416.000000	0.002773
2415.000000	0.002788
2414.000000	0.002798
2413.000000	0.002803
2412.000000	0.002806
2411.000000	0.002806
2410.000000	0.002796
2409.000000	0.002769
2408.000000	0.002727
2407.000000	0.002683
2406.000000	0.002649
2405.000000	0.002626
2404.000000	0.002614
2403.000000	0.002613
2402.000000	0.002619
2401.000000	0.002627
2400.000000	0.002628
2399.000000	0.002620
2398.000000	0.002609
2397.000000	0.002601
2396.000000	0.002599
2395.000000	0.002601
2394.000000	0.002600
2393.000000	0.002591
2392.000000	0.002575
2391.000000	0.002559
2390.000000	0.002550
2389.000000	0.002544
2388.000000	0.002532
2387.000000	0.002511
2386.000000	0.002485
2385.000000	0.002461
2384.000000	0.002440
2383.000000	0.002420
2382.000000	0.002399
2381.000000	0.002381
2380.000000	0.002373
2379.000000	0.002377
2378.000000	0.002388
2377.000000	0.002397
2376.000000	0.002401
2375.000000	0.002402
2374.000000	0.002398
2373.000000	0.002389
2372.000000	0.002370
2371.000000	0.002343
2370.000000	0.002316
2369.000000	0.002298
2368.000000	0.002297
2367.000000	0.002313
2366.000000	0.002343
2365.000000	0.002376
2364.000000	0.002401
2363.000000	0.002414
2362.000000	0.002429
2361.000000	0.002445
2360.000000	0.002458
2359.000000	0.002467
2358.000000	0.002465
2357.000000	0.002472
2356.000000	0.002482
2355.000000	0.002492
2354.000000	0.002498
2353.000000	0.002490
2352.000000	0.002437
2351.000000	0.002332
2350.000000	0.002253
2349.000000	0.002295
2348.000000	0.002492
2347.000000	0.002775
2346.000000	0.002994
2345.000000	0.003046
2344.000000	0.002954
2343.000000	0.002851
2342.000000	0.002801
2341.000000	0.002791
2340.000000	0.002797
2339.000000	0.002800
2338.000000	0.002793
2337.000000	0.002771
2336.000000	0.002745
2335.000000	0.002721
2334.000000	0.002715
2333.000000	0.002715
2332.000000	0.002723
2331.000000	0.002716
2330.000000	0.002743
2329.000000	0.002854
2328.000000	0.003102
2327.000000	0.003442
2326.000000	0.003763
2325.000000	0.003948
2324.000000	0.003953
2323.000000	0.003829
2322.000000	0.003663
2321.000000	0.003515
2320.000000	0.003412
2319.000000	0.003337
2318.000000	0.003283
2317.000000	0.003231
2316.000000	0.003192
2315.000000	0.003158
2314.000000	0.003128
2313.000000	0.003089
2312.000000	0.003052
2311.000000	0.003025
2310.000000	0.003019
2309.000000	0.003025
2308.000000	0.003038
2307.000000	0.003051
2306.000000	0.003065
2305.000000	0.003078
2304.000000	0.003098
2303.000000	0.003122
2302.000000	0.003150
2301.000000	0.003175
2300.000000	0.003203
2299.000000	0.003236
2298.000000	0.003282
2297.000000	0.003333
2296.000000	0.003386
2295.000000	0.003436
2294.000000	0.003484
2293.000000	0.003534
2292.000000	0.003593
2291.000000	0.003661
2290.000000	0.003728
2289.000000	0.003778
2288.000000	0.003804
2287.000000	0.003806
2286.000000	0.003776
2285.000000	0.003719
2284.000000	0.003649
2283.000000	0.003591
2282.000000	0.003551
2281.000000	0.003516
2280.000000	0.003478
2279.000000	0.003438
2278.000000	0.003400
2277.000000	0.003363
2276.000000	0.003333
2275.000000	0.003317
2274.000000	0.003312
2273.000000	0.003307
2272.000000	0.003292
2271.000000	0.003266
2270.000000	0.003231
2269.000000	0.003192
2268.000000	0.003155
2267.000000	0.003129
2266.000000	0.003110
2265.000000	0.003088
2264.000000	0.003067
2263.000000	0.003062
2262.000000	0.003081
2261.000000	0.003114
2260.000000	0.003142
2259.000000	0.003145
2258.000000	0.003108
2257.000000	0.003034
2256.000000	0.002952
2255.000000	0.002898
2254.000000	0.002881
2253.000000	0.002885
2252.000000	0.002897
2251.000000	0.002921
2250.000000	0.002958
2249.000000	0.002994
2248.000000	0.003020
2247.000000	0.003039
2246.000000	0.003051
2245.000000	0.003049
2244.000000	0.003031
2243.000000	0.003005
2242.000000	0.002981
2241.000000	0.002963
2240.000000	0.002960
2239.000000	0.002979
2238.000000	0.003011
2237.000000	0.003034
2236.000000	0.003034
2235.000000	0.003022
2234.000000	0.003016
2233.000000	0.003017
2232.000000	0.003016
2231.000000	0.003006
2230.000000	0.002985
2229.000000	0.002953
2228.000000	0.002917
2227.000000	0.002893
2226.000000	0.002882
2225.000000	0.002869
2224.000000	0.002838
2223.000000	0.002793
2222.000000	0.002753
2221.000000	0.002733
2220.000000	0.002739
2219.000000	0.002764
2218.000000	0.002781
2217.000000	0.002773
2216.000000	0.002749
2215.000000	0.002742
2214.000000	0.002768
2213.000000	0.002812
2212.000000	0.002851
2211.000000	0.002881
2210.000000	0.002905
2209.000000	0.002916
2208.000000	0.002902
2207.000000	0.002871
2206.000000	0.002840
2205.000000	0.002822
2204.000000	0.002821
2203.000000	0.002835
2202.000000	0.002860
2201.000000	0.002881
2200.000000	0.002892
2199.000000	0.002893
2198.000000	0.002886
2197.000000	0.002869
2196.000000	0.002851
2195.000000	0.002845
2194.000000	0.002861
2193.000000	0.002890
2192.000000	0.002925
2191.000000	0.002965
2190.000000	0.003005
2189.000000	0.003035
2188.000000	0.003044
2187.000000	0.003024
2186.000000	0.002962
2185.000000	0.002842
2184.000000	0.002669
2183.000000	0.002485
2182.000000	0.002362
2181.000000	0.002352
2180.000000	0.002442
2179.000000	0.002544
2178.000000	0.002554
2177.000000	0.002447
2176.000000	0.002304
2175.000000	0.002238
2174.000000	0.002291
2173.000000	0.002431
2172.000000	0.002615
2171.000000	0.002829
2170.000000	0.003054
2169.000000	0.003250
2168.000000	0.003384
2167.000000	0.003467
2166.000000	0.003548
2165.000000	0.003678
2164.000000	0.003840
2163.000000	0.003894
2162.000000	0.003599
2161.000000	0.002804
2160.000000	0.001675
2159.000000	0.000649
2158.000000	0.000075
2157.000000	-0.000030
2156.000000	0.000130
2155.000000	0.000354
2154.000000	0.000546
2153.000000	0.000685
2152.000000	0.000790
2151.000000	0.000881
2150.000000	0.000954
2149.000000	0.000986
2148.000000	0.000975
2147.000000	0.000953
2146.000000	0.000957
2145.000000	0.000995
2144.000000	0.001057
2143.000000	0.001122
2142.000000	0.001168
2141.000000	0.001180
2140.000000	0.001163
2139.000000	0.001122
2138.000000	0.001041
2137.000000	0.000892
2136.000000	0.000689
2135.000000	0.000509
2134.000000	0.000433
2133.000000	0.000485
2132.000000	0.000632
2131.000000	0.000829
2130.000000	0.001028
2129.000000	0.001192
2128.000000	0.001308
2127.000000	0.001397
2126.000000	0.001490
2125.000000	0.001593
2124.000000	0.001693
2123.000000	0.001782
2122.000000	0.001863
2121.000000	0.001944
2120.000000	0.002030
2119.000000	0.002124
2118.000000	0.002229
2117.000000	0.002332
2116.000000	0.002412
2115.000000	0.002458
2114.000000	0.002475
2113.000000	0.002475
2112.000000	0.002471
2111.000000	0.002467
2110.000000	0.002457
2109.000000	0.002437
2108.000000	0.002409
2107.000000	0.002381
2106.000000	0.002353
2105.000000	0.002325
2104.000000	0.002298
2103.000000	0.002278
2102.000000	0.002267
2101.000000	0.002258
2100.000000	0.002238
2099.000000	0.002199
2098.000000	0.002132
2097.000000	0.002043
2096.000000	0.001964
2095.000000	0.001934
2094.000000	0.001968
2093.000000	0.002041
2092.000000	0.002117
2091.000000	0.002182
2090.000000	0.002238
2089.000000	0.002287
2088.000000	0.002331
2087.000000	0.002374
2086.000000	0.002419
2085.000000	0.002461
2084.000000	0.002494
2083.000000	0.002512
2082.000000	0.002505
2081.000000	0.002474
2080.000000	0.002437
2079.000000	0.002420
2078.000000	0.002432
2077.000000	0.002448
2076.000000	0.002444
2075.000000	0.002422
2074.000000	0.002396
2073.000000	0.002374
2072.000000	0.002358
2071.000000	0.002346
2070.000000	0.002331
2069.000000	0.002311
2068.000000	0.002294
2067.000000	0.002295
2066.000000	0.002309
2065.000000	0.002311
2064.000000	0.002284
2063.000000	0.002244
2062.000000	0.002209
2061.000000	0.002190
2060.000000	0.002199
2059.000000	0.002248
2058.000000	0.002322
2057.000000	0.002376
2056.000000	0.002406
2055.000000	0.002488
2054.000000	0.002706
2053.000000	0.003031
2052.000000	0.003304
2051.000000	0.003361
2050.000000	0.003182
2049.000000	0.002896
2048.000000	0.002663
2047.000000	0.002540
2046.000000	0.002485
2045.000000	0.002442
2044.000000	0.002404
2043.000000	0.002392
2042.000000	0.002413
2041.000000	0.002449
2040.000000	0.002487
2039.000000	0.002525
2038.000000	0.002554
2037.000000	0.002537
2036.000000	0.002439
2035.000000	0.002274
2034.000000	0.002091
2033.000000	0.001936
2032.000000	0.001821
2031.000000	0.001730
2030.000000	0.001655
2029.000000	0.001609
2028.000000	0.001606
2027.000000	0.001638
2026.000000	0.001667
2025.000000	0.001661
2024.000000	0.001626
2023.000000	0.001594
2022.000000	0.001578
2021.000000	0.001558
2020.000000	0.001508
2019.000000	0.001436
2018.000000	0.001382
2017.000000	0.001396
2016.000000	0.001495
2015.000000	0.001637
2014.000000	0.001734
2013.000000	0.001735
2012.000000	0.001682
2011.000000	0.001649
2010.000000	0.001634
2009.000000	0.001548
2008.000000	0.001343
2007.000000	0.001094
2006.000000	0.000927
2005.000000	0.000894
2004.000000	0.000958
2003.000000	0.001061
2002.000000	0.001170
2001.000000	0.001278
2000.000000	0.001388
1999.000000	0.001501
1998.000000	0.001606
1997.000000	0.001691
1996.000000	0.001755
1995.000000	0.001803
1994.000000	0.001844
1993.000000	0.001886
1992.000000	0.001941
1991.000000	0.002009
1990.000000	0.002066
1989.000000	0.002085
1988.000000	0.002087
1987.000000	0.002122
1986.000000	0.002219
1985.000000	0.002369
1984.000000	0.002556
1983.000000	0.002776
1982.000000	0.002980
1981.000000	0.003045
1980.000000	0.002839
1979.000000	0.002364
1978.000000	0.001796
1977.000000	0.001352
1976.000000	0.001110
1975.000000	0.001011
1974.000000	0.000981
1973.000000	0.000991
1972.000000	0.001025
1971.000000	0.001053
1970.000000	0.001056
1969.000000	0.001032
1968.000000	0.000980
1967.000000	0.000914
1966.000000	0.000871
1965.000000	0.000872
1964.000000	0.000891
1963.000000	0.000866
1962.000000	0.000769
1961.000000	0.000637
1960.000000	0.000533
1959.000000	0.000500
1958.000000	0.000549
1957.000000	0.000655
1956.000000	0.000769
1955.000000	0.000851
1954.000000	0.000897
1953.000000	0.000922
1952.000000	0.000935
1951.000000	0.000936
1950.000000	0.000929
1949.000000	0.000927
1948.000000	0.000941
1947.000000	0.000967
1946.000000	0.000985
1945.000000	0.000972
1944.000000	0.000933
1943.000000	0.000902
1942.000000	0.000919
1941.000000	0.000973
1940.000000	0.001017
1939.000000	0.001017
1938.000000	0.000987
1937.000000	0.000962
1936.000000	0.000950
1935.000000	0.000939
1934.000000	0.000929
1933.000000	0.000933
1932.000000	0.000957
1931.000000	0.001000
1930.000000	0.001042
1929.000000	0.001068
1928.000000	0.001084
1927.000000	0.001100
1926.000000	0.001109
1925.000000	0.001095
1924.000000	0.001070
1923.000000	0.001092
1922.000000	0.001186
1921.000000	0.001302
1920.000000	0.001380
1919.000000	0.001399
1918.000000	0.001382
1917.000000	0.001366
1916.000000	0.001373
1915.000000	0.001394
1914.000000	0.001399
1913.000000	0.001368
1912.000000	0.001313
1911.000000	0.001261
1910.000000	0.001225
1909.000000	0.001210
1908.000000	0.001222
1907.000000	0.001248
1906.000000	0.001260
1905.000000	0.001244
1904.000000	0.001234
1903.000000	0.001261
1902.000000	0.001299
1901.000000	0.001309
1900.000000	0.001299
1899.000000	0.001300
1898.000000	0.001310
1897.000000	0.001298
1896.000000	0.001272
1895.000000	0.001274
1894.000000	0.001313
1893.000000	0.001345
1892.000000	0.001339
1891.000000	0.001298
1890.000000	0.001245
1889.000000	0.001216
1888.000000	0.001243
1887.000000	0.001308
1886.000000	0.001358
1885.000000	0.001356
1884.000000	0.001328
1883.000000	0.001317
1882.000000	0.001315
1881.000000	0.001295
1880.000000	0.001270
1879.000000	0.001269
1878.000000	0.001290
1877.000000	0.001304
1876.000000	0.001305
1875.000000	0.001317
1874.000000	0.001342
1873.000000	0.001358
1872.000000	0.001364
1871.000000	0.001376
1870.000000	0.001381
1869.000000	0.001342
1868.000000	0.001301
1867.000000	0.001321
1866.000000	0.001371
1865.000000	0.001385
1864.000000	0.001355
1863.000000	0.001325
1862.000000	0.001315
1861.000000	0.001302
1860.000000	0.001278
1859.000000	0.001268
1858.000000	0.001279
1857.000000	0.001289
1856.000000	0.001290
1855.000000	0.001289
1854.000000	0.001283
1853.000000	0.001267
1852.000000	0.001260
1851.000000	0.001268
1850.000000	0.001272
1849.000000	0.001258
1848.000000	0.001247
1847.000000	0.001268
1846.000000	0.001311
1845.000000	0.001335
1844.000000	0.001335
1843.000000	0.001362
1842.000000	0.001410
1841.000000	0.001439
1840.000000	0.001428
1839.000000	0.001380
1838.000000	0.001321
1837.000000	0.001279
1836.000000	0.001269
1835.000000	0.001288
1834.000000	0.001323
1833.000000	0.001361
1832.000000	0.001376
1831.000000	0.001344
1830.000000	0.001303
1829.000000	0.001318
1828.000000	0.001368
1827.000000	0.001388
1826.000000	0.001368
1825.000000	0.001334
1824.000000	0.001317
1823.000000	0.001332
1822.000000	0.001356
1821.000000	0.001347
1820.000000	0.001274
1819.000000	0.001166
1818.000000	0.001084
1817.000000	0.001048
1816.000000	0.001053
1815.000000	0.001104
1814.000000	0.001185
1813.000000	0.001247
1812.000000	0.001253
1811.000000	0.001257
1810.000000	0.001307
1809.000000	0.001353
1808.000000	0.001354
1807.000000	0.001357
1806.000000	0.001387
1805.000000	0.001396
1804.000000	0.001354
1803.000000	0.001315
1802.000000	0.001347
1801.000000	0.001430
1800.000000	0.001501
1799.000000	0.001548
1798.000000	0.001570
1797.000000	0.001551
1796.000000	0.001523
1795.000000	0.001552
1794.000000	0.001646
1793.000000	0.001713
1792.000000	0.001684
1791.000000	0.001647
1790.000000	0.001657
1789.000000	0.001660
1788.000000	0.001623
1787.000000	0.001571
1786.000000	0.001534
1785.000000	0.001512
1784.000000	0.001510
1783.000000	0.001520
1782.000000	0.001526
1781.000000	0.001520
1780.000000	0.001516
1779.000000	0.001533
1778.000000	0.001557
1777.000000	0.001573
1776.000000	0.001588
1775.000000	0.001620
1774.000000	0.001685
1773.000000	0.001763
1772.000000	0.001795
1771.000000	0.001776
1770.000000	0.001739
1769.000000	0.001703
1768.000000	0.001664
1767.000000	0.001631
1766.000000	0.001626
1765.000000	0.001633
1764.000000	0.001605
1763.000000	0.001518
1762.000000	0.001442
1761.000000	0.001457
1760.000000	0.001514
1759.000000	0.001537
1758.000000	0.001533
1757.000000	0.001565
1756.000000	0.001639
1755.000000	0.001691
1754.000000	0.001722
1753.000000	0.001790
1752.000000	0.001885
1751.000000	0.001913
1750.000000	0.001868
1749.000000	0.001838
1748.000000	0.001831
1747.000000	0.001773
1746.000000	0.001651
1745.000000	0.001520
1744.000000	0.001396
1743.000000	0.001278
1742.000000	0.001212
1741.000000	0.001213
1740.000000	0.001208
1739.000000	0.001146
1738.000000	0.001096
1737.000000	0.001120
1736.000000	0.001223
1735.000000	0.001329
1734.000000	0.001358
1733.000000	0.001407
1732.000000	0.001482
1731.000000	0.001507
1730.000000	0.001484
1729.000000	0.001505
1728.000000	0.001596
1727.000000	0.001684
1726.000000	0.001735
1725.000000	0.001784
1724.000000	0.001853
1723.000000	0.001936
1722.000000	0.002024
1721.000000	0.002118
1720.000000	0.002217
1719.000000	0.002315
1718.000000	0.002429
1717.000000	0.002530
1716.000000	0.002602
1715.000000	0.002684
1714.000000	0.002757
1713.000000	0.002786
1712.000000	0.002810
1711.000000	0.002878
1710.000000	0.003012
1709.000000	0.003209
1708.000000	0.003449
1707.000000	0.003718
1706.000000	0.004007
1705.000000	0.004305
1704.000000	0.004620
1703.000000	0.004998
1702.000000	0.005518
1701.000000	0.006108
1700.000000	0.006520
1699.000000	0.006822
1698.000000	0.007046
1697.000000	0.007096
1696.000000	0.007009
1695.000000	0.007031
1694.000000	0.007208
1693.000000	0.007381
1692.000000	0.007498
1691.000000	0.007592
1690.000000	0.007711
1689.000000	0.007876
1688.000000	0.008074
1687.000000	0.008314
1686.000000	0.008619
1685.000000	0.008901
1684.000000	0.009059
1683.000000	0.009236
1682.000000	0.009388
1681.000000	0.009527
1680.000000	0.009713
1679.000000	0.009960
1678.000000	0.010238
1677.000000	0.010543
1676.000000	0.010862
1675.000000	0.011149
1674.000000	0.011419
1673.000000	0.011711
1672.000000	0.012001
1671.000000	0.012228
1670.000000	0.012338
1669.000000	0.012419
1668.000000	0.012581
1667.000000	0.012786
1666.000000	0.013008
1665.000000	0.013263
1664.000000	0.013540
1663.000000	0.013786
1662.000000	0.013991
1661.000000	0.014209
1660.000000	0.014462
1659.000000	0.014703
1658.000000	0.014895
1657.000000	0.015060
1656.000000	0.015268
1655.000000	0.015528
1654.000000	0.015714
1653.000000	0.015741
1652.000000	0.015993
1651.000000	0.016340
1650.000000	0.016706
1649.000000	0.017002
1648.000000	0.017202
1647.000000	0.017282
1646.000000	0.017329
1645.000000	0.017390
1644.000000	0.017473
1643.000000	0.017586
1642.000000	0.017715
1641.000000	0.017861
1640.000000	0.018052
1639.000000	0.018296
1638.000000	0.018557
1637.000000	0.018777
1636.000000	0.018914
1635.000000	0.018987
1634.000000	0.019052
1633.000000	0.019138
1632.000000	0.019302
1631.000000	0.019536
1630.000000	0.019778
1629.000000	0.019990
1628.000000	0.020213
1627.000000	0.020475
1626.000000	0.020747
1625.000000	0.021012
1624.000000	0.021262
1623.000000	0.021462
1622.000000	0.021603
1621.000000	0.021751
1620.000000	0.021952
1619.000000	0.022146
1618.000000	0.022209
1617.000000	0.022073
1616.000000	0.021882
1615.000000	0.021731
1614.000000	0.021540
1613.000000	0.021287
1612.000000	0.021008
1611.000000	0.020680
1610.000000	0.020238
1609.000000	0.019711
1608.000000	0.019205
1607.000000	0.018737
1606.000000	0.018254
1605.000000	0.017766
1604.000000	0.017312
1603.000000	0.016869
1602.000000	0.016405
1601.000000	0.015966
1600.000000	0.015605
1599.000000	0.015296
1598.000000	0.014985
1597.000000	0.014678
1596.000000	0.014416
1595.000000	0.014194
1594.000000	0.013968
1593.000000	0.013736
1592.000000	0.013541
1591.000000	0.013375
1590.000000	0.013197
1589.000000	0.013019
1588.000000	0.012897
1587.000000	0.012823
1586.000000	0.012742
1585.000000	0.012666
1584.000000	0.012649
1583.000000	0.012670
1582.000000	0.012661
1581.000000	0.012640
1580.000000	0.012666
1579.000000	0.012729
1578.000000	0.012779
1577.000000	0.012821
1576.000000	0.012921
1575.000000	0.013061
1574.000000	0.013155
1573.000000	0.013232
1572.000000	0.013350
1571.000000	0.013504
1570.000000	0.013628
1569.000000	0.013762
1568.000000	0.013966
1567.000000	0.014150
1566.000000	0.014270
1565.000000	0.014365
1564.000000	0.014474
1563.000000	0.014573
1562.000000	0.014680
1561.000000	0.014975
1560.000000	0.015533
1559.000000	0.015938
1558.000000	0.016051
1557.000000	0.016072
1556.000000	0.016117
1555.000000	0.016197
1554.000000	0.016319
1553.000000	0.016483
1552.000000	0.016636
1551.000000	0.016752
1550.000000	0.016890
1549.000000	0.017127
1548.000000	0.017439
1547.000000	0.017727
1546.000000	0.017939
1545.000000	0.018092
1544.000000	0.018283
1543.000000	0.018623
1542.000000	0.019093
1541.000000	0.019468
1540.000000	0.019573
1539.000000	0.019578
1538.000000	0.019610
1537.000000	0.019698
1536.000000	0.019841
1535.000000	0.019991
1534.000000	0.020084
1533.000000	0.020126
1532.000000	0.020222
1531.000000	0.020416
1530.000000	0.020651
1529.000000	0.020826
1528.000000	0.020924
1527.000000	0.021039
1526.000000	0.021261
1525.000000	0.021540
1524.000000	0.021776
1523.000000	0.021944
1522.000000	0.022047
1521.000000	0.022121
1520.000000	0.022250
1519.000000	0.022424
1518.000000	0.022581
1517.000000	0.022667
1516.000000	0.022728
1515.000000	0.022837
1514.000000	0.022972
1513.000000	0.023037
1512.000000	0.022957
1511.000000	0.022806
1510.000000	0.022718
1509.000000	0.022698
1508.000000	0.022562
1507.000000	0.022246
1506.000000	0.022013
1505.000000	0.021830
1504.000000	0.021578
1503.000000	0.021322
1502.000000	0.021086
1501.000000	0.020860
1500.000000	0.020603
1499.000000	0.020307
1498.000000	0.020010
1497.000000	0.019669
1496.000000	0.019234
1495.000000	0.018831
1494.000000	0.018552
1493.000000	0.018325
1492.000000	0.018026
1491.000000	0.017598
1490.000000	0.017115
1489.000000	0.016673
1488.000000	0.016286
1487.000000	0.015985
1486.000000	0.015732
1485.000000	0.015480
1484.000000	0.015235
1483.000000	0.015005
1482.000000	0.014798
1481.000000	0.014622
1480.000000	0.014490
1479.000000	0.014404
1478.000000	0.014343
1477.000000	0.014278
1476.000000	0.014244
1475.000000	0.014334
1474.000000	0.014514
1473.000000	0.014596
1472.000000	0.014449
1471.000000	0.014201
1470.000000	0.013986
1469.000000	0.013817
1468.000000	0.013681
1467.000000	0.013618
1466.000000	0.013676
1465.000000	0.013816
1464.000000	0.013937
1463.000000	0.013979
1462.000000	0.013961
1461.000000	0.013888
1460.000000	0.013761
1459.000000	0.013603
1458.000000	0.013514
1457.000000	0.013580
1456.000000	0.013738
1455.000000	0.013844
1454.000000	0.013917
1453.000000	0.013984
1452.000000	0.014035
1451.000000	0.014077
1450.000000	0.014135
1449.000000	0.014197
1448.000000	0.014217
1447.000000	0.014211
1446.000000	0.014241
1445.000000	0.014313
1444.000000	0.014368
1443.000000	0.014384
1442.000000	0.014395
1441.000000	0.014428
1440.000000	0.014443
1439.000000	0.014401
1438.000000	0.014334
1437.000000	0.014274
1436.000000	0.014210
1435.000000	0.014140
1434.000000	0.014085
1433.000000	0.014032
1432.000000	0.013948
1431.000000	0.013817
1430.000000	0.013686
1429.000000	0.013609
1428.000000	0.013571
1427.000000	0.013529
1426.000000	0.013483
1425.000000	0.013479
1424.000000	0.013513
1423.000000	0.013534
1422.000000	0.013536
1421.000000	0.013555
1420.000000	0.013565
1419.000000	0.013522
1418.000000	0.013567
1417.000000	0.013746
1416.000000	0.013917
1415.000000	0.014007
1414.000000	0.014061
1413.000000	0.014138
1412.000000	0.014222
1411.000000	0.014273
1410.000000	0.014332
1409.000000	0.014438
1408.000000	0.014543
1407.000000	0.014588
1406.000000	0.014588
1405.000000	0.014614
1404.000000	0.014675
1403.000000	0.014718
1402.000000	0.014745
1401.000000	0.014779
1400.000000	0.014803
1399.000000	0.014781
1398.000000	0.014736
1397.000000	0.014702
1396.000000	0.014660
1395.000000	0.014584
1394.000000	0.014527
1393.000000	0.014547
1392.000000	0.014573
1391.000000	0.014522
1390.000000	0.014398
1389.000000	0.014262
1388.000000	0.014152
1387.000000	0.014082
1386.000000	0.014061
1385.000000	0.014076
1384.000000	0.014084
1383.000000	0.014057
1382.000000	0.014003
1381.000000	0.013945
1380.000000	0.013894
1379.000000	0.013846
1378.000000	0.013798
1377.000000	0.013746
1376.000000	0.013675
1375.000000	0.013567
1374.000000	0.013454
1373.000000	0.013403
1372.000000	0.013412
1371.000000	0.013411
1370.000000	0.013343
1369.000000	0.013244
1368.000000	0.013169
1367.000000	0.013115
1366.000000	0.013032
1365.000000	0.012885
1364.000000	0.012690
1363.000000	0.012500
1362.000000	0.012375
1361.000000	0.012326
1360.000000	0.012314
1359.000000	0.012297
1358.000000	0.012244
1357.000000	0.012161
1356.000000	0.012075
1355.000000	0.012007
1354.000000	0.011964
1353.000000	0.011937
1352.000000	0.011919
1351.000000	0.011909
1350.000000	0.011889
1349.000000	0.011869
1348.000000	0.011864
1347.000000	0.011873
1346.000000	0.011872
1345.000000	0.011861
1344.000000	0.011853
1343.000000	0.011839
1342.000000	0.011789
1341.000000	0.011705
1340.000000	0.011637
1339.000000	0.011631
1338.000000	0.011691
1337.000000	0.011783
1336.000000	0.011872
1335.000000	0.011932
1334.000000	0.011949
1333.000000	0.011934
1332.000000	0.011909
1331.000000	0.011883
1330.000000	0.011855
1329.000000	0.011832
1328.000000	0.011823
1327.000000	0.011820
1326.000000	0.011801
1325.000000	0.011768
1324.000000	0.011739
1323.000000	0.011712
1322.000000	0.011674
1321.000000	0.011634
1320.000000	0.011606
1319.000000	0.011589
1318.000000	0.011575
1317.000000	0.011566
1316.000000	0.011557
1315.000000	0.011531
1314.000000	0.011486
1313.000000	0.011454
1312.000000	0.011457
1311.000000	0.011476
1310.000000	0.011482
1309.000000	0.011472
1308.000000	0.011465
1307.000000	0.011464
1306.000000	0.011452
1305.000000	0.011427
1304.000000	0.011399
1303.000000	0.011373
1302.000000	0.011347
1301.000000	0.011326
1300.000000	0.011309
1299.000000	0.011286
1298.000000	0.011255
1297.000000	0.011232
1296.000000	0.011227
1295.000000	0.011229
1294.000000	0.011219
1293.000000	0.011203
1292.000000	0.011194
1291.000000	0.011195
1290.000000	0.011198
1289.000000	0.011207
1288.000000	0.011227
1287.000000	0.011257
1286.000000	0.011294
1285.000000	0.011335
1284.000000	0.011376
1283.000000	0.011404
1282.000000	0.011424
1281.000000	0.011456
1280.000000	0.011515
1279.000000	0.011590
1278.000000	0.011667
1277.000000	0.011744
1276.000000	0.011832
1275.000000	0.011929
1274.000000	0.012029
1273.000000	0.012138
1272.000000	0.012260
1271.000000	0.012389
1270.000000	0.012521
1269.000000	0.012657
1268.000000	0.012794
1267.000000	0.012915
1266.000000	0.013012
1265.000000	0.013103
1264.000000	0.013198
1263.000000	0.013284
1262.000000	0.013351
1261.000000	0.013406
1260.000000	0.013462
1259.000000	0.013513
1258.000000	0.013556
1257.000000	0.013602
1256.000000	0.013662
1255.000000	0.013725
1254.000000	0.013783
1253.000000	0.013844
1252.000000	0.013916
1251.000000	0.013986
1250.000000	0.014046
1249.000000	0.014108
1248.000000	0.014183
1247.000000	0.014260
1246.000000	0.014331
1245.000000	0.014405
1244.000000	0.014491
1243.000000	0.014579
1242.000000	0.014659
1241.000000	0.014738
1240.000000	0.014825
1239.000000	0.014913
1238.000000	0.014995
1237.000000	0.015075
1236.000000	0.015153
1235.000000	0.015221
1234.000000	0.015278
1233.000000	0.015334
1232.000000	0.015387
1231.000000	0.015419
1230.000000	0.015423
1229.000000	0.015414
1228.000000	0.015401
1227.000000	0.015372
1226.000000	0.015319
1225.000000	0.015256
1224.000000	0.015197
1223.000000	0.015135
1222.000000	0.015061
1221.000000	0.014980
1220.000000	0.014893
1219.000000	0.014793
1218.000000	0.014678
1217.000000	0.014559
1216.000000	0.014441
1215.000000	0.014314
1214.000000	0.014175
1213.000000	0.014038
1212.000000	0.013909
1211.000000	0.013777
1210.000000	0.013631
1209.000000	0.013479
1208.000000	0.013327
1207.000000	0.013172
1206.000000	0.013021
1205.000000	0.012888
1204.000000	0.012769
1203.000000	0.012644
1202.000000	0.012499
1201.000000	0.012345
1200.000000	0.012199
1199.000000	0.012060
1198.000000	0.011930
1197.000000	0.011816
1196.000000	0.011717
1195.000000	0.011620
1194.000000	0.011519
1193.000000	0.011424
1192.000000	0.011343
1191.000000	0.011269
1190.000000	0.011193
1189.000000	0.011123
1188.000000	0.011060
1187.000000	0.010997
1186.000000	0.010935
1185.000000	0.010885
1184.000000	0.010853
1183.000000	0.010824
1182.000000	0.010791
1181.000000	0.010763
1180.000000	0.010753
1179.000000	0.010763
1178.000000	0.010793
1177.000000	0.010848
1176.000000	0.010925
1175.000000	0.011008
1174.000000	0.011085
1173.000000	0.011162
1172.000000	0.011242
1171.000000	0.011317
1170.000000	0.011380
1169.000000	0.011439
1168.000000	0.011499
1167.000000	0.011545
1166.000000	0.011576
1165.000000	0.011606
1164.000000	0.011645
1163.000000	0.011684
1162.000000	0.011711
1161.000000	0.011732
1160.000000	0.011752
1159.000000	0.011765
1158.000000	0.011764
1157.000000	0.011755
1156.000000	0.011742
1155.000000	0.011717
1154.000000	0.011682
1153.000000	0.011649
1152.000000	0.011619
1151.000000	0.011573
1150.000000	0.011502
1149.000000	0.011423
1148.000000	0.011355
1147.000000	0.011294
1146.000000	0.011224
1145.000000	0.011147
1144.000000	0.011072
1143.000000	0.011003
1142.000000	0.010944
1141.000000	0.010899
1140.000000	0.010868
1139.000000	0.010837
1138.000000	0.010801
1137.000000	0.010769
1136.000000	0.010745
1135.000000	0.010721
1134.000000	0.010694
1133.000000	0.010681
1132.000000	0.010689
1131.000000	0.010704
1130.000000	0.010710
1129.000000	0.010710
1128.000000	0.010711
1127.000000	0.010709
1126.000000	0.010697
1125.000000	0.010680
1124.000000	0.010666
1123.000000	0.010654
1122.000000	0.010644
1121.000000	0.010643
1120.000000	0.010649
1119.000000	0.010645
1118.000000	0.010622
1117.000000	0.010592
1116.000000	0.010570
1115.000000	0.010553
1114.000000	0.010536
1113.000000	0.010526
1112.000000	0.010526
1111.000000	0.010527
1110.000000	0.010523
1109.000000	0.010523
1108.000000	0.010528
1107.000000	0.010532
1106.000000	0.010537
1105.000000	0.010560
1104.000000	0.010608
1103.000000	0.010659
1102.000000	0.010692
1101.000000	0.010715
1100.000000	0.010733
1099.000000	0.010752
1098.000000	0.010777
1097.000000	0.010822
1096.000000	0.010887
1095.000000	0.010954
1094.000000	0.011013
1093.000000	0.011080
1092.000000	0.011171
1091.000000	0.011277
1090.000000	0.011388
1089.000000	0.011505
1088.000000	0.011634
1087.000000	0.011773
1086.000000	0.011922
1085.000000	0.012092
1084.000000	0.012281
1083.000000	0.012470
1082.000000	0.012647
1081.000000	0.012823
1080.000000	0.013007
1079.000000	0.013184
1078.000000	0.013345
1077.000000	0.013501
1076.000000	0.013655
1075.000000	0.013795
1074.000000	0.013912
1073.000000	0.014022
1072.000000	0.014132
1071.000000	0.014223
1070.000000	0.014279
1069.000000	0.014314
1068.000000	0.014345
1067.000000	0.014369
1066.000000	0.014376
1065.000000	0.014373
1064.000000	0.014364
1063.000000	0.014341
1062.000000	0.014294
1061.000000	0.014232
1060.000000	0.014165
1059.000000	0.014096
1058.000000	0.014034
1057.000000	0.013994
1056.000000	0.013976
1055.000000	0.013954
1054.000000	0.013912
1053.000000	0.013863
1052.000000	0.013822
1051.000000	0.013778
1050.000000	0.013715
1049.000000	0.013636
1048.000000	0.013551
1047.000000	0.013464
1046.000000	0.013381
1045.000000	0.013320
1044.000000	0.013283
1043.000000	0.013243
1042.000000	0.013179
1041.000000	0.013096
1040.000000	0.013010
1039.000000	0.012927
1038.000000	0.012845
1037.000000	0.012764
1036.000000	0.012682
1035.000000	0.012586
1034.000000	0.012478
1033.000000	0.012373
1032.000000	0.012281
1031.000000	0.012191
1030.000000	0.012091
1029.000000	0.011984
1028.000000	0.011875
1027.000000	0.011759
1026.000000	0.011644
1025.000000	0.011550
1024.000000	0.011484
1023.000000	0.011426
1022.000000	0.011359
1021.000000	0.011296
1020.000000	0.011252
1019.000000	0.011227
1018.000000	0.011210
1017.000000	0.011198
1016.000000	0.011183
1015.000000	0.011155
1014.000000	0.011113
1013.000000	0.011069
1012.000000	0.011029
1011.000000	0.010979
1010.000000	0.010914
1009.000000	0.010847
1008.000000	0.010790
1007.000000	0.010738
1006.000000	0.010686
1005.000000	0.010646
1004.000000	0.010629
1003.000000	0.010626
1002.000000	0.010625
1001.000000	0.010622
1000.000000	0.010620
999.000000	0.010613
998.000000	0.010600
997.000000	0.010586
996.000000	0.010573
995.000000	0.010543
994.000000	0.010489
993.000000	0.010420
992.000000	0.010350
991.000000	0.010275
990.000000	0.010192
989.000000	0.010112
988.000000	0.010049
987.000000	0.010000
986.000000	0.009961
985.000000	0.009934
984.000000	0.009929
983.000000	0.009944
982.000000	0.009975
981.000000	0.010021
980.000000	0.010074
979.000000	0.010119
978.000000	0.010153
977.000000	0.010190
976.000000	0.010236
975.000000	0.010279
974.000000	0.010304
973.000000	0.010312
972.000000	0.010310
971.000000	0.010291
970.000000	0.010251
969.000000	0.010202
968.000000	0.010158
967.000000	0.010117
966.000000	0.010072
965.000000	0.010031
964.000000	0.010000
963.000000	0.009971
962.000000	0.009935
961.000000	0.009894
960.000000	0.009861
959.000000	0.009840
958.000000	0.009828
957.000000	0.009822
956.000000	0.009823
955.000000	0.009823
954.000000	0.009813
953.000000	0.009793
952.000000	0.009762
951.000000	0.009725
950.000000	0.009695
949.000000	0.009685
948.000000	0.009693
947.000000	0.009699
946.000000	0.009693
945.000000	0.009687
944.000000	0.009687
943.000000	0.009680
942.000000	0.009658
941.000000	0.009629
940.000000	0.009605
939.000000	0.009585
938.000000	0.009562
937.000000	0.009539
936.000000	0.009520
935.000000	0.009504
934.000000	0.009489
933.000000	0.009479
932.000000	0.009466
931.000000	0.009435
930.000000	0.009386
929.000000	0.009335
928.000000	0.009298
927.000000	0.009271
926.000000	0.009242
925.000000	0.009208
924.000000	0.009166
923.000000	0.009112
922.000000	0.009050
921.000000	0.008996
920.000000	0.008959
919.000000	0.008927
918.000000	0.008889
917.000000	0.008851
916.000000	0.008820
915.000000	0.008794
914.000000	0.008767
913.000000	0.008745
912.000000	0.008732
911.000000	0.008728
910.000000	0.008731
909.000000	0.008742
908.000000	0.008756
907.000000	0.008756
906.000000	0.008737
905.000000	0.008715
904.000000	0.008706
903.000000	0.008706
902.000000	0.008704
901.000000	0.008700
900.000000	0.008693
899.000000	0.008676
898.000000	0.008642
897.000000	0.008603
896.000000	0.008568
895.000000	0.008542
894.000000	0.008521
893.000000	0.008507
892.000000	0.008496
891.000000	0.008482
890.000000	0.008460
889.000000	0.008434
888.000000	0.008405
887.000000	0.008369
886.000000	0.008333
885.000000	0.008315
884.000000	0.008318
883.000000	0.008326
882.000000	0.008331
881.000000	0.008341
880.000000	0.008358
879.000000	0.008363
878.000000	0.008346
877.000000	0.008322
876.000000	0.008307
875.000000	0.008296
874.000000	0.008275
873.000000	0.008244
872.000000	0.008212
871.000000	0.008182
870.000000	0.008162
869.000000	0.008163
868.000000	0.008187
867.000000	0.008215
866.000000	0.008228
865.000000	0.008231
864.000000	0.008238
863.000000	0.008252
862.000000	0.008273
861.000000	0.008302
860.000000	0.008334
859.000000	0.008366
858.000000	0.008406
857.000000	0.008472
856.000000	0.008562
855.000000	0.008650
854.000000	0.008717
853.000000	0.008765
852.000000	0.008795
851.000000	0.008798
850.000000	0.008777
849.000000	0.008749
848.000000	0.008730
847.000000	0.008715
846.000000	0.008700
845.000000	0.008701
844.000000	0.008723
843.000000	0.008752
842.000000	0.008774
841.000000	0.008797
840.000000	0.008832
839.000000	0.008874
838.000000	0.008914
837.000000	0.008956
836.000000	0.009008
835.000000	0.009072
834.000000	0.009146
833.000000	0.009229
832.000000	0.009309
831.000000	0.009371
830.000000	0.009413
829.000000	0.009452
828.000000	0.009494
827.000000	0.009530
826.000000	0.009559
825.000000	0.009589
824.000000	0.009614
823.000000	0.009609
822.000000	0.009576
821.000000	0.009548
820.000000	0.009547
819.000000	0.009554
818.000000	0.009553
817.000000	0.009558
816.000000	0.009583
815.000000	0.009619
814.000000	0.009647
813.000000	0.009669
812.000000	0.009692
811.000000	0.009713
810.000000	0.009726
809.000000	0.009740
808.000000	0.009760
807.000000	0.009783
806.000000	0.009806
805.000000	0.009840
804.000000	0.009880
803.000000	0.009903
802.000000	0.009902
801.000000	0.009899
800.000000	0.009920
799.000000	0.009958
798.000000	0.009998
797.000000	0.010039
796.000000	0.010080
795.000000	0.010106
794.000000	0.010111
793.000000	0.010111
792.000000	0.010130
791.000000	0.010168
790.000000	0.010217
789.000000	0.010275
788.000000	0.010338
787.000000	0.010397
786.000000	0.010447
785.000000	0.010494
784.000000	0.010541
783.000000	0.010577
782.000000	0.010608
781.000000	0.010658
780.000000	0.010736
779.000000	0.010818
778.000000	0.010882
777.000000	0.010938
776.000000	0.011001
775.000000	0.011069
774.000000	0.011134
773.000000	0.011203
772.000000	0.011283
771.000000	0.011363
770.000000	0.011435
769.000000	0.011506
768.000000	0.011582
767.000000	0.011648
766.000000	0.011689
765.000000	0.011721
764.000000	0.011765
763.000000	0.011821
762.000000	0.011877
761.000000	0.011926
760.000000	0.011967
759.000000	0.011992
758.000000	0.012001
757.000000	0.012008
756.000000	0.012029
755.000000	0.012064
754.000000	0.012112
753.000000	0.012181
752.000000	0.012269
751.000000	0.012359
750.000000	0.012444
749.000000	0.012534
748.000000	0.012634
747.000000	0.012726
746.000000	0.012801
745.000000	0.012879
744.000000	0.012976
743.000000	0.013085
742.000000	0.013192
741.000000	0.013295
740.000000	0.013400
739.000000	0.013499
738.000000	0.013595
737.000000	0.013706
736.000000	0.013836
735.000000	0.013964
734.000000	0.014082
733.000000	0.014220
732.000000	0.014401
731.000000	0.014606
730.000000	0.014789
729.000000	0.014932
728.000000	0.015040
727.000000	0.015122
726.000000	0.015196
725.000000	0.015288
724.000000	0.015418
723.000000	0.015578
722.000000	0.015757
721.000000	0.015948
720.000000	0.016128
719.000000	0.016258
718.000000	0.016327
717.000000	0.016365
716.000000	0.016415
715.000000	0.016487
714.000000	0.016579
713.000000	0.016693
712.000000	0.016824
711.000000	0.016950
710.000000	0.017052
709.000000	0.017148
708.000000	0.017257
707.000000	0.017376
706.000000	0.017500
705.000000	0.017637
704.000000	0.017790
703.000000	0.017944
702.000000	0.018082
701.000000	0.018206
700.000000	0.018325
699.000000	0.018428
698.000000	0.018507
697.000000	0.018574
696.000000	0.018645
695.000000	0.018724
694.000000	0.018811
693.000000	0.018910
692.000000	0.019013
691.000000	0.019100
690.000000	0.019163
689.000000	0.019220
688.000000	0.019288
687.000000	0.019362
686.000000	0.019434
685.000000	0.019509
684.000000	0.019591
683.000000	0.019668
682.000000	0.019730
681.000000	0.019783
680.000000	0.019834
679.000000	0.019878
678.000000	0.019903
677.000000	0.019925
676.000000	0.019966
675.000000	0.020030
674.000000	0.020093
673.000000	0.020132
672.000000	0.020144
671.000000	0.020142
670.000000	0.020148
669.000000	0.020167
668.000000	0.020176
667.000000	0.020164
666.000000	0.020214
665.000000	0.020369
664.000000	0.020562
663.000000	0.020705
662.000000	0.020772
661.000000	0.020807
660.000000	0.020861
659.000000	0.020933
658.000000	0.021007
657.000000	0.021086
656.000000	0.021169
655.000000	0.021232
654.000000	0.021268
653.000000	0.021311
652.000000	0.021389
651.000000	0.021479
650.000000	0.021556
649.000000	0.021631
648.000000	0.021718
647.000000	0.021801
646.000000	0.021877
645.000000	0.021967
644.000000	0.022074
643.000000	0.022160
642.000000	0.022196
641.000000	0.022216
640.000000	0.022260
639.000000	0.022324
638.000000	0.022388
637.000000	0.022463
636.000000	0.022562
635.000000	0.022668
634.000000	0.022758
633.000000	0.022844
632.000000	0.022935
631.000000	0.023009
630.000000	0.023055
629.000000	0.023091
628.000000	0.023131
627.000000	0.023161
626.000000	0.023174
625.000000	0.023197
624.000000	0.023250
623.000000	0.023310
622.000000	0.023360
621.000000	0.023418
620.000000	0.023494
619.000000	0.023556
618.000000	0.023581
617.000000	0.023599
616.000000	0.023638
615.000000	0.023690
614.000000	0.023735
613.000000	0.023777
612.000000	0.023819
611.000000	0.023851
610.000000	0.023881
609.000000	0.023930
608.000000	0.023983
607.000000	0.023989
606.000000	0.023939
605.000000	0.023886
604.000000	0.023869
603.000000	0.023866
602.000000	0.023847
601.000000	0.023827
600.000000	0.023827
599.000000	0.023826
598.000000	0.023801
597.000000	0.023771
596.000000	0.023749
595.000000	0.023707
594.000000	0.023635
593.000000	0.023586
592.000000	0.023604
591.000000	0.023659
590.000000	0.023698
589.000000	0.023723
588.000000	0.023758
587.000000	0.023795
586.000000	0.023818
585.000000	0.023841
584.000000	0.023870
583.000000	0.023876
582.000000	0.023860
581.000000	0.023873
580.000000	0.023932
579.000000	0.023978
578.000000	0.023982
577.000000	0.024000
576.000000	0.024069
575.000000	0.024139
574.000000	0.024173
573.000000	0.024210
572.000000	0.024271
571.000000	0.024310
570.000000	0.024311
569.000000	0.024347
568.000000	0.024455
567.000000	0.024577
566.000000	0.024676
565.000000	0.024807
564.000000	0.024999
563.000000	0.025173
562.000000	0.025283
561.000000	0.025408
560.000000	0.025611
559.000000	0.025841
558.000000	0.026043
557.000000	0.026263
556.000000	0.026545
555.000000	0.026843
554.000000	0.027097
553.000000	0.027322
552.000000	0.027529
551.000000	0.027662
550.000000	0.027705
549.000000	0.027751
548.000000	0.027863
547.000000	0.027977
546.000000	0.028027
545.000000	0.028053
544.000000	0.028105
543.000000	0.028142
542.000000	0.028121
541.000000	0.028083
540.000000	0.028064
539.000000	0.028026
538.000000	0.027963
537.000000	0.027937
536.000000	0.027972
535.000000	0.027988
534.000000	0.027956
533.000000	0.027936
532.000000	0.027958
531.000000	0.027970
530.000000	0.027943
529.000000	0.027945
528.000000	0.028017
527.000000	0.028077
526.000000	0.028042
525.000000	0.027959
524.000000	0.027894
523.000000	0.027818
522.000000	0.027713
521.000000	0.027635
520.000000	0.027614
519.000000	0.027593
518.000000	0.027560
517.000000	0.027597
516.000000	0.027726
515.000000	0.027845
514.000000	0.027887
513.000000	0.027889
512.000000	0.027893
511.000000	0.027879
510.000000	0.027848
509.000000	0.027847
508.000000	0.027905
507.000000	0.027959
506.000000	0.027954
505.000000	0.027941
504.000000	0.027958
503.000000	0.027958
502.000000	0.027898
501.000000	0.027829
500.000000	0.027822
499.000000	0.027858
498.000000	0.027907
497.000000	0.027986
496.000000	0.028085
495.000000	0.028144
494.000000	0.028137
493.000000	0.028131
492.000000	0.028189
491.000000	0.028236
490.000000	0.028202
489.000000	0.028138
488.000000	0.028133
487.000000	0.028174
486.000000	0.028197
485.000000	0.028216
484.000000	0.028268
483.000000	0.028285
482.000000	0.028206
481.000000	0.028138
480.000000	0.028197
479.000000	0.028288
478.000000	0.028266
477.000000	0.028155
476.000000	0.028060
475.000000	0.027967
474.000000	0.027863
473.000000	0.027874
472.000000	0.028088
471.000000	0.028288
470.000000	0.028282
469.000000	0.028200
468.000000	0.028222
467.000000	0.028294
466.000000	0.028295
465.000000	0.028224
464.000000	0.028113
463.000000	0.027926
462.000000	0.027697
461.000000	0.027621
460.000000	0.027781
459.000000	0.027989
458.000000	0.028047
457.000000	0.028005
456.000000	0.027931
455.000000	0.027734
454.000000	0.027410
453.000000	0.027157
452.000000	0.027135
451.000000	0.027218
450.000000	0.027245
449.000000	0.027224
448.000000	0.027208
447.000000	0.027163
446.000000	0.027095
445.000000	0.027087
444.000000	0.027147
443.000000	0.027185
442.000000	0.027202
441.000000	0.027299
440.000000	0.027424
439.000000	0.027389
438.000000	0.027152
437.000000	0.026905
436.000000	0.026816
435.000000	0.026847
434.000000	0.026920
433.000000	0.027039
432.000000	0.027170
431.000000	0.027225
430.000000	0.027230
429.000000	0.027348
428.000000	0.027628
427.000000	0.027881
426.000000	0.027937
425.000000	0.027863
424.000000	0.027799
423.000000	0.027700
422.000000	0.027509
421.000000	0.027378
420.000000	0.027530
419.000000	0.027909
418.000000	0.028206
417.000000	0.028410
416.000000	0.028508
415.000000	0.028307
414.000000	0.027875
413.000000	0.027635
412.000000	0.027816
411.000000	0.028146
410.000000	0.028241
409.000000	0.028150
408.000000	0.028081
407.000000	0.027921
406.000000	0.027511
405.000000	0.027055
404.000000	0.026756
403.000000	0.026448
402.000000	0.025981
401.000000	0.025568
400.000000	0.025488
