##TITLE= Sample 143 By YargerLab Date Wednesday, June 05 2024
##JCAMP-DX= 4.24
##DATA TYPE= INFRARED SPECTRUM
##ORIGIN= Exported PE Spectrum Data File
##OWNER= Yarger Lab
##DATE= 24/06/05
##TIME= 19:56:33.00
##SPECTROMETER/DATA SYSTEM= PERKIN-ELMER Spectrum Two IR
##INSTRUMENT PARAMETERS=
  APODIZATION=Strong
  DETECTOR=LiTa03
##RESOLUTION= 4.000000
##DELTAX= -1.000000
##XUNITS= 1/CM
##YUNITS= A
##XFACTOR= 1.00
##YFACTOR= 0.00000000023841857910
##FIRSTX= 4000.00
##LASTX= 400.00
##NPOINTS= 3601
##FIRSTY= 0.004861
##MAXY= 0.068794
##MINY= 0.004177
##XYDATA= (X++(Y..Y))
  4000.000000   020386656   020404556   020422485   020432662   020436885  
  3995.000000   020432168   020416280   020394897   020380699   020383475  
  3990.000000   020401216   020420822   020428289   020418700   020397523  
  3985.000000   020373110   020349778   020329451   020317694   020323081  
  3980.000000   020348669   020386498   020422418   020447212   020462768  
  3975.000000   020477350   020495040   020509369   020509701   020494586  
  3970.000000   020475570   020466553   020470900   020480860   020486224  
  3965.000000   020480864   020463520   020437978   020412612   020394516  
  3960.000000   020383753   020375135   020364316   020352256   020345025  
  3955.000000   020351750   020378251   020417793   020450385   020456305  
  3950.000000   020434784   020407212   020396765   020405269   020414721  
  3945.000000   020408101   020385479   020360787   020342554   020320673  
  3940.000000   020282090   020233724   020195743   020179003   020176815  
  3935.000000   020179357   020184667   020190721   020190669   020182095  
  3930.000000   020175763   020183720   020203366   020226597   020253297  
  3925.000000   020284787   020307508   020303653   020282339   020274752  
  3920.000000   020294867   020324018   020333568   020310153   020257801  
  3915.000000   020193132   020142806   020128504   020145098   020168593  
  3910.000000   020179121   020176929   020174061   020185396   020222793  
  3905.000000   020284306   020344985   020365123   020323989   020243189  
  3900.000000   020164162   020110226   020079229   020063177   020061784  
  3895.000000   020076387   020097696   020122344   020163565   020229492  
  3890.000000   020282187   020277389   020226227   020175249   020163399  
  3885.000000   020186140   020182157   020119185   020043489   020015965  
  3880.000000   020048564   020090472   020086145   020046031   020018621  
  3875.000000   020036025   020088869   020125758   020106731   020057234  
  3870.000000   020037034   020043528   020002612   019907264   019840281  
  3865.000000   019849469   019900934   019939937   019956741   019981254  
  3860.000000   020026437   020084145   020144526   020195482   020205431  
  3855.000000   020143818   020066600   020084097   020121272   020045374  
  3850.000000   019927041   019870757   019870690   019879822   019878687  
  3845.000000   019878784   019894400   019927105   019964939   019997486  
  3840.000000   020015971   020015960   020001716   019976563   019932517  
  3835.000000   019871903   019822456   019808173   019822323   019833931  
  3830.000000   019818067   019781839   019758922   019783012   019850530  
  3825.000000   019914808   019927442   019885713   019846740   019883279  
  3820.000000   019957527   019960365   019905816   019885956   019931924  
  3815.000000   019987519   019981645   019934336   019914730   019934116  
  3810.000000   019951486   019939545   019919748   019937488   019987984  
  3805.000000   020012512   019991136   019955998   019939573   019947321  
  3800.000000   019913900   019803380   019702945   019691941   019749396  
  3795.000000   019801568   019812349   019801048   019789842   019775581  
  3790.000000   019757432   019746671   019747671   019757265   019783427  
  3785.000000   019837187   019898689   019923633   019892680   019832654  
  3780.000000   019786929   019778747   019792153   019799760   019798614  
  3775.000000   019804680   019825759   019856868   019896942   019954915  
  3770.000000   020028032   020073765   020040086   019944546   019867976  
  3765.000000   019856467   019867856   019841850   019785799   019752705  
  3760.000000   019767733   019816156   019870695   019908133   019909290  
  3755.000000   019875745   019839960   019834290   019862111   019919603  
  3750.000000   020005857   020075563   020064299   019973273   019865845  
  3745.000000   019824066   019892920   019958738   019917467   019863678  
  3740.000000   019884245   019947583   019995251   020005805   019980947  
  3735.000000   019924101   019863216   019842201   019869447   019902096  
  3730.000000   019909112   019911014   019934551   019970982   019992206  
  3725.000000   019982282   019954767   019944761   019973847   020023731  
  3720.000000   020050672   020040437   020020834   020018311   020026177  
  3715.000000   020029606   020029262   020023307   020000755   019967332  
  3710.000000   019946025   019945450   019948948   019933385   019894547  
  3705.000000   019843433   019797918   019788238   019848512   019965959  
  3700.000000   020060661   020073450   020033530   020004218   020004077  
  3695.000000   020015048   020033435   020073674   020127291   020175816  
  3690.000000   020238675   020349506   020461874   020475931   020384742  
  3685.000000   020279058   020231503   020253455   020342741   020507754  
  3680.000000   020735450   020961224   021114195   021179747   021227966  
  3675.000000   021331385   021415869   021383227   021271617   021165179  
  3670.000000   021140961   021221542   021321883   021383882   021441400  
  3665.000000   021526050   021620598   021698676   021770780   021863241  
  3660.000000   021971889   022066507   022143330   022239845   022389695  
  3655.000000   022566031   022728920   022879748   023011977   023086876  
  3650.000000   023111731   023158328   023250790   023350141   023436628  
  3645.000000   023522144   023615983   023724161   023852753   023995535  
  3640.000000   024130715   024254832   024394503   024562090   024735933  
  3635.000000   024904590   025098747   025341426   025598310   025801365  
  3630.000000   025911665   025969630   026017694   026025431   026033118  
  3625.000000   026145074   026371344   026630643   026857764   027049349  
  3620.000000   027228887   027406717   027569613   027698514   027798406  
  3615.000000   027902742   028050604   028251302   028462376   028631524  
  3610.000000   028755334   028867358   028993675   029141069   029312444  
  3605.000000   029501349   029680011   029825476   029957665   030119399  
  3600.000000   030319568   030531931   030741939   030949460   031143654  
  3595.000000   031316929   031494657   031710472   031965789   032238873  
  3590.000000   032507871   032745360   032924730   033054152   033178105  
  3585.000000   033331591   033515207   033707172   033896779   034090104  
  3580.000000   034291681   034503497   034736002   034990671   035241227  
  3575.000000   035465827   035689527   035965540   036314752   036706536  
  3570.000000   037079135   037360154   037500518   037536948   037579854  
  3565.000000   037703403   037898170   038124713   038366710   038626473  
  3560.000000   038897982   039172940   039460415   039767807   040069375  
  3555.000000   040325413   040531190   040721404   040930479   041172768  
  3550.000000   041453609   041762826   042058355   042294829   042475249  
  3545.000000   042639707   042812059   042995188   043201461   043446523  
  3540.000000   043718769   043988767   044243733   044488684   044723133  
  3535.000000   044944383   045167224   045410189   045668620   045924618  
  3530.000000   046178240   046442006   046714029   046982431   047245253  
  3525.000000   047498892   047722906   047907901   048083945   048288479  
  3520.000000   048522585   048767818   049026249   049310338   049612157  
  3515.000000   049915683   050226760   050555063   050877689   051157967  
  3510.000000   051398326   051640363   051914074   052219134   052544620  
  3505.000000   052870030   053159459   053394556   053610079   053861354  
  3500.000000   054163223   054485755   054796946   055082474   055339654  
  3495.000000   055584613   055855998   056180642   056541037   056897904  
  3490.000000   057233242   057548006   057837829   058104400   058375348  
  3485.000000   058674937   058982530   059255739   059489308   059720726  
  3480.000000   059984588   060292757   060645139   061021686   061372098  
  3475.000000   061651999   061870300   062077197   062312899   062590671  
  3470.000000   062909147   063245706   063554284   063809194   064045391  
  3465.000000   064320318   064642367   064970443   065273435   065553531  
  3460.000000   065817684   066066707   066313927   066581655   066873819  
  3455.000000   067175262   067477679   067785560   068101565   068423967  
  3450.000000   068749180   069058213   069318607   069526900   069729894  
  3445.000000   069972612   070244545   070508675   070761293   071026484  
  3440.000000   071308264   071589363   071869426   072163354   072465755  
  3435.000000   072752936   073021051   073291043   073577031   073875750  
  3430.000000   074181087   074481936   074755495   074993419   075225855  
  3425.000000   075488572   075774550   076047618   076294271   076531466  
  3420.000000   076774074   077028820   077311086   077629707   077959734  
  3415.000000   078263190   078532473   078784711   079023949   079243429  
  3410.000000   079457671   079694186   079954624   080215760   080465246  
  3405.000000   080706899   080936352   081145841   081349089   081569749  
  3400.000000   081806799   082038414   082254882   082461563   082657423  
  3395.000000   082839440   083021618   083222713   083445199   083689923  
  3390.000000   083975228   084309076   084654535   084956637   085197963  
  3385.000000   085400932   085588220   085773709   085981174   086232287  
  3380.000000   086517085   086807446   087096644   087398078   087710746  
  3375.000000   088016252   088304790   088577858   088833524   089076354  
  3370.000000   089332358   089626414   089953337   090295725   090657324  
  3365.000000   091048642   091453143   091843367   092224182   092626576  
  3360.000000   093064104   093524542   093995190   094466062   094915904  
  3355.000000   095325989   095704354   096073740   096446398   096836565  
  3350.000000   097279883   097802515   098375454   098932294   099432562  
  3345.000000   099885945   100326216   100784834   101278007   101793979  
  3340.000000   102302681   102800919   103332649   103937025   104596791  
  3335.000000   105264782   105920016   106566368   107198174   107805394  
  3330.000000   108396304   108977493   109530561   110052177   110597600  
  3325.000000   111234839   111961833   112711123   113431315   114123457  
  3320.000000   114805508   115488955   116190135   116920157   117657167  
  3315.000000   118359665   119010405   119618908   120187863   120713564  
  3310.000000   121217203   121740525   122309539   122929524   123609970  
  3305.000000   124359185   125155237   125956540   126737972   127488614  
  3300.000000   128182447   128789932   129319494   129812348   130294187  
  3295.000000   130760897   131211962   131666821   132143015   132642890  
  3290.000000   133159689   133672324   134137292   134513650   134799183  
  3285.000000   135019922   135194680   135331907   135447559   135551471  
  3280.000000   135613947   135581233   135428858   135178552   134865125  
  3275.000000   134504109   134093476   133630675   133129930   132635480  
  3270.000000   132200422   131832735   131475573   131060528   130565996  
  3265.000000   130007282   129396710   128745062   128076912   127403074  
  3260.000000   126689171   125891963   125026516   124162335   123358153  
  3255.000000   122624896   121939800   121262555   120541553   119743432  
  3250.000000   118887441   118033883   117237609   116525475   115900737  
  3245.000000   115344401   114822228   114312379   113817069   113329517  
  3240.000000   112809705   112217606   111552714   110838753   110097682  
  3235.000000   109372686   108750853   108307272   108027757   107815289  
  3230.000000   107568974   107234274   106798775   106288458   105763797  
  3225.000000   105279541   104840789   104414847   103976714   103523649  
  3220.000000   103063250   102616547   102213969   101856439   101498274  
  3215.000000   101101981   100693868   100324983   099993039   099646292  
  3210.000000   099255670   098840978   098429518   098030355   097647721  
  3205.000000   097282435   096916060   096524288   096107413   095682290  
  3200.000000   095250782   094803561   094348262   093903791   093471689  
  3195.000000   093040041   092607772   092178275   091740715   091285907  
  3190.000000   090828306   090381297   089924169   089427972   088902430  
  3185.000000   088383231   087882638   087387809   086896583   086415534  
  3180.000000   085930579   085419534   084891846   084379864   083892437  
  3175.000000   083410758   082925105   082441543   081956393   081459922  
  3170.000000   080964045   080492851   080045815   079600458   079149961  
  3165.000000   078707983   078278039   077846900   077406840   076958489  
  3160.000000   076496347   076018366   075543179   075089051   074642425  
  3155.000000   074177024   073699404   073246816   072844657   072492006  
  3150.000000   072179127   071889124   071593036   071274947   070955493  
  3145.000000   070658326   070361800   070017430   069611950   069181437  
  3140.000000   068772146   068415752   068131487   067913520   067718953  
  3135.000000   067499622   067246313   066981254   066720748   066473684  
  3130.000000   066260480   066093642   065948053   065784290   065593715  
  3125.000000   065386969   065151269   064864321   064547247   064260038  
  3120.000000   064039686   063875499   063745313   063644157   063577166  
  3115.000000   063555048   063590381   063670085   063739612   063747983  
  3110.000000   063706231   063670458   063676369   063719742   063787401  
  3105.000000   063862475   063903584   063866462   063760008   063651014  
  3100.000000   063605914   063648067   063764262   063918034   064057576  
  3095.000000   064143837   064176786   064177798   064159133   064133590  
  3090.000000   064131803   064169403   064209838   064202721   064154028  
  3085.000000   064117213   064119156   064135865   064138698   064125050  
  3080.000000   064104181   064093818   064131898   064250953   064431263  
  3075.000000   064610429   064740439   064806280   064792898   064678084  
  3070.000000   064469948   064222554   064002827   063855707   063795240  
  3065.000000   063800601   063820290   063806069   063742695   063627460  
  3060.000000   063438963   063160066   062824328   062500946   062230233  
  3055.000000   061998208   061770148   061522712   061250181   060970118  
  3050.000000   060714006   060482152   060219038   059867340   059437962  
  3045.000000   058994674   058586135   058232500   057963891   057813046  
  3040.000000   057756495   057701663   057550710   057264914   056879786  
  3035.000000   056485730   056183202   056015012   055935315   055864103  
  3030.000000   055758503   055607176   055387486   055085032   054746934  
  3025.000000   054455961   054237641   054033772   053778123   053463314  
  3020.000000   053127507   052811312   052537958   052304897   052085892  
  3015.000000   051864765   051669609   051551607   051533991   051604384  
  3010.000000   051740247   051908087   052050300   052118393   052122925  
  3005.000000   052119388   052146262   052202899   052277452   052360527  
  3000.000000   052439917   052520418   052642788   052843714   053103517  
  2995.000000   053374255   053654381   053990855   054407608   054878957  
  2990.000000   055376532   055896842   056432532   056956530   057448808  
  2985.000000   057909099   058339142   058745757   059165038   059646796  
  2980.000000   060202196   060792041   061371722   061923172   062445890  
  2975.000000   062947862   063446588   063948531   064428101   064854670  
  2970.000000   065234228   065593029   065926233   066201473   066410942  
  2965.000000   066582263   066738278   066879244   067001946   067097323  
  2960.000000   067131943   067074372   066939773   066770618   066574794  
  2955.000000   066328052   066041015   065776205   065585446   065466799  
  2950.000000   065395787   065366201   065391715   065497725   065716738  
  2945.000000   066063613   066509094   067005371   067534229   068101381  
  2940.000000   068691571   069267426   069812743   070336249   070833161  
  2935.000000   071279582   071666440   072003068   072290325   072533023  
  2930.000000   072776887   073084105   073461054   073851243   074207817  
  2925.000000   074535481   074856083   075173231   075476672   075743235  
  2920.000000   075919397   075931632   075719875   075236054   074429880  
  2915.000000   073286962   071892245   070411538   068995097   067723681  
  2910.000000   066632167   065733682   065001669   064376059   063813240  
  2905.000000   063307790   062861752   062464085   062108447   061796600  
  2900.000000   061513032   061226715   060932575   060663596   060451890  
  2895.000000   060301480   060202035   060139206   060083980   060002971  
  2890.000000   059892926   059785314   059712633   059688959   059720016  
  2885.000000   059802106   059910041   060016117   060123598   060253113  
  2880.000000   060395910   060511249   060570847   060573841   060516030  
  2875.000000   060383218   060182172   059942641   059676018   059361624  
  2870.000000   058983214   058551425   058084318   057596921   057117877  
  2865.000000   056682799   056300454   055955158   055651883   055428748  
  2860.000000   055312730   055294303   055358153   055510914   055765928  
  2855.000000   056126086   056587171   057121330   057637275   057974098  
  2850.000000   057960816   057494515   056582618   055344698   053972238  
  2845.000000   052645082   051455328   050408891   049485462   048681154  
  2840.000000   048002234   047448979   047014009   046675116   046391525  
  2835.000000   046130632   045895887   045706058   045553505   045407144  
  2830.000000   045251896   045095315   044937379   044764110   044572483  
  2825.000000   044376764   044189663   044019877   043882439   043783757  
  2820.000000   043700247   043600692   043486178   043380047   043284225  
  2815.000000   043177009   043050729   042917633   042780578   042631821  
  2810.000000   042481729   042355468   042257932   042171035   042084605  
  2805.000000   041999650   041903986   041780094   041639783   041517067  
  2800.000000   041422730   041336081   041243119   041152895   041074119  
  2795.000000   041005876   040950873   040905904   040841762   040728619  
  2790.000000   040584725   040466161   040402913   040374336   040346521  
  2785.000000   040300797   040227556   040130209   040039300   039986793  
  2780.000000   039959284   039907451   039805236   039669843   039525726  
  2775.000000   039386343   039271199   039198126   039149464   039083710  
  2770.000000   038991121   038904322   038847266   038808799   038774019  
  2765.000000   038743425   038709045   038647635   038554740   038456974  
  2760.000000   038376318   038307422   038239486   038172981   038104975  
  2755.000000   038024974   037934511   037846462   037759334   037659809  
  2750.000000   037557325   037485724   037459162   037451362   037427977  
  2745.000000   037377649   037306486   037226354   037154016   037099388  
  2740.000000   037051481   036996284   036944443   036914164   036891736  
  2735.000000   036842945   036763425   036682850   036616498   036547967  
  2730.000000   036466107   036383669   036309566   036234341   036154237  
  2725.000000   036081549   036020817   035959614   035890499   035819267  
  2720.000000   035748670   035678546   035621768   035591085   035569236  
  2715.000000   035521973   035442577   035354114   035268010   035174110  
  2710.000000   035073794   034986550   034916322   034844959   034767448  
  2705.000000   034702252   034658017   034619721   034575840   034530978  
  2700.000000   034484910   034427900   034363917   034310087   034266454  
  2695.000000   034213504   034145784   034081375   034033024   033996235  
  2690.000000   033968450   033951594   033932968   033893194   033837267  
  2685.000000   033789150   033753066   033709896   033653954   033601070  
  2680.000000   033555650   033502920   033440351   033386103   033349711  
  2675.000000   033323033   033304092   033299148   033296573   033269789  
  2670.000000   033213322   033148750   033092284   033045492   033019000  
  2665.000000   033029832   033068325   033100064   033107935   033102949  
  2660.000000   033090238   033059341   033016295   032990064   032993077  
  2655.000000   033004544   033003554   032991220   032973091   032950715  
  2650.000000   032938514   032956856   032997970   033027551   033028134  
  2645.000000   033012829   032993835   032971280   032956114   032965658  
  2640.000000   032989853   032999115   032993030   033001658   033031698  
  2635.000000   033053934   033053614   033051289   033060888   033068038  
  2630.000000   033064051   033062560   033069207   033071853   033070193  
  2625.000000   033076548   033080093   033055157   033013447   032999536  
  2620.000000   033021282   033031743   032997852   032940967   032892803  
  2615.000000   032856788   032831722   032830053   032850902   032872813  
  2610.000000   032888787   032910679   032928653   032910831   032857406  
  2605.000000   032810928   032797801   032801045   032801846   032802741  
  2600.000000   032797769   032768413   032724654   032703935   032713199  
  2595.000000   032715933   032689269   032648547   032603599   032539665  
  2590.000000   032458512   032393537   032368318   032377885   032414803  
  2585.000000   032467186   032490682   032440279   032339048   032259581  
  2580.000000   032227073   032199049   032151328   032120367   032138473  
  2575.000000   032184142   032221662   032239823   032231236   032182094  
  2570.000000   032105068   032039635   032001968   031972786   031943769  
  2565.000000   031932354   031943665   031962177   031985919   032022706  
  2560.000000   032050911   032033720   031974146   031907866   031845131  
  2555.000000   031774258   031714379   031700759   031717515   031709715  
  2550.000000   031664693   031618711   031584817   031544077   031511349  
  2545.000000   031532529   031602771   031656854   031658721   031638867  
  2540.000000   031630261   031629306   031631710   031645555   031656287  
  2535.000000   031637298   031605219   031606738   031646167   031684587  
  2530.000000   031711307   031751626   031801792   031826318   031825426  
  2525.000000   031839177   031877584   031911153   031934634   031973985  
  2520.000000   032027846   032067077   032090685   032116826   032128707  
  2515.000000   032106277   032101469   032191231   032354613   032488887  
  2510.000000   032555950   032619254   032723795   032837175   032938821  
  2505.000000   033075391   033284015   033533159   033773707   033989677  
  2500.000000   034176046   034331215   034494170   034723292   035014993  
  2495.000000   035304345   035560925   035820957   036113948   036427028  
  2490.000000   036757024   037122784   037503089   037830372   038073299  
  2485.000000   038268517   038456272   038644815   038847291   039085123  
  2480.000000   039337289   039552054   039725419   039906112   040112005  
  2475.000000   040306385   040467226   040612133   040742186   040831144  
  2470.000000   040883589   040937151   040993845   041017054   041008063  
  2465.000000   041012300   041037455   041040381   041014257   041013730  
  2460.000000   041070176   041149777   041216588   041269634   041299894  
  2455.000000   041283381   041240486   041233001   041276211   041317896  
  2450.000000   041324030   041318632   041320596   041315262   041312767  
  2445.000000   041361955   041474306   041597625   041693797   041782377  
  2440.000000   041884286   041983765   042071591   042169487   042289592  
  2435.000000   042422817   042580133   042785478   043015832   043210572  
  2430.000000   043355084   043494547   043653592   043805711   043932017  
  2425.000000   044043792   044134256   044176726   044184678   044208282  
  2420.000000   044256181   044283081   044266685   044229822   044176235  
  2415.000000   044074346   043918087   043735969   043524072   043242397  
  2410.000000   042898432   042563516   042283641   042032548   041769899  
  2405.000000   041482678   041152518   040753230   040303293   039860538  
  2400.000000   039447423   039038758   038632706   038264838   037934470  
  2395.000000   037587127   037196973   036808294   036472764   036197479  
  2390.000000   035964638   035744298   035476652   035109161   034675392  
  2385.000000   034278237   033979135   033752934   033561345   033410047  
  2380.000000   033311200   033253594   033231968   033248316   033261247  
  2375.000000   033194833   033029304   032822842   032618352   032397390  
  2370.000000   032158605   031962657   031852412   031797535   031756260  
  2365.000000   031725493   031689039   031600639   031476841   031388444  
  2360.000000   031342734   031277622   031148884   031001313   030883238  
  2355.000000   030774345   030666432   030595105   030570661   030532745  
  2350.000000   030457506   030381706   030313207   030232075   030156443  
  2345.000000   030150230   030185146   030154554   030042903   029918102  
  2340.000000   029826112   029744981   029662212   029600996   029560346  
  2335.000000   029490964   029382628   029291705   029264067   029264359  
  2330.000000   029255854   029260483   029271517   029240198   029133524  
  2325.000000   029011905   028933444   028886786   028847933   028832224  
  2320.000000   028858704   028890850   028889095   028848130   028767110  
  2315.000000   028644038   028517152   028458595   028472967   028484558  
  2310.000000   028436508   028363735   028314823   028293044   028279146  
  2305.000000   028267889   028238841   028163602   028067565   028019224  
  2300.000000   028031767   028039294   027992811   027925050   027886279  
  2295.000000   027892936   027944244   028040633   028146692   028213405  
  2290.000000   028240481   028260219   028251008   028160427   028019700  
  2285.000000   027932948   027928964   027928787   027887836   027853081  
  2280.000000   027848790   027824538   027766244   027736664   027758940  
  2275.000000   027771280   027746209   027737916   027761173   027745140  
  2270.000000   027657604   027558222   027481437   027391057   027297455  
  2265.000000   027281757   027347157   027385123   027344699   027304498  
  2260.000000   027316192   027312623   027235008   027120334   027007018  
  2255.000000   026884509   026793649   026830511   026991813   027154541  
  2250.000000   027253219   027331228   027385502   027336993   027208139  
  2245.000000   027146744   027193910   027211325   027121855   027040432  
  2240.000000   027071402   027151363   027197612   027244653   027327654  
  2235.000000   027390979   027412703   027458834   027515186   027435658  
  2230.000000   027168862   026880250   026736045   026715238   026731262  
  2225.000000   026772468   026816749   026771418   026615829   026466189  
  2220.000000   026405127   026385674   026374300   026421912   026517319  
  2215.000000   026546601   026484681   026455866   026526759   026612644  
  2210.000000   026656452   026711748   026780692   026771750   026692380  
  2205.000000   026682995   026785405   026882750   026926517   026988543  
  2200.000000   027023259   026852215   026493712   026248796   026320551  
  2195.000000   026573416   026791009   026928158   026991175   026922556  
  2190.000000   026755245   026656904   026679697   026678454   026584824  
  2185.000000   026510575   026473027   026312738   026023046   025854297  
  2180.000000   025924041   026034368   026033128   026050106   026197928  
  2175.000000   026336452   026340853   026328841   026422636   026539161  
  2170.000000   026597985   026689663   026851564   026920522   026810480  
  2165.000000   026688763   026643920   026419662   025751540   024793989  
  2160.000000   023964869   023505037   023417084   023617284   023922426  
  2155.000000   024121195   024197606   024298364   024442259   024489997  
  2150.000000   024424856   024402723   024478289   024541400   024563814  
  2145.000000   024636652   024730423   024703187   024588613   024585767  
  2140.000000   024711897   024756791   024654164   024599087   024700553  
  2135.000000   024806818   024803601   024811922   024948032   025126514  
  2130.000000   025236538   025329821   025498580   025706836   025861184  
  2125.000000   025945098   025989508   025997142   025968655   025927031  
  2120.000000   025876590   025820612   025828559   025968999   026159474  
  2115.000000   026220009   026105952   025954277   025876898   025851797  
  2110.000000   025847163   025881192   025912746   025847643   025713166  
  2105.000000   025662008   025742300   025827876   025832071   025816528  
  2100.000000   025821704   025774072   025642838   025519747   025455804  
  2095.000000   025379841   025258641   025169674   025145720   025114617  
  2090.000000   025059918   025073893   025180133   025270177   025292107  
  2085.000000   025327744   025397402   025366564   025161747   024922238  
  2080.000000   024809672   024799793   024774107   024693375   024581650  
  2075.000000   024463013   024406477   024495879   024671636   024744156  
  2070.000000   024634521   024462722   024342460   024255947   024188848  
  2065.000000   024193859   024239579   024190731   024027019   023894138  
  2060.000000   023860167   023815010   023693423   023596160   023599187  
  2055.000000   023634124   023644538   023665593   023678102   023596718  
  2050.000000   023480597   023517247   023690956   023755406   023644026  
  2045.000000   023583410   023687232   023778697   023743847   023711181  
  2040.000000   023726837   023611043   023326974   023136184   023172174  
  2035.000000   023199063   023025110   022809280   022726771   022687015  
  2030.000000   022600008   022559149   022572296   022471050   022262677  
  2025.000000   022207140   022382023   022548264   022583697   022659038  
  2020.000000   022839511   022927686   022870776   022909364   023108577  
  2015.000000   023151282   022831470   022373061   022058735   021894063  
  2010.000000   021835430   021991436   022374210   022774466   023077733  
  2005.000000   023382771   023682071   023782133   023641780   023471327  
  2000.000000   023375078   023224255   023003864   022915442   022992767  
  1995.000000   022979987   022763882   022595503   022684989   022876213  
  1990.000000   022957481   022982583   023052481   023089391   023054149  
  1985.000000   023107203   023323962   023503916   023458274   023257372  
  1980.000000   023013347   022689693   022336690   022186652   022280117  
  1975.000000   022345097   022233575   022114916   022115014   022136023  
  1970.000000   022150440   022285277   022482929   022470784   022223626  
  1965.000000   022057287   022120697   022192169   022100018   021983572  
  1960.000000   021993241   022061725   022119991   022223206   022345778  
  1955.000000   022349231   022261384   022293590   022485410   022609990  
  1950.000000   022526472   022365779   022249910   022101462   021867108  
  1945.000000   021677282   021652404   021760770   021973166   022299898  
  1940.000000   022596986   022637189   022426547   022224489   022194773  
  1935.000000   022230706   022209329   022183854   022226699   022273588  
  1930.000000   022236842   022138459   022002598   021802849   021574354  
  1925.000000   021449729   021501577   021626949   021697932   021696690  
  1920.000000   021665879   021648759   021705401   021859992   021977681  
  1915.000000   021905068   021715389   021581809   021506262   021353859  
  1910.000000   021134134   021046473   021163313   021328731   021408930  
  1905.000000   021442624   021498873   021538448   021528238   021519497  
  1900.000000   021508520   021405362   021206735   021052550   021053128  
  1895.000000   021161152   021274094   021324394   021252894   021045429  
  1890.000000   020840711   020842501   021016445   021110710   021051001  
  1885.000000   021013487   021093011   021153921   021074025   020931951  
  1880.000000   020837324   020783674   020751549   020767309   020804363  
  1875.000000   020760475   020591849   020369594   020157460   019946168  
  1870.000000   019753305   019694280   019830806   020024097   020141144  
  1865.000000   020226331   020310038   020306861   020207107   020154612  
  1860.000000   020230433   020338984   020393031   020428547   020464771  
  1855.000000   020432801   020315200   020216691   020160001   020046724  
  1850.000000   019863809   019679122   019479011   019223592   019075599  
  1845.000000   019324616   019982449   020577414   020641965   020291607  
  1840.000000   019926821   019690595   019521917   019449390   019532789  
  1835.000000   019645653   019597017   019366994   019059201   018782439  
  1830.000000   018683098   018842921   019034456   018981373   018787384  
  1825.000000   018764770   019005075   019270683   019364689   019344205  
  1820.000000   019282621   019160884   019006919   018942057   018995053  
  1815.000000   019000834   018841337   018593955   018398084   018313740  
  1810.000000   018336130   018465352   018653760   018785620   018798637  
  1805.000000   018735461   018631559   018432965   018156029   017964288  
  1800.000000   017977628   018105023   018158621   018064109   017856675  
  1795.000000   017622560   017518595   017698730   018147229   018598833  
  1790.000000   018768501   018685249   018567613   018511878   018511396  
  1785.000000   018574073   018621253   018449974   018094045   017854140  
  1780.000000   017890960   018049015   018085613   017969587   017782451  
  1775.000000   017616058   017617051   017894218   018353966   018685062  
  1770.000000   018710326   018716022   018992839   019299454   019242815  
  1765.000000   018853394   018508065   018435685   018633496   018972077  
  1760.000000   019162392   019037323   018861988   019040550   019516363  
  1755.000000   019821880   019808903   019845596   020118842   020315687  
  1750.000000   020153586   019885825   019936544   020318099   020817026  
  1745.000000   021357253   021974633   022622667   023262379   024059511  
  1740.000000   025158142   026255167   026910278   027333528   028241096  
  1735.000000   029802046   031531872   032858564   033172681   032667986  
  1730.000000   032366125   032867617   033927207   034940420   035686155  
  1725.000000   036360278   037166325   038013280   038678148   039255510  
  1720.000000   040084367   041238619   042491182   043860497   045261071  
  1715.000000   046283615   046989869   047809590   048868355   049951992  
  1710.000000   050948336   052012969   053246187   054633327   056317336  
  1705.000000   058614898   061444419   064662422   068839502   074792944  
  1700.000000   082042575   088379397   092895115   097367280   103114601  
  1695.000000   108916909   112808289   114724293   116026756   117407056  
  1690.000000   118707759   119996330   121737286   124191703   127005868  
  1685.000000   129173086   130569385   132236909   134160269   136168412  
  1680.000000   138686396   141647598   144825518   148121103   151303391  
  1675.000000   154092069   156641587   159196322   161855076   164484180  
  1670.000000   166866320   169449694   172634513   176021201   179298376  
  1665.000000   182517757   185501601   187896641   190020617   192570086  
  1660.000000   195586953   198746118   201889020   205404739   209621522  
  1655.000000   214116019   216228780   215700085   216843395   219218768  
  1650.000000   220855832   222616523   224224167   224976691   225811215  
  1645.000000   227883472   230571585   233068794   235318882   237530497  
  1640.000000   239916906   242534966   245091083   246733413   246856304  
  1635.000000   246927482   248520219   251197412   254371590   257692946  
  1630.000000   260584596   262797298   264755986   267107797   269967582  
  1625.000000   272811758   274857555   275985379   277280034   279766063  
  1620.000000   283315513   286864792   288542379   287047258   283851324  
  1615.000000   281247253   279491843   277842871   275555096   271993215  
  1610.000000   267124895   261445525   255464038   249430751   243449063  
  1605.000000   237456707   231215154   224648530   217996951   211547359  
  1600.000000   205391441   199497540   193811636   188216633   182624668  
  1595.000000   177159196   172073786   167448169   163150415   159102747  
  1590.000000   155359281   151951865   148849557   146070005   143657239  
  1585.000000   141568239   139668189   137979921   136680607   135780081  
  1580.000000   135166989   134888248   134930063   134723008   133983674  
  1575.000000   133348446   133079212   133024875   133250837   133602202  
  1570.000000   133928341   134596374   135778472   137201683   138762723  
  1565.000000   140527323   142501881   145036049   148490860   152536580  
  1560.000000   155112624   155276417   156744971   160043500   162751073  
  1555.000000   165235814   168135878   171172880   173812156   176129679  
  1550.000000   178616632   181590866   184973924   188438248   191706325  
  1545.000000   194546266   197104098   199852697   202756324   204784381  
  1540.000000   205624707   207041687   209471885   211727845   213711021  
  1535.000000   215361861   216027595   216089758   216896225   218723497  
  1530.000000   220843505   222610113   223743878   224392296   224996978  
  1525.000000   225975861   227347549   228588545   228781075   228168442  
  1520.000000   228088835   228613162   228824230   228201420   227367409  
  1515.000000   227269427   227626192   227512084   226542567   225270878  
  1510.000000   224348628   223394212   220536045   214618954   209116359  
  1505.000000   206531485   204757369   202635133   200337261   197713448  
  1500.000000   194647147   191211039   187341556   182804737   178101081  
  1495.000000   174007031   170570275   167417768   164057534   159877698  
  1490.000000   154958728   150517827   147529161   145760182   144578292  
  1485.000000   143747512   143204695   142803479   142474826   142451402  
  1480.000000   143039182   144171600   145526092   146951657   148648711  
  1475.000000   150774181   153094575   155276260   157482359   159915034  
  1470.000000   162286244   164468904   166611521   168648841   170305274  
  1465.000000   171518951   172715230   174283108   176116864   178079901  
  1460.000000   180152943   182179279   183592900   184368783   185483665  
  1455.000000   186846003   187873519   188744034   189563631   190236797  
  1450.000000   190614857   190457625   189746523   188936615   188498439  
  1445.000000   188289243   187888866   187209423   186415672   185689607  
  1440.000000   185170855   184813387   183940580   181642081   178461253  
  1435.000000   175864580   174094298   172519042   170624713   168271009  
  1430.000000   165731954   163393261   161560778   160232623   159067312  
  1425.000000   157631114   156004162   154940365   154825374   155068180  
  1420.000000   154619003   153272606   152032713   151499766   151512956  
  1415.000000   151928505   152530197   152976859   153130637   153158373  
  1410.000000   153187522   153087095   152703299   151985115   150916386  
  1405.000000   149564403   148264585   147398326   146884729   146255206  
  1400.000000   145182927   143924406   142984593   142401177   141896222  
  1395.000000   141429208   141220769   141293034   141451642   141654399  
  1390.000000   141877369   141866834   141392834   140640158   139986552  
  1385.000000   139503238   139070788   138664205   138274354   137859242  
  1380.000000   137447341   137143863   136969957   136793935   136491229  
  1375.000000   136100973   135835165   135870933   136133285   136350908  
  1370.000000   136243172   135669699   134771982   133829362   132875279  
  1365.000000   131661792   130013442   128148673   126550344   125466896  
  1360.000000   124774891   124260903   123760415   123176014   122557842  
  1355.000000   122065852   121772954   121596008   121476657   121442089  
  1350.000000   121498793   121615725   121826743   122208920   122726641  
  1345.000000   123253238   123741659   124203649   124526806   124519368  
  1340.000000   124204390   123871602   123691944   123524196   123210462  
  1335.000000   122765267   122213675   121511278   120703744   119967498  
  1330.000000   119407834   118967863   118595644   118320565   118125528  
  1325.000000   117925679   117726719   117631154   117639120   117620911  
  1320.000000   117534470   117497622   117580169   117701463   117794045  
  1315.000000   117884089   117963420   117968789   117931473   117961226  
  1310.000000   118046424   118054379   117957072   117867470   117826657  
  1305.000000   117749933   117620642   117539199   117535688   117526628  
  1300.000000   117500626   117554462   117702007   117838807   117940162  
  1295.000000   118097659   118322340   118510883   118645705   118830349  
  1290.000000   119083226   119299248   119460082   119677895   119977984  
  1285.000000   120246381   120441381   120652883   120902249   121089259  
  1280.000000   121192692   121322131   121513921   121673313   121775496  
  1275.000000   121923212   122152462   122379122   122594586   122916586  
  1270.000000   123385100   123904371   124441447   125075630   125804374  
  1265.000000   126508925   127165441   127886961   128698583   129487728  
  1260.000000   130229921   131042649   131955430   132848540   133680196  
  1255.000000   134561010   135546046   136555269   137551575   138598258  
  1250.000000   139690785   140727056   141691628   142676249   143680215  
  1245.000000   144586019   145371540   146133059   146860986   147411236  
  1240.000000   147744217   147983447   148173540   148199369   148007822  
  1235.000000   147690170   147287869   146723582   145998383   145248398  
  1230.000000   144519939   143699986   142737672   141729736   140719635  
  1225.000000   139617011   138397000   137166807   135961570   134685313  
  1220.000000   133318276   131969832   130660693   129276155   127803263  
  1215.000000   126381236   125049529   123684088   122252747   120884781  
  1210.000000   119607411   118270161   116818367   115391673   114062060  
  1205.000000   112726298   111345013   110031931   108815340   107563803  
  1200.000000   106242782   104992430   103863835   102736571   101579452  
  1195.000000   100528855   099619981   098709147   097759166   096924650  
  1190.000000   096261902   095626815   094955415   094380632   093967132  
  1185.000000   093606427   093274939   093116459   093176029   093314474  
  1180.000000   093486843   093838241   094423494   095113796   095857485  
  1175.000000   096754179   097793560   098800806   099726960   100704380  
  1170.000000   101744377   102682373   103500047   104392302   105419966  
  1165.000000   106399375   107224582   107996092   108732152   109268037  
  1160.000000   109551033   109720844   109802083   109618230   109124566  
  1155.000000   108524011   107927527   107210124   106310208   105369136  
  1150.000000   104464350   103499762   102474322   101557599   100794830  
  1145.000000   100038761   099269850   098668893   098283129   097950481  
  1140.000000   097636758   097519585   097640364   097814564   097982938  
  1135.000000   098296787   098770974   099207211   099563588   100039646  
  1130.000000   100685430   101288373   101755734   102242739   102792496  
  1125.000000   103223525   103496597   103821890   104274594   104668560  
  1120.000000   104932800   105237176   105618623   105869292   105927421  
  1115.000000   106004414   106191697   106329238   106395092   106626641  
  1110.000000   107108697   107635186   108126984   108780108   109656558  
  1105.000000   110529445   111293769   112130587   113111366   114048477  
  1100.000000   114878119   115793214   116834882   117769214   118530059  
  1095.000000   119370236   120413794   121472994   122461739   123575520  
  1090.000000   124897641   126247261   127577525   129095741   130830706  
  1085.000000   132510398   134031971   135625016   137391649   139120592  
  1080.000000   140720404   142382719   144140873   145718781   147011212  
  1075.000000   148270027   149631457   150890859   151931571   152934326  
  1070.000000   153970934   154840365   155481717   156114666   156782036  
  1065.000000   157199366   157251721   157190490   157153531   156943391  
  1060.000000   156467113   155947157   155491561   154907349   154145454  
  1055.000000   153473884   153006713   152492142   151786453   151088841  
  1050.000000   150492601   149779143   148881666   148061255   147412567  
  1045.000000   146675844   145722602   144763093   143895384   142921960  
  1040.000000   141795792   140790853   140022496   139251060   138353296  
  1035.000000   137542207   136928747   136313616   135600819   134959891  
  1030.000000   134406178   133687144   132784109   132060776   131715660  
  1025.000000   131526531   131315380   131200158   131204382   131087878  
  1020.000000   130757913   130387885   129941051   129034871   127483692  
  1015.000000   125536117   123402726   121025526   118475950   116106013  
  1010.000000   114075676   112170950   110276151   108586891   107187248  
  1005.000000   105867155   104545380   103420599   102546725   101690190  
  1000.000000   100778373   100038164   099527982   098982478   098283334  
   995.000000   097633175   097101981   096460816   095631912   094854424  
   990.000000   094226644   093535740   092699528   091930197   091290024  
   985.000000   090545602   089628845   088793624   088149204   087492847  
   980.000000   086765903   086205170   085875480   085514912   085025556  
   975.000000   084648469   084493162   084346421   084117413   083996375  
   970.000000   084006337   083880157   083561678   083357103   083403844  
   965.000000   083463016   083404628   083421288   083569893   083595280  
   960.000000   083401188   083230165   083180486   083018475   082653736  
   955.000000   082322090   082108580   081770668   081237256   080789659  
   950.000000   080551014   080267709   079812673   079419643   079217627  
   945.000000   079005208   078695367   078509673   078524273   078501009  
   940.000000   078361907   078357317   078558299   078676310   078581633  
   935.000000   078518504   078594658   078563152   078324861   078149950  
   930.000000   078167962   078119859   077848307   077552090   077338153  
   925.000000   076996405   076451277   075951002   075595181   075142014  
   920.000000   074506135   073962069   073640787   073306075   072841354  
   915.000000   072472595   072289986   072055744   071700484   071524649  
   910.000000   071673472   071907916   072099904   072445201   072972105  
   905.000000   073371875   073542541   073775013   074173924   074419887  
   900.000000   074344182   074196633   074108831   073831355   073267788  
   895.000000   072722564   072361574   071944328   071344854   070804028  
   890.000000   070411979   069890848   069150438   068527514   068198714  
   885.000000   067903217   067496828   067235591   067232236   067199668  
   880.000000   067019095   066999509   067289164   067595157   067769857  
   875.000000   068071442   068553929   068788930   068511296   067970113  
   870.000000   067380582   066607373   065654398   064871991   064397770  
   865.000000   063945444   063396943   063041671   062982105   062890685  
   860.000000   062608785   062419011   062463209   062479566   062362589  
   855.000000   062400190   062690608   062908591   062907619   062967553  
   850.000000   063205166   063334155   063261418   063294118   063508690  
   845.000000   063537169   063254999   063045696   063118659   063193565  
   840.000000   063133094   063245000   063660187   064052724   064268206  
   835.000000   064609689   065203047   065718737   066010899   066394443  
   830.000000   066981499   067406239   067533772   067765371   068285940  
   825.000000   068703528   068817399   069012230   069518322   070017728  
   820.000000   070336025   070773149   071433724   071947704   072177627  
   815.000000   072519848   073183510   073832996   074258834   074739806  
   810.000000   075410293   075939296   076170389   076430739   076876125  
   805.000000   077190580   077250094   077410686   077817760   078116291  
   800.000000   078171290   078379718   078938037   079492128   079843972  
   795.000000   080298366   080985341   081549579   081846635   082246549  
   790.000000   082922759   083535547   083931672   084456933   085256524  
   785.000000   085962094   086395668   086897601   087638166   088290041  
   780.000000   088702104   089209863   089956842   090592715   090969378  
   775.000000   091453301   092221636   092934496   093424779   094021535  
   770.000000   094857704   095557908   095952646   096411998   097125434  
   765.000000   097745508   098092007   098513743   099203327   099844226  
   760.000000   100286090   100861734   101686762   102348980   102660761  
   755.000000   103014354   103640428   104221787   104600790   105145527  
   750.000000   106026892   106838246   107313295   107747633   108337820  
   745.000000   108807706   109053990   109468709   110234281   110993898  
   740.000000   111589100   112426458   113738815   115175827   116508524  
   735.000000   118035938   119923692   121827893   123566692   125466226  
   730.000000   127672077   129809063   131693870   133671756   135873846  
   725.000000   137853336   139334163   140606416   141796351   142508713  
   720.000000   142599492   142580156   142809980   143039567   143129272  
   715.000000   143462848   144261483   145218409   146207089   147608682  
   710.000000   149555619   151589440   153461007   155504125   157858965  
   705.000000   160077351   161907350   163678369   165496401   166874904  
   700.000000   167595992   168126548   168749076   169108387   169038877  
   695.000000   169012044   169276040   169430938   169293466   169321322  
   690.000000   169720141   170020210   170032281   170306649   171108369  
   685.000000   171898201   172352233   172885136   173704239   174326304  
   680.000000   174565083   174992936   175902461   176785599   177343850  
   675.000000   178024485   179053313   179992907   180715934   181765384  
   670.000000   183181215   183923302   183311248   182410308   182399496  
   665.000000   182889483   183143034   183298456   183718775   184173418  
   660.000000   184397319   184711003   185325007   185789537   185844500  
   655.000000   185984074   186561450   187133090   187351029   187642248  
   650.000000   188345887   189048736   189430690   189912530   190797574  
   645.000000   191666366   192238394   192948753   194027024   194942646  
   640.000000   195375227   195834298   196697890   197554629   198127600  
   635.000000   198887089   200095912   201189830   201800789   202394371  
   630.000000   203291436   204024228   204314252   204674882   205403340  
   625.000000   205953300   206012778   206159782   206734469   207145832  
   620.000000   206973318   206733709   206831666   206828133   206461460  
   615.000000   206296457   206581954   206658818   206225097   205998083  
   610.000000   206368011   206592564   206159313   205697017   205715778  
   605.000000   205655432   205141600   204857379   205242269   205599454  
   600.000000   205436021   205381512   205846756   206115419   205702621  
   595.000000   205312353   205490201   205645409   205353259   205340704  
   590.000000   206065089   206714450   206656877   206519855   206886965  
   585.000000   207234376   207164615   207328223   208099652   208679171  
   580.000000   208585660   208605982   209270112   209832747   209815805  
   575.000000   210022312   210907195   211551977   211391633   211322921  
   570.000000   211996281   212581133   212421145   212346041   213007808  
   565.000000   213622030   213610692   213828650   214868774   215787529  
   560.000000   215834612   215827343   216513730   217160750   217127078  
   555.000000   217188512   218008591   218850967   219121015   219504338  
   550.000000   220402394   220930932   220734652   220992912   222349139  
   545.000000   223664815   224100534   224510060   225521102   226282489  
   540.000000   226341753   226805227   228247708   229476348   229717366  
   535.000000   230040534   231207907   232184232   232244097   232425118  
   530.000000   233460648   234295998   234172141   234130195   234995421  
   525.000000   235761039   235737411   235974808   236969630   237360643  
   520.000000   236377077   235509994   235997389   236751520   236675095  
   515.000000   236619273   237187378   237286689   236416074   236034799  
   510.000000   236983269   237837607   237527299   237221796   237852581  
   505.000000   238192077   237330577   236485011   236609864   236549977  
   500.000000   235638136   235266601   236080435   236453947   235453686  
   495.000000   234660788   235149691   235408819   234319360   233430760  
   490.000000   233921632   234304966   233403635   232602493   232954098  
   485.000000   232923933   231403193   230089643   230201331   230123480  
   480.000000   228814947   228084613   229141932   230070793   229401151  
   475.000000   228796986   229574412   229893204   228597613   228209765  
   470.000000   230184337   231928096   231514282   230918733   231823944  
   465.000000   232213045   230487086   228801196   229045411   229365266  
   460.000000   228059138   227045951   228013459   228663623   227447227  
   455.000000   226975893   228641413   229701082   228256909   226777493  
   450.000000   227172541   227126854   224917341   223073093   223665081  
   445.000000   224403828   223433208   223168797   225240961   226552656  
   440.000000   225001675   223466752   224325409   225242022   223993322  
   435.000000   222971787   224059420   224393749   221925699   219729759  
   430.000000   220345709   220942573   219048119   217356830   218085411  
   425.000000   218004829   214757140   212506138   214471168   216243756  
   420.000000   213061510   209362526   211027302   212522705   209832174  
   415.000000   207926348   209971036   211487314   209061985   207454228  
   410.000000   210085331   211137406   206335829   201916469   203337148  
   405.000000   204632359   200092193   195472256   196675829   197466367  
   400.000000   191479624  
##END= 
