PE IR       SUBTECH     SPECTRUM    ASCII       PEDS        4.00        
   -1
2024_06_05_ArgiopeTrifasciata_Labelled13C15N_USerAla_C6_EggCase1.ASC
24/06/05
13:05:33.00
24/06/05
13:05:45.00
Yarger Lab
Sample 132 By YargerLab Date Wednesday, June 05 2024
400.000000
#HDR
-1
-1
#GR
cm-1
A
1.0
0.0
4000.000000
-1.000000
3601
8
0.067065
0.002884
#DATA
4000.000000	0.005924
3999.000000	0.005924
3998.000000	0.005918
3997.000000	0.005915
3996.000000	0.005915
3995.000000	0.005922
3994.000000	0.005932
3993.000000	0.005943
3992.000000	0.005952
3991.000000	0.005956
3990.000000	0.005955
3989.000000	0.005951
3988.000000	0.005942
3987.000000	0.005931
3986.000000	0.005922
3985.000000	0.005918
3984.000000	0.005920
3983.000000	0.005925
3982.000000	0.005929
3981.000000	0.005933
3980.000000	0.005938
3979.000000	0.005945
3978.000000	0.005952
3977.000000	0.005952
3976.000000	0.005945
3975.000000	0.005933
3974.000000	0.005920
3973.000000	0.005908
3972.000000	0.005899
3971.000000	0.005896
3970.000000	0.005898
3969.000000	0.005906
3968.000000	0.005917
3967.000000	0.005930
3966.000000	0.005942
3965.000000	0.005953
3964.000000	0.005961
3963.000000	0.005965
3962.000000	0.005963
3961.000000	0.005959
3960.000000	0.005955
3959.000000	0.005954
3958.000000	0.005951
3957.000000	0.005945
3956.000000	0.005939
3955.000000	0.005936
3954.000000	0.005936
3953.000000	0.005937
3952.000000	0.005947
3951.000000	0.005969
3950.000000	0.006008
3949.000000	0.006060
3948.000000	0.006108
3947.000000	0.006131
3946.000000	0.006120
3945.000000	0.006079
3944.000000	0.006019
3943.000000	0.005962
3942.000000	0.005934
3941.000000	0.005940
3940.000000	0.005966
3939.000000	0.005986
3938.000000	0.005988
3937.000000	0.005989
3936.000000	0.006011
3935.000000	0.006061
3934.000000	0.006112
3933.000000	0.006133
3932.000000	0.006116
3931.000000	0.006080
3930.000000	0.006050
3929.000000	0.006031
3928.000000	0.006012
3927.000000	0.005988
3926.000000	0.005957
3925.000000	0.005934
3924.000000	0.005948
3923.000000	0.006005
3922.000000	0.006086
3921.000000	0.006154
3920.000000	0.006192
3919.000000	0.006207
3918.000000	0.006205
3917.000000	0.006173
3916.000000	0.006114
3915.000000	0.006053
3914.000000	0.006012
3913.000000	0.005985
3912.000000	0.005962
3911.000000	0.005943
3910.000000	0.005933
3909.000000	0.005932
3908.000000	0.005935
3907.000000	0.005951
3906.000000	0.006008
3905.000000	0.006126
3904.000000	0.006298
3903.000000	0.006472
3902.000000	0.006575
3901.000000	0.006571
3900.000000	0.006472
3899.000000	0.006342
3898.000000	0.006249
3897.000000	0.006208
3896.000000	0.006191
3895.000000	0.006161
3894.000000	0.006106
3893.000000	0.006053
3892.000000	0.006036
3891.000000	0.006061
3890.000000	0.006112
3889.000000	0.006193
3888.000000	0.006299
3887.000000	0.006365
3886.000000	0.006336
3885.000000	0.006258
3884.000000	0.006223
3883.000000	0.006253
3882.000000	0.006285
3881.000000	0.006274
3880.000000	0.006242
3879.000000	0.006229
3878.000000	0.006245
3877.000000	0.006271
3876.000000	0.006262
3875.000000	0.006195
3874.000000	0.006119
3873.000000	0.006124
3872.000000	0.006234
3871.000000	0.006355
3870.000000	0.006389
3869.000000	0.006359
3868.000000	0.006363
3867.000000	0.006436
3866.000000	0.006488
3865.000000	0.006439
3864.000000	0.006353
3863.000000	0.006333
3862.000000	0.006381
3861.000000	0.006424
3860.000000	0.006401
3859.000000	0.006280
3858.000000	0.006070
3857.000000	0.005832
3856.000000	0.005673
3855.000000	0.005644
3854.000000	0.005741
3853.000000	0.005930
3852.000000	0.006120
3851.000000	0.006254
3850.000000	0.006341
3849.000000	0.006373
3848.000000	0.006361
3847.000000	0.006334
3846.000000	0.006308
3845.000000	0.006290
3844.000000	0.006292
3843.000000	0.006317
3842.000000	0.006360
3841.000000	0.006409
3840.000000	0.006434
3839.000000	0.006432
3838.000000	0.006415
3837.000000	0.006392
3836.000000	0.006372
3835.000000	0.006362
3834.000000	0.006369
3833.000000	0.006376
3832.000000	0.006359
3831.000000	0.006328
3830.000000	0.006304
3829.000000	0.006292
3828.000000	0.006280
3827.000000	0.006252
3826.000000	0.006223
3825.000000	0.006243
3824.000000	0.006344
3823.000000	0.006454
3822.000000	0.006466
3821.000000	0.006387
3820.000000	0.006331
3819.000000	0.006346
3818.000000	0.006406
3817.000000	0.006416
3816.000000	0.006320
3815.000000	0.006182
3814.000000	0.006102
3813.000000	0.006090
3812.000000	0.006082
3811.000000	0.006041
3810.000000	0.005999
3809.000000	0.006008
3808.000000	0.006063
3807.000000	0.006121
3806.000000	0.006179
3805.000000	0.006262
3804.000000	0.006368
3803.000000	0.006421
3802.000000	0.006357
3801.000000	0.006250
3800.000000	0.006213
3799.000000	0.006255
3798.000000	0.006300
3797.000000	0.006276
3796.000000	0.006182
3795.000000	0.006073
3794.000000	0.005994
3793.000000	0.005938
3792.000000	0.005882
3791.000000	0.005826
3790.000000	0.005788
3789.000000	0.005777
3788.000000	0.005781
3787.000000	0.005789
3786.000000	0.005801
3785.000000	0.005819
3784.000000	0.005849
3783.000000	0.005896
3782.000000	0.005949
3781.000000	0.005973
3780.000000	0.005951
3779.000000	0.005913
3778.000000	0.005896
3777.000000	0.005907
3776.000000	0.005922
3775.000000	0.005918
3774.000000	0.005897
3773.000000	0.005895
3772.000000	0.005934
3771.000000	0.005982
3770.000000	0.006019
3769.000000	0.006059
3768.000000	0.006114
3767.000000	0.006162
3766.000000	0.006170
3765.000000	0.006134
3764.000000	0.006102
3763.000000	0.006119
3762.000000	0.006169
3761.000000	0.006186
3760.000000	0.006159
3759.000000	0.006154
3758.000000	0.006197
3757.000000	0.006250
3756.000000	0.006293
3755.000000	0.006350
3754.000000	0.006435
3753.000000	0.006517
3752.000000	0.006586
3751.000000	0.006689
3750.000000	0.006801
3749.000000	0.006826
3748.000000	0.006768
3747.000000	0.006731
3746.000000	0.006747
3745.000000	0.006733
3744.000000	0.006647
3743.000000	0.006581
3742.000000	0.006620
3741.000000	0.006728
3740.000000	0.006825
3739.000000	0.006893
3738.000000	0.006946
3737.000000	0.006949
3736.000000	0.006859
3735.000000	0.006738
3734.000000	0.006669
3733.000000	0.006625
3732.000000	0.006533
3731.000000	0.006394
3730.000000	0.006279
3729.000000	0.006241
3728.000000	0.006248
3727.000000	0.006229
3726.000000	0.006172
3725.000000	0.006122
3724.000000	0.006093
3723.000000	0.006054
3722.000000	0.005998
3721.000000	0.005943
3720.000000	0.005903
3719.000000	0.005883
3718.000000	0.005874
3717.000000	0.005871
3716.000000	0.005893
3715.000000	0.005957
3714.000000	0.006041
3713.000000	0.006088
3712.000000	0.006089
3711.000000	0.006086
3710.000000	0.006089
3709.000000	0.006074
3708.000000	0.006022
3707.000000	0.005942
3706.000000	0.005862
3705.000000	0.005801
3704.000000	0.005754
3703.000000	0.005698
3702.000000	0.005638
3701.000000	0.005595
3700.000000	0.005580
3699.000000	0.005591
3698.000000	0.005611
3697.000000	0.005613
3696.000000	0.005605
3695.000000	0.005624
3694.000000	0.005677
3693.000000	0.005723
3692.000000	0.005729
3691.000000	0.005730
3690.000000	0.005791
3689.000000	0.005906
3688.000000	0.005983
3687.000000	0.005976
3686.000000	0.005944
3685.000000	0.005928
3684.000000	0.005925
3683.000000	0.005926
3682.000000	0.005936
3681.000000	0.005953
3680.000000	0.005969
3679.000000	0.006018
3678.000000	0.006152
3677.000000	0.006318
3676.000000	0.006394
3675.000000	0.006381
3674.000000	0.006377
3673.000000	0.006440
3672.000000	0.006528
3671.000000	0.006513
3670.000000	0.006375
3669.000000	0.006242
3668.000000	0.006181
3667.000000	0.006151
3666.000000	0.006114
3665.000000	0.006059
3664.000000	0.006001
3663.000000	0.005960
3662.000000	0.005940
3661.000000	0.005940
3660.000000	0.005963
3659.000000	0.006016
3658.000000	0.006091
3657.000000	0.006162
3656.000000	0.006222
3655.000000	0.006295
3654.000000	0.006421
3653.000000	0.006608
3652.000000	0.006800
3651.000000	0.006924
3650.000000	0.007000
3649.000000	0.007074
3648.000000	0.007099
3647.000000	0.007018
3646.000000	0.006877
3645.000000	0.006744
3644.000000	0.006635
3643.000000	0.006533
3642.000000	0.006432
3641.000000	0.006357
3640.000000	0.006330
3639.000000	0.006338
3638.000000	0.006365
3637.000000	0.006412
3636.000000	0.006483
3635.000000	0.006550
3634.000000	0.006585
3633.000000	0.006614
3632.000000	0.006697
3631.000000	0.006841
3630.000000	0.006962
3629.000000	0.007018
3628.000000	0.007057
3627.000000	0.007096
3626.000000	0.007124
3625.000000	0.007130
3624.000000	0.007104
3623.000000	0.007061
3622.000000	0.007027
3621.000000	0.007004
3620.000000	0.006995
3619.000000	0.007040
3618.000000	0.007155
3617.000000	0.007297
3616.000000	0.007425
3615.000000	0.007504
3614.000000	0.007527
3613.000000	0.007535
3612.000000	0.007577
3611.000000	0.007658
3610.000000	0.007725
3609.000000	0.007712
3608.000000	0.007629
3607.000000	0.007545
3606.000000	0.007505
3605.000000	0.007501
3604.000000	0.007502
3603.000000	0.007494
3602.000000	0.007491
3601.000000	0.007506
3600.000000	0.007542
3599.000000	0.007597
3598.000000	0.007652
3597.000000	0.007691
3596.000000	0.007713
3595.000000	0.007730
3594.000000	0.007765
3593.000000	0.007832
3592.000000	0.007929
3591.000000	0.008047
3590.000000	0.008151
3589.000000	0.008195
3588.000000	0.008177
3587.000000	0.008159
3586.000000	0.008175
3585.000000	0.008200
3584.000000	0.008204
3583.000000	0.008184
3582.000000	0.008152
3581.000000	0.008121
3580.000000	0.008103
3579.000000	0.008103
3578.000000	0.008120
3577.000000	0.008148
3576.000000	0.008182
3575.000000	0.008229
3574.000000	0.008292
3573.000000	0.008375
3572.000000	0.008481
3571.000000	0.008614
3570.000000	0.008767
3569.000000	0.008901
3568.000000	0.008975
3567.000000	0.009003
3566.000000	0.009030
3565.000000	0.009067
3564.000000	0.009099
3563.000000	0.009109
3562.000000	0.009093
3561.000000	0.009066
3560.000000	0.009048
3559.000000	0.009049
3558.000000	0.009068
3557.000000	0.009097
3556.000000	0.009133
3555.000000	0.009173
3554.000000	0.009216
3553.000000	0.009270
3552.000000	0.009344
3551.000000	0.009444
3550.000000	0.009566
3549.000000	0.009690
3548.000000	0.009791
3547.000000	0.009850
3546.000000	0.009874
3545.000000	0.009882
3544.000000	0.009887
3543.000000	0.009891
3542.000000	0.009896
3541.000000	0.009900
3540.000000	0.009904
3539.000000	0.009909
3538.000000	0.009921
3537.000000	0.009946
3536.000000	0.009987
3535.000000	0.010046
3534.000000	0.010116
3533.000000	0.010188
3532.000000	0.010253
3531.000000	0.010307
3530.000000	0.010360
3529.000000	0.010425
3528.000000	0.010506
3527.000000	0.010598
3526.000000	0.010684
3525.000000	0.010744
3524.000000	0.010766
3523.000000	0.010762
3522.000000	0.010755
3521.000000	0.010763
3520.000000	0.010784
3519.000000	0.010814
3518.000000	0.010853
3517.000000	0.010906
3516.000000	0.010966
3515.000000	0.011021
3514.000000	0.011063
3513.000000	0.011099
3512.000000	0.011134
3511.000000	0.011171
3510.000000	0.011216
3509.000000	0.011275
3508.000000	0.011350
3507.000000	0.011428
3506.000000	0.011495
3505.000000	0.011544
3504.000000	0.011583
3503.000000	0.011627
3502.000000	0.011684
3501.000000	0.011746
3500.000000	0.011800
3499.000000	0.011836
3498.000000	0.011855
3497.000000	0.011870
3496.000000	0.011891
3495.000000	0.011925
3494.000000	0.011969
3493.000000	0.012015
3492.000000	0.012059
3491.000000	0.012101
3490.000000	0.012149
3489.000000	0.012207
3488.000000	0.012272
3487.000000	0.012336
3486.000000	0.012396
3485.000000	0.012447
3484.000000	0.012491
3483.000000	0.012532
3482.000000	0.012579
3481.000000	0.012636
3480.000000	0.012692
3479.000000	0.012737
3478.000000	0.012767
3477.000000	0.012789
3476.000000	0.012813
3475.000000	0.012846
3474.000000	0.012892
3473.000000	0.012950
3472.000000	0.013012
3471.000000	0.013073
3470.000000	0.013132
3469.000000	0.013187
3468.000000	0.013236
3467.000000	0.013280
3466.000000	0.013321
3465.000000	0.013364
3464.000000	0.013407
3463.000000	0.013451
3462.000000	0.013499
3461.000000	0.013550
3460.000000	0.013599
3459.000000	0.013636
3458.000000	0.013664
3457.000000	0.013693
3456.000000	0.013730
3455.000000	0.013772
3454.000000	0.013814
3453.000000	0.013856
3452.000000	0.013904
3451.000000	0.013960
3450.000000	0.014021
3449.000000	0.014079
3448.000000	0.014134
3447.000000	0.014191
3446.000000	0.014255
3445.000000	0.014319
3444.000000	0.014374
3443.000000	0.014414
3442.000000	0.014451
3441.000000	0.014498
3440.000000	0.014562
3439.000000	0.014631
3438.000000	0.014696
3437.000000	0.014753
3436.000000	0.014804
3435.000000	0.014851
3434.000000	0.014897
3433.000000	0.014947
3432.000000	0.015003
3431.000000	0.015060
3430.000000	0.015111
3429.000000	0.015155
3428.000000	0.015197
3427.000000	0.015241
3426.000000	0.015292
3425.000000	0.015350
3424.000000	0.015412
3423.000000	0.015471
3422.000000	0.015524
3421.000000	0.015572
3420.000000	0.015622
3419.000000	0.015675
3418.000000	0.015729
3417.000000	0.015787
3416.000000	0.015850
3415.000000	0.015919
3414.000000	0.015991
3413.000000	0.016063
3412.000000	0.016132
3411.000000	0.016195
3410.000000	0.016251
3409.000000	0.016301
3408.000000	0.016345
3407.000000	0.016386
3406.000000	0.016429
3405.000000	0.016483
3404.000000	0.016550
3403.000000	0.016626
3402.000000	0.016704
3401.000000	0.016778
3400.000000	0.016844
3399.000000	0.016900
3398.000000	0.016949
3397.000000	0.017000
3396.000000	0.017056
3395.000000	0.017114
3394.000000	0.017169
3393.000000	0.017223
3392.000000	0.017280
3391.000000	0.017341
3390.000000	0.017401
3389.000000	0.017457
3388.000000	0.017510
3387.000000	0.017562
3386.000000	0.017617
3385.000000	0.017677
3384.000000	0.017747
3383.000000	0.017826
3382.000000	0.017911
3381.000000	0.017999
3380.000000	0.018084
3379.000000	0.018164
3378.000000	0.018241
3377.000000	0.018317
3376.000000	0.018390
3375.000000	0.018460
3374.000000	0.018531
3373.000000	0.018609
3372.000000	0.018701
3371.000000	0.018805
3370.000000	0.018915
3369.000000	0.019025
3368.000000	0.019129
3367.000000	0.019229
3366.000000	0.019325
3365.000000	0.019419
3364.000000	0.019511
3363.000000	0.019602
3362.000000	0.019695
3361.000000	0.019789
3360.000000	0.019883
3359.000000	0.019971
3358.000000	0.020055
3357.000000	0.020142
3356.000000	0.020237
3355.000000	0.020340
3354.000000	0.020445
3353.000000	0.020544
3352.000000	0.020638
3351.000000	0.020731
3350.000000	0.020828
3349.000000	0.020932
3348.000000	0.021037
3347.000000	0.021141
3346.000000	0.021244
3345.000000	0.021352
3344.000000	0.021469
3343.000000	0.021592
3342.000000	0.021718
3341.000000	0.021843
3340.000000	0.021965
3339.000000	0.022085
3338.000000	0.022205
3337.000000	0.022325
3336.000000	0.022443
3335.000000	0.022556
3334.000000	0.022665
3333.000000	0.022777
3332.000000	0.022893
3331.000000	0.023015
3330.000000	0.023140
3329.000000	0.023268
3328.000000	0.023397
3327.000000	0.023529
3326.000000	0.023667
3325.000000	0.023808
3324.000000	0.023950
3323.000000	0.024087
3322.000000	0.024221
3321.000000	0.024358
3320.000000	0.024497
3319.000000	0.024637
3318.000000	0.024779
3317.000000	0.024926
3316.000000	0.025075
3315.000000	0.025221
3314.000000	0.025363
3313.000000	0.025496
3312.000000	0.025620
3311.000000	0.025734
3310.000000	0.025840
3309.000000	0.025945
3308.000000	0.026055
3307.000000	0.026179
3306.000000	0.026322
3305.000000	0.026485
3304.000000	0.026655
3303.000000	0.026817
3302.000000	0.026960
3301.000000	0.027086
3300.000000	0.027202
3299.000000	0.027311
3298.000000	0.027418
3297.000000	0.027523
3296.000000	0.027626
3295.000000	0.027723
3294.000000	0.027814
3293.000000	0.027906
3292.000000	0.028006
3291.000000	0.028111
3290.000000	0.028211
3289.000000	0.028295
3288.000000	0.028359
3287.000000	0.028407
3286.000000	0.028445
3285.000000	0.028477
3284.000000	0.028505
3283.000000	0.028528
3282.000000	0.028544
3281.000000	0.028552
3280.000000	0.028551
3279.000000	0.028543
3278.000000	0.028528
3277.000000	0.028506
3276.000000	0.028473
3275.000000	0.028424
3274.000000	0.028357
3273.000000	0.028277
3272.000000	0.028195
3271.000000	0.028118
3270.000000	0.028049
3269.000000	0.027977
3268.000000	0.027890
3267.000000	0.027782
3266.000000	0.027658
3265.000000	0.027526
3264.000000	0.027388
3263.000000	0.027244
3262.000000	0.027096
3261.000000	0.026944
3260.000000	0.026788
3259.000000	0.026629
3258.000000	0.026469
3257.000000	0.026312
3256.000000	0.026160
3255.000000	0.026014
3254.000000	0.025872
3253.000000	0.025733
3252.000000	0.025590
3251.000000	0.025436
3250.000000	0.025275
3249.000000	0.025114
3248.000000	0.024960
3247.000000	0.024812
3246.000000	0.024671
3245.000000	0.024535
3244.000000	0.024406
3243.000000	0.024281
3242.000000	0.024157
3241.000000	0.024031
3240.000000	0.023901
3239.000000	0.023770
3238.000000	0.023640
3237.000000	0.023512
3236.000000	0.023388
3235.000000	0.023274
3234.000000	0.023172
3233.000000	0.023078
3232.000000	0.022983
3231.000000	0.022884
3230.000000	0.022784
3229.000000	0.022690
3228.000000	0.022600
3227.000000	0.022509
3226.000000	0.022417
3225.000000	0.022329
3224.000000	0.022244
3223.000000	0.022163
3222.000000	0.022082
3221.000000	0.022004
3220.000000	0.021930
3219.000000	0.021860
3218.000000	0.021795
3217.000000	0.021731
3216.000000	0.021666
3215.000000	0.021600
3214.000000	0.021536
3213.000000	0.021472
3212.000000	0.021404
3211.000000	0.021327
3210.000000	0.021242
3209.000000	0.021157
3208.000000	0.021074
3207.000000	0.020996
3206.000000	0.020922
3205.000000	0.020854
3204.000000	0.020789
3203.000000	0.020723
3202.000000	0.020654
3201.000000	0.020581
3200.000000	0.020508
3199.000000	0.020434
3198.000000	0.020361
3197.000000	0.020286
3196.000000	0.020208
3195.000000	0.020125
3194.000000	0.020042
3193.000000	0.019959
3192.000000	0.019877
3191.000000	0.019792
3190.000000	0.019705
3189.000000	0.019615
3188.000000	0.019523
3187.000000	0.019428
3186.000000	0.019334
3185.000000	0.019243
3184.000000	0.019153
3183.000000	0.019065
3182.000000	0.018980
3181.000000	0.018894
3180.000000	0.018805
3179.000000	0.018710
3178.000000	0.018614
3177.000000	0.018518
3176.000000	0.018419
3175.000000	0.018317
3174.000000	0.018213
3173.000000	0.018113
3172.000000	0.018016
3171.000000	0.017921
3170.000000	0.017826
3169.000000	0.017728
3168.000000	0.017631
3167.000000	0.017536
3166.000000	0.017446
3165.000000	0.017360
3164.000000	0.017270
3163.000000	0.017176
3162.000000	0.017085
3161.000000	0.017002
3160.000000	0.016928
3159.000000	0.016858
3158.000000	0.016787
3157.000000	0.016713
3156.000000	0.016636
3155.000000	0.016557
3154.000000	0.016478
3153.000000	0.016402
3152.000000	0.016328
3151.000000	0.016252
3150.000000	0.016173
3149.000000	0.016092
3148.000000	0.016012
3147.000000	0.015935
3146.000000	0.015861
3145.000000	0.015791
3144.000000	0.015724
3143.000000	0.015659
3142.000000	0.015595
3141.000000	0.015529
3140.000000	0.015462
3139.000000	0.015395
3138.000000	0.015334
3137.000000	0.015281
3136.000000	0.015234
3135.000000	0.015185
3134.000000	0.015135
3133.000000	0.015086
3132.000000	0.015041
3131.000000	0.014996
3130.000000	0.014950
3129.000000	0.014903
3128.000000	0.014861
3127.000000	0.014825
3126.000000	0.014792
3125.000000	0.014756
3124.000000	0.014712
3123.000000	0.014667
3122.000000	0.014629
3121.000000	0.014604
3120.000000	0.014586
3119.000000	0.014569
3118.000000	0.014549
3117.000000	0.014532
3116.000000	0.014521
3115.000000	0.014515
3114.000000	0.014506
3113.000000	0.014490
3112.000000	0.014465
3111.000000	0.014440
3110.000000	0.014421
3109.000000	0.014415
3108.000000	0.014419
3107.000000	0.014429
3106.000000	0.014440
3105.000000	0.014449
3104.000000	0.014456
3103.000000	0.014461
3102.000000	0.014466
3101.000000	0.014474
3100.000000	0.014489
3099.000000	0.014506
3098.000000	0.014521
3097.000000	0.014530
3096.000000	0.014536
3095.000000	0.014544
3094.000000	0.014557
3093.000000	0.014575
3092.000000	0.014593
3091.000000	0.014613
3090.000000	0.014635
3089.000000	0.014654
3088.000000	0.014662
3087.000000	0.014657
3086.000000	0.014646
3085.000000	0.014642
3084.000000	0.014650
3083.000000	0.014667
3082.000000	0.014689
3081.000000	0.014713
3080.000000	0.014739
3079.000000	0.014768
3078.000000	0.014796
3077.000000	0.014819
3076.000000	0.014835
3075.000000	0.014845
3074.000000	0.014851
3073.000000	0.014854
3072.000000	0.014850
3071.000000	0.014839
3070.000000	0.014822
3069.000000	0.014807
3068.000000	0.014799
3067.000000	0.014801
3066.000000	0.014809
3065.000000	0.014817
3064.000000	0.014819
3063.000000	0.014811
3062.000000	0.014789
3061.000000	0.014754
3060.000000	0.014707
3059.000000	0.014654
3058.000000	0.014601
3057.000000	0.014551
3056.000000	0.014502
3055.000000	0.014452
3054.000000	0.014402
3053.000000	0.014356
3052.000000	0.014316
3051.000000	0.014283
3050.000000	0.014251
3049.000000	0.014216
3048.000000	0.014171
3047.000000	0.014115
3046.000000	0.014053
3045.000000	0.013986
3044.000000	0.013919
3043.000000	0.013855
3042.000000	0.013800
3041.000000	0.013757
3040.000000	0.013722
3039.000000	0.013687
3038.000000	0.013644
3037.000000	0.013592
3036.000000	0.013537
3035.000000	0.013485
3034.000000	0.013443
3033.000000	0.013408
3032.000000	0.013372
3031.000000	0.013329
3030.000000	0.013280
3029.000000	0.013225
3028.000000	0.013164
3027.000000	0.013099
3026.000000	0.013035
3025.000000	0.012978
3024.000000	0.012927
3023.000000	0.012875
3022.000000	0.012818
3021.000000	0.012759
3020.000000	0.012702
3019.000000	0.012649
3018.000000	0.012595
3017.000000	0.012536
3016.000000	0.012474
3015.000000	0.012419
3014.000000	0.012383
3013.000000	0.012368
3012.000000	0.012367
3011.000000	0.012371
3010.000000	0.012375
3009.000000	0.012380
3008.000000	0.012383
3007.000000	0.012381
3006.000000	0.012379
3005.000000	0.012383
3004.000000	0.012398
3003.000000	0.012422
3002.000000	0.012452
3001.000000	0.012483
3000.000000	0.012510
2999.000000	0.012532
2998.000000	0.012556
2997.000000	0.012584
2996.000000	0.012620
2995.000000	0.012662
2994.000000	0.012715
2993.000000	0.012783
2992.000000	0.012861
2991.000000	0.012942
2990.000000	0.013020
2989.000000	0.013100
2988.000000	0.013183
2987.000000	0.013275
2986.000000	0.013386
2985.000000	0.013522
2984.000000	0.013679
2983.000000	0.013836
2982.000000	0.013968
2981.000000	0.014064
2980.000000	0.014131
2979.000000	0.014185
2978.000000	0.014241
2977.000000	0.014307
2976.000000	0.014379
2975.000000	0.014454
2974.000000	0.014531
2973.000000	0.014609
2972.000000	0.014683
2971.000000	0.014746
2970.000000	0.014796
2969.000000	0.014837
2968.000000	0.014872
2967.000000	0.014903
2966.000000	0.014928
2965.000000	0.014946
2964.000000	0.014955
2963.000000	0.014952
2962.000000	0.014933
2961.000000	0.014900
2960.000000	0.014853
2959.000000	0.014793
2958.000000	0.014724
2957.000000	0.014647
2956.000000	0.014558
2955.000000	0.014456
2954.000000	0.014343
2953.000000	0.014226
2952.000000	0.014112
2951.000000	0.014007
2950.000000	0.013915
2949.000000	0.013842
2948.000000	0.013789
2947.000000	0.013759
2946.000000	0.013752
2945.000000	0.013766
2944.000000	0.013797
2943.000000	0.013839
2942.000000	0.013890
2941.000000	0.013945
2940.000000	0.013998
2939.000000	0.014045
2938.000000	0.014086
2937.000000	0.014124
2936.000000	0.014155
2935.000000	0.014174
2934.000000	0.014180
2933.000000	0.014177
2932.000000	0.014168
2931.000000	0.014146
2930.000000	0.014107
2929.000000	0.014047
2928.000000	0.013972
2927.000000	0.013888
2926.000000	0.013803
2925.000000	0.013717
2924.000000	0.013623
2923.000000	0.013517
2922.000000	0.013401
2921.000000	0.013284
2920.000000	0.013173
2919.000000	0.013071
2918.000000	0.012978
2917.000000	0.012891
2916.000000	0.012810
2915.000000	0.012740
2914.000000	0.012687
2913.000000	0.012654
2912.000000	0.012633
2911.000000	0.012610
2910.000000	0.012579
2909.000000	0.012539
2908.000000	0.012495
2907.000000	0.012449
2906.000000	0.012405
2905.000000	0.012360
2904.000000	0.012313
2903.000000	0.012266
2902.000000	0.012227
2901.000000	0.012199
2900.000000	0.012182
2899.000000	0.012170
2898.000000	0.012159
2897.000000	0.012145
2896.000000	0.012128
2895.000000	0.012111
2894.000000	0.012102
2893.000000	0.012104
2892.000000	0.012114
2891.000000	0.012128
2890.000000	0.012144
2889.000000	0.012163
2888.000000	0.012183
2887.000000	0.012207
2886.000000	0.012239
2885.000000	0.012283
2884.000000	0.012340
2883.000000	0.012402
2882.000000	0.012463
2881.000000	0.012519
2880.000000	0.012567
2879.000000	0.012607
2878.000000	0.012637
2877.000000	0.012651
2876.000000	0.012648
2875.000000	0.012628
2874.000000	0.012596
2873.000000	0.012549
2872.000000	0.012481
2871.000000	0.012389
2870.000000	0.012281
2869.000000	0.012172
2868.000000	0.012069
2867.000000	0.011970
2866.000000	0.011872
2865.000000	0.011777
2864.000000	0.011688
2863.000000	0.011608
2862.000000	0.011536
2861.000000	0.011471
2860.000000	0.011404
2859.000000	0.011327
2858.000000	0.011238
2857.000000	0.011140
2856.000000	0.011035
2855.000000	0.010923
2854.000000	0.010807
2853.000000	0.010697
2852.000000	0.010603
2851.000000	0.010532
2850.000000	0.010489
2849.000000	0.010471
2848.000000	0.010470
2847.000000	0.010473
2846.000000	0.010477
2845.000000	0.010480
2844.000000	0.010482
2843.000000	0.010482
2842.000000	0.010479
2841.000000	0.010475
2840.000000	0.010469
2839.000000	0.010459
2838.000000	0.010449
2837.000000	0.010440
2836.000000	0.010432
2835.000000	0.010424
2834.000000	0.010415
2833.000000	0.010403
2832.000000	0.010387
2831.000000	0.010368
2830.000000	0.010348
2829.000000	0.010331
2828.000000	0.010319
2827.000000	0.010309
2826.000000	0.010302
2825.000000	0.010299
2824.000000	0.010298
2823.000000	0.010296
2822.000000	0.010291
2821.000000	0.010283
2820.000000	0.010271
2819.000000	0.010258
2818.000000	0.010247
2817.000000	0.010237
2816.000000	0.010224
2815.000000	0.010209
2814.000000	0.010197
2813.000000	0.010190
2812.000000	0.010187
2811.000000	0.010180
2810.000000	0.010169
2809.000000	0.010153
2808.000000	0.010134
2807.000000	0.010112
2806.000000	0.010091
2805.000000	0.010077
2804.000000	0.010066
2803.000000	0.010054
2802.000000	0.010039
2801.000000	0.010023
2800.000000	0.010011
2799.000000	0.010000
2798.000000	0.009989
2797.000000	0.009979
2796.000000	0.009965
2795.000000	0.009948
2794.000000	0.009929
2793.000000	0.009913
2792.000000	0.009897
2791.000000	0.009880
2790.000000	0.009858
2789.000000	0.009836
2788.000000	0.009812
2787.000000	0.009788
2786.000000	0.009767
2785.000000	0.009754
2784.000000	0.009749
2783.000000	0.009743
2782.000000	0.009732
2781.000000	0.009715
2780.000000	0.009699
2779.000000	0.009686
2778.000000	0.009677
2777.000000	0.009669
2776.000000	0.009658
2775.000000	0.009641
2774.000000	0.009621
2773.000000	0.009600
2772.000000	0.009580
2771.000000	0.009560
2770.000000	0.009542
2769.000000	0.009529
2768.000000	0.009517
2767.000000	0.009504
2766.000000	0.009489
2765.000000	0.009476
2764.000000	0.009466
2763.000000	0.009452
2762.000000	0.009434
2761.000000	0.009416
2760.000000	0.009401
2759.000000	0.009390
2758.000000	0.009377
2757.000000	0.009362
2756.000000	0.009345
2755.000000	0.009331
2754.000000	0.009320
2753.000000	0.009310
2752.000000	0.009297
2751.000000	0.009283
2750.000000	0.009269
2749.000000	0.009257
2748.000000	0.009244
2747.000000	0.009226
2746.000000	0.009203
2745.000000	0.009181
2744.000000	0.009163
2743.000000	0.009149
2742.000000	0.009137
2741.000000	0.009129
2740.000000	0.009123
2739.000000	0.009117
2738.000000	0.009106
2737.000000	0.009089
2736.000000	0.009072
2735.000000	0.009055
2734.000000	0.009039
2733.000000	0.009024
2732.000000	0.009007
2731.000000	0.008991
2730.000000	0.008979
2729.000000	0.008974
2728.000000	0.008974
2727.000000	0.008971
2726.000000	0.008962
2725.000000	0.008947
2724.000000	0.008928
2723.000000	0.008911
2722.000000	0.008895
2721.000000	0.008881
2720.000000	0.008864
2719.000000	0.008840
2718.000000	0.008813
2717.000000	0.008792
2716.000000	0.008780
2715.000000	0.008772
2714.000000	0.008762
2713.000000	0.008749
2712.000000	0.008734
2711.000000	0.008720
2710.000000	0.008709
2709.000000	0.008700
2708.000000	0.008691
2707.000000	0.008676
2706.000000	0.008659
2705.000000	0.008642
2704.000000	0.008629
2703.000000	0.008619
2702.000000	0.008613
2701.000000	0.008610
2700.000000	0.008607
2699.000000	0.008600
2698.000000	0.008590
2697.000000	0.008581
2696.000000	0.008576
2695.000000	0.008572
2694.000000	0.008565
2693.000000	0.008554
2692.000000	0.008540
2691.000000	0.008525
2690.000000	0.008515
2689.000000	0.008511
2688.000000	0.008511
2687.000000	0.008512
2686.000000	0.008510
2685.000000	0.008501
2684.000000	0.008487
2683.000000	0.008471
2682.000000	0.008458
2681.000000	0.008450
2680.000000	0.008450
2679.000000	0.008451
2678.000000	0.008451
2677.000000	0.008447
2676.000000	0.008439
2675.000000	0.008431
2674.000000	0.008424
2673.000000	0.008419
2672.000000	0.008414
2671.000000	0.008407
2670.000000	0.008402
2669.000000	0.008404
2668.000000	0.008415
2667.000000	0.008437
2666.000000	0.008469
2665.000000	0.008512
2664.000000	0.008559
2663.000000	0.008604
2662.000000	0.008644
2661.000000	0.008677
2660.000000	0.008703
2659.000000	0.008724
2658.000000	0.008741
2657.000000	0.008757
2656.000000	0.008768
2655.000000	0.008775
2654.000000	0.008777
2653.000000	0.008777
2652.000000	0.008776
2651.000000	0.008770
2650.000000	0.008762
2649.000000	0.008753
2648.000000	0.008744
2647.000000	0.008736
2646.000000	0.008729
2645.000000	0.008726
2644.000000	0.008724
2643.000000	0.008717
2642.000000	0.008704
2641.000000	0.008688
2640.000000	0.008675
2639.000000	0.008669
2638.000000	0.008666
2637.000000	0.008662
2636.000000	0.008654
2635.000000	0.008643
2634.000000	0.008628
2633.000000	0.008612
2632.000000	0.008595
2631.000000	0.008578
2630.000000	0.008562
2629.000000	0.008551
2628.000000	0.008540
2627.000000	0.008527
2626.000000	0.008512
2625.000000	0.008495
2624.000000	0.008479
2623.000000	0.008464
2622.000000	0.008451
2621.000000	0.008442
2620.000000	0.008433
2619.000000	0.008422
2618.000000	0.008408
2617.000000	0.008393
2616.000000	0.008378
2615.000000	0.008360
2614.000000	0.008340
2613.000000	0.008321
2612.000000	0.008306
2611.000000	0.008292
2610.000000	0.008275
2609.000000	0.008256
2608.000000	0.008237
2607.000000	0.008219
2606.000000	0.008205
2605.000000	0.008197
2604.000000	0.008188
2603.000000	0.008172
2602.000000	0.008148
2601.000000	0.008123
2600.000000	0.008100
2599.000000	0.008081
2598.000000	0.008064
2597.000000	0.008049
2596.000000	0.008036
2595.000000	0.008024
2594.000000	0.008012
2593.000000	0.008000
2592.000000	0.007989
2591.000000	0.007980
2590.000000	0.007969
2589.000000	0.007956
2588.000000	0.007942
2587.000000	0.007928
2586.000000	0.007919
2585.000000	0.007912
2584.000000	0.007901
2583.000000	0.007884
2582.000000	0.007867
2581.000000	0.007856
2580.000000	0.007850
2579.000000	0.007841
2578.000000	0.007826
2577.000000	0.007807
2576.000000	0.007788
2575.000000	0.007766
2574.000000	0.007744
2573.000000	0.007722
2572.000000	0.007702
2571.000000	0.007680
2570.000000	0.007663
2569.000000	0.007656
2568.000000	0.007659
2567.000000	0.007662
2566.000000	0.007655
2565.000000	0.007642
2564.000000	0.007629
2563.000000	0.007620
2562.000000	0.007615
2561.000000	0.007610
2560.000000	0.007600
2559.000000	0.007586
2558.000000	0.007576
2557.000000	0.007570
2556.000000	0.007561
2555.000000	0.007540
2554.000000	0.007508
2553.000000	0.007479
2552.000000	0.007463
2551.000000	0.007462
2550.000000	0.007471
2549.000000	0.007483
2548.000000	0.007492
2547.000000	0.007494
2546.000000	0.007491
2545.000000	0.007486
2544.000000	0.007477
2543.000000	0.007462
2542.000000	0.007442
2541.000000	0.007423
2540.000000	0.007409
2539.000000	0.007397
2538.000000	0.007388
2537.000000	0.007382
2536.000000	0.007377
2535.000000	0.007367
2534.000000	0.007350
2533.000000	0.007331
2532.000000	0.007314
2531.000000	0.007303
2530.000000	0.007297
2529.000000	0.007297
2528.000000	0.007300
2527.000000	0.007302
2526.000000	0.007300
2525.000000	0.007294
2524.000000	0.007282
2523.000000	0.007266
2522.000000	0.007250
2521.000000	0.007239
2520.000000	0.007234
2519.000000	0.007233
2518.000000	0.007232
2517.000000	0.007224
2516.000000	0.007209
2515.000000	0.007192
2514.000000	0.007184
2513.000000	0.007189
2512.000000	0.007198
2511.000000	0.007199
2510.000000	0.007191
2509.000000	0.007179
2508.000000	0.007165
2507.000000	0.007147
2506.000000	0.007133
2505.000000	0.007130
2504.000000	0.007140
2503.000000	0.007150
2502.000000	0.007153
2501.000000	0.007150
2500.000000	0.007144
2499.000000	0.007135
2498.000000	0.007125
2497.000000	0.007117
2496.000000	0.007110
2495.000000	0.007105
2494.000000	0.007100
2493.000000	0.007095
2492.000000	0.007090
2491.000000	0.007083
2490.000000	0.007074
2489.000000	0.007064
2488.000000	0.007050
2487.000000	0.007035
2486.000000	0.007021
2485.000000	0.007012
2484.000000	0.007008
2483.000000	0.007006
2482.000000	0.007008
2481.000000	0.007014
2480.000000	0.007021
2479.000000	0.007026
2478.000000	0.007028
2477.000000	0.007024
2476.000000	0.007012
2475.000000	0.006997
2474.000000	0.006990
2473.000000	0.006996
2472.000000	0.007005
2471.000000	0.007004
2470.000000	0.006992
2469.000000	0.006976
2468.000000	0.006964
2467.000000	0.006958
2466.000000	0.006962
2465.000000	0.006976
2464.000000	0.006994
2463.000000	0.007006
2462.000000	0.007012
2461.000000	0.007022
2460.000000	0.007037
2459.000000	0.007055
2458.000000	0.007072
2457.000000	0.007086
2456.000000	0.007093
2455.000000	0.007091
2454.000000	0.007083
2453.000000	0.007073
2452.000000	0.007062
2451.000000	0.007045
2450.000000	0.007023
2449.000000	0.007001
2448.000000	0.006983
2447.000000	0.006965
2446.000000	0.006947
2445.000000	0.006930
2444.000000	0.006915
2443.000000	0.006902
2442.000000	0.006889
2441.000000	0.006876
2440.000000	0.006858
2439.000000	0.006837
2438.000000	0.006820
2437.000000	0.006806
2436.000000	0.006789
2435.000000	0.006765
2434.000000	0.006744
2433.000000	0.006735
2432.000000	0.006734
2431.000000	0.006731
2430.000000	0.006722
2429.000000	0.006713
2428.000000	0.006703
2427.000000	0.006688
2426.000000	0.006667
2425.000000	0.006649
2424.000000	0.006639
2423.000000	0.006633
2422.000000	0.006624
2421.000000	0.006612
2420.000000	0.006600
2419.000000	0.006587
2418.000000	0.006576
2417.000000	0.006571
2416.000000	0.006570
2415.000000	0.006565
2414.000000	0.006560
2413.000000	0.006560
2412.000000	0.006569
2411.000000	0.006576
2410.000000	0.006568
2409.000000	0.006539
2408.000000	0.006493
2407.000000	0.006444
2406.000000	0.006405
2405.000000	0.006382
2404.000000	0.006374
2403.000000	0.006375
2402.000000	0.006381
2401.000000	0.006386
2400.000000	0.006383
2399.000000	0.006368
2398.000000	0.006352
2397.000000	0.006346
2396.000000	0.006347
2395.000000	0.006345
2394.000000	0.006331
2393.000000	0.006308
2392.000000	0.006284
2391.000000	0.006262
2390.000000	0.006248
2389.000000	0.006239
2388.000000	0.006228
2387.000000	0.006207
2386.000000	0.006176
2385.000000	0.006137
2384.000000	0.006089
2383.000000	0.006035
2382.000000	0.005981
2381.000000	0.005942
2380.000000	0.005920
2379.000000	0.005911
2378.000000	0.005912
2377.000000	0.005922
2376.000000	0.005940
2375.000000	0.005955
2374.000000	0.005960
2373.000000	0.005954
2372.000000	0.005942
2371.000000	0.005928
2370.000000	0.005913
2369.000000	0.005899
2368.000000	0.005888
2367.000000	0.005885
2366.000000	0.005897
2365.000000	0.005920
2364.000000	0.005940
2363.000000	0.005951
2362.000000	0.005961
2361.000000	0.005976
2360.000000	0.005985
2359.000000	0.005981
2358.000000	0.005974
2357.000000	0.005982
2356.000000	0.006006
2355.000000	0.006024
2354.000000	0.006017
2353.000000	0.005985
2352.000000	0.005949
2351.000000	0.005931
2350.000000	0.005963
2349.000000	0.006071
2348.000000	0.006245
2347.000000	0.006424
2346.000000	0.006520
2345.000000	0.006504
2344.000000	0.006424
2343.000000	0.006354
2342.000000	0.006323
2341.000000	0.006331
2340.000000	0.006361
2339.000000	0.006384
2338.000000	0.006384
2337.000000	0.006364
2336.000000	0.006342
2335.000000	0.006329
2334.000000	0.006324
2333.000000	0.006318
2332.000000	0.006300
2331.000000	0.006277
2330.000000	0.006303
2329.000000	0.006452
2328.000000	0.006756
2327.000000	0.007150
2326.000000	0.007491
2325.000000	0.007656
2324.000000	0.007617
2323.000000	0.007445
2322.000000	0.007246
2321.000000	0.007086
2320.000000	0.006971
2319.000000	0.006884
2318.000000	0.006818
2317.000000	0.006773
2316.000000	0.006740
2315.000000	0.006703
2314.000000	0.006652
2313.000000	0.006590
2312.000000	0.006533
2311.000000	0.006493
2310.000000	0.006477
2309.000000	0.006482
2308.000000	0.006502
2307.000000	0.006532
2306.000000	0.006568
2305.000000	0.006609
2304.000000	0.006646
2303.000000	0.006671
2302.000000	0.006689
2301.000000	0.006710
2300.000000	0.006743
2299.000000	0.006789
2298.000000	0.006845
2297.000000	0.006907
2296.000000	0.006971
2295.000000	0.007031
2294.000000	0.007086
2293.000000	0.007142
2292.000000	0.007211
2291.000000	0.007290
2290.000000	0.007369
2289.000000	0.007432
2288.000000	0.007460
2287.000000	0.007449
2286.000000	0.007406
2285.000000	0.007349
2284.000000	0.007293
2283.000000	0.007247
2282.000000	0.007209
2281.000000	0.007173
2280.000000	0.007133
2279.000000	0.007086
2278.000000	0.007040
2277.000000	0.007005
2276.000000	0.006982
2275.000000	0.006965
2274.000000	0.006948
2273.000000	0.006929
2272.000000	0.006907
2271.000000	0.006879
2270.000000	0.006840
2269.000000	0.006787
2268.000000	0.006722
2267.000000	0.006659
2266.000000	0.006613
2265.000000	0.006588
2264.000000	0.006575
2263.000000	0.006573
2262.000000	0.006594
2261.000000	0.006642
2260.000000	0.006692
2259.000000	0.006706
2258.000000	0.006664
2257.000000	0.006574
2256.000000	0.006463
2255.000000	0.006370
2254.000000	0.006326
2253.000000	0.006335
2252.000000	0.006375
2251.000000	0.006421
2250.000000	0.006468
2249.000000	0.006514
2248.000000	0.006549
2247.000000	0.006558
2246.000000	0.006548
2245.000000	0.006531
2244.000000	0.006510
2243.000000	0.006479
2242.000000	0.006445
2241.000000	0.006424
2240.000000	0.006421
2239.000000	0.006429
2238.000000	0.006449
2237.000000	0.006476
2236.000000	0.006493
2235.000000	0.006483
2234.000000	0.006453
2233.000000	0.006428
2232.000000	0.006420
2231.000000	0.006425
2230.000000	0.006433
2229.000000	0.006441
2228.000000	0.006437
2227.000000	0.006413
2226.000000	0.006376
2225.000000	0.006336
2224.000000	0.006293
2223.000000	0.006247
2222.000000	0.006214
2221.000000	0.006214
2220.000000	0.006240
2219.000000	0.006264
2218.000000	0.006267
2217.000000	0.006251
2216.000000	0.006232
2215.000000	0.006224
2214.000000	0.006235
2213.000000	0.006257
2212.000000	0.006269
2211.000000	0.006261
2210.000000	0.006249
2209.000000	0.006247
2208.000000	0.006243
2207.000000	0.006218
2206.000000	0.006181
2205.000000	0.006167
2204.000000	0.006186
2203.000000	0.006226
2202.000000	0.006271
2201.000000	0.006316
2200.000000	0.006350
2199.000000	0.006366
2198.000000	0.006371
2197.000000	0.006379
2196.000000	0.006392
2195.000000	0.006404
2194.000000	0.006416
2193.000000	0.006427
2192.000000	0.006426
2191.000000	0.006412
2190.000000	0.006404
2189.000000	0.006417
2188.000000	0.006437
2187.000000	0.006430
2186.000000	0.006369
2185.000000	0.006235
2184.000000	0.006027
2183.000000	0.005811
2182.000000	0.005702
2181.000000	0.005762
2180.000000	0.005908
2179.000000	0.005981
2178.000000	0.005901
2177.000000	0.005732
2176.000000	0.005596
2175.000000	0.005574
2174.000000	0.005678
2173.000000	0.005871
2172.000000	0.006097
2171.000000	0.006317
2170.000000	0.006523
2169.000000	0.006706
2168.000000	0.006839
2167.000000	0.006912
2166.000000	0.006985
2165.000000	0.007137
2164.000000	0.007336
2163.000000	0.007368
2162.000000	0.006959
2161.000000	0.005998
2160.000000	0.004715
2159.000000	0.003580
2158.000000	0.002962
2157.000000	0.002884
2156.000000	0.003113
2155.000000	0.003411
2154.000000	0.003670
2153.000000	0.003866
2152.000000	0.003996
2151.000000	0.004069
2150.000000	0.004112
2149.000000	0.004141
2148.000000	0.004149
2147.000000	0.004137
2146.000000	0.004143
2145.000000	0.004197
2144.000000	0.004279
2143.000000	0.004349
2142.000000	0.004391
2141.000000	0.004413
2140.000000	0.004410
2139.000000	0.004365
2138.000000	0.004256
2137.000000	0.004079
2136.000000	0.003865
2135.000000	0.003697
2134.000000	0.003663
2133.000000	0.003783
2132.000000	0.003991
2131.000000	0.004205
2130.000000	0.004388
2129.000000	0.004532
2128.000000	0.004634
2127.000000	0.004706
2126.000000	0.004787
2125.000000	0.004903
2124.000000	0.005039
2123.000000	0.005161
2122.000000	0.005265
2121.000000	0.005366
2120.000000	0.005470
2119.000000	0.005571
2118.000000	0.005673
2117.000000	0.005778
2116.000000	0.005869
2115.000000	0.005925
2114.000000	0.005948
2113.000000	0.005956
2112.000000	0.005951
2111.000000	0.005925
2110.000000	0.005888
2109.000000	0.005860
2108.000000	0.005848
2107.000000	0.005844
2106.000000	0.005843
2105.000000	0.005849
2104.000000	0.005850
2103.000000	0.005832
2102.000000	0.005801
2101.000000	0.005768
2100.000000	0.005728
2099.000000	0.005656
2098.000000	0.005545
2097.000000	0.005420
2096.000000	0.005325
2095.000000	0.005291
2094.000000	0.005327
2093.000000	0.005414
2092.000000	0.005517
2091.000000	0.005612
2090.000000	0.005701
2089.000000	0.005782
2088.000000	0.005842
2087.000000	0.005870
2086.000000	0.005881
2085.000000	0.005903
2084.000000	0.005940
2083.000000	0.005975
2082.000000	0.005992
2081.000000	0.005982
2080.000000	0.005949
2079.000000	0.005908
2078.000000	0.005884
2077.000000	0.005886
2076.000000	0.005895
2075.000000	0.005890
2074.000000	0.005880
2073.000000	0.005876
2072.000000	0.005866
2071.000000	0.005831
2070.000000	0.005779
2069.000000	0.005738
2068.000000	0.005723
2067.000000	0.005727
2066.000000	0.005734
2065.000000	0.005722
2064.000000	0.005674
2063.000000	0.005602
2062.000000	0.005545
2061.000000	0.005538
2060.000000	0.005577
2059.000000	0.005642
2058.000000	0.005708
2057.000000	0.005742
2056.000000	0.005747
2055.000000	0.005809
2054.000000	0.006047
2053.000000	0.006447
2052.000000	0.006798
2051.000000	0.006865
2050.000000	0.006614
2049.000000	0.006231
2048.000000	0.005917
2047.000000	0.005734
2046.000000	0.005653
2045.000000	0.005639
2044.000000	0.005652
2043.000000	0.005654
2042.000000	0.005648
2041.000000	0.005660
2040.000000	0.005690
2039.000000	0.005709
2038.000000	0.005709
2037.000000	0.005694
2036.000000	0.005636
2035.000000	0.005494
2034.000000	0.005288
2033.000000	0.005074
2032.000000	0.004873
2031.000000	0.004687
2030.000000	0.004561
2029.000000	0.004552
2028.000000	0.004630
2027.000000	0.004699
2026.000000	0.004714
2025.000000	0.004700
2024.000000	0.004691
2023.000000	0.004694
2022.000000	0.004724
2021.000000	0.004780
2020.000000	0.004811
2019.000000	0.004766
2018.000000	0.004675
2017.000000	0.004614
2016.000000	0.004605
2015.000000	0.004609
2014.000000	0.004614
2013.000000	0.004659
2012.000000	0.004757
2011.000000	0.004855
2010.000000	0.004870
2009.000000	0.004738
2008.000000	0.004460
2007.000000	0.004130
2006.000000	0.003901
2005.000000	0.003864
2004.000000	0.003982
2003.000000	0.004152
2002.000000	0.004320
2001.000000	0.004483
2000.000000	0.004631
1999.000000	0.004736
1998.000000	0.004792
1997.000000	0.004821
1996.000000	0.004841
1995.000000	0.004872
1994.000000	0.004939
1993.000000	0.005044
1992.000000	0.005144
1991.000000	0.005202
1990.000000	0.005227
1989.000000	0.005242
1988.000000	0.005241
1987.000000	0.005238
1986.000000	0.005300
1985.000000	0.005488
1984.000000	0.005775
1983.000000	0.006081
1982.000000	0.006314
1981.000000	0.006351
1980.000000	0.006046
1979.000000	0.005393
1978.000000	0.004649
1977.000000	0.004140
1976.000000	0.003949
1975.000000	0.003927
1974.000000	0.003955
1973.000000	0.004015
1972.000000	0.004079
1971.000000	0.004089
1970.000000	0.004058
1969.000000	0.004044
1968.000000	0.004046
1967.000000	0.004019
1966.000000	0.003986
1965.000000	0.004003
1964.000000	0.004041
1963.000000	0.004004
1962.000000	0.003878
1961.000000	0.003737
1960.000000	0.003638
1959.000000	0.003583
1958.000000	0.003592
1957.000000	0.003690
1956.000000	0.003836
1955.000000	0.003952
1954.000000	0.004020
1953.000000	0.004074
1952.000000	0.004119
1951.000000	0.004118
1950.000000	0.004075
1949.000000	0.004038
1948.000000	0.004027
1947.000000	0.004030
1946.000000	0.004049
1945.000000	0.004102
1944.000000	0.004166
1943.000000	0.004197
1942.000000	0.004194
1941.000000	0.004195
1940.000000	0.004208
1939.000000	0.004201
1938.000000	0.004167
1937.000000	0.004137
1936.000000	0.004116
1935.000000	0.004087
1934.000000	0.004059
1933.000000	0.004061
1932.000000	0.004097
1931.000000	0.004135
1930.000000	0.004167
1929.000000	0.004200
1928.000000	0.004227
1927.000000	0.004232
1926.000000	0.004225
1925.000000	0.004240
1924.000000	0.004285
1923.000000	0.004344
1922.000000	0.004411
1921.000000	0.004497
1920.000000	0.004586
1919.000000	0.004625
1918.000000	0.004585
1917.000000	0.004513
1916.000000	0.004479
1915.000000	0.004494
1914.000000	0.004517
1913.000000	0.004517
1912.000000	0.004503
1911.000000	0.004487
1910.000000	0.004471
1909.000000	0.004452
1908.000000	0.004436
1907.000000	0.004425
1906.000000	0.004407
1905.000000	0.004390
1904.000000	0.004393
1903.000000	0.004425
1902.000000	0.004467
1901.000000	0.004494
1900.000000	0.004499
1899.000000	0.004493
1898.000000	0.004485
1897.000000	0.004485
1896.000000	0.004493
1895.000000	0.004499
1894.000000	0.004492
1893.000000	0.004475
1892.000000	0.004459
1891.000000	0.004445
1890.000000	0.004420
1889.000000	0.004389
1888.000000	0.004383
1887.000000	0.004418
1886.000000	0.004465
1885.000000	0.004486
1884.000000	0.004481
1883.000000	0.004471
1882.000000	0.004466
1881.000000	0.004459
1880.000000	0.004446
1879.000000	0.004431
1878.000000	0.004419
1877.000000	0.004409
1876.000000	0.004406
1875.000000	0.004409
1874.000000	0.004413
1873.000000	0.004417
1872.000000	0.004428
1871.000000	0.004450
1870.000000	0.004468
1869.000000	0.004458
1868.000000	0.004432
1867.000000	0.004433
1866.000000	0.004463
1865.000000	0.004483
1864.000000	0.004474
1863.000000	0.004457
1862.000000	0.004452
1861.000000	0.004451
1860.000000	0.004438
1859.000000	0.004419
1858.000000	0.004402
1857.000000	0.004387
1856.000000	0.004375
1855.000000	0.004364
1854.000000	0.004349
1853.000000	0.004329
1852.000000	0.004315
1851.000000	0.004325
1850.000000	0.004348
1849.000000	0.004362
1848.000000	0.004369
1847.000000	0.004395
1846.000000	0.004437
1845.000000	0.004453
1844.000000	0.004413
1843.000000	0.004353
1842.000000	0.004346
1841.000000	0.004405
1840.000000	0.004467
1839.000000	0.004468
1838.000000	0.004428
1837.000000	0.004407
1836.000000	0.004415
1835.000000	0.004416
1834.000000	0.004402
1833.000000	0.004393
1832.000000	0.004382
1831.000000	0.004347
1830.000000	0.004297
1829.000000	0.004272
1828.000000	0.004302
1827.000000	0.004366
1826.000000	0.004416
1825.000000	0.004416
1824.000000	0.004381
1823.000000	0.004363
1822.000000	0.004383
1821.000000	0.004390
1820.000000	0.004331
1819.000000	0.004227
1818.000000	0.004140
1817.000000	0.004102
1816.000000	0.004100
1815.000000	0.004137
1814.000000	0.004222
1813.000000	0.004314
1812.000000	0.004363
1811.000000	0.004380
1810.000000	0.004409
1809.000000	0.004440
1808.000000	0.004442
1807.000000	0.004429
1806.000000	0.004425
1805.000000	0.004424
1804.000000	0.004413
1803.000000	0.004412
1802.000000	0.004448
1801.000000	0.004489
1800.000000	0.004505
1799.000000	0.004519
1798.000000	0.004549
1797.000000	0.004573
1796.000000	0.004582
1795.000000	0.004610
1794.000000	0.004668
1793.000000	0.004700
1792.000000	0.004649
1791.000000	0.004565
1790.000000	0.004532
1789.000000	0.004553
1788.000000	0.004583
1787.000000	0.004601
1786.000000	0.004603
1785.000000	0.004582
1784.000000	0.004540
1783.000000	0.004509
1782.000000	0.004525
1781.000000	0.004557
1780.000000	0.004571
1779.000000	0.004557
1778.000000	0.004545
1777.000000	0.004553
1776.000000	0.004576
1775.000000	0.004608
1774.000000	0.004638
1773.000000	0.004642
1772.000000	0.004583
1771.000000	0.004498
1770.000000	0.004508
1769.000000	0.004630
1768.000000	0.004710
1767.000000	0.004659
1766.000000	0.004576
1765.000000	0.004569
1764.000000	0.004600
1763.000000	0.004566
1762.000000	0.004478
1761.000000	0.004434
1760.000000	0.004472
1759.000000	0.004552
1758.000000	0.004648
1757.000000	0.004738
1756.000000	0.004790
1755.000000	0.004823
1754.000000	0.004926
1753.000000	0.005123
1752.000000	0.005293
1751.000000	0.005294
1750.000000	0.005182
1749.000000	0.005146
1748.000000	0.005190
1747.000000	0.005191
1746.000000	0.005134
1745.000000	0.005081
1744.000000	0.005017
1743.000000	0.004874
1742.000000	0.004710
1741.000000	0.004631
1740.000000	0.004593
1739.000000	0.004484
1738.000000	0.004411
1737.000000	0.004548
1736.000000	0.004852
1735.000000	0.005076
1734.000000	0.005059
1733.000000	0.004947
1732.000000	0.004956
1731.000000	0.005070
1730.000000	0.005171
1729.000000	0.005248
1728.000000	0.005333
1727.000000	0.005418
1726.000000	0.005499
1725.000000	0.005611
1724.000000	0.005752
1723.000000	0.005839
1722.000000	0.005864
1721.000000	0.005931
1720.000000	0.006107
1719.000000	0.006347
1718.000000	0.006587
1717.000000	0.006733
1716.000000	0.006803
1715.000000	0.006906
1714.000000	0.007062
1713.000000	0.007260
1712.000000	0.007515
1711.000000	0.007807
1710.000000	0.008115
1709.000000	0.008450
1708.000000	0.008849
1707.000000	0.009359
1706.000000	0.009975
1705.000000	0.010636
1704.000000	0.011314
1703.000000	0.012099
1702.000000	0.013094
1701.000000	0.014395
1700.000000	0.015841
1699.000000	0.017165
1698.000000	0.018380
1697.000000	0.019520
1696.000000	0.020446
1695.000000	0.021120
1694.000000	0.021717
1693.000000	0.022407
1692.000000	0.023221
1691.000000	0.024093
1690.000000	0.025000
1689.000000	0.025939
1688.000000	0.026867
1687.000000	0.027775
1686.000000	0.028691
1685.000000	0.029809
1684.000000	0.031111
1683.000000	0.032228
1682.000000	0.033172
1681.000000	0.034193
1680.000000	0.035258
1679.000000	0.036230
1678.000000	0.037106
1677.000000	0.038054
1676.000000	0.039223
1675.000000	0.040527
1674.000000	0.041766
1673.000000	0.042916
1672.000000	0.044080
1671.000000	0.045322
1670.000000	0.046713
1669.000000	0.048249
1668.000000	0.049778
1667.000000	0.051131
1666.000000	0.052330
1665.000000	0.053550
1664.000000	0.054968
1663.000000	0.056599
1662.000000	0.058255
1661.000000	0.059773
1660.000000	0.061146
1659.000000	0.062325
1658.000000	0.063243
1657.000000	0.063925
1656.000000	0.064494
1655.000000	0.064970
1654.000000	0.065520
1653.000000	0.066285
1652.000000	0.066887
1651.000000	0.067065
1650.000000	0.067049
1649.000000	0.066929
1648.000000	0.066779
1647.000000	0.066591
1646.000000	0.066294
1645.000000	0.065914
1644.000000	0.065536
1643.000000	0.065161
1642.000000	0.064743
1641.000000	0.064259
1640.000000	0.063770
1639.000000	0.063325
1638.000000	0.062882
1637.000000	0.062384
1636.000000	0.061872
1635.000000	0.061368
1634.000000	0.060907
1633.000000	0.060559
1632.000000	0.060299
1631.000000	0.060021
1630.000000	0.059662
1629.000000	0.059280
1628.000000	0.058979
1627.000000	0.058755
1626.000000	0.058522
1625.000000	0.058247
1624.000000	0.057982
1623.000000	0.057732
1622.000000	0.057435
1621.000000	0.057109
1620.000000	0.056799
1619.000000	0.056436
1618.000000	0.055868
1617.000000	0.055065
1616.000000	0.054190
1615.000000	0.053359
1614.000000	0.052525
1613.000000	0.051629
1612.000000	0.050638
1611.000000	0.049552
1610.000000	0.048373
1609.000000	0.047133
1608.000000	0.045900
1607.000000	0.044703
1606.000000	0.043526
1605.000000	0.042362
1604.000000	0.041239
1603.000000	0.040161
1602.000000	0.039104
1601.000000	0.038079
1600.000000	0.037128
1599.000000	0.036257
1598.000000	0.035431
1597.000000	0.034628
1596.000000	0.033865
1595.000000	0.033160
1594.000000	0.032487
1593.000000	0.031826
1592.000000	0.031204
1591.000000	0.030639
1590.000000	0.030109
1589.000000	0.029601
1588.000000	0.029150
1587.000000	0.028779
1586.000000	0.028461
1585.000000	0.028170
1584.000000	0.027922
1583.000000	0.027742
1582.000000	0.027584
1581.000000	0.027423
1580.000000	0.027311
1579.000000	0.027324
1578.000000	0.027440
1577.000000	0.027614
1576.000000	0.027812
1575.000000	0.027961
1574.000000	0.028075
1573.000000	0.028230
1572.000000	0.028442
1571.000000	0.028738
1570.000000	0.029193
1569.000000	0.029780
1568.000000	0.030395
1567.000000	0.030999
1566.000000	0.031626
1565.000000	0.032285
1564.000000	0.032924
1563.000000	0.033503
1562.000000	0.034004
1561.000000	0.034521
1560.000000	0.035519
1559.000000	0.037410
1558.000000	0.039070
1557.000000	0.040150
1556.000000	0.041216
1555.000000	0.042428
1554.000000	0.043703
1553.000000	0.044895
1552.000000	0.045996
1551.000000	0.047107
1550.000000	0.048267
1549.000000	0.049375
1548.000000	0.050311
1547.000000	0.051086
1546.000000	0.051774
1545.000000	0.052408
1544.000000	0.052974
1543.000000	0.053500
1542.000000	0.054078
1541.000000	0.054788
1540.000000	0.055513
1539.000000	0.055966
1538.000000	0.056112
1537.000000	0.056136
1536.000000	0.056132
1535.000000	0.056127
1534.000000	0.056186
1533.000000	0.056306
1532.000000	0.056433
1531.000000	0.056549
1530.000000	0.056623
1529.000000	0.056612
1528.000000	0.056549
1527.000000	0.056518
1526.000000	0.056549
1525.000000	0.056572
1524.000000	0.056562
1523.000000	0.056586
1522.000000	0.056713
1521.000000	0.056856
1520.000000	0.056900
1519.000000	0.056909
1518.000000	0.056967
1517.000000	0.057021
1516.000000	0.056953
1515.000000	0.056730
1514.000000	0.056379
1513.000000	0.055847
1512.000000	0.055107
1511.000000	0.054291
1510.000000	0.053561
1509.000000	0.052897
1508.000000	0.052111
1507.000000	0.051135
1506.000000	0.050057
1505.000000	0.049068
1504.000000	0.048239
1503.000000	0.047496
1502.000000	0.046715
1501.000000	0.045831
1500.000000	0.044874
1499.000000	0.043949
1498.000000	0.043102
1497.000000	0.042222
1496.000000	0.041196
1495.000000	0.040135
1494.000000	0.039193
1493.000000	0.038349
1492.000000	0.037477
1491.000000	0.036521
1490.000000	0.035553
1489.000000	0.034628
1488.000000	0.033772
1487.000000	0.033023
1486.000000	0.032357
1485.000000	0.031745
1484.000000	0.031190
1483.000000	0.030698
1482.000000	0.030258
1481.000000	0.029871
1480.000000	0.029545
1479.000000	0.029286
1478.000000	0.029084
1477.000000	0.028945
1476.000000	0.028899
1475.000000	0.028997
1474.000000	0.029240
1473.000000	0.029544
1472.000000	0.029756
1471.000000	0.029848
1470.000000	0.029902
1469.000000	0.029941
1468.000000	0.029928
1467.000000	0.029885
1466.000000	0.029912
1465.000000	0.030055
1464.000000	0.030259
1463.000000	0.030454
1462.000000	0.030626
1461.000000	0.030771
1460.000000	0.030909
1459.000000	0.031101
1458.000000	0.031487
1457.000000	0.032053
1456.000000	0.032477
1455.000000	0.032661
1454.000000	0.032775
1453.000000	0.032860
1452.000000	0.032861
1451.000000	0.032761
1450.000000	0.032630
1449.000000	0.032505
1448.000000	0.032345
1447.000000	0.032131
1446.000000	0.031927
1445.000000	0.031744
1444.000000	0.031551
1443.000000	0.031311
1442.000000	0.031040
1441.000000	0.030776
1440.000000	0.030515
1439.000000	0.030222
1438.000000	0.029885
1437.000000	0.029565
1436.000000	0.029284
1435.000000	0.029043
1434.000000	0.028864
1433.000000	0.028707
1432.000000	0.028517
1431.000000	0.028299
1430.000000	0.028125
1429.000000	0.028040
1428.000000	0.028000
1427.000000	0.027964
1426.000000	0.027963
1425.000000	0.028041
1424.000000	0.028173
1423.000000	0.028269
1422.000000	0.028320
1421.000000	0.028386
1420.000000	0.028502
1419.000000	0.028663
1418.000000	0.028881
1417.000000	0.029141
1416.000000	0.029364
1415.000000	0.029488
1414.000000	0.029546
1413.000000	0.029624
1412.000000	0.029731
1411.000000	0.029807
1410.000000	0.029840
1409.000000	0.029872
1408.000000	0.029893
1407.000000	0.029868
1406.000000	0.029820
1405.000000	0.029797
1404.000000	0.029780
1403.000000	0.029712
1402.000000	0.029619
1401.000000	0.029562
1400.000000	0.029557
1399.000000	0.029559
1398.000000	0.029549
1397.000000	0.029560
1396.000000	0.029591
1395.000000	0.029597
1394.000000	0.029598
1393.000000	0.029658
1392.000000	0.029757
1391.000000	0.029819
1390.000000	0.029825
1389.000000	0.029827
1388.000000	0.029861
1387.000000	0.029892
1386.000000	0.029878
1385.000000	0.029831
1384.000000	0.029758
1383.000000	0.029637
1382.000000	0.029467
1381.000000	0.029290
1380.000000	0.029135
1379.000000	0.028984
1378.000000	0.028814
1377.000000	0.028643
1376.000000	0.028500
1375.000000	0.028384
1374.000000	0.028283
1373.000000	0.028207
1372.000000	0.028171
1371.000000	0.028139
1370.000000	0.028059
1369.000000	0.027929
1368.000000	0.027764
1367.000000	0.027558
1366.000000	0.027305
1365.000000	0.027025
1364.000000	0.026761
1363.000000	0.026540
1362.000000	0.026353
1361.000000	0.026199
1360.000000	0.026086
1359.000000	0.025999
1358.000000	0.025911
1357.000000	0.025821
1356.000000	0.025752
1355.000000	0.025711
1354.000000	0.025688
1353.000000	0.025677
1352.000000	0.025684
1351.000000	0.025713
1350.000000	0.025749
1349.000000	0.025793
1348.000000	0.025859
1347.000000	0.025944
1346.000000	0.026026
1345.000000	0.026102
1344.000000	0.026185
1343.000000	0.026271
1342.000000	0.026356
1341.000000	0.026452
1340.000000	0.026573
1339.000000	0.026698
1338.000000	0.026795
1337.000000	0.026870
1336.000000	0.026940
1335.000000	0.026999
1334.000000	0.027029
1333.000000	0.027036
1332.000000	0.027044
1331.000000	0.027054
1330.000000	0.027057
1329.000000	0.027062
1328.000000	0.027087
1327.000000	0.027122
1326.000000	0.027144
1325.000000	0.027158
1324.000000	0.027184
1323.000000	0.027218
1322.000000	0.027251
1321.000000	0.027299
1320.000000	0.027373
1319.000000	0.027453
1318.000000	0.027515
1317.000000	0.027565
1316.000000	0.027620
1315.000000	0.027672
1314.000000	0.027710
1313.000000	0.027746
1312.000000	0.027795
1311.000000	0.027847
1310.000000	0.027888
1309.000000	0.027924
1308.000000	0.027969
1307.000000	0.028012
1306.000000	0.028033
1305.000000	0.028040
1304.000000	0.028048
1303.000000	0.028050
1302.000000	0.028035
1301.000000	0.028010
1300.000000	0.027987
1299.000000	0.027961
1298.000000	0.027927
1297.000000	0.027900
1296.000000	0.027890
1295.000000	0.027881
1294.000000	0.027860
1293.000000	0.027839
1292.000000	0.027833
1291.000000	0.027833
1290.000000	0.027827
1289.000000	0.027822
1288.000000	0.027826
1287.000000	0.027832
1286.000000	0.027833
1285.000000	0.027840
1284.000000	0.027856
1283.000000	0.027868
1282.000000	0.027870
1281.000000	0.027881
1280.000000	0.027912
1279.000000	0.027947
1278.000000	0.027974
1277.000000	0.028003
1276.000000	0.028049
1275.000000	0.028106
1274.000000	0.028162
1273.000000	0.028229
1272.000000	0.028317
1271.000000	0.028409
1270.000000	0.028490
1269.000000	0.028569
1268.000000	0.028657
1267.000000	0.028739
1266.000000	0.028806
1265.000000	0.028878
1264.000000	0.028972
1263.000000	0.029078
1262.000000	0.029182
1261.000000	0.029294
1260.000000	0.029423
1259.000000	0.029558
1258.000000	0.029692
1257.000000	0.029843
1256.000000	0.030020
1255.000000	0.030200
1254.000000	0.030365
1253.000000	0.030529
1252.000000	0.030708
1251.000000	0.030885
1250.000000	0.031044
1249.000000	0.031193
1248.000000	0.031344
1247.000000	0.031484
1246.000000	0.031603
1245.000000	0.031719
1244.000000	0.031841
1243.000000	0.031947
1242.000000	0.032018
1241.000000	0.032068
1240.000000	0.032115
1239.000000	0.032151
1238.000000	0.032160
1237.000000	0.032146
1236.000000	0.032118
1235.000000	0.032067
1234.000000	0.031990
1233.000000	0.031903
1232.000000	0.031811
1231.000000	0.031699
1230.000000	0.031559
1229.000000	0.031409
1228.000000	0.031256
1227.000000	0.031086
1226.000000	0.030890
1225.000000	0.030690
1224.000000	0.030500
1223.000000	0.030306
1222.000000	0.030094
1221.000000	0.029875
1220.000000	0.029660
1219.000000	0.029438
1218.000000	0.029201
1217.000000	0.028963
1216.000000	0.028734
1215.000000	0.028496
1214.000000	0.028238
1213.000000	0.027980
1212.000000	0.027739
1211.000000	0.027507
1210.000000	0.027271
1209.000000	0.027033
1208.000000	0.026797
1207.000000	0.026558
1206.000000	0.026318
1205.000000	0.026093
1204.000000	0.025886
1203.000000	0.025672
1202.000000	0.025439
1201.000000	0.025204
1200.000000	0.024983
1199.000000	0.024773
1198.000000	0.024569
1197.000000	0.024386
1196.000000	0.024233
1195.000000	0.024091
1194.000000	0.023949
1193.000000	0.023815
1192.000000	0.023697
1191.000000	0.023583
1190.000000	0.023470
1189.000000	0.023372
1188.000000	0.023297
1187.000000	0.023224
1186.000000	0.023143
1185.000000	0.023072
1184.000000	0.023031
1183.000000	0.023015
1182.000000	0.023015
1181.000000	0.023046
1180.000000	0.023122
1179.000000	0.023236
1178.000000	0.023380
1177.000000	0.023562
1176.000000	0.023784
1175.000000	0.024023
1174.000000	0.024252
1173.000000	0.024465
1172.000000	0.024658
1171.000000	0.024817
1170.000000	0.024938
1169.000000	0.025041
1168.000000	0.025137
1167.000000	0.025217
1166.000000	0.025276
1165.000000	0.025333
1164.000000	0.025391
1163.000000	0.025428
1162.000000	0.025426
1161.000000	0.025397
1160.000000	0.025358
1159.000000	0.025301
1158.000000	0.025220
1157.000000	0.025129
1156.000000	0.025033
1155.000000	0.024917
1154.000000	0.024775
1153.000000	0.024628
1152.000000	0.024488
1151.000000	0.024335
1150.000000	0.024156
1149.000000	0.023973
1148.000000	0.023807
1147.000000	0.023652
1146.000000	0.023500
1145.000000	0.023363
1144.000000	0.023252
1143.000000	0.023155
1142.000000	0.023063
1141.000000	0.022993
1140.000000	0.022955
1139.000000	0.022927
1138.000000	0.022889
1137.000000	0.022856
1136.000000	0.022847
1135.000000	0.022858
1134.000000	0.022877
1133.000000	0.022909
1132.000000	0.022957
1131.000000	0.023001
1130.000000	0.023026
1129.000000	0.023045
1128.000000	0.023066
1127.000000	0.023074
1126.000000	0.023058
1125.000000	0.023034
1124.000000	0.023015
1123.000000	0.022992
1122.000000	0.022955
1121.000000	0.022921
1120.000000	0.022902
1119.000000	0.022877
1118.000000	0.022829
1117.000000	0.022769
1116.000000	0.022719
1115.000000	0.022682
1114.000000	0.022655
1113.000000	0.022650
1112.000000	0.022671
1111.000000	0.022701
1110.000000	0.022729
1109.000000	0.022775
1108.000000	0.022851
1107.000000	0.022941
1106.000000	0.023028
1105.000000	0.023120
1104.000000	0.023216
1103.000000	0.023295
1102.000000	0.023343
1101.000000	0.023387
1100.000000	0.023440
1099.000000	0.023498
1098.000000	0.023551
1097.000000	0.023618
1096.000000	0.023715
1095.000000	0.023832
1094.000000	0.023960
1093.000000	0.024115
1092.000000	0.024307
1091.000000	0.024512
1090.000000	0.024716
1089.000000	0.024937
1088.000000	0.025197
1087.000000	0.025486
1086.000000	0.025791
1085.000000	0.026122
1084.000000	0.026474
1083.000000	0.026812
1082.000000	0.027117
1081.000000	0.027409
1080.000000	0.027705
1079.000000	0.027986
1078.000000	0.028237
1077.000000	0.028473
1076.000000	0.028703
1075.000000	0.028895
1074.000000	0.029035
1073.000000	0.029150
1072.000000	0.029263
1071.000000	0.029356
1070.000000	0.029416
1069.000000	0.029466
1068.000000	0.029521
1067.000000	0.029562
1066.000000	0.029572
1065.000000	0.029573
1064.000000	0.029580
1063.000000	0.029570
1062.000000	0.029519
1061.000000	0.029442
1060.000000	0.029353
1059.000000	0.029247
1058.000000	0.029129
1057.000000	0.029033
1056.000000	0.028970
1055.000000	0.028903
1054.000000	0.028805
1053.000000	0.028693
1052.000000	0.028585
1051.000000	0.028463
1050.000000	0.028315
1049.000000	0.028160
1048.000000	0.028012
1047.000000	0.027848
1046.000000	0.027648
1045.000000	0.027430
1044.000000	0.027211
1043.000000	0.026972
1042.000000	0.026702
1041.000000	0.026424
1040.000000	0.026164
1039.000000	0.025916
1038.000000	0.025679
1037.000000	0.025475
1036.000000	0.025315
1035.000000	0.025170
1034.000000	0.025014
1033.000000	0.024854
1032.000000	0.024701
1031.000000	0.024538
1030.000000	0.024353
1029.000000	0.024160
1028.000000	0.023969
1027.000000	0.023764
1026.000000	0.023537
1025.000000	0.023318
1024.000000	0.023122
1023.000000	0.022930
1022.000000	0.022724
1021.000000	0.022524
1020.000000	0.022348
1019.000000	0.022181
1018.000000	0.022005
1017.000000	0.021822
1016.000000	0.021638
1015.000000	0.021439
1014.000000	0.021226
1013.000000	0.021028
1012.000000	0.020863
1011.000000	0.020711
1010.000000	0.020551
1009.000000	0.020393
1008.000000	0.020245
1007.000000	0.020092
1006.000000	0.019928
1005.000000	0.019781
1004.000000	0.019669
1003.000000	0.019572
1002.000000	0.019462
1001.000000	0.019346
1000.000000	0.019241
999.000000	0.019141
998.000000	0.019036
997.000000	0.018936
996.000000	0.018854
995.000000	0.018778
994.000000	0.018695
993.000000	0.018612
992.000000	0.018540
991.000000	0.018467
990.000000	0.018384
989.000000	0.018306
988.000000	0.018249
987.000000	0.018206
986.000000	0.018164
985.000000	0.018126
984.000000	0.018095
983.000000	0.018062
982.000000	0.018028
981.000000	0.018005
980.000000	0.017998
979.000000	0.017988
978.000000	0.017970
977.000000	0.017964
976.000000	0.017982
975.000000	0.018006
974.000000	0.018021
973.000000	0.018041
972.000000	0.018076
971.000000	0.018112
970.000000	0.018140
969.000000	0.018177
968.000000	0.018231
967.000000	0.018285
966.000000	0.018326
965.000000	0.018367
964.000000	0.018417
963.000000	0.018454
962.000000	0.018462
961.000000	0.018454
960.000000	0.018449
959.000000	0.018439
958.000000	0.018419
957.000000	0.018399
956.000000	0.018390
955.000000	0.018378
954.000000	0.018351
953.000000	0.018322
952.000000	0.018298
951.000000	0.018270
950.000000	0.018240
949.000000	0.018227
948.000000	0.018238
947.000000	0.018248
946.000000	0.018240
945.000000	0.018234
944.000000	0.018245
943.000000	0.018253
942.000000	0.018246
941.000000	0.018244
940.000000	0.018263
939.000000	0.018288
938.000000	0.018299
937.000000	0.018302
936.000000	0.018314
935.000000	0.018330
934.000000	0.018338
933.000000	0.018337
932.000000	0.018325
931.000000	0.018288
930.000000	0.018229
929.000000	0.018176
928.000000	0.018143
927.000000	0.018110
926.000000	0.018067
925.000000	0.018027
924.000000	0.017998
923.000000	0.017958
922.000000	0.017890
921.000000	0.017816
920.000000	0.017755
919.000000	0.017701
918.000000	0.017641
917.000000	0.017584
916.000000	0.017539
915.000000	0.017491
914.000000	0.017436
913.000000	0.017400
912.000000	0.017404
911.000000	0.017430
910.000000	0.017457
909.000000	0.017485
908.000000	0.017519
907.000000	0.017545
906.000000	0.017554
905.000000	0.017569
904.000000	0.017601
903.000000	0.017633
902.000000	0.017645
901.000000	0.017648
900.000000	0.017652
899.000000	0.017641
898.000000	0.017597
897.000000	0.017535
896.000000	0.017477
895.000000	0.017426
894.000000	0.017378
893.000000	0.017340
892.000000	0.017304
891.000000	0.017253
890.000000	0.017183
889.000000	0.017115
888.000000	0.017057
887.000000	0.016992
886.000000	0.016926
885.000000	0.016891
884.000000	0.016896
883.000000	0.016902
882.000000	0.016881
881.000000	0.016853
880.000000	0.016845
879.000000	0.016843
878.000000	0.016832
877.000000	0.016825
876.000000	0.016833
875.000000	0.016842
874.000000	0.016839
873.000000	0.016834
872.000000	0.016829
871.000000	0.016800
870.000000	0.016746
869.000000	0.016708
868.000000	0.016713
867.000000	0.016734
866.000000	0.016738
865.000000	0.016726
864.000000	0.016713
863.000000	0.016695
862.000000	0.016669
861.000000	0.016649
860.000000	0.016640
859.000000	0.016627
858.000000	0.016610
857.000000	0.016622
856.000000	0.016676
855.000000	0.016738
854.000000	0.016782
853.000000	0.016819
852.000000	0.016857
851.000000	0.016873
850.000000	0.016857
849.000000	0.016837
848.000000	0.016835
847.000000	0.016837
846.000000	0.016834
845.000000	0.016846
844.000000	0.016884
843.000000	0.016924
842.000000	0.016956
841.000000	0.017009
840.000000	0.017101
839.000000	0.017207
838.000000	0.017303
837.000000	0.017401
836.000000	0.017518
835.000000	0.017640
834.000000	0.017758
833.000000	0.017890
832.000000	0.018033
831.000000	0.018150
830.000000	0.018222
829.000000	0.018279
828.000000	0.018342
827.000000	0.018386
826.000000	0.018393
825.000000	0.018397
824.000000	0.018427
823.000000	0.018462
822.000000	0.018484
821.000000	0.018512
820.000000	0.018560
819.000000	0.018605
818.000000	0.018638
817.000000	0.018698
816.000000	0.018815
815.000000	0.018960
814.000000	0.019097
813.000000	0.019231
812.000000	0.019367
811.000000	0.019484
810.000000	0.019569
809.000000	0.019649
808.000000	0.019739
807.000000	0.019816
806.000000	0.019862
805.000000	0.019904
804.000000	0.019960
803.000000	0.020003
802.000000	0.020021
801.000000	0.020049
800.000000	0.020117
799.000000	0.020202
798.000000	0.020280
797.000000	0.020368
796.000000	0.020482
795.000000	0.020597
794.000000	0.020695
793.000000	0.020805
792.000000	0.020949
791.000000	0.021094
790.000000	0.021205
789.000000	0.021307
788.000000	0.021436
787.000000	0.021585
786.000000	0.021734
785.000000	0.021883
784.000000	0.022036
783.000000	0.022173
782.000000	0.022294
781.000000	0.022433
780.000000	0.022604
779.000000	0.022772
778.000000	0.022910
777.000000	0.023039
776.000000	0.023183
775.000000	0.023323
774.000000	0.023440
773.000000	0.023553
772.000000	0.023681
771.000000	0.023810
770.000000	0.023924
769.000000	0.024042
768.000000	0.024175
767.000000	0.024297
766.000000	0.024389
765.000000	0.024479
764.000000	0.024590
763.000000	0.024699
762.000000	0.024788
761.000000	0.024876
760.000000	0.024979
759.000000	0.025078
758.000000	0.025160
757.000000	0.025252
756.000000	0.025371
755.000000	0.025500
754.000000	0.025630
753.000000	0.025790
752.000000	0.025986
751.000000	0.026175
750.000000	0.026324
749.000000	0.026451
748.000000	0.026575
747.000000	0.026671
746.000000	0.026730
745.000000	0.026788
744.000000	0.026867
743.000000	0.026941
742.000000	0.026993
741.000000	0.027055
740.000000	0.027149
739.000000	0.027249
738.000000	0.027333
737.000000	0.027429
736.000000	0.027555
735.000000	0.027689
734.000000	0.027814
733.000000	0.027962
732.000000	0.028156
731.000000	0.028365
730.000000	0.028566
729.000000	0.028779
728.000000	0.029023
727.000000	0.029270
726.000000	0.029504
725.000000	0.029753
724.000000	0.030033
723.000000	0.030308
722.000000	0.030560
721.000000	0.030836
720.000000	0.031170
719.000000	0.031528
718.000000	0.031864
717.000000	0.032191
716.000000	0.032538
715.000000	0.032893
714.000000	0.033240
713.000000	0.033599
712.000000	0.033981
711.000000	0.034359
710.000000	0.034723
709.000000	0.035113
708.000000	0.035549
707.000000	0.035999
706.000000	0.036434
705.000000	0.036876
704.000000	0.037330
703.000000	0.037741
702.000000	0.038073
701.000000	0.038346
700.000000	0.038579
699.000000	0.038743
698.000000	0.038824
697.000000	0.038864
696.000000	0.038899
695.000000	0.038917
694.000000	0.038918
693.000000	0.038945
692.000000	0.039014
691.000000	0.039079
690.000000	0.039119
689.000000	0.039178
688.000000	0.039286
687.000000	0.039416
686.000000	0.039544
685.000000	0.039694
684.000000	0.039875
683.000000	0.040038
682.000000	0.040154
681.000000	0.040253
680.000000	0.040357
679.000000	0.040450
678.000000	0.040535
677.000000	0.040667
676.000000	0.040858
675.000000	0.041047
674.000000	0.041180
673.000000	0.041278
672.000000	0.041372
671.000000	0.041458
670.000000	0.041549
669.000000	0.041716
668.000000	0.042016
667.000000	0.042252
666.000000	0.042300
665.000000	0.042346
664.000000	0.042486
663.000000	0.042663
662.000000	0.042809
661.000000	0.042932
660.000000	0.043061
659.000000	0.043168
658.000000	0.043231
657.000000	0.043302
656.000000	0.043415
655.000000	0.043531
654.000000	0.043608
653.000000	0.043684
652.000000	0.043795
651.000000	0.043910
650.000000	0.044005
649.000000	0.044120
648.000000	0.044281
647.000000	0.044438
646.000000	0.044560
645.000000	0.044691
644.000000	0.044863
643.000000	0.045025
642.000000	0.045141
641.000000	0.045256
640.000000	0.045409
639.000000	0.045569
638.000000	0.045714
637.000000	0.045894
636.000000	0.046124
635.000000	0.046327
634.000000	0.046456
633.000000	0.046576
632.000000	0.046741
631.000000	0.046906
630.000000	0.047026
629.000000	0.047136
628.000000	0.047271
627.000000	0.047389
626.000000	0.047467
625.000000	0.047559
624.000000	0.047698
623.000000	0.047826
622.000000	0.047898
621.000000	0.047963
620.000000	0.048051
619.000000	0.048103
618.000000	0.048088
617.000000	0.048079
616.000000	0.048128
615.000000	0.048185
614.000000	0.048195
613.000000	0.048194
612.000000	0.048212
611.000000	0.048214
610.000000	0.048193
609.000000	0.048210
608.000000	0.048282
607.000000	0.048327
606.000000	0.048307
605.000000	0.048299
604.000000	0.048359
603.000000	0.048428
602.000000	0.048454
601.000000	0.048485
600.000000	0.048564
599.000000	0.048635
598.000000	0.048659
597.000000	0.048695
596.000000	0.048778
595.000000	0.048846
594.000000	0.048870
593.000000	0.048929
592.000000	0.049065
591.000000	0.049179
590.000000	0.049204
589.000000	0.049224
588.000000	0.049320
587.000000	0.049443
586.000000	0.049530
585.000000	0.049628
584.000000	0.049776
583.000000	0.049904
582.000000	0.049972
581.000000	0.050055
580.000000	0.050206
579.000000	0.050349
578.000000	0.050439
577.000000	0.050553
576.000000	0.050713
575.000000	0.050806
574.000000	0.050802
573.000000	0.050839
572.000000	0.050988
571.000000	0.051132
570.000000	0.051188
569.000000	0.051267
568.000000	0.051454
567.000000	0.051641
566.000000	0.051742
565.000000	0.051847
564.000000	0.052024
563.000000	0.052155
562.000000	0.052159
561.000000	0.052166
560.000000	0.052287
559.000000	0.052437
558.000000	0.052518
557.000000	0.052599
556.000000	0.052737
555.000000	0.052848
554.000000	0.052884
553.000000	0.052968
552.000000	0.053171
551.000000	0.053354
550.000000	0.053394
549.000000	0.053379
548.000000	0.053423
547.000000	0.053481
546.000000	0.053497
545.000000	0.053549
544.000000	0.053668
543.000000	0.053730
542.000000	0.053678
541.000000	0.053642
540.000000	0.053720
539.000000	0.053818
538.000000	0.053857
537.000000	0.053910
536.000000	0.054007
535.000000	0.054037
534.000000	0.053997
533.000000	0.054047
532.000000	0.054233
531.000000	0.054378
530.000000	0.054388
529.000000	0.054423
528.000000	0.054620
527.000000	0.054857
526.000000	0.054967
525.000000	0.055019
524.000000	0.055117
523.000000	0.055193
522.000000	0.055197
521.000000	0.055238
520.000000	0.055376
519.000000	0.055474
518.000000	0.055437
517.000000	0.055376
516.000000	0.055354
515.000000	0.055255
514.000000	0.055043
513.000000	0.054861
512.000000	0.054779
511.000000	0.054675
510.000000	0.054496
509.000000	0.054390
508.000000	0.054455
507.000000	0.054534
506.000000	0.054459
505.000000	0.054309
504.000000	0.054183
503.000000	0.054022
502.000000	0.053801
501.000000	0.053670
500.000000	0.053703
499.000000	0.053746
498.000000	0.053695
497.000000	0.053666
496.000000	0.053739
495.000000	0.053796
494.000000	0.053735
493.000000	0.053669
492.000000	0.053700
491.000000	0.053692
490.000000	0.053547
489.000000	0.053404
488.000000	0.053391
487.000000	0.053405
486.000000	0.053344
485.000000	0.053328
484.000000	0.053455
483.000000	0.053568
482.000000	0.053549
481.000000	0.053581
480.000000	0.053794
479.000000	0.053966
478.000000	0.053914
477.000000	0.053815
476.000000	0.053854
475.000000	0.053893
474.000000	0.053810
473.000000	0.053833
472.000000	0.054138
471.000000	0.054420
470.000000	0.054422
469.000000	0.054372
468.000000	0.054481
467.000000	0.054571
466.000000	0.054496
465.000000	0.054442
464.000000	0.054523
463.000000	0.054502
462.000000	0.054234
461.000000	0.054029
460.000000	0.054149
459.000000	0.054385
458.000000	0.054479
457.000000	0.054553
456.000000	0.054690
455.000000	0.054636
454.000000	0.054295
453.000000	0.053962
452.000000	0.053818
451.000000	0.053607
450.000000	0.053176
449.000000	0.052805
448.000000	0.052720
447.000000	0.052720
446.000000	0.052588
445.000000	0.052413
444.000000	0.052242
443.000000	0.051879
442.000000	0.051318
441.000000	0.050910
440.000000	0.050760
439.000000	0.050549
438.000000	0.050113
437.000000	0.049716
436.000000	0.049512
435.000000	0.049231
434.000000	0.048749
433.000000	0.048394
432.000000	0.048360
431.000000	0.048353
430.000000	0.048127
429.000000	0.047925
428.000000	0.048004
427.000000	0.048165
426.000000	0.048177
425.000000	0.048226
424.000000	0.048484
423.000000	0.048627
422.000000	0.048394
421.000000	0.048155
420.000000	0.048401
419.000000	0.048890
418.000000	0.048979
417.000000	0.048922
416.000000	0.048943
415.000000	0.048624
414.000000	0.047892
413.000000	0.047429
412.000000	0.047652
411.000000	0.047986
410.000000	0.047778
409.000000	0.047366
408.000000	0.047307
407.000000	0.047310
406.000000	0.046930
405.000000	0.046537
404.000000	0.046547
403.000000	0.046479
402.000000	0.045802
401.000000	0.044929
400.000000	0.044591
