PE IR       SUBTECH     SPECTRUM    ASCII       PEDS        4.00        
   -1
2024_06_05_BW_EggCase_Inner_Redried_PostssNMR_1.ASC
24/06/05
19:40:13.00
24/06/05
20:31:01.00
Yarger Lab
Sample 142 By YargerLab Date Wednesday, June 05 2024
400.000000
#HDR
-1
-1
#GR
cm-1
A
1.0
0.0
4000.000000
-1.000000
3601
8
0.157043
0.010161
#DATA
4000.000000	0.013048
3999.000000	0.013044
3998.000000	0.013036
3997.000000	0.013031
3996.000000	0.013029
3995.000000	0.013032
3994.000000	0.013037
3993.000000	0.013044
3992.000000	0.013051
3991.000000	0.013058
3990.000000	0.013063
3989.000000	0.013064
3988.000000	0.013062
3987.000000	0.013059
3986.000000	0.013052
3985.000000	0.013043
3984.000000	0.013032
3983.000000	0.013022
3982.000000	0.013017
3981.000000	0.013018
3980.000000	0.013025
3979.000000	0.013036
3978.000000	0.013047
3977.000000	0.013054
3976.000000	0.013056
3975.000000	0.013054
3974.000000	0.013050
3973.000000	0.013046
3972.000000	0.013040
3971.000000	0.013033
3970.000000	0.013027
3969.000000	0.013023
3968.000000	0.013023
3967.000000	0.013025
3966.000000	0.013026
3965.000000	0.013025
3964.000000	0.013022
3963.000000	0.013016
3962.000000	0.013009
3961.000000	0.013000
3960.000000	0.012992
3959.000000	0.012986
3958.000000	0.012982
3957.000000	0.012979
3956.000000	0.012976
3955.000000	0.012972
3954.000000	0.012969
3953.000000	0.012970
3952.000000	0.012974
3951.000000	0.012984
3950.000000	0.012997
3949.000000	0.013010
3948.000000	0.013021
3947.000000	0.013031
3946.000000	0.013040
3945.000000	0.013048
3944.000000	0.013049
3943.000000	0.013042
3942.000000	0.013025
3941.000000	0.013009
3940.000000	0.012997
3939.000000	0.012991
3938.000000	0.012984
3937.000000	0.012970
3936.000000	0.012952
3935.000000	0.012939
3934.000000	0.012935
3933.000000	0.012939
3932.000000	0.012947
3931.000000	0.012955
3930.000000	0.012959
3929.000000	0.012961
3928.000000	0.012963
3927.000000	0.012966
3926.000000	0.012967
3925.000000	0.012963
3924.000000	0.012953
3923.000000	0.012944
3922.000000	0.012942
3921.000000	0.012945
3920.000000	0.012946
3919.000000	0.012945
3918.000000	0.012946
3917.000000	0.012945
3916.000000	0.012939
3915.000000	0.012929
3914.000000	0.012920
3913.000000	0.012912
3912.000000	0.012901
3911.000000	0.012879
3910.000000	0.012851
3909.000000	0.012823
3908.000000	0.012807
3907.000000	0.012810
3906.000000	0.012831
3905.000000	0.012863
3904.000000	0.012897
3903.000000	0.012933
3902.000000	0.012975
3901.000000	0.013016
3900.000000	0.013039
3899.000000	0.013025
3898.000000	0.012985
3897.000000	0.012943
3896.000000	0.012917
3895.000000	0.012905
3894.000000	0.012901
3893.000000	0.012900
3892.000000	0.012891
3891.000000	0.012868
3890.000000	0.012840
3889.000000	0.012832
3888.000000	0.012847
3887.000000	0.012862
3886.000000	0.012849
3885.000000	0.012810
3884.000000	0.012789
3883.000000	0.012816
3882.000000	0.012872
3881.000000	0.012913
3880.000000	0.012910
3879.000000	0.012876
3878.000000	0.012847
3877.000000	0.012837
3876.000000	0.012831
3875.000000	0.012810
3874.000000	0.012779
3873.000000	0.012764
3872.000000	0.012782
3871.000000	0.012821
3870.000000	0.012844
3869.000000	0.012836
3868.000000	0.012827
3867.000000	0.012839
3866.000000	0.012858
3865.000000	0.012860
3864.000000	0.012845
3863.000000	0.012839
3862.000000	0.012844
3861.000000	0.012844
3860.000000	0.012833
3859.000000	0.012817
3858.000000	0.012808
3857.000000	0.012803
3856.000000	0.012797
3855.000000	0.012786
3854.000000	0.012761
3853.000000	0.012725
3852.000000	0.012709
3851.000000	0.012740
3850.000000	0.012792
3849.000000	0.012819
3848.000000	0.012802
3847.000000	0.012761
3846.000000	0.012722
3845.000000	0.012694
3844.000000	0.012675
3843.000000	0.012666
3842.000000	0.012669
3841.000000	0.012686
3840.000000	0.012713
3839.000000	0.012731
3838.000000	0.012731
3837.000000	0.012723
3836.000000	0.012726
3835.000000	0.012743
3834.000000	0.012759
3833.000000	0.012759
3832.000000	0.012735
3831.000000	0.012692
3830.000000	0.012654
3829.000000	0.012636
3828.000000	0.012631
3827.000000	0.012624
3826.000000	0.012609
3825.000000	0.012599
3824.000000	0.012608
3823.000000	0.012630
3822.000000	0.012641
3821.000000	0.012631
3820.000000	0.012617
3819.000000	0.012633
3818.000000	0.012674
3817.000000	0.012698
3816.000000	0.012672
3815.000000	0.012616
3814.000000	0.012585
3813.000000	0.012598
3812.000000	0.012621
3811.000000	0.012623
3810.000000	0.012615
3809.000000	0.012611
3808.000000	0.012604
3807.000000	0.012578
3806.000000	0.012544
3805.000000	0.012540
3804.000000	0.012570
3803.000000	0.012598
3802.000000	0.012586
3801.000000	0.012533
3800.000000	0.012497
3799.000000	0.012524
3798.000000	0.012588
3797.000000	0.012628
3796.000000	0.012616
3795.000000	0.012575
3794.000000	0.012542
3793.000000	0.012527
3792.000000	0.012517
3791.000000	0.012498
3790.000000	0.012474
3789.000000	0.012456
3788.000000	0.012448
3787.000000	0.012450
3786.000000	0.012458
3785.000000	0.012466
3784.000000	0.012468
3783.000000	0.012465
3782.000000	0.012465
3781.000000	0.012469
3780.000000	0.012471
3779.000000	0.012465
3778.000000	0.012457
3777.000000	0.012452
3776.000000	0.012449
3775.000000	0.012441
3774.000000	0.012432
3773.000000	0.012431
3772.000000	0.012443
3771.000000	0.012461
3770.000000	0.012469
3769.000000	0.012469
3768.000000	0.012477
3767.000000	0.012498
3766.000000	0.012514
3765.000000	0.012505
3764.000000	0.012478
3763.000000	0.012456
3762.000000	0.012450
3761.000000	0.012450
3760.000000	0.012443
3759.000000	0.012432
3758.000000	0.012432
3757.000000	0.012437
3756.000000	0.012438
3755.000000	0.012428
3754.000000	0.012406
3753.000000	0.012381
3752.000000	0.012370
3751.000000	0.012388
3750.000000	0.012424
3749.000000	0.012466
3748.000000	0.012519
3747.000000	0.012579
3746.000000	0.012626
3745.000000	0.012618
3744.000000	0.012530
3743.000000	0.012433
3742.000000	0.012410
3741.000000	0.012441
3740.000000	0.012458
3739.000000	0.012430
3738.000000	0.012390
3737.000000	0.012372
3736.000000	0.012394
3735.000000	0.012445
3734.000000	0.012499
3733.000000	0.012523
3732.000000	0.012494
3731.000000	0.012431
3730.000000	0.012378
3729.000000	0.012359
3728.000000	0.012360
3727.000000	0.012353
3726.000000	0.012334
3725.000000	0.012319
3724.000000	0.012325
3723.000000	0.012338
3722.000000	0.012337
3721.000000	0.012322
3720.000000	0.012302
3719.000000	0.012278
3718.000000	0.012253
3717.000000	0.012229
3716.000000	0.012219
3715.000000	0.012231
3714.000000	0.012256
3713.000000	0.012286
3712.000000	0.012313
3711.000000	0.012339
3710.000000	0.012362
3709.000000	0.012370
3708.000000	0.012358
3707.000000	0.012329
3706.000000	0.012297
3705.000000	0.012274
3704.000000	0.012260
3703.000000	0.012250
3702.000000	0.012241
3701.000000	0.012232
3700.000000	0.012226
3699.000000	0.012220
3698.000000	0.012214
3697.000000	0.012202
3696.000000	0.012186
3695.000000	0.012177
3694.000000	0.012184
3693.000000	0.012205
3692.000000	0.012232
3691.000000	0.012266
3690.000000	0.012310
3689.000000	0.012353
3688.000000	0.012370
3687.000000	0.012369
3686.000000	0.012373
3685.000000	0.012384
3684.000000	0.012386
3683.000000	0.012375
3682.000000	0.012368
3681.000000	0.012380
3680.000000	0.012412
3679.000000	0.012459
3678.000000	0.012518
3677.000000	0.012593
3676.000000	0.012664
3675.000000	0.012699
3674.000000	0.012710
3673.000000	0.012733
3672.000000	0.012767
3671.000000	0.012785
3670.000000	0.012779
3669.000000	0.012766
3668.000000	0.012773
3667.000000	0.012799
3666.000000	0.012825
3665.000000	0.012843
3664.000000	0.012857
3663.000000	0.012872
3662.000000	0.012888
3661.000000	0.012902
3660.000000	0.012923
3659.000000	0.012959
3658.000000	0.013009
3657.000000	0.013056
3656.000000	0.013086
3655.000000	0.013107
3654.000000	0.013142
3653.000000	0.013189
3652.000000	0.013229
3651.000000	0.013260
3650.000000	0.013313
3649.000000	0.013418
3648.000000	0.013550
3647.000000	0.013654
3646.000000	0.013706
3645.000000	0.013717
3644.000000	0.013712
3643.000000	0.013705
3642.000000	0.013706
3641.000000	0.013715
3640.000000	0.013737
3639.000000	0.013768
3638.000000	0.013806
3637.000000	0.013848
3636.000000	0.013897
3635.000000	0.013950
3634.000000	0.014003
3633.000000	0.014060
3632.000000	0.014134
3631.000000	0.014239
3630.000000	0.014373
3629.000000	0.014500
3628.000000	0.014575
3627.000000	0.014606
3626.000000	0.014628
3625.000000	0.014645
3624.000000	0.014650
3623.000000	0.014649
3622.000000	0.014664
3621.000000	0.014715
3620.000000	0.014801
3619.000000	0.014897
3618.000000	0.014978
3617.000000	0.015037
3616.000000	0.015088
3615.000000	0.015150
3614.000000	0.015225
3613.000000	0.015305
3612.000000	0.015379
3611.000000	0.015447
3610.000000	0.015522
3609.000000	0.015611
3608.000000	0.015701
3607.000000	0.015776
3606.000000	0.015823
3605.000000	0.015847
3604.000000	0.015855
3603.000000	0.015863
3602.000000	0.015888
3601.000000	0.015943
3600.000000	0.016018
3599.000000	0.016099
3598.000000	0.016177
3597.000000	0.016257
3596.000000	0.016347
3595.000000	0.016448
3594.000000	0.016542
3593.000000	0.016615
3592.000000	0.016660
3591.000000	0.016692
3590.000000	0.016742
3589.000000	0.016841
3588.000000	0.016997
3587.000000	0.017168
3586.000000	0.017301
3585.000000	0.017375
3584.000000	0.017408
3583.000000	0.017425
3582.000000	0.017451
3581.000000	0.017499
3580.000000	0.017567
3579.000000	0.017647
3578.000000	0.017733
3577.000000	0.017825
3576.000000	0.017919
3575.000000	0.018012
3574.000000	0.018097
3573.000000	0.018165
3572.000000	0.018215
3571.000000	0.018253
3570.000000	0.018301
3569.000000	0.018396
3568.000000	0.018561
3567.000000	0.018776
3566.000000	0.018978
3565.000000	0.019118
3564.000000	0.019191
3563.000000	0.019227
3562.000000	0.019259
3561.000000	0.019311
3560.000000	0.019385
3559.000000	0.019470
3558.000000	0.019551
3557.000000	0.019621
3556.000000	0.019682
3555.000000	0.019747
3554.000000	0.019835
3553.000000	0.019947
3552.000000	0.020067
3551.000000	0.020166
3550.000000	0.020239
3549.000000	0.020302
3548.000000	0.020382
3547.000000	0.020497
3546.000000	0.020642
3545.000000	0.020795
3544.000000	0.020929
3543.000000	0.021028
3542.000000	0.021095
3541.000000	0.021140
3540.000000	0.021181
3539.000000	0.021234
3538.000000	0.021313
3537.000000	0.021418
3536.000000	0.021537
3535.000000	0.021648
3534.000000	0.021739
3533.000000	0.021813
3532.000000	0.021880
3531.000000	0.021952
3530.000000	0.022040
3529.000000	0.022149
3528.000000	0.022271
3527.000000	0.022394
3526.000000	0.022514
3525.000000	0.022632
3524.000000	0.022750
3523.000000	0.022863
3522.000000	0.022964
3521.000000	0.023052
3520.000000	0.023133
3519.000000	0.023215
3518.000000	0.023301
3517.000000	0.023391
3516.000000	0.023480
3515.000000	0.023566
3514.000000	0.023651
3513.000000	0.023737
3512.000000	0.023834
3511.000000	0.023948
3510.000000	0.024078
3509.000000	0.024213
3508.000000	0.024332
3507.000000	0.024428
3506.000000	0.024516
3505.000000	0.024621
3504.000000	0.024761
3503.000000	0.024926
3502.000000	0.025091
3501.000000	0.025230
3500.000000	0.025337
3499.000000	0.025422
3498.000000	0.025505
3497.000000	0.025602
3496.000000	0.025717
3495.000000	0.025844
3494.000000	0.025971
3493.000000	0.026091
3492.000000	0.026203
3491.000000	0.026312
3490.000000	0.026427
3489.000000	0.026555
3488.000000	0.026692
3487.000000	0.026826
3486.000000	0.026945
3485.000000	0.027050
3484.000000	0.027154
3483.000000	0.027270
3482.000000	0.027405
3481.000000	0.027549
3480.000000	0.027687
3479.000000	0.027805
3478.000000	0.027910
3477.000000	0.028014
3476.000000	0.028128
3475.000000	0.028251
3474.000000	0.028375
3473.000000	0.028495
3472.000000	0.028608
3471.000000	0.028718
3470.000000	0.028827
3469.000000	0.028938
3468.000000	0.029049
3467.000000	0.029155
3466.000000	0.029257
3465.000000	0.029361
3464.000000	0.029471
3463.000000	0.029590
3462.000000	0.029714
3461.000000	0.029841
3460.000000	0.029965
3459.000000	0.030080
3458.000000	0.030185
3457.000000	0.030285
3456.000000	0.030383
3455.000000	0.030484
3454.000000	0.030589
3453.000000	0.030697
3452.000000	0.030800
3451.000000	0.030894
3450.000000	0.030987
3449.000000	0.031096
3448.000000	0.031235
3447.000000	0.031396
3446.000000	0.031552
3445.000000	0.031684
3444.000000	0.031794
3443.000000	0.031897
3442.000000	0.032006
3441.000000	0.032119
3440.000000	0.032232
3439.000000	0.032345
3438.000000	0.032462
3437.000000	0.032581
3436.000000	0.032695
3435.000000	0.032802
3434.000000	0.032910
3433.000000	0.033024
3432.000000	0.033149
3431.000000	0.033282
3430.000000	0.033419
3429.000000	0.033556
3428.000000	0.033685
3427.000000	0.033802
3426.000000	0.033907
3425.000000	0.034001
3424.000000	0.034091
3423.000000	0.034190
3422.000000	0.034311
3421.000000	0.034457
3420.000000	0.034614
3419.000000	0.034763
3418.000000	0.034893
3417.000000	0.035004
3416.000000	0.035101
3415.000000	0.035196
3414.000000	0.035296
3413.000000	0.035402
3412.000000	0.035513
3411.000000	0.035625
3410.000000	0.035740
3409.000000	0.035854
3408.000000	0.035965
3407.000000	0.036068
3406.000000	0.036164
3405.000000	0.036254
3404.000000	0.036342
3403.000000	0.036431
3402.000000	0.036528
3401.000000	0.036634
3400.000000	0.036748
3399.000000	0.036869
3398.000000	0.036994
3397.000000	0.037112
3396.000000	0.037213
3395.000000	0.037295
3394.000000	0.037376
3393.000000	0.037475
3392.000000	0.037599
3391.000000	0.037739
3390.000000	0.037878
3389.000000	0.038001
3388.000000	0.038106
3387.000000	0.038202
3386.000000	0.038302
3385.000000	0.038411
3384.000000	0.038523
3383.000000	0.038631
3382.000000	0.038738
3381.000000	0.038850
3380.000000	0.038969
3379.000000	0.039090
3378.000000	0.039215
3377.000000	0.039346
3376.000000	0.039487
3375.000000	0.039628
3374.000000	0.039756
3373.000000	0.039860
3372.000000	0.039947
3371.000000	0.040037
3370.000000	0.040150
3369.000000	0.040298
3368.000000	0.040480
3367.000000	0.040685
3366.000000	0.040902
3365.000000	0.041116
3364.000000	0.041311
3363.000000	0.041486
3362.000000	0.041654
3361.000000	0.041830
3360.000000	0.042020
3359.000000	0.042223
3358.000000	0.042436
3357.000000	0.042655
3356.000000	0.042871
3355.000000	0.043070
3354.000000	0.043244
3353.000000	0.043402
3352.000000	0.043566
3351.000000	0.043760
3350.000000	0.043993
3349.000000	0.044255
3348.000000	0.044519
3347.000000	0.044763
3346.000000	0.044985
3345.000000	0.045197
3344.000000	0.045415
3343.000000	0.045645
3342.000000	0.045877
3341.000000	0.046103
3340.000000	0.046327
3339.000000	0.046572
3338.000000	0.046858
3337.000000	0.047185
3336.000000	0.047527
3335.000000	0.047859
3334.000000	0.048167
3333.000000	0.048455
3332.000000	0.048732
3331.000000	0.049004
3330.000000	0.049272
3329.000000	0.049533
3328.000000	0.049790
3327.000000	0.050060
3326.000000	0.050366
3325.000000	0.050713
3324.000000	0.051088
3323.000000	0.051465
3322.000000	0.051827
3321.000000	0.052174
3320.000000	0.052511
3319.000000	0.052846
3318.000000	0.053184
3317.000000	0.053527
3316.000000	0.053871
3315.000000	0.054213
3314.000000	0.054545
3313.000000	0.054856
3312.000000	0.055134
3311.000000	0.055387
3310.000000	0.055643
3309.000000	0.055925
3308.000000	0.056244
3307.000000	0.056597
3306.000000	0.056985
3305.000000	0.057406
3304.000000	0.057844
3303.000000	0.058273
3302.000000	0.058670
3301.000000	0.059021
3300.000000	0.059325
3299.000000	0.059590
3298.000000	0.059831
3297.000000	0.060066
3296.000000	0.060303
3295.000000	0.060544
3294.000000	0.060797
3293.000000	0.061075
3292.000000	0.061382
3291.000000	0.061702
3290.000000	0.062006
3289.000000	0.062265
3288.000000	0.062472
3287.000000	0.062636
3286.000000	0.062773
3285.000000	0.062891
3284.000000	0.062992
3283.000000	0.063073
3282.000000	0.063134
3281.000000	0.063172
3280.000000	0.063175
3279.000000	0.063131
3278.000000	0.063038
3277.000000	0.062917
3276.000000	0.062783
3275.000000	0.062640
3274.000000	0.062471
3273.000000	0.062273
3272.000000	0.062066
3271.000000	0.061882
3270.000000	0.061732
3269.000000	0.061596
3268.000000	0.061439
3267.000000	0.061241
3266.000000	0.061000
3265.000000	0.060726
3264.000000	0.060424
3263.000000	0.060100
3262.000000	0.059763
3261.000000	0.059418
3260.000000	0.059055
3259.000000	0.058663
3258.000000	0.058249
3257.000000	0.057845
3256.000000	0.057489
3255.000000	0.057189
3254.000000	0.056920
3253.000000	0.056634
3252.000000	0.056294
3251.000000	0.055889
3250.000000	0.055438
3249.000000	0.054984
3248.000000	0.054580
3247.000000	0.054267
3246.000000	0.054044
3245.000000	0.053869
3244.000000	0.053685
3243.000000	0.053461
3242.000000	0.053204
3241.000000	0.052937
3240.000000	0.052670
3239.000000	0.052395
3238.000000	0.052092
3237.000000	0.051746
3236.000000	0.051367
3235.000000	0.051004
3234.000000	0.050718
3233.000000	0.050538
3232.000000	0.050441
3231.000000	0.050368
3230.000000	0.050271
3229.000000	0.050134
3228.000000	0.049962
3227.000000	0.049766
3226.000000	0.049558
3225.000000	0.049345
3224.000000	0.049129
3223.000000	0.048913
3222.000000	0.048698
3221.000000	0.048495
3220.000000	0.048310
3219.000000	0.048143
3218.000000	0.047981
3217.000000	0.047810
3216.000000	0.047629
3215.000000	0.047451
3214.000000	0.047287
3213.000000	0.047137
3212.000000	0.046986
3211.000000	0.046825
3210.000000	0.046651
3209.000000	0.046467
3208.000000	0.046281
3207.000000	0.046099
3206.000000	0.045923
3205.000000	0.045750
3204.000000	0.045574
3203.000000	0.045395
3202.000000	0.045214
3201.000000	0.045035
3200.000000	0.044856
3199.000000	0.044677
3198.000000	0.044499
3197.000000	0.044317
3196.000000	0.044121
3195.000000	0.043913
3194.000000	0.043703
3193.000000	0.043495
3192.000000	0.043290
3191.000000	0.043081
3190.000000	0.042869
3189.000000	0.042656
3188.000000	0.042442
3187.000000	0.042229
3186.000000	0.042024
3185.000000	0.041827
3184.000000	0.041631
3183.000000	0.041426
3182.000000	0.041207
3181.000000	0.040978
3180.000000	0.040748
3179.000000	0.040525
3178.000000	0.040314
3177.000000	0.040111
3176.000000	0.039905
3175.000000	0.039689
3174.000000	0.039468
3173.000000	0.039249
3172.000000	0.039034
3171.000000	0.038820
3170.000000	0.038611
3169.000000	0.038408
3168.000000	0.038212
3167.000000	0.038021
3166.000000	0.037835
3165.000000	0.037650
3164.000000	0.037464
3163.000000	0.037275
3162.000000	0.037087
3161.000000	0.036902
3160.000000	0.036716
3159.000000	0.036523
3158.000000	0.036322
3157.000000	0.036115
3156.000000	0.035900
3155.000000	0.035680
3154.000000	0.035468
3153.000000	0.035284
3152.000000	0.035136
3151.000000	0.035018
3150.000000	0.034916
3149.000000	0.034814
3148.000000	0.034697
3147.000000	0.034566
3146.000000	0.034423
3145.000000	0.034273
3144.000000	0.034110
3143.000000	0.033932
3142.000000	0.033748
3141.000000	0.033577
3140.000000	0.033437
3139.000000	0.033336
3138.000000	0.033264
3137.000000	0.033202
3136.000000	0.033132
3135.000000	0.033049
3134.000000	0.032954
3133.000000	0.032854
3132.000000	0.032746
3131.000000	0.032636
3130.000000	0.032539
3129.000000	0.032460
3128.000000	0.032395
3127.000000	0.032327
3126.000000	0.032246
3125.000000	0.032145
3124.000000	0.032020
3123.000000	0.031876
3122.000000	0.031734
3121.000000	0.031617
3120.000000	0.031533
3119.000000	0.031476
3118.000000	0.031441
3117.000000	0.031430
3116.000000	0.031450
3115.000000	0.031494
3114.000000	0.031545
3113.000000	0.031576
3112.000000	0.031571
3111.000000	0.031536
3110.000000	0.031503
3109.000000	0.031505
3108.000000	0.031548
3107.000000	0.031610
3106.000000	0.031662
3105.000000	0.031688
3104.000000	0.031682
3103.000000	0.031652
3102.000000	0.031619
3101.000000	0.031610
3100.000000	0.031638
3099.000000	0.031697
3098.000000	0.031774
3097.000000	0.031850
3096.000000	0.031915
3095.000000	0.031956
3094.000000	0.031965
3093.000000	0.031944
3092.000000	0.031914
3091.000000	0.031901
3090.000000	0.031919
3089.000000	0.031954
3088.000000	0.031978
3087.000000	0.031977
3086.000000	0.031963
3085.000000	0.031957
3084.000000	0.031962
3083.000000	0.031965
3082.000000	0.031953
3081.000000	0.031931
3080.000000	0.031922
3079.000000	0.031950
3078.000000	0.032025
3077.000000	0.032136
3076.000000	0.032250
3075.000000	0.032337
3074.000000	0.032383
3073.000000	0.032387
3072.000000	0.032352
3071.000000	0.032276
3070.000000	0.032167
3069.000000	0.032053
3068.000000	0.031972
3067.000000	0.031951
3066.000000	0.031977
3065.000000	0.032019
3064.000000	0.032046
3063.000000	0.032047
3062.000000	0.032020
3061.000000	0.031957
3060.000000	0.031852
3059.000000	0.031712
3058.000000	0.031563
3057.000000	0.031434
3056.000000	0.031332
3055.000000	0.031239
3054.000000	0.031129
3053.000000	0.030995
3052.000000	0.030855
3051.000000	0.030739
3050.000000	0.030652
3049.000000	0.030564
3048.000000	0.030436
3047.000000	0.030258
3046.000000	0.030055
3045.000000	0.029861
3044.000000	0.029696
3043.000000	0.029572
3042.000000	0.029498
3041.000000	0.029472
3040.000000	0.029466
3039.000000	0.029432
3038.000000	0.029338
3037.000000	0.029185
3036.000000	0.029008
3035.000000	0.028859
3034.000000	0.028770
3033.000000	0.028734
3032.000000	0.028719
3031.000000	0.028696
3030.000000	0.028652
3029.000000	0.028579
3028.000000	0.028464
3027.000000	0.028311
3026.000000	0.028148
3025.000000	0.028011
3024.000000	0.027908
3023.000000	0.027815
3022.000000	0.027704
3021.000000	0.027568
3020.000000	0.027420
3019.000000	0.027273
3018.000000	0.027134
3017.000000	0.027005
3016.000000	0.026890
3015.000000	0.026796
3014.000000	0.026732
3013.000000	0.026710
3012.000000	0.026733
3011.000000	0.026794
3010.000000	0.026880
3009.000000	0.026965
3008.000000	0.027026
3007.000000	0.027052
3006.000000	0.027054
3005.000000	0.027049
3004.000000	0.027055
3003.000000	0.027076
3002.000000	0.027106
3001.000000	0.027131
3000.000000	0.027148
2999.000000	0.027176
2998.000000	0.027240
2997.000000	0.027346
2996.000000	0.027472
2995.000000	0.027597
2994.000000	0.027725
2993.000000	0.027883
2992.000000	0.028083
2991.000000	0.028314
2990.000000	0.028557
2989.000000	0.028801
2988.000000	0.029041
2987.000000	0.029278
2986.000000	0.029507
2985.000000	0.029727
2984.000000	0.029936
2983.000000	0.030141
2982.000000	0.030355
2981.000000	0.030592
2980.000000	0.030854
2979.000000	0.031128
2978.000000	0.031396
2977.000000	0.031648
2976.000000	0.031889
2975.000000	0.032136
2974.000000	0.032400
2973.000000	0.032671
2972.000000	0.032928
2971.000000	0.033153
2970.000000	0.033348
2969.000000	0.033523
2968.000000	0.033683
2967.000000	0.033823
2966.000000	0.033942
2965.000000	0.034044
2964.000000	0.034132
2963.000000	0.034212
2962.000000	0.034284
2961.000000	0.034338
2960.000000	0.034363
2959.000000	0.034352
2958.000000	0.034312
2957.000000	0.034247
2956.000000	0.034152
2955.000000	0.034026
2954.000000	0.033888
2953.000000	0.033766
2952.000000	0.033675
2951.000000	0.033606
2950.000000	0.033548
2949.000000	0.033504
2948.000000	0.033492
2947.000000	0.033529
2946.000000	0.033626
2945.000000	0.033787
2944.000000	0.034007
2943.000000	0.034271
2942.000000	0.034561
2941.000000	0.034857
2940.000000	0.035148
2939.000000	0.035436
2938.000000	0.035720
2937.000000	0.035998
2936.000000	0.036256
2935.000000	0.036482
2934.000000	0.036665
2933.000000	0.036799
2932.000000	0.036894
2931.000000	0.036971
2930.000000	0.037060
2929.000000	0.037173
2928.000000	0.037298
2927.000000	0.037417
2926.000000	0.037520
2925.000000	0.037608
2924.000000	0.037685
2923.000000	0.037749
2922.000000	0.037797
2921.000000	0.037814
2920.000000	0.037779
2919.000000	0.037669
2918.000000	0.037463
2917.000000	0.037144
2916.000000	0.036703
2915.000000	0.036158
2914.000000	0.035557
2913.000000	0.034961
2912.000000	0.034412
2911.000000	0.033931
2910.000000	0.033523
2909.000000	0.033177
2908.000000	0.032872
2907.000000	0.032590
2906.000000	0.032327
2905.000000	0.032094
2904.000000	0.031898
2903.000000	0.031735
2902.000000	0.031594
2901.000000	0.031461
2900.000000	0.031324
2899.000000	0.031179
2898.000000	0.031035
2897.000000	0.030911
2896.000000	0.030821
2895.000000	0.030761
2894.000000	0.030719
2893.000000	0.030683
2892.000000	0.030646
2891.000000	0.030609
2890.000000	0.030574
2889.000000	0.030546
2888.000000	0.030529
2887.000000	0.030530
2886.000000	0.030553
2885.000000	0.030597
2884.000000	0.030654
2883.000000	0.030719
2882.000000	0.030792
2881.000000	0.030874
2880.000000	0.030958
2879.000000	0.031030
2878.000000	0.031076
2877.000000	0.031087
2876.000000	0.031059
2875.000000	0.031004
2874.000000	0.030938
2873.000000	0.030873
2872.000000	0.030796
2871.000000	0.030688
2870.000000	0.030534
2869.000000	0.030340
2868.000000	0.030125
2867.000000	0.029908
2866.000000	0.029708
2865.000000	0.029530
2864.000000	0.029371
2863.000000	0.029230
2862.000000	0.029112
2861.000000	0.029035
2860.000000	0.029008
2859.000000	0.029027
2858.000000	0.029082
2857.000000	0.029163
2856.000000	0.029273
2855.000000	0.029414
2854.000000	0.029585
2853.000000	0.029761
2852.000000	0.029899
2851.000000	0.029938
2850.000000	0.029826
2849.000000	0.029541
2848.000000	0.029103
2847.000000	0.028568
2846.000000	0.028004
2845.000000	0.027466
2844.000000	0.026985
2843.000000	0.026563
2842.000000	0.026194
2841.000000	0.025869
2840.000000	0.025594
2839.000000	0.025373
2838.000000	0.025207
2837.000000	0.025079
2836.000000	0.024969
2835.000000	0.024865
2834.000000	0.024768
2833.000000	0.024681
2832.000000	0.024602
2831.000000	0.024526
2830.000000	0.024450
2829.000000	0.024376
2828.000000	0.024304
2827.000000	0.024231
2826.000000	0.024160
2825.000000	0.024091
2824.000000	0.024024
2823.000000	0.023961
2822.000000	0.023906
2821.000000	0.023860
2820.000000	0.023817
2819.000000	0.023771
2818.000000	0.023722
2817.000000	0.023672
2816.000000	0.023621
2815.000000	0.023569
2814.000000	0.023515
2813.000000	0.023460
2812.000000	0.023403
2811.000000	0.023348
2810.000000	0.023301
2809.000000	0.023266
2808.000000	0.023237
2807.000000	0.023207
2806.000000	0.023175
2805.000000	0.023141
2804.000000	0.023099
2803.000000	0.023045
2802.000000	0.022982
2801.000000	0.022919
2800.000000	0.022861
2799.000000	0.022813
2798.000000	0.022780
2797.000000	0.022758
2796.000000	0.022738
2795.000000	0.022709
2794.000000	0.022671
2793.000000	0.022627
2792.000000	0.022577
2791.000000	0.022527
2790.000000	0.022487
2789.000000	0.022464
2788.000000	0.022451
2787.000000	0.022437
2786.000000	0.022416
2785.000000	0.022388
2784.000000	0.022356
2783.000000	0.022325
2782.000000	0.022298
2781.000000	0.022275
2780.000000	0.022247
2779.000000	0.022210
2778.000000	0.022161
2777.000000	0.022109
2776.000000	0.022057
2775.000000	0.022011
2774.000000	0.021977
2773.000000	0.021956
2772.000000	0.021940
2771.000000	0.021920
2770.000000	0.021891
2769.000000	0.021859
2768.000000	0.021824
2767.000000	0.021789
2766.000000	0.021759
2765.000000	0.021736
2764.000000	0.021715
2763.000000	0.021688
2762.000000	0.021655
2761.000000	0.021620
2760.000000	0.021584
2759.000000	0.021544
2758.000000	0.021505
2757.000000	0.021470
2756.000000	0.021440
2755.000000	0.021410
2754.000000	0.021377
2753.000000	0.021339
2752.000000	0.021297
2751.000000	0.021254
2750.000000	0.021216
2749.000000	0.021188
2748.000000	0.021168
2747.000000	0.021154
2746.000000	0.021140
2745.000000	0.021122
2744.000000	0.021097
2743.000000	0.021069
2742.000000	0.021044
2741.000000	0.021021
2740.000000	0.020993
2739.000000	0.020960
2738.000000	0.020930
2737.000000	0.020908
2736.000000	0.020890
2735.000000	0.020867
2734.000000	0.020841
2733.000000	0.020818
2732.000000	0.020796
2731.000000	0.020770
2730.000000	0.020737
2729.000000	0.020697
2728.000000	0.020652
2727.000000	0.020607
2726.000000	0.020571
2725.000000	0.020548
2724.000000	0.020530
2723.000000	0.020510
2722.000000	0.020486
2721.000000	0.020459
2720.000000	0.020426
2719.000000	0.020387
2718.000000	0.020348
2717.000000	0.020312
2716.000000	0.020280
2715.000000	0.020247
2714.000000	0.020216
2713.000000	0.020187
2712.000000	0.020158
2711.000000	0.020123
2710.000000	0.020087
2709.000000	0.020056
2708.000000	0.020031
2707.000000	0.020007
2706.000000	0.019982
2705.000000	0.019958
2704.000000	0.019934
2703.000000	0.019908
2702.000000	0.019881
2701.000000	0.019855
2700.000000	0.019829
2699.000000	0.019802
2698.000000	0.019779
2697.000000	0.019764
2696.000000	0.019752
2695.000000	0.019737
2694.000000	0.019715
2693.000000	0.019688
2692.000000	0.019658
2691.000000	0.019627
2690.000000	0.019603
2689.000000	0.019586
2688.000000	0.019574
2687.000000	0.019559
2686.000000	0.019541
2685.000000	0.019522
2684.000000	0.019497
2683.000000	0.019467
2682.000000	0.019437
2681.000000	0.019412
2680.000000	0.019392
2679.000000	0.019372
2678.000000	0.019354
2677.000000	0.019339
2676.000000	0.019325
2675.000000	0.019311
2674.000000	0.019300
2673.000000	0.019294
2672.000000	0.019289
2671.000000	0.019278
2670.000000	0.019262
2669.000000	0.019245
2668.000000	0.019227
2667.000000	0.019207
2666.000000	0.019190
2665.000000	0.019178
2664.000000	0.019169
2663.000000	0.019156
2662.000000	0.019141
2661.000000	0.019126
2660.000000	0.019111
2659.000000	0.019094
2658.000000	0.019076
2657.000000	0.019059
2656.000000	0.019042
2655.000000	0.019024
2654.000000	0.019006
2653.000000	0.018994
2652.000000	0.018984
2651.000000	0.018976
2650.000000	0.018967
2649.000000	0.018957
2648.000000	0.018945
2647.000000	0.018929
2646.000000	0.018915
2645.000000	0.018909
2644.000000	0.018906
2643.000000	0.018898
2642.000000	0.018884
2641.000000	0.018871
2640.000000	0.018861
2639.000000	0.018851
2638.000000	0.018845
2637.000000	0.018845
2636.000000	0.018845
2635.000000	0.018840
2634.000000	0.018831
2633.000000	0.018823
2632.000000	0.018814
2631.000000	0.018803
2630.000000	0.018791
2629.000000	0.018781
2628.000000	0.018773
2627.000000	0.018763
2626.000000	0.018754
2625.000000	0.018747
2624.000000	0.018736
2623.000000	0.018718
2622.000000	0.018701
2621.000000	0.018695
2620.000000	0.018695
2619.000000	0.018692
2618.000000	0.018685
2617.000000	0.018679
2616.000000	0.018674
2615.000000	0.018666
2614.000000	0.018654
2613.000000	0.018643
2612.000000	0.018630
2611.000000	0.018615
2610.000000	0.018604
2609.000000	0.018601
2608.000000	0.018598
2607.000000	0.018589
2606.000000	0.018574
2605.000000	0.018563
2604.000000	0.018557
2603.000000	0.018554
2602.000000	0.018554
2601.000000	0.018557
2600.000000	0.018554
2599.000000	0.018540
2598.000000	0.018521
2597.000000	0.018508
2596.000000	0.018500
2595.000000	0.018487
2594.000000	0.018466
2593.000000	0.018442
2592.000000	0.018419
2591.000000	0.018396
2590.000000	0.018380
2589.000000	0.018371
2588.000000	0.018362
2587.000000	0.018349
2586.000000	0.018339
2585.000000	0.018335
2584.000000	0.018329
2583.000000	0.018312
2582.000000	0.018289
2581.000000	0.018276
2580.000000	0.018273
2579.000000	0.018266
2578.000000	0.018250
2577.000000	0.018231
2576.000000	0.018217
2575.000000	0.018208
2574.000000	0.018207
2573.000000	0.018211
2572.000000	0.018212
2571.000000	0.018205
2570.000000	0.018190
2569.000000	0.018171
2568.000000	0.018150
2567.000000	0.018131
2566.000000	0.018123
2565.000000	0.018129
2564.000000	0.018138
2563.000000	0.018138
2562.000000	0.018130
2561.000000	0.018121
2560.000000	0.018109
2559.000000	0.018089
2558.000000	0.018066
2557.000000	0.018050
2556.000000	0.018040
2555.000000	0.018031
2554.000000	0.018026
2553.000000	0.018027
2552.000000	0.018024
2551.000000	0.018013
2550.000000	0.017999
2549.000000	0.017988
2548.000000	0.017971
2547.000000	0.017943
2546.000000	0.017918
2545.000000	0.017908
2544.000000	0.017908
2543.000000	0.017906
2542.000000	0.017901
2541.000000	0.017901
2540.000000	0.017906
2539.000000	0.017913
2538.000000	0.017922
2537.000000	0.017938
2536.000000	0.017950
2535.000000	0.017950
2534.000000	0.017942
2533.000000	0.017941
2532.000000	0.017945
2531.000000	0.017944
2530.000000	0.017938
2529.000000	0.017935
2528.000000	0.017937
2527.000000	0.017942
2526.000000	0.017953
2525.000000	0.017970
2524.000000	0.017984
2523.000000	0.017992
2522.000000	0.018006
2521.000000	0.018034
2520.000000	0.018068
2519.000000	0.018092
2518.000000	0.018106
2517.000000	0.018115
2516.000000	0.018119
2515.000000	0.018121
2514.000000	0.018138
2513.000000	0.018179
2512.000000	0.018232
2511.000000	0.018276
2510.000000	0.018313
2509.000000	0.018354
2508.000000	0.018403
2507.000000	0.018453
2506.000000	0.018505
2505.000000	0.018567
2504.000000	0.018640
2503.000000	0.018718
2502.000000	0.018806
2501.000000	0.018905
2500.000000	0.019010
2499.000000	0.019107
2498.000000	0.019201
2497.000000	0.019301
2496.000000	0.019411
2495.000000	0.019530
2494.000000	0.019664
2493.000000	0.019814
2492.000000	0.019967
2491.000000	0.020110
2490.000000	0.020248
2489.000000	0.020390
2488.000000	0.020533
2487.000000	0.020670
2486.000000	0.020797
2485.000000	0.020918
2484.000000	0.021030
2483.000000	0.021134
2482.000000	0.021238
2481.000000	0.021350
2480.000000	0.021457
2479.000000	0.021552
2478.000000	0.021637
2477.000000	0.021723
2476.000000	0.021801
2475.000000	0.021861
2474.000000	0.021911
2473.000000	0.021964
2472.000000	0.022020
2471.000000	0.022067
2470.000000	0.022106
2469.000000	0.022144
2468.000000	0.022181
2467.000000	0.022213
2466.000000	0.022238
2465.000000	0.022259
2464.000000	0.022270
2463.000000	0.022271
2462.000000	0.022271
2461.000000	0.022279
2460.000000	0.022293
2459.000000	0.022303
2458.000000	0.022310
2457.000000	0.022316
2456.000000	0.022318
2455.000000	0.022312
2454.000000	0.022307
2453.000000	0.022314
2452.000000	0.022331
2451.000000	0.022354
2450.000000	0.022385
2449.000000	0.022419
2448.000000	0.022439
2447.000000	0.022436
2446.000000	0.022431
2445.000000	0.022446
2444.000000	0.022481
2443.000000	0.022521
2442.000000	0.022560
2441.000000	0.022609
2440.000000	0.022666
2439.000000	0.022727
2438.000000	0.022792
2437.000000	0.022864
2436.000000	0.022944
2435.000000	0.023034
2434.000000	0.023143
2433.000000	0.023272
2432.000000	0.023399
2431.000000	0.023506
2430.000000	0.023594
2429.000000	0.023676
2428.000000	0.023756
2427.000000	0.023830
2426.000000	0.023899
2425.000000	0.023968
2424.000000	0.024029
2423.000000	0.024075
2422.000000	0.024116
2421.000000	0.024157
2420.000000	0.024186
2419.000000	0.024192
2418.000000	0.024176
2417.000000	0.024148
2416.000000	0.024106
2415.000000	0.024047
2414.000000	0.023978
2413.000000	0.023903
2412.000000	0.023809
2411.000000	0.023684
2410.000000	0.023541
2409.000000	0.023398
2408.000000	0.023259
2407.000000	0.023120
2406.000000	0.022979
2405.000000	0.022836
2404.000000	0.022680
2403.000000	0.022503
2402.000000	0.022316
2401.000000	0.022133
2400.000000	0.021952
2399.000000	0.021765
2398.000000	0.021577
2397.000000	0.021402
2396.000000	0.021234
2395.000000	0.021063
2394.000000	0.020886
2393.000000	0.020715
2392.000000	0.020553
2391.000000	0.020398
2390.000000	0.020255
2389.000000	0.020125
2388.000000	0.019998
2387.000000	0.019864
2386.000000	0.019729
2385.000000	0.019602
2384.000000	0.019484
2383.000000	0.019369
2382.000000	0.019261
2381.000000	0.019163
2380.000000	0.019069
2379.000000	0.018974
2378.000000	0.018884
2377.000000	0.018807
2376.000000	0.018734
2375.000000	0.018656
2374.000000	0.018582
2373.000000	0.018522
2372.000000	0.018465
2371.000000	0.018396
2370.000000	0.018322
2369.000000	0.018265
2368.000000	0.018224
2367.000000	0.018186
2366.000000	0.018150
2365.000000	0.018124
2364.000000	0.018101
2363.000000	0.018063
2362.000000	0.018010
2361.000000	0.017958
2360.000000	0.017907
2359.000000	0.017846
2358.000000	0.017782
2357.000000	0.017735
2356.000000	0.017702
2355.000000	0.017683
2354.000000	0.017680
2353.000000	0.017683
2352.000000	0.017651
2351.000000	0.017537
2350.000000	0.017354
2349.000000	0.017181
2348.000000	0.017108
2347.000000	0.017160
2346.000000	0.017285
2345.000000	0.017393
2344.000000	0.017397
2343.000000	0.017292
2342.000000	0.017156
2341.000000	0.017073
2340.000000	0.017047
2339.000000	0.017034
2338.000000	0.017029
2337.000000	0.017034
2336.000000	0.017029
2335.000000	0.016995
2334.000000	0.016955
2333.000000	0.016940
2332.000000	0.016958
2331.000000	0.016991
2330.000000	0.017031
2329.000000	0.017077
2328.000000	0.017106
2327.000000	0.017087
2326.000000	0.017010
2325.000000	0.016907
2324.000000	0.016807
2323.000000	0.016735
2322.000000	0.016694
2321.000000	0.016683
2320.000000	0.016681
2319.000000	0.016670
2318.000000	0.016651
2317.000000	0.016633
2316.000000	0.016617
2315.000000	0.016603
2314.000000	0.016600
2313.000000	0.016609
2312.000000	0.016610
2311.000000	0.016586
2310.000000	0.016544
2309.000000	0.016504
2308.000000	0.016472
2307.000000	0.016444
2306.000000	0.016420
2305.000000	0.016404
2304.000000	0.016389
2303.000000	0.016368
2302.000000	0.016348
2301.000000	0.016338
2300.000000	0.016327
2299.000000	0.016306
2298.000000	0.016281
2297.000000	0.016264
2296.000000	0.016252
2295.000000	0.016240
2294.000000	0.016238
2293.000000	0.016252
2292.000000	0.016268
2291.000000	0.016274
2290.000000	0.016277
2289.000000	0.016285
2288.000000	0.016277
2287.000000	0.016236
2286.000000	0.016180
2285.000000	0.016139
2284.000000	0.016110
2283.000000	0.016073
2282.000000	0.016033
2281.000000	0.016011
2280.000000	0.016008
2279.000000	0.016007
2278.000000	0.016007
2277.000000	0.016010
2276.000000	0.016001
2275.000000	0.015964
2274.000000	0.015921
2273.000000	0.015898
2272.000000	0.015885
2271.000000	0.015857
2270.000000	0.015821
2269.000000	0.015802
2268.000000	0.015801
2267.000000	0.015798
2266.000000	0.015799
2265.000000	0.015809
2264.000000	0.015813
2263.000000	0.015791
2262.000000	0.015763
2261.000000	0.015754
2260.000000	0.015753
2259.000000	0.015734
2258.000000	0.015710
2257.000000	0.015703
2256.000000	0.015701
2255.000000	0.015680
2254.000000	0.015656
2253.000000	0.015651
2252.000000	0.015654
2251.000000	0.015640
2250.000000	0.015626
2249.000000	0.015631
2248.000000	0.015636
2247.000000	0.015612
2246.000000	0.015579
2245.000000	0.015574
2244.000000	0.015581
2243.000000	0.015558
2242.000000	0.015517
2241.000000	0.015499
2240.000000	0.015504
2239.000000	0.015502
2238.000000	0.015491
2237.000000	0.015487
2236.000000	0.015483
2235.000000	0.015471
2234.000000	0.015474
2233.000000	0.015510
2232.000000	0.015542
2231.000000	0.015525
2230.000000	0.015475
2229.000000	0.015436
2228.000000	0.015408
2227.000000	0.015372
2226.000000	0.015342
2225.000000	0.015339
2224.000000	0.015332
2223.000000	0.015290
2222.000000	0.015246
2221.000000	0.015248
2220.000000	0.015277
2219.000000	0.015292
2218.000000	0.015307
2217.000000	0.015351
2216.000000	0.015390
2215.000000	0.015374
2214.000000	0.015323
2213.000000	0.015290
2212.000000	0.015272
2211.000000	0.015237
2210.000000	0.015206
2209.000000	0.015211
2208.000000	0.015225
2207.000000	0.015203
2206.000000	0.015167
2205.000000	0.015163
2204.000000	0.015177
2203.000000	0.015170
2202.000000	0.015165
2201.000000	0.015198
2200.000000	0.015224
2199.000000	0.015184
2198.000000	0.015107
2197.000000	0.015065
2196.000000	0.015060
2195.000000	0.015046
2194.000000	0.015035
2193.000000	0.015066
2192.000000	0.015115
2191.000000	0.015131
2190.000000	0.015130
2189.000000	0.015155
2188.000000	0.015175
2187.000000	0.015135
2186.000000	0.015064
2185.000000	0.015019
2184.000000	0.014990
2183.000000	0.014940
2182.000000	0.014905
2181.000000	0.014924
2180.000000	0.014934
2179.000000	0.014857
2178.000000	0.014749
2177.000000	0.014717
2176.000000	0.014749
2175.000000	0.014756
2174.000000	0.014736
2173.000000	0.014756
2172.000000	0.014816
2171.000000	0.014855
2170.000000	0.014867
2169.000000	0.014883
2168.000000	0.014883
2167.000000	0.014835
2166.000000	0.014794
2165.000000	0.014826
2164.000000	0.014847
2163.000000	0.014693
2162.000000	0.014351
2161.000000	0.013989
2160.000000	0.013770
2159.000000	0.013743
2158.000000	0.013882
2157.000000	0.014096
2156.000000	0.014248
2155.000000	0.014283
2154.000000	0.014286
2153.000000	0.014335
2152.000000	0.014382
2151.000000	0.014359
2150.000000	0.014306
2149.000000	0.014296
2148.000000	0.014309
2147.000000	0.014299
2146.000000	0.014296
2145.000000	0.014340
2144.000000	0.014387
2143.000000	0.014381
2142.000000	0.014359
2141.000000	0.014381
2140.000000	0.014424
2139.000000	0.014423
2138.000000	0.014388
2137.000000	0.014368
2136.000000	0.014369
2135.000000	0.014377
2134.000000	0.014414
2133.000000	0.014490
2132.000000	0.014558
2131.000000	0.014577
2130.000000	0.014584
2129.000000	0.014624
2128.000000	0.014673
2127.000000	0.014685
2126.000000	0.014676
2125.000000	0.014687
2124.000000	0.014707
2123.000000	0.014707
2122.000000	0.014696
2121.000000	0.014702
2120.000000	0.014710
2119.000000	0.014702
2118.000000	0.014706
2117.000000	0.014744
2116.000000	0.014777
2115.000000	0.014756
2114.000000	0.014705
2113.000000	0.014679
2112.000000	0.014677
2111.000000	0.014664
2110.000000	0.014650
2109.000000	0.014656
2108.000000	0.014662
2107.000000	0.014631
2106.000000	0.014591
2105.000000	0.014589
2104.000000	0.014613
2103.000000	0.014622
2102.000000	0.014619
2101.000000	0.014628
2100.000000	0.014630
2099.000000	0.014591
2098.000000	0.014531
2097.000000	0.014495
2096.000000	0.014474
2095.000000	0.014440
2094.000000	0.014409
2093.000000	0.014404
2092.000000	0.014401
2091.000000	0.014369
2090.000000	0.014341
2089.000000	0.014361
2088.000000	0.014405
2087.000000	0.014418
2086.000000	0.014406
2085.000000	0.014403
2084.000000	0.014392
2083.000000	0.014338
2082.000000	0.014269
2081.000000	0.014240
2080.000000	0.014247
2079.000000	0.014245
2078.000000	0.014235
2077.000000	0.014235
2076.000000	0.014219
2075.000000	0.014161
2074.000000	0.014099
2073.000000	0.014088
2072.000000	0.014099
2071.000000	0.014074
2070.000000	0.014024
2069.000000	0.013988
2068.000000	0.013947
2067.000000	0.013863
2066.000000	0.013780
2065.000000	0.013770
2064.000000	0.013815
2063.000000	0.013844
2062.000000	0.013851
2061.000000	0.013871
2060.000000	0.013887
2059.000000	0.013851
2058.000000	0.013778
2057.000000	0.013713
2056.000000	0.013662
2055.000000	0.013624
2054.000000	0.013630
2053.000000	0.013669
2052.000000	0.013647
2051.000000	0.013521
2050.000000	0.013408
2049.000000	0.013434
2048.000000	0.013533
2047.000000	0.013566
2046.000000	0.013555
2045.000000	0.013595
2044.000000	0.013647
2043.000000	0.013601
2042.000000	0.013498
2041.000000	0.013453
2040.000000	0.013448
2039.000000	0.013387
2038.000000	0.013300
2037.000000	0.013285
2036.000000	0.013300
2035.000000	0.013240
2034.000000	0.013153
2033.000000	0.013166
2032.000000	0.013244
2031.000000	0.013262
2030.000000	0.013221
2029.000000	0.013203
2028.000000	0.013180
2027.000000	0.013099
2026.000000	0.013046
2025.000000	0.013121
2024.000000	0.013234
2023.000000	0.013244
2022.000000	0.013197
2021.000000	0.013223
2020.000000	0.013287
2019.000000	0.013275
2018.000000	0.013223
2017.000000	0.013242
2016.000000	0.013294
2015.000000	0.013267
2014.000000	0.013186
2013.000000	0.013141
2012.000000	0.013096
2011.000000	0.012986
2010.000000	0.012886
2009.000000	0.012895
2008.000000	0.012951
2007.000000	0.012956
2006.000000	0.012974
2005.000000	0.013093
2004.000000	0.013224
2003.000000	0.013241
2002.000000	0.013204
2001.000000	0.013222
2000.000000	0.013253
1999.000000	0.013205
1998.000000	0.013125
1997.000000	0.013122
1996.000000	0.013176
1995.000000	0.013191
1994.000000	0.013176
1993.000000	0.013191
1992.000000	0.013199
1991.000000	0.013150
1990.000000	0.013115
1989.000000	0.013161
1988.000000	0.013203
1987.000000	0.013143
1986.000000	0.013073
1985.000000	0.013131
1984.000000	0.013257
1983.000000	0.013290
1982.000000	0.013211
1981.000000	0.013083
1980.000000	0.012885
1979.000000	0.012604
1978.000000	0.012406
1977.000000	0.012453
1976.000000	0.012615
1975.000000	0.012673
1974.000000	0.012651
1973.000000	0.012691
1972.000000	0.012767
1971.000000	0.012769
1970.000000	0.012748
1969.000000	0.012812
1968.000000	0.012889
1967.000000	0.012854
1966.000000	0.012777
1965.000000	0.012797
1964.000000	0.012852
1963.000000	0.012795
1962.000000	0.012660
1961.000000	0.012586
1960.000000	0.012585
1959.000000	0.012583
1958.000000	0.012611
1957.000000	0.012726
1956.000000	0.012834
1955.000000	0.012820
1954.000000	0.012737
1953.000000	0.012720
1952.000000	0.012760
1951.000000	0.012764
1950.000000	0.012758
1949.000000	0.012812
1948.000000	0.012872
1947.000000	0.012857
1946.000000	0.012828
1945.000000	0.012879
1944.000000	0.012933
1943.000000	0.012848
1942.000000	0.012683
1941.000000	0.012614
1940.000000	0.012651
1939.000000	0.012676
1938.000000	0.012656
1937.000000	0.012663
1936.000000	0.012697
1935.000000	0.012692
1934.000000	0.012650
1933.000000	0.012635
1932.000000	0.012636
1931.000000	0.012602
1930.000000	0.012576
1929.000000	0.012601
1928.000000	0.012634
1927.000000	0.012606
1926.000000	0.012583
1925.000000	0.012641
1924.000000	0.012684
1923.000000	0.012592
1922.000000	0.012455
1921.000000	0.012435
1920.000000	0.012499
1919.000000	0.012466
1918.000000	0.012313
1917.000000	0.012210
1916.000000	0.012230
1915.000000	0.012285
1914.000000	0.012317
1913.000000	0.012371
1912.000000	0.012453
1911.000000	0.012490
1910.000000	0.012462
1909.000000	0.012408
1908.000000	0.012370
1907.000000	0.012337
1906.000000	0.012330
1905.000000	0.012375
1904.000000	0.012410
1903.000000	0.012378
1902.000000	0.012325
1901.000000	0.012310
1900.000000	0.012316
1899.000000	0.012294
1898.000000	0.012281
1897.000000	0.012324
1896.000000	0.012349
1895.000000	0.012270
1894.000000	0.012168
1893.000000	0.012183
1892.000000	0.012296
1891.000000	0.012347
1890.000000	0.012264
1889.000000	0.012145
1888.000000	0.012093
1887.000000	0.012104
1886.000000	0.012141
1885.000000	0.012183
1884.000000	0.012183
1883.000000	0.012119
1882.000000	0.012041
1881.000000	0.012000
1880.000000	0.011987
1879.000000	0.011960
1878.000000	0.011929
1877.000000	0.011943
1876.000000	0.011971
1875.000000	0.011926
1874.000000	0.011832
1873.000000	0.011803
1872.000000	0.011884
1871.000000	0.012004
1870.000000	0.012058
1869.000000	0.011992
1868.000000	0.011840
1867.000000	0.011693
1866.000000	0.011635
1865.000000	0.011669
1864.000000	0.011711
1863.000000	0.011695
1862.000000	0.011658
1861.000000	0.011659
1860.000000	0.011676
1859.000000	0.011656
1858.000000	0.011621
1857.000000	0.011621
1856.000000	0.011642
1855.000000	0.011625
1854.000000	0.011585
1853.000000	0.011550
1852.000000	0.011531
1851.000000	0.011510
1850.000000	0.011467
1849.000000	0.011424
1848.000000	0.011420
1847.000000	0.011473
1846.000000	0.011522
1845.000000	0.011415
1844.000000	0.011117
1843.000000	0.010867
1842.000000	0.010903
1841.000000	0.011170
1840.000000	0.011430
1839.000000	0.011512
1838.000000	0.011470
1837.000000	0.011433
1836.000000	0.011388
1835.000000	0.011296
1834.000000	0.011257
1833.000000	0.011397
1832.000000	0.011676
1831.000000	0.011811
1830.000000	0.011604
1829.000000	0.011284
1828.000000	0.011151
1827.000000	0.011187
1826.000000	0.011187
1825.000000	0.011083
1824.000000	0.010989
1823.000000	0.010997
1822.000000	0.011068
1821.000000	0.011121
1820.000000	0.011112
1819.000000	0.011035
1818.000000	0.010957
1817.000000	0.010949
1816.000000	0.010984
1815.000000	0.011028
1814.000000	0.011092
1813.000000	0.011202
1812.000000	0.011283
1811.000000	0.011211
1810.000000	0.011049
1809.000000	0.010955
1808.000000	0.010951
1807.000000	0.010953
1806.000000	0.010926
1805.000000	0.010896
1804.000000	0.010864
1803.000000	0.010842
1802.000000	0.010845
1801.000000	0.010885
1800.000000	0.010913
1799.000000	0.010872
1798.000000	0.010814
1797.000000	0.010826
1796.000000	0.010919
1795.000000	0.011037
1794.000000	0.011073
1793.000000	0.010918
1792.000000	0.010584
1791.000000	0.010285
1790.000000	0.010241
1789.000000	0.010421
1788.000000	0.010608
1787.000000	0.010639
1786.000000	0.010545
1785.000000	0.010477
1784.000000	0.010516
1783.000000	0.010675
1782.000000	0.010826
1781.000000	0.010850
1780.000000	0.010760
1779.000000	0.010667
1778.000000	0.010671
1777.000000	0.010764
1776.000000	0.010941
1775.000000	0.011230
1774.000000	0.011516
1773.000000	0.011482
1772.000000	0.011022
1771.000000	0.010467
1770.000000	0.010174
1769.000000	0.010161
1768.000000	0.010208
1767.000000	0.010226
1766.000000	0.010339
1765.000000	0.010627
1764.000000	0.010931
1763.000000	0.010987
1762.000000	0.010735
1761.000000	0.010497
1760.000000	0.010518
1759.000000	0.010714
1758.000000	0.010870
1757.000000	0.010843
1756.000000	0.010755
1755.000000	0.010778
1754.000000	0.010941
1753.000000	0.011149
1752.000000	0.011308
1751.000000	0.011406
1750.000000	0.011574
1749.000000	0.011850
1748.000000	0.012083
1747.000000	0.012217
1746.000000	0.012334
1745.000000	0.012543
1744.000000	0.012818
1743.000000	0.013088
1742.000000	0.013390
1741.000000	0.013726
1740.000000	0.013864
1739.000000	0.013745
1738.000000	0.013716
1737.000000	0.014075
1736.000000	0.014654
1735.000000	0.014850
1734.000000	0.014483
1733.000000	0.014331
1732.000000	0.014764
1731.000000	0.015348
1730.000000	0.015733
1729.000000	0.015962
1728.000000	0.016206
1727.000000	0.016498
1726.000000	0.016777
1725.000000	0.017087
1724.000000	0.017400
1723.000000	0.017610
1722.000000	0.017810
1721.000000	0.018226
1720.000000	0.018885
1719.000000	0.019436
1718.000000	0.019591
1717.000000	0.019684
1716.000000	0.020023
1715.000000	0.020450
1714.000000	0.020895
1713.000000	0.021483
1712.000000	0.022180
1711.000000	0.022829
1710.000000	0.023431
1709.000000	0.024175
1708.000000	0.025197
1707.000000	0.026349
1706.000000	0.027431
1705.000000	0.028458
1704.000000	0.029504
1703.000000	0.030719
1702.000000	0.032559
1701.000000	0.035509
1700.000000	0.039222
1699.000000	0.042505
1698.000000	0.045217
1697.000000	0.047997
1696.000000	0.050857
1695.000000	0.053246
1694.000000	0.054889
1693.000000	0.056039
1692.000000	0.056938
1691.000000	0.057675
1690.000000	0.058350
1689.000000	0.058982
1688.000000	0.059542
1687.000000	0.060086
1686.000000	0.060998
1685.000000	0.062666
1684.000000	0.064824
1683.000000	0.066652
1682.000000	0.067916
1681.000000	0.068968
1680.000000	0.069982
1679.000000	0.070889
1678.000000	0.071724
1677.000000	0.072837
1676.000000	0.074568
1675.000000	0.076744
1674.000000	0.078662
1673.000000	0.080067
1672.000000	0.081322
1671.000000	0.082876
1670.000000	0.084942
1669.000000	0.087238
1668.000000	0.089166
1667.000000	0.090414
1666.000000	0.091203
1665.000000	0.092100
1664.000000	0.093548
1663.000000	0.095559
1662.000000	0.097645
1661.000000	0.099333
1660.000000	0.100606
1659.000000	0.101570
1658.000000	0.102146
1657.000000	0.102234
1656.000000	0.102124
1655.000000	0.102723
1654.000000	0.105425
1653.000000	0.110337
1652.000000	0.114142
1651.000000	0.115031
1650.000000	0.114460
1649.000000	0.114075
1648.000000	0.114866
1647.000000	0.116913
1646.000000	0.119212
1645.000000	0.120739
1644.000000	0.121401
1643.000000	0.121641
1642.000000	0.121893
1641.000000	0.122346
1640.000000	0.122867
1639.000000	0.123219
1638.000000	0.123697
1637.000000	0.125205
1636.000000	0.128323
1635.000000	0.131893
1634.000000	0.134138
1633.000000	0.134972
1632.000000	0.135227
1631.000000	0.135589
1630.000000	0.136529
1629.000000	0.138254
1628.000000	0.140436
1627.000000	0.142381
1626.000000	0.143799
1625.000000	0.145252
1624.000000	0.147503
1623.000000	0.150403
1622.000000	0.152724
1621.000000	0.153566
1620.000000	0.153282
1619.000000	0.152860
1618.000000	0.153321
1617.000000	0.155008
1616.000000	0.156794
1615.000000	0.157043
1614.000000	0.155465
1613.000000	0.152878
1612.000000	0.150074
1611.000000	0.147368
1610.000000	0.144620
1609.000000	0.141613
1608.000000	0.138334
1607.000000	0.134881
1606.000000	0.131233
1605.000000	0.127392
1604.000000	0.123525
1603.000000	0.119760
1602.000000	0.116041
1601.000000	0.112292
1600.000000	0.108590
1599.000000	0.105061
1598.000000	0.101707
1597.000000	0.098470
1596.000000	0.095371
1595.000000	0.092477
1594.000000	0.089758
1593.000000	0.087122
1592.000000	0.084581
1591.000000	0.082253
1590.000000	0.080165
1589.000000	0.078227
1588.000000	0.076418
1587.000000	0.074828
1586.000000	0.073494
1585.000000	0.072284
1584.000000	0.071171
1583.000000	0.070276
1582.000000	0.069583
1581.000000	0.068909
1580.000000	0.068212
1579.000000	0.067687
1578.000000	0.067517
1577.000000	0.067635
1576.000000	0.067821
1575.000000	0.067942
1574.000000	0.067870
1573.000000	0.067607
1572.000000	0.067417
1571.000000	0.067682
1570.000000	0.068506
1569.000000	0.069441
1568.000000	0.070144
1567.000000	0.070773
1566.000000	0.071563
1565.000000	0.072390
1564.000000	0.072987
1563.000000	0.073158
1562.000000	0.073102
1561.000000	0.073461
1560.000000	0.075526
1559.000000	0.079523
1558.000000	0.083151
1557.000000	0.084765
1556.000000	0.085425
1555.000000	0.086289
1554.000000	0.087552
1553.000000	0.088845
1552.000000	0.090025
1551.000000	0.091371
1550.000000	0.093071
1549.000000	0.094735
1548.000000	0.095890
1547.000000	0.096689
1546.000000	0.097681
1545.000000	0.099124
1544.000000	0.100754
1543.000000	0.102299
1542.000000	0.104115
1541.000000	0.106820
1540.000000	0.110139
1539.000000	0.112713
1538.000000	0.113579
1537.000000	0.113116
1536.000000	0.112270
1535.000000	0.112063
1534.000000	0.113094
1533.000000	0.114834
1532.000000	0.116040
1531.000000	0.116293
1530.000000	0.116097
1529.000000	0.115962
1528.000000	0.116129
1527.000000	0.116667
1526.000000	0.117367
1525.000000	0.117769
1524.000000	0.117712
1523.000000	0.117712
1522.000000	0.118506
1521.000000	0.119923
1520.000000	0.120844
1519.000000	0.120910
1518.000000	0.120778
1517.000000	0.120937
1516.000000	0.121074
1515.000000	0.120600
1514.000000	0.119453
1513.000000	0.118003
1512.000000	0.116464
1511.000000	0.114742
1510.000000	0.112822
1509.000000	0.111104
1508.000000	0.110242
1507.000000	0.110210
1506.000000	0.110062
1505.000000	0.108869
1504.000000	0.106725
1503.000000	0.104118
1502.000000	0.101432
1501.000000	0.098935
1500.000000	0.096743
1499.000000	0.094789
1498.000000	0.092949
1497.000000	0.091206
1496.000000	0.089455
1495.000000	0.087521
1494.000000	0.085370
1493.000000	0.083132
1492.000000	0.080993
1491.000000	0.079136
1490.000000	0.077678
1489.000000	0.076580
1488.000000	0.075588
1487.000000	0.074511
1486.000000	0.073472
1485.000000	0.072603
1484.000000	0.071951
1483.000000	0.071540
1482.000000	0.071412
1481.000000	0.071551
1480.000000	0.071785
1479.000000	0.071999
1478.000000	0.072326
1477.000000	0.072972
1476.000000	0.073875
1475.000000	0.074944
1474.000000	0.076384
1473.000000	0.078408
1472.000000	0.080632
1471.000000	0.082326
1470.000000	0.083314
1469.000000	0.083882
1468.000000	0.084307
1467.000000	0.084849
1466.000000	0.085788
1465.000000	0.087150
1464.000000	0.088514
1463.000000	0.089359
1462.000000	0.089619
1461.000000	0.089544
1460.000000	0.089458
1459.000000	0.089787
1458.000000	0.091132
1457.000000	0.093604
1456.000000	0.096035
1455.000000	0.097328
1454.000000	0.097640
1453.000000	0.097566
1452.000000	0.097425
1451.000000	0.097257
1450.000000	0.097079
1449.000000	0.097043
1448.000000	0.097154
1447.000000	0.097207
1446.000000	0.096970
1445.000000	0.096445
1444.000000	0.095812
1443.000000	0.095161
1442.000000	0.094457
1441.000000	0.093580
1440.000000	0.092447
1439.000000	0.091124
1438.000000	0.089963
1437.000000	0.089376
1436.000000	0.089235
1435.000000	0.088880
1434.000000	0.087954
1433.000000	0.086645
1432.000000	0.085292
1431.000000	0.084086
1430.000000	0.082993
1429.000000	0.081945
1428.000000	0.080908
1427.000000	0.079906
1426.000000	0.078985
1425.000000	0.078220
1424.000000	0.077641
1423.000000	0.077041
1422.000000	0.076225
1421.000000	0.075375
1420.000000	0.074993
1419.000000	0.075269
1418.000000	0.075763
1417.000000	0.076058
1416.000000	0.076138
1415.000000	0.076099
1414.000000	0.075982
1413.000000	0.075858
1412.000000	0.075822
1411.000000	0.075842
1410.000000	0.075759
1409.000000	0.075509
1408.000000	0.075134
1407.000000	0.074727
1406.000000	0.074351
1405.000000	0.074024
1404.000000	0.073723
1403.000000	0.073334
1402.000000	0.072776
1401.000000	0.072158
1400.000000	0.071691
1399.000000	0.071423
1398.000000	0.071189
1397.000000	0.070906
1396.000000	0.070697
1395.000000	0.070695
1394.000000	0.070814
1393.000000	0.070879
1392.000000	0.070808
1391.000000	0.070585
1390.000000	0.070244
1389.000000	0.069932
1388.000000	0.069826
1387.000000	0.069924
1386.000000	0.070012
1385.000000	0.069913
1384.000000	0.069656
1383.000000	0.069344
1382.000000	0.069035
1381.000000	0.068754
1380.000000	0.068530
1379.000000	0.068382
1378.000000	0.068271
1377.000000	0.068158
1376.000000	0.068089
1375.000000	0.068146
1374.000000	0.068296
1373.000000	0.068417
1372.000000	0.068422
1371.000000	0.068310
1370.000000	0.068094
1369.000000	0.067763
1368.000000	0.067303
1367.000000	0.066687
1366.000000	0.065898
1365.000000	0.065010
1364.000000	0.064184
1363.000000	0.063546
1362.000000	0.063083
1361.000000	0.062701
1360.000000	0.062337
1359.000000	0.061975
1358.000000	0.061616
1357.000000	0.061277
1356.000000	0.061003
1355.000000	0.060818
1354.000000	0.060690
1353.000000	0.060587
1352.000000	0.060511
1351.000000	0.060492
1350.000000	0.060525
1349.000000	0.060578
1348.000000	0.060656
1347.000000	0.060776
1346.000000	0.060924
1345.000000	0.061061
1344.000000	0.061158
1343.000000	0.061197
1342.000000	0.061182
1341.000000	0.061151
1340.000000	0.061165
1339.000000	0.061229
1338.000000	0.061269
1337.000000	0.061216
1336.000000	0.061065
1335.000000	0.060846
1334.000000	0.060570
1333.000000	0.060257
1332.000000	0.059955
1331.000000	0.059707
1330.000000	0.059504
1329.000000	0.059324
1328.000000	0.059174
1327.000000	0.059064
1326.000000	0.058975
1325.000000	0.058882
1324.000000	0.058800
1323.000000	0.058754
1322.000000	0.058733
1321.000000	0.058728
1320.000000	0.058753
1319.000000	0.058810
1318.000000	0.058858
1317.000000	0.058870
1316.000000	0.058870
1315.000000	0.058890
1314.000000	0.058922
1313.000000	0.058944
1312.000000	0.058959
1311.000000	0.058966
1310.000000	0.058944
1309.000000	0.058885
1308.000000	0.058819
1307.000000	0.058772
1306.000000	0.058728
1305.000000	0.058670
1304.000000	0.058615
1303.000000	0.058582
1302.000000	0.058553
1301.000000	0.058511
1300.000000	0.058474
1299.000000	0.058464
1298.000000	0.058471
1297.000000	0.058483
1296.000000	0.058516
1295.000000	0.058580
1294.000000	0.058650
1293.000000	0.058707
1292.000000	0.058768
1291.000000	0.058850
1290.000000	0.058941
1289.000000	0.059030
1288.000000	0.059134
1287.000000	0.059264
1286.000000	0.059388
1285.000000	0.059481
1284.000000	0.059554
1283.000000	0.059629
1282.000000	0.059698
1281.000000	0.059749
1280.000000	0.059795
1279.000000	0.059847
1278.000000	0.059890
1277.000000	0.059911
1276.000000	0.059934
1275.000000	0.059979
1274.000000	0.060037
1273.000000	0.060096
1272.000000	0.060178
1271.000000	0.060303
1270.000000	0.060467
1269.000000	0.060656
1268.000000	0.060888
1267.000000	0.061169
1266.000000	0.061475
1265.000000	0.061784
1264.000000	0.062113
1263.000000	0.062477
1262.000000	0.062861
1261.000000	0.063247
1260.000000	0.063646
1259.000000	0.064065
1258.000000	0.064484
1257.000000	0.064894
1256.000000	0.065318
1255.000000	0.065778
1254.000000	0.066260
1253.000000	0.066747
1252.000000	0.067246
1251.000000	0.067760
1250.000000	0.068268
1249.000000	0.068757
1248.000000	0.069239
1247.000000	0.069716
1246.000000	0.070161
1245.000000	0.070564
1244.000000	0.070946
1243.000000	0.071311
1242.000000	0.071628
1241.000000	0.071871
1240.000000	0.072055
1239.000000	0.072197
1238.000000	0.072287
1237.000000	0.072308
1236.000000	0.072267
1235.000000	0.072167
1234.000000	0.072000
1233.000000	0.071765
1232.000000	0.071488
1231.000000	0.071187
1230.000000	0.070851
1229.000000	0.070473
1228.000000	0.070066
1227.000000	0.069640
1226.000000	0.069180
1225.000000	0.068675
1224.000000	0.068141
1223.000000	0.067595
1222.000000	0.067026
1221.000000	0.066426
1220.000000	0.065806
1219.000000	0.065179
1218.000000	0.064534
1217.000000	0.063864
1216.000000	0.063190
1215.000000	0.062529
1214.000000	0.061871
1213.000000	0.061205
1212.000000	0.060548
1211.000000	0.059911
1210.000000	0.059277
1209.000000	0.058625
1208.000000	0.057967
1207.000000	0.057319
1206.000000	0.056669
1205.000000	0.056004
1204.000000	0.055341
1203.000000	0.054700
1202.000000	0.054077
1201.000000	0.053460
1200.000000	0.052863
1199.000000	0.052303
1198.000000	0.051769
1197.000000	0.051248
1196.000000	0.050753
1195.000000	0.050303
1194.000000	0.049888
1193.000000	0.049488
1192.000000	0.049114
1191.000000	0.048781
1190.000000	0.048476
1189.000000	0.048183
1188.000000	0.047916
1187.000000	0.047696
1186.000000	0.047513
1185.000000	0.047354
1184.000000	0.047230
1183.000000	0.047165
1182.000000	0.047154
1181.000000	0.047192
1180.000000	0.047296
1179.000000	0.047486
1178.000000	0.047745
1177.000000	0.048053
1176.000000	0.048415
1175.000000	0.048843
1174.000000	0.049311
1173.000000	0.049787
1172.000000	0.050268
1171.000000	0.050756
1170.000000	0.051228
1169.000000	0.051662
1168.000000	0.052078
1167.000000	0.052505
1166.000000	0.052935
1165.000000	0.053336
1164.000000	0.053692
1163.000000	0.053995
1162.000000	0.054224
1161.000000	0.054362
1160.000000	0.054419
1159.000000	0.054406
1158.000000	0.054313
1157.000000	0.054129
1156.000000	0.053873
1155.000000	0.053560
1154.000000	0.053185
1153.000000	0.052745
1152.000000	0.052272
1151.000000	0.051798
1150.000000	0.051321
1149.000000	0.050831
1148.000000	0.050348
1147.000000	0.049902
1146.000000	0.049495
1145.000000	0.049117
1144.000000	0.048780
1143.000000	0.048499
1142.000000	0.048264
1141.000000	0.048063
1140.000000	0.047912
1139.000000	0.047828
1138.000000	0.047799
1137.000000	0.047805
1136.000000	0.047856
1135.000000	0.047963
1134.000000	0.048100
1133.000000	0.048236
1132.000000	0.048374
1131.000000	0.048528
1130.000000	0.048688
1129.000000	0.048839
1128.000000	0.048983
1127.000000	0.049127
1126.000000	0.049255
1125.000000	0.049352
1124.000000	0.049435
1123.000000	0.049527
1122.000000	0.049615
1121.000000	0.049682
1120.000000	0.049738
1119.000000	0.049805
1118.000000	0.049877
1117.000000	0.049944
1116.000000	0.050018
1115.000000	0.050106
1114.000000	0.050191
1113.000000	0.050263
1112.000000	0.050345
1111.000000	0.050467
1110.000000	0.050616
1109.000000	0.050777
1108.000000	0.050971
1107.000000	0.051221
1106.000000	0.051514
1105.000000	0.051823
1104.000000	0.052144
1103.000000	0.052481
1102.000000	0.052815
1101.000000	0.053129
1100.000000	0.053443
1099.000000	0.053778
1098.000000	0.054128
1097.000000	0.054484
1096.000000	0.054862
1095.000000	0.055286
1094.000000	0.055747
1093.000000	0.056238
1092.000000	0.056776
1091.000000	0.057371
1090.000000	0.058002
1089.000000	0.058657
1088.000000	0.059355
1087.000000	0.060114
1086.000000	0.060915
1085.000000	0.061735
1084.000000	0.062579
1083.000000	0.063450
1082.000000	0.064323
1081.000000	0.065178
1080.000000	0.066025
1079.000000	0.066869
1078.000000	0.067683
1077.000000	0.068450
1076.000000	0.069184
1075.000000	0.069894
1074.000000	0.070562
1073.000000	0.071174
1072.000000	0.071746
1071.000000	0.072290
1070.000000	0.072791
1069.000000	0.073232
1068.000000	0.073617
1067.000000	0.073942
1066.000000	0.074180
1065.000000	0.074318
1064.000000	0.074380
1063.000000	0.074386
1062.000000	0.074323
1061.000000	0.074179
1060.000000	0.073964
1059.000000	0.073694
1058.000000	0.073372
1057.000000	0.073008
1056.000000	0.072635
1055.000000	0.072278
1054.000000	0.071933
1053.000000	0.071597
1052.000000	0.071283
1051.000000	0.070991
1050.000000	0.070691
1049.000000	0.070356
1048.000000	0.069987
1047.000000	0.069588
1046.000000	0.069143
1045.000000	0.068643
1044.000000	0.068112
1043.000000	0.067580
1042.000000	0.067050
1041.000000	0.066520
1040.000000	0.066005
1039.000000	0.065525
1038.000000	0.065081
1037.000000	0.064668
1036.000000	0.064285
1035.000000	0.063922
1034.000000	0.063556
1033.000000	0.063176
1032.000000	0.062795
1031.000000	0.062412
1030.000000	0.062001
1029.000000	0.061550
1028.000000	0.061093
1027.000000	0.060672
1026.000000	0.060295
1025.000000	0.059950
1024.000000	0.059634
1023.000000	0.059343
1022.000000	0.059055
1021.000000	0.058750
1020.000000	0.058427
1019.000000	0.058068
1018.000000	0.057621
1017.000000	0.057032
1016.000000	0.056299
1015.000000	0.055452
1014.000000	0.054529
1013.000000	0.053572
1012.000000	0.052642
1011.000000	0.051784
1010.000000	0.051004
1009.000000	0.050283
1008.000000	0.049618
1007.000000	0.049016
1006.000000	0.048471
1005.000000	0.047974
1004.000000	0.047532
1003.000000	0.047143
1002.000000	0.046781
1001.000000	0.046422
1000.000000	0.046071
999.000000	0.045743
998.000000	0.045431
997.000000	0.045120
996.000000	0.044821
995.000000	0.044545
994.000000	0.044281
993.000000	0.044005
992.000000	0.043717
991.000000	0.043427
990.000000	0.043133
989.000000	0.042833
988.000000	0.042542
987.000000	0.042273
986.000000	0.042013
985.000000	0.041746
984.000000	0.041480
983.000000	0.041230
982.000000	0.040993
981.000000	0.040761
980.000000	0.040559
979.000000	0.040410
978.000000	0.040299
977.000000	0.040194
976.000000	0.040090
975.000000	0.039996
974.000000	0.039914
973.000000	0.039838
972.000000	0.039778
971.000000	0.039747
970.000000	0.039727
969.000000	0.039699
968.000000	0.039677
967.000000	0.039682
966.000000	0.039712
965.000000	0.039743
964.000000	0.039770
963.000000	0.039801
962.000000	0.039833
961.000000	0.039853
960.000000	0.039864
959.000000	0.039869
958.000000	0.039848
957.000000	0.039784
956.000000	0.039691
955.000000	0.039592
954.000000	0.039484
953.000000	0.039350
952.000000	0.039198
951.000000	0.039054
950.000000	0.038924
949.000000	0.038800
948.000000	0.038691
947.000000	0.038609
946.000000	0.038547
945.000000	0.038487
944.000000	0.038436
943.000000	0.038410
942.000000	0.038408
941.000000	0.038418
940.000000	0.038439
939.000000	0.038474
938.000000	0.038508
937.000000	0.038528
936.000000	0.038543
935.000000	0.038565
934.000000	0.038579
933.000000	0.038563
932.000000	0.038525
931.000000	0.038482
930.000000	0.038434
929.000000	0.038370
928.000000	0.038295
927.000000	0.038216
926.000000	0.038114
925.000000	0.037965
924.000000	0.037778
923.000000	0.037578
922.000000	0.037368
921.000000	0.037139
920.000000	0.036897
919.000000	0.036664
918.000000	0.036446
917.000000	0.036237
916.000000	0.036045
915.000000	0.035876
914.000000	0.035720
913.000000	0.035574
912.000000	0.035463
911.000000	0.035415
910.000000	0.035421
909.000000	0.035458
908.000000	0.035530
907.000000	0.035641
906.000000	0.035769
905.000000	0.035882
904.000000	0.035977
903.000000	0.036072
902.000000	0.036152
901.000000	0.036185
900.000000	0.036160
899.000000	0.036093
898.000000	0.035995
897.000000	0.035862
896.000000	0.035705
895.000000	0.035539
894.000000	0.035365
893.000000	0.035175
892.000000	0.034976
891.000000	0.034781
890.000000	0.034586
889.000000	0.034377
888.000000	0.034165
887.000000	0.033974
886.000000	0.033813
885.000000	0.033680
884.000000	0.033584
883.000000	0.033524
882.000000	0.033478
881.000000	0.033428
880.000000	0.033391
879.000000	0.033395
878.000000	0.033434
877.000000	0.033487
876.000000	0.033555
875.000000	0.033649
874.000000	0.033747
873.000000	0.033794
872.000000	0.033746
871.000000	0.033591
870.000000	0.033340
869.000000	0.033030
868.000000	0.032722
867.000000	0.032460
866.000000	0.032243
865.000000	0.032051
864.000000	0.031886
863.000000	0.031756
862.000000	0.031653
861.000000	0.031556
860.000000	0.031468
859.000000	0.031404
858.000000	0.031367
857.000000	0.031356
856.000000	0.031381
855.000000	0.031438
854.000000	0.031500
853.000000	0.031547
852.000000	0.031593
851.000000	0.031654
850.000000	0.031708
849.000000	0.031726
848.000000	0.031713
847.000000	0.031695
846.000000	0.031676
845.000000	0.031643
844.000000	0.031608
843.000000	0.031596
842.000000	0.031612
841.000000	0.031644
840.000000	0.031698
839.000000	0.031787
838.000000	0.031907
837.000000	0.032044
836.000000	0.032201
835.000000	0.032383
834.000000	0.032580
833.000000	0.032774
832.000000	0.032967
831.000000	0.033171
830.000000	0.033375
829.000000	0.033564
828.000000	0.033741
827.000000	0.033920
826.000000	0.034090
825.000000	0.034239
824.000000	0.034380
823.000000	0.034540
822.000000	0.034726
821.000000	0.034931
820.000000	0.035154
819.000000	0.035391
818.000000	0.035617
817.000000	0.035820
816.000000	0.036016
815.000000	0.036229
814.000000	0.036456
813.000000	0.036681
812.000000	0.036903
811.000000	0.037124
810.000000	0.037335
809.000000	0.037529
808.000000	0.037711
807.000000	0.037887
806.000000	0.038044
805.000000	0.038174
804.000000	0.038296
803.000000	0.038426
802.000000	0.038555
801.000000	0.038670
800.000000	0.038784
799.000000	0.038922
798.000000	0.039098
797.000000	0.039311
796.000000	0.039556
795.000000	0.039818
794.000000	0.040068
793.000000	0.040295
792.000000	0.040518
791.000000	0.040758
790.000000	0.041014
789.000000	0.041279
788.000000	0.041555
787.000000	0.041839
786.000000	0.042119
785.000000	0.042393
784.000000	0.042684
783.000000	0.042999
782.000000	0.043314
781.000000	0.043610
780.000000	0.043898
779.000000	0.044194
778.000000	0.044491
777.000000	0.044779
776.000000	0.045070
775.000000	0.045382
774.000000	0.045706
773.000000	0.046028
772.000000	0.046345
771.000000	0.046658
770.000000	0.046957
769.000000	0.047230
768.000000	0.047489
767.000000	0.047749
766.000000	0.048008
765.000000	0.048262
764.000000	0.048514
763.000000	0.048773
762.000000	0.049043
761.000000	0.049329
760.000000	0.049639
759.000000	0.049965
758.000000	0.050282
757.000000	0.050573
756.000000	0.050843
755.000000	0.051110
754.000000	0.051381
753.000000	0.051662
752.000000	0.051956
751.000000	0.052255
750.000000	0.052544
749.000000	0.052813
748.000000	0.053062
747.000000	0.053279
746.000000	0.053456
745.000000	0.053610
744.000000	0.053778
743.000000	0.053985
742.000000	0.054225
741.000000	0.054490
740.000000	0.054791
739.000000	0.055144
738.000000	0.055558
737.000000	0.056031
736.000000	0.056562
735.000000	0.057143
734.000000	0.057768
733.000000	0.058446
732.000000	0.059182
731.000000	0.059960
730.000000	0.060762
729.000000	0.061581
728.000000	0.062425
727.000000	0.063284
726.000000	0.064132
725.000000	0.064945
724.000000	0.065701
723.000000	0.066378
722.000000	0.066967
721.000000	0.067484
720.000000	0.067941
719.000000	0.068337
718.000000	0.068681
717.000000	0.069018
716.000000	0.069405
715.000000	0.069871
714.000000	0.070423
713.000000	0.071072
712.000000	0.071831
711.000000	0.072698
710.000000	0.073663
709.000000	0.074726
708.000000	0.075872
707.000000	0.077061
706.000000	0.078258
705.000000	0.079457
704.000000	0.080639
703.000000	0.081741
702.000000	0.082688
701.000000	0.083438
700.000000	0.083987
699.000000	0.084344
698.000000	0.084534
697.000000	0.084612
696.000000	0.084634
695.000000	0.084630
694.000000	0.084620
693.000000	0.084625
692.000000	0.084652
691.000000	0.084690
690.000000	0.084741
689.000000	0.084834
688.000000	0.084993
687.000000	0.085202
686.000000	0.085431
685.000000	0.085671
684.000000	0.085915
683.000000	0.086152
682.000000	0.086390
681.000000	0.086650
680.000000	0.086937
679.000000	0.087231
678.000000	0.087531
677.000000	0.087858
676.000000	0.088204
675.000000	0.088544
674.000000	0.088867
673.000000	0.089153
672.000000	0.089325
671.000000	0.089344
670.000000	0.089370
669.000000	0.089760
668.000000	0.090604
667.000000	0.091360
666.000000	0.091557
665.000000	0.091345
664.000000	0.091112
663.000000	0.091071
662.000000	0.091173
661.000000	0.091309
660.000000	0.091466
659.000000	0.091666
658.000000	0.091879
657.000000	0.092072
656.000000	0.092266
655.000000	0.092479
654.000000	0.092694
653.000000	0.092909
652.000000	0.093161
651.000000	0.093464
650.000000	0.093786
649.000000	0.094112
648.000000	0.094458
647.000000	0.094826
646.000000	0.095185
645.000000	0.095539
644.000000	0.095930
643.000000	0.096370
642.000000	0.096817
641.000000	0.097246
640.000000	0.097674
639.000000	0.098105
638.000000	0.098518
637.000000	0.098927
636.000000	0.099381
635.000000	0.099887
634.000000	0.100392
633.000000	0.100846
632.000000	0.101245
631.000000	0.101591
630.000000	0.101882
629.000000	0.102130
628.000000	0.102355
627.000000	0.102553
626.000000	0.102719
625.000000	0.102881
624.000000	0.103069
623.000000	0.103257
622.000000	0.103386
621.000000	0.103440
620.000000	0.103446
619.000000	0.103423
618.000000	0.103387
617.000000	0.103366
616.000000	0.103371
615.000000	0.103355
614.000000	0.103271
613.000000	0.103150
612.000000	0.103061
611.000000	0.103020
610.000000	0.102977
609.000000	0.102902
608.000000	0.102818
607.000000	0.102753
606.000000	0.102708
605.000000	0.102672
604.000000	0.102630
603.000000	0.102556
602.000000	0.102456
601.000000	0.102384
600.000000	0.102388
599.000000	0.102447
598.000000	0.102504
597.000000	0.102544
596.000000	0.102577
595.000000	0.102592
594.000000	0.102579
593.000000	0.102579
592.000000	0.102652
591.000000	0.102795
590.000000	0.102957
589.000000	0.103108
588.000000	0.103249
587.000000	0.103375
586.000000	0.103491
585.000000	0.103630
584.000000	0.103808
583.000000	0.103982
582.000000	0.104120
581.000000	0.104265
580.000000	0.104458
579.000000	0.104652
578.000000	0.104783
577.000000	0.104898
576.000000	0.105103
575.000000	0.105404
574.000000	0.105690
573.000000	0.105891
572.000000	0.106037
571.000000	0.106176
570.000000	0.106331
569.000000	0.106520
568.000000	0.106750
567.000000	0.106984
566.000000	0.107190
565.000000	0.107400
564.000000	0.107667
563.000000	0.107971
562.000000	0.108241
561.000000	0.108462
560.000000	0.108671
559.000000	0.108882
558.000000	0.109084
557.000000	0.109298
556.000000	0.109542
555.000000	0.109788
554.000000	0.110013
553.000000	0.110269
552.000000	0.110604
551.000000	0.110963
550.000000	0.111262
549.000000	0.111523
548.000000	0.111845
547.000000	0.112256
546.000000	0.112694
545.000000	0.113113
544.000000	0.113506
543.000000	0.113862
542.000000	0.114194
541.000000	0.114578
540.000000	0.115075
539.000000	0.115620
538.000000	0.116100
537.000000	0.116496
536.000000	0.116873
535.000000	0.117248
534.000000	0.117587
533.000000	0.117901
532.000000	0.118221
531.000000	0.118515
530.000000	0.118718
529.000000	0.118856
528.000000	0.119026
527.000000	0.119297
526.000000	0.119664
525.000000	0.120083
524.000000	0.120474
523.000000	0.120724
522.000000	0.120787
521.000000	0.120741
520.000000	0.120691
519.000000	0.120658
518.000000	0.120649
517.000000	0.120727
516.000000	0.120910
515.000000	0.121086
514.000000	0.121149
513.000000	0.121137
512.000000	0.121137
511.000000	0.121155
510.000000	0.121168
509.000000	0.121212
508.000000	0.121306
507.000000	0.121334
506.000000	0.121167
505.000000	0.120849
504.000000	0.120538
503.000000	0.120315
502.000000	0.120154
501.000000	0.120018
500.000000	0.119892
499.000000	0.119741
498.000000	0.119546
497.000000	0.119342
496.000000	0.119149
495.000000	0.118933
494.000000	0.118690
493.000000	0.118490
492.000000	0.118371
491.000000	0.118260
490.000000	0.118069
489.000000	0.117794
488.000000	0.117471
487.000000	0.117119
486.000000	0.116788
485.000000	0.116553
484.000000	0.116390
483.000000	0.116161
482.000000	0.115817
481.000000	0.115480
480.000000	0.115268
479.000000	0.115142
478.000000	0.115030
477.000000	0.114957
476.000000	0.114945
475.000000	0.114904
474.000000	0.114789
473.000000	0.114735
472.000000	0.114863
471.000000	0.115080
470.000000	0.115240
469.000000	0.115402
468.000000	0.115700
467.000000	0.116056
466.000000	0.116245
465.000000	0.116178
464.000000	0.115954
463.000000	0.115687
462.000000	0.115430
461.000000	0.115199
460.000000	0.114987
459.000000	0.114820
458.000000	0.114812
457.000000	0.115049
456.000000	0.115399
455.000000	0.115580
454.000000	0.115514
453.000000	0.115410
452.000000	0.115411
451.000000	0.115341
450.000000	0.114979
449.000000	0.114376
448.000000	0.113715
447.000000	0.113081
446.000000	0.112547
445.000000	0.112305
444.000000	0.112473
443.000000	0.112842
442.000000	0.113034
441.000000	0.112895
440.000000	0.112480
439.000000	0.111823
438.000000	0.111002
437.000000	0.110272
436.000000	0.109880
435.000000	0.109764
434.000000	0.109657
433.000000	0.109435
432.000000	0.109165
431.000000	0.108891
430.000000	0.108580
429.000000	0.108230
428.000000	0.107836
427.000000	0.107303
426.000000	0.106570
425.000000	0.105817
424.000000	0.105302
423.000000	0.104968
422.000000	0.104466
421.000000	0.103621
420.000000	0.102688
419.000000	0.102086
418.000000	0.101985
417.000000	0.102254
416.000000	0.102503
415.000000	0.102367
414.000000	0.101856
413.000000	0.101337
412.000000	0.101122
411.000000	0.101107
410.000000	0.100887
409.000000	0.100233
408.000000	0.099318
407.000000	0.098526
406.000000	0.098132
405.000000	0.098101
404.000000	0.098062
403.000000	0.097596
402.000000	0.096593
401.000000	0.095357
400.000000	0.094204
