##TITLE= Sample 132 By YargerLab Date Wednesday, June 05 2024
##JCAMP-DX= 4.24
##DATA TYPE= INFRARED SPECTRUM
##ORIGIN= Exported PE Spectrum Data File
##OWNER= Yarger Lab
##DATE= 24/06/05
##TIME= 13:05:33.00
##SPECTROMETER/DATA SYSTEM= PERKIN-ELMER Spectrum Two IR
##INSTRUMENT PARAMETERS=
  APODIZATION=Strong
  DETECTOR=LiTa03
##RESOLUTION= 4.000000
##DELTAX= -1.000000
##XUNITS= 1/CM
##YUNITS= A
##XFACTOR= 1.00
##YFACTOR= 0.00000000023841857910
##FIRSTX= 4000.00
##LASTX= 400.00
##NPOINTS= 3601
##FIRSTY= 0.005924
##MAXY= 0.067065
##MINY= 0.002884
##XYDATA= (X++(Y..Y))
  4000.000000   024847875   024848883   024822793   024807736   024810543  
  3995.000000   024837851   024880233   024927548   024965663   024983253  
  3990.000000   024979171   024958628   024923835   024878507   024837466  
  3985.000000   024820413   024830326   024851265   024868921   024883376  
  3980.000000   024904509   024935438   024962461   024965590   024936387  
  3975.000000   024885593   024828931   024777872   024743538   024730760  
  3970.000000   024739637   024770042   024816843   024870249   024923255  
  3965.000000   024969600   025002539   025017960   025012082   024991960  
  3960.000000   024977982   024972651   024959973   024935675   024911999  
  3955.000000   024899417   024895339   024902559   024941592   025034507  
  3950.000000   025197887   025416339   025617985   025715357   025670856  
  3945.000000   025498570   025244221   025005579   024887832   024916191  
  3940.000000   025023403   025106022   025117568   025119543   025213305  
  3935.000000   025422940   025637515   025724686   025652002   025501046  
  3930.000000   025377131   025296510   025218114   025114380   024984454  
  3925.000000   024891006   024945788   025187192   025526703   025812315  
  3920.000000   025969347   026034638   026024414   025892509   025642566  
  3915.000000   025387311   025214689   025102312   025006968   024926005  
  3910.000000   024884648   024879610   024891687   024961183   025199843  
  3905.000000   025695038   026417635   027145028   027576014   027559632  
  3900.000000   027145662   026599790   026209241   026037583   025966158  
  3895.000000   025841013   025611630   025388108   025318332   025421499  
  3890.000000   025636801   025977385   026420585   026695362   026576484  
  3885.000000   026247547   026102018   026229078   026363270   026315143  
  3880.000000   026181188   026125990   026194455   026303334   026265026  
  3875.000000   025985102   025663419   025685597   026146396   026653882  
  3870.000000   026798295   026671733   026687521   026994345   027212251  
  3865.000000   027006609   026647911   026562602   026763079   026944806  
  3860.000000   026848954   026340975   025459211   024460680   023794435  
  3855.000000   023672658   024081507   024871765   025668683   026231894  
  3850.000000   026597839   026731213   026681369   026568266   026456641  
  3845.000000   026380298   026392316   026494912   026677018   026880398  
  3840.000000   026988127   026976888   026904531   026810876   026724641  
  3835.000000   026685195   026714456   026740812   026673407   026542388  
  3830.000000   026441702   026392204   026341510   026224383   026099574  
  3825.000000   026186992   026608934   027070077   027121231   026790807  
  3820.000000   026552508   026618078   026867582   026910073   026506693  
  3815.000000   025930766   025594005   025544929   025510712   025337142  
  3810.000000   025160872   025198321   025428298   025675328   025914795  
  3805.000000   026265436   026710285   026930193   026663278   026215191  
  3800.000000   026057666   026234897   026425515   026323994   025927267  
  3795.000000   025473003   025142089   024905870   024671754   024437000  
  3790.000000   024278653   024229283   024246641   024281514   024329865  
  3785.000000   024404973   024530948   024730498   024950839   025052246  
  3780.000000   024960215   024801715   024729171   024774254   024840610  
  3775.000000   024822130   024733654   024726344   024887669   025092191  
  3770.000000   025244572   025413263   025643742   025844999   025878237  
  3765.000000   025729872   025594973   025665781   025874420   025946601  
  3760.000000   025834550   025809745   025991317   026215600   026395327  
  3755.000000   026635384   026991836   027332461   027624645   028056697  
  3750.000000   028524480   028630259   028387112   028233107   028298104  
  3745.000000   028238231   027881271   027602878   027764892   028218794  
  3740.000000   028624983   028909993   029133941   029144334   028767713  
  3735.000000   028260669   027973502   027788660   027399814   026817251  
  3730.000000   026337487   026176907   026205572   026127865   025885550  
  3725.000000   025676645   025554387   025391985   025158806   024928184  
  3720.000000   024757931   024675757   024637357   024626170   024717400  
  3715.000000   024986474   025338103   025534034   025540020   025525530  
  3710.000000   025537657   025475789   025257534   024923030   024584926  
  3705.000000   024330246   024133908   023900057   023646518   023467476  
  3700.000000   023403711   023451787   023535697   023544213   023509581  
  3695.000000   023587472   023811916   024004035   024029376   024032700  
  3690.000000   024290061   024771329   025093061   025067115   024930928  
  3685.000000   024862576   024850023   024855187   024896099   024969105  
  3680.000000   025037866   025240135   025803614   026499582   026818852  
  3675.000000   026765512   026745957   027009767   027382484   027319209  
  3670.000000   026740778   026181056   025923067   025797636   025643549  
  3665.000000   025413657   025169246   024996633   024913697   024913486  
  3660.000000   025009464   025233624   025547050   025845220   026096615  
  3655.000000   026403313   026932378   027715019   028520564   029042949  
  3650.000000   029360725   029671931   029774311   029436317   028846235  
  3645.000000   028287548   027830161   027402096   026976106   026662904  
  3640.000000   026548077   026583795   026695604   026893063   027191690  
  3635.000000   027471388   027617562   027739852   028090207   028694240  
  3630.000000   029201998   029436445   029600558   029762449   029880626  
  3625.000000   029904537   029795299   029614957   029474950   029375416  
  3620.000000   029337295   029528507   030010423   030606403   031144294  
  3615.000000   031476092   031572124   031605324   031782330   032121848  
  3610.000000   032399703   032345733   031996761   031645080   031478766  
  3605.000000   031462680   031465833   031430214   031418923   031482844  
  3600.000000   031634676   031862494   032095722   032259738   032349468  
  3595.000000   032420949   032567520   032849469   033257955   033750299  
  3590.000000   034187963   034373512   034297226   034222586   034289147  
  3585.000000   034393658   034411793   034327631   034189961   034060481  
  3580.000000   033985744   033987669   034059778   034173256   034319836  
  3575.000000   034514741   034777662   035126189   035571253   036129285  
  3570.000000   036772962   037334148   037643627   037760996   037874849  
  3565.000000   038029047   038163280   038204057   038138788   038027606  
  3560.000000   037950806   037953970   038032118   038157277   038307100  
  3555.000000   038473485   038655914   038880352   039191412   039611384  
  3550.000000   040121858   040644533   041065242   041313660   041415767  
  3545.000000   041448756   041468041   041487884   041506257   041524034  
  3540.000000   041539369   041563423   041613590   041715091   041889523  
  3535.000000   042135109   042430178   042731914   043002802   043231251  
  3530.000000   043454058   043724676   044066402   044452225   044812626  
  3525.000000   045062445   045155842   045137532   045109158   045141578  
  3520.000000   045230767   045355386   045521910   045743180   045996082  
  3515.000000   046225003   046403343   046552447   046699597   046855020  
  3510.000000   047042015   047292478   047605957   047932996   048213416  
  3505.000000   048419563   048584001   048768980   049006177   049267457  
  3500.000000   049492034   049642253   049725342   049786172   049875405  
  3495.000000   050017437   050200636   050394663   050578494   050756129  
  3490.000000   050956791   051199539   051470756   051742337   051991774  
  3485.000000   052207555   052390195   052561139   052759769   052997497  
  3480.000000   053235765   053423295   053549218   053642896   053742570  
  3475.000000   053881362   054074870   054315224   054576477   054833902  
  3470.000000   055079199   055309747   055516593   055699456   055874010  
  3465.000000   056053558   056235023   056417854   056616981   056833849  
  3460.000000   057036755   057192458   057309263   057432708   057589308  
  3455.000000   057764171   057938134   058114890   058317597   058554466  
  3450.000000   058808283   059052956   059282580   059521747   059788582  
  3445.000000   060059600   060287809   060456917   060610415   060810652  
  3440.000000   061075930   061367353   061638664   061877670   062092022  
  3435.000000   062288525   062482131   062692263   062926999   063165377  
  3430.000000   063379552   063564723   063739063   063925509   064138690  
  3425.000000   064381991   064641628   064890404   065111019   065314128  
  3420.000000   065522963   065744221   065973721   066214963   066478635  
  3415.000000   066767271   067070666   067373788   067662432   067925924  
  3410.000000   068161288   068371210   068557551   068728838   068910140  
  3405.000000   069134895   069415854   069734133   070060504   070371924  
  3400.000000   070650683   070885707   071091335   071302721   071538573  
  3395.000000   071782790   072013785   072238315   072477339   072732481  
  3390.000000   072984716   073219794   073440670   073659673   073889874  
  3385.000000   074144768   074436344   074766813   075125759   075492549  
  3380.000000   075847997   076184337   076507751   076825330   077133541  
  3375.000000   077428374   077724379   078053198   078438074   078874993  
  3370.000000   079337254   079795969   080234486   080651855   081055593  
  3365.000000   081450553   081836920   082218794   082606511   083003028  
  3360.000000   083394496   083764461   084118156   084482704   084881624  
  3355.000000   085312623   085750468   086169437   086563962   086952582  
  3350.000000   087360164   087794099   088237295   088672415   089105540  
  3345.000000   089558762   090047153   090564873   091093821   091617211  
  3340.000000   092127909   092630295   093133403   093637963   094132230  
  3335.000000   094605907   095065771   095531665   096019302   096530642  
  3330.000000   097058272   097593685   098134225   098687943   099264956  
  3325.000000   099859774   100451669   101026313   101591744   102164079  
  3320.000000   102746485   103334152   103931322   104545344   105170145  
  3315.000000   105786442   106378076   106937229   107457200   107934690  
  3310.000000   108380808   108820571   109283584   109801564   110402474  
  3305.000000   111084857   111799483   112476651   113076491   113606127  
  3300.000000   114091773   114551568   114998018   115439360   115870954  
  3295.000000   116277678   116660125   117047195   117466561   117908031  
  3290.000000   118326088   118676891   118946133   119147707   119306853  
  3285.000000   119442078   119559573   119655789   119722764   119755681  
  3280.000000   119752894   119717161   119654154   119561912   119424470  
  3275.000000   119219228   118938050   118602910   118256833   117936916  
  3270.000000   117645607   117343228   116977670   116526350   116007777  
  3265.000000   115451815   114872518   114270964   113648795   113011165  
  3260.000000   112357705   111689458   111018966   110361848   109724542  
  3255.000000   109108616   108514889   107931832   107330805   106687136  
  3250.000000   106010219   105335359   104688068   104070039   103475890  
  3245.000000   102906861   102365476   101843337   101323307   100792710  
  3240.000000   100249104   099699548   099152817   098615503   098097158  
  3235.000000   097616955   097188406   096794300   096398419   095982539  
  3230.000000   095564644   095168256   094789188   094408731   094025336  
  3225.000000   093653017   093298894   092956414   092619597   092292066  
  3220.000000   091980694   091689501   091415223   091146832   090872710  
  3215.000000   090595494   090326577   090062166   089776965   089452048  
  3210.000000   089097476   088739165   088392659   088062494   087754004  
  3205.000000   087469156   087196819   086919243   086627489   086324969  
  3200.000000   086017159   085708468   085399931   085086166   084756661  
  3195.000000   084410929   084061045   083715895   083370303   083014450  
  3190.000000   082647347   082270560   081883308   081488170   081094084  
  3185.000000   080709179   080333101   079965620   079607275   079248949  
  3180.000000   078873801   078477509   078072608   077668541   077255971  
  3175.000000   076826563   076391651   075969824   075565489   075167490  
  3170.000000   074765658   074357233   073947969   073550900   073175086  
  3165.000000   072811060   072435331   072042471   071657929   071310733  
  3160.000000   071001868   070708656   070410577   070099852   069775648  
  3155.000000   069443019   069113609   068795873   068483994   068164622  
  3150.000000   067832858   067495083   067160041   066834597   066524598  
  3145.000000   066232211   065952608   065679694   065409551   065135384  
  3140.000000   064852543   064570761   064314299   064094545   063894486  
  3135.000000   063690204   063479577   063276480   063086159   062897975  
  3130.000000   062703169   062508360   062330935   062180024   062042438  
  3125.000000   061889988   061707167   061515802   061357903   061252829  
  3120.000000   061179957   061106232   061023754   060951737   060906464  
  3115.000000   060879711   060843783   060774485   060672237   060564160  
  3110.000000   060486288   060458911   060477339   060519636   060564702  
  3105.000000   060602558   060630887   060652436   060674332   060710305  
  3100.000000   060769931   060843791   060907355   060945090   060968014  
  3095.000000   061001581   061058403   061130191   061207160   061291875  
  3090.000000   061385216   061465065   061497709   061474982   061431156  
  3085.000000   061414923   061447886   061519015   061608627   061709191  
  3080.000000   061821740   061942591   062058687   062154611   062222642  
  3075.000000   062265453   062291483   062301632   062286853   062239472  
  3070.000000   062168817   062103371   062071448   062080765   062115442  
  3065.000000   062148657   062155904   062120275   062030525   061882942  
  3060.000000   061686081   061462829   061240096   061030138   060826297  
  3055.000000   060617073   060406690   060211652   060045481   059905616  
  3050.000000   059773636   059624165   059435958   059204103   058940633  
  3045.000000   058661689   058380031   058112387   057881333   057700350  
  3040.000000   057553826   057406068   057227010   057010460   056776898  
  3035.000000   056560303   056383522   056236677   056085987   055906858  
  3030.000000   055699266   055469529   055215741   054942690   054673973  
  3025.000000   054433744   054218016   054000310   053763293   053516158  
  3020.000000   053277820   053053330   052826766   052580182   052320796  
  3015.000000   052090579   051937965   051875400   051871179   051886591  
  3010.000000   051906155   051926828   051937756   051930424   051919723  
  3005.000000   051936488   051998928   052102341   052229107   052357741  
  3000.000000   052469959   052564918   052662334   052783067   052931310  
  2995.000000   053108948   053332284   053615257   053942597   054280654  
  2990.000000   054611903   054943561   055291675   055679011   056143879  
  2985.000000   056717078   057375251   058030988   058584498   058988463  
  2980.000000   059268598   059495008   059732410   060007081   060309144  
  2975.000000   060623160   060946758   061276031   061587049   061850041  
  2970.000000   062058465   062229717   062379025   062507288   062611122  
  2965.000000   062687693   062727194   062713109   062635287   062494689  
  2960.000000   062296681   062048304   061758858   061432439   061060770  
  2955.000000   060633859   060159935   059667255   059188212   058747793  
  2950.000000   058365404   058057209   057835316   057708333   057679137  
  2945.000000   057739089   057867871   058045959   058259676   058490653  
  2940.000000   058712357   058907530   059081044   059240125   059371093  
  2935.000000   059450743   059475985   059464533   059423675   059334239  
  2930.000000   059168548   058918011   058601260   058251749   057895658  
  2925.000000   057532382   057137864   056692701   056207409   055716087  
  2920.000000   055250471   054823981   054433556   054069647   053730769  
  2915.000000   053435980   053215077   053076089   052985610   052890928  
  2910.000000   052759893   052592395   052405962   052216194   052029646  
  2905.000000   051841411   051644747   051448471   051285666   051166072  
  2900.000000   051093914   051046734   051000606   050940844   050866626  
  2895.000000   050796060   050757979   050766966   050811172   050870317  
  2890.000000   050937058   051013334   051098996   051198872   051332631  
  2885.000000   051520402   051758568   052019711   052274557   052506576  
  2880.000000   052709582   052878772   053002990   053063818   053048569  
  2875.000000   052965317   052830334   052636139   052350609   051962077  
  2870.000000   051509931   051054050   050622845   050207437   049796688  
  2865.000000   049397157   049023191   048685571   048387081   048113419  
  2860.000000   047830792   047506944   047134775   046725161   046284206  
  2855.000000   045813484   045329448   044868559   044472219   044174333  
  2850.000000   043993323   043919300   043912407   043927850   043943347  
  2845.000000   043956720   043965889   043964867   043953621   043935755  
  2840.000000   043909065   043870230   043825873   043787204   043755666  
  2835.000000   043723190   043683294   043632556   043566537   043485799  
  2830.000000   043402855   043332710   043279265   043238703   043210776  
  2825.000000   043196905   043191179   043182550   043162973   043128557  
  2820.000000   043079637   043025331   042977874   042935846   042884519  
  2815.000000   042821652   042768165   042740544   042726075   042699419  
  2810.000000   042651552   042586695   042505390   042411497   042325068  
  2805.000000   042264596   042221265   042170518   042105759   042041497  
  2800.000000   041987989   041941796   041897951   041852893   041797532  
  2795.000000   041725629   041647292   041577327   041512729   041438017  
  2790.000000   041349137   041254383   041156336   041054719   040965151  
  2785.000000   040910461   040888335   040866488   040818292   040748689  
  2780.000000   040680406   040628011   040590277   040555250   040507428  
  2775.000000   040438398   040354068   040266109   040179336   040095672  
  2770.000000   040023388   039968087   039919250   039862050   039799726  
  2765.000000   039746776   039701340   039644164   039568408   039491861  
  2760.000000   039432119   039384046   039330456   039265019   039196735  
  2755.000000   039137710   039091073   039047756   038995394   038933672  
  2750.000000   038875852   038827856   038773997   038695735   038598938  
  2745.000000   038507583   038434428   038374218   038323677   038288531  
  2740.000000   038266506   038239612   038191615   038123939   038049563  
  2735.000000   037978747   037913350   037848600   037779451   037711275  
  2730.000000   037661459   037641471   037639076   037626979   037587977  
  2725.000000   037524408   037448479   037373668   037309646   037251652  
  2720.000000   037178791   037077577   036965549   036876958   036824839  
  2715.000000   036790426   036749360   036694602   036633274   036575522  
  2710.000000   036529005   036492169   036450613   036390472   036316384  
  2705.000000   036246645   036192337   036152389   036125612   036111521  
  2700.000000   036099152   036072271   036030783   035992901   035970540  
  2695.000000   035953862   035925009   035877448   035817696   035758349  
  2690.000000   035714218   035695632   035698128   035703048   035691609  
  2685.000000   035655776   035598271   035531031   035473735   035443379  
  2680.000000   035440064   035446930   035445402   035427541   035396601  
  2675.000000   035362350   035334244   035312951   035290186   035262525  
  2670.000000   035242566   035250044   035296893   035387056   035522955  
  2665.000000   035700137   035897944   036088322   036254094   036392063  
  2660.000000   036503418   036591441   036664233   036727500   036776223  
  2655.000000   036803002   036812102   036813646   036807408   036786135  
  2650.000000   036751434   036713446   036676759   036640875   036612545  
  2645.000000   036599630   036591617   036563673   036506355   036438761  
  2640.000000   036387113   036359808   036346445   036330592   036299509  
  2635.000000   036250022   036188729   036122663   036052126   035978678  
  2630.000000   035913078   035863422   035820254   035766744   035699966  
  2625.000000   035629959   035562747   035499297   035445803   035407043  
  2620.000000   035372348   035325213   035265243   035203502   035139767  
  2615.000000   035063892   034978872   034901854   034839225   034778484  
  2610.000000   034707734   034628195   034546749   034471790   034415186  
  2605.000000   034379665   034343461   034276651   034176168   034068422  
  2600.000000   033975413   033896155   033823364   033758834   033704674  
  2595.000000   033654780   033603729   033554086   033509673   033468495  
  2590.000000   033424471   033371805   033310694   033253071   033213164  
  2585.000000   033184471   033139808   033067829   032994526   032949623  
  2580.000000   032924561   032886600   032822922   032745885   032663491  
  2575.000000   032573001   032478940   032390479   032303702   032213346  
  2570.000000   032139243   032111412   032124851   032135440   032108882  
  2565.000000   032052972   031997762   031961543   031940767   031917647  
  2560.000000   031875785   031819863   031774795   031749707   031712359  
  2555.000000   031623111   031490121   031368116   031303011   031299340  
  2550.000000   031335788   031386082   031423865   031432955   031419325  
  2545.000000   031396528   031360558   031297800   031214501   031135343  
  2540.000000   031073602   031024399   030985832   030961888   030941779  
  2535.000000   030900823   030830066   030747895   030677839   030630162  
  2530.000000   030606890   030606816   030619626   030628046   030620205  
  2525.000000   030592585   030543838   030477893   030410779   030362539  
  2520.000000   030340879   030337202   030331849   030301293   030236533  
  2515.000000   030164711   030132831   030154759   030190165   030192858  
  2510.000000   030159688   030111367   030051509   029977847   029917167  
  2505.000000   029907322   029945670   029988571   030002395   029989243  
  2500.000000   029962592   029926764   029886099   029850410   029823520  
  2495.000000   029800318   029778088   029757889   029736230   029707392  
  2490.000000   029670986   029627056   029571098   029505633   029447589  
  2485.000000   029411292   029393592   029387055   029395091   029419935  
  2480.000000   029449754   029470681   029477170   029460326   029410154  
  2475.000000   029345941   029316564   029343261   029383110   029379000  
  2470.000000   029325493   029259848   029210023   029185880   029200948  
  2465.000000   029260049   029333825   029383953   029411931   029451035  
  2460.000000   029516471   029592400   029662291   029718987   029749475  
  2455.000000   029741806   029706992   029666648   029619622   029548435  
  2450.000000   029455170   029363817   029286785   029214639   029139799  
  2445.000000   029067733   029003996   028947718   028895489   028838235  
  2440.000000   028764064   028678212   028603690   028545009   028474001  
  2435.000000   028376452   028288023   028249179   028245656   028231649  
  2430.000000   028195077   028156526   028116060   028050556   027962777  
  2425.000000   027888500   027846761   027818778   027781959   027734420  
  2420.000000   027681166   027626035   027581950   027561805   027554686  
  2415.000000   027537516   027514179   027515347   027550545   027580751  
  2410.000000   027549146   027427639   027235604   027027687   026862738  
  2405.000000   026769052   026736128   026740494   026765049   026786376  
  2400.000000   026770620   026709720   026643661   026617136   026622354  
  2395.000000   026611013   026553006   026459074   026355769   026265720  
  2390.000000   026204134   026166413   026120746   026034389   025903646  
  2385.000000   025739283   025540438   025310830   025087513   024922283  
  2380.000000   024831151   024793269   024794860   024839255   024913841  
  2375.000000   024977223   024996155   024971569   024922410   024862879  
  2370.000000   024800498   024741368   024694883   024685469   024735859  
  2365.000000   024829932   024915112   024962235   025004278   025065219  
  2360.000000   025103202   025087464   025055316   025090731   025190094  
  2355.000000   025265749   025235178   025104032   024953320   024876674  
  2350.000000   025008842   025462877   026195083   026942274   027347089  
  2345.000000   027278707   026946217   026650045   026518735   026552389  
  2340.000000   026678772   026778077   026777580   026694008   026601952  
  2335.000000   026544158   026525980   026499267   026425318   026328876  
  2330.000000   026436167   027059815   028338398   029987983   031418796  
  2325.000000   032112912   031948532   031227051   030393747   029719124  
  2320.000000   029237818   028873727   028598817   028406906   028270299  
  2315.000000   028114442   027899434   027641209   027402770   027234683  
  2310.000000   027165252   027186536   027272138   027395535   027548450  
  2305.000000   027718834   027874697   027982174   028056018   028143328  
  2300.000000   028283849   028475740   028708347   028969338   029239655  
  2295.000000   029490609   029718819   029957387   030243150   030576330  
  2290.000000   030909626   031170070   031289370   031242273   031062649  
  2285.000000   030823881   030590915   030395288   030235335   030086687  
  2280.000000   029917338   029719788   029527286   029381035   029286572  
  2275.000000   029214890   029141601   029060966   028969536   028852811  
  2270.000000   028689648   028465024   028192787   027929051   027738024  
  2265.000000   027631747   027576100   027568231   027658679   027859880  
  2260.000000   028068318   028127549   027951796   027573167   027109858  
  2255.000000   026718996   026532275   026570280   026737099   026931354  
  2250.000000   027128885   027323419   027468178   027507239   027463500  
  2245.000000   027394081   027304560   027173938   027033306   026946068  
  2240.000000   026930403   026965655   027047079   027160622   027233063  
  2235.000000   027192025   027067028   026960412   026927528   026946457  
  2230.000000   026983511   027014591   026997727   026899747   026744061  
  2225.000000   026574655   026394008   026201906   026065320   026063643  
  2220.000000   026171940   026273112   026285189   026220297   026139520  
  2215.000000   026104760   026151344   026245077   026294427   026259740  
  2210.000000   026209044   026203177   026186358   026078458   025926799  
  2205.000000   025864734   025945517   026112229   026302934   026489291  
  2200.000000   026632711   026701090   026723358   026756180   026809385  
  2195.000000   026861406   026912582   026957519   026953892   026894119  
  2190.000000   026858342   026913437   026997593   026970332   026715096  
  2185.000000   026149853   025280850   024373929   023917376   024169366  
  2180.000000   024780538   025084942   024752579   024043071   023471759  
  2175.000000   023379823   023816052   024624446   025571714   026494777  
  2170.000000   027357769   028128132   028684977   028989424   029295168  
  2165.000000   029936183   030768902   030905304   029188198   025156142  
  2160.000000   019774270   015015632   012423091   012096752   013057025  
  2155.000000   014307861   015391896   016215966   016762012   017066843  
  2150.000000   017245828   017369337   017400661   017351794   017378135  
  2145.000000   017603659   017948236   018241298   018418999   018509170  
  2140.000000   018498559   018306329   017849233   017106669   016211914  
  2135.000000   015506776   015364917   015867768   016739171   017638520  
  2130.000000   018405834   019009496   019435167   019738062   020078038  
  2125.000000   020566314   021133628   021646234   022083056   022508187  
  2120.000000   022941937   023364895   023792677   024234308   024616351  
  2115.000000   024850464   024948587   024980977   024958824   024851635  
  2110.000000   024695559   024578146   024527812   024509485   024509339  
  2105.000000   024532181   024535209   024461631   024329809   024194464  
  2100.000000   024026322   023723926   023256186   022734493   022334633  
  2095.000000   022191198   022341485   022706215   023138279   023540132  
  2090.000000   023910606   024252502   024503396   024618721   024666298  
  2085.000000   024757715   024914000   025061944   025130358   025091190  
  2080.000000   024952515   024780559   024680334   024689021   024724232  
  2075.000000   024705771   024663001   024646203   024605245   024458383  
  2070.000000   024239118   024067034   024004964   024022152   024050426  
  2065.000000   024000273   023799060   023494740   023258387   023227035  
  2060.000000   023392761   023665641   023939360   024085517   024106109  
  2055.000000   024364048   025361539   027039137   028513247   028794675  
  2050.000000   027740782   026133997   024817925   024050488   023711249  
  2045.000000   023651650   023705485   023715023   023688516   023741841  
  2040.000000   023867151   023944929   023944326   023884233   023638739  
  2035.000000   023043990   022178609   021280601   020439519   019658257  
  2030.000000   019130302   019091751   019418688   019710803   019771027  
  2025.000000   019713739   019674772   019689607   019814960   020049944  
  2020.000000   020179228   019990072   019607153   019351897   019314433  
  2015.000000   019331577   019353912   019542035   019953901   020364789  
  2010.000000   020424500   019870645   018704953   017321758   016360137  
  2005.000000   016207187   016700519   017414321   018118670   018803782  
  2000.000000   019422107   019863910   020101013   020219143   020303486  
  1995.000000   020432667   020714674   021157008   021577450   021819197  
  1990.000000   021925415   021986140   021983242   021969461   022230717  
  1985.000000   023016902   024223569   025503970   026481337   026638646  
  1980.000000   025359339   022621053   019498103   017365184   016564446  
  1975.000000   016471599   016586670   016841741   017108642   017150459  
  1970.000000   017019414   016963425   016969200   016855826   016717585  
  1965.000000   016791329   016948410   016795757   016265065   015675814  
  1960.000000   015259352   015029627   015066391   015477580   016090680  
  1955.000000   016576884   016860219   017089563   017276596   017272322  
  1950.000000   017093638   016936791   016891642   016902645   016983935  
  1945.000000   017204515   017472674   017602865   017591192   017596432  
  1940.000000   017650787   017620804   017479623   017351230   017264949  
  1935.000000   017144185   017024504   017035125   017183414   017345097  
  1930.000000   017477623   017614332   017727739   017752387   017722438  
  1925.000000   017785785   017974075   018219240   018500718   018861679  
  1920.000000   019234211   019398050   019232332   018929380   018785220  
  1915.000000   018850352   018944533   018946800   018887679   018821252  
  1910.000000   018753214   018672983   018606671   018560360   018484984  
  1905.000000   018411043   018423812   018559469   018737638   018850970  
  1900.000000   018871728   018842956   018811125   018812987   018844856  
  1895.000000   018869912   018840658   018768349   018703867   018643056  
  1890.000000   018537751   018407655   018382189   018528883   018726415  
  1885.000000   018817265   018795551   018753903   018733625   018703509  
  1880.000000   018647470   018586806   018532855   018493499   018480491  
  1875.000000   018492011   018507727   018524160   018570975   018663284  
  1870.000000   018738708   018699493   018590250   018593581   018718813  
  1865.000000   018802325   018765699   018692644   018671107   018667067  
  1860.000000   018615067   018535129   018464101   018401344   018350447  
  1855.000000   018305291   018242469   018156431   018096506   018142329  
  1850.000000   018238348   018295852   018325530   018432179   018609920  
  1845.000000   018678775   018507929   018258600   018228808   018477550  
  1840.000000   018734304   018742018   018572167   018484094   018516984  
  1835.000000   018521299   018461335   018423724   018379269   018233750  
  1830.000000   018021390   017918252   018042975   018314047   018523867  
  1825.000000   018523243   018374438   018300860   018383049   018414220  
  1820.000000   018167598   017727844   017362699   017202951   017195849  
  1815.000000   017353565   017708279   018093753   018301716   018372546  
  1810.000000   018494433   018622320   018629387   018575986   018560659  
  1805.000000   018556333   018510519   018507258   018655040   018827253  
  1800.000000   018896877   018952788   019080223   019181037   019218611  
  1795.000000   019333981   019578258   019712569   019500425   019147448  
  1790.000000   019008288   019094594   019224263   019297387   019305056  
  1785.000000   019220035   019040157   018912357   018977161   019114897  
  1780.000000   019172100   019113926   019065189   019098355   019193003  
  1775.000000   019329309   019451120   019468876   019223089   018865628  
  1770.000000   018908652   019419175   019756796   019541778   019191965  
  1765.000000   019162245   019293674   019150073   018782058   018599635  
  1760.000000   018757822   019092524   019494657   019871582   020091233  
  1755.000000   020228751   020660261   021489042   022200625   022205577  
  1750.000000   021732969   021582780   021766861   021773716   021533945  
  1745.000000   021312304   021041340   020441811   019754333   019424124  
  1740.000000   019265985   018807535   018500548   019075764   020350392  
  1735.000000   021290103   021219418   020749628   020787693   021263358  
  1730.000000   021687076   022011176   022367044   022726015   023064540  
  1725.000000   023535768   024127115   024490459   024594612   024875028  
  1720.000000   025613293   026620587   027626599   028238693   028532267  
  1715.000000   028966236   029619459   030450073   031521554   032746476  
  1710.000000   034036785   035440210   037114663   039256541   041837736  
  1705.000000   044611296   047454203   050745854   054921984   060375476  
  1700.000000   066441466   071993849   077091400   081872231   085756153  
  1695.000000   088583257   091088816   093982461   097395599   101052566  
  1690.000000   104859305   108794557   112686663   116495528   120338443  
  1685.000000   125026365   130487758   135175963   139133961   143414190  
  1680.000000   147881111   151958037   155634867   159611378   164513599  
  1675.000000   169984075   175179501   180000919   184883409   190094099  
  1670.000000   195927130   202369417   208782254   214460856   219489275  
  1665.000000   224606074   230554499   237392184   244337692   250704678  
  1660.000000   256464362   261411048   265260915   268119195   270508593  
  1655.000000   272505918   274811225   278018360   280545387   281290036  
  1650.000000   281223993   280720289   280092515   279304395   278059089  
  1645.000000   276462726   274876318   273304797   271551024   269520680  
  1640.000000   267470141   265602321   263744703   261658647   259511442  
  1635.000000   257394292   255463509   254004417   252912948   251744979  
  1630.000000   250239761   248636655   247377846   246434931   245458167  
  1625.000000   244306934   243194589   242143749   240899767   239531260  
  1620.000000   238231533   236711533   234329364   230960984   227289606  
  1615.000000   223802229   220307727   216545887   212392390   207837624  
  1610.000000   202889848   197689352   192519753   187497420   182560957  
  1605.000000   177677707   172967523   168446111   164012080   159714683  
  1600.000000   155725127   152072872   148609780   145239122   142041255  
  1595.000000   139083413   136258603   133488093   130877423   128508434  
  1590.000000   126286354   124156386   122266010   120707706   119372255  
  1585.000000   118153651   117114537   116359223   115697609   115018807  
  1580.000000   114551159   114604915   115092971   115822428   116652173  
  1575.000000   117278585   117753951   118405181   119295100   120537201  
  1570.000000   122443072   124905971   127487843   130020749   132650280  
  1565.000000   135412253   138091276   140522674   142621987   144792305  
  1560.000000   148975924   156909588   163870037   168401248   172871458  
  1555.000000   177955912   183304134   188304954   192923122   197582970  
  1550.000000   202444503   207093682   211019831   214270533   217154585  
  1545.000000   219816650   222191042   224393827   226817774   229799266  
  1540.000000   232839319   234739218   235350555   235449795   235433453  
  1535.000000   235413487   235661936   236164190   236697192   237185017  
  1530.000000   237494749   237446456   237184018   237053308   237182052  
  1525.000000   237280760   237240187   237339643   237870022   238469810  
  1520.000000   238657803   238695035   238936371   239161383   238876753  
  1515.000000   237944717   236471519   234239168   231137378   227714023  
  1510.000000   224650514   221867654   218570909   214477627   209952594  
  1505.000000   205807908   202330353   199213653   195935149   192230994  
  1500.000000   188215560   184336580   180782338   177093156   172788039  
  1495.000000   168336459   164387786   160845301   157190266   153182111  
  1490.000000   149118806   145239570   141649629   138506796   135715808  
  1485.000000   133149096   130819240   128754764   126909768   125288186  
  1480.000000   123919097   122834241   121988137   121403039   121209465  
  1475.000000   121621408   122640700   123915570   124806228   125190582  
  1470.000000   125419336   125580864   125526761   125348225   125461768  
  1465.000000   126060294   126916720   127734536   128455158   129064358  
  1460.000000   129641708   130447243   132065623   134441112   136219509  
  1455.000000   136989328   137466716   137826049   137828305   137411367  
  1450.000000   136859716   136336816   135663066   134767699   133912438  
  1445.000000   133145724   132332937   131328491   130192368   129081998  
  1440.000000   127991170   126760054   125347493   124006348   122825203  
  1435.000000   121814185   121062494   120406540   119607637   118694950  
  1430.000000   117965869   117607886   117440313   117290577   117284892  
  1425.000000   117612973   118166591   118569506   118783238   119058808  
  1420.000000   119544280   120223431   121134575   122225397   123160574  
  1415.000000   123679687   123924515   124250689   124702503   125017914  
  1410.000000   125156713   125291859   125380943   125277267   125075834  
  1405.000000   124979627   124906101   124623103   124229236   123992023  
  1400.000000   123970172   123979686   123937924   123984810   124111624  
  1395.000000   124136891   124141219   124395288   124809308   125068853  
  1390.000000   125095273   125102324   125248086   125375981   125315479  
  1385.000000   125118732   124815270   124306140   123591841   122850876  
  1380.000000   122202475   121569578   120853741   120135999   119537580  
  1375.000000   119053178   118627383   118310714   118159443   118023187  
  1370.000000   117689413   117141106   116449848   115588180   114523798  
  1365.000000   113349357   112245184   111316296   110533184   109887283  
  1360.000000   109411981   109047898   108678432   108302666   108011476  
  1355.000000   107839144   107743330   107695509   107725673   107848071  
  1350.000000   108001034   108183939   108462158   108815290   109159896  
  1345.000000   109481518   109825906   110190479   110544910   110945807  
  1340.000000   111457284   111980698   112386202   112699747   112995677  
  1335.000000   113242016   113365899   113398201   113429854   113472712  
  1330.000000   113485796   113507878   113611531   113757670   113849821  
  1325.000000   113910522   114018110   114158897   114298859   114499579  
  1320.000000   114811677   115148244   115405539   115614586   115845774  
  1315.000000   116065513   116223675   116374373   116581544   116800520  
  1310.000000   116968831   117121242   117311326   117490692   117579141  
  1305.000000   117608166   117640739   117650460   117587415   117483969  
  1300.000000   117386915   117274899   117133244   117021695   116979824  
  1295.000000   116943306   116854859   116766003   116738480   116738116  
  1290.000000   116714141   116693400   116711667   116736057   116740961  
  1285.000000   116767673   116834585   116885388   116896813   116941906  
  1280.000000   117071129   117220035   117329626   117451369   117647738  
  1275.000000   117884873   118120975   118402719   118768939   119154897  
  1270.000000   119494895   119828107   120195509   120539355   120822140  
  1265.000000   121123767   121518435   121961866   122397666   122866488  
  1260.000000   123410715   123977328   124538827   125171342   125912648  
  1255.000000   126668157   127360429   128049569   128798243   129541999  
  1250.000000   130206248   130832021   131466977   132054420   132554374  
  1245.000000   133037955   133549151   133995706   134294079   134503131  
  1240.000000   134701639   134852353   134889198   134830859   134711179  
  1235.000000   134497477   134176743   133811263   133425998   132954432  
  1230.000000   132367392   131736804   131097989   130382192   129560501  
  1225.000000   128721219   127925623   127111572   126221494   125304107  
  1220.000000   124403248   123470784   122476111   121480911   120518850  
  1215.000000   119518949   118437927   117354750   116345497   115374113  
  1210.000000   114382684   113384017   112395750   111391981   110384370  
  1205.000000   109442923   108572722   107675261   106697373   105711285  
  1200.000000   104787772   103904719   103048112   102282395   101638513  
  1195.000000   101046260   100449781   099887231   099390648   098914377  
  1190.000000   098438937   098029944   097713069   097408048   097067084  
  1185.000000   096769181   096597907   096529863   096532834   096663953  
  1180.000000   096982214   097460273   098062574   098824970   099757565  
  1175.000000   100760396   101720840   102611771   103421172   104088652  
  1170.000000   104598490   105028716   105432383   105767675   106016891  
  1165.000000   106252327   106497261   106652861   106643585   106523139  
  1160.000000   106357717   106118689   105780971   105398815   104996101  
  1155.000000   104507911   103911895   103296563   102709266   102068269  
  1150.000000   101319482   100550038   099853221   099203972   098565505  
  1145.000000   097991866   097527334   097119098   096733188   096440815  
  1140.000000   096281416   096163407   096005080   095864788   095828505  
  1135.000000   095874275   095952633   096087024   096287150   096471280  
  1130.000000   096578207   096656389   096744992   096779821   096712634  
  1125.000000   096609976   096533443   096436293   096281602   096138898  
  1120.000000   096057090   095954456   095750165   095498743   095292313  
  1115.000000   095136548   095021094   094999084   095090354   095216696  
  1110.000000   095334237   095524797   095844940   096223040   096588240  
  1105.000000   096970386   097376241   097707101   097909044   098090102  
  1100.000000   098314406   098555929   098778847   099060327   099468239  
  1095.000000   099957668   100494183   101147354   101951171   102811280  
  1090.000000   103664454   104593673   105684201   106894924   108176836  
  1085.000000   109565094   111040441   112459128   113737593   114962443  
  1080.000000   116202578   117380408   118432704   119426421   120387543  
  1075.000000   121194990   121782765   122264576   122736106   123127913  
  1070.000000   123381136   123588322   123820073   123990852   124035376  
  1065.000000   124039681   124068617   124024467   123812740   123487906  
  1060.000000   123115900   122670888   122177494   121774680   121508134  
  1055.000000   121229018   120818655   120348299   119894451   119384399  
  1050.000000   118759850   118110034   117492608   116803363   115963626  
  1045.000000   115050868   114130589   113128669   111995328   110832022  
  1040.000000   109740622   108700450   107703855   106849332   106178386  
  1035.000000   105570571   104915032   104246332   103605167   102921232  
  1030.000000   102142752   101334135   100534542   099672316   098723270  
  1025.000000   097801126   096979152   096173359   095312244   094472409  
  1020.000000   093732987   093034151   092294555   091530049   090757498  
  1015.000000   089921479   089026448   088197610   087507256   086868848  
  1010.000000   086197672   085534520   084914663   084272403   083584493  
  1005.000000   082966165   082498047   082089727   081628089   081142424  
  1000.000000   080703673   080284828   079841212   079421606   079078502  
   995.000000   078762096   078413183   078065460   077760588   077454347  
   990.000000   077108519   076782885   076543091   076360209   076183797  
   985.000000   076025018   075895736   075759494   075613325   075519058  
   980.000000   075487943   075445607   075369880   075347601   075423820  
   975.000000   075522422   075586529   075671410   075818144   075967841  
   970.000000   076085067   076237977   076466273   076693988   076865430  
   965.000000   077037101   077244459   077401013   077434926   077403628  
   960.000000   077380397   077340281   077252883   077171747   077133766  
   955.000000   077081548   076970130   076846831   076746578   076631271  
   950.000000   076503142   076450787   076496866   076535699   076504183  
   945.000000   076480325   076523089   076558630   076530293   076518848  
   940.000000   076600563   076707488   076750510   076763124   076814764  
   935.000000   076883145   076915215   076910986   076859996   076705507  
   930.000000   076459245   076236735   076095374   075959911   075776963  
   925.000000   075609825   075489216   075319955   075036834   074723665  
   920.000000   074470864   074243394   073990074   073752390   073562661  
   915.000000   073362297   073132708   072982716   072996852   073107083  
   910.000000   073218337   073337279   073481103   073587363   073627663  
   905.000000   073688080   073825116   073959111   074010512   074023168  
   900.000000   074038546   073989998   073805938   073545093   073301870  
   895.000000   073088010   072889751   072727615   072580329   072365781  
   890.000000   072072156   071786822   071540932   071270370   070993328  
   885.000000   070847864   070868340   070892963   070803823   070687725  
   880.000000   070650955   070645122   070599904   070567893   070601593  
   875.000000   070639139   070626905   070608759   070586523   070463760  
   870.000000   070237525   070078941   070098430   070187344   070202863  
   865.000000   070153827   070100644   070024408   069913245   069830438  
   860.000000   069794967   069737274   069666655   069718608   069942261  
   855.000000   070202692   070388779   070545814   070704727   070771718  
   850.000000   070703814   070619178   070610099   070619087   070605651  
   845.000000   070657004   070816110   070984882   071119477   071341161  
   840.000000   071728109   072172933   072573277   072986592   073477364  
   835.000000   073988170   074484179   075036303   075637872   076127305  
   830.000000   076427204   076665851   076931838   077115716   077145286  
   825.000000   077161752   077287155   077437332   077528280   077645629  
   820.000000   077847358   078034397   078172391   078426893   078916529  
   815.000000   079524214   080100669   080660063   081232217   081722204  
   810.000000   082078935   082412542   082791971   083113167   083308130  
   805.000000   083485229   083717360   083898565   083972815   084091810  
   800.000000   084377797   084735249   085060535   085430176   085909740  
   795.000000   086391152   086801367   087264144   087867797   088473250  
   790.000000   088941902   089368851   089907422   090534935   091158600  
   785.000000   091785069   092425373   093002327   093509904   094091006  
   780.000000   094808188   095513939   096090595   096631083   097235739  
   775.000000   097825413   098315655   098787893   099326882   099865181  
   770.000000   100343008   100839793   101399393   101907924   102294878  
   765.000000   102673704   103136121   103594748   103969020   104339066  
   760.000000   104771463   105184943   105530396   105915728   106415496  
   755.000000   106953342   107499301   108171006   108995059   109786570  
   750.000000   110410051   110945065   111461733   111864918   112113836  
   745.000000   112356329   112688012   112999086   113218360   113477031  
   740.000000   113871154   114290103   114644845   115044407   115574596  
   735.000000   116134692   116659613   117282532   118094625   118973121  
   730.000000   119813023   120708976   121733124   122769269   123747911  
   725.000000   124793915   125969243   127121724   128179336   129334332  
   720.000000   130738279   132239657   133647880   135020350   136475681  
   715.000000   137962449   139416779   140924123   142528216   144112950  
   710.000000   145639260   147272986   149105408   150989239   152813915  
   705.000000   154670573   156572810   158298716   159689952   160835521  
   700.000000   161811916   162499247   162839450   163008121   163153529  
   695.000000   163227900   163233836   163347964   163634683   163910061  
   690.000000   164078575   164322974   164778833   165323660   165859148  
   685.000000   166490627   167248092   167932951   168419817   168832302  
   680.000000   169270074   169658735   170017378   170568577   171371888  
   675.000000   172161617   172720647   173131908   173527886   173885592  
   670.000000   174269353   174970954   176228101   177216701   177417680  
   665.000000   177612887   178197545   178942444   179554317   180069363  
   660.000000   180609473   181058669   181325529   181620165   182097660  
   655.000000   182581369   182905546   183224310   183689437   184171658  
   650.000000   184570004   185054612   185729105   186386139   186896280  
   645.000000   187448689   188167883   188848374   189334358   189816181  
   640.000000   190460372   191129183   191739443   192494081   193456082  
   635.000000   194307982   194852380   195355606   196044463   196737618  
   630.000000   197240824   197703718   198267568   198763963   199092602  
   625.000000   199477181   200058846   200594716   200900577   201172968  
   620.000000   201538991   201757594   201697200   201655961   201864015  
   615.000000   202100999   202146175   202141743   202215044   202225606  
   610.000000   202138032   202208303   202507776   202697912   202614731  
   605.000000   202581953   202831790   203119712   203229965   203361311  
   600.000000   203692044   203989655   204090413   204240594   204589749  
   595.000000   204875950   204974369   205222912   205791531   206272029  
   590.000000   206377750   206459974   206864611   207377750   207745668  
   585.000000   208156687   208775201   209314439   209597994   209945079  
   580.000000   210577162   211177422   211556051   212036663   212703735  
   575.000000   213097628   213079716   213233703   213859877   214461616  
   570.000000   214696386   215028331   215811790   216595966   217019980  
   565.000000   217463495   218205858   218751902   218771655   218799423  
   560.000000   219309164   219935908   220277144   220615736   221196716  
   555.000000   221660771   221811840   222165986   223014714   223783562  
   550.000000   223952013   223887853   224072665   224313938   224383829  
   545.000000   224600858   225099035   225360602   225139838   224990805  
   540.000000   225319743   225730806   225894632   226112920   226519801  
   535.000000   226648035   226481112   226689812   227467753   228079776  
   530.000000   228120911   228265644   229094363   230087282   230549572  
   525.000000   230764711   231175965   231496082   231512592   231684711  
   520.000000   232263237   232675695   232520731   232262334   232169937  
   515.000000   231757002   230867806   230102228   229761080   229324240  
   510.000000   228572656   228127961   228401916   228730678   228418999  
   505.000000   227789585   227259879   226585376   225658497   225107039  
   500.000000   225248676   225428388   225213847   225090170   225399169  
   495.000000   225635234   225379576   225103112   225234405   225202503  
   490.000000   224594172   223993220   223939054   223997790   223740576  
   485.000000   223673970   224207257   224679283   224599111   224736823  
   480.000000   225627868   226351665   226133758   225716644   225882061  
   475.000000   226041813   225695490   225791593   227073081   228252102  
   470.000000   228264455   228050866   228508049   228888859   228572497  
   465.000000   228345135   228687240   228599790   227475065   226615449  
   460.000000   227115426   228105899   228501440   228810964   229387487  
   455.000000   229159026   227730675   226331152   225730763   224843759  
   450.000000   223034448   221479289   221123713   221124285   220569612  
   445.000000   219835518   219119828   217597265   215244031   213533324  
   440.000000   212902766   212016977   210189716   208523002   207666781  
   435.000000   206488881   204466517   202979862   202837530   202807562  
   430.000000   201859417   201012950   201342701   202018701   202069409  
   425.000000   202273789   203356068   203954433   202977364   201976499  
   420.000000   203008400   205057513   205432226   205195519   205283301  
   415.000000   203941983   200872046   198930355   199867896   201267907  
   410.000000   200396050   198668348   198419286   198433263   196840193  
   405.000000   195190697   195230915   194946709   192107481   188447266  
   400.000000   187029214  
##END= 
