##TITLE= Sample 149 By YargerLab Date Wednesday, June 05 2024
##JCAMP-DX= 4.24
##DATA TYPE= INFRARED SPECTRUM
##ORIGIN= Exported PE Spectrum Data File
##OWNER= Yarger Lab
##DATE= 24/06/05
##TIME= 20:46:34.00
##SPECTROMETER/DATA SYSTEM= PERKIN-ELMER Spectrum Two IR
##INSTRUMENT PARAMETERS=
  APODIZATION=Strong
  DETECTOR=LiTa03
##RESOLUTION= 4.000000
##DELTAX= -1.000000
##XUNITS= 1/CM
##YUNITS= A
##XFACTOR= 1.00
##YFACTOR= 0.00000000023841857910
##FIRSTX= 4000.00
##LASTX= 400.00
##NPOINTS= 3601
##FIRSTY= 0.007107
##MAXY= 0.071263
##MINY= 0.005800
##XYDATA= (X++(Y..Y))
  4000.000000   029810747   029800717   029790657   029787577   029795167  
  3995.000000   029802843   029796141   029768429   029729084   029698229  
  3990.000000   029692851   029715137   029750652   029778009   029783426  
  3985.000000   029768025   029744553   029727224   029723236   029731432  
  3980.000000   029746719   029766647   029793085   029826211   029857547  
  3975.000000   029871621   029856660   029814323   029759449   029712746  
  3970.000000   029690590   029696997   029724779   029762118   029796825  
  3965.000000   029816492   029808574   029767118   029701054   029629868  
  3960.000000   029570504   029532038   029517281   029523547   029543925  
  3955.000000   029570312   029598721   029627145   029649552   029657720  
  3950.000000   029648130   029629865   029622997   029644958   029695119  
  3945.000000   029750314   029777077   029754655   029694467   029630020  
  3940.000000   029586885   029569929   029569302   029569689   029560234  
  3935.000000   029538222   029510085   029481975   029458738   029449786  
  3930.000000   029465399   029509040   029568979   029625304   029662936  
  3925.000000   029672483   029651629   029610915   029567251   029533777  
  3920.000000   029511426   029492730   029473708   029453763   029431871  
  3915.000000   029410342   029398552   029403343   029416879   029423982  
  3910.000000   029416011   029395302   029374282   029363897   029362861  
  3905.000000   029352393   029313289   029263743   029250033   029286663  
  3900.000000   029339031   029361287   029347750   029330816   029331912  
  3895.000000   029350627   029375594   029384997   029353720   029279685  
  3890.000000   029199077   029148364   029136117   029153298   029176165  
  3885.000000   029185315   029181466   029180870   029197653   029220626  
  3880.000000   029225154   029206997   029183431   029166484   029153917  
  3875.000000   029131401   029092679   029048331   029020112   029019552  
  3870.000000   029033493   029044556   029049377   029052559   029073064  
  3865.000000   029122201   029174045   029195998   029181958   029153165  
  3860.000000   029134145   029135871   029154633   029177902   029185845  
  3855.000000   029161347   029067975   028934513   028858049   028859348  
  3850.000000   028882066   028893471   028887500   028872146   028858213  
  3845.000000   028845663   028818170   028767926   028713378   028687611  
  3840.000000   028705459   028744506   028782066   028811369   028824951  
  3835.000000   028811601   028771889   028719306   028662922   028609564  
  3830.000000   028579219   028593120   028640425   028682989   028692734  
  3825.000000   028671226   028639809   028625424   028631158   028625905  
  3820.000000   028592138   028558515   028552925   028585718   028631711  
  3815.000000   028663313   028685263   028703692   028708635   028691477  
  3810.000000   028661808   028634412   028606638   028564631   028516777  
  3805.000000   028489347   028490650   028512918   028534111   028525429  
  3800.000000   028496660   028475434   028474733   028487007   028493987  
  3795.000000   028490544   028487815   028491928   028491342   028479001  
  3790.000000   028464376   028459226   028457781   028447891   028428784  
  3785.000000   028408799   028387817   028364946   028352796   028362924  
  3780.000000   028383415   028392086   028396885   028416700   028445487  
  3775.000000   028458767   028449843   028432079   028416413   028403830  
  3770.000000   028389812   028373883   028357567   028341662   028332648  
  3765.000000   028336331   028340654   028329893   028302179   028267991  
  3760.000000   028233206   028198979   028174510   028153424   028105205  
  3755.000000   028010129   027891409   027804874   027785474   027826018  
  3750.000000   027910353   028010125   028073352   028057270   027986107  
  3745.000000   027915663   027877295   027868258   027860475   027823660  
  3740.000000   027758503   027699138   027688525   027724912   027748883  
  3735.000000   027712254   027652452   027643874   027697579   027768831  
  3730.000000   027821945   027844620   027837950   027815837   027803514  
  3725.000000   027817952   027847077   027862063   027846558   027810752  
  3720.000000   027771465   027738922   027729899   027749890   027781561  
  3715.000000   027800606   027809375   027830908   027859346   027868628  
  3710.000000   027860334   027849973   027839142   027820406   027800883  
  3705.000000   027792506   027792452   027793310   027797854   027817623  
  3700.000000   027846793   027863352   027858861   027842418   027820725  
  3695.000000   027801384   027801889   027838169   027897568   027948419  
  3690.000000   027979272   028007192   028038665   028053931   028033567  
  3685.000000   027982049   027914999   027862660   027873324   027973442  
  3680.000000   028133174   028292152   028415977   028519382   028598927  
  3675.000000   028633230   028646255   028667371   028687726   028699574  
  3670.000000   028703224   028715482   028749957   028798249   028848865  
  3665.000000   028902779   028959184   029016573   029085323   029166751  
  3660.000000   029241354   029287295   029308192   029324804   029353598  
  3655.000000   029413201   029516339   029648920   029768216   029835914  
  3650.000000   029853136   029884630   029979232   030111209   030234812  
  3645.000000   030333067   030407893   030471307   030546028   030641068  
  3640.000000   030745219   030849303   030964602   031101140   031241061  
  3635.000000   031362902   031470971   031583051   031697035   031801589  
  3630.000000   031900696   031987730   032051268   032108832   032183035  
  3625.000000   032278820   032381918   032477427   032577439   032715759  
  3620.000000   032892194   033057031   033174786   033255684   033318906  
  3615.000000   033394439   033514316   033677746   033841669   033965710  
  3610.000000   034064809   034188691   034353126   034535364   034716286  
  3605.000000   034883603   035019091   035113254   035186211   035276473  
  3600.000000   035396677   035531462   035672858   035822486   035972434  
  3595.000000   036117915   036271271   036443271   036617706   036773171  
  3590.000000   036924937   037107904   037320628   037521711   037696998  
  3585.000000   037861065   038017173   038160685   038305022   038465773  
  3580.000000   038633719   038793013   038952632   039132912   039326032  
  3575.000000   039506882   039671648   039834353   039997508   040152306  
  3570.000000   040303654   040472061   040663591   040867876   041081128  
  3565.000000   041297690   041490644   041648061   041798076   041976018  
  3560.000000   042179107   042380049   042570653   042760908   042950328  
  3555.000000   043132516   043319014   043521286   043721168   043892306  
  3550.000000   044038652   044185953   044344376   044509607   044689950  
  3545.000000   044897011   045116432   045322127   045511530   045700206  
  3540.000000   045894499   046089198   046286111   046484492   046666425  
  3535.000000   046817740   046953257   047100936   047267468   047443976  
  3530.000000   047628695   047824460   048024035   048223156   048433669  
  3525.000000   048660520   048882429   049080391   049268904   049469511  
  3520.000000   049675689   049870579   050063446   050274280   050497677  
  3515.000000   050713600   050920073   051126402   051326006   051508602  
  3510.000000   051688226   051887619   052101835   052312183   052521265  
  3505.000000   052743503   052970322   053180730   053378513   053587137  
  3500.000000   053814467   054049034   054281997   054504236   054698058  
  3495.000000   054861515   055029501   055239814   055488529   055744218  
  3490.000000   055992671   056242546   056499510   056762928   057036242  
  3485.000000   057310032   057549291   057732644   057892497   058085103  
  3480.000000   058327770   058599706   058885200   059178715   059459956  
  3475.000000   059704985   059921688   060141798   060381567   060635530  
  3470.000000   060896757   061153396   061378297   061555625   061712241  
  3465.000000   061891121   062102083   062326771   062556576   062791229  
  3460.000000   063012791   063201782   063372985   063560934   063776408  
  3455.000000   064006832   064247639   064502037   064757484   064998962  
  3450.000000   065234578   065479058   065721184   065940683   066146798  
  3445.000000   066364472   066595461   066828842   067074143   067346615  
  3440.000000   067631500   067901146   068157115   068418084   068677768  
  3435.000000   068912867   069126498   069347837   069590225   069844349  
  3430.000000   070104634   070371117   070631882   070874877   071111495  
  3425.000000   071359981   071614787   071859378   072098197   072346771  
  3420.000000   072602837   072858533   073125659   073415947   073709322  
  3415.000000   073976211   074221258   074472295   074735922   074995220  
  3410.000000   075241576   075476329   075691430   075880833   076063658  
  3405.000000   076265980   076487627   076713290   076940897   077169788  
  3400.000000   077377097   077544191   077694893   077872739   078087210  
  3395.000000   078314193   078539053   078763421   078980710   079179798  
  3390.000000   079367913   079559362   079749459   079928015   080108772  
  3385.000000   080314371   080541600   080772257   081008184   081262997  
  3380.000000   081528177   081784522   082040078   082322723   082636749  
  3375.000000   082957847   083267728   083565940   083854597   084139197  
  3370.000000   084436503   084753096   085066458   085355250   085638354  
  3365.000000   085952644   086302348   086662807   087025084   087401257  
  3360.000000   087793628   088192615   088598026   089012332   089420456  
  3355.000000   089805866   090178862   090561526   090955335   091353720  
  3350.000000   091772702   092233754   092725190   093213693   093686652  
  3345.000000   094151812   094608092   095051236   095498609   095973932  
  3340.000000   096472011   096970007   097467142   097979229   098504372  
  3335.000000   099026445   099544589   100068167   100590785   101099556  
  3330.000000   101600767   102106237   102607331   103097267   103604451  
  3325.000000   104165801   104775044   105392377   105997420   106598944  
  3320.000000   107202484   107807014   108424932   109066880   109711834  
  3315.000000   110326121   110907858   111478477   112038826   112572966  
  3310.000000   113091893   113636087   114233833   114883860   115573949  
  3305.000000   116285229   116983749   117642605   118268167   118877979  
  3300.000000   119462305   119999874   120499886   120991635   121480561  
  3295.000000   121951852   122411997   122888756   123387206   123878887  
  3290.000000   124334878   124742533   125094587   125390069   125644168  
  3285.000000   125869360   126056401   126195911   126304579   126400625  
  3280.000000   126463951   126458004   126380113   126255617   126092475  
  3275.000000   125875429   125602999   125296235   124973247   124645995  
  3270.000000   124329662   124023696   123691233   123291010   122825008  
  3265.000000   122324839   121801997   121245599   120657117   120047304  
  3260.000000   119406265   118716662   117999668   117308222   116673003  
  3255.000000   116082819   115512666   114937288   114319224   113627991  
  3250.000000   112882129   112148086   111487009   110918314   110424251  
  3245.000000   109963745   109489103   108979797   108461434   107969727  
  3240.000000   107503614   107033254   106541603   106030267   105502820  
  3235.000000   104977651   104506823   104136694   103850673   103581519  
  3230.000000   103279691   102941118   102576147   102190286   101794600  
  3225.000000   101402454   101012631   100620883   100244319   099907054  
  3220.000000   099605096   099311765   099011526   098702602   098377057  
  3215.000000   098030144   097681351   097351670   097027977   096683021  
  3210.000000   096324919   095991549   095700157   095434078   095172895  
  3205.000000   094902412   094600189   094249555   093870326   093503872  
  3200.000000   093166905   092842684   092512961   092170230   091806006  
  3195.000000   091419012   091032258   090673219   090340229   090009625  
  3190.000000   089665359   089295878   088880995   088419787   087958686  
  3185.000000   087551404   087193957   086834474   086439585   086015112  
  3180.000000   085572449   085118967   084678853   084278379   083906143  
  3175.000000   083522376   083111570   082694179   082286862   081885084  
  3170.000000   081485696   081094960   080710464   080323053   079936783  
  3165.000000   079561105   079187840   078803319   078417274   078049961  
  3160.000000   077697264   077339629   076978250   076629296   076289163  
  3155.000000   075939226   075580563   075230749   074891883   074555260  
  3150.000000   074231152   073938259   073667681   073390941   073099875  
  3145.000000   072806635   072511904   072209910   071919339   071671077  
  3140.000000   071463743   071265176   071055934   070839505   070612649  
  3135.000000   070363121   070099072   069849977   069635154   069456366  
  3130.000000   069315112   069205854   069100177   068969990   068821242  
  3125.000000   068673698   068518622   068334477   068135693   067963641  
  3120.000000   067833249   067727122   067638415   067579135   067546648  
  3115.000000   067522564   067504003   067500127   067499712   067479816  
  3110.000000   067447111   067433420   067451357   067487989   067537267  
  3105.000000   067600268   067655829   067670775   067644934   067613753  
  3100.000000   067607239   067635064   067705228   067818772   067947712  
  3095.000000   068054744   068135944   068213268   068291697   068358042  
  3090.000000   068415172   068477740   068537983   068575724   068600447  
  3085.000000   068641103   068693318   068718137   068699320   068667396  
  3080.000000   068661512   068699911   068786695   068910568   069032942  
  3075.000000   069114044   069154758   069182261   069193237   069149203  
  3070.000000   069032976   068877010   068731076   068628786   068586273  
  3065.000000   068598547   068628247   068625810   068567842   068456443  
  3060.000000   068290638   068069600   067822219   067595783   067406847  
  3055.000000   067229086   067033102   066816117   066592295   066379843  
  3050.000000   066192976   066020125   065815702   065541650   065215458  
  3045.000000   064891844   064606679   064365761   064175198   064037477  
  3040.000000   063918162   063756322   063521989   063240479   062959897  
  3035.000000   062717445   062532066   062398570   062285866   062163750  
  3030.000000   062027698   061876646   061684172   061428290   061139885  
  3025.000000   060880262   060670344   060476737   060265109   060030409  
  3020.000000   059777755   059513487   059261054   059048548   058874447  
  3015.000000   058713905   058562182   058442072   058368407   058335759  
  3010.000000   058337932   058367861   058398807   058400512   058378273  
  3005.000000   058367198   058386039   058421969   058459934   058500243  
  3000.000000   058549182   058619740   058738159   058919656   059141660  
  2995.000000   059369075   059602539   059871980   060188303   060537247  
  2990.000000   060916058   061337999   061796465   062257199   062693110  
  2985.000000   063102127   063492355   063878449   064290190   064754058  
  2980.000000   065263139   065789124   066320268   066860995   067401771  
  2975.000000   067921245   068415291   068894792   069360021   069805540  
  2970.000000   070241215   070675621   071086112   071441541   071749029  
  2965.000000   072041342   072323248   072565348   072747699   072870653  
  2960.000000   072926695   072904337   072819973   072708519   072579208  
  2955.000000   072415529   072218943   072015381   071820143   071633818  
  2950.000000   071476226   071386771   071386804   071474225   071653835  
  2945.000000   071938684   072318278   072762340   073257730   073808015  
  2940.000000   074397278   074989144   075567163   076140810   076711337  
  2935.000000   077263201   077790276   078298026   078780249   079228458  
  2930.000000   079661332   080107775   080561070   080987905   081382489  
  2925.000000   081774924   082184448   082600488   083004251   083370459  
  2920.000000   083642778   083742279   083604436   083179029   082414706  
  2915.000000   081293194   079890699   078364597   076866473   075490476  
  2910.000000   074285103   073269393   072420976   071692669   071055993  
  2905.000000   070507469   070036037   069617002   069238481   068902605  
  2900.000000   068589096   068266030   067932366   067621983   067357646  
  2895.000000   067131793   066933847   066763374   066610722   066456899  
  2890.000000   066300902   066162475   066057012   065992455   065986206  
  2885.000000   066051292   066167463   066299248   066440999   066608511  
  2880.000000   066787926   066934512   067026929   067085279   067124721  
  2875.000000   067130009   067084082   066986873   066832226   066600629  
  2870.000000   066291132   065935485   065568584   065208343   064870108  
  2865.000000   064572749   064323081   064119877   063977246   063918179  
  2860.000000   063941800   064029038   064185444   064446350   064833139  
  2855.000000   065332677   065918306   066548305   067128795   067505316  
  2850.000000   067518472   067075081   066183956   064960480   063593934  
  2845.000000   062267690   061079093   060038319   059127207   058340860  
  2840.000000   057679661   057136778   056703339   056362545   056078910  
  2835.000000   055817642   055573866   055359908   055170808   054986858  
  2830.000000   054805219   054637862   054480798   054315732   054141003  
  2825.000000   053973111   053818864   053673961   053544475   053439406  
  2820.000000   053344838   053237768   053122648   053021979   052934113  
  2815.000000   052835653   052725728   052629950   052556939   052485342  
  2810.000000   052400143   052309732   052221522   052131601   052043405  
  2805.000000   051966118   051890022   051792765   051675584   051564629  
  2800.000000   051473365   051392069   051315881   051252429   051197034  
  2795.000000   051131197   051051297   050971513   050896130   050816656  
  2790.000000   050737857   050676231   050628456   050570782   050493544  
  2785.000000   050410024   050330703   050256798   050198251   050166120  
  2780.000000   050143605   050095104   050008565   049903216   049796411  
  2775.000000   049692793   049603552   049540455   049486729   049408719  
  2770.000000   049304156   049208335   049147072   049112308   049088378  
  2765.000000   049069788   049045690   048997073   048921452   048838025  
  2760.000000   048761912   048693026   048629575   048567458   048488309  
  2755.000000   048377369   048253579   048153387   048084332   048023713  
  2750.000000   047962623   047917646   047894335   047871909   047832751  
  2745.000000   047780780   047725007   047668969   047619144   047580071  
  2740.000000   047540821   047489055   047434748   047393622   047353631  
  2735.000000   047289790   047208367   047141666   047099719   047060952  
  2730.000000   047011280   046956818   046896297   046817644   046728589  
  2725.000000   046656342   046608878   046565829   046512856   046455257  
  2720.000000   046394510   046323429   046250018   046194963   046158908  
  2715.000000   046120291   046069398   046015199   045955605   045874200  
  2710.000000   045773991   045683736   045620386   045571098   045519608  
  2705.000000   045465466   045411339   045356197   045306647   045272402  
  2700.000000   045247102   045215207   045177978   045148109   045119817  
  2695.000000   045070498   044993099   044903040   044815285   044739926  
  2690.000000   044695419   044694970   044718959   044728067   044704428  
  2685.000000   044656697   044591786   044511431   044430953   044368557  
  2680.000000   044317853   044262212   044211524   044190953   044196350  
  2675.000000   044195993   044175446   044145998   044110497   044057146  
  2670.000000   043989370   043927171   043876157   043826596   043783434  
  2665.000000   043762132   043753769   043729255   043681819   043633615  
  2660.000000   043598572   043570754   043548096   043531836   043501876  
  2655.000000   043432897   043339332   043266177   043229590   043203983  
  2650.000000   043171405   043142705   043123898   043103820   043085463  
  2645.000000   043087855   043104612   043099216   043055424   042997755  
  2640.000000   042952563   042921987   042902935   042894271   042879634  
  2635.000000   042842686   042803522   042799067   042823147   042831234  
  2630.000000   042810638   042797696   042814928   042839683   042847072  
  2625.000000   042837752   042809578   042750043   042673747   042622388  
  2620.000000   042610873   042611466   042602484   042587573   042558831  
  2615.000000   042491648   042394059   042315637   042288475   042298242  
  2610.000000   042323309   042356612   042376978   042349215   042274099  
  2605.000000   042198600   042159993   042154655   042167334   042187790  
  2600.000000   042190977   042149344   042077648   042024177   042007208  
  2595.000000   042000362   041983203   041960915   041931348   041882038  
  2590.000000   041825698   041790570   041771677   041738000   041687513  
  2585.000000   041645317   041612180   041570642   041535903   041536577  
  2580.000000   041546388   041505814   041417242   041350706   041344897  
  2575.000000   041370020   041399640   041445453   041500457   041514773  
  2570.000000   041460368   041366496   041270688   041182708   041115379  
  2565.000000   041097252   041132369   041187495   041232600   041256201  
  2560.000000   041240624   041170998   041072672   040995042   040956557  
  2555.000000   040947105   040971076   041035639   041107571   041140090  
  2550.000000   041132134   041105580   041045513   040933174   040818231  
  2545.000000   040774979   040793306   040795660   040760117   040741572  
  2540.000000   040767462   040797619   040798866   040780358   040743561  
  2535.000000   040674064   040597888   040572158   040604867   040649626  
  2530.000000   040686233   040736876   040795726   040819398   040797911  
  2525.000000   040768709   040752576   040744231   040764939   040844920  
  2520.000000   040947032   040989192   040953422   040899747   040867435  
  2515.000000   040841953   040828315   040866961   040956925   041042032  
  2510.000000   041096845   041152887   041221417   041265541   041275337  
  2505.000000   041303048   041395072   041546452   041734331   041938436  
  2500.000000   042118453   042237600   042322826   042443456   042621317  
  2495.000000   042823069   043038999   043295960   043586691   043860909  
  2490.000000   044101361   044338937   044582877   044802534   044991145  
  2485.000000   045177291   045361787   045508325   045610030   045703689  
  2480.000000   045810099   045923710   046061951   046254470   046475399  
  2475.000000   046655030   046767231   046845056   046910830   046960820  
  2470.000000   047015734   047108072   047213280   047269678   047274404  
  2465.000000   047282762   047308608   047305883   047262341   047228294  
  2460.000000   047234350   047256488   047282499   047336126   047411996  
  2455.000000   047458911   047456098   047445513   047467572   047521981  
  2450.000000   047601484   047699235   047773994   047780688   047749899  
  2445.000000   047769386   047869135   047990707   048082297   048155565  
  2440.000000   048235275   048322562   048427566   048577051   048770873  
  2435.000000   048982958   049208516   049452339   049676717   049831083  
  2430.000000   049935445   050063972   050242536   050431042   050603258  
  2425.000000   050766264   050898133   050952814   050939973   050926521  
  2420.000000   050943401   050958379   050949957   050936157   050921117  
  2415.000000   050883065   050822530   050753895   050646038   050449444  
  2410.000000   050190807   049957935   049778642   049590712   049347618  
  2405.000000   049074076   048794354   048488239   048147514   047808696  
  2400.000000   047499876   047210658   046933262   046674285   046409820  
  2395.000000   046092892   045728015   045384181   045114917   044913507  
  2390.000000   044752255   044607973   044441649   044216502   043955131  
  2385.000000   043723491   043548481   043400780   043264274   043161775  
  2380.000000   043097428   043036228   042960373   042890618   042832450  
  2375.000000   042756944   042656776   042559886   042466998   042341693  
  2370.000000   042187242   042063018   042001137   041976302   041967101  
  2365.000000   041964665   041914410   041751402   041516339   041335113  
  2360.000000   041259655   041225997   041170487   041096612   041019115  
  2355.000000   040938143   040874058   040846414   040816168   040725379  
  2350.000000   040592179   040490334   040444618   040403751   040325828  
  2345.000000   040238444   040165953   040069350   039936078   039828515  
  2340.000000   039782551   039761391   039738325   039735805   039757622  
  2335.000000   039764690   039742805   039721963   039709932   039670813  
  2330.000000   039587831   039481916   039358116   039203880   039050146  
  2325.000000   038959317   038938765   038928575   038900802   038891700  
  2320.000000   038918834   038943508   038939625   038918116   038873955  
  2315.000000   038785885   038682599   038626851   038618346   038589767  
  2310.000000   038514679   038440384   038397542   038357037   038293951  
  2305.000000   038220379   038137898   038032714   037932204   037888998  
  2300.000000   037891271   037863297   037771435   037658690   037566388  
  2295.000000   037498516   037468511   037493424   037530923   037508048  
  2290.000000   037426569   037355047   037312566   037257857   037197091  
  2285.000000   037189390   037226080   037223492   037161999   037117313  
  2280.000000   037124256   037128225   037101940   037089810   037102221  
  2275.000000   037083204   037017420   036957049   036922119   036888484  
  2270.000000   036883696   036958702   037057412   037060991   036976606  
  2265.000000   036927000   036940783   036921124   036841007   036791568  
  2260.000000   036801344   036786893   036725410   036705726   036753091  
  2255.000000   036775221   036732912   036700867   036712315   036711317  
  2250.000000   036693527   036719083   036752828   036687720   036563431  
  2245.000000   036557593   036699998   036800935   036742307   036634120  
  2240.000000   036596201   036577470   036501262   036418290   036405796  
  2235.000000   036456141   036539635   036636873   036656137   036487774  
  2230.000000   036195150   035993494   035984805   036078878   036194733  
  2225.000000   036343966   036483672   036503301   036410877   036336576  
  2220.000000   036316402   036272860   036226352   036281392   036374703  
  2215.000000   036301485   036057631   035893070   035950666   036100963  
  2210.000000   036208336   036302063   036397720   036407161   036322615  
  2205.000000   036262515   036249864   036176170   036043839   035990260  
  2200.000000   036002294   035887299   035614540   035411928   035427964  
  2195.000000   035556541   035687127   035840781   035971976   035929102  
  2190.000000   035736519   035638737   035749727   035918867   036038969  
  2185.000000   036179809   036311336   036233960   035928925   035668347  
  2180.000000   035622351   035666201   035682906   035736827   035821286  
  2175.000000   035763341   035525124   035299707   035186487   035079833  
  2170.000000   034984257   035097294   035429076   035673934   035652580  
  2165.000000   035557522   035562087   035513015   035264445   034998090  
  2160.000000   034924707   034947109   034920022   034921340   035027199  
  2155.000000   035152377   035249526   035382161   035513233   035484105  
  2150.000000   035276704   035064263   034946837   034865199   034805731  
  2145.000000   034834751   034912819   034930821   034945277   035110820  
  2140.000000   035371690   035492286   035429438   035394141   035501287  
  2135.000000   035625033   035667433   035706049   035797434   035865507  
  2130.000000   035854043   035812048   035771316   035704036   035640289  
  2125.000000   035670865   035786975   035863265   035833245   035746008  
  2120.000000   035637158   035493099   035360130   035326182   035366161  
  2115.000000   035357057   035271424   035197327   035155681   035071056  
  2110.000000   034954494   034924670   035003353   035068403   035052102  
  2105.000000   035011501   034964623   034848744   034689211   034623308  
  2100.000000   034692775   034787455   034836922   034879103   034901574  
  2095.000000   034817431   034650349   034546843   034553494   034564332  
  2090.000000   034528964   034521131   034557419   034539645   034440919  
  2085.000000   034361016   034337221   034282863   034181720   034153632  
  2080.000000   034247148   034348692   034377081   034391147   034424925  
  2075.000000   034400433   034284580   034162124   034077013   033974297  
  2070.000000   033857538   033819254   033858871   033863531   033817729  
  2065.000000   033824094   033869862   033804049   033608738   033450513  
  2060.000000   033400938   033338991   033205373   033110157   033095293  
  2055.000000   033022507   032804200   032545525   032375866   032337443  
  2050.000000   032478545   032810630   033120547   033131594   032906023  
  2045.000000   032778537   032848921   032890307   032805867   032777257  
  2040.000000   032863375   032859118   032690443   032545260   032481465  
  2035.000000   032316154   032068001   032053450   032347576   032594740  
  2030.000000   032540773   032329925   032129434   031896594   031678354  
  2025.000000   031703676   031978761   032193889   032200427   032213709  
  2020.000000   032410665   032705604   033035256   033444132   033743197  
  2015.000000   033522645   032703695   031744043   031148623   031043487  
  2010.000000   031316804   031809480   032249933   032375574   032250452  
  2005.000000   032164092   032188762   032158665   032064246   032091462  
  2000.000000   032244493   032294819   032167598   032037785   031977744  
  1995.000000   031853229   031652032   031581929   031714779   031847714  
  1990.000000   031852151   031818850   031779435   031631254   031420323  
  1985.000000   031363502   031478628   031505042   031299000   031014280  
  1980.000000   030810054   030690628   030730742   031073537   031579983  
  1975.000000   031887275   031887922   031785664   031680393   031488948  
  1970.000000   031282620   031283242   031462375   031536358   031444724  
  1965.000000   031434604   031603064   031756143   031758956   031682362  
  1960.000000   031576322   031422960   031328435   031424285   031565358  
  1955.000000   031451638   031073428   030744933   030669179   030762558  
  1950.000000   030917009   031124212   031308892   031329906   031203338  
  1945.000000   031094421   031077345   031115130   031239379   031476639  
  1940.000000   031639650   031501505   031146782   030896262   030884197  
  1935.000000   030961489   031010996   031067762   031113768   031053607  
  1930.000000   030931635   030901480   030941112   030855161   030605049  
  1925.000000   030387276   030342969   030385726   030386187   030327752  
  1920.000000   030213775   030049344   029950230   030015749   030116965  
  1915.000000   030070364   029929932   029890928   029970308   030003648  
  1910.000000   029951217   029948702   030027204   030060620   030022109  
  1905.000000   030023394   030077346   030063169   029960400   029887271  
  1900.000000   029874428   029821934   029714489   029664468   029707481  
  1895.000000   029748322   029746380   029743021   029699232   029534010  
  1890.000000   029328493   029255028   029291508   029273481   029198889  
  1885.000000   029220202   029347223   029404742   029318118   029202080  
  1880.000000   029131779   029054453   028960706   028921796   028911873  
  1875.000000   028809023   028612932   028450962   028344775   028189176  
  1870.000000   028016578   028029978   028228802   028361168   028337644  
  1865.000000   028282207   028253134   028186201   028083746   028046640  
  1860.000000   028078913   028062776   027976010   027927780   027942241  
  1855.000000   027923335   027857967   027839086   027864794   027822783  
  1850.000000   027703349   027624044   027609625   027546170   027402619  
  1845.000000   027331960   027429504   027522999   027476223   027375846  
  1840.000000   027296587   027200706   027101729   027093714   027167096  
  1835.000000   027185565   027085857   026929915   026763548   026604211  
  1830.000000   026541040   026614772   026671382   026537825   026288045  
  1825.000000   026203686   026370630   026559828   026604974   026567974  
  1820.000000   026526506   026443218   026323452   026272181   026293236  
  1815.000000   026240597   026062722   025902046   025871880   025894995  
  1810.000000   025879964   025879177   025922351   025925476   025857849  
  1805.000000   025790293   025718392   025539751   025270994   025109924  
  1800.000000   025141706   025209468   025199256   025180635   025199263  
  1795.000000   025161180   025011569   024900769   024967751   025066930  
  1790.000000   025080963   025090623   025105106   025017480   024839790  
  1785.000000   024738495   024749579   024717793   024595221   024540122  
  1780.000000   024624097   024695128   024644104   024571592   024602943  
  1775.000000   024701360   024761815   024825725   024937971   024890723  
  1770.000000   024638701   024444584   024458353   024544172   024542228  
  1765.000000   024478726   024416054   024348397   024326139   024428861  
  1760.000000   024568273   024569279   024450173   024439445   024637062  
  1755.000000   024864848   024982622   025038333   025081156   025075780  
  1750.000000   025043402   025154956   025484967   025837068   026041417  
  1745.000000   026195136   026442425   026710094   026866710   026986653  
  1740.000000   027222972   027528911   027793041   028117064   028531363  
  1735.000000   028864630   029173573   029471612   029482933   029201064  
  1730.000000   028962876   029044500   029363687   029612633   029677309  
  1725.000000   029765384   030038819   030342700   030524261   030737488  
  1720.000000   031181541   031801058   032519080   033383121   034175523  
  1715.000000   034620548   034963461   035662057   036747807   037910087  
  1710.000000   039066073   040452235   042206878   044283928   046844017  
  1705.000000   050077186   053617041   057068088   060905370   066715625  
  1700.000000   074984011   082764846   088640822   094233257   100558991  
  1695.000000   106302433   110046748   112270906   114031936   115757265  
  1690.000000   117508873   119488235   121858175   124431205   126862608  
  1685.000000   129404843   132635784   135765490   138247460   140677908  
  1680.000000   143488072   146501190   149411390   152288265   155502368  
  1675.000000   159203550   162922630   166223367   169206702   172216423  
  1670.000000   175664233   179691721   183815992   187463842   190566714  
  1665.000000   193454701   196487151   199829649   203364223   206865527  
  1660.000000   210210552   213347987   216330327   219341049   222472888  
  1655.000000   225431449   228311374   232267976   236450380   238909758  
  1650.000000   239863530   240595686   241895316   243919408   246351629  
  1645.000000   248750386   250817622   252477732   253918841   255433169  
  1640.000000   257158587   258932626   260490127   261859101   263587351  
  1635.000000   265981794   268546856   270891492   273053947   275069597  
  1630.000000   276934785   278893255   281241147   283845819   286285752  
  1625.000000   288380643   290318130   292330997   294381205   296286453  
  1620.000000   297901533   298896730   298695029   297131614   294812610  
  1615.000000   292198082   289144278   285425071   280939697   275712240  
  1610.000000   269890540   263637183   257117754   250538438   243989003  
  1605.000000   237374165   230630981   223913052   217403733   211106070  
  1600.000000   204982855   199117199   193551016   188152292   182846458  
  1595.000000   177797944   173164663   168838100   164667296   160750538  
  1590.000000   157242780   154079160   151148249   148539594   146356380  
  1585.000000   144445514   142634020   141054131   139897154   139086194  
  1580.000000   138512813   138305737   138505298   138754505   138751888  
  1575.000000   138659405   138643788   138656776   138677244   138930878  
  1570.000000   139900537   141535876   143215446   144796126   146572381  
  1565.000000   148678795   151020974   153566244   156226159   158524174  
  1560.000000   160545257   164219361   169097723   172767799   175263018  
  1555.000000   177724658   180715970   183803542   186519915   189161128  
  1550.000000   192282893   195787653   199095181   201998333   204805921  
  1545.000000   207865351   211162933   214486351   217797231   221219839  
  1540.000000   224738463   227895525   230212906   231589702   232371748  
  1535.000000   233027563   234062505   235755196   237683431   239353419  
  1530.000000   240659228   241681824   242562449   243474072   244540740  
  1525.000000   245684150   246671402   247336505   247801238   248373208  
  1520.000000   248963640   249189994   248949228   248465212   248035504  
  1515.000000   247632909   246820971   245231023   243027066   240752401  
  1510.000000   238625974   236206514   232768580   228306972   224023261  
  1505.000000   220708032   217697725   214452104   210925172   207143014  
  1500.000000   203283535   199502633   195586043   191253530   186767882  
  1495.000000   182572664   178674687   174796464   170673571   166284883  
  1490.000000   162072253   158627602   156078531   154098041   152455889  
  1485.000000   151152351   150169681   149425808   148984457   149045523  
  1480.000000   149599254   150370054   151236137   152443931   154223821  
  1475.000000   156412218   158813033   161594556   164774628   167786801  
  1470.000000   170251674   172289868   174102861   175747145   177285720  
  1465.000000   178915370   180709780   182433077   183860358   185051992  
  1460.000000   186253828   187685582   189530283   191888198   194270862  
  1455.000000   195962015   196885928   197415579   197783579   197984878  
  1450.000000   197940198   197638100   197223913   196864679   196499132  
  1445.000000   195913625   195032436   193984911   192919104   191874654  
  1440.000000   190805358   189528165   187710121   185335844   183051243  
  1435.000000   181267623   179581807   177527497   175051697   172431365  
  1430.000000   169925174   167627594   165642404   163993247   162455514  
  1425.000000   160851017   159437715   158584740   158127003   157518816  
  1420.000000   156589756   155846785   155543598   155361924   155195567  
  1415.000000   155145626   155129714   154975248   154723977   154559491  
  1410.000000   154467043   154256505   153865831   153386728   152866657  
  1405.000000   152310795   151837850   151518572   151132564   150418520  
  1400.000000   149510490   148845447   148533947   148266119   147899414  
  1395.000000   147641204   147616363   147667490   147684648   147705659  
  1390.000000   147676239   147433322   146990570   146583480   146278889  
  1385.000000   145898435   145372055   144814792   144301518   143787762  
  1380.000000   143283421   142893076   142614914   142304184   141929893  
  1375.000000   141677329   141680693   141820092   141916130   141876309  
  1370.000000   141606187   141019135   140170227   139193099   138075794  
  1365.000000   136706463   135160190   133748619   132675554   131852498  
  1360.000000   131144688   130523877   129956536   129376187   128814296  
  1355.000000   128381793   128078298   127786303   127480465   127254582  
  1350.000000   127139214   127061449   127011127   127060677   127195172  
  1345.000000   127302928   127349605   127383369   127378726   127265899  
  1340.000000   127116762   127094263   127180549   127200525   127100569  
  1335.000000   126966777   126799210   126501294   126098266   125751571  
  1330.000000   125523290   125320241   125104018   124946969   124857804  
  1325.000000   124752153   124637407   124616307   124681932   124712007  
  1320.000000   124692830   124742196   124878471   124985285   125029819  
  1315.000000   125095562   125178635   125168646   125052664   124933143  
  1310.000000   124822751   124634176   124379930   124177649   124040512  
  1305.000000   123864006   123638270   123460989   123334578   123160187  
  1300.000000   122947927   122813293   122759035   122675430   122571367  
  1295.000000   122577178   122702464   122815859   122880576   122990108  
  1290.000000   123149991   123252348   123289253   123373488   123518438  
  1285.000000   123619614   123666995   123754208   123861713   123856528  
  1280.000000   123730015   123617198   123557156   123457216   123314766  
  1275.000000   123240911   123239029   123188541   123088313   123090969  
  1270.000000   123258182   123500041   123792049   124216013   124756158  
  1265.000000   125287575   125796717   126395233   127086480   127756302  
  1260.000000   128410114   129175479   130046769   130881114   131665009  
  1255.000000   132539091   133537229   134541219   135513014   136534785  
  1250.000000   137600863   138601644   139540327   140533920   141583922  
  1245.000000   142575941   143518978   144538161   145612970   146569191  
  1240.000000   147349159   148052313   148679438   149090159   149251494  
  1235.000000   149284941   149238805   149042054   148719331   148413210  
  1230.000000   148138604   147756834   147224987   146640679   146016693  
  1225.000000   145250069   144357839   143489297   142662222   141734269  
  1220.000000   140671812   139600570   138549791   137404089   136157798  
  1215.000000   134953222   133819391   132633995   131391041   130235861  
  1210.000000   129179350   128053358   126803879   125557662   124347699  
  1205.000000   123054015   121674704   120373908   119197046   118012151  
  1200.000000   116794013   115685052   114715756   113753899   112785858  
  1195.000000   111959538   111288592   110604841   109873044   109251001  
  1190.000000   108779353   108309804   107802274   107396451   107117989  
  1185.000000   106822994   106504661   106342430   106380602   106458215  
  1180.000000   106536829   106797538   107325178   108008137   108809983  
  1175.000000   109831921   111039826   112228364   113335951   114494517  
  1170.000000   115719239   116861031   117912603   119036692   120226942  
  1165.000000   121266925   122081309   122807798   123453331   123819079  
  1160.000000   123849606   123714483   123480336   123017817   122314114  
  1155.000000   121547949   120761212   119800698   118658793   117537582  
  1150.000000   116499196   115390443   114196034   113112954   112189269  
  1145.000000   111245827   110247705   109393931   108743765   108120921  
  1140.000000   107477140   106996319   106735370   106522831   106312995  
  1135.000000   106268521   106407514   106528240   106580095   106742808  
  1130.000000   107047756   107296064   107441619   107670230   108008225  
  1125.000000   108240665   108320429   108469033   108765293   109027086  
  1120.000000   109203185   109488175   109933356   110342223   110661740  
  1115.000000   111079543   111619192   112044847   112284489   112547434  
  1110.000000   112914294   113219751   113459031   113873052   114506497  
  1105.000000   115096672   115533603   116010333   116604625   117137037  
  1100.000000   117573482   118118731   118805109   119402675   119867822  
  1095.000000   120454214   121256076   122086695   122909220   123938371  
  1090.000000   125187290   126383568   127469170   128718411   130229708  
  1085.000000   131765661   133235452   134864407   136735619   138622877  
  1080.000000   140433801   142350437   144389724   146276324   147909648  
  1075.000000   149503382   151135137   152606311   153875878   155165659  
  1070.000000   156500568   157625616   158488177   159339045   160227519  
  1065.000000   160889547   161262664   161607630   161982182   162104849  
  1060.000000   161879941   161564766   161263090   160764282   160051683  
  1055.000000   159441474   159044265   158560201   157807934   156964090  
  1050.000000   156104704   155037672   153776551   152628350   151639731  
  1045.000000   150491417   149091122   147749925   146619553   145489326  
  1040.000000   144298017   143327108   142683774   142104571   141450667  
  1035.000000   140909783   140527535   140040913   139358074   138700242  
  1030.000000   138102071   137267816   136115057   134952966   133961079  
  1025.000000   132974514   131958451   131168419   130653400   130099611  
  1020.000000   129350028   128586821   127831619   126788518   125363942  
  1015.000000   123842652   122352589   120675632   118755463   116900772  
  1010.000000   115278783   113701987   112098115   110700741   109592683  
  1005.000000   108534178   107432226   106492142   105754490   104946853  
  1000.000000   103979929   103106677   102428065   101709483   100854524  
   995.000000   100083450   099472811   098796294   097987302   097296708  
   990.000000   096813258   096307065   095696020   095207871   094905280  
   985.000000   094531598   093984953   093479959   093085071   092580692  
   980.000000   091936824   091437186   091171610   090878490   090462536  
   975.000000   090161707   090054549   089891372   089599712   089448395  
   970.000000   089530583   089583904   089506229   089555919   089838652  
   965.000000   090098473   090211875   090412483   090804622   091139909  
   960.000000   091270963   091372607   091516812   091500988   091285947  
   955.000000   091134435   091125400   090993577   090646768   090356269  
   950.000000   090262112   090150286   089921420   089788701   089828011  
   945.000000   089802661   089636323   089591707   089787911   090011513  
   940.000000   090170587   090468334   090937616   091297479   091439419  
   935.000000   091588357   091802645   091822354   091586420   091398131  
   930.000000   091385541   091293745   091004068   090744976   090600358  
   925.000000   090308419   089771913   089257477   088897062   088469548  
   920.000000   087886044   087388983   087074359   086709387   086218301  
   915.000000   085858971   085720260   085559530   085310186   085248157  
   910.000000   085449789   085622102   085657626   085830490   086235297  
   905.000000   086576464   086718248   086894687   087170714   087237312  
   900.000000   086971427   086642781   086364620   085878905   085124123  
   895.000000   084436769   083964538   083423682   082677418   081994009  
   890.000000   081491054   080895260   080091780   079369889   078868313  
   885.000000   078345462   077717737   077265643   077055944   076754986  
   880.000000   076256063   075894852   075791970   075598299   075163579  
   875.000000   074813169   074702286   074518919   074116108   073788226  
   870.000000   073661889   073429400   072960988   072557983   072346491  
   865.000000   072034245   071520665   071141052   071031291   070866949  
   860.000000   070490064   070209304   070196444   070188425   070041114  
   855.000000   069993855   070124649   070137550   069945997   069867628  
   850.000000   070001179   070008457   069767290   069608563   069672797  
   845.000000   069648577   069410566   069275303   069380552   069441948  
   840.000000   069376127   069518594   069962162   070337131   070501162  
   835.000000   070802172   071379977   071882700   072146568   072497328  
   830.000000   073076067   073543115   073760721   074085656   074657617  
   825.000000   075099527   075267713   075549095   076095774   076534569  
   820.000000   076743083   077114610   077781361   078330842   078582727  
   815.000000   078914704   079522632   080074511   080402115   080826722  
   810.000000   081472675   081970450   082164847   082424641   082917372  
   805.000000   083283345   083352828   083483829   083858187   084152619  
   800.000000   084238168   084482718   085025849   085469157   085628436  
   795.000000   085873800   086402851   086895533   087210827   087695729  
   790.000000   088476745   089161856   089569216   090051379   090790934  
   785.000000   091475212   091968423   092595422   093453414   094152731  
   780.000000   094554285   095057819   095846604   096551684   096980622  
   775.000000   097473225   098213580   098895369   099382209   099991022  
   770.000000   100798795   101394046   101644744   101994834   102659656  
   765.000000   103254238   103562213   103938538   104593924   105206715  
   760.000000   105619496   106186896   107055907   107805978   108195588  
   755.000000   108567541   109154534   109682576   110028872   110559832  
   750.000000   111426761   112214658   112652405   113014324   113475200  
   745.000000   113774586   113846776   114076881   114571489   114895474  
   740.000000   114881178   114984990   115490115   116070721   116507481  
   735.000000   117097710   118003051   118898483   119646744   120593029  
   730.000000   121847518   122996911   123889274   124953733   126384572  
   725.000000   127772959   128914625   130218871   131898365   133525323  
   720.000000   134795458   136022068   137435850   138769178   139925379  
   715.000000   141304546   143067407   144809868   146364780   148164291  
   710.000000   150424113   152726159   154833080   157114892   159762895  
   705.000000   162334494   164527639   166622361   168717877   170337121  
   700.000000   171250288   171908299   172594222   172961132   172846323  
   695.000000   172740021   172934801   173059485   172909114   172914412  
   690.000000   173302038   173639697   173714683   174001396   174733186  
   685.000000   175411927   175760366   176202065   176943369   177495639  
   680.000000   177633344   177882187   178550426   179190705   179532910  
   675.000000   180025040   180907798   181721030   182237161   182956568  
   670.000000   184139052   185107876   185201749   184945863   184885567  
   665.000000   184785738   184534075   184564632   185064923   185500955  
   660.000000   185565975   185736050   186299003   186746980   186771482  
   655.000000   186870857   187392162   187890552   188070925   188397479  
   650.000000   189165457   189921638   190399593   191071967   192169987  
   645.000000   193170150   193798400   194565428   195711761   196668385  
   640.000000   197139376   197712429   198783880   199889331   200708324  
   635.000000   201679022   203010362   204114878   204698432   205303185  
   630.000000   206204164   206817370   206852910   206931741   207426796  
   625.000000   207758569   207552990   207378419   207592690   207631810  
   620.000000   207149694   206764775   206894012   206973257   206577248  
   615.000000   206203916   206156716   205880956   205148813   204684978  
   610.000000   204861843   204960440   204529645   204203671   204395076  
   605.000000   204431539   203914674   203564087   203848602   204093646  
   600.000000   203843689   203754801   204224390   204529600   204225922  
   595.000000   204040544   204450827   204760910   204500635   204411494  
   590.000000   204969084   205408142   205218470   205147809   205759162  
   585.000000   206375642   206473619   206692846   207459953   208032964  
   580.000000   207983868   208115180   208889838   209471422   209386513  
   575.000000   209518007   210358360   210951096   210719476   210623927  
   570.000000   211393977   212228315   212434846   212736871   213654492  
   565.000000   214371100   214399889   214667951   215719770   216584936  
   560.000000   216646136   216851759   217843084   218648220   218575495  
   555.000000   218569964   219433958   220403714   220831445   221409568  
   550.000000   222524205   223220724   223133057   223505338   224981489  
   545.000000   226327694   226691232   227087031   228302583   229449117  
   540.000000   229857409   230422805   231672990   232573492   232597854  
   535.000000   232939667   234252145   235337955   235473195   235802145  
   530.000000   237050223   238012884   237868397   237804670   238832368  
   525.000000   239917045   240195687   240614345   241697624   242185708  
   520.000000   241384145   240761364   241441419   242255537   242180493  
   515.000000   242208687   242964698   243226401   242320321   241620342  
   510.000000   242034624   242345680   241706715   241371834   242138169  
   505.000000   242562880   241692553   240874406   241146382   241213733  
   500.000000   240206304   239493184   239887656   239965551   238872811  
   495.000000   238157479   238895619   239636099   239222419   239002645  
   490.000000   239906899   240342847   239216864   238099586   238228841  
   485.000000   238190129   236890050   235948850   236465021   236701545  
   480.000000   235553604   234858487   235920688   236913264   236382504  
   475.000000   235954827   236963794   237676007   236921027   237005283  
   470.000000   239154306   240828223   240466048   240295954   241812284  
   465.000000   242611967   240921871   238923132   238578901   238207775  
   460.000000   236545013   235945613   237870110   239037891   237388251  
   455.000000   236009326   236884837   237496304   235869597   234319592  
   450.000000   234571537   234099515   231027052   227906987   227051902  
   445.000000   226488916   224559441   223573608   224783373   224783278  
   440.000000   221542172   218204988   217347186   216721995   214136063  
   435.000000   211941811   211909137   211174083   207928601   205436217  
   430.000000   205989376   206250829   203581262   201040030   201276445  
   425.000000   201056233   197587539   194595313   195242252   195487820  
   420.000000   191354075   187938051   190795059   193563721   191925095  
   415.000000   190519534   192156179   192447275   188801755   186910567  
   410.000000   190320428   192483314   188466604   184533362   186431823  
   405.000000   188342068   184646581   181208981   183612477   185185907  
   400.000000   179023438  
##END= 
