PE IR       SUBTECH     SPECTRUM    ASCII       PEDS        4.00        
   -1
5_1_24 BW Inner Post ssNMR Wet.ASC
24/05/01
13:15:47.00
24/05/01
13:15:54.00
Yarger Lab
Sample 051 By YargerLab Date Sunday, April 14 2024
400.000000
#HDR
-1
-1
#GR
cm-1
A
1.0
0.0
4000.000000
-1.000000
3601
8
0.097608
0.006277
#DATA
4000.000000	0.007991
3999.000000	0.007990
3998.000000	0.007989
3997.000000	0.007989
3996.000000	0.007987
3995.000000	0.007988
3994.000000	0.007991
3993.000000	0.007995
3992.000000	0.007999
3991.000000	0.008003
3990.000000	0.008006
3989.000000	0.008009
3988.000000	0.008013
3987.000000	0.008015
3986.000000	0.008015
3985.000000	0.008012
3984.000000	0.008008
3983.000000	0.008004
3982.000000	0.008000
3981.000000	0.007996
3980.000000	0.007993
3979.000000	0.007991
3978.000000	0.007990
3977.000000	0.007988
3976.000000	0.007986
3975.000000	0.007986
3974.000000	0.007990
3973.000000	0.007995
3972.000000	0.007997
3971.000000	0.007992
3970.000000	0.007983
3969.000000	0.007973
3968.000000	0.007968
3967.000000	0.007967
3966.000000	0.007967
3965.000000	0.007966
3964.000000	0.007964
3963.000000	0.007962
3962.000000	0.007959
3961.000000	0.007957
3960.000000	0.007956
3959.000000	0.007958
3958.000000	0.007960
3957.000000	0.007961
3956.000000	0.007961
3955.000000	0.007960
3954.000000	0.007962
3953.000000	0.007969
3952.000000	0.007979
3951.000000	0.007989
3950.000000	0.007997
3949.000000	0.007998
3948.000000	0.007995
3947.000000	0.007990
3946.000000	0.007984
3945.000000	0.007977
3944.000000	0.007969
3943.000000	0.007959
3942.000000	0.007950
3941.000000	0.007945
3940.000000	0.007943
3939.000000	0.007942
3938.000000	0.007943
3937.000000	0.007946
3936.000000	0.007953
3935.000000	0.007961
3934.000000	0.007965
3933.000000	0.007961
3932.000000	0.007952
3931.000000	0.007944
3930.000000	0.007942
3929.000000	0.007946
3928.000000	0.007953
3927.000000	0.007958
3926.000000	0.007960
3925.000000	0.007956
3924.000000	0.007948
3923.000000	0.007940
3922.000000	0.007934
3921.000000	0.007928
3920.000000	0.007922
3919.000000	0.007916
3918.000000	0.007910
3917.000000	0.007908
3916.000000	0.007911
3915.000000	0.007916
3914.000000	0.007920
3913.000000	0.007922
3912.000000	0.007922
3911.000000	0.007920
3910.000000	0.007918
3909.000000	0.007917
3908.000000	0.007916
3907.000000	0.007915
3906.000000	0.007913
3905.000000	0.007912
3904.000000	0.007910
3903.000000	0.007912
3902.000000	0.007917
3901.000000	0.007922
3900.000000	0.007923
3899.000000	0.007920
3898.000000	0.007914
3897.000000	0.007908
3896.000000	0.007901
3895.000000	0.007892
3894.000000	0.007884
3893.000000	0.007881
3892.000000	0.007883
3891.000000	0.007888
3890.000000	0.007894
3889.000000	0.007902
3888.000000	0.007913
3887.000000	0.007926
3886.000000	0.007937
3885.000000	0.007939
3884.000000	0.007936
3883.000000	0.007931
3882.000000	0.007923
3881.000000	0.007908
3880.000000	0.007889
3879.000000	0.007874
3878.000000	0.007870
3877.000000	0.007876
3876.000000	0.007884
3875.000000	0.007888
3874.000000	0.007887
3873.000000	0.007886
3872.000000	0.007888
3871.000000	0.007888
3870.000000	0.007882
3869.000000	0.007876
3868.000000	0.007878
3867.000000	0.007889
3866.000000	0.007900
3865.000000	0.007906
3864.000000	0.007902
3863.000000	0.007893
3862.000000	0.007885
3861.000000	0.007884
3860.000000	0.007886
3859.000000	0.007883
3858.000000	0.007866
3857.000000	0.007836
3856.000000	0.007808
3855.000000	0.007794
3854.000000	0.007794
3853.000000	0.007795
3852.000000	0.007804
3851.000000	0.007821
3850.000000	0.007835
3849.000000	0.007840
3848.000000	0.007842
3847.000000	0.007845
3846.000000	0.007853
3845.000000	0.007861
3844.000000	0.007864
3843.000000	0.007861
3842.000000	0.007851
3841.000000	0.007839
3840.000000	0.007828
3839.000000	0.007821
3838.000000	0.007821
3837.000000	0.007828
3836.000000	0.007836
3835.000000	0.007842
3834.000000	0.007844
3833.000000	0.007842
3832.000000	0.007838
3831.000000	0.007835
3830.000000	0.007833
3829.000000	0.007832
3828.000000	0.007829
3827.000000	0.007823
3826.000000	0.007819
3825.000000	0.007823
3824.000000	0.007836
3823.000000	0.007851
3822.000000	0.007853
3821.000000	0.007836
3820.000000	0.007813
3819.000000	0.007801
3818.000000	0.007799
3817.000000	0.007800
3816.000000	0.007798
3815.000000	0.007794
3814.000000	0.007794
3813.000000	0.007797
3812.000000	0.007799
3811.000000	0.007799
3810.000000	0.007800
3809.000000	0.007801
3808.000000	0.007802
3807.000000	0.007801
3806.000000	0.007798
3805.000000	0.007797
3804.000000	0.007794
3803.000000	0.007789
3802.000000	0.007779
3801.000000	0.007767
3800.000000	0.007760
3799.000000	0.007756
3798.000000	0.007750
3797.000000	0.007742
3796.000000	0.007738
3795.000000	0.007744
3794.000000	0.007756
3793.000000	0.007767
3792.000000	0.007770
3791.000000	0.007764
3790.000000	0.007754
3789.000000	0.007748
3788.000000	0.007747
3787.000000	0.007748
3786.000000	0.007749
3785.000000	0.007747
3784.000000	0.007748
3783.000000	0.007756
3782.000000	0.007769
3781.000000	0.007780
3780.000000	0.007781
3779.000000	0.007768
3778.000000	0.007751
3777.000000	0.007738
3776.000000	0.007731
3775.000000	0.007729
3774.000000	0.007732
3773.000000	0.007736
3772.000000	0.007740
3771.000000	0.007739
3770.000000	0.007730
3769.000000	0.007718
3768.000000	0.007710
3767.000000	0.007709
3766.000000	0.007710
3765.000000	0.007712
3764.000000	0.007715
3763.000000	0.007718
3762.000000	0.007720
3761.000000	0.007717
3760.000000	0.007710
3759.000000	0.007705
3758.000000	0.007708
3757.000000	0.007716
3756.000000	0.007723
3755.000000	0.007725
3754.000000	0.007722
3753.000000	0.007720
3752.000000	0.007721
3751.000000	0.007722
3750.000000	0.007727
3749.000000	0.007736
3748.000000	0.007739
3747.000000	0.007733
3746.000000	0.007724
3745.000000	0.007721
3744.000000	0.007722
3743.000000	0.007726
3742.000000	0.007729
3741.000000	0.007726
3740.000000	0.007719
3739.000000	0.007718
3738.000000	0.007730
3737.000000	0.007747
3736.000000	0.007751
3735.000000	0.007736
3734.000000	0.007715
3733.000000	0.007704
3732.000000	0.007709
3731.000000	0.007721
3730.000000	0.007732
3729.000000	0.007738
3728.000000	0.007738
3727.000000	0.007732
3726.000000	0.007720
3725.000000	0.007705
3724.000000	0.007692
3723.000000	0.007683
3722.000000	0.007678
3721.000000	0.007677
3720.000000	0.007680
3719.000000	0.007683
3718.000000	0.007685
3717.000000	0.007684
3716.000000	0.007681
3715.000000	0.007679
3714.000000	0.007682
3713.000000	0.007688
3712.000000	0.007686
3711.000000	0.007674
3710.000000	0.007662
3709.000000	0.007661
3708.000000	0.007667
3707.000000	0.007674
3706.000000	0.007679
3705.000000	0.007686
3704.000000	0.007697
3703.000000	0.007708
3702.000000	0.007710
3701.000000	0.007702
3700.000000	0.007688
3699.000000	0.007674
3698.000000	0.007666
3697.000000	0.007667
3696.000000	0.007675
3695.000000	0.007686
3694.000000	0.007697
3693.000000	0.007701
3692.000000	0.007695
3691.000000	0.007679
3690.000000	0.007662
3689.000000	0.007656
3688.000000	0.007668
3687.000000	0.007690
3686.000000	0.007707
3685.000000	0.007713
3684.000000	0.007714
3683.000000	0.007718
3682.000000	0.007731
3681.000000	0.007755
3680.000000	0.007786
3679.000000	0.007825
3678.000000	0.007867
3677.000000	0.007901
3676.000000	0.007908
3675.000000	0.007889
3674.000000	0.007869
3673.000000	0.007868
3672.000000	0.007880
3671.000000	0.007897
3670.000000	0.007909
3669.000000	0.007916
3668.000000	0.007925
3667.000000	0.007941
3666.000000	0.007962
3665.000000	0.007982
3664.000000	0.007998
3663.000000	0.008005
3662.000000	0.008008
3661.000000	0.008014
3660.000000	0.008026
3659.000000	0.008041
3658.000000	0.008056
3657.000000	0.008071
3656.000000	0.008087
3655.000000	0.008109
3654.000000	0.008135
3653.000000	0.008163
3652.000000	0.008196
3651.000000	0.008235
3650.000000	0.008276
3649.000000	0.008307
3648.000000	0.008326
3647.000000	0.008341
3646.000000	0.008356
3645.000000	0.008372
3644.000000	0.008387
3643.000000	0.008403
3642.000000	0.008422
3641.000000	0.008447
3640.000000	0.008479
3639.000000	0.008517
3638.000000	0.008560
3637.000000	0.008606
3636.000000	0.008651
3635.000000	0.008688
3634.000000	0.008716
3633.000000	0.008739
3632.000000	0.008765
3631.000000	0.008802
3630.000000	0.008844
3629.000000	0.008875
3628.000000	0.008894
3627.000000	0.008918
3626.000000	0.008954
3625.000000	0.008997
3624.000000	0.009038
3623.000000	0.009072
3622.000000	0.009102
3621.000000	0.009133
3620.000000	0.009169
3619.000000	0.009208
3618.000000	0.009249
3617.000000	0.009290
3616.000000	0.009326
3615.000000	0.009357
3614.000000	0.009384
3613.000000	0.009415
3612.000000	0.009452
3611.000000	0.009494
3610.000000	0.009540
3609.000000	0.009586
3608.000000	0.009629
3607.000000	0.009667
3606.000000	0.009702
3605.000000	0.009736
3604.000000	0.009772
3603.000000	0.009809
3602.000000	0.009846
3601.000000	0.009882
3600.000000	0.009918
3599.000000	0.009955
3598.000000	0.009994
3597.000000	0.010036
3596.000000	0.010081
3595.000000	0.010130
3594.000000	0.010180
3593.000000	0.010228
3592.000000	0.010272
3591.000000	0.010313
3590.000000	0.010357
3589.000000	0.010410
3588.000000	0.010471
3587.000000	0.010535
3586.000000	0.010594
3585.000000	0.010641
3584.000000	0.010674
3583.000000	0.010701
3582.000000	0.010733
3581.000000	0.010777
3580.000000	0.010833
3579.000000	0.010893
3578.000000	0.010953
3577.000000	0.011009
3576.000000	0.011064
3575.000000	0.011120
3574.000000	0.011179
3573.000000	0.011238
3572.000000	0.011296
3571.000000	0.011353
3570.000000	0.011414
3569.000000	0.011480
3568.000000	0.011543
3567.000000	0.011600
3566.000000	0.011654
3565.000000	0.011712
3564.000000	0.011774
3563.000000	0.011835
3562.000000	0.011893
3561.000000	0.011946
3560.000000	0.011997
3559.000000	0.012045
3558.000000	0.012091
3557.000000	0.012136
3556.000000	0.012182
3555.000000	0.012234
3554.000000	0.012298
3553.000000	0.012376
3552.000000	0.012459
3551.000000	0.012534
3550.000000	0.012596
3549.000000	0.012645
3548.000000	0.012690
3547.000000	0.012739
3546.000000	0.012797
3545.000000	0.012865
3544.000000	0.012937
3543.000000	0.013006
3542.000000	0.013066
3541.000000	0.013119
3540.000000	0.013167
3539.000000	0.013215
3538.000000	0.013270
3537.000000	0.013335
3536.000000	0.013408
3535.000000	0.013480
3534.000000	0.013545
3533.000000	0.013602
3532.000000	0.013655
3531.000000	0.013708
3530.000000	0.013765
3529.000000	0.013825
3528.000000	0.013892
3527.000000	0.013966
3526.000000	0.014043
3525.000000	0.014116
3524.000000	0.014178
3523.000000	0.014228
3522.000000	0.014272
3521.000000	0.014316
3520.000000	0.014364
3519.000000	0.014417
3518.000000	0.014475
3517.000000	0.014540
3516.000000	0.014607
3515.000000	0.014673
3514.000000	0.014732
3513.000000	0.014788
3512.000000	0.014844
3511.000000	0.014904
3510.000000	0.014967
3509.000000	0.015031
3508.000000	0.015088
3507.000000	0.015140
3506.000000	0.015190
3505.000000	0.015243
3504.000000	0.015303
3503.000000	0.015366
3502.000000	0.015433
3501.000000	0.015502
3500.000000	0.015572
3499.000000	0.015639
3498.000000	0.015701
3497.000000	0.015760
3496.000000	0.015819
3495.000000	0.015878
3494.000000	0.015939
3493.000000	0.016000
3492.000000	0.016062
3491.000000	0.016124
3490.000000	0.016183
3489.000000	0.016240
3488.000000	0.016296
3487.000000	0.016350
3486.000000	0.016401
3485.000000	0.016450
3484.000000	0.016499
3483.000000	0.016554
3482.000000	0.016616
3481.000000	0.016683
3480.000000	0.016748
3479.000000	0.016807
3478.000000	0.016861
3477.000000	0.016912
3476.000000	0.016963
3475.000000	0.017015
3474.000000	0.017069
3473.000000	0.017127
3472.000000	0.017188
3471.000000	0.017251
3470.000000	0.017317
3469.000000	0.017383
3468.000000	0.017446
3467.000000	0.017506
3466.000000	0.017564
3465.000000	0.017620
3464.000000	0.017676
3463.000000	0.017730
3462.000000	0.017781
3461.000000	0.017828
3460.000000	0.017871
3459.000000	0.017912
3458.000000	0.017953
3457.000000	0.017997
3456.000000	0.018047
3455.000000	0.018105
3454.000000	0.018169
3453.000000	0.018234
3452.000000	0.018292
3451.000000	0.018342
3450.000000	0.018386
3449.000000	0.018430
3448.000000	0.018478
3447.000000	0.018530
3446.000000	0.018587
3445.000000	0.018647
3444.000000	0.018708
3443.000000	0.018765
3442.000000	0.018817
3441.000000	0.018868
3440.000000	0.018922
3439.000000	0.018982
3438.000000	0.019046
3437.000000	0.019110
3436.000000	0.019165
3435.000000	0.019212
3434.000000	0.019257
3433.000000	0.019304
3432.000000	0.019354
3431.000000	0.019405
3430.000000	0.019456
3429.000000	0.019509
3428.000000	0.019563
3427.000000	0.019618
3426.000000	0.019679
3425.000000	0.019744
3424.000000	0.019807
3423.000000	0.019861
3422.000000	0.019901
3421.000000	0.019937
3420.000000	0.019979
3419.000000	0.020035
3418.000000	0.020099
3417.000000	0.020164
3416.000000	0.020221
3415.000000	0.020270
3414.000000	0.020317
3413.000000	0.020366
3412.000000	0.020416
3411.000000	0.020470
3410.000000	0.020527
3409.000000	0.020583
3408.000000	0.020635
3407.000000	0.020681
3406.000000	0.020725
3405.000000	0.020774
3404.000000	0.020829
3403.000000	0.020887
3402.000000	0.020943
3401.000000	0.020995
3400.000000	0.021039
3399.000000	0.021080
3398.000000	0.021120
3397.000000	0.021166
3396.000000	0.021216
3395.000000	0.021266
3394.000000	0.021313
3393.000000	0.021354
3392.000000	0.021393
3391.000000	0.021437
3390.000000	0.021490
3389.000000	0.021550
3388.000000	0.021610
3387.000000	0.021667
3386.000000	0.021721
3385.000000	0.021773
3384.000000	0.021821
3383.000000	0.021864
3382.000000	0.021906
3381.000000	0.021953
3380.000000	0.022005
3379.000000	0.022062
3378.000000	0.022119
3377.000000	0.022175
3376.000000	0.022228
3375.000000	0.022279
3374.000000	0.022327
3373.000000	0.022375
3372.000000	0.022426
3371.000000	0.022482
3370.000000	0.022542
3369.000000	0.022608
3368.000000	0.022679
3367.000000	0.022757
3366.000000	0.022839
3365.000000	0.022921
3364.000000	0.022996
3363.000000	0.023062
3362.000000	0.023125
3361.000000	0.023193
3360.000000	0.023270
3359.000000	0.023354
3358.000000	0.023446
3357.000000	0.023543
3356.000000	0.023636
3355.000000	0.023720
3354.000000	0.023791
3353.000000	0.023857
3352.000000	0.023930
3351.000000	0.024021
3350.000000	0.024132
3349.000000	0.024253
3348.000000	0.024370
3347.000000	0.024477
3346.000000	0.024577
3345.000000	0.024680
3344.000000	0.024791
3343.000000	0.024908
3342.000000	0.025023
3341.000000	0.025132
3340.000000	0.025239
3339.000000	0.025354
3338.000000	0.025485
3337.000000	0.025633
3336.000000	0.025792
3335.000000	0.025950
3334.000000	0.026104
3333.000000	0.026255
3332.000000	0.026406
3331.000000	0.026555
3330.000000	0.026702
3329.000000	0.026843
3328.000000	0.026980
3327.000000	0.027121
3326.000000	0.027277
3325.000000	0.027456
3324.000000	0.027653
3323.000000	0.027855
3322.000000	0.028053
3321.000000	0.028243
3320.000000	0.028426
3319.000000	0.028606
3318.000000	0.028786
3317.000000	0.028966
3316.000000	0.029149
3315.000000	0.029336
3314.000000	0.029527
3313.000000	0.029715
3312.000000	0.029888
3311.000000	0.030041
3310.000000	0.030183
3309.000000	0.030326
3308.000000	0.030480
3307.000000	0.030652
3306.000000	0.030851
3305.000000	0.031076
3304.000000	0.031316
3303.000000	0.031550
3302.000000	0.031763
3301.000000	0.031951
3300.000000	0.032116
3299.000000	0.032262
3298.000000	0.032394
3297.000000	0.032524
3296.000000	0.032657
3295.000000	0.032793
3294.000000	0.032931
3293.000000	0.033069
3292.000000	0.033206
3291.000000	0.033341
3290.000000	0.033467
3289.000000	0.033578
3288.000000	0.033668
3287.000000	0.033738
3286.000000	0.033797
3285.000000	0.033848
3284.000000	0.033891
3283.000000	0.033920
3282.000000	0.033929
3281.000000	0.033920
3280.000000	0.033898
3279.000000	0.033865
3278.000000	0.033819
3277.000000	0.033756
3276.000000	0.033676
3275.000000	0.033578
3274.000000	0.033461
3273.000000	0.033327
3272.000000	0.033189
3271.000000	0.033064
3270.000000	0.032961
3269.000000	0.032866
3268.000000	0.032756
3267.000000	0.032616
3266.000000	0.032451
3265.000000	0.032275
3264.000000	0.032096
3263.000000	0.031915
3262.000000	0.031726
3261.000000	0.031526
3260.000000	0.031314
3259.000000	0.031090
3258.000000	0.030858
3257.000000	0.030628
3256.000000	0.030410
3255.000000	0.030213
3254.000000	0.030031
3253.000000	0.029854
3252.000000	0.029666
3251.000000	0.029461
3250.000000	0.029241
3249.000000	0.029021
3248.000000	0.028820
3247.000000	0.028651
3246.000000	0.028509
3245.000000	0.028378
3244.000000	0.028243
3243.000000	0.028101
3242.000000	0.027958
3241.000000	0.027820
3240.000000	0.027682
3239.000000	0.027539
3238.000000	0.027382
3237.000000	0.027205
3236.000000	0.027013
3235.000000	0.026824
3234.000000	0.026666
3233.000000	0.026555
3232.000000	0.026481
3231.000000	0.026419
3230.000000	0.026347
3229.000000	0.026259
3228.000000	0.026157
3227.000000	0.026049
3226.000000	0.025942
3225.000000	0.025836
3224.000000	0.025728
3223.000000	0.025613
3222.000000	0.025493
3221.000000	0.025373
3220.000000	0.025258
3219.000000	0.025149
3218.000000	0.025044
3217.000000	0.024941
3216.000000	0.024840
3215.000000	0.024742
3214.000000	0.024648
3213.000000	0.024556
3212.000000	0.024464
3211.000000	0.024370
3210.000000	0.024272
3209.000000	0.024172
3208.000000	0.024068
3207.000000	0.023963
3206.000000	0.023857
3205.000000	0.023751
3204.000000	0.023643
3203.000000	0.023537
3202.000000	0.023436
3201.000000	0.023339
3200.000000	0.023244
3199.000000	0.023145
3198.000000	0.023040
3197.000000	0.022930
3196.000000	0.022817
3195.000000	0.022702
3194.000000	0.022589
3193.000000	0.022479
3192.000000	0.022370
3191.000000	0.022262
3190.000000	0.022156
3189.000000	0.022056
3188.000000	0.021959
3187.000000	0.021860
3186.000000	0.021757
3185.000000	0.021647
3184.000000	0.021533
3183.000000	0.021417
3182.000000	0.021304
3181.000000	0.021196
3180.000000	0.021093
3179.000000	0.020992
3178.000000	0.020893
3177.000000	0.020796
3176.000000	0.020701
3175.000000	0.020607
3174.000000	0.020513
3173.000000	0.020420
3172.000000	0.020329
3171.000000	0.020238
3170.000000	0.020147
3169.000000	0.020055
3168.000000	0.019962
3167.000000	0.019867
3166.000000	0.019776
3165.000000	0.019692
3164.000000	0.019614
3163.000000	0.019536
3162.000000	0.019457
3161.000000	0.019377
3160.000000	0.019293
3159.000000	0.019206
3158.000000	0.019117
3157.000000	0.019026
3156.000000	0.018929
3155.000000	0.018829
3154.000000	0.018734
3153.000000	0.018654
3152.000000	0.018593
3151.000000	0.018548
3150.000000	0.018510
3149.000000	0.018469
3148.000000	0.018420
3147.000000	0.018361
3146.000000	0.018296
3145.000000	0.018230
3144.000000	0.018163
3143.000000	0.018093
3142.000000	0.018017
3141.000000	0.017936
3140.000000	0.017862
3139.000000	0.017808
3138.000000	0.017776
3137.000000	0.017759
3136.000000	0.017738
3135.000000	0.017704
3134.000000	0.017658
3133.000000	0.017607
3132.000000	0.017557
3131.000000	0.017514
3130.000000	0.017485
3129.000000	0.017468
3128.000000	0.017452
3127.000000	0.017426
3126.000000	0.017389
3125.000000	0.017346
3124.000000	0.017299
3123.000000	0.017245
3122.000000	0.017187
3121.000000	0.017136
3120.000000	0.017101
3119.000000	0.017079
3118.000000	0.017068
3117.000000	0.017065
3116.000000	0.017073
3115.000000	0.017093
3114.000000	0.017119
3113.000000	0.017142
3112.000000	0.017153
3111.000000	0.017151
3110.000000	0.017144
3109.000000	0.017148
3108.000000	0.017167
3107.000000	0.017194
3106.000000	0.017219
3105.000000	0.017231
3104.000000	0.017229
3103.000000	0.017217
3102.000000	0.017204
3101.000000	0.017201
3100.000000	0.017216
3099.000000	0.017248
3098.000000	0.017290
3097.000000	0.017332
3096.000000	0.017367
3095.000000	0.017390
3094.000000	0.017401
3093.000000	0.017405
3092.000000	0.017406
3091.000000	0.017410
3090.000000	0.017422
3089.000000	0.017439
3088.000000	0.017450
3087.000000	0.017447
3086.000000	0.017433
3085.000000	0.017417
3084.000000	0.017409
3083.000000	0.017407
3082.000000	0.017406
3081.000000	0.017400
3080.000000	0.017391
3079.000000	0.017389
3078.000000	0.017404
3077.000000	0.017440
3076.000000	0.017487
3075.000000	0.017530
3074.000000	0.017557
3073.000000	0.017565
3072.000000	0.017552
3071.000000	0.017521
3070.000000	0.017478
3069.000000	0.017431
3068.000000	0.017396
3067.000000	0.017377
3066.000000	0.017370
3065.000000	0.017366
3064.000000	0.017361
3063.000000	0.017354
3062.000000	0.017339
3061.000000	0.017308
3060.000000	0.017255
3059.000000	0.017183
3058.000000	0.017105
3057.000000	0.017032
3056.000000	0.016968
3055.000000	0.016909
3054.000000	0.016848
3053.000000	0.016781
3052.000000	0.016714
3051.000000	0.016655
3050.000000	0.016608
3049.000000	0.016564
3048.000000	0.016507
3047.000000	0.016431
3046.000000	0.016343
3045.000000	0.016254
3044.000000	0.016175
3043.000000	0.016113
3042.000000	0.016074
3041.000000	0.016055
3040.000000	0.016043
3039.000000	0.016021
3038.000000	0.015983
3037.000000	0.015930
3036.000000	0.015871
3035.000000	0.015815
3034.000000	0.015772
3033.000000	0.015739
3032.000000	0.015711
3031.000000	0.015679
3030.000000	0.015640
3029.000000	0.015594
3028.000000	0.015539
3027.000000	0.015475
3026.000000	0.015407
3025.000000	0.015345
3024.000000	0.015289
3023.000000	0.015232
3022.000000	0.015169
3021.000000	0.015105
3020.000000	0.015047
3019.000000	0.014996
3018.000000	0.014944
3017.000000	0.014886
3016.000000	0.014826
3015.000000	0.014777
3014.000000	0.014749
3013.000000	0.014746
3012.000000	0.014761
3011.000000	0.014788
3010.000000	0.014822
3009.000000	0.014856
3008.000000	0.014884
3007.000000	0.014904
3006.000000	0.014919
3005.000000	0.014936
3004.000000	0.014959
3003.000000	0.014990
3002.000000	0.015029
3001.000000	0.015072
3000.000000	0.015113
2999.000000	0.015154
2998.000000	0.015207
2997.000000	0.015278
2996.000000	0.015364
2995.000000	0.015454
2994.000000	0.015551
2993.000000	0.015661
2992.000000	0.015789
2991.000000	0.015927
2990.000000	0.016067
2989.000000	0.016204
2988.000000	0.016341
2987.000000	0.016483
2986.000000	0.016631
2985.000000	0.016781
2984.000000	0.016927
2983.000000	0.017065
2982.000000	0.017202
2981.000000	0.017344
2980.000000	0.017497
2979.000000	0.017659
2978.000000	0.017821
2977.000000	0.017976
2976.000000	0.018122
2975.000000	0.018266
2974.000000	0.018413
2973.000000	0.018561
2972.000000	0.018702
2971.000000	0.018829
2970.000000	0.018944
2969.000000	0.019049
2968.000000	0.019141
2967.000000	0.019216
2966.000000	0.019273
2965.000000	0.019316
2964.000000	0.019348
2963.000000	0.019372
2962.000000	0.019393
2961.000000	0.019409
2960.000000	0.019415
2959.000000	0.019404
2958.000000	0.019376
2957.000000	0.019332
2956.000000	0.019274
2955.000000	0.019204
2954.000000	0.019129
2953.000000	0.019060
2952.000000	0.019004
2951.000000	0.018960
2950.000000	0.018927
2949.000000	0.018908
2948.000000	0.018912
2947.000000	0.018944
2946.000000	0.019007
2945.000000	0.019101
2944.000000	0.019223
2943.000000	0.019369
2942.000000	0.019529
2941.000000	0.019692
2940.000000	0.019849
2939.000000	0.019993
2938.000000	0.020123
2937.000000	0.020240
2936.000000	0.020344
2935.000000	0.020438
2934.000000	0.020520
2933.000000	0.020587
2932.000000	0.020632
2931.000000	0.020662
2930.000000	0.020691
2929.000000	0.020733
2928.000000	0.020785
2927.000000	0.020839
2926.000000	0.020889
2925.000000	0.020933
2924.000000	0.020972
2923.000000	0.021005
2922.000000	0.021028
2921.000000	0.021040
2920.000000	0.021032
2919.000000	0.020993
2918.000000	0.020907
2917.000000	0.020756
2916.000000	0.020526
2915.000000	0.020223
2914.000000	0.019875
2913.000000	0.019517
2912.000000	0.019176
2911.000000	0.018870
2910.000000	0.018607
2909.000000	0.018389
2908.000000	0.018204
2907.000000	0.018038
2906.000000	0.017884
2905.000000	0.017745
2904.000000	0.017624
2903.000000	0.017523
2902.000000	0.017439
2901.000000	0.017364
2900.000000	0.017293
2899.000000	0.017221
2898.000000	0.017149
2897.000000	0.017084
2896.000000	0.017034
2895.000000	0.017000
2894.000000	0.016977
2893.000000	0.016960
2892.000000	0.016944
2891.000000	0.016933
2890.000000	0.016929
2889.000000	0.016934
2888.000000	0.016944
2887.000000	0.016958
2886.000000	0.016981
2885.000000	0.017015
2884.000000	0.017060
2883.000000	0.017110
2882.000000	0.017157
2881.000000	0.017201
2880.000000	0.017243
2879.000000	0.017281
2878.000000	0.017311
2877.000000	0.017325
2876.000000	0.017315
2875.000000	0.017284
2874.000000	0.017244
2873.000000	0.017204
2872.000000	0.017159
2871.000000	0.017095
2870.000000	0.017007
2869.000000	0.016896
2868.000000	0.016772
2867.000000	0.016642
2866.000000	0.016514
2865.000000	0.016395
2864.000000	0.016290
2863.000000	0.016199
2862.000000	0.016123
2861.000000	0.016068
2860.000000	0.016037
2859.000000	0.016031
2858.000000	0.016043
2857.000000	0.016069
2856.000000	0.016110
2855.000000	0.016173
2854.000000	0.016265
2853.000000	0.016377
2852.000000	0.016484
2851.000000	0.016547
2850.000000	0.016530
2849.000000	0.016408
2848.000000	0.016188
2847.000000	0.015898
2846.000000	0.015580
2845.000000	0.015272
2844.000000	0.014994
2843.000000	0.014752
2842.000000	0.014540
2841.000000	0.014355
2840.000000	0.014196
2839.000000	0.014068
2838.000000	0.013972
2837.000000	0.013901
2836.000000	0.013843
2835.000000	0.013785
2834.000000	0.013728
2833.000000	0.013671
2832.000000	0.013615
2831.000000	0.013562
2830.000000	0.013515
2829.000000	0.013474
2828.000000	0.013436
2827.000000	0.013400
2826.000000	0.013366
2825.000000	0.013334
2824.000000	0.013301
2823.000000	0.013265
2822.000000	0.013227
2821.000000	0.013192
2820.000000	0.013160
2819.000000	0.013131
2818.000000	0.013104
2817.000000	0.013077
2816.000000	0.013050
2815.000000	0.013020
2814.000000	0.012986
2813.000000	0.012950
2812.000000	0.012913
2811.000000	0.012882
2810.000000	0.012859
2809.000000	0.012846
2808.000000	0.012834
2807.000000	0.012816
2806.000000	0.012792
2805.000000	0.012766
2804.000000	0.012743
2803.000000	0.012721
2802.000000	0.012699
2801.000000	0.012673
2800.000000	0.012644
2799.000000	0.012614
2798.000000	0.012589
2797.000000	0.012570
2796.000000	0.012551
2795.000000	0.012528
2794.000000	0.012501
2793.000000	0.012477
2792.000000	0.012453
2791.000000	0.012428
2790.000000	0.012401
2789.000000	0.012379
2788.000000	0.012364
2787.000000	0.012354
2786.000000	0.012344
2785.000000	0.012329
2784.000000	0.012310
2783.000000	0.012289
2782.000000	0.012271
2781.000000	0.012256
2780.000000	0.012240
2779.000000	0.012219
2778.000000	0.012193
2777.000000	0.012167
2776.000000	0.012142
2775.000000	0.012120
2774.000000	0.012102
2773.000000	0.012090
2772.000000	0.012081
2771.000000	0.012071
2770.000000	0.012060
2769.000000	0.012047
2768.000000	0.012033
2767.000000	0.012018
2766.000000	0.012005
2765.000000	0.011991
2764.000000	0.011974
2763.000000	0.011953
2762.000000	0.011929
2761.000000	0.011904
2760.000000	0.011880
2759.000000	0.011856
2758.000000	0.011834
2757.000000	0.011816
2756.000000	0.011801
2755.000000	0.011786
2754.000000	0.011767
2753.000000	0.011745
2752.000000	0.011721
2751.000000	0.011698
2750.000000	0.011678
2749.000000	0.011663
2748.000000	0.011654
2747.000000	0.011648
2746.000000	0.011642
2745.000000	0.011633
2744.000000	0.011617
2743.000000	0.011596
2742.000000	0.011577
2741.000000	0.011562
2740.000000	0.011552
2739.000000	0.011544
2738.000000	0.011538
2737.000000	0.011531
2736.000000	0.011521
2735.000000	0.011506
2734.000000	0.011489
2733.000000	0.011474
2732.000000	0.011459
2731.000000	0.011446
2730.000000	0.011433
2729.000000	0.011419
2728.000000	0.011402
2727.000000	0.011383
2726.000000	0.011367
2725.000000	0.011356
2724.000000	0.011350
2723.000000	0.011342
2722.000000	0.011330
2721.000000	0.011315
2720.000000	0.011296
2719.000000	0.011277
2718.000000	0.011260
2717.000000	0.011244
2716.000000	0.011227
2715.000000	0.011211
2714.000000	0.011199
2713.000000	0.011192
2712.000000	0.011188
2711.000000	0.011181
2710.000000	0.011174
2709.000000	0.011168
2708.000000	0.011158
2707.000000	0.011146
2706.000000	0.011136
2705.000000	0.011132
2704.000000	0.011132
2703.000000	0.011129
2702.000000	0.011121
2701.000000	0.011112
2700.000000	0.011106
2699.000000	0.011103
2698.000000	0.011103
2697.000000	0.011104
2696.000000	0.011105
2695.000000	0.011103
2694.000000	0.011098
2693.000000	0.011096
2692.000000	0.011097
2691.000000	0.011100
2690.000000	0.011103
2689.000000	0.011105
2688.000000	0.011108
2687.000000	0.011112
2686.000000	0.011120
2685.000000	0.011133
2684.000000	0.011144
2683.000000	0.011149
2682.000000	0.011150
2681.000000	0.011149
2680.000000	0.011149
2679.000000	0.011152
2678.000000	0.011159
2677.000000	0.011172
2676.000000	0.011187
2675.000000	0.011202
2674.000000	0.011214
2673.000000	0.011224
2672.000000	0.011232
2671.000000	0.011239
2670.000000	0.011248
2669.000000	0.011259
2668.000000	0.011270
2667.000000	0.011281
2666.000000	0.011294
2665.000000	0.011313
2664.000000	0.011332
2663.000000	0.011350
2662.000000	0.011364
2661.000000	0.011378
2660.000000	0.011388
2659.000000	0.011394
2658.000000	0.011400
2657.000000	0.011412
2656.000000	0.011431
2655.000000	0.011454
2654.000000	0.011480
2653.000000	0.011507
2652.000000	0.011532
2651.000000	0.011552
2650.000000	0.011570
2649.000000	0.011591
2648.000000	0.011615
2647.000000	0.011642
2646.000000	0.011672
2645.000000	0.011706
2644.000000	0.011742
2643.000000	0.011778
2642.000000	0.011815
2641.000000	0.011855
2640.000000	0.011891
2639.000000	0.011921
2638.000000	0.011943
2637.000000	0.011963
2636.000000	0.011985
2635.000000	0.012015
2634.000000	0.012054
2633.000000	0.012101
2632.000000	0.012147
2631.000000	0.012187
2630.000000	0.012224
2629.000000	0.012266
2628.000000	0.012313
2627.000000	0.012359
2626.000000	0.012403
2625.000000	0.012449
2624.000000	0.012498
2623.000000	0.012549
2622.000000	0.012597
2621.000000	0.012642
2620.000000	0.012683
2619.000000	0.012723
2618.000000	0.012765
2617.000000	0.012815
2616.000000	0.012870
2615.000000	0.012930
2614.000000	0.012993
2613.000000	0.013057
2612.000000	0.013113
2611.000000	0.013157
2610.000000	0.013197
2609.000000	0.013245
2608.000000	0.013299
2607.000000	0.013350
2606.000000	0.013394
2605.000000	0.013437
2604.000000	0.013485
2603.000000	0.013539
2602.000000	0.013593
2601.000000	0.013648
2600.000000	0.013702
2599.000000	0.013753
2598.000000	0.013804
2597.000000	0.013854
2596.000000	0.013903
2595.000000	0.013949
2594.000000	0.013998
2593.000000	0.014050
2592.000000	0.014102
2591.000000	0.014151
2590.000000	0.014200
2589.000000	0.014255
2588.000000	0.014315
2587.000000	0.014376
2586.000000	0.014437
2585.000000	0.014497
2584.000000	0.014552
2583.000000	0.014598
2582.000000	0.014637
2581.000000	0.014677
2580.000000	0.014722
2579.000000	0.014772
2578.000000	0.014827
2577.000000	0.014883
2576.000000	0.014933
2575.000000	0.014976
2574.000000	0.015019
2573.000000	0.015066
2572.000000	0.015115
2571.000000	0.015161
2570.000000	0.015204
2569.000000	0.015249
2568.000000	0.015298
2567.000000	0.015352
2566.000000	0.015407
2565.000000	0.015459
2564.000000	0.015502
2563.000000	0.015533
2562.000000	0.015560
2561.000000	0.015593
2560.000000	0.015635
2559.000000	0.015679
2558.000000	0.015725
2557.000000	0.015774
2556.000000	0.015828
2555.000000	0.015885
2554.000000	0.015943
2553.000000	0.016000
2552.000000	0.016048
2551.000000	0.016083
2550.000000	0.016114
2549.000000	0.016153
2548.000000	0.016204
2547.000000	0.016259
2546.000000	0.016313
2545.000000	0.016362
2544.000000	0.016407
2543.000000	0.016451
2542.000000	0.016496
2541.000000	0.016543
2540.000000	0.016589
2539.000000	0.016632
2538.000000	0.016676
2537.000000	0.016727
2536.000000	0.016787
2535.000000	0.016850
2534.000000	0.016910
2533.000000	0.016961
2532.000000	0.016994
2531.000000	0.017014
2530.000000	0.017036
2529.000000	0.017072
2528.000000	0.017121
2527.000000	0.017177
2526.000000	0.017238
2525.000000	0.017304
2524.000000	0.017374
2523.000000	0.017440
2522.000000	0.017499
2521.000000	0.017550
2520.000000	0.017594
2519.000000	0.017638
2518.000000	0.017691
2517.000000	0.017755
2516.000000	0.017824
2515.000000	0.017891
2514.000000	0.017957
2513.000000	0.018023
2512.000000	0.018085
2511.000000	0.018148
2510.000000	0.018222
2509.000000	0.018311
2508.000000	0.018407
2507.000000	0.018501
2506.000000	0.018594
2505.000000	0.018692
2504.000000	0.018798
2503.000000	0.018911
2502.000000	0.019030
2501.000000	0.019154
2500.000000	0.019276
2499.000000	0.019393
2498.000000	0.019513
2497.000000	0.019643
2496.000000	0.019785
2495.000000	0.019933
2494.000000	0.020086
2493.000000	0.020242
2492.000000	0.020400
2491.000000	0.020556
2490.000000	0.020713
2489.000000	0.020869
2488.000000	0.021014
2487.000000	0.021142
2486.000000	0.021259
2485.000000	0.021375
2484.000000	0.021496
2483.000000	0.021620
2482.000000	0.021748
2481.000000	0.021872
2480.000000	0.021987
2479.000000	0.022092
2478.000000	0.022194
2477.000000	0.022294
2476.000000	0.022381
2475.000000	0.022446
2474.000000	0.022499
2473.000000	0.022553
2472.000000	0.022611
2471.000000	0.022664
2470.000000	0.022708
2469.000000	0.022742
2468.000000	0.022767
2467.000000	0.022787
2466.000000	0.022807
2465.000000	0.022825
2464.000000	0.022833
2463.000000	0.022826
2462.000000	0.022814
2461.000000	0.022805
2460.000000	0.022797
2459.000000	0.022783
2458.000000	0.022769
2457.000000	0.022762
2456.000000	0.022763
2455.000000	0.022765
2454.000000	0.022764
2453.000000	0.022759
2452.000000	0.022752
2451.000000	0.022742
2450.000000	0.022738
2449.000000	0.022743
2448.000000	0.022753
2447.000000	0.022761
2446.000000	0.022771
2445.000000	0.022788
2444.000000	0.022816
2443.000000	0.022853
2442.000000	0.022898
2441.000000	0.022955
2440.000000	0.023016
2439.000000	0.023079
2438.000000	0.023146
2437.000000	0.023221
2436.000000	0.023305
2435.000000	0.023395
2434.000000	0.023497
2433.000000	0.023611
2432.000000	0.023731
2431.000000	0.023845
2430.000000	0.023954
2429.000000	0.024066
2428.000000	0.024182
2427.000000	0.024295
2426.000000	0.024395
2425.000000	0.024482
2424.000000	0.024556
2423.000000	0.024621
2422.000000	0.024681
2421.000000	0.024737
2420.000000	0.024785
2419.000000	0.024823
2418.000000	0.024850
2417.000000	0.024862
2416.000000	0.024856
2415.000000	0.024831
2414.000000	0.024794
2413.000000	0.024746
2412.000000	0.024685
2411.000000	0.024608
2410.000000	0.024518
2409.000000	0.024420
2408.000000	0.024312
2407.000000	0.024196
2406.000000	0.024072
2405.000000	0.023933
2404.000000	0.023771
2403.000000	0.023589
2402.000000	0.023405
2401.000000	0.023227
2400.000000	0.023047
2399.000000	0.022854
2398.000000	0.022652
2397.000000	0.022454
2396.000000	0.022259
2395.000000	0.022064
2394.000000	0.021868
2393.000000	0.021675
2392.000000	0.021486
2391.000000	0.021298
2390.000000	0.021114
2389.000000	0.020938
2388.000000	0.020773
2387.000000	0.020617
2386.000000	0.020468
2385.000000	0.020319
2384.000000	0.020164
2383.000000	0.020005
2382.000000	0.019855
2381.000000	0.019724
2380.000000	0.019602
2379.000000	0.019476
2378.000000	0.019349
2377.000000	0.019238
2376.000000	0.019149
2375.000000	0.019076
2374.000000	0.019003
2373.000000	0.018916
2372.000000	0.018812
2371.000000	0.018698
2370.000000	0.018594
2369.000000	0.018505
2368.000000	0.018415
2367.000000	0.018306
2366.000000	0.018183
2365.000000	0.018069
2364.000000	0.017971
2363.000000	0.017882
2362.000000	0.017797
2361.000000	0.017711
2360.000000	0.017619
2359.000000	0.017520
2358.000000	0.017426
2357.000000	0.017347
2356.000000	0.017271
2355.000000	0.017184
2354.000000	0.017083
2353.000000	0.016970
2352.000000	0.016849
2351.000000	0.016739
2350.000000	0.016663
2349.000000	0.016614
2348.000000	0.016572
2347.000000	0.016515
2346.000000	0.016437
2345.000000	0.016345
2344.000000	0.016254
2343.000000	0.016171
2342.000000	0.016092
2341.000000	0.016015
2340.000000	0.015942
2339.000000	0.015869
2338.000000	0.015793
2337.000000	0.015714
2336.000000	0.015637
2335.000000	0.015568
2334.000000	0.015519
2333.000000	0.015488
2332.000000	0.015456
2331.000000	0.015406
2330.000000	0.015340
2329.000000	0.015263
2328.000000	0.015171
2327.000000	0.015063
2326.000000	0.014947
2325.000000	0.014844
2324.000000	0.014767
2323.000000	0.014716
2322.000000	0.014680
2321.000000	0.014644
2320.000000	0.014593
2319.000000	0.014523
2318.000000	0.014451
2317.000000	0.014391
2316.000000	0.014341
2315.000000	0.014288
2314.000000	0.014227
2313.000000	0.014161
2312.000000	0.014089
2311.000000	0.014011
2310.000000	0.013938
2309.000000	0.013879
2308.000000	0.013827
2307.000000	0.013771
2306.000000	0.013711
2305.000000	0.013660
2304.000000	0.013616
2303.000000	0.013573
2302.000000	0.013527
2301.000000	0.013480
2300.000000	0.013428
2299.000000	0.013368
2298.000000	0.013306
2297.000000	0.013252
2296.000000	0.013204
2295.000000	0.013153
2294.000000	0.013102
2293.000000	0.013058
2292.000000	0.013018
2291.000000	0.012978
2290.000000	0.012939
2289.000000	0.012904
2288.000000	0.012863
2287.000000	0.012806
2286.000000	0.012742
2285.000000	0.012685
2284.000000	0.012633
2283.000000	0.012582
2282.000000	0.012535
2281.000000	0.012499
2280.000000	0.012468
2279.000000	0.012430
2278.000000	0.012391
2277.000000	0.012363
2276.000000	0.012344
2275.000000	0.012320
2274.000000	0.012290
2273.000000	0.012264
2272.000000	0.012238
2271.000000	0.012205
2270.000000	0.012177
2269.000000	0.012164
2268.000000	0.012159
2267.000000	0.012138
2266.000000	0.012101
2265.000000	0.012065
2264.000000	0.012036
2263.000000	0.012013
2262.000000	0.012000
2261.000000	0.011996
2260.000000	0.011977
2259.000000	0.011922
2258.000000	0.011846
2257.000000	0.011787
2256.000000	0.011763
2255.000000	0.011759
2254.000000	0.011766
2253.000000	0.011780
2252.000000	0.011788
2251.000000	0.011773
2250.000000	0.011741
2249.000000	0.011707
2248.000000	0.011675
2247.000000	0.011634
2246.000000	0.011593
2245.000000	0.011568
2244.000000	0.011561
2243.000000	0.011558
2242.000000	0.011552
2241.000000	0.011542
2240.000000	0.011516
2239.000000	0.011471
2238.000000	0.011424
2237.000000	0.011394
2236.000000	0.011368
2235.000000	0.011336
2234.000000	0.011313
2233.000000	0.011324
2232.000000	0.011353
2231.000000	0.011364
2230.000000	0.011348
2229.000000	0.011316
2228.000000	0.011271
2227.000000	0.011209
2226.000000	0.011155
2225.000000	0.011140
2224.000000	0.011163
2223.000000	0.011197
2222.000000	0.011232
2221.000000	0.011253
2220.000000	0.011230
2219.000000	0.011146
2218.000000	0.011043
2217.000000	0.010977
2216.000000	0.010952
2215.000000	0.010942
2214.000000	0.010945
2213.000000	0.010969
2212.000000	0.010984
2211.000000	0.010954
2210.000000	0.010892
2209.000000	0.010850
2208.000000	0.010840
2207.000000	0.010834
2206.000000	0.010820
2205.000000	0.010814
2204.000000	0.010809
2203.000000	0.010782
2202.000000	0.010744
2201.000000	0.010729
2200.000000	0.010730
2199.000000	0.010713
2198.000000	0.010673
2197.000000	0.010649
2196.000000	0.010654
2195.000000	0.010664
2194.000000	0.010666
2193.000000	0.010665
2192.000000	0.010663
2191.000000	0.010646
2190.000000	0.010620
2189.000000	0.010596
2188.000000	0.010562
2187.000000	0.010506
2186.000000	0.010449
2185.000000	0.010428
2184.000000	0.010442
2183.000000	0.010468
2182.000000	0.010505
2181.000000	0.010548
2180.000000	0.010561
2179.000000	0.010516
2178.000000	0.010448
2177.000000	0.010411
2176.000000	0.010402
2175.000000	0.010384
2174.000000	0.010361
2173.000000	0.010364
2172.000000	0.010390
2171.000000	0.010409
2170.000000	0.010415
2169.000000	0.010413
2168.000000	0.010379
2167.000000	0.010303
2166.000000	0.010235
2165.000000	0.010224
2164.000000	0.010219
2163.000000	0.010128
2162.000000	0.009960
2161.000000	0.009833
2160.000000	0.009827
2159.000000	0.009916
2158.000000	0.010041
2157.000000	0.010155
2156.000000	0.010203
2155.000000	0.010162
2154.000000	0.010086
2153.000000	0.010048
2152.000000	0.010059
2151.000000	0.010075
2150.000000	0.010072
2149.000000	0.010055
2148.000000	0.010032
2147.000000	0.010013
2146.000000	0.010025
2145.000000	0.010072
2144.000000	0.010107
2143.000000	0.010088
2142.000000	0.010037
2141.000000	0.010003
2140.000000	0.009995
2139.000000	0.009993
2138.000000	0.009996
2137.000000	0.010006
2136.000000	0.010004
2135.000000	0.009979
2134.000000	0.009961
2133.000000	0.009978
2132.000000	0.010011
2131.000000	0.010025
2130.000000	0.010020
2129.000000	0.010013
2128.000000	0.009999
2127.000000	0.009970
2126.000000	0.009944
2125.000000	0.009940
2124.000000	0.009939
2123.000000	0.009910
2122.000000	0.009861
2121.000000	0.009826
2120.000000	0.009817
2119.000000	0.009820
2118.000000	0.009828
2117.000000	0.009842
2116.000000	0.009852
2115.000000	0.009850
2114.000000	0.009848
2113.000000	0.009855
2112.000000	0.009849
2111.000000	0.009814
2110.000000	0.009771
2109.000000	0.009752
2108.000000	0.009746
2107.000000	0.009725
2106.000000	0.009698
2105.000000	0.009691
2104.000000	0.009702
2103.000000	0.009702
2102.000000	0.009689
2101.000000	0.009684
2100.000000	0.009684
2099.000000	0.009671
2098.000000	0.009644
2097.000000	0.009623
2096.000000	0.009609
2095.000000	0.009593
2094.000000	0.009582
2093.000000	0.009587
2092.000000	0.009590
2091.000000	0.009569
2090.000000	0.009545
2089.000000	0.009555
2088.000000	0.009585
2087.000000	0.009585
2086.000000	0.009536
2085.000000	0.009471
2084.000000	0.009420
2083.000000	0.009391
2082.000000	0.009381
2081.000000	0.009381
2080.000000	0.009369
2079.000000	0.009335
2078.000000	0.009310
2077.000000	0.009325
2076.000000	0.009363
2075.000000	0.009381
2074.000000	0.009370
2073.000000	0.009353
2072.000000	0.009332
2071.000000	0.009293
2070.000000	0.009247
2069.000000	0.009215
2068.000000	0.009195
2067.000000	0.009175
2066.000000	0.009168
2065.000000	0.009189
2064.000000	0.009205
2063.000000	0.009170
2062.000000	0.009096
2061.000000	0.009042
2060.000000	0.009031
2059.000000	0.009035
2058.000000	0.009029
2057.000000	0.009013
2056.000000	0.008983
2055.000000	0.008944
2054.000000	0.008919
2053.000000	0.008920
2052.000000	0.008918
2051.000000	0.008890
2050.000000	0.008870
2049.000000	0.008898
2048.000000	0.008948
2047.000000	0.008971
2046.000000	0.008982
2045.000000	0.009015
2044.000000	0.009038
2043.000000	0.009006
2042.000000	0.008948
2041.000000	0.008915
2040.000000	0.008887
2039.000000	0.008812
2038.000000	0.008726
2037.000000	0.008708
2036.000000	0.008748
2035.000000	0.008776
2034.000000	0.008777
2033.000000	0.008779
2032.000000	0.008756
2031.000000	0.008674
2030.000000	0.008591
2029.000000	0.008597
2028.000000	0.008672
2027.000000	0.008727
2026.000000	0.008758
2025.000000	0.008822
2024.000000	0.008901
2023.000000	0.008909
2022.000000	0.008842
2021.000000	0.008782
2020.000000	0.008776
2019.000000	0.008799
2018.000000	0.008835
2017.000000	0.008888
2016.000000	0.008931
2015.000000	0.008921
2014.000000	0.008861
2013.000000	0.008772
2012.000000	0.008655
2011.000000	0.008526
2010.000000	0.008458
2009.000000	0.008492
2008.000000	0.008576
2007.000000	0.008650
2006.000000	0.008739
2005.000000	0.008867
2004.000000	0.008960
2003.000000	0.008946
2002.000000	0.008861
2001.000000	0.008792
2000.000000	0.008753
1999.000000	0.008715
1998.000000	0.008688
1997.000000	0.008691
1996.000000	0.008683
1995.000000	0.008628
1994.000000	0.008580
1993.000000	0.008600
1992.000000	0.008645
1991.000000	0.008635
1990.000000	0.008595
1989.000000	0.008599
1988.000000	0.008623
1987.000000	0.008574
1986.000000	0.008452
1985.000000	0.008346
1984.000000	0.008298
1983.000000	0.008276
1982.000000	0.008262
1981.000000	0.008271
1980.000000	0.008278
1979.000000	0.008253
1978.000000	0.008246
1977.000000	0.008318
1976.000000	0.008419
1975.000000	0.008461
1974.000000	0.008456
1973.000000	0.008462
1972.000000	0.008460
1971.000000	0.008400
1970.000000	0.008324
1969.000000	0.008306
1968.000000	0.008327
1967.000000	0.008325
1966.000000	0.008312
1965.000000	0.008332
1964.000000	0.008349
1963.000000	0.008312
1962.000000	0.008255
1961.000000	0.008249
1960.000000	0.008275
1959.000000	0.008278
1958.000000	0.008277
1957.000000	0.008319
1956.000000	0.008375
1955.000000	0.008380
1954.000000	0.008348
1953.000000	0.008335
1952.000000	0.008338
1951.000000	0.008311
1950.000000	0.008265
1949.000000	0.008247
1948.000000	0.008251
1947.000000	0.008248
1946.000000	0.008252
1945.000000	0.008294
1944.000000	0.008341
1943.000000	0.008335
1942.000000	0.008288
1941.000000	0.008253
1940.000000	0.008229
1939.000000	0.008192
1938.000000	0.008163
1937.000000	0.008173
1936.000000	0.008197
1935.000000	0.008186
1934.000000	0.008160
1933.000000	0.008169
1932.000000	0.008207
1931.000000	0.008223
1930.000000	0.008213
1929.000000	0.008203
1928.000000	0.008188
1927.000000	0.008138
1926.000000	0.008077
1925.000000	0.008053
1924.000000	0.008071
1923.000000	0.008091
1922.000000	0.008102
1921.000000	0.008117
1920.000000	0.008128
1919.000000	0.008116
1918.000000	0.008103
1917.000000	0.008118
1916.000000	0.008141
1915.000000	0.008129
1914.000000	0.008088
1913.000000	0.008058
1912.000000	0.008041
1911.000000	0.008015
1910.000000	0.007987
1909.000000	0.007980
1908.000000	0.007981
1907.000000	0.007957
1906.000000	0.007919
1905.000000	0.007904
1904.000000	0.007908
1903.000000	0.007905
1902.000000	0.007898
1901.000000	0.007913
1900.000000	0.007937
1899.000000	0.007937
1898.000000	0.007914
1897.000000	0.007901
1896.000000	0.007896
1895.000000	0.007878
1894.000000	0.007848
1893.000000	0.007833
1892.000000	0.007833
1891.000000	0.007831
1890.000000	0.007828
1889.000000	0.007832
1888.000000	0.007827
1887.000000	0.007796
1886.000000	0.007765
1885.000000	0.007767
1884.000000	0.007784
1883.000000	0.007774
1882.000000	0.007737
1881.000000	0.007701
1880.000000	0.007667
1879.000000	0.007622
1878.000000	0.007582
1877.000000	0.007574
1876.000000	0.007585
1875.000000	0.007583
1874.000000	0.007576
1873.000000	0.007598
1872.000000	0.007648
1871.000000	0.007690
1870.000000	0.007706
1869.000000	0.007703
1868.000000	0.007678
1867.000000	0.007620
1866.000000	0.007555
1865.000000	0.007521
1864.000000	0.007514
1863.000000	0.007507
1862.000000	0.007491
1861.000000	0.007479
1860.000000	0.007473
1859.000000	0.007461
1858.000000	0.007451
1857.000000	0.007454
1856.000000	0.007450
1855.000000	0.007421
1854.000000	0.007383
1853.000000	0.007364
1852.000000	0.007357
1851.000000	0.007343
1850.000000	0.007332
1849.000000	0.007343
1848.000000	0.007360
1847.000000	0.007352
1846.000000	0.007334
1845.000000	0.007340
1844.000000	0.007356
1843.000000	0.007336
1842.000000	0.007291
1841.000000	0.007261
1840.000000	0.007250
1839.000000	0.007235
1838.000000	0.007217
1837.000000	0.007210
1836.000000	0.007206
1835.000000	0.007187
1834.000000	0.007167
1833.000000	0.007176
1832.000000	0.007209
1831.000000	0.007228
1830.000000	0.007221
1829.000000	0.007211
1828.000000	0.007206
1827.000000	0.007188
1826.000000	0.007164
1825.000000	0.007145
1824.000000	0.007116
1823.000000	0.007055
1822.000000	0.006987
1821.000000	0.006956
1820.000000	0.006959
1819.000000	0.006962
1818.000000	0.006957
1817.000000	0.006955
1816.000000	0.006946
1815.000000	0.006922
1814.000000	0.006904
1813.000000	0.006918
1812.000000	0.006942
1811.000000	0.006932
1810.000000	0.006891
1809.000000	0.006855
1808.000000	0.006831
1807.000000	0.006801
1806.000000	0.006772
1805.000000	0.006772
1804.000000	0.006802
1803.000000	0.006835
1802.000000	0.006852
1801.000000	0.006855
1800.000000	0.006836
1799.000000	0.006784
1798.000000	0.006727
1797.000000	0.006700
1796.000000	0.006698
1795.000000	0.006693
1794.000000	0.006690
1793.000000	0.006714
1792.000000	0.006744
1791.000000	0.006728
1790.000000	0.006671
1789.000000	0.006614
1788.000000	0.006581
1787.000000	0.006567
1786.000000	0.006570
1785.000000	0.006586
1784.000000	0.006595
1783.000000	0.006575
1782.000000	0.006546
1781.000000	0.006536
1780.000000	0.006534
1779.000000	0.006509
1778.000000	0.006475
1777.000000	0.006468
1776.000000	0.006481
1775.000000	0.006471
1774.000000	0.006438
1773.000000	0.006428
1772.000000	0.006452
1771.000000	0.006476
1770.000000	0.006486
1769.000000	0.006489
1768.000000	0.006470
1767.000000	0.006413
1766.000000	0.006345
1765.000000	0.006316
1764.000000	0.006326
1763.000000	0.006340
1762.000000	0.006342
1761.000000	0.006354
1760.000000	0.006374
1759.000000	0.006373
1758.000000	0.006349
1757.000000	0.006331
1756.000000	0.006321
1755.000000	0.006299
1754.000000	0.006277
1753.000000	0.006299
1752.000000	0.006370
1751.000000	0.006433
1750.000000	0.006457
1749.000000	0.006468
1748.000000	0.006470
1747.000000	0.006443
1746.000000	0.006407
1745.000000	0.006410
1744.000000	0.006439
1743.000000	0.006436
1742.000000	0.006400
1741.000000	0.006382
1740.000000	0.006394
1739.000000	0.006393
1738.000000	0.006382
1737.000000	0.006395
1736.000000	0.006432
1735.000000	0.006453
1734.000000	0.006436
1733.000000	0.006437
1732.000000	0.006485
1731.000000	0.006528
1730.000000	0.006534
1729.000000	0.006532
1728.000000	0.006534
1727.000000	0.006518
1726.000000	0.006503
1725.000000	0.006542
1724.000000	0.006621
1723.000000	0.006676
1722.000000	0.006712
1721.000000	0.006791
1720.000000	0.006920
1719.000000	0.007030
1718.000000	0.007097
1717.000000	0.007196
1716.000000	0.007355
1715.000000	0.007499
1714.000000	0.007607
1713.000000	0.007742
1712.000000	0.007929
1711.000000	0.008140
1710.000000	0.008382
1709.000000	0.008716
1708.000000	0.009157
1707.000000	0.009659
1706.000000	0.010222
1705.000000	0.010884
1704.000000	0.011585
1703.000000	0.012285
1702.000000	0.013194
1701.000000	0.014703
1700.000000	0.016681
1699.000000	0.018495
1698.000000	0.020087
1697.000000	0.021988
1696.000000	0.024443
1695.000000	0.026951
1694.000000	0.028899
1693.000000	0.030275
1692.000000	0.031314
1691.000000	0.032139
1690.000000	0.032791
1689.000000	0.033284
1688.000000	0.033601
1687.000000	0.033764
1686.000000	0.033972
1685.000000	0.034534
1684.000000	0.035436
1683.000000	0.036278
1682.000000	0.036869
1681.000000	0.037376
1680.000000	0.037942
1679.000000	0.038546
1678.000000	0.039164
1677.000000	0.039906
1676.000000	0.040889
1675.000000	0.041995
1674.000000	0.042974
1673.000000	0.043789
1672.000000	0.044591
1671.000000	0.045522
1670.000000	0.046640
1669.000000	0.047860
1668.000000	0.048982
1667.000000	0.049877
1666.000000	0.050623
1665.000000	0.051429
1664.000000	0.052453
1663.000000	0.053659
1662.000000	0.054863
1661.000000	0.055948
1660.000000	0.056929
1659.000000	0.057840
1658.000000	0.058695
1657.000000	0.059464
1656.000000	0.060149
1655.000000	0.060912
1654.000000	0.062226
1653.000000	0.064187
1652.000000	0.065914
1651.000000	0.066858
1650.000000	0.067381
1649.000000	0.067933
1648.000000	0.068816
1647.000000	0.070042
1646.000000	0.071307
1645.000000	0.072346
1644.000000	0.073151
1643.000000	0.073829
1642.000000	0.074497
1641.000000	0.075248
1640.000000	0.076044
1639.000000	0.076757
1638.000000	0.077408
1637.000000	0.078282
1636.000000	0.079591
1635.000000	0.081020
1634.000000	0.082101
1633.000000	0.082827
1632.000000	0.083437
1631.000000	0.084089
1630.000000	0.084878
1629.000000	0.085868
1628.000000	0.086995
1627.000000	0.088069
1626.000000	0.089011
1625.000000	0.089980
1624.000000	0.091176
1623.000000	0.092526
1622.000000	0.093729
1621.000000	0.094598
1620.000000	0.095185
1619.000000	0.095637
1618.000000	0.096148
1617.000000	0.096829
1616.000000	0.097452
1615.000000	0.097608
1614.000000	0.097164
1613.000000	0.096279
1612.000000	0.095122
1611.000000	0.093717
1610.000000	0.092016
1609.000000	0.090037
1608.000000	0.087864
1607.000000	0.085554
1606.000000	0.083120
1605.000000	0.080605
1604.000000	0.078070
1603.000000	0.075549
1602.000000	0.073048
1601.000000	0.070589
1600.000000	0.068214
1599.000000	0.065954
1598.000000	0.063806
1597.000000	0.061764
1596.000000	0.059839
1595.000000	0.058049
1594.000000	0.056381
1593.000000	0.054812
1592.000000	0.053338
1591.000000	0.051984
1590.000000	0.050759
1589.000000	0.049649
1588.000000	0.048652
1587.000000	0.047780
1586.000000	0.047024
1585.000000	0.046346
1584.000000	0.045730
1583.000000	0.045196
1582.000000	0.044755
1581.000000	0.044381
1580.000000	0.044031
1579.000000	0.043690
1578.000000	0.043390
1577.000000	0.043200
1576.000000	0.043158
1575.000000	0.043195
1574.000000	0.043190
1573.000000	0.043096
1572.000000	0.042985
1571.000000	0.043011
1570.000000	0.043249
1569.000000	0.043568
1568.000000	0.043816
1567.000000	0.044011
1566.000000	0.044265
1565.000000	0.044610
1564.000000	0.044972
1563.000000	0.045250
1562.000000	0.045453
1561.000000	0.045773
1560.000000	0.046577
1559.000000	0.047892
1558.000000	0.049106
1557.000000	0.049783
1556.000000	0.050159
1555.000000	0.050592
1554.000000	0.051181
1553.000000	0.051830
1552.000000	0.052456
1551.000000	0.053116
1550.000000	0.053855
1549.000000	0.054587
1548.000000	0.055217
1547.000000	0.055803
1546.000000	0.056476
1545.000000	0.057242
1544.000000	0.057961
1543.000000	0.058550
1542.000000	0.059101
1541.000000	0.059786
1540.000000	0.060621
1539.000000	0.061361
1538.000000	0.061768
1537.000000	0.061875
1536.000000	0.061857
1535.000000	0.061915
1534.000000	0.062180
1533.000000	0.062531
1532.000000	0.062715
1531.000000	0.062677
1530.000000	0.062556
1529.000000	0.062464
1528.000000	0.062408
1527.000000	0.062350
1526.000000	0.062247
1525.000000	0.062049
1524.000000	0.061742
1523.000000	0.061411
1522.000000	0.061209
1521.000000	0.061152
1520.000000	0.061062
1519.000000	0.060834
1518.000000	0.060536
1517.000000	0.060225
1516.000000	0.059821
1515.000000	0.059206
1514.000000	0.058378
1513.000000	0.057421
1512.000000	0.056396
1511.000000	0.055319
1510.000000	0.054198
1509.000000	0.053039
1508.000000	0.051817
1507.000000	0.050501
1506.000000	0.049177
1505.000000	0.047950
1504.000000	0.046843
1503.000000	0.045818
1502.000000	0.044836
1501.000000	0.043933
1500.000000	0.043129
1499.000000	0.042370
1498.000000	0.041608
1497.000000	0.040871
1496.000000	0.040182
1495.000000	0.039531
1494.000000	0.038937
1493.000000	0.038461
1492.000000	0.038138
1491.000000	0.037952
1490.000000	0.037872
1489.000000	0.037889
1488.000000	0.037972
1487.000000	0.038100
1486.000000	0.038310
1485.000000	0.038646
1484.000000	0.039115
1483.000000	0.039710
1482.000000	0.040455
1481.000000	0.041345
1480.000000	0.042293
1479.000000	0.043251
1478.000000	0.044297
1477.000000	0.045504
1476.000000	0.046792
1475.000000	0.048072
1474.000000	0.049442
1473.000000	0.051044
1472.000000	0.052715
1471.000000	0.054126
1470.000000	0.055227
1469.000000	0.056197
1468.000000	0.057168
1467.000000	0.058202
1466.000000	0.059363
1465.000000	0.060646
1464.000000	0.061862
1463.000000	0.062823
1462.000000	0.063570
1461.000000	0.064248
1460.000000	0.064952
1459.000000	0.065782
1458.000000	0.066946
1457.000000	0.068461
1456.000000	0.069829
1455.000000	0.070655
1454.000000	0.071107
1453.000000	0.071476
1452.000000	0.071864
1451.000000	0.072243
1450.000000	0.072607
1449.000000	0.073002
1448.000000	0.073400
1447.000000	0.073707
1446.000000	0.073885
1445.000000	0.073987
1444.000000	0.074059
1443.000000	0.074114
1442.000000	0.074163
1441.000000	0.074187
1440.000000	0.074136
1439.000000	0.074018
1438.000000	0.073942
1437.000000	0.073955
1436.000000	0.073866
1435.000000	0.073459
1434.000000	0.072775
1433.000000	0.071966
1432.000000	0.071115
1431.000000	0.070231
1430.000000	0.069306
1429.000000	0.068339
1428.000000	0.067334
1427.000000	0.066313
1426.000000	0.065310
1425.000000	0.064351
1424.000000	0.063432
1423.000000	0.062521
1422.000000	0.061609
1421.000000	0.060738
1420.000000	0.059981
1419.000000	0.059329
1418.000000	0.058673
1417.000000	0.057934
1416.000000	0.057131
1415.000000	0.056334
1414.000000	0.055587
1413.000000	0.054900
1412.000000	0.054262
1411.000000	0.053663
1410.000000	0.053081
1409.000000	0.052506
1408.000000	0.051955
1407.000000	0.051458
1406.000000	0.051011
1405.000000	0.050582
1404.000000	0.050148
1403.000000	0.049701
1402.000000	0.049256
1401.000000	0.048850
1400.000000	0.048522
1399.000000	0.048262
1398.000000	0.048008
1397.000000	0.047733
1396.000000	0.047486
1395.000000	0.047310
1394.000000	0.047166
1393.000000	0.046987
1392.000000	0.046777
1391.000000	0.046587
1390.000000	0.046441
1389.000000	0.046331
1388.000000	0.046243
1387.000000	0.046140
1386.000000	0.045966
1385.000000	0.045709
1384.000000	0.045423
1383.000000	0.045171
1382.000000	0.044973
1381.000000	0.044811
1380.000000	0.044681
1379.000000	0.044588
1378.000000	0.044515
1377.000000	0.044449
1376.000000	0.044412
1375.000000	0.044434
1374.000000	0.044487
1373.000000	0.044505
1372.000000	0.044460
1371.000000	0.044371
1370.000000	0.044245
1369.000000	0.044057
1368.000000	0.043781
1367.000000	0.043425
1366.000000	0.043018
1365.000000	0.042595
1364.000000	0.042192
1363.000000	0.041822
1362.000000	0.041456
1361.000000	0.041067
1360.000000	0.040676
1359.000000	0.040327
1358.000000	0.040038
1357.000000	0.039794
1356.000000	0.039587
1355.000000	0.039414
1354.000000	0.039264
1353.000000	0.039124
1352.000000	0.038997
1351.000000	0.038896
1350.000000	0.038814
1349.000000	0.038734
1348.000000	0.038655
1347.000000	0.038591
1346.000000	0.038538
1345.000000	0.038481
1344.000000	0.038422
1343.000000	0.038381
1342.000000	0.038369
1341.000000	0.038378
1340.000000	0.038390
1339.000000	0.038388
1338.000000	0.038345
1337.000000	0.038250
1336.000000	0.038122
1335.000000	0.037990
1334.000000	0.037861
1333.000000	0.037731
1332.000000	0.037607
1331.000000	0.037497
1330.000000	0.037395
1329.000000	0.037287
1328.000000	0.037178
1327.000000	0.037079
1326.000000	0.036984
1325.000000	0.036883
1324.000000	0.036782
1323.000000	0.036693
1322.000000	0.036616
1321.000000	0.036542
1320.000000	0.036474
1319.000000	0.036417
1318.000000	0.036354
1317.000000	0.036272
1316.000000	0.036178
1315.000000	0.036093
1314.000000	0.036020
1313.000000	0.035943
1312.000000	0.035859
1311.000000	0.035774
1310.000000	0.035686
1309.000000	0.035592
1308.000000	0.035496
1307.000000	0.035403
1306.000000	0.035304
1305.000000	0.035195
1304.000000	0.035092
1303.000000	0.035012
1302.000000	0.034945
1301.000000	0.034872
1300.000000	0.034789
1299.000000	0.034705
1298.000000	0.034622
1297.000000	0.034538
1296.000000	0.034462
1295.000000	0.034404
1294.000000	0.034361
1293.000000	0.034323
1292.000000	0.034295
1291.000000	0.034284
1290.000000	0.034283
1289.000000	0.034276
1288.000000	0.034265
1287.000000	0.034258
1286.000000	0.034246
1285.000000	0.034222
1284.000000	0.034194
1283.000000	0.034173
1282.000000	0.034156
1281.000000	0.034128
1280.000000	0.034090
1279.000000	0.034053
1278.000000	0.034013
1277.000000	0.033963
1276.000000	0.033910
1275.000000	0.033869
1274.000000	0.033843
1273.000000	0.033827
1272.000000	0.033826
1271.000000	0.033845
1270.000000	0.033875
1269.000000	0.033908
1268.000000	0.033951
1267.000000	0.034019
1266.000000	0.034105
1265.000000	0.034193
1264.000000	0.034288
1263.000000	0.034400
1262.000000	0.034527
1261.000000	0.034653
1260.000000	0.034777
1259.000000	0.034906
1258.000000	0.035039
1257.000000	0.035170
1256.000000	0.035304
1255.000000	0.035453
1254.000000	0.035612
1253.000000	0.035772
1252.000000	0.035932
1251.000000	0.036095
1250.000000	0.036255
1249.000000	0.036403
1248.000000	0.036548
1247.000000	0.036699
1246.000000	0.036852
1245.000000	0.036993
1244.000000	0.037115
1243.000000	0.037220
1242.000000	0.037305
1241.000000	0.037370
1240.000000	0.037427
1239.000000	0.037484
1238.000000	0.037529
1237.000000	0.037549
1236.000000	0.037545
1235.000000	0.037526
1234.000000	0.037488
1233.000000	0.037426
1232.000000	0.037344
1231.000000	0.037253
1230.000000	0.037146
1229.000000	0.037013
1228.000000	0.036857
1227.000000	0.036686
1226.000000	0.036496
1225.000000	0.036278
1224.000000	0.036042
1223.000000	0.035801
1222.000000	0.035553
1221.000000	0.035290
1220.000000	0.035010
1219.000000	0.034722
1218.000000	0.034425
1217.000000	0.034117
1216.000000	0.033804
1215.000000	0.033497
1214.000000	0.033188
1213.000000	0.032866
1212.000000	0.032537
1211.000000	0.032213
1210.000000	0.031897
1209.000000	0.031581
1208.000000	0.031266
1207.000000	0.030959
1206.000000	0.030654
1205.000000	0.030342
1204.000000	0.030029
1203.000000	0.029734
1202.000000	0.029461
1201.000000	0.029204
1200.000000	0.028960
1199.000000	0.028737
1198.000000	0.028528
1197.000000	0.028325
1196.000000	0.028132
1195.000000	0.027957
1194.000000	0.027795
1193.000000	0.027638
1192.000000	0.027489
1191.000000	0.027358
1190.000000	0.027237
1189.000000	0.027117
1188.000000	0.027007
1187.000000	0.026923
1186.000000	0.026861
1185.000000	0.026809
1184.000000	0.026778
1183.000000	0.026788
1182.000000	0.026843
1181.000000	0.026927
1180.000000	0.027039
1179.000000	0.027194
1178.000000	0.027398
1177.000000	0.027649
1176.000000	0.027946
1175.000000	0.028287
1174.000000	0.028653
1173.000000	0.029019
1172.000000	0.029375
1171.000000	0.029726
1170.000000	0.030066
1169.000000	0.030390
1168.000000	0.030701
1167.000000	0.031005
1166.000000	0.031289
1165.000000	0.031532
1164.000000	0.031729
1163.000000	0.031889
1162.000000	0.032010
1161.000000	0.032086
1160.000000	0.032115
1159.000000	0.032094
1158.000000	0.032011
1157.000000	0.031858
1156.000000	0.031653
1155.000000	0.031417
1154.000000	0.031157
1153.000000	0.030868
1152.000000	0.030558
1151.000000	0.030243
1150.000000	0.029925
1149.000000	0.029599
1148.000000	0.029276
1147.000000	0.028975
1146.000000	0.028697
1145.000000	0.028431
1144.000000	0.028176
1143.000000	0.027945
1142.000000	0.027739
1141.000000	0.027555
1140.000000	0.027400
1139.000000	0.027273
1138.000000	0.027156
1137.000000	0.027028
1136.000000	0.026898
1135.000000	0.026789
1134.000000	0.026706
1133.000000	0.026636
1132.000000	0.026572
1131.000000	0.026520
1130.000000	0.026473
1129.000000	0.026420
1128.000000	0.026369
1127.000000	0.026333
1126.000000	0.026304
1125.000000	0.026262
1124.000000	0.026206
1123.000000	0.026157
1122.000000	0.026123
1121.000000	0.026097
1120.000000	0.026085
1119.000000	0.026100
1118.000000	0.026143
1117.000000	0.026193
1116.000000	0.026239
1115.000000	0.026285
1114.000000	0.026334
1113.000000	0.026384
1112.000000	0.026441
1111.000000	0.026518
1110.000000	0.026611
1109.000000	0.026714
1108.000000	0.026826
1107.000000	0.026955
1106.000000	0.027093
1105.000000	0.027225
1104.000000	0.027354
1103.000000	0.027495
1102.000000	0.027650
1101.000000	0.027812
1100.000000	0.027985
1099.000000	0.028178
1098.000000	0.028388
1097.000000	0.028609
1096.000000	0.028849
1095.000000	0.029123
1094.000000	0.029426
1093.000000	0.029746
1092.000000	0.030088
1091.000000	0.030465
1090.000000	0.030870
1089.000000	0.031283
1088.000000	0.031695
1087.000000	0.032117
1086.000000	0.032552
1085.000000	0.032996
1084.000000	0.033457
1083.000000	0.033939
1082.000000	0.034431
1081.000000	0.034913
1080.000000	0.035380
1079.000000	0.035838
1078.000000	0.036287
1077.000000	0.036726
1076.000000	0.037165
1075.000000	0.037608
1074.000000	0.038042
1073.000000	0.038446
1072.000000	0.038820
1071.000000	0.039179
1070.000000	0.039526
1069.000000	0.039855
1068.000000	0.040157
1067.000000	0.040429
1066.000000	0.040664
1065.000000	0.040855
1064.000000	0.041014
1063.000000	0.041150
1062.000000	0.041258
1061.000000	0.041326
1060.000000	0.041356
1059.000000	0.041359
1058.000000	0.041338
1057.000000	0.041292
1056.000000	0.041228
1055.000000	0.041153
1054.000000	0.041062
1053.000000	0.040947
1052.000000	0.040818
1051.000000	0.040689
1050.000000	0.040551
1049.000000	0.040372
1048.000000	0.040138
1047.000000	0.039861
1046.000000	0.039554
1045.000000	0.039224
1044.000000	0.038871
1043.000000	0.038503
1042.000000	0.038126
1041.000000	0.037741
1040.000000	0.037352
1039.000000	0.036974
1038.000000	0.036615
1037.000000	0.036271
1036.000000	0.035940
1035.000000	0.035617
1034.000000	0.035296
1033.000000	0.034964
1032.000000	0.034619
1031.000000	0.034262
1030.000000	0.033888
1029.000000	0.033492
1028.000000	0.033085
1027.000000	0.032691
1026.000000	0.032327
1025.000000	0.032001
1024.000000	0.031715
1023.000000	0.031469
1022.000000	0.031251
1021.000000	0.031042
1020.000000	0.030838
1019.000000	0.030636
1018.000000	0.030426
1017.000000	0.030188
1016.000000	0.029921
1015.000000	0.029640
1014.000000	0.029358
1013.000000	0.029080
1012.000000	0.028816
1011.000000	0.028579
1010.000000	0.028371
1009.000000	0.028182
1008.000000	0.028005
1007.000000	0.027840
1006.000000	0.027688
1005.000000	0.027551
1004.000000	0.027433
1003.000000	0.027335
1002.000000	0.027246
1001.000000	0.027154
1000.000000	0.027060
999.000000	0.026971
998.000000	0.026875
997.000000	0.026756
996.000000	0.026614
995.000000	0.026464
994.000000	0.026316
993.000000	0.026175
992.000000	0.026041
991.000000	0.025917
990.000000	0.025786
989.000000	0.025637
988.000000	0.025483
987.000000	0.025349
986.000000	0.025246
985.000000	0.025164
984.000000	0.025094
983.000000	0.025038
982.000000	0.024990
981.000000	0.024943
980.000000	0.024902
979.000000	0.024878
978.000000	0.024871
977.000000	0.024874
976.000000	0.024883
975.000000	0.024899
974.000000	0.024918
973.000000	0.024931
972.000000	0.024932
971.000000	0.024927
970.000000	0.024919
969.000000	0.024913
968.000000	0.024924
967.000000	0.024964
966.000000	0.025025
965.000000	0.025091
964.000000	0.025157
963.000000	0.025229
962.000000	0.025308
961.000000	0.025385
960.000000	0.025456
959.000000	0.025518
958.000000	0.025561
957.000000	0.025580
956.000000	0.025583
955.000000	0.025583
954.000000	0.025576
953.000000	0.025552
952.000000	0.025507
951.000000	0.025447
950.000000	0.025378
949.000000	0.025304
948.000000	0.025239
947.000000	0.025195
946.000000	0.025168
945.000000	0.025144
944.000000	0.025127
943.000000	0.025129
942.000000	0.025151
941.000000	0.025176
940.000000	0.025197
939.000000	0.025220
938.000000	0.025251
937.000000	0.025288
936.000000	0.025330
935.000000	0.025380
934.000000	0.025428
933.000000	0.025458
932.000000	0.025463
931.000000	0.025444
930.000000	0.025407
929.000000	0.025356
928.000000	0.025301
927.000000	0.025237
926.000000	0.025150
925.000000	0.025029
924.000000	0.024893
923.000000	0.024764
922.000000	0.024636
921.000000	0.024487
920.000000	0.024313
919.000000	0.024128
918.000000	0.023941
917.000000	0.023746
916.000000	0.023550
915.000000	0.023365
914.000000	0.023196
913.000000	0.023036
912.000000	0.022882
911.000000	0.022747
910.000000	0.022634
909.000000	0.022540
908.000000	0.022465
907.000000	0.022416
906.000000	0.022391
905.000000	0.022373
904.000000	0.022356
903.000000	0.022349
902.000000	0.022354
901.000000	0.022359
900.000000	0.022353
899.000000	0.022333
898.000000	0.022304
897.000000	0.022266
896.000000	0.022222
895.000000	0.022177
894.000000	0.022128
893.000000	0.022076
892.000000	0.022027
891.000000	0.021986
890.000000	0.021947
889.000000	0.021900
888.000000	0.021846
887.000000	0.021791
886.000000	0.021731
885.000000	0.021660
884.000000	0.021582
883.000000	0.021508
882.000000	0.021438
881.000000	0.021365
880.000000	0.021293
879.000000	0.021233
878.000000	0.021183
877.000000	0.021127
876.000000	0.021059
875.000000	0.020988
874.000000	0.020919
873.000000	0.020854
872.000000	0.020798
871.000000	0.020756
870.000000	0.020715
869.000000	0.020664
868.000000	0.020607
867.000000	0.020557
866.000000	0.020514
865.000000	0.020468
864.000000	0.020418
863.000000	0.020367
862.000000	0.020319
861.000000	0.020269
860.000000	0.020224
859.000000	0.020187
858.000000	0.020153
857.000000	0.020117
856.000000	0.020093
855.000000	0.020097
854.000000	0.020124
853.000000	0.020151
852.000000	0.020161
851.000000	0.020150
850.000000	0.020117
849.000000	0.020065
848.000000	0.020014
847.000000	0.019983
846.000000	0.019966
845.000000	0.019945
844.000000	0.019916
843.000000	0.019892
842.000000	0.019883
841.000000	0.019890
840.000000	0.019915
839.000000	0.019957
838.000000	0.020008
837.000000	0.020058
836.000000	0.020116
835.000000	0.020190
834.000000	0.020272
833.000000	0.020351
832.000000	0.020432
831.000000	0.020528
830.000000	0.020637
829.000000	0.020742
828.000000	0.020837
827.000000	0.020928
826.000000	0.021010
825.000000	0.021070
824.000000	0.021111
823.000000	0.021154
822.000000	0.021211
821.000000	0.021285
820.000000	0.021371
819.000000	0.021469
818.000000	0.021572
817.000000	0.021678
816.000000	0.021798
815.000000	0.021940
814.000000	0.022095
813.000000	0.022244
812.000000	0.022385
811.000000	0.022527
810.000000	0.022667
809.000000	0.022793
808.000000	0.022905
807.000000	0.023016
806.000000	0.023130
805.000000	0.023240
804.000000	0.023342
803.000000	0.023440
802.000000	0.023539
801.000000	0.023638
800.000000	0.023736
799.000000	0.023830
798.000000	0.023913
797.000000	0.023989
796.000000	0.024078
795.000000	0.024196
794.000000	0.024334
793.000000	0.024471
792.000000	0.024606
791.000000	0.024754
790.000000	0.024919
789.000000	0.025088
788.000000	0.025253
787.000000	0.025418
786.000000	0.025591
785.000000	0.025774
784.000000	0.025969
783.000000	0.026173
782.000000	0.026380
781.000000	0.026582
780.000000	0.026776
779.000000	0.026961
778.000000	0.027140
777.000000	0.027322
776.000000	0.027521
775.000000	0.027736
774.000000	0.027954
773.000000	0.028166
772.000000	0.028379
771.000000	0.028602
770.000000	0.028821
769.000000	0.029018
768.000000	0.029190
767.000000	0.029350
766.000000	0.029504
765.000000	0.029649
764.000000	0.029788
763.000000	0.029937
762.000000	0.030106
761.000000	0.030296
760.000000	0.030503
759.000000	0.030724
758.000000	0.030952
757.000000	0.031176
756.000000	0.031387
755.000000	0.031576
754.000000	0.031737
753.000000	0.031871
752.000000	0.031990
751.000000	0.032106
750.000000	0.032215
749.000000	0.032310
748.000000	0.032386
747.000000	0.032444
746.000000	0.032487
745.000000	0.032521
744.000000	0.032555
743.000000	0.032588
742.000000	0.032604
741.000000	0.032596
740.000000	0.032579
739.000000	0.032579
738.000000	0.032610
737.000000	0.032669
736.000000	0.032754
735.000000	0.032857
734.000000	0.032971
733.000000	0.033090
732.000000	0.033231
731.000000	0.033414
730.000000	0.033640
729.000000	0.033888
728.000000	0.034132
727.000000	0.034362
726.000000	0.034591
725.000000	0.034838
724.000000	0.035115
723.000000	0.035423
722.000000	0.035761
721.000000	0.036123
720.000000	0.036496
719.000000	0.036856
718.000000	0.037195
717.000000	0.037528
716.000000	0.037882
715.000000	0.038263
714.000000	0.038665
713.000000	0.039096
712.000000	0.039585
711.000000	0.040152
710.000000	0.040794
709.000000	0.041493
708.000000	0.042232
707.000000	0.042996
706.000000	0.043772
705.000000	0.044537
704.000000	0.045260
703.000000	0.045899
702.000000	0.046429
701.000000	0.046841
700.000000	0.047138
699.000000	0.047324
698.000000	0.047408
697.000000	0.047408
696.000000	0.047346
695.000000	0.047242
694.000000	0.047124
693.000000	0.047034
692.000000	0.047004
691.000000	0.047036
690.000000	0.047102
689.000000	0.047185
688.000000	0.047282
687.000000	0.047391
686.000000	0.047493
685.000000	0.047572
684.000000	0.047635
683.000000	0.047700
682.000000	0.047777
681.000000	0.047859
680.000000	0.047942
679.000000	0.048036
678.000000	0.048155
677.000000	0.048296
676.000000	0.048433
675.000000	0.048537
674.000000	0.048608
673.000000	0.048668
672.000000	0.048739
671.000000	0.048830
670.000000	0.048954
669.000000	0.049130
668.000000	0.049320
667.000000	0.049419
666.000000	0.049388
665.000000	0.049310
664.000000	0.049270
663.000000	0.049296
662.000000	0.049363
661.000000	0.049435
660.000000	0.049497
659.000000	0.049559
658.000000	0.049633
657.000000	0.049740
656.000000	0.049896
655.000000	0.050091
654.000000	0.050282
653.000000	0.050439
652.000000	0.050569
651.000000	0.050689
650.000000	0.050810
649.000000	0.050935
648.000000	0.051081
647.000000	0.051258
646.000000	0.051466
645.000000	0.051697
644.000000	0.051942
643.000000	0.052189
642.000000	0.052421
641.000000	0.052644
640.000000	0.052874
639.000000	0.053122
638.000000	0.053374
637.000000	0.053623
636.000000	0.053874
635.000000	0.054142
634.000000	0.054424
633.000000	0.054701
632.000000	0.054945
631.000000	0.055134
630.000000	0.055269
629.000000	0.055374
628.000000	0.055467
627.000000	0.055547
626.000000	0.055610
625.000000	0.055661
624.000000	0.055700
623.000000	0.055711
622.000000	0.055689
621.000000	0.055661
620.000000	0.055647
619.000000	0.055634
618.000000	0.055581
617.000000	0.055473
616.000000	0.055324
615.000000	0.055166
614.000000	0.055026
613.000000	0.054923
612.000000	0.054851
611.000000	0.054782
610.000000	0.054696
609.000000	0.054598
608.000000	0.054504
607.000000	0.054414
606.000000	0.054317
605.000000	0.054218
604.000000	0.054131
603.000000	0.054065
602.000000	0.054023
601.000000	0.054011
600.000000	0.054026
599.000000	0.054038
598.000000	0.054014
597.000000	0.053958
596.000000	0.053908
595.000000	0.053884
594.000000	0.053874
593.000000	0.053860
592.000000	0.053855
591.000000	0.053883
590.000000	0.053954
589.000000	0.054054
588.000000	0.054162
587.000000	0.054252
586.000000	0.054307
585.000000	0.054334
584.000000	0.054364
583.000000	0.054422
582.000000	0.054510
581.000000	0.054616
580.000000	0.054740
579.000000	0.054888
578.000000	0.055058
577.000000	0.055228
576.000000	0.055369
575.000000	0.055459
574.000000	0.055511
573.000000	0.055570
572.000000	0.055681
571.000000	0.055853
570.000000	0.056065
569.000000	0.056299
568.000000	0.056552
567.000000	0.056814
566.000000	0.057061
565.000000	0.057271
564.000000	0.057455
563.000000	0.057645
562.000000	0.057870
561.000000	0.058126
560.000000	0.058364
559.000000	0.058543
558.000000	0.058688
557.000000	0.058881
556.000000	0.059169
555.000000	0.059512
554.000000	0.059839
553.000000	0.060132
552.000000	0.060432
551.000000	0.060769
550.000000	0.061136
549.000000	0.061517
548.000000	0.061900
547.000000	0.062280
546.000000	0.062676
545.000000	0.063119
544.000000	0.063606
543.000000	0.064090
542.000000	0.064531
541.000000	0.064945
540.000000	0.065356
539.000000	0.065751
538.000000	0.066116
537.000000	0.066481
536.000000	0.066879
535.000000	0.067289
534.000000	0.067676
533.000000	0.068037
532.000000	0.068374
531.000000	0.068658
530.000000	0.068891
529.000000	0.069156
528.000000	0.069519
527.000000	0.069927
526.000000	0.070260
525.000000	0.070484
524.000000	0.070672
523.000000	0.070891
522.000000	0.071133
521.000000	0.071365
520.000000	0.071566
519.000000	0.071724
518.000000	0.071840
517.000000	0.071929
516.000000	0.071984
515.000000	0.071984
514.000000	0.071962
513.000000	0.072000
512.000000	0.072123
511.000000	0.072253
510.000000	0.072319
509.000000	0.072344
508.000000	0.072394
507.000000	0.072469
506.000000	0.072525
505.000000	0.072548
504.000000	0.072561
503.000000	0.072567
502.000000	0.072562
501.000000	0.072555
500.000000	0.072529
499.000000	0.072436
498.000000	0.072281
497.000000	0.072154
496.000000	0.072127
495.000000	0.072167
494.000000	0.072199
493.000000	0.072211
492.000000	0.072240
491.000000	0.072295
490.000000	0.072358
489.000000	0.072418
488.000000	0.072450
487.000000	0.072407
486.000000	0.072292
485.000000	0.072176
484.000000	0.072103
483.000000	0.072043
482.000000	0.071990
481.000000	0.072019
480.000000	0.072165
479.000000	0.072329
478.000000	0.072390
477.000000	0.072366
476.000000	0.072374
475.000000	0.072475
474.000000	0.072652
473.000000	0.072876
472.000000	0.073113
471.000000	0.073296
470.000000	0.073403
469.000000	0.073480
468.000000	0.073535
467.000000	0.073490
466.000000	0.073325
465.000000	0.073190
464.000000	0.073248
463.000000	0.073459
462.000000	0.073631
461.000000	0.073658
460.000000	0.073618
459.000000	0.073633
458.000000	0.073729
457.000000	0.073834
456.000000	0.073871
455.000000	0.073857
454.000000	0.073887
453.000000	0.074018
452.000000	0.074156
451.000000	0.074138
450.000000	0.073940
449.000000	0.073689
448.000000	0.073478
447.000000	0.073285
446.000000	0.073099
445.000000	0.072991
444.000000	0.073006
443.000000	0.073077
442.000000	0.073122
441.000000	0.073101
440.000000	0.072954
439.000000	0.072610
438.000000	0.072128
437.000000	0.071711
436.000000	0.071482
435.000000	0.071349
434.000000	0.071191
433.000000	0.071037
432.000000	0.070953
431.000000	0.070910
430.000000	0.070880
429.000000	0.070929
428.000000	0.071069
427.000000	0.071154
426.000000	0.071063
425.000000	0.070884
424.000000	0.070754
423.000000	0.070632
422.000000	0.070416
421.000000	0.070170
420.000000	0.070027
419.000000	0.069939
418.000000	0.069742
417.000000	0.069451
416.000000	0.069175
415.000000	0.068909
414.000000	0.068602
413.000000	0.068295
412.000000	0.068043
411.000000	0.067800
410.000000	0.067521
409.000000	0.067277
408.000000	0.067103
407.000000	0.066865
406.000000	0.066495
405.000000	0.066193
404.000000	0.066160
403.000000	0.066281
402.000000	0.066270
401.000000	0.066055
400.000000	0.065775
