##TITLE= Sample 144 By YargerLab Date Wednesday, June 05 2024
##JCAMP-DX= 4.24
##DATA TYPE= INFRARED SPECTRUM
##ORIGIN= Exported PE Spectrum Data File
##OWNER= Yarger Lab
##DATE= 24/06/05
##TIME= 20:05:26.00
##SPECTROMETER/DATA SYSTEM= PERKIN-ELMER Spectrum Two IR
##INSTRUMENT PARAMETERS=
  APODIZATION=Strong
  DETECTOR=LiTa03
##RESOLUTION= 4.000000
##DELTAX= -1.000000
##XUNITS= 1/CM
##YUNITS= A
##XFACTOR= 1.00
##YFACTOR= 0.00000000023841857910
##FIRSTX= 4000.00
##LASTX= 400.00
##NPOINTS= 3601
##FIRSTY= 0.008757
##MAXY= 0.116673
##MINY= 0.007230
##XYDATA= (X++(Y..Y))
  4000.000000   036730752   036726526   036702197   036674814   036657095  
  3995.000000   036646142   036630548   036607637   036590662   036598230  
  3990.000000   036636653   036691492   036735041   036742898   036708874  
  3985.000000   036648842   036592274   036567294   036587185   036644957  
  3980.000000   036718472   036783241   036822682   036832044   036817925  
  3975.000000   036794602   036776425   036767084   036757695   036738292  
  3970.000000   036710668   036687835   036681740   036694738   036720576  
  3965.000000   036747856   036761917   036750119   036709587   036649004  
  3960.000000   036584081   036530595   036498625   036488229   036490657  
  3955.000000   036498207   036511022   036532006   036556664   036572562  
  3950.000000   036570986   036555129   036535725   036523030   036520938  
  3945.000000   036523777   036522066   036514179   036505906   036500879  
  3940.000000   036499617   036501490   036502101   036491396   036460093  
  3935.000000   036412587   036367724   036342133   036335651   036336585  
  3930.000000   036343133   036367410   036415123   036470442   036508044  
  3925.000000   036514043   036488361   036439829   036387336   036352249  
  3920.000000   036343219   036351769   036362245   036360296   036334705  
  3915.000000   036284469   036228425   036192930   036190224   036207786  
  3910.000000   036220476   036210767   036176199   036124528   036068135  
  3905.000000   036027022   036019325   036039764   036067755   036088184  
  3900.000000   036096596   036093219   036081541   036068168   036061108  
  3895.000000   036058467   036045359   036007774   035959965   035921115  
  3890.000000   035891583   035874549   035869919   035865571   035859804  
  3885.000000   035847955   035814706   035763983   035728300   035750822  
  3880.000000   035831131   035907170   035939442   035941017   035929678  
  3875.000000   035915281   035911979   035917522   035900862   035848838  
  3870.000000   035802432   035790212   035797109   035807666   035818026  
  3865.000000   035828650   035841126   035853600   035875230   035915582  
  3860.000000   035964505   036007636   036051172   036108569   036145250  
  3855.000000   036073960   035952445   035915847   035903900   035840537  
  3850.000000   035766661   035727058   035717864   035711349   035691087  
  3845.000000   035656659   035617391   035588287   035588695   035619013  
  3840.000000   035652892   035671931   035677547   035662213   035610319  
  3835.000000   035529444   035450548   035401518   035384558   035380719  
  3830.000000   035375433   035364870   035351496   035344448   035357314  
  3825.000000   035394964   035440040   035447004   035415954   035416783  
  3820.000000   035448511   035463378   035450801   035438363   035465361  
  3815.000000   035517973   035562240   035597494   035632946   035663184  
  3810.000000   035670726   035633873   035563200   035508112   035497798  
  3805.000000   035520677   035537937   035502064   035438000   035388702  
  3800.000000   035320457   035216969   035125553   035097172   035132819  
  3795.000000   035191360   035242850   035286596   035323548   035348691  
  3790.000000   035364182   035375199   035376470   035362088   035347332  
  3785.000000   035355938   035382727   035394418   035364722   035289168  
  3780.000000   035196866   035136984   035138629   035191682   035260089  
  3775.000000   035311454   035339552   035355768   035368109   035384588  
  3770.000000   035411904   035429547   035404756   035344242   035294198  
  3765.000000   035280113   035277835   035254833   035214099   035176586  
  3760.000000   035160132   035170167   035200016   035239301   035279107  
  3755.000000   035314974   035340229   035338005   035307935   035296910  
  3750.000000   035313590   035298854   035221837   035105722   035001806  
  3745.000000   035005336   035114094   035179198   035157701   035135533  
  3740.000000   035167656   035240984   035299724   035287792   035192396  
  3735.000000   035055804   034948162   034914488   034936640   034969526  
  3730.000000   035007710   035069934   035142472   035182567   035164826  
  3725.000000   035099794   035017602   034950210   034921895   034927797  
  3720.000000   034932301   034911153   034883107   034887631   034942306  
  3715.000000   035029436   035106775   035118635   035048429   034948585  
  3710.000000   034895658   034918731   034980448   035031138   035057240  
  3705.000000   035064219   035041607   034987353   034944646   034956946  
  3700.000000   035001120   035029869   035037266   035050917   035085889  
  3695.000000   035137608   035210562   035307335   035392316   035418164  
  3690.000000   035421599   035484312   035579026   035622976   035615589  
  3685.000000   035607567   035621520   035660093   035741893   035897967  
  3680.000000   036135096   036418383   036679695   036843664   036930813  
  3675.000000   036994940   037020548   037006620   036958164   036877657  
  3670.000000   036840044   036902053   037022783   037152559   037285388  
  3665.000000   037424984   037557471   037664897   037747800   037821666  
  3660.000000   037895401   037971826   038063757   038191824   038341016  
  3655.000000   038461320   038553368   038673225   038832110   038972861  
  3650.000000   039088761   039253536   039485462   039726322   039936011  
  3645.000000   040110847   040256791   040387201   040528300   040698298  
  3640.000000   040884213   041063545   041235009   041408372   041579105  
  3635.000000   041737719   041893385   042067300   042270987   042493599  
  3630.000000   042741153   043058005   043377278   043582120   043700068  
  3625.000000   043826220   043994211   044186571   044393624   044626177  
  3620.000000   044888641   045160909   045405650   045608777   045791475  
  3615.000000   045986875   046219880   046481209   046728456   046948093  
  3610.000000   047186718   047483172   047805121   048091255   048331938  
  3605.000000   048561448   048790981   049008006   049219253   049448245  
  3600.000000   049686755   049903277   050099819   050313669   050565718  
  3595.000000   050842067   051117388   051365087   051569339   051752685  
  3590.000000   051974855   052280948   052662098   053056807   053401772  
  3585.000000   053684628   053926821   054155419   054395897   054659558  
  3580.000000   054933614   055207773   055500194   055827618   056169212  
  3575.000000   056489953   056786271   057073616   057355657   057641127  
  3570.000000   057967919   058366780   058813624   059245232   059607893  
  3565.000000   059891551   060124245   060350125   060613172   060927556  
  3560.000000   061261322   061575065   061869704   062171567   062486427  
  3555.000000   062800208   063113709   063439881   063769579   064080209  
  3550.000000   064379295   064701728   065063592   065451713   065848680  
  3545.000000   066233138   066570249   066840936   067073062   067316041  
  3540.000000   067594202   067908029   068260282   068646211   069028969  
  3535.000000   069366485   069660252   069945957   070244867   070554069  
  3530.000000   070873848   071208962   071549259   071883453   072224952  
  3525.000000   072589689   072957521   073291489   073588723   073880786  
  3520.000000   074190016   074518227   074865075   075225109   075576878  
  3515.000000   075905915   076228915   076568365   076918066   077264259  
  3510.000000   077622528   078013159   078418642   078811683   079205084  
  3505.000000   079629314   080073672   080493068   080869309   081226432  
  3500.000000   081585805   081947399   082313666   082692612   083075877  
  3495.000000   083445587   083802825   084161912   084525981   084897986  
  3490.000000   085302874   085760965   086244191   086695847   087092508  
  3485.000000   087456748   087818401   088197002   088610355   089058592  
  3480.000000   089507721   089925883   090325709   090739036   091162706  
  3475.000000   091565926   091941354   092312733   092698166   093099797  
  3470.000000   093520798   093956103   094375019   094749496   095093541  
  3465.000000   095442168   095802191   096160268   096524163   096910652  
  3460.000000   097300283   097650764   097954846   098250315   098573218  
  3455.000000   098933169   099327340   099743986   100157936   100555634  
  3450.000000   100959874   101398237   101851869   102269184   102627082  
  3445.000000   102948517   103265324   103596650   103957901   104355544  
  3440.000000   104774770   105198865   105631827   106076602   106504976  
  3435.000000   106883834   107224126   107572005   107957488   108378247  
  3430.000000   108823096   109279377   109725420   110147347   110557678  
  3425.000000   110971803   111377697   111758069   112129482   112525695  
  3420.000000   112951907   113390069   113837930   114304302   114773604  
  3415.000000   115212290   115608649   115977529   116332779   116683319  
  3410.000000   117046133   117429541   117810564   118160221   118484615  
  3405.000000   118813528   119159496   119520361   119907411   120331842  
  3400.000000   120769857   121177699   121538203   121864124   122166937  
  3395.000000   122457453   122766853   123126747   123530525   123944603  
  3390.000000   124351785   124754950   125150140   125530876   125908988  
  3385.000000   126296812   126678600   127035540   127390252   127786890  
  3380.000000   128232432   128695123   129156435   129626233   130105667  
  3375.000000   130571243   131000629   131389681   131749903   132116184  
  3370.000000   132546913   133083452   133710880   134381375   135065966  
  3365.000000   135756179   136432869   137074669   137692367   138319163  
  3360.000000   138970205   139640240   140327842   141025127   141693180  
  3355.000000   142290246   142829304   143378455   144003950   144735101  
  3350.000000   145569008   146469612   147363642   148179360   148906835  
  3345.000000   149602688   150333337   151123662   151950449   152769653  
  3340.000000   153560344   154361306   155250040   156262475   157349472  
  3335.000000   158429418   159461722   160448523   161393976   162298560  
  3330.000000   163175733   164041350   164904094   165795222   166779019  
  3325.000000   167891389   169084298   170269597   171405492   172507675  
  3320.000000   173597486   174684779   175786828   176917132   178056903  
  3315.000000   179168323   180229313   181228787   182150157   183000216  
  3310.000000   183839383   184744103   185749516   186858050   188079332  
  3305.000000   189410699   190791972   192134141   193388625   194551123  
  3300.000000   195610779   196546755   197373517   198141395   198888772  
  3295.000000   199630491   200393097   201217663   202114067   203040570  
  3290.000000   203931606   204727411   205387876   205910691   206333424  
  3285.000000   206687336   206963160   207143833   207247903   207300585  
  3280.000000   207272033   207101920   206783709   206377188   205931846  
  3275.000000   205432201   204839061   204160527   203465371   202838083  
  3270.000000   202311213   201824343   201259604   200535965   199664152  
  3265.000000   198699790   197671693   196584264   195454027   194294167  
  3260.000000   193077252   191768523   190402540   189080530   187882690  
  3255.000000   186806596   185784630   184729282   183563460   182254506  
  3250.000000   180849853   179468576   178240163   177238210   176441668  
  3245.000000   175739731   174999712   174164530   173280219   172415232  
  3240.000000   171569209   170676208   169675071   168557140   167381283  
  3235.000000   166278607   165405195   164827169   164452711   164108493  
  3230.000000   163678702   163146389   162533726   161864814   161176950  
  3225.000000   160509050   159863114   159209658   158537967   157872904  
  3220.000000   157240324   156643048   156070182   155507822   154944424  
  3215.000000   154387914   153868599   153398866   152941151   152440624  
  3210.000000   151880373   151283655   150679916   150095782   149556898  
  3205.000000   149060532   148556640   147990786   147361280   146708246  
  3200.000000   146061908   145428942   144810010   144195424   143556629  
  3195.000000   142879005   142192196   141537128   140915201   140296225  
  3190.000000   139659412   138994509   138287150   137543134   136807815  
  3185.000000   136117936   135445809   134734412   133975783   133213007  
  3180.000000   132475757   131757770   131050711   130357443   129672661  
  3175.000000   128985806   128300609   127621050   126927873   126203234  
  3170.000000   125469462   124768330   124110121   123474736   122850030  
  3165.000000   122232428   121603155   120944512   120271968   119613352  
  3160.000000   118964427   118299347   117612452   116913015   116194874  
  3155.000000   115457209   114746681   114131735   113631293   113204459  
  3150.000000   112804014   112403104   111980238   111522968   111047769  
  3145.000000   110576404   110091692   109554290   108965874   108384765  
  3140.000000   107877314   107477041   107180852   106949126   106713218  
  3135.000000   106416073   106049644   105639895   105214722   104811906  
  3130.000000   104488462   104272754   104117923   103940683   103695931  
  3125.000000   103381593   102996185   102548130   102096263   101723128  
  3120.000000   101462013   101288950   101183945   101156356   101207614  
  3115.000000   101309883   101421498   101496240   101491323   101408418  
  3110.000000   101322107   101322452   101427847   101582695   101727015  
  3105.000000   101826289   101849529   101782098   101673801   101627340  
  3100.000000   101715597   101930513   102211135   102487635   102699382  
  3095.000000   102813602   102844571   102839302   102843393   102889433  
  3090.000000   102992826   103126316   103218687   103221541   103169530  
  3085.000000   103134784   103132921   103117884   103063716   103007912  
  3080.000000   103015304   103137265   103396829   103763166   104135947  
  3075.000000   104401411   104516015   104507502   104399918   104186707  
  3070.000000   103886696   103580289   103363620   103281427   103311736  
  3065.000000   103391649   103449012   103431863   103318912   103098849  
  3060.000000   102757385   102308859   101826542   101398828   101045592  
  3055.000000   100702439   100296559   099824925   099357640   098975398  
  3050.000000   098690127   098412280   098014664   097451025   096798883  
  3045.000000   096175092   095642339   095219490   094933782   094794602  
  3040.000000   094725294   094583467   094270080   093802111   093287219  
  3035.000000   092848949   092557158   092390130   092263358   092113406  
  3030.000000   091934688   091718671   091407517   090963164   090452464  
  3025.000000   089995712   089632463   089294738   088910596   088477794  
  3020.000000   088030304   087587563   087158028   086754600   086390668  
  3015.000000   086085432   085879493   085816373   085901385   086098334  
  3010.000000   086356405   086619327   086825669   086943083   087003393  
  3005.000000   087072003   087182303   087318088   087448708   087557743  
  3000.000000   087655791   087795447   088051820   088447826   088916652  
  2995.000000   089379494   089846171   090396261   091074322   091854090  
  2990.000000   092693209   093568915   094459409   095338769   096199776  
  2985.000000   097046340   097867754   098660120   099467362   100354745  
  2980.000000   101334700   102355351   103365023   104353192   105330416  
  2975.000000   106305734   107287304   108272503   109237310   110163643  
  2970.000000   111067641   111968057   112834597   113606775   114259360  
  2965.000000   114814911   115302921   115739493   116133673   116468493  
  2960.000000   116686186   116740062   116649339   116461129   116174148  
  2955.000000   115759073   115249057   114745095   114323830   113991129  
  2950.000000   113737616   113587242   113578696   113746112   114132091  
  2945.000000   114779429   115685220   116794416   118046956   119404322  
  2940.000000   120831182   122287680   123754331   125230906   126703117  
  2935.000000   128133594   129488597   130754847   131937953   133075684  
  2930.000000   134239270   135476716   136752172   137976189   139097045  
  2925.000000   140127346   141085491   141948903   142658592   143134781  
  2920.000000   143276782   142977249   142142214   140686574   138553084  
  2915.000000   135783704   132575373   129216416   125959010   122965864  
  2910.000000   120330433   118084318   116174740   114502470   113008432  
  2905.000000   111695479   110570371   109604222   108751109   107962905  
  2900.000000   107186229   106385288   105582677   104842415   104201875  
  2895.000000   103648453   103158624   102721290   102318903   101926529  
  2890.000000   101543475   101198128   100915083   100702120   100569042  
  2885.000000   100527632   100570199   100675947   100838714   101058998  
  2880.000000   101310036   101540253   101709365   101800060   101805092  
  2875.000000   101737256   101638186   101530957   101365091   101051085  
  2870.000000   100556168   099936211   099278750   098654396   098118748  
  2865.000000   097709136   097430388   097283812   097315323   097593633  
  2860.000000   098131304   098869581   099750562   100765350   101921703  
  2855.000000   103205399   104571877   105912338   107001522   107512562  
  2850.000000   107141501   105752422   103436195   100477439   097263669  
  2845.000000   094153471   091360538   088937670   086851055   085065229  
  2840.000000   083569677   082357962   081403145   080642282   079990898  
  2835.000000   079392078   078844005   078362804   077934882   077528650  
  2830.000000   077139510   076786908   076471334   076167969   075860185  
  2825.000000   075551374   075245931   074946976   074670121   074431388  
  2820.000000   074223410   074027485   073841255   073668458   073492070  
  2815.000000   073289495   073067424   072850423   072643487   072437729  
  2810.000000   072244024   072083282   071946467   071800023   071629013  
  2805.000000   071443140   071244665   071025452   070795123   070579132  
  2800.000000   070389171   070222999   070086652   069984233   069890486  
  2795.000000   069767988   069609747   069436495   069261822   069092346  
  2790.000000   068950976   068858233   068792189   068704805   068577188  
  2785.000000   068428049   068276649   068133871   068020406   067948711  
  2780.000000   067886017   067776072   067602023   067395475   067187889  
  2775.000000   066991736   066825321   066709538   066631107   066546626  
  2770.000000   066432176   066299431   066162576   066023229   065889758  
  2765.000000   065775894   065674646   065563879   065440322   065319044  
  2760.000000   065200865   065073038   064941149   064825144   064721658  
  2755.000000   064603865   064461671   064311124   064162494   064011804  
  2750.000000   063867899   063755503   063683428   063634593   063590553  
  2745.000000   063542865   063482244   063401851   063309844   063216690  
  2740.000000   063116573   063004037   062897063   062814338   062740832  
  2735.000000   062648422   062540557   062442095   062353125   062248428  
  2730.000000   062117450   061971358   061817683   061662649   061530630  
  2725.000000   061443573   061384938   061317884   061233330   061146680  
  2720.000000   061057418   060951088   060833706   060723536   060613428  
  2715.000000   060481187   060334060   060203547   060098213   059999465  
  2710.000000   059900819   059811991   059725515   059619184   059493915  
  2705.000000   059374461   059272071   059178553   059092788   059018346  
  2700.000000   058939928   058839797   058734750   058658986   058612718  
  2695.000000   058563667   058496601   058425472   058359475   058294375  
  2690.000000   058235344   058191853   058150725   058087649   058002623  
  2685.000000   057912496   057816642   057705097   057592009   057503087  
  2680.000000   057437035   057377152   057330080   057310794   057299349  
  2675.000000   057260289   057200198   057158695   057144016   057123304  
  2670.000000   057077851   057023534   056974371   056928194   056891066  
  2665.000000   056872994   056855765   056805685   056722951   056642124  
  2660.000000   056582851   056538058   056509177   056509282   056527495  
  2655.000000   056533326   056521574   056513576   056511542   056493263  
  2650.000000   056454392   056413538   056372945   056318269   056261162  
  2645.000000   056235759   056245852   056257626   056249555   056228468  
  2640.000000   056196182   056145702   056093246   056066732   056059152  
  2635.000000   056039008   056006207   055989686   055991070   055983390  
  2630.000000   055966322   055967360   055985041   055986216   055962964  
  2625.000000   055938204   055912258   055863059   055803499   055778011  
  2620.000000   055793960   055811055   055804517   055781071   055732201  
  2615.000000   055636360   055515763   055428832   055395268   055384836  
  2610.000000   055380916   055390547   055391014   055342143   055264633  
  2605.000000   055233319   055272301   055319246   055309407   055235281  
  2600.000000   055114357   054968550   054851781   054826660   054884568  
  2595.000000   054942965   054940049   054882062   054793181   054684120  
  2590.000000   054583932   054536772   054544408   054562232   054561978  
  2585.000000   054545923   054500164   054400970   054275035   054186649  
  2580.000000   054151990   054126672   054084564   054044747   054013389  
  2575.000000   053967723   053911061   053878310   053870983   053845746  
  2570.000000   053781641   053703621   053630994   053556044   053481552  
  2565.000000   053427608   053397780   053383985   053396354   053437960  
  2560.000000   053466529   053440336   053383953   053345757   053312811  
  2555.000000   053240699   053145163   053084048   053062802   053039724  
  2550.000000   053010357   053003643   053009274   052995901   052988633  
  2545.000000   053034968   053102732   053108373   053046107   052994738  
  2540.000000   052993099   053000971   052988368   052972563   052957428  
  2535.000000   052923217   052888751   052902186   052959955   053008703  
  2530.000000   053029875   053048426   053061975   053044290   053016092  
  2525.000000   053031073   053093061   053166732   053260510   053410577  
  2520.000000   053588559   053716286   053770482   053789696   053789985  
  2515.000000   053767564   053774211   053881841   054067723   054235906  
  2510.000000   054360999   054512811   054732162   054979718   055222329  
  2505.000000   055474652   055736953   055983440   056229212   056526559  
  2500.000000   056879645   057240839   057600160   057997432   058438911  
  2495.000000   058886343   059334365   059816517   060328280   060826484  
  2490.000000   061309657   061813974   062327263   062792857   063206040  
  2485.000000   063618771   064043061   064436006   064788026   065137338  
  2480.000000   065485625   065790301   066054646   066338960   066661569  
  2475.000000   066967750   067217678   067434718   067649650   067863708  
  2470.000000   068075620   068280722   068439611   068514473   068536296  
  2465.000000   068566935   068604192   068600943   068570092   068581445  
  2460.000000   068651282   068719967   068747911   068753425   068749989  
  2455.000000   068727064   068701552   068711451   068750356   068779883  
  2450.000000   068805661   068864368   068939966   068980740   068999264  
  2445.000000   069068854   069213016   069381557   069543458   069720749  
  2440.000000   069924275   070135261   070358520   070621764   070918215  
  2435.000000   071219058   071536307   071899326   072282887   072637070  
  2430.000000   072974617   073342196   073718093   074029267   074261902  
  2425.000000   074464920   074652137   074797505   074917123   075054058  
  2420.000000   075179134   075205834   075116430   074981083   074843946  
  2415.000000   074678825   074462737   074203116   073879286   073450163  
  2410.000000   072941149   072439030   071983452   071533072   071047857  
  2405.000000   070528770   069967379   069341183   068671212   068009308  
  2400.000000   067359239   066681691   065982395   065316677   064695646  
  2395.000000   064065075   063393477   062715764   062077616   061495834  
  2390.000000   060973891   060495714   060005932   059460180   058894174  
  2385.000000   058379282   057924495   057486823   057063151   056695718  
  2380.000000   056389762   056109448   055851267   055636893   055433257  
  2375.000000   055171996   054861674   054582709   054357398   054126395  
  2370.000000   053868143   053630196   053430262   053243778   053097230  
  2365.000000   053048377   053055075   052987744   052806758   052598502  
  2360.000000   052415318   052237281   052064800   051925996   051813039  
  2355.000000   051670938   051495429   051331392   051203103   051086748  
  2350.000000   050962305   050844572   050721167   050558212   050387394  
  2345.000000   050299462   050287837   050212270   050031261   049846594  
  2340.000000   049725811   049632809   049539778   049483385   049462248  
  2335.000000   049405690   049270760   049110265   048989643   048943640  
  2330.000000   048984592   049128656   049286678   049309162   049118818  
  2325.000000   048795216   048475549   048235314   048101983   048086306  
  2320.000000   048154664   048238064   048285601   048292634   048237452  
  2315.000000   048110981   047957742   047853084   047787670   047699633  
  2310.000000   047577971   047482824   047424691   047354126   047253258  
  2305.000000   047164262   047098794   047028038   046961808   046956826  
  2300.000000   047011387   047061466   047072253   047073205   047074882  
  2295.000000   047064224   047062029   047107846   047176564   047212166  
  2290.000000   047227267   047262383   047266727   047151984   046961664  
  2285.000000   046835974   046800736   046739171   046594824   046444360  
  2280.000000   046348171   046285455   046264186   046329262   046426831  
  2275.000000   046425418   046304822   046171856   046067052   045930770  
  2270.000000   045784206   045751325   045855394   045970708   046019687  
  2265.000000   046043240   046045076   045958264   045807266   045714539  
  2260.000000   045700468   045654279   045541941   045453693   045408132  
  2255.000000   045308609   045138009   045003493   044944158   044895029  
  2250.000000   044866866   044954049   045123811   045219406   045208636  
  2245.000000   045212052   045247612   045181731   044992383   044840400  
  2240.000000   044809204   044795286   044733562   044707781   044760366  
  2235.000000   044805778   044804166   044812649   044802184   044649103  
  2230.000000   044375007   044181173   044166859   044219436   044232324  
  2225.000000   044220198   044177385   044048918   043887913   043821987  
  2220.000000   043832945   043793154   043729427   043792451   043954980  
  2215.000000   044017052   043942197   043900321   043944832   043934966  
  2210.000000   043823378   043731260   043688835   043590983   043455864  
  2205.000000   043441019   043550813   043617710   043608793   043658737  
  2200.000000   043765395   043769992   043674212   043658917   043743619  
  2195.000000   043748761   043643109   043594067   043634602   043618800  
  2190.000000   043559051   043648383   043890121   044052836   044050597  
  2185.000000   044004020   043892348   043557768   043110889   042894661  
  2180.000000   042950492   042960276   042785104   042639707   042643522  
  2175.000000   042636293   042558282   042589861   042786138   042961968  
  2170.000000   043049104   043198024   043425409   043532357   043482110  
  2165.000000   043447117   043356513   042832340   041781870   040664065  
  2160.000000   039956099   039706982   039792273   040122706   040474848  
  2155.000000   040597357   040548421   040586595   040740786   040826378  
  2150.000000   040828801   040903774   041029029   041034663   040957368  
  2145.000000   040992067   041118075   041136595   041061258   041099921  
  2140.000000   041257948   041307783   041183274   041073883   041102580  
  2135.000000   041203787   041340768   041553150   041777007   041883113  
  2130.000000   041898631   041970187   042110669   042199706   042221802  
  2125.000000   042291653   042437122   042558332   042605953   042620433  
  2120.000000   042610044   042569013   042588087   042752436   042955187  
  2115.000000   043010234   042923940   042847176   042803780   042694509  
  2110.000000   042545593   042491820   042519752   042481767   042366568  
  2105.000000   042305541   042309368   042260216   042170906   042185716  
  2100.000000   042294989   042312023   042162729   041959460   041766848  
  2095.000000   041545721   041342024   041271352   041303158   041304375  
  2090.000000   041296828   041422155   041651712   041788878   041774630  
  2085.000000   041727676   041673363   041505680   041259126   041136741  
  2080.000000   041198542   041273118   041238066   041146991   041033804  
  2075.000000   040853716   040664463   040606420   040644998   040583838  
  2070.000000   040366738   040123305   039914610   039713613   039629751  
  2065.000000   039821390   040150443   040264196   040073138   039828653  
  2060.000000   039700435   039591176   039426484   039314086   039331428  
  2055.000000   039414730   039500222   039533851   039366395   038938253  
  2050.000000   038551885   038600618   038989832   039264378   039276060  
  2045.000000   039238548   039189483   038954321   038631458   038549539  
  2040.000000   038692665   038716891   038577234   038561963   038669205  
  2035.000000   038550466   038169323   037890562   037826385   037714685  
  2030.000000   037501272   037410987   037408998   037225582   036946813  
  2025.000000   036953779   037238251   037411098   037411556   037587418  
  2020.000000   038036943   038483262   038819674   039171265   039389524  
  2015.000000   039114682   038399685   037709064   037267570   036926464  
  2010.000000   036680144   036734595   037018221   037196235   037223195  
  2005.000000   037341825   037570835   037714632   037802340   038015092  
  2000.000000   038248355   038234303   038034676   037941695   037953828  
  1995.000000   037849734   037717723   037882393   038294117   038537641  
  1990.000000   038481015   038350912   038207236   037913730   037610248  
  1985.000000   037642078   037969047   038161320   038014686   037682648  
  1980.000000   037223476   036583495   036056116   036082018   036527658  
  1975.000000   036851591   036905631   036920531   036887317   036640479  
  1970.000000   036407746   036578908   036988949   037100815   036865834  
  1965.000000   036704664   036707372   036578030   036300598   036199281  
  1960.000000   036336962   036450037   036472240   036566330   036686422  
  1955.000000   036631854   036493286   036557948   036799198   036927220  
  1950.000000   036900593   036923864   036987741   036871238   036574009  
  1945.000000   036319362   036169020   036039382   036045444   036351148  
  1940.000000   036734408   036806328   036572876   036380996   036364959  
  1935.000000   036341747   036238528   036199004   036244834   036231443  
  1930.000000   036161475   036168081   036185669   036006086   035673497  
  1925.000000   035480316   035538664   035653727   035673905   035647340  
  1920.000000   035599788   035496328   035428903   035521990   035659399  
  1915.000000   035637992   035504765   035455661   035487715   035433592  
  1910.000000   035308920   035306292   035443873   035551045   035584904  
  1905.000000   035641405   035684757   035586736   035403794   035314414  
  1900.000000   035306018   035222271   035089887   035094944   035243887  
  1895.000000   035343652   035325376   035281058   035210640   035048105  
  1890.000000   034895527   034919815   035032614   035013383   034890128  
  1885.000000   034870765   034958682   034943473   034761951   034567181  
  1880.000000   034441943   034334500   034269753   034330784   034419056  
  1875.000000   034329682   034073122   033845395   033693790   033503679  
  1870.000000   033322663   033357933   033580177   033737093   033770257  
  1865.000000   033798674   033817944   033730929   033604682   033614427  
  1860.000000   033739921   033791346   033731066   033688938   033679069  
  1855.000000   033596537   033468312   033421302   033412733   033275641  
  1850.000000   033022570   032843718   032791608   032742752   032683767  
  1845.000000   032756394   032934341   032981468   032871603   032784449  
  1840.000000   032753356   032669756   032556660   032554746   032634211  
  1835.000000   032604622   032413457   032179411   031972344   031800881  
  1830.000000   031745682   031866508   032013009   032004657   031920655  
  1825.000000   031986041   032192371   032316887   032291472   032224895  
  1820.000000   032140089   031966207   031771077   031707829   031725345  
  1815.000000   031624100   031393896   031225337   031198285   031196209  
  1810.000000   031180349   031251729   031381870   031403779   031291409  
  1805.000000   031182011   031115337   031006248   030880119   030877367  
  1800.000000   030961951   030932876   030779113   030679722   030666674  
  1795.000000   030587460   030427861   030429568   030691198   030951716  
  1790.000000   031062027   031129864   031188940   031153700   031052126  
  1785.000000   031010620   030991215   030848767   030654320   030637796  
  1780.000000   030784935   030832532   030709960   030602772   030585253  
  1775.000000   030513404   030344539   030323037   030569321   030819659  
  1770.000000   030973849   031226293   031569042   031734189   031666319  
  1765.000000   031603639   031691379   031855890   032045451   032320553  
  1760.000000   032635411   032871011   033119473   033582919   034175418  
  1755.000000   034590215   034804756   035098290   035600922   036137853  
  1750.000000   036653632   037399605   038372049   039200372   039759820  
  1745.000000   040322574   041015328   041593300   041914572   042165746  
  1740.000000   042431078   042501528   042375681   042369585   042558658  
  1735.000000   042652088   042523633   042457474   042568470   042702545  
  1730.000000   042890356   043294322   043809863   044123927   044234315  
  1725.000000   044499733   045033058   045498029   045710991   045900489  
  1720.000000   046222796   046593011   047163052   048371023   050086988  
  1715.000000   051682182   053062532   054633054   056508257   058436765  
  1710.000000   060400878   062733076   065643359   069165345   073532945  
  1705.000000   078762157   084136535   089375722   095831223   105942453  
  1700.000000   118960235   130030666   138479101   147780186   159142671  
  1695.000000   169471670   176155360   180199916   183372219   186380628  
  1690.000000   189282889   192012328   194478039   196752839   199530425  
  1685.000000   204212839   210574236   215908355   219630629   223326490  
  1680.000000   227680260   232148666   236387535   241035396   246766134  
  1675.000000   252882864   257992518   262123289   266388010   271604709  
  1670.000000   277898898   284582876   290565288   295338606   299389228  
  1665.000000   303717695   309042573   315102863   320899493   325998143  
  1660.000000   330714156   335175688   339188836   342755515   346296560  
  1655.000000   350675174   357294415   365282985   370527141   372425075  
  1650.000000   373425271   375416318   379282326   384320493   388649935  
  1645.000000   391641840   394038302   396384779   398847058   401464348  
  1640.000000   404080329   406505059   409082903   412888910   418340985  
  1635.000000   423696477   427449826   430377074   433586262   437305409  
  1630.000000   441439733   446090264   451148034   455969788   460252357  
  1625.000000   464656237   469883753   475302107   479511871   482313228  
  1620.000000   484571100   486764119   488600042   489361358   488415096  
  1615.000000   485724611   481714994   476769732   470897480   463764133  
  1610.000000   455191452   445498675   435227132   424667389   413815475  
  1605.000000   402686453   391413384   380129378   368906278   357850516  
  1600.000000   347160504   336981248   327238040   317740474   308474630  
  1595.000000   299626635   291296691   283395492   275899582   268974931  
  1590.000000   262701906   256946683   251653877   246980256   242981138  
  1585.000000   239430658   236194427   233454007   231301617   229489228  
  1580.000000   227828727   226518061   225850113   225768977   225885303  
  1575.000000   225946194   225938220   225890515   225991498   226774068  
  1570.000000   228649113   231015279   233053654   235007391   237518098  
  1565.000000   240549889   243547859   246177205   248696483   251536115  
  1560.000000   256368000   264575934   272390497   277018232   280499195  
  1555.000000   284778204   289857060   294706791   299067257   303778912  
  1550.000000   309279223   314746552   319336326   323382127   327720399  
  1545.000000   332555494   337323438   341695853   346236521   351876432  
  1540.000000   358208927   363179687   365859952   367131209   368157186  
  1535.000000   369835426   372485800   375256731   377099400   378198019  
  1530.000000   379215942   380363279   381579674   382844958   383995555  
  1525.000000   384683672   384963399   385557653   387049873   388685401  
  1520.000000   389336772   389327935   389586426   390117279   390015129  
  1515.000000   388760209   386559568   383517013   379575871   374972689  
  1510.000000   370140553   365254658   360266209   354769699   348509173  
  1505.000000   342152749   336202450   330580798   325020383   319281360  
  1500.000000   313350043   307316043   301101221   294492436   287567535  
  1495.000000   280742308   274298913   268171798   262130085   256106323  
  1490.000000   250446330   245666794   241903045   238879551   236389374  
  1485.000000   234448379   233112047   232420585   232474766   233288769  
  1480.000000   234626409   236275312   238372565   241179659   244614615  
  1475.000000   248490642   253217753   259326338   265922468   271343762  
  1470.000000   275305302   278554707   281634058   284768882   288161917  
  1465.000000   291790869   295056052   297421007   299074671   300516158  
  1460.000000   302174713   304634666   308795775   314294058   318743409  
  1455.000000   321006115   322104683   322960216   323658477   324000146  
  1450.000000   324031824   323946374   323731281   323210342   322319960  
  1445.000000   321138683   319752766   318224704   316584595   314809794  
  1440.000000   312900738   310920486   308873937   306557859   303697453  
  1435.000000   300343017   296759665   293037928   289148884   285165669  
  1430.000000   281224123   277397471   273769685   270453944   267470926  
  1425.000000   264808559   262535144   260659649   259029070   257515508  
  1420.000000   256291716   255587813   255112444   254489896   253815040  
  1415.000000   253250538   252703371   252050859   251378106   250800262  
  1410.000000   250199895   249385994   248386744   247398600   246525278  
  1405.000000   245699664   244824354   243845315   242716700   241463727  
  1400.000000   240271401   239295715   238443032   237625788   237043132  
  1395.000000   236873599   236870223   236666517   236267257   235854999  
  1390.000000   235436931   234937334   234422062   233951645   233340657  
  1385.000000   232414979   231294631   230190956   229131343   228049895  
  1380.000000   227020127   226155984   225368766   224510257   223719776  
  1375.000000   223335596   223377298   223449540   223279878   222900004  
  1370.000000   222307931   221349705   219937552   218136971   216003426  
  1365.000000   213579135   211097962   208920674   207138686   205542567  
  1360.000000   204023066   202653953   201448138   200341248   199381000  
  1355.000000   198685796   198205266   197756723   197303764   196962016  
  1350.000000   196750766   196566332   196399013   196337087   196345299  
  1345.000000   196262117   196028315   195721553   195392916   195077977  
  1340.000000   194916168   195002443   195157950   195117861   194867072  
  1335.000000   194561056   194225823   193772337   193238984   192775280  
  1330.000000   192400281   192006024   191590552   191260363   191021725  
  1325.000000   190786222   190572610   190477848   190469931   190434521  
  1320.000000   190401841   190491363   190647052   190687580   190604764  
  1315.000000   190554426   190570604   190533524   190408029   190276337  
  1310.000000   190136605   189905092   189611118   189369905   189172495  
  1305.000000   188915546   188619826   188393656   188205421   187924781  
  1300.000000   187573580   187300869   187125926   186938006   186736824  
  1295.000000   186633408   186624389   186602103   186576338   186655206  
  1290.000000   186817641   186939839   187032047   187209541   187440690  
  1285.000000   187570710   187583516   187601183   187636517   187584943  
  1280.000000   187454191   187360097   187295136   187142278   186917783  
  1275.000000   186763939   186706174   186652774   186631956   186789371  
  1270.000000   187145682   187592708   188131024   188862365   189759275  
  1265.000000   190686802   191640443   192721821   193887659   194984227  
  1260.000000   196018129   197131387   198323498   199466069   200575995  
  1255.000000   201805822   203169143   204529578   205854245   207233268  
  1250.000000   208660996   210040589   211401297   212870037   214438983  
  1245.000000   215995741   217561356   219245715   220981461   222553591  
  1240.000000   223878605   225016757   225916186   226411699   226489323  
  1235.000000   226301405   225926843   225337864   224604931   223885186  
  1230.000000   223173524   222318979   221294464   220215332   219092011  
  1225.000000   217806876   216358980   214874031   213356498   211690000  
  1220.000000   209893244   208120310   206385284   204549880   202608757  
  1215.000000   200709981   198868290   196935814   194892236   192887417  
  1210.000000   190954437   188960910   186881749   184840203   182842494  
  1205.000000   180756591   178592846   176522372   174584444   172659717  
  1200.000000   170766591   169080093   167614967   166197469   164786206  
  1195.000000   163523136   162428280   161350696   160272029   159340419  
  1190.000000   158565536   157789808   156998972   156357795   155890968  
  1185.000000   155450788   155041506   154846530   154904562   155071090  
  1180.000000   155342983   155895065   156744450   157727287   158832588  
  1175.000000   160217783   161857430   163508619   165078194   166683374  
  1170.000000   168318388   169813689   171169634   172580576   174066526  
  1165.000000   175414478   176526947   177503967   178327952   178816499  
  1160.000000   178948648   178888092   178648547   178059597   177116432  
  1155.000000   176026710   174843982   173419446   171762296   170093529  
  1150.000000   168487557   166806734   165055896   163437069   161990547  
  1145.000000   160545856   159094384   157839640   156816897   155843659  
  1140.000000   154899670   154181733   153710966   153275770   152838799  
  1135.000000   152601223   152600290   152626909   152615196   152726219  
  1130.000000   152969699   153144156   153228385   153434425   153794424  
  1125.000000   154085106   154243553   154464890   154812583   155131310  
  1120.000000   155416162   155862724   156468567   156988544   157361015  
  1115.000000   157777398   158266618   158634484   158883340   159262132  
  1110.000000   159819579   160338131   160792045   161425791   162297069  
  1105.000000   163179651   164007363   164970074   166087261   167133240  
  1100.000000   168075964   169142302   170367243   171529107   172612742  
  1095.000000   173882772   175408420   176971891   178516363   180229058  
  1090.000000   182104824   183901957   185613018   187504719   189620327  
  1085.000000   191722501   193796110   196111776   198703829   201284191  
  1080.000000   203763727   206354773   209069612   211623786   213942703  
  1075.000000   216258243   218607196   220727379   222555878   224325231  
  1070.000000   226056992   227477495   228526410   229457568   230325239  
  1065.000000   230869935   231033170   231060831   230990524   230556081  
  1060.000000   229715669   228780178   227885873   226856310   225707981  
  1055.000000   224752335   224054379   223298926   222359643   221479764  
  1050.000000   220725975   219812343   218635256   217424836   216224385  
  1045.000000   214775734   213056534   211391700   209890453   208297190  
  1040.000000   206534598   204883015   203462581   202050688   200565568  
  1035.000000   199225524   198075724   196855981   195481123   194152976  
  1030.000000   192868582   191332236   189498079   187687370   186041973  
  1025.000000   184367661   182641293   181130990   179868510   178534820  
  1020.000000   177012232   175519487   174059995   172283079   170060567  
  1015.000000   167678706   165301294   162773881   160102328   157597754  
  1010.000000   155371437   153195158   151012518   149084837   147483923  
  1005.000000   145945947   144374906   142979483   141786329   140521461  
  1000.000000   139124488   137877118   136878209   135887039   134816697  
   995.000000   133876644   133090766   132182580   131088255   130091346  
   990.000000   129304996   128517727   127674287   127009827   126563839  
   985.000000   126063440   125426946   124890174   124512933   124069538  
   980.000000   123549472   123241951   123185681   123056410   122747277  
   975.000000   122533002   122526731   122495627   122369555   122398075  
   970.000000   122637766   122811057   122842768   123024557   123473916  
   965.000000   123939144   124306738   124795807   125471238   126068612  
   960.000000   126470585   126872792   127319537   127572651   127592420  
   955.000000   127651550   127817456   127824938   127616931   127494545  
   950.000000   127580446   127638396   127584897   127656828   127917779  
   945.000000   128118166   128214108   128503608   129078541   129662129  
   940.000000   130148073   130779683   131617074   132355853   132847559  
   935.000000   133290150   133730325   133906321   133765608   133615875  
   930.000000   133579810   133411410   133023738   132673382   132441221  
   925.000000   132055043   131419147   130797830   130302078   129708412  
   920.000000   128964696   128342970   127912993   127393054   126703358  
   915.000000   126138554   125813482   125486919   125106874   124984445  
   910.000000   125225620   125539016   125795170   126221274   126854131  
   905.000000   127371686   127665164   128012383   128483977   128741495  
   900.000000   128628622   128392425   128122917   127557887   126660433  
   895.000000   125794397   125107578   124311825   123293977   122347225  
   890.000000   121565656   120619333   119382934   118211020   117327884  
   885.000000   116523609   115690099   115072144   114725656   114316577  
   880.000000   113718058   113225207   112936680   112531148   111904469  
   875.000000   111399298   111154073   110849052   110344240   109925321  
   870.000000   109683312   109289007   108629577   108041703   107680792  
   865.000000   107277127   106738325   106368132   106245984   106015918  
   860.000000   105538394   105151503   105039475   104950291   104764394  
   855.000000   104730320   104900859   104950967   104790444   104742908  
   850.000000   104895000   104894805   104624166   104424426   104430585  
   845.000000   104332532   104042925   103938391   104182738   104454266  
   840.000000   104598410   104904549   105477933   105996862   106355281  
   835.000000   106901629   107764339   108584895   109186276   109864544  
   830.000000   110741286   111482456   111952614   112491600   113245455  
   825.000000   113900101   114372125   115034801   115976024   116787507  
   820.000000   117346989   118043577   119004669   119845657   120419932  
   815.000000   121094299   122030423   122900739   123572044   124366601  
   810.000000   125376856   126226248   126779775   127394600   128198034  
   805.000000   128831804   129177924   129611244   130250800   130695624  
   800.000000   130799888   130981140   131464600   131939727   132253353  
   795.000000   132711071   133409985   134007300   134431747   135097971  
   790.000000   136141430   137161334   137975163   138901133   140045169  
   785.000000   141052860   141832728   142781066   144012583   145105201  
   780.000000   145888848   146750969   147875215   148916918   149733214  
   775.000000   150692850   151941063   153083098   153921089   154797653  
   770.000000   155890556   156878627   157624671   158479214   159578348  
   765.000000   160548425   161234613   162023865   163125042   164226201  
   760.000000   165174831   166279525   167621458   168785518   169604654  
   755.000000   170457975   171522474   172454797   173133086   173966486  
   750.000000   175121004   176167772   176845836   177466549   178219740  
   745.000000   178806709   179106673   179488985   180101347   180562758  
   740.000000   180716093   180979705   181602879   182277175   182833946  
   735.000000   183610816   184776450   185991871   187098537   188436829  
   730.000000   190139150   191814748   193286656   194931054   196945632  
   725.000000   198991917   200904109   203030978   205507130   207899976  
   720.000000   209947248   211961432   214137758   216200603   218078816  
   715.000000   220192828   222730588   225358982   227983080   231035306  
   710.000000   234663221   238397013   241992512   245818569   250038019  
   705.000000   254167690   257866109   261385604   264817986   267687588  
   700.000000   269740593   271350286   272711821   273449475   273468065  
   695.000000   273383333   273602656   273804110   273769918   273891256  
   690.000000   274384419   274851644   275122675   275683185   276738184  
   685.000000   277750950   278424476   279200256   280314631   281274136  
   680.000000   281798570   282379262   283372327   284422118   285275067  
   675.000000   286275795   287560898   288631391   289241195   289853992  
   670.000000   290822395   291797068   292486037   293137472   293720046  
   665.000000   293927911   293865621   294079864   294736891   295300555  
   660.000000   295564305   296086270   297098314   297995632   298440201  
   655.000000   298942787   299859714   300779605   301443261   302295868  
   650.000000   303561214   304737175   305566117   306554457   307988327  
   645.000000   309415810   310614467   312079860   314004666   315795406  
   640.000000   317140358   318575178   320451108   322331975   323945978  
   635.000000   325715276   327785752   329563384   330796383   332044020  
   630.000000   333533753   334624194   334992663   335276271   335929964  
   625.000000   336479147   336565658   336649358   336984953   337023310  
   620.000000   336499321   336055843   336088676   336049851   335575384  
   615.000000   335179773   335116029   334775035   333916272   333281112  
   610.000000   333257474   333149029   332538051   332100152   332256863  
   605.000000   332280227   331671884   331125626   331220145   331422934  
   600.000000   331270777   331253710   331648657   331784027   331331555  
   595.000000   331041844   331350589   331558139   331244824   331187457  
   590.000000   331883971   332602661   332825854   333195829   334126708  
   585.000000   334866984   334916910   335005167   335687670   336344536  
   580.000000   336547909   336963630   337941076   338683320   338808005  
   575.000000   339200184   340299178   341166120   341266844   341501493  
   570.000000   342461573   343303646   343470650   343869961   345081921  
   565.000000   346171033   346473764   346859244   347992542   349035899  
   560.000000   349335627   349728900   350905283   352099837   352687187  
   555.000000   353404593   354780386   356005445   356594157   357430533  
   550.000000   358998687   360311161   360821483   361584282   363279977  
   545.000000   364949127   365926804   367100047   369013963   370718133  
   540.000000   371676106   372902756   374943786   376704364   377529543  
   535.000000   378459263   380124206   381467419   381870714   382432835  
   530.000000   383822095   384943562   385120413   385530594   387033492  
   525.000000   388500296   389035025   389548374   390589937   391046147  
   520.000000   390360015   389917943   390601712   391115282   390550436  
   515.000000   390139661   390736886   391210051   390744779   390376128  
   510.000000   390758896   390739704   389741800   389204066   389903191  
   505.000000   390305451   389348890   388287916   388156313   387853379  
   500.000000   386712853   386096259   386636786   386747160   385501180  
   495.000000   384395741   384478032   384410768   383314540   382748620  
   490.000000   383644960   384248904   383250883   382021070   381736939  
   485.000000   381164733   379489019   378391208   378778428   378791379  
   480.000000   377437905   376733331   377968374   379097010   378441087  
   475.000000   377619403   378203648   378752475   378183616   378586519  
   470.000000   381081777   383276643   383648770   384172410   386065189  
   465.000000   386947456   385212685   383124976   382619781   382001805  
   460.000000   379911148   378627324   379865740   380914366   379818508  
   455.000000   379173912   380601930   381571569   380190468   378640423  
   450.000000   378605255   377895833   375078999   372739162   372737921  
   445.000000   372669359   370740151   369406220   370311039   370613474  
   440.000000   368516124   366728677   367017164   366703661   363972041  
   435.000000   361768406   361846136   360871675   356950996   354003998  
   430.000000   355059585   356781276   355780755   354297600   354650881  
   425.000000   353827525   349468495   345613279   345507159   345241483  
   420.000000   341076349   338385464   341908647   344347803   341362342  
   415.000000   338503941   339367149   339607706   335712591   332503338  
   410.000000   333758215   334170747   329794252   326746119   329817003  
   405.000000   332164046   327917735   323111199   324349181   325312981  
   400.000000   320529566  
##END= 
