##TITLE= Sample 127 By YargerLab Date Wednesday, June 05 2024
##JCAMP-DX= 4.24
##DATA TYPE= INFRARED SPECTRUM
##ORIGIN= Exported PE Spectrum Data File
##OWNER= Yarger Lab
##DATE= 24/06/05
##TIME= 11:46:42.00
##SPECTROMETER/DATA SYSTEM= PERKIN-ELMER Spectrum Two IR
##INSTRUMENT PARAMETERS=
  APODIZATION=Strong
  DETECTOR=LiTa03
##RESOLUTION= 4.000000
##DELTAX= -1.000000
##XUNITS= 1/CM
##YUNITS= A
##XFACTOR= 1.00
##YFACTOR= 0.00000000023841857910
##FIRSTX= 4000.00
##LASTX= 400.00
##NPOINTS= 3601
##FIRSTY= 0.001642
##MAXY= 0.025625
##MINY= -0.001548
##XYDATA= (X++(Y..Y))
  4000.000000   006888431   006855299   006824852   006835382   006874108  
  3995.000000   006922637   006959450   006987265   007017344   007054625  
  3990.000000   007094407   007126261   007138535   007127601   007104124  
  3985.000000   007084865   007074144   007064863   007056361   007058810  
  3980.000000   007081550   007116392   007135742   007116148   007062221  
  3975.000000   007005314   006972339   006967165   006980637   006997919  
  3970.000000   007009492   007017943   007029804   007050321   007084261  
  3965.000000   007128165   007169821   007197212   007200862   007186567  
  3960.000000   007176006   007171280   007153797   007116134   007068916  
  3955.000000   007025850   006993563   006986402   007030564   007142189  
  3950.000000   007324377   007549156   007742911   007832175   007800269  
  3945.000000   007668804   007464979   007254332   007123902   007116448  
  3940.000000   007205553   007314828   007389875   007459511   007593204  
  3935.000000   007803821   007991024   008044748   007948532   007782197  
  3930.000000   007638769   007526259   007411410   007285321   007159558  
  3925.000000   007094974   007190930   007472983   007846955   008160554  
  3920.000000   008342320   008431573   008439795   008314269   008060935  
  3915.000000   007803935   007637078   007533760   007443563   007358647  
  3910.000000   007303343   007277466   007269271   007332707   007594352  
  3905.000000   008145886   008941111   009721716   010159615   010103768  
  3900.000000   009621857   009005807   008562040   008359650   008278339  
  3895.000000   008162128   007961087   007785300   007766949   007898864  
  3890.000000   008121067   008482698   008985348   009335982   009264575  
  3885.000000   008930860   008747514   008840259   008963472   008926689  
  3880.000000   008807808   008755467   008820823   008930668   008889089  
  3875.000000   008589662   008242195   008269508   008791835   009389369  
  3870.000000   009583237   009425106   009364067   009608992   009797472  
  3865.000000   009587079   009243905   009186431   009413720   009609459  
  3860.000000   009510727   008990674   008111545   007160042   006602929  
  3855.000000   006630526   007174005   007984649   008660174   009069773  
  3850.000000   009346516   009459427   009423740   009330363   009235093  
  3845.000000   009175758   009200784   009301426   009475450   009692020  
  3840.000000   009849924   009904556   009859107   009721995   009555693  
  3835.000000   009467247   009518641   009618851   009619962   009507291  
  3830.000000   009375306   009282615   009213186   009103082   008987976  
  3825.000000   009079164   009513093   010005779   010107521   009828878  
  3820.000000   009631757   009752011   010089373   010208836   009804389  
  3815.000000   009142593   008697079   008575737   008519437   008369584  
  3810.000000   008265706   008417429   008751310   009012962   009156108  
  3805.000000   009374985   009751077   009997354   009797650   009365442  
  3800.000000   009141553   009232323   009388815   009326082   009012910  
  3795.000000   008643854   008370761   008153524   007902925   007631623  
  3790.000000   007436163   007360210   007363480   007398655   007464812  
  3785.000000   007571810   007735124   007974609   008241186   008396446  
  3780.000000   008355301   008223851   008141057   008150991   008179263  
  3775.000000   008134736   008045657   008080524   008328097   008625215  
  3770.000000   008820685   008959022   009121977   009277876   009310560  
  3765.000000   009182123   009060202   009137344   009358720   009456543  
  3760.000000   009383464   009396990   009589779   009792789   009948382  
  3755.000000   010196555   010604351   011028471   011424812   011947574  
  3750.000000   012418261   012419390   012045802   011831259   011924065  
  3745.000000   011914008   011535676   011162707   011245739   011696715  
  3740.000000   012173367   012566084   012886744   012943897   012565286  
  3735.000000   012052164   011787361   011630575   011230282   010588624  
  3730.000000   010041043   009844211   009869550   009798344   009565849  
  3725.000000   009388242   009323155   009217117   009003548   008744393  
  3720.000000   008526226   008418301   008390587   008415287   008552413  
  3715.000000   008868379   009260232   009482942   009502877   009481354  
  3710.000000   009461895   009367159   009137139   008808587   008469460  
  3705.000000   008189599   007953216   007695215   007456632   007319438  
  3700.000000   007300234   007388970   007506646   007530470   007488050  
  3695.000000   007542913   007737808   007895830   007895940   007914800  
  3690.000000   008246433   008813456   009156945   009086939   008904574  
  3685.000000   008829777   008840904   008862077   008878197   008875989  
  3680.000000   008838533   008950925   009490711   010241171   010660849  
  3675.000000   010681302   010677191   010943866   011335106   011274642  
  3670.000000   010653994   010010717   009665377   009491137   009330819  
  3665.000000   009103122   008838479   008619836   008483787   008444576  
  3660.000000   008527551   008771134   009132566   009478487   009724823  
  3655.000000   009947047   010351994   011037705   011813677   012371217  
  3650.000000   012749809   013071143   013088239   012613134   011903966  
  3645.000000   011270864   010771206   010312070   009857112   009520394  
  3640.000000   009384443   009385141   009435095   009552863   009776549  
  3635.000000   009995888   010090434   010169065   010496038   011100794  
  3630.000000   011612963   011817714   011880307   011889408   011871085  
  3625.000000   011809921   011658744   011457897   011299418   011168249  
  3620.000000   011083605   011216185   011622524   012134164   012608440  
  3615.000000   012919350   013035516   013100607   013278020   013558311  
  3610.000000   013718662   013517164   013030959   012572889   012324617  
  3605.000000   012239853   012185261   012108519   012072377   012110404  
  3600.000000   012217253   012376586   012523986   012595498   012595728  
  3595.000000   012583456   012648395   012846043   013168173   013572919  
  3590.000000   013911017   013971932   013753441   013545390   013507613  
  3585.000000   013543789   013522623   013413594   013250114   013081293  
  3580.000000   012944448   012857770   012821522   012823058   012870765  
  3575.000000   012980102   013154911   013398746   013727391   014176075  
  3570.000000   014728475   015204501   015416719   015421052   015418608  
  3565.000000   015469784   015519753   015481689   015325353   015102179  
  3560.000000   014896995   014771353   014741101   014790301   014888243  
  3555.000000   014999328   015096114   015199509   015371425   015655000  
  3550.000000   016042591   016455434   016775409   016928787   016937720  
  3545.000000   016875850   016797673   016717942   016637148   016563531  
  3540.000000   016503915   016467756   016453216   016461995   016507260  
  3535.000000   016598472   016732358   016880281   017015725   017135408  
  3530.000000   017275985   017478301   017750041   018058997   018340074  
  3525.000000   018509947   018517695   018404222   018274654   018204857  
  3520.000000   018188559   018197051   018232074   018308928   018411818  
  3515.000000   018494377   018539883   018575149   018621354   018673987  
  3510.000000   018747142   018879441   019086987   019329371   019537745  
  3505.000000   019663810   019723162   019775267   019862791   019973163  
  3500.000000   020057628   020087055   020074938   020065279   020093834  
  3495.000000   020161411   020241989   020309759   020356873   020393116  
  3490.000000   020445097   020532133   020650549   020783790   020907881  
  3485.000000   020993379   021019809   021006987   021021688   021113563  
  3480.000000   021261080   021396160   021475372   021503241   021508636  
  3475.000000   021527309   021587300   021698505   021843616   021988029  
  3470.000000   022109074   022206537   022287606   022357195   022415742  
  3465.000000   022461459   022495784   022533662   022595922   022677080  
  3460.000000   022739478   022752530   022731662   022730011   022780519  
  3455.000000   022869989   022970270   023065972   023161887   023259835  
  3450.000000   023352438   023433878   023516314   023628941   023781425  
  3445.000000   023940345   024054751   024107056   024137435   024203791  
  3440.000000   024322150   024455263   024564077   024648107   024721714  
  3435.000000   024784289   024834396   024883751   024951583   025035923  
  3430.000000   025117217   025181663   025230423   025275466   025333413  
  3425.000000   025417614   025520899   025616270   025689991   025765746  
  3420.000000   025875228   026011299   026141082   026249584   026347893  
  3415.000000   026442098   026519106   026569431   026606978   026657862  
  3410.000000   026736630   026835329   026931014   027009111   027079894  
  3405.000000   027173398   027310494   027484020   027668743   027835917  
  3400.000000   027961425   028034674   028076234   028126335   028202584  
  3395.000000   028283146   028343113   028393107   028458951   028537255  
  3390.000000   028595609   028614924   028613799   028630281   028690095  
  3385.000000   028794985   028929548   029070540   029197716   029301010  
  3380.000000   029386679   029471176   029568281   029674959   029772769  
  3375.000000   029849889   029920853   030019575   030170776   030370661  
  3370.000000   030589698   030789874   030940342   031030573   031075219  
  3365.000000   031104636   031147473   031219235   031321055   031442194  
  3360.000000   031565326   031676633   031776830   031880577   032004875  
  3355.000000   032154963   032317233   032466361   032584210   032676283  
  3350.000000   032766367   032875024   033005552   033156686   033332832  
  3345.000000   033532108   033739267   033940409   034142472   034359767  
  3340.000000   034583257   034778312   034917935   035009293   035083930  
  3335.000000   035172314   035290569   035440053   035611917   035796047  
  3330.000000   035990793   036200999   036426391   036660235   036897467  
  3325.000000   037136844   037375764   037606694   037823532   038026066  
  3320.000000   038219816   038418464   038642899   038904294   039192089  
  3315.000000   039486894   039786521   040108097   040460206   040823530  
  3310.000000   041163547   041455382   041697702   041912745   042132562  
  3305.000000   042371751   042611337   042820087   042995789   043178567  
  3300.000000   043417351   043727906   044087281   044453190   044787352  
  3295.000000   045068922   045300606   045501080   045684667   045851274  
  3290.000000   045996060   046122190   046238296   046349540   046458540  
  3285.000000   046569871   046689582   046816653   046937247   047035711  
  3280.000000   047110937   047184172   047281819   047402756   047511065  
  3275.000000   047566801   047561128   047513860   047441438   047342281  
  3270.000000   047208325   047036099   046828476   046596306   046358976  
  3265.000000   046131681   045915818   045705250   045499560   045306586  
  3260.000000   045130146   044969835   044824213   044681231   044512693  
  3255.000000   044296940   044044592   043791375   043568469   043386942  
  3250.000000   043246642   043133574   043010925   042835601   042592856  
  3245.000000   042305497   042009698   041729716   041477658   041261126  
  3240.000000   041077350   040913790   040761463   040622278   040497248  
  3235.000000   040375185   040233998   040052265   039827031   039578332  
  3230.000000   039338981   039129255   038942126   038758227   038569448  
  3225.000000   038381099   038201821   038037254   037890382   037760394  
  3220.000000   037642528   037534063   037432626   037326524   037195153  
  3215.000000   037031771   036853224   036679339   036511386   036343044  
  3210.000000   036179829   036032045   035891844   035737284   035558761  
  3205.000000   035368265   035182986   035009690   034847126   034695338  
  3200.000000   034553401   034415986   034272334   034113039   033938053  
  3195.000000   033764845   033617325   033502043   033396441   033265400  
  3190.000000   033091275   032882784   032666142   032465938   032290313  
  3185.000000   032130908   031974735   031821539   031678864   031544696  
  3180.000000   031405344   031252878   031090517   030920590   030734999  
  3175.000000   030532051   030328606   030146754   029993347   029854503  
  3170.000000   029708788   029540094   029350906   029165047   029009210  
  3165.000000   028888105   028780979   028670173   028557629   028450483  
  3160.000000   028343586   028228340   028111239   028009688   027930447  
  3155.000000   027859688   027774203   027656954   027504777   027328377  
  3150.000000   027147274   026980584   026840203   026729489   026642226  
  3145.000000   026563527   026479075   026389860   026306861   026227385  
  3140.000000   026132281   026012269   025888668   025789529   025716153  
  3135.000000   025648454   025578979   025522898   025493240   025475840  
  3130.000000   025439423   025367024   025274284   025192160   025137131  
  3125.000000   025103762   025084744   025089904   025131145   025196637  
  3120.000000   025252908   025273004   025257655   025224976   025185363  
  3115.000000   025133670   025064170   024990164   024942667   024942800  
  3110.000000   024975398   024997182   024974592   024908631   024829045  
  3105.000000   024773302   024768464   024822454   024916532   025016601  
  3100.000000   025094361   025139477   025153954   025143908   025122657  
  3095.000000   025113865   025139033   025199342   025276554   025350641  
  3090.000000   025411125   025450964   025462935   025448723   025426771  
  3085.000000   025422270   025448192   025502382   025574677   025652956  
  3080.000000   025721739   025762775   025761263   025713698   025633646  
  3075.000000   025548612   025489071   025468279   025478016   025500680  
  3070.000000   025524115   025542577   025546744   025524585   025471564  
  3065.000000   025391818   025288541   025162296   025018968   024875341  
  3060.000000   024749953   024654394   024590012   024545891   024502642  
  3055.000000   024445027   024376542   024306593   024230635   024130304  
  3050.000000   023998880   023855899   023728823   023629111   023548422  
  3045.000000   023469120   023375587   023262811   023136996   023008686  
  3040.000000   022881503   022759005   022652493   022572521   022513827  
  3035.000000   022457163   022386637   022296203   022182085   022041150  
  3030.000000   021879828   021716222   021568766   021446576   021349048  
  3025.000000   021272340   021212324   021166448   021132879   021107731  
  3020.000000   021080553   021039761   020981462   020915507   020860330  
  3015.000000   020832787   020837216   020861006   020883315   020892879  
  3010.000000   020895666   020904982   020931592   020985929   021078892  
  3005.000000   021210545   021362210   021512640   021657239   021804142  
  3000.000000   021955079   022100631   022229968   022339578   022434038  
  2995.000000   022528340   022640300   022770334   022895613   022994523  
  2990.000000   023069874   023138737   023216680   023333380   023550385  
  2985.000000   023922409   024425072   024936313   025305815   025446786  
  2980.000000   025371636   025163966   024921883   024714969   024570485  
  2975.000000   024490178   024466604   024476911   024472548   024399981  
  2970.000000   024241821   024029730   023815753   023639146   023516031  
  2965.000000   023442017   023395938   023352832   023301387   023243937  
  2960.000000   023179981   023098723   022991232   022858755   022703428  
  2955.000000   022515489   022277330   021981005   021643937   021307837  
  2950.000000   021017585   020794092   020628771   020506423   020426775  
  2945.000000   020399137   020424018   020492561   020599462   020744534  
  2940.000000   020925444   021140697   021399642   021715822   022088754  
  2935.000000   022504925   022958712   023462252   024027321   024644567  
  2930.000000   025288919   025947205   026640462   027420581   028340717  
  2925.000000   029429471   030693185   032137689   033769593   035561576  
  2920.000000   037413437   039131264   040439016   041019615   040622506  
  2915.000000   039203159   036994581   034427332   031934579   029798065  
  2910.000000   028106577   026821809   025858568   025137687   024601428  
  2905.000000   024197805   023873224   023586865   023335301   023116276  
  2900.000000   022945973   022816974   022711413   022609344   022494305  
  2895.000000   022362447   022225702   022098057   021980230   021864087  
  2890.000000   021748386   021640102   021543618   021458496   021385119  
  2885.000000   021320760   021250871   021156680   021034169   020898214  
  2880.000000   020766344   020644903   020530881   020419925   020310217  
  2875.000000   020200560   020082181   019932742   019730790   019486991  
  2870.000000   019252093   019080190   018985837   018946952   018943333  
  2865.000000   018977506   019062098   019203882   019400658   019639730  
  2860.000000   019898874   020164453   020457813   020836928   021380201  
  2855.000000   022178380   023331176   024897591   026798284   028731413  
  2850.000000   030205058   030724329   030044485   028323752   026048115  
  2845.000000   023773184   021870743   020454129   019459379   018765610  
  2840.000000   018264519   017881405   017580651   017351235   017179873  
  2835.000000   017039792   016905262   016766202   016628368   016504989  
  2830.000000   016409636   016347323   016307525   016271990   016231387  
  2825.000000   016190995   016160919   016145951   016142701   016139939  
  2820.000000   016124300   016091964   016052040   016013813   015977872  
  2815.000000   015947892   015940538   015966089   016003351   016011271  
  2810.000000   015969157   015893131   015813091   015746323   015695155  
  2805.000000   015655088   015618608   015580138   015543016   015515896  
  2800.000000   015500481   015488203   015468250   015433571   015382684  
  2795.000000   015324742   015278928   015256627   015244957   015218504  
  2790.000000   015165598   015092509   015006659   014912718   014825104  
  2785.000000   014765102   014738316   014726586   014708899   014680568  
  2780.000000   014648699   014620066   014598460   014583799   014568587  
  2775.000000   014543318   014509608   014479810   014459755   014440485  
  2770.000000   014410729   014369688   014323909   014279241   014239541  
  2765.000000   014206393   014176522   014145035   014112045   014079533  
  2760.000000   014042529   013993323   013935430   013883140   013844673  
  2755.000000   013815835   013792926   013781015   013783418   013790927  
  2750.000000   013786807   013758162   013701951   013628910   013563149  
  2745.000000   013526662   013518245   013514763   013497177   013467320  
  2740.000000   013435649   013402279   013358344   013301152   013240905  
  2735.000000   013193414   013167213   013154579   013135928   013100189  
  2730.000000   013060985   013044378   013058952   013085504   013098442  
  2725.000000   013088331   013060042   013018898   012966143   012902443  
  2720.000000   012829874   012753889   012686776   012643708   012629546  
  2715.000000   012631930   012631045   012615222   012586512   012554725  
  2710.000000   012527295   012502109   012469950   012426283   012378638  
  2705.000000   012338567   012309696   012289303   012276983   012271865  
  2700.000000   012263819   012240101   012203443   012172847   012162006  
  2695.000000   012164472   012163490   012149567   012124897   012097801  
  2690.000000   012077581   012069783   012072107   012077188   012079921  
  2685.000000   012078456   012069683   012050818   012025564   012001241  
  2680.000000   011978775   011953249   011925875   011907321   011905861  
  2675.000000   011918375   011935326   011948655   011953197   011949086  
  2670.000000   011948474   011974183   012046691   012172551   012343955  
  2665.000000   012543788   012748989   012937040   013095388   013225048  
  2660.000000   013335329   013436440   013533133   013619507   013681582  
  2655.000000   013710361   013711963   013698951   013675698   013643165  
  2650.000000   013614742   013612751   013644002   013689340   013723396  
  2645.000000   013736263   013731678   013713434   013681738   013638410  
  2640.000000   013589979   013547665   013524034   013521819   013524316  
  2635.000000   013505696   013456094   013391553   013336003   013298669  
  2630.000000   013269677   013230315   013166112   013078796   012988675  
  2625.000000   012917970   012869476   012829215   012789841   012758862  
  2620.000000   012740629   012722260   012684510   012617910   012524520  
  2615.000000   012415535   012313811   012246636   012222852   012220444  
  2610.000000   012204148   012154423   012078888   012003271   011952989  
  2605.000000   011933508   011922822   011890505   011829096   011760247  
  2600.000000   011707428   011672345   011641937   011606715   011563240  
  2595.000000   011507081   011434254   011347514   011255357   011166977  
  2590.000000   011090806   011033230   010994678   010969578   010951133  
  2585.000000   010933098   010910096   010882597   010858356   010839586  
  2580.000000   010812133   010760553   010692341   010632005   010588807  
  2575.000000   010546007   010485979   010410570   010330848   010252286  
  2570.000000   010180459   010126519   010093399   010065463   010026399  
  2565.000000   009981503   009950445   009940177   009936647   009924310  
  2560.000000   009905132   009894203   009898919   009904845   009884130  
  2555.000000   009819542   009720704   009617089   009537992   009499014  
  2550.000000   009498099   009516357   009528644   009523922   009512894  
  2545.000000   009508412   009504473   009486404   009455947   009430257  
  2540.000000   009416540   009403672   009381771   009355759   009333155  
  2535.000000   009309826   009275043   009224699   009165419   009110592  
  2530.000000   009073447   009057656   009054167   009052228   009050225  
  2525.000000   009047231   009029091   008979243   008905886   008844887  
  2520.000000   008828031   008854775   008897675   008926973   008926469  
  2515.000000   008896062   008847447   008796229   008753994   008727192  
  2510.000000   008719134   008726847   008738400   008741744   008736821  
  2505.000000   008732750   008733506   008733505   008726201   008709353  
  2500.000000   008680293   008634379   008572738   008508678   008463116  
  2495.000000   008451990   008474982   008514135   008544893   008550454  
  2490.000000   008525443   008471406   008398055   008326819   008279870  
  2485.000000   008260424   008252956   008244900   008238316   008237811  
  2480.000000   008241556   008248095   008257234   008259109   008240399  
  2475.000000   008208823   008191601   008198224   008205573   008195475  
  2470.000000   008184068   008192899   008210605   008212387   008204898  
  2465.000000   008222728   008284735   008378050   008482000   008583373  
  2460.000000   008670915   008737408   008787761   008826216   008838757  
  2455.000000   008807845   008743203   008677100   008627744   008587525  
  2450.000000   008545789   008501160   008448022   008373257   008276471  
  2445.000000   008178872   008102385   008047426   007994698   007923434  
  2440.000000   007829585   007732876   007660390   007616527   007578130  
  2435.000000   007527993   007477352   007440281   007406620   007365248  
  2430.000000   007337259   007349166   007379262   007369217   007295888  
  2425.000000   007199686   007130533   007093349   007060263   007014097  
  2420.000000   006962871   006925133   006914535   006929830   006952326  
  2415.000000   006962880   006965345   006980356   007009822   007019064  
  2410.000000   006963964   006830504   006647024   006464106   006323624  
  2405.000000   006238270   006195683   006180837   006186872   006201130  
  2400.000000   006197518   006162342   006118097   006100716   006114005  
  2395.000000   006124305   006097954   006027886   005926524   005813601  
  2390.000000   005711909   005635434   005574097   005501775   005403274  
  2385.000000   005279342   005132223   004965755   004800489   004673240  
  2380.000000   004606959   004596915   004627646   004687077   004760330  
  2375.000000   004819236   004833180   004785569   004681851   004545865  
  2370.000000   004408180   004292920   004218683   004215198   004310749  
  2365.000000   004498611   004723584   004909861   005020720   005063713  
  2360.000000   005052578   005020388   005015239   005079688   005199028  
  2355.000000   005283343   005224179   005022042   004817573   004778536  
  2350.000000   005019573   005561965   006283781   006918231   007197853  
  2345.000000   007101214   006860934   006676799   006603418   006651398  
  2340.000000   006781171   006900355   006931479   006878410   006804863  
  2335.000000   006754338   006718605   006656636   006548116   006440281  
  2330.000000   006527696   007110648   008351524   010007551   011494126  
  2325.000000   012260146   012162057   011489715   010678773   010003095  
  2320.000000   009513568   009155413   008879505   008662839   008487539  
  2315.000000   008321879   008133639   007915780   007705778   007560020  
  2310.000000   007513404   007555996   007648341   007749590   007839695  
  2305.000000   007923973   008020294   008136802   008264993   008394168  
  2300.000000   008535112   008716438   008955068   009231509   009506273  
  2295.000000   009758570   010002199   010263536   010556223   010873303  
  2290.000000   011187069   011445955   011587632   011575616   011429322  
  2285.000000   011212169   010986816   010783280   010598973   010415851  
  2280.000000   010216777   010003482   009802587   009645872   009539209  
  2275.000000   009457654   009369481   009257889   009122732   008971883  
  2270.000000   008813557   008648698   008472716   008290650   008125373  
  2265.000000   007999042   007915434   007878248   007917879   008064425  
  2260.000000   008281349   008447356   008429620   008184862   007795593  
  2255.000000   007414523   007170449   007104362   007174098   007313966  
  2250.000000   007484986   007663684   007824069   007914660   007911892  
  2245.000000   007840598   007750365   007676946   007631251   007612710  
  2240.000000   007619837   007646529   007672908   007668258   007618374  
  2235.000000   007554177   007535653   007587986   007662805   007682588  
  2230.000000   007619766   007516846   007434305   007399246   007399132  
  2225.000000   007398636   007360199   007277368   007197733   007185641  
  2220.000000   007239914   007266579   007165964   006947214   006732840  
  2215.000000   006635418   006650392   006693209   006726907   006806753  
  2210.000000   006976312   007162568   007235879   007166226   007062752  
  2205.000000   007045436   007125098   007228921   007291178   007280144  
  2200.000000   007182668   007022534   006881072   006847935   006942130  
  2195.000000   007107130   007277837   007427300   007562866   007711180  
  2190.000000   007903266   008144556   008379003   008481458   008284421  
  2185.000000   007664118   006687752   005700861   005167302   005287393  
  2180.000000   005756731   005996240   005661397   004937707   004356349  
  2175.000000   004334850   004900371   005782837   006705377   007572548  
  2170.000000   008405968   009163308   009708514   010001419   010266887  
  2165.000000   010830929   011650817   011963609   010561408   006753894  
  2160.000000   001356366  -003557121  -006238366  -006491270  -005342992  
  2155.000000  -003911071  -002762363  -002003920  -001575171  -001382823  
  2150.000000  -001329649  -001338304  -001350520  -001301819  -001152865  
  2145.000000  -000954781  -000815274  -000767963  -000730902  -000620504  
  2140.000000  -000476447  -000460120  -000751278  -001409265  -002258263  
  2135.000000  -002920374  -003058153  -002627749  -001866556  -001052683  
  2130.000000  -000339056   000225173   000643912   000984179   001347478  
  2125.000000   001775531   002225608   002659611   003095822   003548932  
  2120.000000   003988774   004402451   004830761   005284514   005678061  
  2115.000000   005914955   006007401   006045196   006073420   006063313  
  2110.000000   005997142   005908663   005827800   005741607   005629532  
  2105.000000   005503935   005402875   005364701   005407940   005502045  
  2100.000000   005548532   005418548   005036187   004457243   003889903  
  2095.000000   003601345   003734695   004187858   004702229   005091173  
  2090.000000   005353041   005569590   005769160   005928668   006052665  
  2085.000000   006178413   006313064   006420320   006470645   006475877  
  2080.000000   006480106   006534896   006655634   006779038   006796922  
  2075.000000   006666730   006470079   006323995   006245741   006152439  
  2070.000000   005978875   005747881   005537511   005413495   005384127  
  2065.000000   005386028   005336023   005220920   005118061   005126844  
  2060.000000   005288392   005551817   005786451   005879919   005950159  
  2055.000000   006423377   007673242   009453853   010853152   010998761  
  2050.000000   009841051   008197247   006980128   006503932   006528374  
  2045.000000   006653973   006593062   006307204   006012398   005965792  
  2040.000000   006193036   006471022   006542517   006262976   005622534  
  2035.000000   004783606   004059425   003679308   003563913   003468398  
  2030.000000   003304515   003155871   003045839   002894978   002692618  
  2025.000000   002515146   002372467   002216008   002081052   002027102  
  2020.000000   001957842   001715626   001378423   001271051   001604585  
  2015.000000   002216621   002752431   003001226   002984803   002803308  
  2010.000000   002454662   001822528   000885274  -000083976  -000639711  
  2005.000000  -000559991  -000043907   000551691   001069256   001575034  
  2000.000000   002127316   002657859   003083769   003401744   003614797  
  1995.000000   003705964   003745336   003887495   004200827   004568240  
  1990.000000   004798773   004837197   004816933   004971592   005518754  
  1985.000000   006522199   007812807   009057343   009852735   009752917  
  1980.000000   008399892   005888904   003017652   000813725  -000335489  
  1975.000000  -000777417  -000909772  -000830523  -000584850  -000326407  
  1970.000000  -000156193  -000063297  -000052304  -000110843  -000119076  
  1965.000000   000001306   000091448  -000101300  -000584590  -001108917  
  1960.000000  -001465003  -001599979  -001499219  -001195320  -000850434  
  1955.000000  -000606929  -000398996  -000109548   000175118   000270474  
  1950.000000   000160489   000000819  -000085587  -000080838   000016803  
  1945.000000   000188038   000332542   000388789   000462781   000662711  
  1940.000000   000885867   000943141   000829543   000703081   000625027  
  1935.000000   000530495   000436273   000448061   000589597   000786170  
  1930.000000   000968173   001134365   001303176   001451633   001537107  
  1925.000000   001542042   001519896   001617209   001928652   002358337  
  1920.000000   002711731   002855337   002818929   002770308   002814588  
  1915.000000   002873649   002827769   002677384   002513520   002386588  
  1910.000000   002269133   002176300   002191693   002313436   002419489  
  1905.000000   002440877   002474618   002606796   002737789   002759467  
  1900.000000   002728684   002737889   002754607   002679085   002543912  
  1895.000000   002506129   002602682   002708940   002720339   002628594  
  1890.000000   002501748   002476323   002649895   002928977   003102573  
  1885.000000   003076889   002975509   002934042   002905817   002819019  
  1880.000000   002737570   002738948   002789802   002819865   002847441  
  1875.000000   002940676   003062134   003114023   003112700   003147278  
  1870.000000   003171340   003069583   002981251   003114517   003339083  
  1865.000000   003418337   003326225   003189135   003071628   002943663  
  1860.000000   002834647   002838782   002928936   002979795   002962900  
  1855.000000   002930951   002891693   002852064   002877839   002977775  
  1850.000000   003059806   003062914   003065494   003185509   003397744  
  1845.000000   003542439   003570211   003613814   003673498   003691789  
  1840.000000   003634040   003482713   003308237   003230975   003295513  
  1835.000000   003434674   003582478   003731375   003799182   003681629  
  1830.000000   003521145   003570861   003743937   003801564   003724609  
  1825.000000   003624988   003600236   003662030   003726002   003644545  
  1820.000000   003297461   002813027   002457835   002340437   002427134  
  1815.000000   002689557   003059105   003342619   003408225   003457044  
  1810.000000   003681205   003868419   003861691   003846853   003942043  
  1805.000000   003980708   003859823   003781119   003987330   004379855  
  1800.000000   004687817   004868971   004943563   004878674   004802310  
  1795.000000   004972167   005408449   005729228   005640448   005471109  
  1790.000000   005463264   005456555   005339795   005193655   005106940  
  1785.000000   005067378   005049797   005028675   004988962   004962627  
  1780.000000   004999445   005105745   005202148   005257467   005327879  
  1775.000000   005481670   005765306   006116051   006305282   006267868  
  1770.000000   006137985   006046958   005939990   005781761   005671018  
  1765.000000   005630790   005526993   005248586   005023991   005134340  
  1760.000000   005356434   005412968   005392748   005566365   005911103  
  1755.000000   006128638   006257680   006588379   007045195   007187742  
  1750.000000   006971049   006814675   006777829   006531867   006024173  
  1745.000000   005505469   005047162   004620150   004408181   004504638  
  1740.000000   004573277   004311530   004037796   004183523   004847582  
  1735.000000   005601777   005901471   006018465   006084184   005975049  
  1730.000000   005781563   005861271   006266011   006654674   006880147  
  1725.000000   007119458   007468814   007852907   008219964   008647036  
  1720.000000   009177735   009761843   010423135   010989128   011362867  
  1715.000000   011714161   012026220   012202513   012414150   012831429  
  1710.000000   013511804   014451603   015576886   016839202   018187426  
  1705.000000   019605958   021144300   023022257   025505466   028222811  
  1700.000000   030142389   031521588   032535951   032881753   032681609  
  1695.000000   032809508   033412436   033965308   034337098   034647827  
  1690.000000   035073287   035730775   036600291   037706867   039017433  
  1685.000000   040115100   040714868   041392784   041909363   042398882  
  1680.000000   043139714   044170145   045347113   046611696   047886155  
  1675.000000   048997561   050058146   051221178   052385450   053274685  
  1670.000000   053720983   054142186   054941115   055881742   056830426  
  1665.000000   057855135   058911585   059853071   060726456   061721259  
  1660.000000   062837494   063845133   064653079   065425299   066451227  
  1655.000000   067586091   068232423   068423407   069725669   071193523  
  1650.000000   072603953   073694621   074436532   074850625   075293689  
  1645.000000   075768071   076212206   076697170   077213402   077808768  
  1640.000000   078637862   079729311   080865471   081727526   082215973  
  1635.000000   082519631   082791994   083108445   083716617   084556463  
  1630.000000   085339655   085933070   086575611   087402993   088247927  
  1625.000000   088943281   089440535   089708574   089833671   090096781  
  1620.000000   090598465   091014406   090772130   089691348   088522176  
  1615.000000   087649294   086663664   085443804   084125410   082642378  
  1610.000000   080765948   078624393   076610849   074764298   072875576  
  1605.000000   070978642   069221775   067529983   065798815   064196418  
  1600.000000   062907530   061797278   060647826   059491552   058492338  
  1595.000000   057633608   056741683   055830750   055063639   054420227  
  1590.000000   053745270   053108416   052719990   052526795   052298984  
  1585.000000   052078532   052061340   052166549   052155556   052124142  
  1580.000000   052311266   052670879   052966423   053229484   053747740  
  1575.000000   054390099   054772203   055077228   055541801   056099362  
  1570.000000   056538618   057131276   058057356   058855986   059351551  
  1565.000000   059754943   060262465   060789813   061376608   062621573  
  1560.000000   064706833   066342891   067064210   067238201   067368170  
  1555.000000   067612520   068062214   068705821   069292029   069698032  
  1550.000000   070203693   071178495   072488560   073669828   074482133  
  1545.000000   075044812   075815276   077217941   079088955   080523612  
  1540.000000   080942539   080992416   081043866   081268736   081709474  
  1535.000000   082136110   082331653   082453388   082901353   083705656  
  1530.000000   084604943   085248435   085612924   086064212   086948403  
  1525.000000   088086682   089070322   089731777   090113298   090490485  
  1520.000000   091157152   091912754   092496049   092833372   093237079  
  1515.000000   093910478   094622603   094948699   094651648   094113615  
  1510.000000   093910254   094000178   093595469   092635449   092232377  
  1505.000000   091910381   091099564   090196898   089372106   088604362  
  1500.000000   087726797   086728472   085751195   084606002   083051595  
  1495.000000   081556871   080525585   079717173   078596134   076885616  
  1490.000000   074924669   073165049   071666347   070497332   069489817  
  1485.000000   068462512   067439305   066440987   065520376   064752665  
  1480.000000   064191490   063801607   063453520   063057729   062799855  
  1475.000000   063064294   063669541   063855369   063141567   062037107  
  1470.000000   061057711   060278630   059638625   059273813   059379880  
  1465.000000   059832355   060262756   060420309   060366004   060135006  
  1460.000000   059725143   059182665   058897562   059269894   059967965  
  1455.000000   060324807   060518553   060757261   061006381   061243973  
  1450.000000   061531948   061796872   061852591   061780504   061852721  
  1445.000000   062076192   062218163   062180559   062128233   062201842  
  1440.000000   062258224   062100337   061785027   061432575   061037082  
  1435.000000   060596725   060211654   059834974   059327431   058632302  
  1430.000000   057980124   057613504   057427372   057194184   056907572  
  1425.000000   056781385   056849175   056932392   056994268   057118920  
  1420.000000   057135332   056881105   056970233   057585917   058156269  
  1415.000000   058393083   058495604   058725509   059017162   059189969  
  1410.000000   059379640   059744822   060099491   060216998   060173985  
  1405.000000   060270712   060525330   060699458   060780942   060884675  
  1400.000000   060939378   060811259   060616359   060498588   060355567  
  1395.000000   060047640   059795942   059859865   059967618   059772477  
  1390.000000   059274248   058703056   058230012   057914364   057797023  
  1385.000000   057819485   057804202   057632820   057362372   057109752  
  1380.000000   056924766   056768424   056594779   056391148   056101912  
  1375.000000   055672774   055258261   055122895   055221605   055225706  
  1370.000000   054914997   054463391   054123965   053868495   053479091  
  1365.000000   052827435   051980901   051169772   050637540   050422616  
  1360.000000   050358624   050251557   049989089   049609374   049222880  
  1355.000000   048907139   048691915   048562363   048488134   048443534  
  1350.000000   048349820   048245100   048204180   048201370   048163296  
  1345.000000   048118055   048119515   048092532   047883714   047505756  
  1340.000000   047187335   047129014   047331476   047668149   048005366  
  1335.000000   048233335   048288957   048201269   048050746   047880061  
  1330.000000   047698272   047556067   047494825   047453413   047332047  
  1325.000000   047172560   047056108   046954293   046806379   046646701  
  1320.000000   046529412   046432689   046333417   046261189   046207579  
  1315.000000   046089988   045903113   045781013   045810657   045897105  
  1310.000000   045911385   045860306   045819065   045789507   045713611  
  1305.000000   045613800   045536133   045468527   045382978   045300571  
  1300.000000   045227325   045122168   044989647   044912004   044932925  
  1295.000000   044977794   044974117   044951598   044955932   044965301  
  1290.000000   044961604   044993104   045098299   045243183   045396949  
  1285.000000   045578507   045777889   045935175   046050706   046219515  
  1280.000000   046501350   046831338   047143032   047469237   047861908  
  1275.000000   048294046   048730103   049205870   049753607   050329954  
  1270.000000   050894101   051477022   052089934   052658980   053143075  
  1265.000000   053594854   054042716   054423768   054704488   054952874  
  1260.000000   055224399   055476043   055687059   055920040   056202391  
  1255.000000   056471855   056707728   056982387   057321481   057641210  
  1250.000000   057901589   058186109   058544983   058895034   059179065  
  1245.000000   059471870   059837624   060219559   060561768   060909681  
  1240.000000   061301205   061680754   062008466   062338388   062710239  
  1235.000000   063072539   063384819   063679537   063956113   064141366  
  1230.000000   064219674   064270362   064313992   064258988   064063087  
  1225.000000   063811014   063569519   063294153   062944469   062565280  
  1220.000000   062182452   061747298   061251507   060768090   060314793  
  1215.000000   059802999   059189003   058549533   057941327   057320272  
  1210.000000   056650164   055966365   055280909   054552763   053800734  
  1205.000000   053114505   052505764   051869292   051145799   050405808  
  1200.000000   049723351   049084832   048473869   047918452   047403372  
  1195.000000   046865442   046320748   045875870   045561718   045276241  
  1190.000000   044943134   044601524   044288261   043969244   043645028  
  1185.000000   043393834   043248975   043149089   043063982   043051295  
  1180.000000   043139185   043273540   043433962   043685060   044048030  
  1175.000000   044442138   044809481   045185741   045588660   045957698  
  1170.000000   046264325   046558021   046848597   047068407   047208961  
  1165.000000   047362517   047568468   047754729   047880254   047996381  
  1160.000000   048111857   048138147   048042758   047914602   047807986  
  1155.000000   047665734   047458766   047255202   047074467   046823830  
  1150.000000   046462500   046082671   045748691   045395916   044974430  
  1145.000000   044555377   044208445   043899420   043593276   043331974  
  1140.000000   043128891   042916393   042675435   042490418   042401995  
  1135.000000   042333526   042235481   042167161   042159387   042136849  
  1130.000000   042056182   041990012   041990470   042002034   041985602  
  1125.000000   041992188   042036503   042033453   041946450   041860180  
  1120.000000   041823723   041760178   041621340   041491568   041446756  
  1115.000000   041440612   041416069   041399843   041404026   041367799  
  1110.000000   041282877   041250725   041312764   041393892   041463947  
  1105.000000   041602427   041827247   042024468   042130848   042246018  
  1100.000000   042399479   042538992   042634501   042782018   043039723  
  1095.000000   043326493   043582387   043876853   044260355   044664891  
  1090.000000   045056944   045534567   046169706   046890071   047615433  
  1085.000000   048369672   049166541   049938370   050663518   051417887  
  1080.000000   052213366   052946070   053575763   054188717   054803471  
  1075.000000   055304791   055660210   056005127   056417651   056795613  
  1070.000000   057053868   057253756   057434886   057513019   057457203  
  1065.000000   057376330   057326948   057208099   056955202   056660479  
  1060.000000   056401968   056136196   055850646   055639497   055523646  
  1055.000000   055376197   055125798   054867172   054667609   054443977  
  1050.000000   054131623   053795872   053477265   053119832   052739571  
  1045.000000   052459688   052293382   052081222   051736502   051364852  
  1040.000000   051057816   050751763   050387554   050017791   049657250  
  1035.000000   049211053   048661923   048153519   047775669   047433685  
  1030.000000   047023413   046576044   046129724   045636429   045100554  
  1025.000000   044652109   044367794   044163785   043961102   043807551  
  1020.000000   043745889   043705711   043624381   043538516   043473898  
  1015.000000   043379390   043243210   043130330   043041341   042881099  
  1010.000000   042629558   042387666   042198609   041990314   041754646  
  1005.000000   041611528   041614787   041661369   041667595   041680507  
  1000.000000   041735588   041770808   041760236   041773909   041816294  
   995.000000   041761287   041537244   041232734   040939847   040635446  
   990.000000   040298357   039989644   039738435   039486565   039229997  
   985.000000   039072326   039070126   039159072   039300030   039545402  
   980.000000   039885304   040191431   040395101   040579565   040804719  
   975.000000   040992146   041064092   041058696   041019326   040907886  
   970.000000   040711625   040498849   040297367   040049410   039753288  
   965.000000   039503544   039324888   039113401   038820908   038546702  
   960.000000   038372738   038250020   038124867   038032880   037987056  
   955.000000   037912586   037770830   037620825   037490853   037329981  
   950.000000   037140448   037012392   036960903   036884432   036744254  
   945.000000   036630730   036584855   036517818   036381043   036250374  
   940.000000   036167201   036056683   035891111   035766782   035732533  
   935.000000   035691888   035569067   035420945   035300928   035162203  
   930.000000   034980442   034824767   034718662   034578715   034368420  
   925.000000   034170653   034025886   033853779   033610025   033373283  
   920.000000   033195077   033015830   032806682   032641382   032550743  
   915.000000   032456547   032327760   032243478   032228977   032188159  
   910.000000   032082355   032005265   032001017   031974057   031872097  
   905.000000   031788634   031787605   031791481   031734847   031671280  
   900.000000   031627173   031530503   031352075   031195362   031127249  
   895.000000   031082366   031011902   030967222   030954686   030875399  
   890.000000   030697941   030525722   030418106   030313252   030205451  
   885.000000   030202514   030318933   030397697   030346115   030262669  
   880.000000   030233812   030197289   030112605   030071602   030116927  
   875.000000   030139684   030065775   029965074   029876480   029730526  
   870.000000   029542388   029474436   029587465   029725950   029759963  
   865.000000   029756033   029809646   029896525   030000503   030191567  
   860.000000   030465007   030687437   030821570   031016254   031362586  
   855.000000   031741675   032023017   032229019   032390527   032438677  
   850.000000   032359927   032277580   032260106   032227946   032149065  
   845.000000   032135879   032238015   032338254   032367063   032429195  
   840.000000   032602968   032806776   032982263   033212827   033543980  
   835.000000   033874085   034143218   034437193   034792409   035088376  
   830.000000   035250691   035364533   035480437   035520944   035494770  
   825.000000   035563392   035753456   035856460   035757905   035617656  
   820.000000   035581287   035576601   035530176   035539637   035680539  
   815.000000   035856139   035984865   036135596   036346052   036506159  
   810.000000   036554941   036593825   036681773   036724958   036688049  
   805.000000   036699511   036819813   036917432   036915383   036938624  
   800.000000   037078496   037232758   037321096   037438501   037643152  
   795.000000   037813882   037873849   037945389   038129903   038340074  
   790.000000   038496356   038685852   038980204   039291695   039543021  
   785.000000   039793201   040071351   040281621   040401970   040571981  
   780.000000   040857305   041131972   041317405   041523724   041825439  
   775.000000   042116025   042324743   042560118   042891881   043202752  
   770.000000   043411227   043630459   043947555   044244335   044401588  
   765.000000   044500689   044665517   044878544   045087912   045325346  
   760.000000   045588035   045778164   045877388   046006147   046208448  
   755.000000   046376299   046485513   046690359   047062660   047461902  
   750.000000   047784353   048116066   048517615   048886669   049171600  
   745.000000   049490919   049908568   050308796   050628253   050986497  
   740.000000   051454930   051919984   052308597   052726346   053232104  
   735.000000   053714123   054129835   054639753   055335544   056062623  
   730.000000   056656489   057146502   057581512   057894083   058101543  
   725.000000   058398238   058894701   059483547   060091855   060803021  
   720.000000   061590155   062196100   062480285   062630404   062852435  
   715.000000   063100123   063288047   063524664   063922812   064403144  
   710.000000   064860481   065334800   065852311   066307640   066673667  
   705.000000   067099795   067653727   068192588   068621889   069040177  
   700.000000   069517146   069945375   070259185   070561518   070897221  
   695.000000   071155016   071315493   071541492   071902512   072251966  
   690.000000   072516181   072828865   073236553   073566351   073724944  
   685.000000   073856652   074078394   074309433   074489055   074704434  
   680.000000   074980456   075190567   075299735   075473508   075785496  
   675.000000   076053322   076122934   076088669   076085937   076088022  
   670.000000   076063686   076145386   076584670   076937300   076920515  
   665.000000   077083309   077496127   077870534   078080482   078318115  
   660.000000   078697031   079032290   079205781   079418238   079800530  
   655.000000   080167452   080380832   080599254   080916213   081158145  
   650.000000   081261800   081458918   081849166   082176851   082305310  
   645.000000   082462553   082804976   083131868   083281393   083440702  
   640.000000   083759323   084057707   084208802   084419405   084834749  
   635.000000   085250784   085490125   085695628   085965040   086155744  
   630.000000   086250760   086502424   086963823   087305770   087374536  
   625.000000   087464400   087789215   088093914   088146163   088154341  
   620.000000   088318415   088444334   088359005   088285710   088448948  
   615.000000   088694586   088834619   088963054   089150652   089264789  
   610.000000   089304121   089509702   089893665   090060931   089829040  
   605.000000   089535509   089452002   089378205   089113610   088846954  
   600.000000   088773091   088690939   088433122   088214963   088192280  
   595.000000   088144286   087937713   087852064   088058661   088250059  
   590.000000   088201002   088177562   088386686   088568017   088529733  
   585.000000   088517937   088693421   088749417   088545817   088481016  
   580.000000   088825489   089200899   089286603   089357867   089614004  
   575.000000   089750905   089616475   089637623   090036852   090411769  
   570.000000   090525756   090809722   091517040   092185638   092523264  
   565.000000   092939969   093705214   094340010   094554725   094871938  
   560.000000   095701595   096637268   097289849   097962735   098896335  
   555.000000   099710148   100172578   100751705   101706840   102497013  
   550.000000   102715753   102857339   103417139   104041884   104270964  
   545.000000   104324115   104446478   104297076   103706335   103198051  
   540.000000   103142893   103150473   102930926   102864550   103183000  
   535.000000   103388769   103236613   103167885   103441031   103616446  
   530.000000   103434476   103383122   103792869   104108659   103813689  
   525.000000   103401990   103406117   103516991   103428639   103487045  
   520.000000   103916184   104218327   104059242   103949188   104269178  
   515.000000   104621544   104696168   104733667   104811469   104499636  
   510.000000   103780634   103342652   103642541   104191483   104451622  
   505.000000   104675702   105050047   105122034   104665025   104294767  
   500.000000   104431310   104549502   104292571   104195467   104690456  
   495.000000   105307106   105456441   105366601   105480014   105481166  
   490.000000   105108965   104836372   105057255   105317276   105195065  
   485.000000   105197607   105827692   106521525   106664307   106771326  
   480.000000   107304817   107477881   106630817   105551547   105179000  
   475.000000   105114931   104780599   104774851   105705361   106489871  
   470.000000   106205022   105682788   105719532   105672395   105005214  
   465.000000   104373471   104207281   103749234   102591865   101922724  
   460.000000   102679593   104079047   105112079   106003191   106740109  
   455.000000   106349654   104753364   103246915   102609330   101973696  
   450.000000   100875246   100206698   100379545   100366400   099625636  
   445.000000   099075658   099252528   099327758   098801193   098418421  
   440.000000   098281572   097458202   095997011   095452159   096424444  
   435.000000   097374284   097238081   096990569   097429485   097770483  
   430.000000   097419663   097274088   097900569   098195123   097377074  
   425.000000   096579156   096874832   097340381   097206863   097805292  
   420.000000   100297660   102725640   102720652   102349171   102863113  
   415.000000   102317186   100011880   098412861   099263518   100626504  
   410.000000   100124980   098839313   098492736   097929556   096023581  
   405.000000   094604047   094671211   093607422   089784984   086104928  
   400.000000   085912585  
##END= 
