PE IR       SUBTECH     SPECTRUM    ASCII       PEDS        4.00        
   -1
2024_06_05_DegummedBmori_3.ASC
24/06/05
11:54:49.00
24/06/05
11:57:44.00
Yarger Lab
Sample 128 By YargerLab Date Wednesday, June 05 2024
400.000000
#HDR
-1
-1
#GR
cm-1
A
1.0
0.0
4000.000000
-1.000000
3601
8
0.048539
0.000579
#DATA
4000.000000	0.003523
3999.000000	0.003514
3998.000000	0.003500
3997.000000	0.003493
3996.000000	0.003495
3995.000000	0.003507
3994.000000	0.003523
3993.000000	0.003541
3992.000000	0.003557
3991.000000	0.003570
3990.000000	0.003578
3989.000000	0.003582
3988.000000	0.003581
3987.000000	0.003576
3986.000000	0.003570
3985.000000	0.003567
3984.000000	0.003565
3983.000000	0.003559
3982.000000	0.003550
3981.000000	0.003541
3980.000000	0.003537
3979.000000	0.003537
3978.000000	0.003538
3977.000000	0.003536
3976.000000	0.003530
3975.000000	0.003523
3974.000000	0.003519
3973.000000	0.003517
3972.000000	0.003519
3971.000000	0.003524
3970.000000	0.003531
3969.000000	0.003540
3968.000000	0.003549
3967.000000	0.003559
3966.000000	0.003569
3965.000000	0.003575
3964.000000	0.003577
3963.000000	0.003576
3962.000000	0.003574
3961.000000	0.003572
3960.000000	0.003572
3959.000000	0.003573
3958.000000	0.003569
3957.000000	0.003561
3956.000000	0.003553
3955.000000	0.003547
3954.000000	0.003545
3953.000000	0.003547
3952.000000	0.003558
3951.000000	0.003583
3950.000000	0.003623
3949.000000	0.003676
3948.000000	0.003724
3947.000000	0.003750
3946.000000	0.003744
3945.000000	0.003708
3944.000000	0.003651
3943.000000	0.003593
3942.000000	0.003561
3941.000000	0.003562
3940.000000	0.003585
3939.000000	0.003607
3938.000000	0.003616
3937.000000	0.003624
3936.000000	0.003651
3935.000000	0.003702
3934.000000	0.003749
3933.000000	0.003764
3932.000000	0.003744
3931.000000	0.003711
3930.000000	0.003687
3929.000000	0.003671
3928.000000	0.003648
3927.000000	0.003613
3926.000000	0.003572
3925.000000	0.003548
3924.000000	0.003570
3923.000000	0.003639
3922.000000	0.003729
3921.000000	0.003801
3920.000000	0.003840
3919.000000	0.003856
3918.000000	0.003854
3917.000000	0.003824
3916.000000	0.003766
3915.000000	0.003706
3914.000000	0.003663
3913.000000	0.003631
3912.000000	0.003602
3911.000000	0.003579
3910.000000	0.003570
3909.000000	0.003571
3908.000000	0.003575
3907.000000	0.003593
3906.000000	0.003654
3905.000000	0.003785
3904.000000	0.003980
3903.000000	0.004179
3902.000000	0.004296
3901.000000	0.004291
3900.000000	0.004181
3899.000000	0.004038
3898.000000	0.003935
3897.000000	0.003885
3896.000000	0.003860
3895.000000	0.003824
3894.000000	0.003764
3893.000000	0.003704
3892.000000	0.003685
3891.000000	0.003715
3890.000000	0.003783
3889.000000	0.003886
3888.000000	0.004009
3887.000000	0.004085
3886.000000	0.004065
3885.000000	0.003995
3884.000000	0.003964
3883.000000	0.003983
3882.000000	0.003992
3881.000000	0.003960
3880.000000	0.003926
3879.000000	0.003925
3878.000000	0.003954
3877.000000	0.003981
3876.000000	0.003961
3875.000000	0.003882
3874.000000	0.003808
3873.000000	0.003832
3872.000000	0.003966
3871.000000	0.004104
3870.000000	0.004148
3869.000000	0.004119
3868.000000	0.004110
3867.000000	0.004159
3866.000000	0.004186
3865.000000	0.004129
3864.000000	0.004058
3863.000000	0.004060
3862.000000	0.004122
3861.000000	0.004166
3860.000000	0.004136
3859.000000	0.004011
3858.000000	0.003809
3857.000000	0.003595
3856.000000	0.003468
3855.000000	0.003464
3854.000000	0.003582
3853.000000	0.003780
3852.000000	0.003950
3851.000000	0.004045
3850.000000	0.004098
3849.000000	0.004112
3848.000000	0.004095
3847.000000	0.004066
3846.000000	0.004033
3845.000000	0.004008
3844.000000	0.004008
3843.000000	0.004034
3842.000000	0.004084
3841.000000	0.004141
3840.000000	0.004177
3839.000000	0.004190
3838.000000	0.004189
3837.000000	0.004176
3836.000000	0.004154
3835.000000	0.004136
3834.000000	0.004134
3833.000000	0.004131
3832.000000	0.004107
3831.000000	0.004069
3830.000000	0.004035
3829.000000	0.004009
3828.000000	0.003983
3827.000000	0.003951
3826.000000	0.003936
3825.000000	0.003983
3824.000000	0.004104
3823.000000	0.004215
3822.000000	0.004218
3821.000000	0.004142
3820.000000	0.004105
3819.000000	0.004141
3818.000000	0.004211
3817.000000	0.004218
3816.000000	0.004112
3815.000000	0.003962
3814.000000	0.003865
3813.000000	0.003836
3812.000000	0.003822
3811.000000	0.003792
3810.000000	0.003771
3809.000000	0.003798
3808.000000	0.003861
3807.000000	0.003923
3806.000000	0.003980
3805.000000	0.004061
3804.000000	0.004156
3803.000000	0.004191
3802.000000	0.004119
3801.000000	0.004018
3800.000000	0.003987
3799.000000	0.004021
3798.000000	0.004050
3797.000000	0.004016
3796.000000	0.003926
3795.000000	0.003830
3794.000000	0.003759
3793.000000	0.003699
3792.000000	0.003629
3791.000000	0.003557
3790.000000	0.003509
3789.000000	0.003496
3788.000000	0.003506
3787.000000	0.003522
3786.000000	0.003543
3785.000000	0.003572
3784.000000	0.003614
3783.000000	0.003670
3782.000000	0.003723
3781.000000	0.003741
3780.000000	0.003714
3779.000000	0.003677
3778.000000	0.003658
3777.000000	0.003659
3776.000000	0.003658
3775.000000	0.003642
3774.000000	0.003624
3773.000000	0.003642
3772.000000	0.003709
3771.000000	0.003786
3770.000000	0.003844
3769.000000	0.003894
3768.000000	0.003944
3767.000000	0.003979
3766.000000	0.003978
3765.000000	0.003942
3764.000000	0.003914
3763.000000	0.003932
3762.000000	0.003975
3761.000000	0.003984
3760.000000	0.003959
3759.000000	0.003966
3758.000000	0.004024
3757.000000	0.004087
3756.000000	0.004139
3755.000000	0.004211
3754.000000	0.004318
3753.000000	0.004427
3752.000000	0.004530
3751.000000	0.004661
3750.000000	0.004780
3749.000000	0.004796
3748.000000	0.004726
3747.000000	0.004679
3746.000000	0.004678
3745.000000	0.004644
3744.000000	0.004544
3743.000000	0.004465
3742.000000	0.004491
3741.000000	0.004595
3740.000000	0.004703
3739.000000	0.004792
3738.000000	0.004862
3737.000000	0.004873
3736.000000	0.004792
3735.000000	0.004685
3734.000000	0.004627
3733.000000	0.004575
3732.000000	0.004459
3731.000000	0.004294
3730.000000	0.004158
3729.000000	0.004103
3728.000000	0.004097
3727.000000	0.004072
3726.000000	0.004017
3725.000000	0.003975
3724.000000	0.003951
3723.000000	0.003913
3722.000000	0.003855
3721.000000	0.003796
3720.000000	0.003749
3719.000000	0.003726
3718.000000	0.003720
3717.000000	0.003731
3716.000000	0.003775
3715.000000	0.003861
3714.000000	0.003957
3713.000000	0.004006
3712.000000	0.004007
3711.000000	0.004004
3710.000000	0.004002
3709.000000	0.003976
3708.000000	0.003912
3707.000000	0.003824
3706.000000	0.003738
3705.000000	0.003669
3704.000000	0.003611
3703.000000	0.003544
3702.000000	0.003483
3701.000000	0.003449
3700.000000	0.003445
3699.000000	0.003463
3698.000000	0.003482
3697.000000	0.003482
3696.000000	0.003476
3695.000000	0.003500
3694.000000	0.003560
3693.000000	0.003613
3692.000000	0.003628
3691.000000	0.003644
3690.000000	0.003727
3689.000000	0.003863
3688.000000	0.003947
3687.000000	0.003928
3686.000000	0.003871
3685.000000	0.003827
3684.000000	0.003803
3683.000000	0.003790
3682.000000	0.003791
3681.000000	0.003804
3680.000000	0.003825
3679.000000	0.003887
3678.000000	0.004037
3677.000000	0.004213
3676.000000	0.004304
3675.000000	0.004321
3674.000000	0.004349
3673.000000	0.004430
3672.000000	0.004518
3671.000000	0.004488
3670.000000	0.004337
3669.000000	0.004194
3668.000000	0.004119
3667.000000	0.004073
3666.000000	0.004024
3665.000000	0.003962
3664.000000	0.003896
3663.000000	0.003847
3662.000000	0.003823
3661.000000	0.003826
3660.000000	0.003860
3659.000000	0.003925
3658.000000	0.004003
3657.000000	0.004071
3656.000000	0.004130
3655.000000	0.004207
3654.000000	0.004339
3653.000000	0.004531
3652.000000	0.004723
3651.000000	0.004848
3650.000000	0.004930
3649.000000	0.005010
3648.000000	0.005025
3647.000000	0.004923
3646.000000	0.004764
3645.000000	0.004620
3644.000000	0.004503
3643.000000	0.004391
3642.000000	0.004279
3641.000000	0.004195
3640.000000	0.004162
3639.000000	0.004168
3638.000000	0.004195
3637.000000	0.004243
3636.000000	0.004312
3635.000000	0.004376
3634.000000	0.004418
3633.000000	0.004469
3632.000000	0.004578
3631.000000	0.004730
3630.000000	0.004834
3629.000000	0.004869
3628.000000	0.004898
3627.000000	0.004934
3626.000000	0.004963
3625.000000	0.004972
3624.000000	0.004950
3623.000000	0.004907
3622.000000	0.004864
3621.000000	0.004820
3620.000000	0.004790
3619.000000	0.004824
3618.000000	0.004938
3617.000000	0.005088
3616.000000	0.005228
3615.000000	0.005324
3614.000000	0.005367
3613.000000	0.005394
3612.000000	0.005447
3611.000000	0.005524
3610.000000	0.005571
3609.000000	0.005532
3608.000000	0.005427
3607.000000	0.005329
3606.000000	0.005278
3605.000000	0.005262
3604.000000	0.005253
3603.000000	0.005241
3602.000000	0.005242
3601.000000	0.005267
3600.000000	0.005312
3599.000000	0.005372
3598.000000	0.005428
3597.000000	0.005464
3596.000000	0.005478
3595.000000	0.005486
3594.000000	0.005512
3593.000000	0.005575
3592.000000	0.005678
3591.000000	0.005806
3590.000000	0.005912
3589.000000	0.005939
3588.000000	0.005892
3587.000000	0.005849
3586.000000	0.005853
3585.000000	0.005874
3584.000000	0.005877
3583.000000	0.005854
3582.000000	0.005816
3581.000000	0.005777
3580.000000	0.005751
3579.000000	0.005744
3578.000000	0.005755
3577.000000	0.005776
3576.000000	0.005804
3575.000000	0.005844
3574.000000	0.005905
3573.000000	0.005994
3572.000000	0.006116
3571.000000	0.006269
3570.000000	0.006435
3569.000000	0.006560
3568.000000	0.006600
3567.000000	0.006582
3566.000000	0.006567
3565.000000	0.006575
3564.000000	0.006594
3563.000000	0.006599
3562.000000	0.006581
3561.000000	0.006550
3560.000000	0.006527
3559.000000	0.006525
3558.000000	0.006545
3557.000000	0.006580
3556.000000	0.006620
3555.000000	0.006661
3554.000000	0.006697
3553.000000	0.006737
3552.000000	0.006795
3551.000000	0.006880
3550.000000	0.006988
3549.000000	0.007099
3548.000000	0.007185
3547.000000	0.007230
3546.000000	0.007240
3545.000000	0.007236
3544.000000	0.007232
3543.000000	0.007231
3542.000000	0.007232
3541.000000	0.007234
3540.000000	0.007238
3539.000000	0.007246
3538.000000	0.007258
3537.000000	0.007278
3536.000000	0.007308
3535.000000	0.007353
3534.000000	0.007410
3533.000000	0.007467
3532.000000	0.007519
3531.000000	0.007562
3530.000000	0.007605
3529.000000	0.007662
3528.000000	0.007737
3527.000000	0.007826
3526.000000	0.007912
3525.000000	0.007971
3524.000000	0.007988
3523.000000	0.007976
3522.000000	0.007964
3521.000000	0.007967
3520.000000	0.007980
3519.000000	0.007993
3518.000000	0.008010
3517.000000	0.008037
3516.000000	0.008074
3515.000000	0.008107
3514.000000	0.008133
3513.000000	0.008159
3512.000000	0.008188
3511.000000	0.008217
3510.000000	0.008249
3509.000000	0.008294
3508.000000	0.008359
3507.000000	0.008433
3506.000000	0.008496
3505.000000	0.008534
3504.000000	0.008552
3503.000000	0.008570
3502.000000	0.008602
3501.000000	0.008648
3500.000000	0.008692
3499.000000	0.008724
3498.000000	0.008742
3497.000000	0.008759
3496.000000	0.008784
3495.000000	0.008819
3494.000000	0.008860
3493.000000	0.008898
3492.000000	0.008931
3491.000000	0.008960
3490.000000	0.008990
3489.000000	0.009025
3488.000000	0.009064
3487.000000	0.009106
3486.000000	0.009148
3485.000000	0.009181
3484.000000	0.009201
3483.000000	0.009213
3482.000000	0.009234
3481.000000	0.009274
3480.000000	0.009325
3479.000000	0.009368
3478.000000	0.009394
3477.000000	0.009408
3476.000000	0.009420
3475.000000	0.009440
3474.000000	0.009471
3473.000000	0.009513
3472.000000	0.009558
3471.000000	0.009600
3470.000000	0.009639
3469.000000	0.009675
3468.000000	0.009706
3467.000000	0.009733
3466.000000	0.009758
3465.000000	0.009784
3464.000000	0.009810
3463.000000	0.009840
3462.000000	0.009876
3461.000000	0.009918
3460.000000	0.009957
3459.000000	0.009984
3458.000000	0.010004
3457.000000	0.010027
3456.000000	0.010061
3455.000000	0.010100
3454.000000	0.010136
3453.000000	0.010168
3452.000000	0.010203
3451.000000	0.010244
3450.000000	0.010286
3449.000000	0.010322
3448.000000	0.010351
3447.000000	0.010383
3446.000000	0.010426
3445.000000	0.010471
3444.000000	0.010503
3443.000000	0.010517
3442.000000	0.010528
3441.000000	0.010554
3440.000000	0.010600
3439.000000	0.010653
3438.000000	0.010702
3437.000000	0.010746
3436.000000	0.010790
3435.000000	0.010833
3434.000000	0.010875
3433.000000	0.010914
3432.000000	0.010951
3431.000000	0.010983
3430.000000	0.011008
3429.000000	0.011028
3428.000000	0.011046
3427.000000	0.011066
3426.000000	0.011092
3425.000000	0.011125
3424.000000	0.011164
3423.000000	0.011203
3422.000000	0.011240
3421.000000	0.011279
3420.000000	0.011327
3419.000000	0.011378
3418.000000	0.011426
3417.000000	0.011469
3416.000000	0.011512
3415.000000	0.011556
3414.000000	0.011599
3413.000000	0.011639
3412.000000	0.011677
3411.000000	0.011718
3410.000000	0.011760
3409.000000	0.011802
3408.000000	0.011839
3407.000000	0.011869
3406.000000	0.011897
3405.000000	0.011931
3404.000000	0.011976
3403.000000	0.012030
3402.000000	0.012088
3401.000000	0.012144
3400.000000	0.012192
3399.000000	0.012230
3398.000000	0.012263
3397.000000	0.012298
3396.000000	0.012339
3395.000000	0.012377
3394.000000	0.012405
3393.000000	0.012425
3392.000000	0.012448
3391.000000	0.012477
3390.000000	0.012508
3389.000000	0.012535
3388.000000	0.012558
3387.000000	0.012582
3386.000000	0.012611
3385.000000	0.012648
3384.000000	0.012694
3383.000000	0.012745
3382.000000	0.012797
3381.000000	0.012843
3380.000000	0.012884
3379.000000	0.012920
3378.000000	0.012959
3377.000000	0.013000
3376.000000	0.013042
3375.000000	0.013083
3374.000000	0.013127
3373.000000	0.013179
3372.000000	0.013239
3371.000000	0.013305
3370.000000	0.013373
3369.000000	0.013437
3368.000000	0.013491
3367.000000	0.013531
3366.000000	0.013562
3365.000000	0.013595
3364.000000	0.013634
3363.000000	0.013681
3362.000000	0.013732
3361.000000	0.013784
3360.000000	0.013834
3359.000000	0.013880
3358.000000	0.013921
3357.000000	0.013963
3356.000000	0.014011
3355.000000	0.014069
3354.000000	0.014137
3353.000000	0.014206
3352.000000	0.014272
3351.000000	0.014332
3350.000000	0.014389
3349.000000	0.014450
3348.000000	0.014515
3347.000000	0.014585
3346.000000	0.014660
3345.000000	0.014738
3344.000000	0.014817
3343.000000	0.014897
3342.000000	0.014978
3341.000000	0.015063
3340.000000	0.015151
3339.000000	0.015231
3338.000000	0.015297
3337.000000	0.015348
3336.000000	0.015394
3335.000000	0.015443
3334.000000	0.015506
3333.000000	0.015584
3332.000000	0.015675
3331.000000	0.015772
3330.000000	0.015871
3329.000000	0.015971
3328.000000	0.016074
3327.000000	0.016176
3326.000000	0.016276
3325.000000	0.016372
3324.000000	0.016466
3323.000000	0.016556
3322.000000	0.016646
3321.000000	0.016737
3320.000000	0.016833
3319.000000	0.016935
3318.000000	0.017046
3317.000000	0.017165
3316.000000	0.017291
3315.000000	0.017420
3314.000000	0.017549
3313.000000	0.017680
3312.000000	0.017815
3311.000000	0.017949
3310.000000	0.018080
3309.000000	0.018207
3308.000000	0.018331
3307.000000	0.018455
3306.000000	0.018580
3305.000000	0.018705
3304.000000	0.018824
3303.000000	0.018933
3302.000000	0.019037
3301.000000	0.019144
3300.000000	0.019264
3299.000000	0.019398
3298.000000	0.019543
3297.000000	0.019691
3296.000000	0.019836
3295.000000	0.019970
3294.000000	0.020090
3293.000000	0.020198
3292.000000	0.020298
3291.000000	0.020394
3290.000000	0.020483
3289.000000	0.020566
3288.000000	0.020648
3287.000000	0.020729
3286.000000	0.020810
3285.000000	0.020889
3284.000000	0.020963
3283.000000	0.021033
3282.000000	0.021096
3281.000000	0.021154
3280.000000	0.021204
3279.000000	0.021250
3278.000000	0.021295
3277.000000	0.021339
3276.000000	0.021375
3275.000000	0.021395
3274.000000	0.021400
3273.000000	0.021394
3272.000000	0.021379
3271.000000	0.021351
3270.000000	0.021310
3269.000000	0.021255
3268.000000	0.021189
3267.000000	0.021115
3266.000000	0.021037
3265.000000	0.020958
3264.000000	0.020877
3263.000000	0.020790
3262.000000	0.020701
3261.000000	0.020613
3260.000000	0.020531
3259.000000	0.020455
3258.000000	0.020384
3257.000000	0.020311
3256.000000	0.020226
3255.000000	0.020124
3254.000000	0.020010
3253.000000	0.019899
3252.000000	0.019799
3251.000000	0.019709
3250.000000	0.019628
3249.000000	0.019553
3248.000000	0.019478
3247.000000	0.019393
3246.000000	0.019297
3245.000000	0.019194
3244.000000	0.019092
3243.000000	0.018993
3242.000000	0.018899
3241.000000	0.018806
3240.000000	0.018715
3239.000000	0.018627
3238.000000	0.018545
3237.000000	0.018470
3236.000000	0.018401
3235.000000	0.018333
3234.000000	0.018261
3233.000000	0.018182
3232.000000	0.018097
3231.000000	0.018010
3230.000000	0.017925
3229.000000	0.017845
3228.000000	0.017769
3227.000000	0.017692
3226.000000	0.017613
3225.000000	0.017535
3224.000000	0.017458
3223.000000	0.017385
3222.000000	0.017319
3221.000000	0.017256
3220.000000	0.017194
3219.000000	0.017130
3218.000000	0.017068
3217.000000	0.017007
3216.000000	0.016942
3215.000000	0.016870
3214.000000	0.016795
3213.000000	0.016725
3212.000000	0.016660
3211.000000	0.016593
3210.000000	0.016522
3209.000000	0.016449
3208.000000	0.016375
3207.000000	0.016301
3206.000000	0.016228
3205.000000	0.016160
3204.000000	0.016098
3203.000000	0.016040
3202.000000	0.015982
3201.000000	0.015923
3200.000000	0.015861
3199.000000	0.015796
3198.000000	0.015728
3197.000000	0.015661
3196.000000	0.015594
3195.000000	0.015529
3194.000000	0.015465
3193.000000	0.015400
3192.000000	0.015334
3191.000000	0.015263
3190.000000	0.015188
3189.000000	0.015107
3188.000000	0.015023
3187.000000	0.014941
3186.000000	0.014862
3185.000000	0.014791
3184.000000	0.014723
3183.000000	0.014658
3182.000000	0.014596
3181.000000	0.014533
3180.000000	0.014464
3179.000000	0.014390
3178.000000	0.014313
3177.000000	0.014236
3176.000000	0.014159
3175.000000	0.014082
3174.000000	0.014008
3173.000000	0.013940
3172.000000	0.013874
3171.000000	0.013807
3170.000000	0.013735
3169.000000	0.013659
3168.000000	0.013581
3167.000000	0.013508
3166.000000	0.013444
3165.000000	0.013390
3164.000000	0.013338
3163.000000	0.013283
3162.000000	0.013224
3161.000000	0.013166
3160.000000	0.013112
3159.000000	0.013061
3158.000000	0.013010
3157.000000	0.012957
3156.000000	0.012902
3155.000000	0.012849
3154.000000	0.012800
3153.000000	0.012752
3152.000000	0.012700
3151.000000	0.012642
3150.000000	0.012580
3149.000000	0.012517
3148.000000	0.012459
3147.000000	0.012408
3146.000000	0.012366
3145.000000	0.012326
3144.000000	0.012287
3143.000000	0.012247
3142.000000	0.012210
3141.000000	0.012175
3140.000000	0.012136
3139.000000	0.012089
3138.000000	0.012040
3137.000000	0.011997
3136.000000	0.011962
3135.000000	0.011928
3134.000000	0.011893
3133.000000	0.011859
3132.000000	0.011830
3131.000000	0.011806
3130.000000	0.011780
3129.000000	0.011750
3128.000000	0.011720
3127.000000	0.011696
3126.000000	0.011682
3125.000000	0.011673
3124.000000	0.011665
3123.000000	0.011656
3122.000000	0.011650
3121.000000	0.011652
3120.000000	0.011659
3119.000000	0.011665
3118.000000	0.011664
3117.000000	0.011655
3116.000000	0.011640
3115.000000	0.011622
3114.000000	0.011602
3113.000000	0.011580
3112.000000	0.011562
3111.000000	0.011554
3110.000000	0.011557
3109.000000	0.011562
3108.000000	0.011562
3107.000000	0.011557
3106.000000	0.011555
3105.000000	0.011560
3104.000000	0.011575
3103.000000	0.011595
3102.000000	0.011616
3101.000000	0.011635
3100.000000	0.011648
3099.000000	0.011657
3098.000000	0.011661
3097.000000	0.011664
3096.000000	0.011669
3095.000000	0.011681
3094.000000	0.011702
3093.000000	0.011729
3092.000000	0.011754
3091.000000	0.011774
3090.000000	0.011788
3089.000000	0.011798
3088.000000	0.011805
3087.000000	0.011812
3086.000000	0.011820
3085.000000	0.011830
3084.000000	0.011842
3083.000000	0.011858
3082.000000	0.011875
3081.000000	0.011893
3080.000000	0.011908
3079.000000	0.011920
3078.000000	0.011925
3077.000000	0.011921
3076.000000	0.011908
3075.000000	0.011892
3074.000000	0.011876
3073.000000	0.011865
3072.000000	0.011855
3071.000000	0.011845
3070.000000	0.011837
3069.000000	0.011832
3068.000000	0.011830
3067.000000	0.011823
3066.000000	0.011808
3065.000000	0.011785
3064.000000	0.011754
3063.000000	0.011720
3062.000000	0.011681
3061.000000	0.011640
3060.000000	0.011598
3059.000000	0.011557
3058.000000	0.011520
3057.000000	0.011486
3056.000000	0.011450
3055.000000	0.011409
3054.000000	0.011365
3053.000000	0.011322
3052.000000	0.011283
3051.000000	0.011246
3050.000000	0.011207
3049.000000	0.011165
3048.000000	0.011119
3047.000000	0.011071
3046.000000	0.011021
3045.000000	0.010972
3044.000000	0.010924
3043.000000	0.010876
3042.000000	0.010827
3041.000000	0.010775
3040.000000	0.010720
3039.000000	0.010664
3038.000000	0.010613
3037.000000	0.010570
3036.000000	0.010530
3035.000000	0.010491
3034.000000	0.010453
3033.000000	0.010415
3032.000000	0.010375
3031.000000	0.010328
3030.000000	0.010276
3029.000000	0.010224
3028.000000	0.010176
3027.000000	0.010134
3026.000000	0.010095
3025.000000	0.010057
3024.000000	0.010019
3023.000000	0.009984
3022.000000	0.009952
3021.000000	0.009923
3020.000000	0.009892
3019.000000	0.009856
3018.000000	0.009818
3017.000000	0.009782
3016.000000	0.009753
3015.000000	0.009730
3014.000000	0.009714
3013.000000	0.009705
3012.000000	0.009700
3011.000000	0.009696
3010.000000	0.009692
3009.000000	0.009690
3008.000000	0.009690
3007.000000	0.009692
3006.000000	0.009701
3005.000000	0.009721
3004.000000	0.009746
3003.000000	0.009772
3002.000000	0.009797
3001.000000	0.009823
3000.000000	0.009849
2999.000000	0.009872
2998.000000	0.009893
2997.000000	0.009915
2996.000000	0.009940
2995.000000	0.009968
2994.000000	0.010000
2993.000000	0.010036
2992.000000	0.010073
2991.000000	0.010108
2990.000000	0.010142
2989.000000	0.010178
2988.000000	0.010219
2987.000000	0.010268
2986.000000	0.010334
2985.000000	0.010425
2984.000000	0.010540
2983.000000	0.010656
2982.000000	0.010746
2981.000000	0.010791
2980.000000	0.010792
2979.000000	0.010765
2978.000000	0.010732
2977.000000	0.010704
2976.000000	0.010686
2975.000000	0.010677
2974.000000	0.010679
2973.000000	0.010690
2972.000000	0.010698
2971.000000	0.010689
2970.000000	0.010661
2969.000000	0.010622
2968.000000	0.010585
2967.000000	0.010554
2966.000000	0.010530
2965.000000	0.010511
2964.000000	0.010493
2963.000000	0.010478
2962.000000	0.010464
2961.000000	0.010450
2960.000000	0.010434
2959.000000	0.010414
2958.000000	0.010390
2957.000000	0.010365
2956.000000	0.010334
2955.000000	0.010291
2954.000000	0.010233
2953.000000	0.010161
2952.000000	0.010085
2951.000000	0.010014
2950.000000	0.009956
2949.000000	0.009912
2948.000000	0.009884
2947.000000	0.009871
2946.000000	0.009876
2945.000000	0.009895
2944.000000	0.009925
2943.000000	0.009962
2942.000000	0.010008
2941.000000	0.010063
2940.000000	0.010123
2939.000000	0.010191
2938.000000	0.010269
2937.000000	0.010363
2936.000000	0.010471
2935.000000	0.010587
2934.000000	0.010713
2933.000000	0.010851
2932.000000	0.011002
2931.000000	0.011159
2930.000000	0.011319
2929.000000	0.011481
2928.000000	0.011654
2927.000000	0.011849
2926.000000	0.012079
2925.000000	0.012351
2924.000000	0.012666
2923.000000	0.013019
2922.000000	0.013408
2921.000000	0.013823
2920.000000	0.014237
2919.000000	0.014605
2918.000000	0.014866
2917.000000	0.014955
2916.000000	0.014821
2915.000000	0.014460
2914.000000	0.013923
2913.000000	0.013305
2912.000000	0.012700
2911.000000	0.012170
2910.000000	0.011739
2909.000000	0.011403
2908.000000	0.011145
2907.000000	0.010945
2906.000000	0.010787
2905.000000	0.010658
2904.000000	0.010547
2903.000000	0.010445
2902.000000	0.010354
2901.000000	0.010276
2900.000000	0.010217
2899.000000	0.010176
2898.000000	0.010145
2897.000000	0.010116
2896.000000	0.010082
2895.000000	0.010042
2894.000000	0.009999
2893.000000	0.009959
2892.000000	0.009924
2891.000000	0.009893
2890.000000	0.009861
2889.000000	0.009829
2888.000000	0.009798
2887.000000	0.009772
2886.000000	0.009755
2885.000000	0.009746
2884.000000	0.009737
2883.000000	0.009722
2882.000000	0.009698
2881.000000	0.009669
2880.000000	0.009640
2879.000000	0.009613
2878.000000	0.009590
2877.000000	0.009571
2876.000000	0.009548
2875.000000	0.009516
2874.000000	0.009476
2873.000000	0.009429
2872.000000	0.009374
2871.000000	0.009308
2870.000000	0.009238
2869.000000	0.009174
2868.000000	0.009124
2867.000000	0.009088
2866.000000	0.009065
2865.000000	0.009055
2864.000000	0.009062
2863.000000	0.009086
2862.000000	0.009125
2861.000000	0.009174
2860.000000	0.009227
2859.000000	0.009286
2858.000000	0.009360
2857.000000	0.009462
2856.000000	0.009609
2855.000000	0.009820
2854.000000	0.010117
2853.000000	0.010508
2852.000000	0.010969
2851.000000	0.011424
2850.000000	0.011756
2849.000000	0.011854
2848.000000	0.011667
2847.000000	0.011239
2846.000000	0.010681
2845.000000	0.010119
2844.000000	0.009639
2843.000000	0.009270
2842.000000	0.009002
2841.000000	0.008809
2840.000000	0.008664
2839.000000	0.008546
2838.000000	0.008448
2837.000000	0.008369
2836.000000	0.008306
2835.000000	0.008255
2834.000000	0.008209
2833.000000	0.008169
2832.000000	0.008134
2831.000000	0.008104
2830.000000	0.008075
2829.000000	0.008047
2828.000000	0.008019
2827.000000	0.007992
2826.000000	0.007969
2825.000000	0.007951
2824.000000	0.007939
2823.000000	0.007930
2822.000000	0.007924
2821.000000	0.007917
2820.000000	0.007906
2819.000000	0.007888
2818.000000	0.007870
2817.000000	0.007856
2816.000000	0.007848
2815.000000	0.007841
2814.000000	0.007837
2813.000000	0.007835
2812.000000	0.007830
2811.000000	0.007818
2810.000000	0.007798
2809.000000	0.007777
2808.000000	0.007758
2807.000000	0.007740
2806.000000	0.007723
2805.000000	0.007709
2804.000000	0.007697
2803.000000	0.007686
2802.000000	0.007674
2801.000000	0.007659
2800.000000	0.007643
2799.000000	0.007627
2798.000000	0.007613
2797.000000	0.007599
2796.000000	0.007581
2795.000000	0.007557
2794.000000	0.007533
2793.000000	0.007514
2792.000000	0.007501
2791.000000	0.007490
2790.000000	0.007473
2789.000000	0.007451
2788.000000	0.007424
2787.000000	0.007397
2786.000000	0.007373
2785.000000	0.007358
2784.000000	0.007351
2783.000000	0.007345
2782.000000	0.007334
2781.000000	0.007317
2780.000000	0.007299
2779.000000	0.007284
2778.000000	0.007276
2777.000000	0.007274
2776.000000	0.007272
2775.000000	0.007263
2774.000000	0.007246
2773.000000	0.007225
2772.000000	0.007203
2771.000000	0.007181
2770.000000	0.007162
2769.000000	0.007147
2768.000000	0.007135
2767.000000	0.007122
2766.000000	0.007108
2765.000000	0.007095
2764.000000	0.007085
2763.000000	0.007072
2762.000000	0.007057
2761.000000	0.007038
2760.000000	0.007021
2759.000000	0.007007
2758.000000	0.006996
2757.000000	0.006986
2756.000000	0.006975
2755.000000	0.006962
2754.000000	0.006951
2753.000000	0.006945
2752.000000	0.006941
2751.000000	0.006935
2750.000000	0.006922
2749.000000	0.006904
2748.000000	0.006882
2747.000000	0.006861
2746.000000	0.006843
2745.000000	0.006829
2744.000000	0.006816
2743.000000	0.006802
2742.000000	0.006790
2741.000000	0.006781
2740.000000	0.006774
2739.000000	0.006765
2738.000000	0.006751
2737.000000	0.006735
2736.000000	0.006719
2735.000000	0.006707
2734.000000	0.006697
2733.000000	0.006686
2732.000000	0.006673
2731.000000	0.006658
2730.000000	0.006646
2729.000000	0.006639
2728.000000	0.006635
2727.000000	0.006627
2726.000000	0.006614
2725.000000	0.006598
2724.000000	0.006579
2723.000000	0.006561
2722.000000	0.006544
2721.000000	0.006532
2720.000000	0.006519
2719.000000	0.006500
2718.000000	0.006476
2717.000000	0.006456
2716.000000	0.006446
2715.000000	0.006442
2714.000000	0.006437
2713.000000	0.006428
2712.000000	0.006414
2711.000000	0.006402
2710.000000	0.006396
2709.000000	0.006394
2708.000000	0.006391
2707.000000	0.006381
2706.000000	0.006367
2705.000000	0.006354
2704.000000	0.006345
2703.000000	0.006340
2702.000000	0.006335
2701.000000	0.006328
2700.000000	0.006316
2699.000000	0.006300
2698.000000	0.006285
2697.000000	0.006275
2696.000000	0.006272
2695.000000	0.006269
2694.000000	0.006263
2693.000000	0.006254
2692.000000	0.006244
2691.000000	0.006235
2690.000000	0.006228
2689.000000	0.006225
2688.000000	0.006225
2687.000000	0.006223
2686.000000	0.006218
2685.000000	0.006211
2684.000000	0.006203
2683.000000	0.006194
2682.000000	0.006185
2681.000000	0.006178
2680.000000	0.006173
2679.000000	0.006168
2678.000000	0.006163
2677.000000	0.006160
2676.000000	0.006162
2675.000000	0.006164
2674.000000	0.006166
2673.000000	0.006163
2672.000000	0.006157
2671.000000	0.006149
2670.000000	0.006142
2669.000000	0.006140
2668.000000	0.006147
2667.000000	0.006167
2666.000000	0.006206
2665.000000	0.006262
2664.000000	0.006323
2663.000000	0.006379
2662.000000	0.006421
2661.000000	0.006453
2660.000000	0.006478
2659.000000	0.006497
2658.000000	0.006512
2657.000000	0.006521
2656.000000	0.006524
2655.000000	0.006519
2654.000000	0.006510
2653.000000	0.006500
2652.000000	0.006489
2651.000000	0.006476
2650.000000	0.006467
2649.000000	0.006467
2648.000000	0.006475
2647.000000	0.006479
2646.000000	0.006476
2645.000000	0.006464
2644.000000	0.006450
2643.000000	0.006437
2642.000000	0.006425
2641.000000	0.006417
2640.000000	0.006410
2639.000000	0.006401
2638.000000	0.006392
2637.000000	0.006383
2636.000000	0.006376
2635.000000	0.006369
2634.000000	0.006358
2633.000000	0.006341
2632.000000	0.006317
2631.000000	0.006289
2630.000000	0.006264
2629.000000	0.006249
2628.000000	0.006240
2627.000000	0.006229
2626.000000	0.006215
2625.000000	0.006200
2624.000000	0.006187
2623.000000	0.006172
2622.000000	0.006155
2621.000000	0.006139
2620.000000	0.006124
2619.000000	0.006112
2618.000000	0.006101
2617.000000	0.006093
2616.000000	0.006083
2615.000000	0.006065
2614.000000	0.006038
2613.000000	0.006010
2612.000000	0.005986
2611.000000	0.005966
2610.000000	0.005950
2609.000000	0.005936
2608.000000	0.005927
2607.000000	0.005920
2606.000000	0.005913
2605.000000	0.005903
2604.000000	0.005887
2603.000000	0.005862
2602.000000	0.005834
2601.000000	0.005814
2600.000000	0.005806
2599.000000	0.005803
2598.000000	0.005794
2597.000000	0.005779
2596.000000	0.005763
2595.000000	0.005750
2594.000000	0.005736
2593.000000	0.005717
2592.000000	0.005693
2591.000000	0.005668
2590.000000	0.005646
2589.000000	0.005629
2588.000000	0.005614
2587.000000	0.005601
2586.000000	0.005589
2585.000000	0.005578
2584.000000	0.005566
2583.000000	0.005555
2582.000000	0.005547
2581.000000	0.005544
2580.000000	0.005544
2579.000000	0.005539
2578.000000	0.005527
2577.000000	0.005510
2576.000000	0.005488
2575.000000	0.005463
2574.000000	0.005436
2573.000000	0.005414
2572.000000	0.005398
2571.000000	0.005386
2570.000000	0.005374
2569.000000	0.005364
2568.000000	0.005356
2567.000000	0.005347
2566.000000	0.005334
2565.000000	0.005317
2564.000000	0.005301
2563.000000	0.005289
2562.000000	0.005284
2561.000000	0.005280
2560.000000	0.005272
2559.000000	0.005257
2558.000000	0.005240
2557.000000	0.005224
2556.000000	0.005209
2555.000000	0.005191
2554.000000	0.005176
2553.000000	0.005169
2552.000000	0.005167
2551.000000	0.005165
2550.000000	0.005159
2549.000000	0.005153
2548.000000	0.005148
2547.000000	0.005145
2546.000000	0.005145
2545.000000	0.005145
2544.000000	0.005137
2543.000000	0.005119
2542.000000	0.005100
2541.000000	0.005088
2540.000000	0.005085
2539.000000	0.005081
2538.000000	0.005072
2537.000000	0.005060
2536.000000	0.005046
2535.000000	0.005028
2534.000000	0.005006
2533.000000	0.004987
2532.000000	0.004975
2531.000000	0.004973
2530.000000	0.004978
2529.000000	0.004989
2528.000000	0.004997
2527.000000	0.004993
2526.000000	0.004978
2525.000000	0.004960
2524.000000	0.004946
2523.000000	0.004935
2522.000000	0.004928
2521.000000	0.004924
2520.000000	0.004925
2519.000000	0.004929
2518.000000	0.004938
2517.000000	0.004947
2516.000000	0.004952
2515.000000	0.004946
2514.000000	0.004931
2513.000000	0.004916
2512.000000	0.004904
2511.000000	0.004893
2510.000000	0.004885
2509.000000	0.004882
2508.000000	0.004881
2507.000000	0.004877
2506.000000	0.004868
2505.000000	0.004861
2504.000000	0.004858
2503.000000	0.004857
2502.000000	0.004855
2501.000000	0.004854
2500.000000	0.004853
2499.000000	0.004850
2498.000000	0.004842
2497.000000	0.004835
2496.000000	0.004830
2495.000000	0.004829
2494.000000	0.004828
2493.000000	0.004824
2492.000000	0.004815
2491.000000	0.004802
2490.000000	0.004786
2489.000000	0.004773
2488.000000	0.004763
2487.000000	0.004753
2486.000000	0.004741
2485.000000	0.004727
2484.000000	0.004714
2483.000000	0.004707
2482.000000	0.004708
2481.000000	0.004714
2480.000000	0.004718
2479.000000	0.004717
2478.000000	0.004712
2477.000000	0.004707
2476.000000	0.004701
2475.000000	0.004695
2474.000000	0.004693
2473.000000	0.004698
2472.000000	0.004701
2471.000000	0.004699
2470.000000	0.004695
2469.000000	0.004699
2468.000000	0.004708
2467.000000	0.004715
2466.000000	0.004716
2465.000000	0.004712
2464.000000	0.004706
2463.000000	0.004703
2462.000000	0.004711
2461.000000	0.004732
2460.000000	0.004758
2459.000000	0.004779
2458.000000	0.004796
2457.000000	0.004815
2456.000000	0.004833
2455.000000	0.004840
2454.000000	0.004831
2453.000000	0.004809
2452.000000	0.004779
2451.000000	0.004746
2450.000000	0.004719
2449.000000	0.004706
2448.000000	0.004701
2447.000000	0.004692
2446.000000	0.004673
2445.000000	0.004648
2444.000000	0.004627
2443.000000	0.004612
2442.000000	0.004602
2441.000000	0.004592
2440.000000	0.004579
2439.000000	0.004565
2438.000000	0.004556
2437.000000	0.004554
2436.000000	0.004549
2435.000000	0.004534
2434.000000	0.004513
2433.000000	0.004498
2432.000000	0.004491
2431.000000	0.004483
2430.000000	0.004469
2429.000000	0.004455
2428.000000	0.004444
2427.000000	0.004432
2426.000000	0.004414
2425.000000	0.004393
2424.000000	0.004376
2423.000000	0.004365
2422.000000	0.004358
2421.000000	0.004350
2420.000000	0.004338
2419.000000	0.004323
2418.000000	0.004310
2417.000000	0.004306
2416.000000	0.004308
2415.000000	0.004313
2414.000000	0.004318
2413.000000	0.004324
2412.000000	0.004331
2411.000000	0.004330
2410.000000	0.004311
2409.000000	0.004270
2408.000000	0.004217
2407.000000	0.004166
2406.000000	0.004130
2405.000000	0.004111
2404.000000	0.004101
2403.000000	0.004096
2402.000000	0.004093
2401.000000	0.004092
2400.000000	0.004088
2399.000000	0.004079
2398.000000	0.004072
2397.000000	0.004074
2396.000000	0.004083
2395.000000	0.004089
2394.000000	0.004083
2393.000000	0.004061
2392.000000	0.004030
2391.000000	0.004000
2390.000000	0.003983
2389.000000	0.003980
2388.000000	0.003978
2387.000000	0.003966
2386.000000	0.003945
2385.000000	0.003922
2384.000000	0.003898
2383.000000	0.003868
2382.000000	0.003834
2381.000000	0.003805
2380.000000	0.003791
2379.000000	0.003794
2378.000000	0.003814
2377.000000	0.003847
2376.000000	0.003885
2375.000000	0.003914
2374.000000	0.003928
2373.000000	0.003926
2372.000000	0.003912
2371.000000	0.003891
2370.000000	0.003870
2369.000000	0.003859
2368.000000	0.003858
2367.000000	0.003866
2366.000000	0.003878
2365.000000	0.003893
2364.000000	0.003908
2363.000000	0.003926
2362.000000	0.003950
2361.000000	0.003982
2360.000000	0.004009
2359.000000	0.004019
2358.000000	0.004017
2357.000000	0.004015
2356.000000	0.004016
2355.000000	0.004006
2354.000000	0.003966
2353.000000	0.003896
2352.000000	0.003842
2351.000000	0.003853
2350.000000	0.003945
2349.000000	0.004103
2348.000000	0.004278
2347.000000	0.004403
2346.000000	0.004433
2345.000000	0.004392
2344.000000	0.004347
2343.000000	0.004327
2342.000000	0.004331
2341.000000	0.004362
2340.000000	0.004405
2339.000000	0.004432
2338.000000	0.004427
2337.000000	0.004403
2336.000000	0.004383
2335.000000	0.004373
2334.000000	0.004363
2333.000000	0.004345
2332.000000	0.004319
2331.000000	0.004305
2330.000000	0.004345
2329.000000	0.004516
2328.000000	0.004849
2327.000000	0.005280
2326.000000	0.005653
2325.000000	0.005826
2324.000000	0.005772
2323.000000	0.005572
2322.000000	0.005344
2321.000000	0.005161
2320.000000	0.005029
2319.000000	0.004936
2318.000000	0.004864
2317.000000	0.004812
2316.000000	0.004771
2315.000000	0.004730
2314.000000	0.004677
2313.000000	0.004616
2312.000000	0.004554
2311.000000	0.004509
2310.000000	0.004487
2309.000000	0.004488
2308.000000	0.004502
2307.000000	0.004524
2306.000000	0.004550
2305.000000	0.004578
2304.000000	0.004598
2303.000000	0.004607
2302.000000	0.004606
2301.000000	0.004608
2300.000000	0.004624
2299.000000	0.004662
2298.000000	0.004722
2297.000000	0.004797
2296.000000	0.004873
2295.000000	0.004936
2294.000000	0.004990
2293.000000	0.005048
2292.000000	0.005120
2291.000000	0.005202
2290.000000	0.005281
2289.000000	0.005346
2288.000000	0.005384
2287.000000	0.005383
2286.000000	0.005344
2285.000000	0.005281
2284.000000	0.005214
2283.000000	0.005155
2282.000000	0.005109
2281.000000	0.005069
2280.000000	0.005026
2279.000000	0.004973
2278.000000	0.004915
2277.000000	0.004867
2276.000000	0.004836
2275.000000	0.004817
2274.000000	0.004797
2273.000000	0.004770
2272.000000	0.004733
2271.000000	0.004686
2270.000000	0.004630
2269.000000	0.004567
2268.000000	0.004506
2267.000000	0.004459
2266.000000	0.004436
2265.000000	0.004437
2264.000000	0.004449
2263.000000	0.004465
2262.000000	0.004486
2261.000000	0.004515
2260.000000	0.004538
2259.000000	0.004533
2258.000000	0.004484
2257.000000	0.004401
2256.000000	0.004307
2255.000000	0.004232
2254.000000	0.004197
2253.000000	0.004202
2252.000000	0.004231
2251.000000	0.004268
2250.000000	0.004309
2249.000000	0.004352
2248.000000	0.004386
2247.000000	0.004397
2246.000000	0.004389
2245.000000	0.004374
2244.000000	0.004358
2243.000000	0.004339
2242.000000	0.004322
2241.000000	0.004313
2240.000000	0.004310
2239.000000	0.004314
2238.000000	0.004335
2237.000000	0.004377
2236.000000	0.004417
2235.000000	0.004426
2234.000000	0.004401
2233.000000	0.004367
2232.000000	0.004340
2231.000000	0.004318
2230.000000	0.004295
2229.000000	0.004273
2228.000000	0.004247
2227.000000	0.004209
2226.000000	0.004171
2225.000000	0.004157
2224.000000	0.004169
2223.000000	0.004185
2222.000000	0.004186
2221.000000	0.004179
2220.000000	0.004174
2219.000000	0.004168
2218.000000	0.004151
2217.000000	0.004124
2216.000000	0.004103
2215.000000	0.004102
2214.000000	0.004126
2213.000000	0.004163
2212.000000	0.004187
2211.000000	0.004186
2210.000000	0.004171
2209.000000	0.004157
2208.000000	0.004143
2207.000000	0.004116
2206.000000	0.004079
2205.000000	0.004048
2204.000000	0.004040
2203.000000	0.004057
2202.000000	0.004099
2201.000000	0.004154
2200.000000	0.004197
2199.000000	0.004206
2198.000000	0.004185
2197.000000	0.004160
2196.000000	0.004147
2195.000000	0.004145
2194.000000	0.004154
2193.000000	0.004178
2192.000000	0.004212
2191.000000	0.004245
2190.000000	0.004281
2189.000000	0.004326
2188.000000	0.004371
2187.000000	0.004385
2186.000000	0.004332
2185.000000	0.004187
2184.000000	0.003956
2183.000000	0.003707
2182.000000	0.003559
2181.000000	0.003584
2180.000000	0.003721
2179.000000	0.003818
2178.000000	0.003771
2177.000000	0.003616
2176.000000	0.003485
2175.000000	0.003485
2174.000000	0.003634
2173.000000	0.003864
2172.000000	0.004092
2171.000000	0.004285
2170.000000	0.004467
2169.000000	0.004652
2168.000000	0.004799
2167.000000	0.004864
2166.000000	0.004895
2165.000000	0.004995
2164.000000	0.005168
2163.000000	0.005209
2162.000000	0.004798
2161.000000	0.003781
2160.000000	0.002402
2159.000000	0.001199
2158.000000	0.000589
2157.000000	0.000579
2156.000000	0.000885
2155.000000	0.001239
2154.000000	0.001533
2153.000000	0.001763
2152.000000	0.001927
2151.000000	0.002024
2150.000000	0.002072
2149.000000	0.002093
2148.000000	0.002095
2147.000000	0.002086
2146.000000	0.002096
2145.000000	0.002144
2144.000000	0.002206
2143.000000	0.002243
2142.000000	0.002247
2141.000000	0.002237
2140.000000	0.002224
2139.000000	0.002187
2138.000000	0.002092
2137.000000	0.001919
2136.000000	0.001696
2135.000000	0.001508
2134.000000	0.001451
2133.000000	0.001554
2132.000000	0.001755
2131.000000	0.001973
2130.000000	0.002168
2129.000000	0.002329
2128.000000	0.002452
2127.000000	0.002544
2126.000000	0.002634
2125.000000	0.002746
2124.000000	0.002872
2123.000000	0.002994
2122.000000	0.003116
2121.000000	0.003251
2120.000000	0.003393
2119.000000	0.003520
2118.000000	0.003624
2117.000000	0.003711
2116.000000	0.003777
2115.000000	0.003811
2114.000000	0.003818
2113.000000	0.003818
2112.000000	0.003821
2111.000000	0.003823
2110.000000	0.003820
2109.000000	0.003816
2108.000000	0.003807
2107.000000	0.003782
2106.000000	0.003746
2105.000000	0.003714
2104.000000	0.003693
2103.000000	0.003682
2102.000000	0.003681
2101.000000	0.003691
2100.000000	0.003693
2099.000000	0.003653
2098.000000	0.003555
2097.000000	0.003420
2096.000000	0.003298
2095.000000	0.003237
2094.000000	0.003260
2093.000000	0.003354
2092.000000	0.003473
2091.000000	0.003577
2090.000000	0.003655
2089.000000	0.003711
2088.000000	0.003749
2087.000000	0.003773
2086.000000	0.003802
2085.000000	0.003849
2084.000000	0.003903
2083.000000	0.003940
2082.000000	0.003952
2081.000000	0.003947
2080.000000	0.003935
2079.000000	0.003915
2078.000000	0.003892
2077.000000	0.003874
2076.000000	0.003859
2075.000000	0.003843
2074.000000	0.003831
2073.000000	0.003824
2072.000000	0.003812
2071.000000	0.003778
2070.000000	0.003729
2069.000000	0.003684
2068.000000	0.003658
2067.000000	0.003653
2066.000000	0.003662
2065.000000	0.003672
2064.000000	0.003661
2063.000000	0.003627
2062.000000	0.003595
2061.000000	0.003593
2060.000000	0.003626
2059.000000	0.003682
2058.000000	0.003738
2057.000000	0.003765
2056.000000	0.003775
2055.000000	0.003870
2054.000000	0.004168
2053.000000	0.004639
2052.000000	0.005045
2051.000000	0.005132
2050.000000	0.004863
2049.000000	0.004435
2048.000000	0.004069
2047.000000	0.003841
2046.000000	0.003725
2045.000000	0.003688
2044.000000	0.003688
2043.000000	0.003687
2042.000000	0.003686
2041.000000	0.003718
2040.000000	0.003781
2039.000000	0.003839
2038.000000	0.003864
2037.000000	0.003848
2036.000000	0.003763
2035.000000	0.003589
2034.000000	0.003379
2033.000000	0.003222
2032.000000	0.003132
2031.000000	0.003051
2030.000000	0.002958
2029.000000	0.002895
2028.000000	0.002878
2027.000000	0.002864
2026.000000	0.002826
2025.000000	0.002785
2024.000000	0.002756
2023.000000	0.002725
2022.000000	0.002698
2021.000000	0.002697
2020.000000	0.002709
2019.000000	0.002690
2018.000000	0.002644
2017.000000	0.002633
2016.000000	0.002689
2015.000000	0.002763
2014.000000	0.002795
2013.000000	0.002790
2012.000000	0.002796
2011.000000	0.002836
2010.000000	0.002863
2009.000000	0.002791
2008.000000	0.002576
2007.000000	0.002289
2006.000000	0.002079
2005.000000	0.002039
2004.000000	0.002125
2003.000000	0.002238
2002.000000	0.002344
2001.000000	0.002471
2000.000000	0.002630
1999.000000	0.002794
1998.000000	0.002938
1997.000000	0.003053
1996.000000	0.003120
1995.000000	0.003122
1994.000000	0.003094
1993.000000	0.003105
1992.000000	0.003183
1991.000000	0.003290
1990.000000	0.003377
1989.000000	0.003425
1988.000000	0.003442
1987.000000	0.003455
1986.000000	0.003520
1985.000000	0.003685
1984.000000	0.003947
1983.000000	0.004249
1982.000000	0.004491
1981.000000	0.004527
1980.000000	0.004213
1979.000000	0.003563
1978.000000	0.002826
1977.000000	0.002303
1976.000000	0.002064
1975.000000	0.001984
1974.000000	0.001967
1973.000000	0.002008
1972.000000	0.002073
1971.000000	0.002102
1970.000000	0.002099
1969.000000	0.002119
1968.000000	0.002150
1967.000000	0.002133
1966.000000	0.002073
1965.000000	0.002038
1964.000000	0.002028
1963.000000	0.001975
1962.000000	0.001860
1961.000000	0.001742
1960.000000	0.001670
1959.000000	0.001641
1958.000000	0.001665
1957.000000	0.001763
1956.000000	0.001900
1955.000000	0.002008
1954.000000	0.002070
1953.000000	0.002123
1952.000000	0.002170
1951.000000	0.002183
1950.000000	0.002160
1949.000000	0.002141
1948.000000	0.002145
1947.000000	0.002162
1946.000000	0.002187
1945.000000	0.002237
1944.000000	0.002300
1943.000000	0.002346
1942.000000	0.002367
1941.000000	0.002385
1940.000000	0.002397
1939.000000	0.002372
1938.000000	0.002317
1937.000000	0.002271
1936.000000	0.002247
1935.000000	0.002222
1934.000000	0.002200
1933.000000	0.002213
1932.000000	0.002265
1931.000000	0.002319
1930.000000	0.002350
1929.000000	0.002364
1928.000000	0.002372
1927.000000	0.002376
1926.000000	0.002381
1925.000000	0.002409
1924.000000	0.002471
1923.000000	0.002558
1922.000000	0.002648
1921.000000	0.002724
1920.000000	0.002765
1919.000000	0.002755
1918.000000	0.002707
1917.000000	0.002669
1916.000000	0.002676
1915.000000	0.002707
1914.000000	0.002716
1913.000000	0.002695
1912.000000	0.002676
1911.000000	0.002677
1910.000000	0.002687
1909.000000	0.002690
1908.000000	0.002687
1907.000000	0.002683
1906.000000	0.002671
1905.000000	0.002656
1904.000000	0.002657
1903.000000	0.002675
1902.000000	0.002685
1901.000000	0.002675
1900.000000	0.002660
1899.000000	0.002657
1898.000000	0.002664
1897.000000	0.002676
1896.000000	0.002688
1895.000000	0.002697
1894.000000	0.002690
1893.000000	0.002669
1892.000000	0.002661
1891.000000	0.002675
1890.000000	0.002693
1889.000000	0.002694
1888.000000	0.002691
1887.000000	0.002704
1886.000000	0.002723
1885.000000	0.002728
1884.000000	0.002726
1883.000000	0.002727
1882.000000	0.002720
1881.000000	0.002696
1880.000000	0.002667
1879.000000	0.002652
1878.000000	0.002647
1877.000000	0.002645
1876.000000	0.002646
1875.000000	0.002657
1874.000000	0.002676
1873.000000	0.002691
1872.000000	0.002704
1871.000000	0.002730
1870.000000	0.002768
1869.000000	0.002794
1868.000000	0.002798
1867.000000	0.002808
1866.000000	0.002818
1865.000000	0.002802
1864.000000	0.002759
1863.000000	0.002719
1862.000000	0.002698
1861.000000	0.002683
1860.000000	0.002671
1859.000000	0.002671
1858.000000	0.002680
1857.000000	0.002680
1856.000000	0.002668
1855.000000	0.002655
1854.000000	0.002646
1853.000000	0.002641
1852.000000	0.002649
1851.000000	0.002670
1850.000000	0.002690
1849.000000	0.002697
1848.000000	0.002701
1847.000000	0.002713
1846.000000	0.002728
1845.000000	0.002732
1844.000000	0.002720
1843.000000	0.002710
1842.000000	0.002727
1841.000000	0.002769
1840.000000	0.002797
1839.000000	0.002785
1838.000000	0.002755
1837.000000	0.002740
1836.000000	0.002742
1835.000000	0.002739
1834.000000	0.002727
1833.000000	0.002721
1832.000000	0.002719
1831.000000	0.002715
1830.000000	0.002724
1829.000000	0.002749
1828.000000	0.002779
1827.000000	0.002802
1826.000000	0.002811
1825.000000	0.002805
1824.000000	0.002787
1823.000000	0.002778
1822.000000	0.002782
1821.000000	0.002758
1820.000000	0.002667
1819.000000	0.002543
1818.000000	0.002457
1817.000000	0.002435
1816.000000	0.002454
1815.000000	0.002502
1814.000000	0.002585
1813.000000	0.002674
1812.000000	0.002736
1811.000000	0.002781
1810.000000	0.002834
1809.000000	0.002863
1808.000000	0.002849
1807.000000	0.002831
1806.000000	0.002832
1805.000000	0.002830
1804.000000	0.002811
1803.000000	0.002817
1802.000000	0.002890
1801.000000	0.002993
1800.000000	0.003058
1799.000000	0.003086
1798.000000	0.003102
1797.000000	0.003103
1796.000000	0.003096
1795.000000	0.003117
1794.000000	0.003179
1793.000000	0.003233
1792.000000	0.003217
1791.000000	0.003157
1790.000000	0.003123
1789.000000	0.003114
1788.000000	0.003096
1787.000000	0.003068
1786.000000	0.003042
1785.000000	0.003023
1784.000000	0.003008
1783.000000	0.003015
1782.000000	0.003055
1781.000000	0.003104
1780.000000	0.003130
1779.000000	0.003119
1778.000000	0.003097
1777.000000	0.003095
1776.000000	0.003121
1775.000000	0.003165
1774.000000	0.003219
1773.000000	0.003288
1772.000000	0.003308
1771.000000	0.003247
1770.000000	0.003199
1769.000000	0.003212
1768.000000	0.003207
1767.000000	0.003136
1766.000000	0.003068
1765.000000	0.003055
1764.000000	0.003055
1763.000000	0.003009
1762.000000	0.002955
1761.000000	0.002959
1760.000000	0.003006
1759.000000	0.003050
1758.000000	0.003092
1757.000000	0.003152
1756.000000	0.003210
1755.000000	0.003238
1754.000000	0.003285
1753.000000	0.003398
1752.000000	0.003532
1751.000000	0.003592
1750.000000	0.003591
1749.000000	0.003635
1748.000000	0.003694
1747.000000	0.003654
1746.000000	0.003526
1745.000000	0.003407
1744.000000	0.003307
1743.000000	0.003166
1742.000000	0.003021
1741.000000	0.002948
1740.000000	0.002911
1739.000000	0.002815
1738.000000	0.002735
1737.000000	0.002788
1736.000000	0.002951
1735.000000	0.003107
1734.000000	0.003161
1733.000000	0.003158
1732.000000	0.003222
1731.000000	0.003325
1730.000000	0.003375
1729.000000	0.003400
1728.000000	0.003450
1727.000000	0.003509
1726.000000	0.003565
1725.000000	0.003663
1724.000000	0.003803
1723.000000	0.003914
1722.000000	0.003973
1721.000000	0.004044
1720.000000	0.004189
1719.000000	0.004425
1718.000000	0.004737
1717.000000	0.004972
1716.000000	0.005080
1715.000000	0.005175
1714.000000	0.005287
1713.000000	0.005413
1712.000000	0.005598
1711.000000	0.005853
1710.000000	0.006160
1709.000000	0.006521
1708.000000	0.006968
1707.000000	0.007546
1706.000000	0.008241
1705.000000	0.008966
1704.000000	0.009657
1703.000000	0.010345
1702.000000	0.011046
1701.000000	0.011783
1700.000000	0.012508
1699.000000	0.013251
1698.000000	0.013982
1697.000000	0.014461
1696.000000	0.014534
1695.000000	0.014462
1694.000000	0.014589
1693.000000	0.014925
1692.000000	0.015316
1691.000000	0.015668
1690.000000	0.016007
1689.000000	0.016386
1688.000000	0.016808
1687.000000	0.017249
1686.000000	0.017649
1685.000000	0.018024
1684.000000	0.018346
1683.000000	0.018611
1682.000000	0.018965
1681.000000	0.019459
1680.000000	0.019957
1679.000000	0.020385
1678.000000	0.020761
1677.000000	0.021134
1676.000000	0.021534
1675.000000	0.021957
1674.000000	0.022454
1673.000000	0.023061
1672.000000	0.023687
1671.000000	0.024180
1670.000000	0.024503
1669.000000	0.024781
1668.000000	0.025156
1667.000000	0.025617
1666.000000	0.026105
1665.000000	0.026592
1664.000000	0.027066
1663.000000	0.027511
1662.000000	0.027935
1661.000000	0.028403
1660.000000	0.028944
1659.000000	0.029460
1658.000000	0.029906
1657.000000	0.030338
1656.000000	0.030827
1655.000000	0.031230
1654.000000	0.031432
1653.000000	0.031448
1652.000000	0.031656
1651.000000	0.032244
1650.000000	0.033052
1649.000000	0.033753
1648.000000	0.034243
1647.000000	0.034476
1646.000000	0.034515
1645.000000	0.034588
1644.000000	0.034844
1643.000000	0.035209
1642.000000	0.035557
1641.000000	0.035860
1640.000000	0.036201
1639.000000	0.036625
1638.000000	0.037049
1637.000000	0.037342
1636.000000	0.037462
1635.000000	0.037462
1634.000000	0.037576
1633.000000	0.037943
1632.000000	0.038465
1631.000000	0.038967
1630.000000	0.039359
1629.000000	0.039683
1628.000000	0.040042
1627.000000	0.040449
1626.000000	0.040847
1625.000000	0.041194
1624.000000	0.041486
1623.000000	0.041702
1622.000000	0.041871
1621.000000	0.042125
1620.000000	0.042480
1619.000000	0.042737
1618.000000	0.042629
1617.000000	0.042106
1616.000000	0.041461
1615.000000	0.040960
1614.000000	0.040566
1613.000000	0.040135
1612.000000	0.039585
1611.000000	0.038891
1610.000000	0.038056
1609.000000	0.037135
1608.000000	0.036208
1607.000000	0.035289
1606.000000	0.034367
1605.000000	0.033466
1604.000000	0.032621
1603.000000	0.031808
1602.000000	0.031004
1601.000000	0.030252
1600.000000	0.029596
1599.000000	0.029018
1598.000000	0.028476
1597.000000	0.027970
1596.000000	0.027518
1595.000000	0.027100
1594.000000	0.026678
1593.000000	0.026265
1592.000000	0.025901
1591.000000	0.025584
1590.000000	0.025272
1589.000000	0.024973
1588.000000	0.024736
1587.000000	0.024561
1586.000000	0.024417
1585.000000	0.024313
1584.000000	0.024279
1583.000000	0.024293
1582.000000	0.024296
1581.000000	0.024314
1580.000000	0.024419
1579.000000	0.024606
1578.000000	0.024769
1577.000000	0.024856
1576.000000	0.024897
1575.000000	0.024930
1574.000000	0.025036
1573.000000	0.025247
1572.000000	0.025480
1571.000000	0.025669
1570.000000	0.025844
1569.000000	0.026084
1568.000000	0.026425
1567.000000	0.026793
1566.000000	0.027126
1565.000000	0.027429
1564.000000	0.027735
1563.000000	0.028045
1562.000000	0.028310
1561.000000	0.028553
1560.000000	0.028961
1559.000000	0.029551
1558.000000	0.029755
1557.000000	0.029953
1556.000000	0.030406
1555.000000	0.030858
1554.000000	0.031221
1553.000000	0.031581
1552.000000	0.031979
1551.000000	0.032372
1550.000000	0.032747
1549.000000	0.033159
1548.000000	0.033624
1547.000000	0.034087
1546.000000	0.034506
1545.000000	0.034906
1544.000000	0.035347
1543.000000	0.035875
1542.000000	0.036472
1541.000000	0.037004
1540.000000	0.037241
1539.000000	0.037206
1538.000000	0.037277
1537.000000	0.037614
1536.000000	0.038041
1535.000000	0.038366
1534.000000	0.038564
1533.000000	0.038721
1532.000000	0.038977
1531.000000	0.039383
1530.000000	0.039837
1529.000000	0.040214
1528.000000	0.040502
1527.000000	0.040779
1526.000000	0.041122
1525.000000	0.041525
1524.000000	0.041936
1523.000000	0.042285
1522.000000	0.042518
1521.000000	0.042640
1520.000000	0.042825
1519.000000	0.043198
1518.000000	0.043658
1517.000000	0.044032
1516.000000	0.044285
1515.000000	0.044526
1514.000000	0.044780
1513.000000	0.044917
1512.000000	0.044873
1511.000000	0.044802
1510.000000	0.044861
1509.000000	0.044961
1508.000000	0.044780
1507.000000	0.044131
1506.000000	0.043211
1505.000000	0.042534
1504.000000	0.042231
1503.000000	0.042084
1502.000000	0.041865
1501.000000	0.041488
1500.000000	0.040976
1499.000000	0.040427
1498.000000	0.039882
1497.000000	0.039226
1496.000000	0.038406
1495.000000	0.037649
1494.000000	0.037122
1493.000000	0.036703
1492.000000	0.036183
1491.000000	0.035495
1490.000000	0.034734
1489.000000	0.033970
1488.000000	0.033229
1487.000000	0.032570
1486.000000	0.031984
1485.000000	0.031449
1484.000000	0.030970
1483.000000	0.030529
1482.000000	0.030104
1481.000000	0.029701
1480.000000	0.029355
1479.000000	0.029075
1478.000000	0.028822
1477.000000	0.028586
1476.000000	0.028422
1475.000000	0.028398
1474.000000	0.028438
1473.000000	0.028339
1472.000000	0.027981
1471.000000	0.027559
1470.000000	0.027274
1469.000000	0.027098
1468.000000	0.026936
1467.000000	0.026786
1466.000000	0.026711
1465.000000	0.026717
1464.000000	0.026746
1463.000000	0.026775
1462.000000	0.026817
1461.000000	0.026837
1460.000000	0.026809
1459.000000	0.026742
1458.000000	0.026727
1457.000000	0.026794
1456.000000	0.026878
1455.000000	0.027043
1454.000000	0.027326
1453.000000	0.027616
1452.000000	0.027827
1451.000000	0.027976
1450.000000	0.028125
1449.000000	0.028279
1448.000000	0.028382
1447.000000	0.028434
1446.000000	0.028506
1445.000000	0.028606
1444.000000	0.028680
1443.000000	0.028693
1442.000000	0.028685
1441.000000	0.028703
1440.000000	0.028710
1439.000000	0.028620
1438.000000	0.028411
1437.000000	0.028154
1436.000000	0.027917
1435.000000	0.027766
1434.000000	0.027712
1433.000000	0.027642
1432.000000	0.027456
1431.000000	0.027174
1430.000000	0.026899
1429.000000	0.026699
1428.000000	0.026558
1427.000000	0.026453
1426.000000	0.026395
1425.000000	0.026403
1424.000000	0.026452
1423.000000	0.026480
1422.000000	0.026480
1421.000000	0.026465
1420.000000	0.026432
1419.000000	0.026417
1418.000000	0.026528
1417.000000	0.026775
1416.000000	0.027014
1415.000000	0.027151
1414.000000	0.027236
1413.000000	0.027355
1412.000000	0.027497
1411.000000	0.027603
1410.000000	0.027691
1409.000000	0.027809
1408.000000	0.027922
1407.000000	0.027981
1406.000000	0.027999
1405.000000	0.028028
1404.000000	0.028058
1403.000000	0.028057
1402.000000	0.028047
1401.000000	0.028054
1400.000000	0.028051
1399.000000	0.028006
1398.000000	0.027947
1397.000000	0.027907
1396.000000	0.027835
1395.000000	0.027672
1394.000000	0.027490
1393.000000	0.027413
1392.000000	0.027406
1391.000000	0.027357
1390.000000	0.027225
1389.000000	0.027058
1388.000000	0.026903
1387.000000	0.026765
1386.000000	0.026658
1385.000000	0.026599
1384.000000	0.026554
1383.000000	0.026477
1382.000000	0.026373
1381.000000	0.026280
1380.000000	0.026211
1379.000000	0.026146
1378.000000	0.026072
1377.000000	0.026001
1376.000000	0.025932
1375.000000	0.025834
1374.000000	0.025702
1373.000000	0.025585
1372.000000	0.025522
1371.000000	0.025474
1370.000000	0.025380
1369.000000	0.025246
1368.000000	0.025106
1367.000000	0.024960
1366.000000	0.024784
1365.000000	0.024569
1364.000000	0.024332
1363.000000	0.024091
1362.000000	0.023859
1361.000000	0.023653
1360.000000	0.023485
1359.000000	0.023340
1358.000000	0.023187
1357.000000	0.023030
1356.000000	0.022886
1355.000000	0.022766
1354.000000	0.022669
1353.000000	0.022592
1352.000000	0.022539
1351.000000	0.022509
1350.000000	0.022480
1349.000000	0.022451
1348.000000	0.022438
1347.000000	0.022439
1346.000000	0.022440
1345.000000	0.022440
1344.000000	0.022454
1343.000000	0.022479
1342.000000	0.022503
1341.000000	0.022528
1340.000000	0.022566
1339.000000	0.022606
1338.000000	0.022636
1337.000000	0.022664
1336.000000	0.022695
1335.000000	0.022712
1334.000000	0.022692
1333.000000	0.022642
1332.000000	0.022583
1331.000000	0.022526
1330.000000	0.022466
1329.000000	0.022413
1328.000000	0.022376
1327.000000	0.022342
1326.000000	0.022292
1325.000000	0.022236
1324.000000	0.022191
1323.000000	0.022150
1322.000000	0.022104
1321.000000	0.022067
1320.000000	0.022051
1319.000000	0.022035
1318.000000	0.022001
1317.000000	0.021962
1316.000000	0.021929
1315.000000	0.021894
1314.000000	0.021847
1313.000000	0.021805
1312.000000	0.021785
1311.000000	0.021772
1310.000000	0.021749
1309.000000	0.021719
1308.000000	0.021695
1307.000000	0.021669
1306.000000	0.021627
1305.000000	0.021576
1304.000000	0.021532
1303.000000	0.021490
1302.000000	0.021444
1301.000000	0.021399
1300.000000	0.021359
1299.000000	0.021316
1298.000000	0.021270
1297.000000	0.021233
1296.000000	0.021216
1295.000000	0.021202
1294.000000	0.021180
1293.000000	0.021162
1292.000000	0.021160
1291.000000	0.021168
1290.000000	0.021181
1289.000000	0.021206
1288.000000	0.021248
1287.000000	0.021293
1286.000000	0.021331
1285.000000	0.021371
1284.000000	0.021420
1283.000000	0.021472
1282.000000	0.021527
1281.000000	0.021602
1280.000000	0.021708
1279.000000	0.021834
1278.000000	0.021968
1277.000000	0.022116
1276.000000	0.022287
1275.000000	0.022474
1274.000000	0.022672
1273.000000	0.022891
1272.000000	0.023134
1271.000000	0.023385
1270.000000	0.023631
1269.000000	0.023881
1268.000000	0.024140
1267.000000	0.024387
1266.000000	0.024608
1265.000000	0.024816
1264.000000	0.025016
1263.000000	0.025195
1262.000000	0.025345
1261.000000	0.025480
1260.000000	0.025610
1259.000000	0.025721
1258.000000	0.025811
1257.000000	0.025902
1256.000000	0.026007
1255.000000	0.026111
1254.000000	0.026210
1253.000000	0.026321
1252.000000	0.026456
1251.000000	0.026594
1250.000000	0.026726
1249.000000	0.026869
1248.000000	0.027035
1247.000000	0.027205
1246.000000	0.027363
1245.000000	0.027525
1244.000000	0.027704
1243.000000	0.027887
1242.000000	0.028064
1241.000000	0.028246
1240.000000	0.028440
1239.000000	0.028633
1238.000000	0.028814
1237.000000	0.029000
1236.000000	0.029194
1235.000000	0.029377
1234.000000	0.029535
1233.000000	0.029679
1232.000000	0.029813
1231.000000	0.029915
1230.000000	0.029977
1229.000000	0.030014
1228.000000	0.030032
1227.000000	0.030011
1226.000000	0.029939
1225.000000	0.029835
1224.000000	0.029714
1223.000000	0.029569
1222.000000	0.029397
1221.000000	0.029217
1220.000000	0.029040
1219.000000	0.028849
1218.000000	0.028635
1217.000000	0.028411
1216.000000	0.028179
1215.000000	0.027921
1214.000000	0.027630
1213.000000	0.027328
1212.000000	0.027030
1211.000000	0.026726
1210.000000	0.026410
1209.000000	0.026091
1208.000000	0.025776
1207.000000	0.025453
1206.000000	0.025123
1205.000000	0.024805
1204.000000	0.024500
1203.000000	0.024188
1202.000000	0.023861
1201.000000	0.023535
1200.000000	0.023228
1199.000000	0.022936
1198.000000	0.022658
1197.000000	0.022405
1196.000000	0.022174
1195.000000	0.021947
1194.000000	0.021722
1193.000000	0.021521
1192.000000	0.021352
1191.000000	0.021195
1190.000000	0.021035
1189.000000	0.020880
1188.000000	0.020736
1187.000000	0.020593
1186.000000	0.020455
1185.000000	0.020341
1184.000000	0.020262
1183.000000	0.020202
1182.000000	0.020154
1181.000000	0.020135
1180.000000	0.020158
1179.000000	0.020218
1178.000000	0.020307
1177.000000	0.020435
1176.000000	0.020601
1175.000000	0.020782
1174.000000	0.020957
1173.000000	0.021127
1172.000000	0.021290
1171.000000	0.021433
1170.000000	0.021552
1169.000000	0.021663
1168.000000	0.021768
1167.000000	0.021854
1166.000000	0.021921
1165.000000	0.021993
1164.000000	0.022077
1163.000000	0.022147
1162.000000	0.022186
1161.000000	0.022204
1160.000000	0.022215
1159.000000	0.022204
1158.000000	0.022166
1157.000000	0.022118
1156.000000	0.022069
1155.000000	0.022005
1154.000000	0.021916
1153.000000	0.021815
1152.000000	0.021709
1151.000000	0.021581
1150.000000	0.021425
1149.000000	0.021265
1148.000000	0.021117
1147.000000	0.020969
1146.000000	0.020807
1145.000000	0.020644
1144.000000	0.020496
1143.000000	0.020363
1142.000000	0.020238
1141.000000	0.020136
1140.000000	0.020056
1139.000000	0.019979
1138.000000	0.019890
1137.000000	0.019806
1136.000000	0.019741
1135.000000	0.019688
1134.000000	0.019644
1133.000000	0.019619
1132.000000	0.019619
1131.000000	0.019622
1130.000000	0.019612
1129.000000	0.019601
1128.000000	0.019597
1127.000000	0.019587
1126.000000	0.019565
1125.000000	0.019544
1124.000000	0.019531
1123.000000	0.019514
1122.000000	0.019486
1121.000000	0.019466
1120.000000	0.019461
1119.000000	0.019448
1118.000000	0.019413
1117.000000	0.019374
1116.000000	0.019349
1115.000000	0.019332
1114.000000	0.019314
1113.000000	0.019302
1112.000000	0.019298
1111.000000	0.019290
1110.000000	0.019274
1109.000000	0.019277
1108.000000	0.019308
1107.000000	0.019351
1106.000000	0.019393
1105.000000	0.019447
1104.000000	0.019520
1103.000000	0.019587
1102.000000	0.019632
1101.000000	0.019671
1100.000000	0.019712
1099.000000	0.019749
1098.000000	0.019779
1097.000000	0.019825
1096.000000	0.019904
1095.000000	0.020007
1094.000000	0.020129
1093.000000	0.020279
1092.000000	0.020461
1091.000000	0.020660
1090.000000	0.020869
1089.000000	0.021107
1088.000000	0.021377
1087.000000	0.021662
1086.000000	0.021954
1085.000000	0.022271
1084.000000	0.022615
1083.000000	0.022954
1082.000000	0.023271
1081.000000	0.023587
1080.000000	0.023919
1079.000000	0.024249
1078.000000	0.024567
1077.000000	0.024880
1076.000000	0.025184
1075.000000	0.025449
1074.000000	0.025668
1073.000000	0.025869
1072.000000	0.026060
1071.000000	0.026208
1070.000000	0.026298
1069.000000	0.026360
1068.000000	0.026415
1067.000000	0.026447
1066.000000	0.026443
1065.000000	0.026424
1064.000000	0.026401
1063.000000	0.026350
1062.000000	0.026260
1061.000000	0.026162
1060.000000	0.026078
1059.000000	0.025994
1058.000000	0.025901
1057.000000	0.025817
1056.000000	0.025747
1055.000000	0.025664
1054.000000	0.025553
1053.000000	0.025440
1052.000000	0.025341
1051.000000	0.025235
1050.000000	0.025109
1049.000000	0.024982
1048.000000	0.024870
1047.000000	0.024751
1046.000000	0.024614
1045.000000	0.024481
1044.000000	0.024362
1043.000000	0.024237
1042.000000	0.024095
1041.000000	0.023951
1040.000000	0.023810
1039.000000	0.023653
1038.000000	0.023475
1037.000000	0.023303
1036.000000	0.023148
1035.000000	0.022981
1034.000000	0.022786
1033.000000	0.022587
1032.000000	0.022404
1031.000000	0.022223
1030.000000	0.022031
1029.000000	0.021838
1028.000000	0.021649
1027.000000	0.021445
1026.000000	0.021228
1025.000000	0.021034
1024.000000	0.020887
1023.000000	0.020768
1022.000000	0.020663
1021.000000	0.020588
1020.000000	0.020554
1019.000000	0.020538
1018.000000	0.020521
1017.000000	0.020508
1016.000000	0.020498
1015.000000	0.020465
1014.000000	0.020396
1013.000000	0.020318
1012.000000	0.020247
1011.000000	0.020169
1010.000000	0.020069
1009.000000	0.019963
1008.000000	0.019872
1007.000000	0.019790
1006.000000	0.019718
1005.000000	0.019678
1004.000000	0.019680
1003.000000	0.019701
1002.000000	0.019716
1001.000000	0.019727
1000.000000	0.019737
999.000000	0.019734
998.000000	0.019716
997.000000	0.019698
996.000000	0.019680
995.000000	0.019630
994.000000	0.019531
993.000000	0.019400
992.000000	0.019258
991.000000	0.019103
990.000000	0.018929
989.000000	0.018756
988.000000	0.018598
987.000000	0.018457
986.000000	0.018340
985.000000	0.018272
984.000000	0.018259
983.000000	0.018284
982.000000	0.018335
981.000000	0.018421
980.000000	0.018534
979.000000	0.018638
978.000000	0.018718
977.000000	0.018789
976.000000	0.018864
975.000000	0.018919
974.000000	0.018934
973.000000	0.018917
972.000000	0.018880
971.000000	0.018812
970.000000	0.018712
969.000000	0.018601
968.000000	0.018491
967.000000	0.018371
966.000000	0.018239
965.000000	0.018120
964.000000	0.018025
963.000000	0.017934
962.000000	0.017828
961.000000	0.017724
960.000000	0.017645
959.000000	0.017584
958.000000	0.017528
957.000000	0.017482
956.000000	0.017446
955.000000	0.017405
954.000000	0.017351
953.000000	0.017296
952.000000	0.017247
951.000000	0.017195
950.000000	0.017141
949.000000	0.017107
948.000000	0.017093
947.000000	0.017074
946.000000	0.017035
945.000000	0.016993
944.000000	0.016962
943.000000	0.016931
942.000000	0.016895
941.000000	0.016867
940.000000	0.016852
939.000000	0.016832
938.000000	0.016802
937.000000	0.016781
936.000000	0.016774
935.000000	0.016762
934.000000	0.016735
933.000000	0.016705
932.000000	0.016677
931.000000	0.016631
930.000000	0.016562
929.000000	0.016492
928.000000	0.016432
927.000000	0.016369
926.000000	0.016293
925.000000	0.016224
924.000000	0.016165
923.000000	0.016088
922.000000	0.015983
921.000000	0.015877
920.000000	0.015792
919.000000	0.015716
918.000000	0.015632
917.000000	0.015553
916.000000	0.015492
915.000000	0.015439
914.000000	0.015387
913.000000	0.015349
912.000000	0.015334
911.000000	0.015328
910.000000	0.015316
909.000000	0.015306
908.000000	0.015301
907.000000	0.015283
906.000000	0.015250
905.000000	0.015226
904.000000	0.015223
903.000000	0.015219
902.000000	0.015198
901.000000	0.015170
900.000000	0.015140
899.000000	0.015093
898.000000	0.015025
897.000000	0.014960
896.000000	0.014914
895.000000	0.014870
894.000000	0.014822
893.000000	0.014785
892.000000	0.014765
891.000000	0.014741
890.000000	0.014698
889.000000	0.014655
888.000000	0.014623
887.000000	0.014588
886.000000	0.014547
885.000000	0.014521
884.000000	0.014519
883.000000	0.014510
882.000000	0.014479
881.000000	0.014455
880.000000	0.014463
879.000000	0.014486
878.000000	0.014497
877.000000	0.014495
876.000000	0.014482
875.000000	0.014446
874.000000	0.014390
873.000000	0.014339
872.000000	0.014306
871.000000	0.014268
870.000000	0.014220
869.000000	0.014193
868.000000	0.014200
867.000000	0.014222
866.000000	0.014241
865.000000	0.014273
864.000000	0.014326
863.000000	0.014380
862.000000	0.014427
861.000000	0.014486
860.000000	0.014571
859.000000	0.014663
858.000000	0.014755
857.000000	0.014869
856.000000	0.015013
855.000000	0.015152
854.000000	0.015258
853.000000	0.015340
852.000000	0.015404
851.000000	0.015429
850.000000	0.015409
849.000000	0.015371
848.000000	0.015335
847.000000	0.015294
846.000000	0.015249
845.000000	0.015232
844.000000	0.015253
843.000000	0.015288
842.000000	0.015324
841.000000	0.015382
840.000000	0.015472
839.000000	0.015567
838.000000	0.015648
837.000000	0.015734
836.000000	0.015838
835.000000	0.015946
834.000000	0.016053
833.000000	0.016184
832.000000	0.016332
831.000000	0.016454
830.000000	0.016528
829.000000	0.016590
828.000000	0.016666
827.000000	0.016730
826.000000	0.016762
825.000000	0.016784
824.000000	0.016811
823.000000	0.016816
822.000000	0.016792
821.000000	0.016777
820.000000	0.016796
819.000000	0.016818
818.000000	0.016821
817.000000	0.016828
816.000000	0.016863
815.000000	0.016911
814.000000	0.016954
813.000000	0.017003
812.000000	0.017061
811.000000	0.017101
810.000000	0.017117
809.000000	0.017143
808.000000	0.017194
807.000000	0.017238
806.000000	0.017252
805.000000	0.017266
804.000000	0.017301
803.000000	0.017335
802.000000	0.017352
801.000000	0.017383
800.000000	0.017444
799.000000	0.017505
798.000000	0.017542
797.000000	0.017583
796.000000	0.017651
795.000000	0.017722
794.000000	0.017779
793.000000	0.017848
792.000000	0.017949
791.000000	0.018050
790.000000	0.018123
789.000000	0.018192
788.000000	0.018284
787.000000	0.018384
786.000000	0.018471
785.000000	0.018558
784.000000	0.018659
783.000000	0.018763
782.000000	0.018861
781.000000	0.018974
780.000000	0.019110
779.000000	0.019234
778.000000	0.019328
777.000000	0.019421
776.000000	0.019540
775.000000	0.019668
774.000000	0.019788
773.000000	0.019913
772.000000	0.020053
771.000000	0.020183
770.000000	0.020294
769.000000	0.020412
768.000000	0.020547
767.000000	0.020661
766.000000	0.020731
765.000000	0.020793
764.000000	0.020881
763.000000	0.020983
762.000000	0.021074
761.000000	0.021162
760.000000	0.021257
759.000000	0.021340
758.000000	0.021407
757.000000	0.021489
756.000000	0.021602
755.000000	0.021719
754.000000	0.021821
753.000000	0.021932
752.000000	0.022065
751.000000	0.022195
750.000000	0.022311
749.000000	0.022443
748.000000	0.022606
747.000000	0.022773
746.000000	0.022927
745.000000	0.023093
744.000000	0.023286
743.000000	0.023481
742.000000	0.023660
741.000000	0.023846
740.000000	0.024047
739.000000	0.024236
738.000000	0.024403
737.000000	0.024587
736.000000	0.024805
735.000000	0.025025
734.000000	0.025234
733.000000	0.025473
732.000000	0.025768
731.000000	0.026075
730.000000	0.026344
729.000000	0.026576
728.000000	0.026784
727.000000	0.026963
726.000000	0.027126
725.000000	0.027327
724.000000	0.027590
723.000000	0.027873
722.000000	0.028143
721.000000	0.028413
720.000000	0.028685
719.000000	0.028912
718.000000	0.029063
717.000000	0.029180
716.000000	0.029309
715.000000	0.029455
714.000000	0.029611
713.000000	0.029803
712.000000	0.030032
711.000000	0.030256
710.000000	0.030453
709.000000	0.030653
708.000000	0.030878
707.000000	0.031100
706.000000	0.031307
705.000000	0.031536
704.000000	0.031801
703.000000	0.032052
702.000000	0.032259
701.000000	0.032452
700.000000	0.032660
699.000000	0.032858
698.000000	0.033018
697.000000	0.033161
696.000000	0.033305
695.000000	0.033439
694.000000	0.033566
693.000000	0.033720
692.000000	0.033902
691.000000	0.034060
690.000000	0.034169
689.000000	0.034275
688.000000	0.034405
687.000000	0.034526
686.000000	0.034620
685.000000	0.034719
684.000000	0.034845
683.000000	0.034964
682.000000	0.035055
681.000000	0.035141
680.000000	0.035229
679.000000	0.035289
678.000000	0.035317
677.000000	0.035373
676.000000	0.035488
675.000000	0.035616
674.000000	0.035703
673.000000	0.035764
672.000000	0.035839
671.000000	0.035931
670.000000	0.036023
669.000000	0.036110
668.000000	0.036225
667.000000	0.036300
666.000000	0.036293
665.000000	0.036347
664.000000	0.036490
663.000000	0.036634
662.000000	0.036721
661.000000	0.036797
660.000000	0.036902
659.000000	0.037003
658.000000	0.037068
657.000000	0.037144
656.000000	0.037262
655.000000	0.037382
654.000000	0.037477
653.000000	0.037594
652.000000	0.037758
651.000000	0.037915
650.000000	0.038036
649.000000	0.038169
648.000000	0.038345
647.000000	0.038509
646.000000	0.038629
645.000000	0.038754
644.000000	0.038909
643.000000	0.039039
642.000000	0.039109
641.000000	0.039178
640.000000	0.039291
639.000000	0.039410
638.000000	0.039507
637.000000	0.039634
636.000000	0.039812
635.000000	0.039973
634.000000	0.040071
633.000000	0.040165
632.000000	0.040304
631.000000	0.040444
630.000000	0.040542
629.000000	0.040638
628.000000	0.040755
627.000000	0.040842
626.000000	0.040870
625.000000	0.040895
624.000000	0.040962
623.000000	0.041023
622.000000	0.041041
621.000000	0.041065
620.000000	0.041125
619.000000	0.041171
618.000000	0.041181
617.000000	0.041218
616.000000	0.041312
615.000000	0.041391
614.000000	0.041412
613.000000	0.041434
612.000000	0.041501
611.000000	0.041568
610.000000	0.041599
609.000000	0.041635
608.000000	0.041686
607.000000	0.041679
606.000000	0.041587
605.000000	0.041499
604.000000	0.041477
603.000000	0.041469
602.000000	0.041423
601.000000	0.041379
600.000000	0.041376
599.000000	0.041364
598.000000	0.041310
597.000000	0.041269
596.000000	0.041262
595.000000	0.041228
594.000000	0.041148
593.000000	0.041108
592.000000	0.041138
591.000000	0.041139
590.000000	0.041058
589.000000	0.040995
588.000000	0.041028
587.000000	0.041083
586.000000	0.041092
585.000000	0.041108
584.000000	0.041183
583.000000	0.041255
582.000000	0.041282
581.000000	0.041332
580.000000	0.041446
579.000000	0.041535
578.000000	0.041547
577.000000	0.041568
576.000000	0.041636
575.000000	0.041661
574.000000	0.041618
573.000000	0.041650
572.000000	0.041826
571.000000	0.042021
570.000000	0.042135
569.000000	0.042253
568.000000	0.042450
567.000000	0.042638
566.000000	0.042766
565.000000	0.042948
564.000000	0.043252
563.000000	0.043555
562.000000	0.043772
561.000000	0.044018
560.000000	0.044391
559.000000	0.044806
558.000000	0.045177
557.000000	0.045576
556.000000	0.046034
555.000000	0.046433
554.000000	0.046713
553.000000	0.047002
552.000000	0.047367
551.000000	0.047665
550.000000	0.047799
549.000000	0.047900
548.000000	0.048086
547.000000	0.048254
546.000000	0.048304
545.000000	0.048332
544.000000	0.048421
543.000000	0.048466
542.000000	0.048391
541.000000	0.048314
540.000000	0.048320
539.000000	0.048300
538.000000	0.048181
537.000000	0.048081
536.000000	0.048086
535.000000	0.048075
534.000000	0.047978
533.000000	0.047907
532.000000	0.047935
531.000000	0.047953
530.000000	0.047885
529.000000	0.047848
528.000000	0.047932
527.000000	0.048014
526.000000	0.047965
525.000000	0.047883
524.000000	0.047876
523.000000	0.047870
522.000000	0.047823
521.000000	0.047848
520.000000	0.047995
519.000000	0.048115
518.000000	0.048118
517.000000	0.048129
516.000000	0.048218
515.000000	0.048255
514.000000	0.048184
513.000000	0.048129
512.000000	0.048139
511.000000	0.048082
510.000000	0.047912
509.000000	0.047798
508.000000	0.047862
507.000000	0.047982
506.000000	0.048028
505.000000	0.048084
504.000000	0.048208
503.000000	0.048271
502.000000	0.048185
501.000000	0.048091
500.000000	0.048090
499.000000	0.048058
498.000000	0.047931
497.000000	0.047871
496.000000	0.047985
495.000000	0.048139
494.000000	0.048203
493.000000	0.048276
492.000000	0.048445
491.000000	0.048539
490.000000	0.048427
489.000000	0.048266
488.000000	0.048237
487.000000	0.048258
486.000000	0.048198
485.000000	0.048153
484.000000	0.048239
483.000000	0.048318
482.000000	0.048245
481.000000	0.048162
480.000000	0.048209
479.000000	0.048233
478.000000	0.048112
477.000000	0.048035
476.000000	0.048145
475.000000	0.048249
474.000000	0.048181
473.000000	0.048148
472.000000	0.048334
471.000000	0.048469
470.000000	0.048331
469.000000	0.048149
468.000000	0.048108
467.000000	0.047998
466.000000	0.047672
465.000000	0.047370
464.000000	0.047296
463.000000	0.047285
462.000000	0.047156
461.000000	0.047083
460.000000	0.047225
459.000000	0.047400
458.000000	0.047450
457.000000	0.047532
456.000000	0.047678
455.000000	0.047606
454.000000	0.047252
453.000000	0.046922
452.000000	0.046774
451.000000	0.046539
450.000000	0.046129
449.000000	0.045866
448.000000	0.045905
447.000000	0.045921
446.000000	0.045688
445.000000	0.045455
444.000000	0.045428
443.000000	0.045394
442.000000	0.045166
441.000000	0.044953
440.000000	0.044882
439.000000	0.044744
438.000000	0.044447
437.000000	0.044256
436.000000	0.044297
435.000000	0.044277
434.000000	0.044061
433.000000	0.043964
432.000000	0.044160
431.000000	0.044368
430.000000	0.044375
429.000000	0.044443
428.000000	0.044775
427.000000	0.045065
426.000000	0.045011
425.000000	0.044843
424.000000	0.044864
423.000000	0.044879
422.000000	0.044686
421.000000	0.044629
420.000000	0.045081
419.000000	0.045562
418.000000	0.045335
417.000000	0.044936
416.000000	0.044815
415.000000	0.044559
414.000000	0.044019
413.000000	0.043769
412.000000	0.044119
411.000000	0.044471
410.000000	0.044231
409.000000	0.043792
408.000000	0.043684
407.000000	0.043571
406.000000	0.043036
405.000000	0.042524
404.000000	0.042467
403.000000	0.042406
402.000000	0.041914
401.000000	0.041461
400.000000	0.041620
