PE IR       SUBTECH     SPECTRUM    ASCII       PEDS        4.00        
   -1
5_6_24 BW Inner Post ssNMR Wet 4.ASC
24/05/06
16:16:31.00
24/05/06
16:17:32.00
Yarger Lab
Sample 056 By YargerLab Date Monday, May 06 2024
400.000000
#HDR
-1
-1
#GR
cm-1
A
1.0
0.0
4000.000000
-1.000000
3601
8
0.092788
0.004875
#DATA
4000.000000	0.005832
3999.000000	0.005837
3998.000000	0.005845
3997.000000	0.005853
3996.000000	0.005856
3995.000000	0.005855
3994.000000	0.005851
3993.000000	0.005848
3992.000000	0.005848
3991.000000	0.005850
3990.000000	0.005851
3989.000000	0.005849
3988.000000	0.005843
3987.000000	0.005835
3986.000000	0.005826
3985.000000	0.005816
3984.000000	0.005808
3983.000000	0.005804
3982.000000	0.005806
3981.000000	0.005809
3980.000000	0.005810
3979.000000	0.005806
3978.000000	0.005800
3977.000000	0.005793
3976.000000	0.005789
3975.000000	0.005788
3974.000000	0.005792
3973.000000	0.005799
3972.000000	0.005807
3971.000000	0.005812
3970.000000	0.005813
3969.000000	0.005810
3968.000000	0.005802
3967.000000	0.005793
3966.000000	0.005785
3965.000000	0.005780
3964.000000	0.005778
3963.000000	0.005781
3962.000000	0.005784
3961.000000	0.005788
3960.000000	0.005791
3959.000000	0.005794
3958.000000	0.005795
3957.000000	0.005797
3956.000000	0.005798
3955.000000	0.005799
3954.000000	0.005798
3953.000000	0.005798
3952.000000	0.005799
3951.000000	0.005803
3950.000000	0.005806
3949.000000	0.005804
3948.000000	0.005794
3947.000000	0.005777
3946.000000	0.005761
3945.000000	0.005755
3944.000000	0.005757
3943.000000	0.005762
3942.000000	0.005764
3941.000000	0.005763
3940.000000	0.005764
3939.000000	0.005766
3938.000000	0.005768
3937.000000	0.005767
3936.000000	0.005763
3935.000000	0.005758
3934.000000	0.005752
3933.000000	0.005743
3932.000000	0.005732
3931.000000	0.005726
3930.000000	0.005727
3929.000000	0.005737
3928.000000	0.005752
3927.000000	0.005766
3926.000000	0.005777
3925.000000	0.005780
3924.000000	0.005774
3923.000000	0.005763
3922.000000	0.005754
3921.000000	0.005750
3920.000000	0.005749
3919.000000	0.005747
3918.000000	0.005742
3917.000000	0.005733
3916.000000	0.005722
3915.000000	0.005711
3914.000000	0.005703
3913.000000	0.005700
3912.000000	0.005702
3911.000000	0.005703
3910.000000	0.005703
3909.000000	0.005703
3908.000000	0.005707
3907.000000	0.005715
3906.000000	0.005724
3905.000000	0.005730
3904.000000	0.005729
3903.000000	0.005725
3902.000000	0.005720
3901.000000	0.005718
3900.000000	0.005714
3899.000000	0.005703
3898.000000	0.005686
3897.000000	0.005668
3896.000000	0.005654
3895.000000	0.005644
3894.000000	0.005639
3893.000000	0.005642
3892.000000	0.005653
3891.000000	0.005666
3890.000000	0.005675
3889.000000	0.005678
3888.000000	0.005677
3887.000000	0.005673
3886.000000	0.005663
3885.000000	0.005647
3884.000000	0.005632
3883.000000	0.005630
3882.000000	0.005640
3881.000000	0.005655
3880.000000	0.005663
3879.000000	0.005659
3878.000000	0.005650
3877.000000	0.005643
3876.000000	0.005642
3875.000000	0.005644
3874.000000	0.005644
3873.000000	0.005641
3872.000000	0.005641
3871.000000	0.005643
3870.000000	0.005641
3869.000000	0.005629
3868.000000	0.005615
3867.000000	0.005611
3866.000000	0.005617
3865.000000	0.005625
3864.000000	0.005626
3863.000000	0.005620
3862.000000	0.005611
3861.000000	0.005603
3860.000000	0.005601
3859.000000	0.005609
3858.000000	0.005625
3857.000000	0.005642
3856.000000	0.005652
3855.000000	0.005647
3854.000000	0.005631
3853.000000	0.005608
3852.000000	0.005588
3851.000000	0.005583
3850.000000	0.005592
3849.000000	0.005603
3848.000000	0.005608
3847.000000	0.005603
3846.000000	0.005592
3845.000000	0.005579
3844.000000	0.005568
3843.000000	0.005561
3842.000000	0.005557
3841.000000	0.005552
3840.000000	0.005547
3839.000000	0.005546
3838.000000	0.005551
3837.000000	0.005564
3836.000000	0.005580
3835.000000	0.005593
3834.000000	0.005597
3833.000000	0.005593
3832.000000	0.005584
3831.000000	0.005573
3830.000000	0.005566
3829.000000	0.005567
3828.000000	0.005577
3827.000000	0.005586
3826.000000	0.005587
3825.000000	0.005576
3824.000000	0.005562
3823.000000	0.005552
3822.000000	0.005546
3821.000000	0.005541
3820.000000	0.005532
3819.000000	0.005522
3818.000000	0.005520
3817.000000	0.005524
3816.000000	0.005528
3815.000000	0.005525
3814.000000	0.005520
3813.000000	0.005521
3812.000000	0.005526
3811.000000	0.005532
3810.000000	0.005536
3809.000000	0.005541
3808.000000	0.005544
3807.000000	0.005541
3806.000000	0.005529
3805.000000	0.005515
3804.000000	0.005505
3803.000000	0.005500
3802.000000	0.005496
3801.000000	0.005489
3800.000000	0.005482
3799.000000	0.005482
3798.000000	0.005491
3797.000000	0.005501
3796.000000	0.005507
3795.000000	0.005508
3794.000000	0.005511
3793.000000	0.005517
3792.000000	0.005523
3791.000000	0.005524
3790.000000	0.005521
3789.000000	0.005515
3788.000000	0.005507
3787.000000	0.005496
3786.000000	0.005486
3785.000000	0.005481
3784.000000	0.005481
3783.000000	0.005485
3782.000000	0.005489
3781.000000	0.005493
3780.000000	0.005496
3779.000000	0.005495
3778.000000	0.005493
3777.000000	0.005490
3776.000000	0.005488
3775.000000	0.005486
3774.000000	0.005483
3773.000000	0.005482
3772.000000	0.005486
3771.000000	0.005494
3770.000000	0.005503
3769.000000	0.005508
3768.000000	0.005510
3767.000000	0.005509
3766.000000	0.005505
3765.000000	0.005498
3764.000000	0.005490
3763.000000	0.005486
3762.000000	0.005488
3761.000000	0.005493
3760.000000	0.005494
3759.000000	0.005487
3758.000000	0.005475
3757.000000	0.005464
3756.000000	0.005458
3755.000000	0.005456
3754.000000	0.005456
3753.000000	0.005457
3752.000000	0.005458
3751.000000	0.005463
3750.000000	0.005472
3749.000000	0.005479
3748.000000	0.005482
3747.000000	0.005486
3746.000000	0.005491
3745.000000	0.005494
3744.000000	0.005482
3743.000000	0.005460
3742.000000	0.005449
3741.000000	0.005455
3740.000000	0.005464
3739.000000	0.005464
3738.000000	0.005457
3737.000000	0.005454
3736.000000	0.005459
3735.000000	0.005468
3734.000000	0.005477
3733.000000	0.005480
3732.000000	0.005477
3731.000000	0.005467
3730.000000	0.005458
3729.000000	0.005457
3728.000000	0.005464
3727.000000	0.005472
3726.000000	0.005472
3725.000000	0.005461
3724.000000	0.005444
3723.000000	0.005425
3722.000000	0.005410
3721.000000	0.005403
3720.000000	0.005405
3719.000000	0.005414
3718.000000	0.005421
3717.000000	0.005420
3716.000000	0.005409
3715.000000	0.005395
3714.000000	0.005384
3713.000000	0.005381
3712.000000	0.005387
3711.000000	0.005400
3710.000000	0.005416
3709.000000	0.005429
3708.000000	0.005436
3707.000000	0.005436
3706.000000	0.005430
3705.000000	0.005424
3704.000000	0.005420
3703.000000	0.005418
3702.000000	0.005421
3701.000000	0.005427
3700.000000	0.005434
3699.000000	0.005442
3698.000000	0.005450
3697.000000	0.005456
3696.000000	0.005460
3695.000000	0.005463
3694.000000	0.005469
3693.000000	0.005479
3692.000000	0.005491
3691.000000	0.005501
3690.000000	0.005507
3689.000000	0.005510
3688.000000	0.005509
3687.000000	0.005508
3686.000000	0.005514
3685.000000	0.005529
3684.000000	0.005545
3683.000000	0.005558
3682.000000	0.005573
3681.000000	0.005597
3680.000000	0.005629
3679.000000	0.005663
3678.000000	0.005693
3677.000000	0.005717
3676.000000	0.005734
3675.000000	0.005736
3674.000000	0.005726
3673.000000	0.005715
3672.000000	0.005716
3671.000000	0.005728
3670.000000	0.005748
3669.000000	0.005768
3668.000000	0.005790
3667.000000	0.005816
3666.000000	0.005847
3665.000000	0.005877
3664.000000	0.005901
3663.000000	0.005918
3662.000000	0.005934
3661.000000	0.005950
3660.000000	0.005967
3659.000000	0.005987
3658.000000	0.006015
3657.000000	0.006049
3656.000000	0.006080
3655.000000	0.006103
3654.000000	0.006125
3653.000000	0.006153
3652.000000	0.006181
3651.000000	0.006199
3650.000000	0.006208
3649.000000	0.006221
3648.000000	0.006250
3647.000000	0.006289
3646.000000	0.006326
3645.000000	0.006355
3644.000000	0.006374
3643.000000	0.006390
3642.000000	0.006407
3641.000000	0.006427
3640.000000	0.006450
3639.000000	0.006476
3638.000000	0.006506
3637.000000	0.006541
3636.000000	0.006579
3635.000000	0.006620
3634.000000	0.006660
3633.000000	0.006697
3632.000000	0.006729
3631.000000	0.006757
3630.000000	0.006789
3629.000000	0.006826
3628.000000	0.006862
3627.000000	0.006895
3626.000000	0.006931
3625.000000	0.006971
3624.000000	0.007010
3623.000000	0.007043
3622.000000	0.007072
3621.000000	0.007103
3620.000000	0.007143
3619.000000	0.007194
3618.000000	0.007245
3617.000000	0.007287
3616.000000	0.007314
3615.000000	0.007330
3614.000000	0.007346
3613.000000	0.007374
3612.000000	0.007416
3611.000000	0.007467
3610.000000	0.007519
3609.000000	0.007570
3608.000000	0.007620
3607.000000	0.007671
3606.000000	0.007720
3605.000000	0.007762
3604.000000	0.007796
3603.000000	0.007824
3602.000000	0.007854
3601.000000	0.007886
3600.000000	0.007919
3599.000000	0.007953
3598.000000	0.007992
3597.000000	0.008041
3596.000000	0.008101
3595.000000	0.008165
3594.000000	0.008227
3593.000000	0.008279
3592.000000	0.008322
3591.000000	0.008359
3590.000000	0.008395
3589.000000	0.008434
3588.000000	0.008480
3587.000000	0.008532
3586.000000	0.008588
3585.000000	0.008644
3584.000000	0.008695
3583.000000	0.008740
3582.000000	0.008783
3581.000000	0.008828
3580.000000	0.008878
3579.000000	0.008933
3578.000000	0.008988
3577.000000	0.009042
3576.000000	0.009092
3575.000000	0.009141
3574.000000	0.009191
3573.000000	0.009243
3572.000000	0.009297
3571.000000	0.009351
3570.000000	0.009405
3569.000000	0.009458
3568.000000	0.009511
3567.000000	0.009568
3566.000000	0.009627
3565.000000	0.009686
3564.000000	0.009739
3563.000000	0.009787
3562.000000	0.009831
3561.000000	0.009877
3560.000000	0.009930
3559.000000	0.009989
3558.000000	0.010049
3557.000000	0.010105
3556.000000	0.010157
3555.000000	0.010209
3554.000000	0.010266
3553.000000	0.010327
3552.000000	0.010386
3551.000000	0.010441
3550.000000	0.010494
3549.000000	0.010548
3548.000000	0.010606
3547.000000	0.010667
3546.000000	0.010728
3545.000000	0.010785
3544.000000	0.010836
3543.000000	0.010885
3542.000000	0.010935
3541.000000	0.010988
3540.000000	0.011044
3539.000000	0.011105
3538.000000	0.011173
3537.000000	0.011246
3536.000000	0.011317
3535.000000	0.011379
3534.000000	0.011428
3533.000000	0.011471
3532.000000	0.011516
3531.000000	0.011567
3530.000000	0.011624
3529.000000	0.011684
3528.000000	0.011745
3527.000000	0.011808
3526.000000	0.011872
3525.000000	0.011936
3524.000000	0.011998
3523.000000	0.012056
3522.000000	0.012112
3521.000000	0.012171
3520.000000	0.012235
3519.000000	0.012301
3518.000000	0.012367
3517.000000	0.012431
3516.000000	0.012491
3515.000000	0.012547
3514.000000	0.012604
3513.000000	0.012663
3512.000000	0.012725
3511.000000	0.012788
3510.000000	0.012854
3509.000000	0.012924
3508.000000	0.012993
3507.000000	0.013057
3506.000000	0.013117
3505.000000	0.013178
3504.000000	0.013246
3503.000000	0.013324
3502.000000	0.013409
3501.000000	0.013491
3500.000000	0.013565
3499.000000	0.013630
3498.000000	0.013692
3497.000000	0.013753
3496.000000	0.013819
3495.000000	0.013887
3494.000000	0.013959
3493.000000	0.014032
3492.000000	0.014102
3491.000000	0.014170
3490.000000	0.014239
3489.000000	0.014312
3488.000000	0.014390
3487.000000	0.014470
3486.000000	0.014550
3485.000000	0.014624
3484.000000	0.014690
3483.000000	0.014752
3482.000000	0.014818
3481.000000	0.014894
3480.000000	0.014979
3479.000000	0.015062
3478.000000	0.015135
3477.000000	0.015197
3476.000000	0.015252
3475.000000	0.015311
3474.000000	0.015379
3473.000000	0.015455
3472.000000	0.015533
3471.000000	0.015607
3470.000000	0.015678
3469.000000	0.015749
3468.000000	0.015822
3467.000000	0.015894
3466.000000	0.015962
3465.000000	0.016021
3464.000000	0.016072
3463.000000	0.016120
3462.000000	0.016174
3461.000000	0.016236
3460.000000	0.016305
3459.000000	0.016376
3458.000000	0.016447
3457.000000	0.016515
3456.000000	0.016578
3455.000000	0.016637
3454.000000	0.016697
3453.000000	0.016762
3452.000000	0.016832
3451.000000	0.016900
3450.000000	0.016964
3449.000000	0.017026
3448.000000	0.017086
3447.000000	0.017149
3446.000000	0.017217
3445.000000	0.017290
3444.000000	0.017361
3443.000000	0.017425
3442.000000	0.017485
3441.000000	0.017547
3440.000000	0.017618
3439.000000	0.017702
3438.000000	0.017796
3437.000000	0.017892
3436.000000	0.017977
3435.000000	0.018047
3434.000000	0.018107
3433.000000	0.018171
3432.000000	0.018241
3431.000000	0.018314
3430.000000	0.018385
3429.000000	0.018454
3428.000000	0.018521
3427.000000	0.018586
3426.000000	0.018650
3425.000000	0.018717
3424.000000	0.018789
3423.000000	0.018867
3422.000000	0.018948
3421.000000	0.019029
3420.000000	0.019104
3419.000000	0.019171
3418.000000	0.019233
3417.000000	0.019290
3416.000000	0.019345
3415.000000	0.019398
3414.000000	0.019452
3413.000000	0.019511
3412.000000	0.019576
3411.000000	0.019645
3410.000000	0.019717
3409.000000	0.019785
3408.000000	0.019849
3407.000000	0.019908
3406.000000	0.019970
3405.000000	0.020037
3404.000000	0.020108
3403.000000	0.020183
3402.000000	0.020257
3401.000000	0.020329
3400.000000	0.020396
3399.000000	0.020457
3398.000000	0.020514
3397.000000	0.020569
3396.000000	0.020623
3395.000000	0.020674
3394.000000	0.020725
3393.000000	0.020779
3392.000000	0.020840
3391.000000	0.020906
3390.000000	0.020978
3389.000000	0.021051
3388.000000	0.021122
3387.000000	0.021190
3386.000000	0.021254
3385.000000	0.021319
3384.000000	0.021387
3383.000000	0.021458
3382.000000	0.021532
3381.000000	0.021607
3380.000000	0.021681
3379.000000	0.021754
3378.000000	0.021827
3377.000000	0.021903
3376.000000	0.021983
3375.000000	0.022065
3374.000000	0.022149
3373.000000	0.022235
3372.000000	0.022319
3371.000000	0.022400
3370.000000	0.022481
3369.000000	0.022566
3368.000000	0.022657
3367.000000	0.022753
3366.000000	0.022854
3365.000000	0.022960
3364.000000	0.023068
3363.000000	0.023173
3362.000000	0.023275
3361.000000	0.023376
3360.000000	0.023481
3359.000000	0.023593
3358.000000	0.023710
3357.000000	0.023834
3356.000000	0.023962
3355.000000	0.024092
3354.000000	0.024218
3353.000000	0.024339
3352.000000	0.024456
3351.000000	0.024574
3350.000000	0.024697
3349.000000	0.024825
3348.000000	0.024958
3347.000000	0.025093
3346.000000	0.025232
3345.000000	0.025371
3344.000000	0.025511
3343.000000	0.025650
3342.000000	0.025795
3341.000000	0.025947
3340.000000	0.026102
3339.000000	0.026255
3338.000000	0.026405
3337.000000	0.026557
3336.000000	0.026712
3335.000000	0.026870
3334.000000	0.027029
3333.000000	0.027191
3332.000000	0.027358
3331.000000	0.027531
3330.000000	0.027712
3329.000000	0.027893
3328.000000	0.028070
3327.000000	0.028242
3326.000000	0.028413
3325.000000	0.028590
3324.000000	0.028771
3323.000000	0.028952
3322.000000	0.029134
3321.000000	0.029322
3320.000000	0.029517
3319.000000	0.029717
3318.000000	0.029916
3317.000000	0.030110
3316.000000	0.030297
3315.000000	0.030481
3314.000000	0.030666
3313.000000	0.030855
3312.000000	0.031044
3311.000000	0.031226
3310.000000	0.031399
3309.000000	0.031570
3308.000000	0.031749
3307.000000	0.031939
3306.000000	0.032135
3305.000000	0.032328
3304.000000	0.032515
3303.000000	0.032697
3302.000000	0.032879
3301.000000	0.033059
3300.000000	0.033229
3299.000000	0.033385
3298.000000	0.033527
3297.000000	0.033661
3296.000000	0.033794
3295.000000	0.033930
3294.000000	0.034068
3293.000000	0.034204
3292.000000	0.034332
3291.000000	0.034448
3290.000000	0.034551
3289.000000	0.034640
3288.000000	0.034715
3287.000000	0.034776
3286.000000	0.034825
3285.000000	0.034863
3284.000000	0.034891
3283.000000	0.034910
3282.000000	0.034921
3281.000000	0.034923
3280.000000	0.034908
3279.000000	0.034875
3278.000000	0.034824
3277.000000	0.034758
3276.000000	0.034681
3275.000000	0.034593
3274.000000	0.034492
3273.000000	0.034381
3272.000000	0.034260
3271.000000	0.034135
3270.000000	0.034006
3269.000000	0.033867
3268.000000	0.033711
3267.000000	0.033537
3266.000000	0.033350
3265.000000	0.033160
3264.000000	0.032971
3263.000000	0.032780
3262.000000	0.032585
3261.000000	0.032383
3260.000000	0.032175
3259.000000	0.031962
3258.000000	0.031745
3257.000000	0.031526
3256.000000	0.031307
3255.000000	0.031096
3254.000000	0.030895
3253.000000	0.030703
3252.000000	0.030513
3251.000000	0.030316
3250.000000	0.030108
3249.000000	0.029895
3248.000000	0.029687
3247.000000	0.029493
3246.000000	0.029316
3245.000000	0.029151
3244.000000	0.028989
3243.000000	0.028824
3242.000000	0.028657
3241.000000	0.028493
3240.000000	0.028335
3239.000000	0.028184
3238.000000	0.028035
3237.000000	0.027883
3236.000000	0.027723
3235.000000	0.027562
3234.000000	0.027413
3233.000000	0.027286
3232.000000	0.027178
3231.000000	0.027080
3230.000000	0.026981
3229.000000	0.026877
3228.000000	0.026772
3227.000000	0.026668
3226.000000	0.026564
3225.000000	0.026455
3224.000000	0.026337
3223.000000	0.026208
3222.000000	0.026078
3221.000000	0.025956
3220.000000	0.025849
3219.000000	0.025757
3218.000000	0.025669
3217.000000	0.025576
3216.000000	0.025473
3215.000000	0.025365
3214.000000	0.025263
3213.000000	0.025169
3212.000000	0.025078
3211.000000	0.024986
3210.000000	0.024891
3209.000000	0.024798
3208.000000	0.024706
3207.000000	0.024613
3206.000000	0.024518
3205.000000	0.024420
3204.000000	0.024320
3203.000000	0.024218
3202.000000	0.024113
3201.000000	0.024008
3200.000000	0.023901
3199.000000	0.023795
3198.000000	0.023688
3197.000000	0.023584
3196.000000	0.023478
3195.000000	0.023370
3194.000000	0.023260
3193.000000	0.023151
3192.000000	0.023044
3191.000000	0.022937
3190.000000	0.022827
3189.000000	0.022713
3188.000000	0.022595
3187.000000	0.022477
3186.000000	0.022359
3185.000000	0.022242
3184.000000	0.022121
3183.000000	0.021994
3182.000000	0.021862
3181.000000	0.021730
3180.000000	0.021600
3179.000000	0.021472
3178.000000	0.021349
3177.000000	0.021230
3176.000000	0.021109
3175.000000	0.020985
3174.000000	0.020857
3173.000000	0.020730
3172.000000	0.020608
3171.000000	0.020490
3170.000000	0.020377
3169.000000	0.020265
3168.000000	0.020151
3167.000000	0.020036
3166.000000	0.019925
3165.000000	0.019817
3164.000000	0.019706
3163.000000	0.019588
3162.000000	0.019466
3161.000000	0.019352
3160.000000	0.019251
3159.000000	0.019157
3158.000000	0.019062
3157.000000	0.018959
3156.000000	0.018852
3155.000000	0.018747
3154.000000	0.018651
3153.000000	0.018563
3152.000000	0.018477
3151.000000	0.018390
3150.000000	0.018302
3149.000000	0.018217
3148.000000	0.018140
3147.000000	0.018067
3146.000000	0.017994
3145.000000	0.017916
3144.000000	0.017830
3143.000000	0.017741
3142.000000	0.017655
3141.000000	0.017576
3140.000000	0.017505
3139.000000	0.017442
3138.000000	0.017385
3137.000000	0.017331
3136.000000	0.017276
3135.000000	0.017217
3134.000000	0.017159
3133.000000	0.017106
3132.000000	0.017057
3131.000000	0.017010
3130.000000	0.016964
3129.000000	0.016919
3128.000000	0.016876
3127.000000	0.016837
3126.000000	0.016800
3125.000000	0.016763
3124.000000	0.016723
3123.000000	0.016679
3122.000000	0.016636
3121.000000	0.016599
3120.000000	0.016567
3119.000000	0.016540
3118.000000	0.016514
3117.000000	0.016494
3116.000000	0.016484
3115.000000	0.016485
3114.000000	0.016494
3113.000000	0.016503
3112.000000	0.016505
3111.000000	0.016502
3110.000000	0.016500
3109.000000	0.016505
3108.000000	0.016516
3107.000000	0.016529
3106.000000	0.016541
3105.000000	0.016553
3104.000000	0.016563
3103.000000	0.016573
3102.000000	0.016585
3101.000000	0.016598
3100.000000	0.016614
3099.000000	0.016633
3098.000000	0.016654
3097.000000	0.016678
3096.000000	0.016703
3095.000000	0.016728
3094.000000	0.016753
3093.000000	0.016778
3092.000000	0.016802
3091.000000	0.016829
3090.000000	0.016859
3089.000000	0.016888
3088.000000	0.016907
3087.000000	0.016912
3086.000000	0.016907
3085.000000	0.016902
3084.000000	0.016901
3083.000000	0.016901
3082.000000	0.016898
3081.000000	0.016893
3080.000000	0.016891
3079.000000	0.016900
3078.000000	0.016921
3077.000000	0.016951
3076.000000	0.016979
3075.000000	0.016999
3074.000000	0.017006
3073.000000	0.017004
3072.000000	0.016996
3071.000000	0.016982
3070.000000	0.016960
3069.000000	0.016931
3068.000000	0.016898
3067.000000	0.016868
3066.000000	0.016848
3065.000000	0.016834
3064.000000	0.016821
3063.000000	0.016801
3062.000000	0.016769
3061.000000	0.016722
3060.000000	0.016663
3059.000000	0.016598
3058.000000	0.016534
3057.000000	0.016476
3056.000000	0.016420
3055.000000	0.016364
3054.000000	0.016304
3053.000000	0.016238
3052.000000	0.016167
3051.000000	0.016094
3050.000000	0.016024
3049.000000	0.015955
3048.000000	0.015879
3047.000000	0.015795
3046.000000	0.015710
3045.000000	0.015633
3044.000000	0.015566
3043.000000	0.015507
3042.000000	0.015455
3041.000000	0.015413
3040.000000	0.015379
3039.000000	0.015348
3038.000000	0.015310
3037.000000	0.015260
3036.000000	0.015201
3035.000000	0.015139
3034.000000	0.015083
3033.000000	0.015032
3032.000000	0.014982
3031.000000	0.014932
3030.000000	0.014885
3029.000000	0.014838
3028.000000	0.014782
3027.000000	0.014713
3026.000000	0.014639
3025.000000	0.014570
3024.000000	0.014510
3023.000000	0.014454
3022.000000	0.014395
3021.000000	0.014333
3020.000000	0.014271
3019.000000	0.014212
3018.000000	0.014158
3017.000000	0.014108
3016.000000	0.014065
3015.000000	0.014031
3014.000000	0.014010
3013.000000	0.014006
3012.000000	0.014015
3011.000000	0.014034
3010.000000	0.014059
3009.000000	0.014086
3008.000000	0.014110
3007.000000	0.014127
3006.000000	0.014144
3005.000000	0.014167
3004.000000	0.014200
3003.000000	0.014243
3002.000000	0.014296
3001.000000	0.014357
3000.000000	0.014422
2999.000000	0.014493
2998.000000	0.014572
2997.000000	0.014660
2996.000000	0.014754
2995.000000	0.014853
2994.000000	0.014959
2993.000000	0.015077
2992.000000	0.015206
2991.000000	0.015345
2990.000000	0.015492
2989.000000	0.015648
2988.000000	0.015811
2987.000000	0.015979
2986.000000	0.016149
2985.000000	0.016318
2984.000000	0.016487
2983.000000	0.016655
2982.000000	0.016825
2981.000000	0.016994
2980.000000	0.017157
2979.000000	0.017313
2978.000000	0.017462
2977.000000	0.017609
2976.000000	0.017751
2975.000000	0.017886
2974.000000	0.018015
2973.000000	0.018139
2972.000000	0.018256
2971.000000	0.018362
2970.000000	0.018455
2969.000000	0.018533
2968.000000	0.018594
2967.000000	0.018635
2966.000000	0.018660
2965.000000	0.018673
2964.000000	0.018676
2963.000000	0.018671
2962.000000	0.018657
2961.000000	0.018631
2960.000000	0.018595
2959.000000	0.018547
2958.000000	0.018491
2957.000000	0.018425
2956.000000	0.018349
2955.000000	0.018265
2954.000000	0.018180
2953.000000	0.018102
2952.000000	0.018037
2951.000000	0.017988
2950.000000	0.017958
2949.000000	0.017947
2948.000000	0.017955
2947.000000	0.017982
2946.000000	0.018030
2945.000000	0.018099
2944.000000	0.018186
2943.000000	0.018287
2942.000000	0.018401
2941.000000	0.018527
2940.000000	0.018657
2939.000000	0.018782
2938.000000	0.018894
2937.000000	0.018992
2936.000000	0.019073
2935.000000	0.019136
2934.000000	0.019180
2933.000000	0.019200
2932.000000	0.019197
2931.000000	0.019172
2930.000000	0.019135
2929.000000	0.019095
2928.000000	0.019049
2927.000000	0.018998
2926.000000	0.018942
2925.000000	0.018884
2924.000000	0.018826
2923.000000	0.018769
2922.000000	0.018711
2921.000000	0.018648
2920.000000	0.018569
2919.000000	0.018468
2918.000000	0.018343
2917.000000	0.018194
2916.000000	0.018014
2915.000000	0.017803
2914.000000	0.017572
2913.000000	0.017338
2912.000000	0.017112
2911.000000	0.016901
2910.000000	0.016709
2909.000000	0.016542
2908.000000	0.016399
2907.000000	0.016275
2906.000000	0.016167
2905.000000	0.016074
2904.000000	0.015995
2903.000000	0.015924
2902.000000	0.015857
2901.000000	0.015792
2900.000000	0.015727
2899.000000	0.015663
2898.000000	0.015606
2897.000000	0.015563
2896.000000	0.015536
2895.000000	0.015521
2894.000000	0.015507
2893.000000	0.015492
2892.000000	0.015477
2891.000000	0.015467
2890.000000	0.015469
2889.000000	0.015485
2888.000000	0.015512
2887.000000	0.015546
2886.000000	0.015586
2885.000000	0.015635
2884.000000	0.015690
2883.000000	0.015747
2882.000000	0.015802
2881.000000	0.015854
2880.000000	0.015905
2879.000000	0.015954
2878.000000	0.015997
2877.000000	0.016024
2876.000000	0.016028
2875.000000	0.016004
2874.000000	0.015954
2873.000000	0.015885
2872.000000	0.015798
2871.000000	0.015691
2870.000000	0.015566
2869.000000	0.015424
2868.000000	0.015273
2867.000000	0.015117
2866.000000	0.014962
2865.000000	0.014813
2864.000000	0.014668
2863.000000	0.014531
2862.000000	0.014407
2861.000000	0.014304
2860.000000	0.014225
2859.000000	0.014163
2858.000000	0.014112
2857.000000	0.014069
2856.000000	0.014039
2855.000000	0.014027
2854.000000	0.014038
2853.000000	0.014062
2852.000000	0.014080
2851.000000	0.014066
2850.000000	0.014002
2849.000000	0.013882
2848.000000	0.013716
2847.000000	0.013520
2846.000000	0.013318
2845.000000	0.013128
2844.000000	0.012957
2843.000000	0.012806
2842.000000	0.012671
2841.000000	0.012554
2840.000000	0.012453
2839.000000	0.012371
2838.000000	0.012308
2837.000000	0.012256
2836.000000	0.012206
2835.000000	0.012152
2834.000000	0.012096
2833.000000	0.012043
2832.000000	0.011997
2831.000000	0.011955
2830.000000	0.011917
2829.000000	0.011882
2828.000000	0.011848
2827.000000	0.011815
2826.000000	0.011784
2825.000000	0.011755
2824.000000	0.011727
2823.000000	0.011700
2822.000000	0.011673
2821.000000	0.011649
2820.000000	0.011622
2819.000000	0.011592
2818.000000	0.011561
2817.000000	0.011532
2816.000000	0.011506
2815.000000	0.011483
2814.000000	0.011460
2813.000000	0.011437
2812.000000	0.011412
2811.000000	0.011387
2810.000000	0.011364
2809.000000	0.011343
2808.000000	0.011321
2807.000000	0.011295
2806.000000	0.011265
2805.000000	0.011236
2804.000000	0.011210
2803.000000	0.011187
2802.000000	0.011165
2801.000000	0.011141
2800.000000	0.011111
2799.000000	0.011080
2798.000000	0.011055
2797.000000	0.011036
2796.000000	0.011017
2795.000000	0.010991
2794.000000	0.010960
2793.000000	0.010930
2792.000000	0.010904
2791.000000	0.010883
2790.000000	0.010865
2789.000000	0.010852
2788.000000	0.010841
2787.000000	0.010831
2786.000000	0.010816
2785.000000	0.010799
2784.000000	0.010779
2783.000000	0.010760
2782.000000	0.010743
2781.000000	0.010729
2780.000000	0.010712
2779.000000	0.010690
2778.000000	0.010662
2777.000000	0.010633
2776.000000	0.010605
2775.000000	0.010579
2774.000000	0.010557
2773.000000	0.010537
2772.000000	0.010514
2771.000000	0.010486
2770.000000	0.010458
2769.000000	0.010434
2768.000000	0.010415
2767.000000	0.010396
2766.000000	0.010375
2765.000000	0.010354
2764.000000	0.010334
2763.000000	0.010315
2762.000000	0.010299
2761.000000	0.010283
2760.000000	0.010267
2759.000000	0.010248
2758.000000	0.010228
2757.000000	0.010208
2756.000000	0.010188
2755.000000	0.010167
2754.000000	0.010148
2753.000000	0.010132
2752.000000	0.010117
2751.000000	0.010101
2750.000000	0.010083
2749.000000	0.010067
2748.000000	0.010051
2747.000000	0.010034
2746.000000	0.010016
2745.000000	0.009999
2744.000000	0.009983
2743.000000	0.009966
2742.000000	0.009946
2741.000000	0.009928
2740.000000	0.009912
2739.000000	0.009899
2738.000000	0.009889
2737.000000	0.009878
2736.000000	0.009864
2735.000000	0.009845
2734.000000	0.009823
2733.000000	0.009802
2732.000000	0.009781
2731.000000	0.009762
2730.000000	0.009747
2729.000000	0.009735
2728.000000	0.009721
2727.000000	0.009701
2726.000000	0.009677
2725.000000	0.009653
2724.000000	0.009631
2723.000000	0.009612
2722.000000	0.009598
2721.000000	0.009587
2720.000000	0.009576
2719.000000	0.009559
2718.000000	0.009540
2717.000000	0.009522
2716.000000	0.009507
2715.000000	0.009490
2714.000000	0.009471
2713.000000	0.009448
2712.000000	0.009421
2711.000000	0.009391
2710.000000	0.009362
2709.000000	0.009339
2708.000000	0.009322
2707.000000	0.009307
2706.000000	0.009295
2705.000000	0.009286
2704.000000	0.009278
2703.000000	0.009266
2702.000000	0.009251
2701.000000	0.009234
2700.000000	0.009217
2699.000000	0.009200
2698.000000	0.009183
2697.000000	0.009170
2696.000000	0.009158
2695.000000	0.009144
2694.000000	0.009127
2693.000000	0.009112
2692.000000	0.009101
2691.000000	0.009093
2690.000000	0.009084
2689.000000	0.009073
2688.000000	0.009060
2687.000000	0.009045
2686.000000	0.009030
2685.000000	0.009019
2684.000000	0.009010
2683.000000	0.008999
2682.000000	0.008986
2681.000000	0.008974
2680.000000	0.008963
2679.000000	0.008951
2678.000000	0.008940
2677.000000	0.008930
2676.000000	0.008921
2675.000000	0.008912
2674.000000	0.008904
2673.000000	0.008899
2672.000000	0.008892
2671.000000	0.008883
2670.000000	0.008872
2669.000000	0.008862
2668.000000	0.008856
2667.000000	0.008854
2666.000000	0.008853
2665.000000	0.008854
2664.000000	0.008853
2663.000000	0.008848
2662.000000	0.008842
2661.000000	0.008835
2660.000000	0.008828
2659.000000	0.008821
2658.000000	0.008816
2657.000000	0.008814
2656.000000	0.008816
2655.000000	0.008819
2654.000000	0.008823
2653.000000	0.008826
2652.000000	0.008822
2651.000000	0.008809
2650.000000	0.008794
2649.000000	0.008783
2648.000000	0.008776
2647.000000	0.008772
2646.000000	0.008773
2645.000000	0.008777
2644.000000	0.008778
2643.000000	0.008771
2642.000000	0.008762
2641.000000	0.008756
2640.000000	0.008756
2639.000000	0.008757
2638.000000	0.008757
2637.000000	0.008755
2636.000000	0.008753
2635.000000	0.008748
2634.000000	0.008740
2633.000000	0.008733
2632.000000	0.008730
2631.000000	0.008730
2630.000000	0.008735
2629.000000	0.008743
2628.000000	0.008750
2627.000000	0.008752
2626.000000	0.008750
2625.000000	0.008748
2624.000000	0.008747
2623.000000	0.008745
2622.000000	0.008744
2621.000000	0.008745
2620.000000	0.008746
2619.000000	0.008748
2618.000000	0.008754
2617.000000	0.008760
2616.000000	0.008763
2615.000000	0.008761
2614.000000	0.008760
2613.000000	0.008764
2612.000000	0.008769
2611.000000	0.008769
2610.000000	0.008767
2609.000000	0.008766
2608.000000	0.008767
2607.000000	0.008765
2606.000000	0.008764
2605.000000	0.008766
2604.000000	0.008767
2603.000000	0.008763
2602.000000	0.008759
2601.000000	0.008761
2600.000000	0.008766
2599.000000	0.008767
2598.000000	0.008762
2597.000000	0.008758
2596.000000	0.008757
2595.000000	0.008759
2594.000000	0.008763
2593.000000	0.008769
2592.000000	0.008775
2591.000000	0.008774
2590.000000	0.008771
2589.000000	0.008769
2588.000000	0.008766
2587.000000	0.008759
2586.000000	0.008754
2585.000000	0.008758
2584.000000	0.008769
2583.000000	0.008777
2582.000000	0.008778
2581.000000	0.008775
2580.000000	0.008769
2579.000000	0.008757
2578.000000	0.008744
2577.000000	0.008736
2576.000000	0.008735
2575.000000	0.008737
2574.000000	0.008740
2573.000000	0.008749
2572.000000	0.008760
2571.000000	0.008770
2570.000000	0.008774
2569.000000	0.008776
2568.000000	0.008774
2567.000000	0.008770
2566.000000	0.008769
2565.000000	0.008777
2564.000000	0.008791
2563.000000	0.008799
2562.000000	0.008798
2561.000000	0.008793
2560.000000	0.008788
2559.000000	0.008788
2558.000000	0.008798
2557.000000	0.008815
2556.000000	0.008827
2555.000000	0.008826
2554.000000	0.008813
2553.000000	0.008799
2552.000000	0.008795
2551.000000	0.008804
2550.000000	0.008824
2549.000000	0.008845
2548.000000	0.008857
2547.000000	0.008861
2546.000000	0.008866
2545.000000	0.008881
2544.000000	0.008899
2543.000000	0.008912
2542.000000	0.008916
2541.000000	0.008916
2540.000000	0.008916
2539.000000	0.008921
2538.000000	0.008940
2537.000000	0.008971
2536.000000	0.009001
2535.000000	0.009016
2534.000000	0.009018
2533.000000	0.009020
2532.000000	0.009029
2531.000000	0.009041
2530.000000	0.009054
2529.000000	0.009070
2528.000000	0.009086
2527.000000	0.009103
2526.000000	0.009124
2525.000000	0.009151
2524.000000	0.009179
2523.000000	0.009207
2522.000000	0.009239
2521.000000	0.009279
2520.000000	0.009316
2519.000000	0.009346
2518.000000	0.009378
2517.000000	0.009423
2516.000000	0.009478
2515.000000	0.009528
2514.000000	0.009570
2513.000000	0.009613
2512.000000	0.009659
2511.000000	0.009712
2510.000000	0.009777
2509.000000	0.009857
2508.000000	0.009941
2507.000000	0.010017
2506.000000	0.010085
2505.000000	0.010152
2504.000000	0.010224
2503.000000	0.010300
2502.000000	0.010390
2501.000000	0.010500
2500.000000	0.010627
2499.000000	0.010758
2498.000000	0.010887
2497.000000	0.011015
2496.000000	0.011139
2495.000000	0.011257
2494.000000	0.011372
2493.000000	0.011495
2492.000000	0.011628
2491.000000	0.011764
2490.000000	0.011897
2489.000000	0.012028
2488.000000	0.012156
2487.000000	0.012285
2486.000000	0.012420
2485.000000	0.012559
2484.000000	0.012690
2483.000000	0.012807
2482.000000	0.012913
2481.000000	0.013020
2480.000000	0.013128
2479.000000	0.013232
2478.000000	0.013328
2477.000000	0.013415
2476.000000	0.013491
2475.000000	0.013554
2474.000000	0.013611
2473.000000	0.013668
2472.000000	0.013721
2471.000000	0.013764
2470.000000	0.013801
2469.000000	0.013835
2468.000000	0.013863
2467.000000	0.013879
2466.000000	0.013888
2465.000000	0.013898
2464.000000	0.013912
2463.000000	0.013923
2462.000000	0.013931
2461.000000	0.013942
2460.000000	0.013957
2459.000000	0.013966
2458.000000	0.013966
2457.000000	0.013958
2456.000000	0.013947
2455.000000	0.013936
2454.000000	0.013931
2453.000000	0.013931
2452.000000	0.013934
2451.000000	0.013939
2450.000000	0.013950
2449.000000	0.013966
2448.000000	0.013978
2447.000000	0.013982
2446.000000	0.013989
2445.000000	0.014011
2444.000000	0.014051
2443.000000	0.014103
2442.000000	0.014164
2441.000000	0.014232
2440.000000	0.014298
2439.000000	0.014360
2438.000000	0.014429
2437.000000	0.014515
2436.000000	0.014617
2435.000000	0.014722
2434.000000	0.014825
2433.000000	0.014923
2432.000000	0.015013
2431.000000	0.015099
2430.000000	0.015190
2429.000000	0.015292
2428.000000	0.015391
2427.000000	0.015473
2426.000000	0.015538
2425.000000	0.015599
2424.000000	0.015657
2423.000000	0.015707
2422.000000	0.015745
2421.000000	0.015776
2420.000000	0.015799
2419.000000	0.015811
2418.000000	0.015815
2417.000000	0.015813
2416.000000	0.015800
2415.000000	0.015770
2414.000000	0.015726
2413.000000	0.015674
2412.000000	0.015609
2411.000000	0.015522
2410.000000	0.015413
2409.000000	0.015293
2408.000000	0.015164
2407.000000	0.015027
2406.000000	0.014882
2405.000000	0.014732
2404.000000	0.014571
2403.000000	0.014397
2402.000000	0.014216
2401.000000	0.014036
2400.000000	0.013857
2399.000000	0.013676
2398.000000	0.013500
2397.000000	0.013334
2396.000000	0.013173
2395.000000	0.013002
2394.000000	0.012818
2393.000000	0.012631
2392.000000	0.012449
2391.000000	0.012277
2390.000000	0.012115
2389.000000	0.011963
2388.000000	0.011816
2387.000000	0.011671
2386.000000	0.011533
2385.000000	0.011410
2384.000000	0.011302
2383.000000	0.011203
2382.000000	0.011111
2381.000000	0.011026
2380.000000	0.010944
2379.000000	0.010862
2378.000000	0.010789
2377.000000	0.010733
2376.000000	0.010688
2375.000000	0.010638
2374.000000	0.010575
2373.000000	0.010504
2372.000000	0.010434
2371.000000	0.010362
2370.000000	0.010291
2369.000000	0.010224
2368.000000	0.010157
2367.000000	0.010081
2366.000000	0.010006
2365.000000	0.009953
2364.000000	0.009913
2363.000000	0.009863
2362.000000	0.009803
2361.000000	0.009745
2360.000000	0.009686
2359.000000	0.009635
2358.000000	0.009578
2357.000000	0.009532
2356.000000	0.009488
2355.000000	0.009419
2354.000000	0.009343
2353.000000	0.009267
2352.000000	0.009151
2351.000000	0.008929
2350.000000	0.008668
2349.000000	0.008516
2348.000000	0.008562
2347.000000	0.008785
2346.000000	0.009035
2345.000000	0.009162
2344.000000	0.009116
2343.000000	0.008996
2342.000000	0.008913
2341.000000	0.008855
2340.000000	0.008794
2339.000000	0.008731
2338.000000	0.008696
2337.000000	0.008689
2336.000000	0.008692
2335.000000	0.008679
2334.000000	0.008665
2333.000000	0.008659
2332.000000	0.008665
2331.000000	0.008654
2330.000000	0.008646
2329.000000	0.008670
2328.000000	0.008707
2327.000000	0.008723
2326.000000	0.008680
2325.000000	0.008606
2324.000000	0.008525
2323.000000	0.008457
2322.000000	0.008417
2321.000000	0.008398
2320.000000	0.008395
2319.000000	0.008381
2318.000000	0.008357
2317.000000	0.008327
2316.000000	0.008304
2315.000000	0.008286
2314.000000	0.008274
2313.000000	0.008265
2312.000000	0.008250
2311.000000	0.008224
2310.000000	0.008190
2309.000000	0.008160
2308.000000	0.008133
2307.000000	0.008102
2306.000000	0.008069
2305.000000	0.008043
2304.000000	0.008027
2303.000000	0.008017
2302.000000	0.008012
2301.000000	0.008010
2300.000000	0.008006
2299.000000	0.007991
2298.000000	0.007971
2297.000000	0.007956
2296.000000	0.007945
2295.000000	0.007935
2294.000000	0.007926
2293.000000	0.007923
2292.000000	0.007920
2291.000000	0.007910
2290.000000	0.007898
2289.000000	0.007895
2288.000000	0.007895
2287.000000	0.007880
2286.000000	0.007844
2285.000000	0.007806
2284.000000	0.007782
2283.000000	0.007771
2282.000000	0.007767
2281.000000	0.007759
2280.000000	0.007737
2279.000000	0.007704
2278.000000	0.007681
2277.000000	0.007682
2276.000000	0.007694
2275.000000	0.007696
2274.000000	0.007689
2273.000000	0.007690
2272.000000	0.007696
2271.000000	0.007686
2270.000000	0.007656
2269.000000	0.007624
2268.000000	0.007596
2267.000000	0.007567
2266.000000	0.007542
2265.000000	0.007539
2264.000000	0.007560
2263.000000	0.007593
2262.000000	0.007622
2261.000000	0.007641
2260.000000	0.007636
2259.000000	0.007595
2258.000000	0.007531
2257.000000	0.007470
2256.000000	0.007425
2255.000000	0.007393
2254.000000	0.007379
2253.000000	0.007390
2252.000000	0.007409
2251.000000	0.007415
2250.000000	0.007408
2249.000000	0.007403
2248.000000	0.007396
2247.000000	0.007374
2246.000000	0.007350
2245.000000	0.007350
2244.000000	0.007366
2243.000000	0.007367
2242.000000	0.007342
2241.000000	0.007313
2240.000000	0.007297
2239.000000	0.007296
2238.000000	0.007308
2237.000000	0.007332
2236.000000	0.007347
2235.000000	0.007332
2234.000000	0.007303
2233.000000	0.007289
2232.000000	0.007297
2231.000000	0.007306
2230.000000	0.007311
2229.000000	0.007318
2228.000000	0.007321
2227.000000	0.007302
2226.000000	0.007269
2225.000000	0.007246
2224.000000	0.007232
2223.000000	0.007208
2222.000000	0.007179
2221.000000	0.007165
2220.000000	0.007169
2219.000000	0.007177
2218.000000	0.007193
2217.000000	0.007224
2216.000000	0.007244
2215.000000	0.007224
2214.000000	0.007178
2213.000000	0.007144
2212.000000	0.007132
2211.000000	0.007120
2210.000000	0.007105
2209.000000	0.007104
2208.000000	0.007116
2207.000000	0.007134
2206.000000	0.007170
2205.000000	0.007229
2204.000000	0.007273
2203.000000	0.007261
2202.000000	0.007206
2201.000000	0.007154
2200.000000	0.007111
2199.000000	0.007062
2198.000000	0.007028
2197.000000	0.007040
2196.000000	0.007075
2195.000000	0.007083
2194.000000	0.007071
2193.000000	0.007087
2192.000000	0.007137
2191.000000	0.007171
2190.000000	0.007172
2189.000000	0.007169
2188.000000	0.007176
2187.000000	0.007171
2186.000000	0.007144
2185.000000	0.007114
2184.000000	0.007088
2183.000000	0.007066
2182.000000	0.007062
2181.000000	0.007086
2180.000000	0.007096
2179.000000	0.007052
2178.000000	0.006993
2177.000000	0.006990
2176.000000	0.007047
2175.000000	0.007104
2174.000000	0.007134
2173.000000	0.007156
2172.000000	0.007174
2171.000000	0.007168
2170.000000	0.007160
2169.000000	0.007190
2168.000000	0.007249
2167.000000	0.007294
2166.000000	0.007317
2165.000000	0.007330
2164.000000	0.007281
2163.000000	0.007078
2162.000000	0.006725
2161.000000	0.006356
2160.000000	0.006114
2159.000000	0.006049
2158.000000	0.006136
2157.000000	0.006310
2156.000000	0.006477
2155.000000	0.006574
2154.000000	0.006619
2153.000000	0.006651
2152.000000	0.006667
2151.000000	0.006648
2150.000000	0.006626
2149.000000	0.006639
2148.000000	0.006659
2147.000000	0.006640
2146.000000	0.006595
2145.000000	0.006576
2144.000000	0.006575
2143.000000	0.006549
2142.000000	0.006500
2141.000000	0.006476
2140.000000	0.006488
2139.000000	0.006495
2138.000000	0.006475
2137.000000	0.006443
2136.000000	0.006420
2135.000000	0.006416
2134.000000	0.006452
2133.000000	0.006541
2132.000000	0.006651
2131.000000	0.006730
2130.000000	0.006759
2129.000000	0.006753
2128.000000	0.006733
2127.000000	0.006717
2126.000000	0.006729
2125.000000	0.006768
2124.000000	0.006795
2123.000000	0.006778
2122.000000	0.006737
2121.000000	0.006723
2120.000000	0.006748
2119.000000	0.006790
2118.000000	0.006830
2117.000000	0.006866
2116.000000	0.006884
2115.000000	0.006872
2114.000000	0.006849
2113.000000	0.006843
2112.000000	0.006847
2111.000000	0.006828
2110.000000	0.006789
2109.000000	0.006758
2108.000000	0.006742
2107.000000	0.006728
2106.000000	0.006718
2105.000000	0.006725
2104.000000	0.006740
2103.000000	0.006738
2102.000000	0.006723
2101.000000	0.006715
2100.000000	0.006711
2099.000000	0.006691
2098.000000	0.006664
2097.000000	0.006653
2096.000000	0.006660
2095.000000	0.006668
2094.000000	0.006678
2093.000000	0.006700
2092.000000	0.006719
2091.000000	0.006717
2090.000000	0.006707
2089.000000	0.006712
2088.000000	0.006720
2087.000000	0.006701
2086.000000	0.006660
2085.000000	0.006622
2084.000000	0.006592
2083.000000	0.006556
2082.000000	0.006533
2081.000000	0.006550
2080.000000	0.006591
2079.000000	0.006610
2078.000000	0.006603
2077.000000	0.006596
2076.000000	0.006596
2075.000000	0.006581
2074.000000	0.006549
2073.000000	0.006524
2072.000000	0.006508
2071.000000	0.006493
2070.000000	0.006489
2069.000000	0.006512
2068.000000	0.006531
2067.000000	0.006506
2066.000000	0.006452
2065.000000	0.006419
2064.000000	0.006417
2063.000000	0.006412
2062.000000	0.006398
2061.000000	0.006406
2060.000000	0.006442
2059.000000	0.006479
2058.000000	0.006497
2057.000000	0.006495
2056.000000	0.006479
2055.000000	0.006464
2054.000000	0.006487
2053.000000	0.006546
2052.000000	0.006562
2051.000000	0.006467
2050.000000	0.006310
2049.000000	0.006210
2048.000000	0.006199
2047.000000	0.006215
2046.000000	0.006220
2045.000000	0.006232
2044.000000	0.006242
2043.000000	0.006227
2042.000000	0.006218
2041.000000	0.006271
2040.000000	0.006365
2039.000000	0.006437
2038.000000	0.006482
2037.000000	0.006527
2036.000000	0.006535
2035.000000	0.006449
2034.000000	0.006325
2033.000000	0.006260
2032.000000	0.006239
2031.000000	0.006167
2030.000000	0.006054
2029.000000	0.005994
2028.000000	0.006013
2027.000000	0.006053
2026.000000	0.006099
2025.000000	0.006177
2024.000000	0.006246
2023.000000	0.006243
2022.000000	0.006195
2021.000000	0.006183
2020.000000	0.006186
2019.000000	0.006126
2018.000000	0.006026
2017.000000	0.005991
2016.000000	0.006040
2015.000000	0.006093
2014.000000	0.006119
2013.000000	0.006151
2012.000000	0.006175
2011.000000	0.006131
2010.000000	0.006033
2009.000000	0.005962
2008.000000	0.005946
2007.000000	0.005951
2006.000000	0.005984
2005.000000	0.006071
2004.000000	0.006164
2003.000000	0.006186
2002.000000	0.006148
2001.000000	0.006123
2000.000000	0.006125
1999.000000	0.006114
1998.000000	0.006100
1997.000000	0.006128
1996.000000	0.006174
1995.000000	0.006174
1994.000000	0.006139
1993.000000	0.006141
1992.000000	0.006184
1991.000000	0.006199
1990.000000	0.006175
1989.000000	0.006171
1988.000000	0.006206
1987.000000	0.006239
1986.000000	0.006256
1985.000000	0.006291
1984.000000	0.006334
1983.000000	0.006336
1982.000000	0.006282
1981.000000	0.006199
1980.000000	0.006087
1979.000000	0.005949
1978.000000	0.005866
1977.000000	0.005915
1976.000000	0.006035
1975.000000	0.006099
1974.000000	0.006089
1973.000000	0.006075
1972.000000	0.006073
1971.000000	0.006048
1970.000000	0.006012
1969.000000	0.005993
1968.000000	0.005954
1967.000000	0.005858
1966.000000	0.005779
1965.000000	0.005810
1964.000000	0.005908
1963.000000	0.005958
1962.000000	0.005942
1961.000000	0.005928
1960.000000	0.005933
1959.000000	0.005918
1958.000000	0.005892
1957.000000	0.005902
1956.000000	0.005931
1955.000000	0.005927
1954.000000	0.005901
1953.000000	0.005905
1952.000000	0.005933
1951.000000	0.005932
1950.000000	0.005901
1949.000000	0.005881
1948.000000	0.005866
1947.000000	0.005821
1946.000000	0.005760
1945.000000	0.005736
1944.000000	0.005746
1943.000000	0.005754
1942.000000	0.005757
1941.000000	0.005772
1940.000000	0.005772
1939.000000	0.005732
1938.000000	0.005693
1937.000000	0.005715
1936.000000	0.005775
1935.000000	0.005799
1934.000000	0.005776
1933.000000	0.005752
1932.000000	0.005739
1931.000000	0.005715
1930.000000	0.005694
1929.000000	0.005710
1928.000000	0.005741
1927.000000	0.005731
1926.000000	0.005679
1925.000000	0.005636
1924.000000	0.005624
1923.000000	0.005622
1922.000000	0.005629
1921.000000	0.005652
1920.000000	0.005669
1919.000000	0.005648
1918.000000	0.005614
1917.000000	0.005618
1916.000000	0.005654
1915.000000	0.005676
1914.000000	0.005675
1913.000000	0.005678
1912.000000	0.005682
1911.000000	0.005662
1910.000000	0.005631
1909.000000	0.005625
1908.000000	0.005633
1907.000000	0.005619
1906.000000	0.005590
1905.000000	0.005584
1904.000000	0.005599
1903.000000	0.005596
1902.000000	0.005573
1901.000000	0.005565
1900.000000	0.005574
1899.000000	0.005569
1898.000000	0.005546
1897.000000	0.005537
1896.000000	0.005544
1895.000000	0.005540
1894.000000	0.005528
1893.000000	0.005534
1892.000000	0.005549
1891.000000	0.005543
1890.000000	0.005521
1889.000000	0.005512
1888.000000	0.005509
1887.000000	0.005484
1886.000000	0.005450
1885.000000	0.005446
1884.000000	0.005472
1883.000000	0.005490
1882.000000	0.005493
1881.000000	0.005501
1880.000000	0.005509
1879.000000	0.005490
1878.000000	0.005457
1877.000000	0.005443
1876.000000	0.005445
1875.000000	0.005429
1874.000000	0.005389
1873.000000	0.005351
1872.000000	0.005319
1871.000000	0.005276
1870.000000	0.005237
1869.000000	0.005238
1868.000000	0.005267
1867.000000	0.005280
1866.000000	0.005275
1865.000000	0.005284
1864.000000	0.005303
1863.000000	0.005305
1862.000000	0.005294
1861.000000	0.005298
1860.000000	0.005310
1859.000000	0.005297
1858.000000	0.005266
1857.000000	0.005255
1856.000000	0.005264
1855.000000	0.005261
1854.000000	0.005243
1853.000000	0.005234
1852.000000	0.005232
1851.000000	0.005216
1850.000000	0.005194
1849.000000	0.005189
1848.000000	0.005186
1847.000000	0.005153
1846.000000	0.005103
1845.000000	0.005084
1844.000000	0.005101
1843.000000	0.005110
1842.000000	0.005102
1841.000000	0.005111
1840.000000	0.005137
1839.000000	0.005147
1838.000000	0.005137
1837.000000	0.005137
1836.000000	0.005152
1835.000000	0.005152
1834.000000	0.005125
1833.000000	0.005090
1832.000000	0.005052
1831.000000	0.005011
1830.000000	0.004984
1829.000000	0.004992
1828.000000	0.005010
1827.000000	0.005006
1826.000000	0.004995
1825.000000	0.005013
1824.000000	0.005050
1823.000000	0.005064
1822.000000	0.005053
1821.000000	0.005045
1820.000000	0.005040
1819.000000	0.005017
1818.000000	0.004987
1817.000000	0.004985
1816.000000	0.005005
1815.000000	0.005006
1814.000000	0.004982
1813.000000	0.004965
1812.000000	0.004967
1811.000000	0.004967
1810.000000	0.004958
1809.000000	0.004966
1808.000000	0.004988
1807.000000	0.004999
1806.000000	0.004992
1805.000000	0.004988
1804.000000	0.004980
1803.000000	0.004948
1802.000000	0.004911
1801.000000	0.004911
1800.000000	0.004943
1799.000000	0.004957
1798.000000	0.004943
1797.000000	0.004932
1796.000000	0.004931
1795.000000	0.004914
1794.000000	0.004883
1793.000000	0.004875
1792.000000	0.004901
1791.000000	0.004924
1790.000000	0.004933
1789.000000	0.004951
1788.000000	0.004973
1787.000000	0.004971
1786.000000	0.004950
1785.000000	0.004949
1784.000000	0.004968
1783.000000	0.004967
1782.000000	0.004948
1781.000000	0.004947
1780.000000	0.004969
1779.000000	0.004978
1778.000000	0.004964
1777.000000	0.004954
1776.000000	0.004955
1775.000000	0.004948
1774.000000	0.004935
1773.000000	0.004948
1772.000000	0.004978
1771.000000	0.004978
1770.000000	0.004951
1769.000000	0.004952
1768.000000	0.004995
1767.000000	0.005035
1766.000000	0.005050
1765.000000	0.005059
1764.000000	0.005071
1763.000000	0.005070
1762.000000	0.005066
1761.000000	0.005089
1760.000000	0.005129
1759.000000	0.005144
1758.000000	0.005143
1757.000000	0.005170
1756.000000	0.005223
1755.000000	0.005252
1754.000000	0.005243
1753.000000	0.005235
1752.000000	0.005243
1751.000000	0.005247
1750.000000	0.005252
1749.000000	0.005300
1748.000000	0.005387
1747.000000	0.005458
1746.000000	0.005497
1745.000000	0.005543
1744.000000	0.005607
1743.000000	0.005660
1742.000000	0.005699
1741.000000	0.005775
1740.000000	0.005893
1739.000000	0.005988
1738.000000	0.006028
1737.000000	0.006059
1736.000000	0.006113
1735.000000	0.006163
1734.000000	0.006214
1733.000000	0.006294
1732.000000	0.006372
1731.000000	0.006406
1730.000000	0.006434
1729.000000	0.006522
1728.000000	0.006655
1727.000000	0.006758
1726.000000	0.006814
1725.000000	0.006880
1724.000000	0.006984
1723.000000	0.007076
1722.000000	0.007134
1721.000000	0.007207
1720.000000	0.007329
1719.000000	0.007466
1718.000000	0.007618
1717.000000	0.007855
1716.000000	0.008167
1715.000000	0.008460
1714.000000	0.008737
1713.000000	0.009082
1712.000000	0.009504
1711.000000	0.009936
1710.000000	0.010370
1709.000000	0.010877
1708.000000	0.011492
1707.000000	0.012198
1706.000000	0.013029
1705.000000	0.014025
1704.000000	0.015080
1703.000000	0.016104
1702.000000	0.017298
1701.000000	0.019096
1700.000000	0.021492
1699.000000	0.023789
1698.000000	0.025694
1697.000000	0.027603
1696.000000	0.029787
1695.000000	0.031899
1694.000000	0.033469
1693.000000	0.034492
1692.000000	0.035202
1691.000000	0.035748
1690.000000	0.036213
1689.000000	0.036666
1688.000000	0.037106
1687.000000	0.037485
1686.000000	0.037840
1685.000000	0.038370
1684.000000	0.039212
1683.000000	0.040147
1682.000000	0.040943
1681.000000	0.041654
1680.000000	0.042388
1679.000000	0.043143
1678.000000	0.043878
1677.000000	0.044637
1676.000000	0.045525
1675.000000	0.046562
1674.000000	0.047613
1673.000000	0.048539
1672.000000	0.049344
1671.000000	0.050136
1670.000000	0.051069
1669.000000	0.052199
1668.000000	0.053374
1667.000000	0.054402
1666.000000	0.055253
1665.000000	0.056037
1664.000000	0.056875
1663.000000	0.057816
1662.000000	0.058836
1661.000000	0.059857
1660.000000	0.060804
1659.000000	0.061648
1658.000000	0.062417
1657.000000	0.063126
1656.000000	0.063729
1655.000000	0.064220
1654.000000	0.064861
1653.000000	0.066081
1652.000000	0.067570
1651.000000	0.068609
1650.000000	0.069104
1649.000000	0.069373
1648.000000	0.069731
1647.000000	0.070354
1646.000000	0.071200
1645.000000	0.072080
1644.000000	0.072828
1643.000000	0.073398
1642.000000	0.073875
1641.000000	0.074392
1640.000000	0.074983
1639.000000	0.075549
1638.000000	0.076019
1637.000000	0.076526
1636.000000	0.077317
1635.000000	0.078417
1634.000000	0.079542
1633.000000	0.080499
1632.000000	0.081307
1631.000000	0.082042
1630.000000	0.082793
1629.000000	0.083668
1628.000000	0.084702
1627.000000	0.085785
1626.000000	0.086787
1625.000000	0.087707
1624.000000	0.088655
1623.000000	0.089693
1622.000000	0.090749
1621.000000	0.091672
1620.000000	0.092342
1619.000000	0.092700
1618.000000	0.092788
1617.000000	0.092780
1616.000000	0.092776
1615.000000	0.092625
1614.000000	0.092118
1613.000000	0.091213
1612.000000	0.089987
1611.000000	0.088525
1610.000000	0.086884
1609.000000	0.085090
1608.000000	0.083178
1607.000000	0.081188
1606.000000	0.079140
1605.000000	0.077031
1604.000000	0.074866
1603.000000	0.072684
1602.000000	0.070523
1601.000000	0.068392
1600.000000	0.066304
1599.000000	0.064289
1598.000000	0.062354
1597.000000	0.060472
1596.000000	0.058638
1595.000000	0.056893
1594.000000	0.055267
1593.000000	0.053735
1592.000000	0.052267
1591.000000	0.050879
1590.000000	0.049595
1589.000000	0.048401
1588.000000	0.047283
1587.000000	0.046265
1586.000000	0.045369
1585.000000	0.044566
1584.000000	0.043821
1583.000000	0.043155
1582.000000	0.042595
1581.000000	0.042120
1580.000000	0.041688
1579.000000	0.041301
1578.000000	0.040984
1577.000000	0.040753
1576.000000	0.040642
1575.000000	0.040661
1574.000000	0.040726
1573.000000	0.040740
1572.000000	0.040703
1571.000000	0.040731
1570.000000	0.040959
1569.000000	0.041366
1568.000000	0.041805
1567.000000	0.042219
1566.000000	0.042666
1565.000000	0.043180
1564.000000	0.043726
1563.000000	0.044250
1562.000000	0.044710
1561.000000	0.045112
1560.000000	0.045643
1559.000000	0.046662
1558.000000	0.048015
1557.000000	0.049130
1556.000000	0.049900
1555.000000	0.050590
1554.000000	0.051403
1553.000000	0.052279
1552.000000	0.053084
1551.000000	0.053851
1550.000000	0.054703
1549.000000	0.055633
1548.000000	0.056505
1547.000000	0.057260
1546.000000	0.057976
1545.000000	0.058732
1544.000000	0.059506
1543.000000	0.060232
1542.000000	0.060920
1541.000000	0.061675
1540.000000	0.062599
1539.000000	0.063609
1538.000000	0.064454
1537.000000	0.064984
1536.000000	0.065243
1535.000000	0.065400
1534.000000	0.065674
1533.000000	0.066144
1532.000000	0.066648
1531.000000	0.067010
1530.000000	0.067210
1529.000000	0.067313
1528.000000	0.067374
1527.000000	0.067439
1526.000000	0.067546
1525.000000	0.067656
1524.000000	0.067667
1523.000000	0.067550
1522.000000	0.067439
1521.000000	0.067497
1520.000000	0.067644
1519.000000	0.067660
1518.000000	0.067486
1517.000000	0.067232
1516.000000	0.066990
1515.000000	0.066696
1514.000000	0.066232
1513.000000	0.065573
1512.000000	0.064795
1511.000000	0.063964
1510.000000	0.063068
1509.000000	0.062047
1508.000000	0.060897
1507.000000	0.059767
1506.000000	0.058850
1505.000000	0.058103
1504.000000	0.057316
1503.000000	0.056385
1502.000000	0.055335
1501.000000	0.054251
1500.000000	0.053204
1499.000000	0.052195
1498.000000	0.051182
1497.000000	0.050172
1496.000000	0.049214
1495.000000	0.048306
1494.000000	0.047400
1493.000000	0.046469
1492.000000	0.045519
1491.000000	0.044601
1490.000000	0.043826
1489.000000	0.043287
1488.000000	0.042949
1487.000000	0.042711
1486.000000	0.042547
1485.000000	0.042489
1484.000000	0.042534
1483.000000	0.042661
1482.000000	0.042894
1481.000000	0.043280
1480.000000	0.043780
1479.000000	0.044311
1478.000000	0.044874
1477.000000	0.045543
1476.000000	0.046324
1475.000000	0.047152
1474.000000	0.048040
1473.000000	0.049092
1472.000000	0.050284
1471.000000	0.051412
1470.000000	0.052349
1469.000000	0.053137
1468.000000	0.053846
1467.000000	0.054517
1466.000000	0.055226
1465.000000	0.056047
1464.000000	0.056934
1463.000000	0.057739
1462.000000	0.058386
1461.000000	0.058908
1460.000000	0.059363
1459.000000	0.059820
1458.000000	0.060434
1457.000000	0.061347
1456.000000	0.062387
1455.000000	0.063195
1454.000000	0.063685
1453.000000	0.063988
1452.000000	0.064225
1451.000000	0.064415
1450.000000	0.064545
1449.000000	0.064632
1448.000000	0.064710
1447.000000	0.064785
1446.000000	0.064825
1445.000000	0.064792
1444.000000	0.064677
1443.000000	0.064512
1442.000000	0.064335
1441.000000	0.064148
1440.000000	0.063899
1439.000000	0.063539
1438.000000	0.063073
1437.000000	0.062590
1436.000000	0.062166
1435.000000	0.061740
1434.000000	0.061186
1433.000000	0.060464
1432.000000	0.059624
1431.000000	0.058750
1430.000000	0.057893
1429.000000	0.057071
1428.000000	0.056288
1427.000000	0.055526
1426.000000	0.054753
1425.000000	0.053977
1424.000000	0.053276
1423.000000	0.052695
1422.000000	0.052165
1421.000000	0.051593
1420.000000	0.051011
1419.000000	0.050553
1418.000000	0.050246
1417.000000	0.049977
1416.000000	0.049682
1415.000000	0.049377
1414.000000	0.049072
1413.000000	0.048757
1412.000000	0.048444
1411.000000	0.048163
1410.000000	0.047907
1409.000000	0.047644
1408.000000	0.047366
1407.000000	0.047087
1406.000000	0.046816
1405.000000	0.046554
1404.000000	0.046320
1403.000000	0.046110
1402.000000	0.045876
1401.000000	0.045588
1400.000000	0.045295
1399.000000	0.045070
1398.000000	0.044905
1397.000000	0.044741
1396.000000	0.044581
1395.000000	0.044490
1394.000000	0.044486
1393.000000	0.044502
1392.000000	0.044487
1391.000000	0.044437
1390.000000	0.044356
1389.000000	0.044242
1388.000000	0.044120
1387.000000	0.044020
1386.000000	0.043923
1385.000000	0.043780
1384.000000	0.043583
1383.000000	0.043371
1382.000000	0.043170
1381.000000	0.042977
1380.000000	0.042798
1379.000000	0.042655
1378.000000	0.042547
1377.000000	0.042450
1376.000000	0.042358
1375.000000	0.042307
1374.000000	0.042322
1373.000000	0.042377
1372.000000	0.042418
1371.000000	0.042405
1370.000000	0.042314
1369.000000	0.042132
1368.000000	0.041865
1367.000000	0.041529
1366.000000	0.041123
1365.000000	0.040648
1364.000000	0.040139
1363.000000	0.039669
1362.000000	0.039281
1361.000000	0.038959
1360.000000	0.038670
1359.000000	0.038406
1358.000000	0.038165
1357.000000	0.037940
1356.000000	0.037734
1355.000000	0.037561
1354.000000	0.037424
1353.000000	0.037311
1352.000000	0.037218
1351.000000	0.037147
1350.000000	0.037098
1349.000000	0.037060
1348.000000	0.037032
1347.000000	0.037019
1346.000000	0.037020
1345.000000	0.037021
1344.000000	0.037017
1343.000000	0.037008
1342.000000	0.036988
1341.000000	0.036959
1340.000000	0.036948
1339.000000	0.036982
1338.000000	0.037053
1337.000000	0.037127
1336.000000	0.037191
1335.000000	0.037253
1334.000000	0.037313
1333.000000	0.037357
1332.000000	0.037389
1331.000000	0.037423
1330.000000	0.037461
1329.000000	0.037492
1328.000000	0.037514
1327.000000	0.037530
1326.000000	0.037534
1325.000000	0.037513
1324.000000	0.037467
1323.000000	0.037405
1322.000000	0.037327
1321.000000	0.037224
1320.000000	0.037102
1319.000000	0.036982
1318.000000	0.036867
1317.000000	0.036743
1316.000000	0.036608
1315.000000	0.036473
1314.000000	0.036344
1313.000000	0.036219
1312.000000	0.036101
1311.000000	0.035995
1310.000000	0.035891
1309.000000	0.035777
1308.000000	0.035660
1307.000000	0.035554
1306.000000	0.035461
1305.000000	0.035368
1304.000000	0.035272
1303.000000	0.035181
1302.000000	0.035093
1301.000000	0.035000
1300.000000	0.034906
1299.000000	0.034828
1298.000000	0.034766
1297.000000	0.034709
1296.000000	0.034656
1295.000000	0.034617
1294.000000	0.034593
1293.000000	0.034573
1292.000000	0.034556
1291.000000	0.034550
1290.000000	0.034554
1289.000000	0.034555
1288.000000	0.034553
1287.000000	0.034561
1286.000000	0.034577
1285.000000	0.034588
1284.000000	0.034587
1283.000000	0.034579
1282.000000	0.034561
1281.000000	0.034529
1280.000000	0.034490
1279.000000	0.034456
1278.000000	0.034428
1277.000000	0.034390
1276.000000	0.034343
1275.000000	0.034298
1274.000000	0.034257
1273.000000	0.034216
1272.000000	0.034184
1271.000000	0.034174
1270.000000	0.034188
1269.000000	0.034215
1268.000000	0.034253
1267.000000	0.034311
1266.000000	0.034391
1265.000000	0.034486
1264.000000	0.034597
1263.000000	0.034730
1262.000000	0.034878
1261.000000	0.035031
1260.000000	0.035196
1259.000000	0.035388
1258.000000	0.035606
1257.000000	0.035837
1256.000000	0.036074
1255.000000	0.036326
1254.000000	0.036590
1253.000000	0.036859
1252.000000	0.037133
1251.000000	0.037416
1250.000000	0.037701
1249.000000	0.037973
1248.000000	0.038232
1247.000000	0.038484
1246.000000	0.038731
1245.000000	0.038965
1244.000000	0.039184
1243.000000	0.039395
1242.000000	0.039592
1241.000000	0.039767
1240.000000	0.039918
1239.000000	0.040050
1238.000000	0.040160
1237.000000	0.040241
1236.000000	0.040292
1235.000000	0.040322
1234.000000	0.040332
1233.000000	0.040317
1232.000000	0.040277
1231.000000	0.040212
1230.000000	0.040118
1229.000000	0.039990
1228.000000	0.039838
1227.000000	0.039671
1226.000000	0.039486
1225.000000	0.039277
1224.000000	0.039045
1223.000000	0.038800
1222.000000	0.038541
1221.000000	0.038258
1220.000000	0.037952
1219.000000	0.037638
1218.000000	0.037321
1217.000000	0.036995
1216.000000	0.036662
1215.000000	0.036326
1214.000000	0.035980
1213.000000	0.035617
1212.000000	0.035240
1211.000000	0.034870
1210.000000	0.034511
1209.000000	0.034154
1208.000000	0.033795
1207.000000	0.033436
1206.000000	0.033074
1205.000000	0.032702
1204.000000	0.032329
1203.000000	0.031973
1202.000000	0.031638
1201.000000	0.031315
1200.000000	0.031003
1199.000000	0.030710
1198.000000	0.030442
1197.000000	0.030191
1196.000000	0.029954
1195.000000	0.029736
1194.000000	0.029534
1193.000000	0.029339
1192.000000	0.029153
1191.000000	0.028987
1190.000000	0.028840
1189.000000	0.028706
1188.000000	0.028587
1187.000000	0.028494
1186.000000	0.028422
1185.000000	0.028358
1184.000000	0.028302
1183.000000	0.028273
1182.000000	0.028278
1181.000000	0.028312
1180.000000	0.028380
1179.000000	0.028499
1178.000000	0.028672
1177.000000	0.028886
1176.000000	0.029132
1175.000000	0.029418
1174.000000	0.029738
1173.000000	0.030072
1172.000000	0.030402
1171.000000	0.030725
1170.000000	0.031037
1169.000000	0.031335
1168.000000	0.031624
1167.000000	0.031913
1166.000000	0.032194
1165.000000	0.032451
1164.000000	0.032673
1163.000000	0.032859
1162.000000	0.033004
1161.000000	0.033096
1160.000000	0.033135
1159.000000	0.033128
1158.000000	0.033079
1157.000000	0.032985
1156.000000	0.032848
1155.000000	0.032671
1154.000000	0.032453
1153.000000	0.032192
1152.000000	0.031904
1151.000000	0.031608
1150.000000	0.031310
1149.000000	0.031010
1148.000000	0.030715
1147.000000	0.030438
1146.000000	0.030175
1145.000000	0.029918
1144.000000	0.029675
1143.000000	0.029463
1142.000000	0.029288
1141.000000	0.029137
1140.000000	0.029003
1139.000000	0.028889
1138.000000	0.028790
1137.000000	0.028698
1136.000000	0.028620
1135.000000	0.028571
1134.000000	0.028548
1133.000000	0.028534
1132.000000	0.028520
1131.000000	0.028511
1130.000000	0.028500
1129.000000	0.028481
1128.000000	0.028464
1127.000000	0.028466
1126.000000	0.028484
1125.000000	0.028492
1124.000000	0.028484
1123.000000	0.028475
1122.000000	0.028476
1121.000000	0.028482
1120.000000	0.028491
1119.000000	0.028512
1118.000000	0.028546
1117.000000	0.028582
1116.000000	0.028619
1115.000000	0.028662
1114.000000	0.028711
1113.000000	0.028757
1112.000000	0.028806
1111.000000	0.028869
1110.000000	0.028950
1109.000000	0.029042
1108.000000	0.029144
1107.000000	0.029265
1106.000000	0.029402
1105.000000	0.029548
1104.000000	0.029705
1103.000000	0.029878
1102.000000	0.030063
1101.000000	0.030247
1100.000000	0.030432
1099.000000	0.030635
1098.000000	0.030864
1097.000000	0.031116
1096.000000	0.031394
1095.000000	0.031708
1094.000000	0.032055
1093.000000	0.032428
1092.000000	0.032830
1091.000000	0.033267
1090.000000	0.033739
1089.000000	0.034242
1088.000000	0.034784
1087.000000	0.035368
1086.000000	0.035978
1085.000000	0.036596
1084.000000	0.037222
1083.000000	0.037862
1082.000000	0.038507
1081.000000	0.039141
1080.000000	0.039759
1079.000000	0.040368
1078.000000	0.040964
1077.000000	0.041533
1076.000000	0.042071
1075.000000	0.042577
1074.000000	0.043044
1073.000000	0.043468
1072.000000	0.043863
1071.000000	0.044240
1070.000000	0.044588
1069.000000	0.044879
1068.000000	0.045102
1067.000000	0.045261
1066.000000	0.045365
1065.000000	0.045419
1064.000000	0.045430
1063.000000	0.045408
1062.000000	0.045350
1061.000000	0.045250
1060.000000	0.045108
1059.000000	0.044927
1058.000000	0.044703
1057.000000	0.044443
1056.000000	0.044174
1055.000000	0.043921
1054.000000	0.043679
1053.000000	0.043424
1052.000000	0.043148
1051.000000	0.042860
1050.000000	0.042569
1049.000000	0.042268
1048.000000	0.041950
1047.000000	0.041615
1046.000000	0.041258
1045.000000	0.040871
1044.000000	0.040463
1043.000000	0.040051
1042.000000	0.039641
1041.000000	0.039232
1040.000000	0.038831
1039.000000	0.038454
1038.000000	0.038104
1037.000000	0.037771
1036.000000	0.037449
1035.000000	0.037140
1034.000000	0.036834
1033.000000	0.036510
1032.000000	0.036162
1031.000000	0.035796
1030.000000	0.035411
1029.000000	0.034997
1028.000000	0.034550
1027.000000	0.034082
1026.000000	0.033610
1025.000000	0.033146
1024.000000	0.032698
1023.000000	0.032270
1022.000000	0.031855
1021.000000	0.031446
1020.000000	0.031050
1019.000000	0.030673
1018.000000	0.030304
1017.000000	0.029932
1016.000000	0.029562
1015.000000	0.029212
1014.000000	0.028879
1013.000000	0.028551
1012.000000	0.028235
1011.000000	0.027951
1010.000000	0.027693
1009.000000	0.027442
1008.000000	0.027193
1007.000000	0.026961
1006.000000	0.026748
1005.000000	0.026543
1004.000000	0.026341
1003.000000	0.026148
1002.000000	0.025963
1001.000000	0.025773
1000.000000	0.025580
999.000000	0.025396
998.000000	0.025219
997.000000	0.025040
996.000000	0.024861
995.000000	0.024693
994.000000	0.024531
993.000000	0.024358
992.000000	0.024169
991.000000	0.023982
990.000000	0.023807
989.000000	0.023643
988.000000	0.023494
987.000000	0.023372
986.000000	0.023272
985.000000	0.023177
984.000000	0.023082
983.000000	0.023001
982.000000	0.022936
981.000000	0.022879
980.000000	0.022827
979.000000	0.022790
978.000000	0.022768
977.000000	0.022750
976.000000	0.022737
975.000000	0.022735
974.000000	0.022739
973.000000	0.022736
972.000000	0.022727
971.000000	0.022729
970.000000	0.022745
969.000000	0.022768
968.000000	0.022799
967.000000	0.022848
966.000000	0.022909
965.000000	0.022967
964.000000	0.023020
963.000000	0.023083
962.000000	0.023159
961.000000	0.023238
960.000000	0.023314
959.000000	0.023391
958.000000	0.023461
957.000000	0.023509
956.000000	0.023529
955.000000	0.023533
954.000000	0.023525
953.000000	0.023499
952.000000	0.023458
951.000000	0.023411
950.000000	0.023358
949.000000	0.023297
948.000000	0.023243
947.000000	0.023214
946.000000	0.023212
945.000000	0.023222
944.000000	0.023237
943.000000	0.023262
942.000000	0.023289
941.000000	0.023311
940.000000	0.023335
939.000000	0.023377
938.000000	0.023433
937.000000	0.023482
936.000000	0.023521
935.000000	0.023560
934.000000	0.023601
933.000000	0.023630
932.000000	0.023642
931.000000	0.023642
930.000000	0.023630
929.000000	0.023597
928.000000	0.023549
927.000000	0.023502
926.000000	0.023452
925.000000	0.023378
924.000000	0.023269
923.000000	0.023136
922.000000	0.022984
921.000000	0.022809
920.000000	0.022613
919.000000	0.022414
918.000000	0.022220
917.000000	0.022026
916.000000	0.021833
915.000000	0.021650
914.000000	0.021481
913.000000	0.021324
912.000000	0.021183
911.000000	0.021065
910.000000	0.020964
909.000000	0.020871
908.000000	0.020794
907.000000	0.020749
906.000000	0.020732
905.000000	0.020718
904.000000	0.020698
903.000000	0.020679
902.000000	0.020660
901.000000	0.020632
900.000000	0.020600
899.000000	0.020575
898.000000	0.020549
897.000000	0.020497
896.000000	0.020409
895.000000	0.020303
894.000000	0.020189
893.000000	0.020073
892.000000	0.019965
891.000000	0.019880
890.000000	0.019809
889.000000	0.019730
888.000000	0.019634
887.000000	0.019540
886.000000	0.019458
885.000000	0.019383
884.000000	0.019314
883.000000	0.019260
882.000000	0.019221
881.000000	0.019187
880.000000	0.019156
879.000000	0.019130
878.000000	0.019101
877.000000	0.019057
876.000000	0.019008
875.000000	0.018978
874.000000	0.018964
873.000000	0.018939
872.000000	0.018889
871.000000	0.018823
870.000000	0.018749
869.000000	0.018666
868.000000	0.018578
867.000000	0.018500
866.000000	0.018426
865.000000	0.018342
864.000000	0.018251
863.000000	0.018170
862.000000	0.018105
861.000000	0.018043
860.000000	0.017985
859.000000	0.017953
858.000000	0.017949
857.000000	0.017955
856.000000	0.017960
855.000000	0.017969
854.000000	0.017981
853.000000	0.017987
852.000000	0.017986
851.000000	0.017991
850.000000	0.017999
849.000000	0.017991
848.000000	0.017959
847.000000	0.017917
846.000000	0.017878
845.000000	0.017846
844.000000	0.017827
843.000000	0.017834
842.000000	0.017866
841.000000	0.017916
840.000000	0.017980
839.000000	0.018062
838.000000	0.018145
837.000000	0.018212
836.000000	0.018272
835.000000	0.018357
834.000000	0.018476
833.000000	0.018611
832.000000	0.018752
831.000000	0.018907
830.000000	0.019078
829.000000	0.019242
828.000000	0.019379
827.000000	0.019493
826.000000	0.019592
825.000000	0.019683
824.000000	0.019779
823.000000	0.019892
822.000000	0.020016
821.000000	0.020132
820.000000	0.020241
819.000000	0.020368
818.000000	0.020523
817.000000	0.020691
816.000000	0.020853
815.000000	0.021005
814.000000	0.021147
813.000000	0.021286
812.000000	0.021432
811.000000	0.021594
810.000000	0.021755
809.000000	0.021888
808.000000	0.021996
807.000000	0.022106
806.000000	0.022228
805.000000	0.022350
804.000000	0.022459
803.000000	0.022557
802.000000	0.022649
801.000000	0.022736
800.000000	0.022825
799.000000	0.022925
798.000000	0.023031
797.000000	0.023136
796.000000	0.023249
795.000000	0.023393
794.000000	0.023570
793.000000	0.023762
792.000000	0.023960
791.000000	0.024160
790.000000	0.024354
789.000000	0.024527
788.000000	0.024686
787.000000	0.024859
786.000000	0.025060
785.000000	0.025274
784.000000	0.025488
783.000000	0.025698
782.000000	0.025903
781.000000	0.026097
780.000000	0.026281
779.000000	0.026464
778.000000	0.026647
777.000000	0.026822
776.000000	0.026991
775.000000	0.027166
774.000000	0.027351
773.000000	0.027537
772.000000	0.027719
771.000000	0.027897
770.000000	0.028070
769.000000	0.028230
768.000000	0.028375
767.000000	0.028516
766.000000	0.028657
765.000000	0.028796
764.000000	0.028935
763.000000	0.029076
762.000000	0.029218
761.000000	0.029360
760.000000	0.029511
759.000000	0.029675
758.000000	0.029848
757.000000	0.030020
756.000000	0.030196
755.000000	0.030380
754.000000	0.030565
753.000000	0.030738
752.000000	0.030897
751.000000	0.031046
750.000000	0.031180
749.000000	0.031293
748.000000	0.031385
747.000000	0.031464
746.000000	0.031522
745.000000	0.031558
744.000000	0.031590
743.000000	0.031636
742.000000	0.031687
741.000000	0.031719
740.000000	0.031735
739.000000	0.031761
738.000000	0.031813
737.000000	0.031882
736.000000	0.031958
735.000000	0.032047
734.000000	0.032148
733.000000	0.032262
732.000000	0.032400
731.000000	0.032576
730.000000	0.032783
729.000000	0.033001
728.000000	0.033228
727.000000	0.033482
726.000000	0.033771
725.000000	0.034084
724.000000	0.034413
723.000000	0.034765
722.000000	0.035144
721.000000	0.035536
720.000000	0.035920
719.000000	0.036294
718.000000	0.036663
717.000000	0.037033
716.000000	0.037413
715.000000	0.037816
714.000000	0.038248
713.000000	0.038708
712.000000	0.039201
711.000000	0.039743
710.000000	0.040337
709.000000	0.040969
708.000000	0.041626
707.000000	0.042313
706.000000	0.043038
705.000000	0.043783
704.000000	0.044507
703.000000	0.045167
702.000000	0.045733
701.000000	0.046192
700.000000	0.046542
699.000000	0.046787
698.000000	0.046927
697.000000	0.046969
696.000000	0.046943
695.000000	0.046892
694.000000	0.046840
693.000000	0.046788
692.000000	0.046742
691.000000	0.046725
690.000000	0.046750
689.000000	0.046800
688.000000	0.046856
687.000000	0.046926
686.000000	0.047021
685.000000	0.047135
684.000000	0.047248
683.000000	0.047355
682.000000	0.047452
681.000000	0.047536
680.000000	0.047609
679.000000	0.047685
678.000000	0.047774
677.000000	0.047865
676.000000	0.047943
675.000000	0.048023
674.000000	0.048127
673.000000	0.048241
672.000000	0.048338
671.000000	0.048440
670.000000	0.048598
669.000000	0.048804
668.000000	0.048958
667.000000	0.049013
666.000000	0.048981
665.000000	0.048923
664.000000	0.048927
663.000000	0.048997
662.000000	0.049096
661.000000	0.049203
660.000000	0.049322
659.000000	0.049452
658.000000	0.049577
657.000000	0.049690
656.000000	0.049800
655.000000	0.049925
654.000000	0.050079
653.000000	0.050253
652.000000	0.050422
651.000000	0.050571
650.000000	0.050703
649.000000	0.050834
648.000000	0.050974
647.000000	0.051123
646.000000	0.051287
645.000000	0.051484
644.000000	0.051727
643.000000	0.051998
642.000000	0.052265
641.000000	0.052515
640.000000	0.052765
639.000000	0.053020
638.000000	0.053262
637.000000	0.053481
636.000000	0.053697
635.000000	0.053936
634.000000	0.054182
633.000000	0.054398
632.000000	0.054571
631.000000	0.054727
630.000000	0.054883
629.000000	0.055021
628.000000	0.055119
627.000000	0.055191
626.000000	0.055271
625.000000	0.055374
624.000000	0.055470
623.000000	0.055523
622.000000	0.055525
621.000000	0.055502
620.000000	0.055486
619.000000	0.055494
618.000000	0.055508
617.000000	0.055486
616.000000	0.055397
615.000000	0.055257
614.000000	0.055116
613.000000	0.055020
612.000000	0.054976
611.000000	0.054960
610.000000	0.054937
609.000000	0.054887
608.000000	0.054810
607.000000	0.054725
606.000000	0.054652
605.000000	0.054592
604.000000	0.054534
603.000000	0.054475
602.000000	0.054429
601.000000	0.054418
600.000000	0.054448
599.000000	0.054504
598.000000	0.054554
597.000000	0.054565
596.000000	0.054529
595.000000	0.054471
594.000000	0.054435
593.000000	0.054443
592.000000	0.054474
591.000000	0.054491
590.000000	0.054485
589.000000	0.054496
588.000000	0.054571
587.000000	0.054710
586.000000	0.054854
585.000000	0.054947
584.000000	0.054991
583.000000	0.055029
582.000000	0.055086
581.000000	0.055153
580.000000	0.055218
579.000000	0.055291
578.000000	0.055381
577.000000	0.055484
576.000000	0.055598
575.000000	0.055733
574.000000	0.055891
573.000000	0.056043
572.000000	0.056149
571.000000	0.056210
570.000000	0.056270
569.000000	0.056379
568.000000	0.056543
567.000000	0.056724
566.000000	0.056880
565.000000	0.057011
564.000000	0.057149
563.000000	0.057317
562.000000	0.057506
561.000000	0.057696
560.000000	0.057890
559.000000	0.058101
558.000000	0.058326
557.000000	0.058549
556.000000	0.058761
555.000000	0.058975
554.000000	0.059201
553.000000	0.059445
552.000000	0.059716
551.000000	0.060014
550.000000	0.060322
549.000000	0.060606
548.000000	0.060868
547.000000	0.061152
546.000000	0.061499
545.000000	0.061897
544.000000	0.062294
543.000000	0.062656
542.000000	0.063001
541.000000	0.063375
540.000000	0.063791
539.000000	0.064209
538.000000	0.064576
537.000000	0.064873
536.000000	0.065133
535.000000	0.065407
534.000000	0.065722
533.000000	0.066052
532.000000	0.066340
531.000000	0.066559
530.000000	0.066751
529.000000	0.066992
528.000000	0.067309
527.000000	0.067654
526.000000	0.067958
525.000000	0.068199
524.000000	0.068405
523.000000	0.068612
522.000000	0.068833
521.000000	0.069054
520.000000	0.069243
519.000000	0.069382
518.000000	0.069490
517.000000	0.069611
516.000000	0.069755
515.000000	0.069888
514.000000	0.069982
513.000000	0.070045
512.000000	0.070090
511.000000	0.070113
510.000000	0.070110
509.000000	0.070092
508.000000	0.070075
507.000000	0.070072
506.000000	0.070094
505.000000	0.070144
504.000000	0.070196
503.000000	0.070214
502.000000	0.070200
501.000000	0.070195
500.000000	0.070225
499.000000	0.070274
498.000000	0.070308
497.000000	0.070297
496.000000	0.070221
495.000000	0.070094
494.000000	0.069983
493.000000	0.069957
492.000000	0.069996
491.000000	0.070021
490.000000	0.070003
489.000000	0.069994
488.000000	0.070032
487.000000	0.070074
486.000000	0.070062
485.000000	0.069999
484.000000	0.069920
483.000000	0.069847
482.000000	0.069806
481.000000	0.069843
480.000000	0.069954
479.000000	0.070054
478.000000	0.070060
477.000000	0.069994
476.000000	0.069937
475.000000	0.069923
474.000000	0.069917
473.000000	0.069878
472.000000	0.069807
471.000000	0.069739
470.000000	0.069719
469.000000	0.069776
468.000000	0.069873
467.000000	0.069914
466.000000	0.069851
465.000000	0.069743
464.000000	0.069679
463.000000	0.069661
462.000000	0.069620
461.000000	0.069497
460.000000	0.069295
459.000000	0.069067
458.000000	0.068920
457.000000	0.068937
456.000000	0.069053
455.000000	0.069093
454.000000	0.068967
453.000000	0.068776
452.000000	0.068676
451.000000	0.068683
450.000000	0.068657
449.000000	0.068498
448.000000	0.068230
447.000000	0.067913
446.000000	0.067569
445.000000	0.067197
444.000000	0.066810
443.000000	0.066417
442.000000	0.065999
441.000000	0.065548
440.000000	0.065092
439.000000	0.064626
438.000000	0.064097
437.000000	0.063485
436.000000	0.062902
435.000000	0.062509
434.000000	0.062316
433.000000	0.062153
432.000000	0.061842
431.000000	0.061343
430.000000	0.060758
429.000000	0.060238
428.000000	0.059889
427.000000	0.059709
426.000000	0.059567
425.000000	0.059315
424.000000	0.058966
423.000000	0.058662
422.000000	0.058456
421.000000	0.058229
420.000000	0.057891
419.000000	0.057592
418.000000	0.057544
417.000000	0.057659
416.000000	0.057714
415.000000	0.057636
414.000000	0.057463
413.000000	0.057241
412.000000	0.057018
411.000000	0.056842
410.000000	0.056700
409.000000	0.056504
408.000000	0.056221
407.000000	0.055944
406.000000	0.055762
405.000000	0.055629
404.000000	0.055485
403.000000	0.055368
402.000000	0.055283
401.000000	0.055068
400.000000	0.054563
