Created as New Dataset,Sample 528 By YargerLab Date Wednesday, June 04 2025
cm-1,A
4000.00,-0.0278
3999.00,-0.0278
3998.00,-0.0278
3997.00,-0.0278
3996.00,-0.0278
3995.00,-0.0278
3994.00,-0.0278
3993.00,-0.0278
3992.00,-0.0278
3991.00,-0.0278
3990.00,-0.0278
3989.00,-0.0278
3988.00,-0.0278
3987.00,-0.0278
3986.00,-0.0279
3985.00,-0.0279
3984.00,-0.0279
3983.00,-0.0279
3982.00,-0.0279
3981.00,-0.0279
3980.00,-0.0279
3979.00,-0.0279
3978.00,-0.0279
3977.00,-0.0279
3976.00,-0.0279
3975.00,-0.0280
3974.00,-0.0280
3973.00,-0.0280
3972.00,-0.0280
3971.00,-0.0280
3970.00,-0.0280
3969.00,-0.0280
3968.00,-0.0280
3967.00,-0.0280
3966.00,-0.0280
3965.00,-0.0280
3964.00,-0.0280
3963.00,-0.0281
3962.00,-0.0281
3961.00,-0.0281
3960.00,-0.0280
3959.00,-0.0280
3958.00,-0.0280
3957.00,-0.0280
3956.00,-0.0280
3955.00,-0.0280
3954.00,-0.0280
3953.00,-0.0280
3952.00,-0.0280
3951.00,-0.0281
3950.00,-0.0281
3949.00,-0.0281
3948.00,-0.0282
3947.00,-0.0282
3946.00,-0.0281
3945.00,-0.0282
3944.00,-0.0282
3943.00,-0.0282
3942.00,-0.0282
3941.00,-0.0282
3940.00,-0.0282
3939.00,-0.0282
3938.00,-0.0282
3937.00,-0.0282
3936.00,-0.0282
3935.00,-0.0282
3934.00,-0.0282
3933.00,-0.0282
3932.00,-0.0282
3931.00,-0.0282
3930.00,-0.0282
3929.00,-0.0282
3928.00,-0.0282
3927.00,-0.0282
3926.00,-0.0282
3925.00,-0.0282
3924.00,-0.0282
3923.00,-0.0283
3922.00,-0.0283
3921.00,-0.0283
3920.00,-0.0283
3919.00,-0.0283
3918.00,-0.0283
3917.00,-0.0283
3916.00,-0.0284
3915.00,-0.0284
3914.00,-0.0284
3913.00,-0.0283
3912.00,-0.0283
3911.00,-0.0283
3910.00,-0.0282
3909.00,-0.0282
3908.00,-0.0282
3907.00,-0.0282
3906.00,-0.0283
3905.00,-0.0283
3904.00,-0.0284
3903.00,-0.0284
3902.00,-0.0285
3901.00,-0.0286
3900.00,-0.0286
3899.00,-0.0286
3898.00,-0.0286
3897.00,-0.0285
3896.00,-0.0285
3895.00,-0.0285
3894.00,-0.0285
3893.00,-0.0285
3892.00,-0.0285
3891.00,-0.0285
3890.00,-0.0284
3889.00,-0.0284
3888.00,-0.0285
3887.00,-0.0286
3886.00,-0.0286
3885.00,-0.0286
3884.00,-0.0286
3883.00,-0.0286
3882.00,-0.0287
3881.00,-0.0287
3880.00,-0.0287
3879.00,-0.0286
3878.00,-0.0286
3877.00,-0.0286
3876.00,-0.0286
3875.00,-0.0286
3874.00,-0.0286
3873.00,-0.0285
3872.00,-0.0286
3871.00,-0.0286
3870.00,-0.0286
3869.00,-0.0286
3868.00,-0.0286
3867.00,-0.0287
3866.00,-0.0287
3865.00,-0.0287
3864.00,-0.0287
3863.00,-0.0287
3862.00,-0.0287
3861.00,-0.0287
3860.00,-0.0287
3859.00,-0.0287
3858.00,-0.0287
3857.00,-0.0287
3856.00,-0.0287
3855.00,-0.0287
3854.00,-0.0287
3853.00,-0.0287
3852.00,-0.0288
3851.00,-0.0288
3850.00,-0.0288
3849.00,-0.0288
3848.00,-0.0288
3847.00,-0.0287
3846.00,-0.0287
3845.00,-0.0287
3844.00,-0.0287
3843.00,-0.0287
3842.00,-0.0287
3841.00,-0.0288
3840.00,-0.0288
3839.00,-0.0288
3838.00,-0.0288
3837.00,-0.0288
3836.00,-0.0288
3835.00,-0.0288
3834.00,-0.0288
3833.00,-0.0288
3832.00,-0.0288
3831.00,-0.0288
3830.00,-0.0288
3829.00,-0.0288
3828.00,-0.0288
3827.00,-0.0288
3826.00,-0.0288
3825.00,-0.0287
3824.00,-0.0288
3823.00,-0.0288
3822.00,-0.0289
3821.00,-0.0289
3820.00,-0.0289
3819.00,-0.0289
3818.00,-0.0289
3817.00,-0.0290
3816.00,-0.0289
3815.00,-0.0289
3814.00,-0.0288
3813.00,-0.0289
3812.00,-0.0289
3811.00,-0.0288
3810.00,-0.0288
3809.00,-0.0288
3808.00,-0.0288
3807.00,-0.0288
3806.00,-0.0287
3805.00,-0.0288
3804.00,-0.0288
3803.00,-0.0289
3802.00,-0.0290
3801.00,-0.0289
3800.00,-0.0289
3799.00,-0.0290
3798.00,-0.0290
3797.00,-0.0290
3796.00,-0.0290
3795.00,-0.0290
3794.00,-0.0289
3793.00,-0.0290
3792.00,-0.0290
3791.00,-0.0289
3790.00,-0.0289
3789.00,-0.0289
3788.00,-0.0289
3787.00,-0.0289
3786.00,-0.0289
3785.00,-0.0289
3784.00,-0.0289
3783.00,-0.0289
3782.00,-0.0289
3781.00,-0.0289
3780.00,-0.0289
3779.00,-0.0289
3778.00,-0.0289
3777.00,-0.0289
3776.00,-0.0289
3775.00,-0.0289
3774.00,-0.0289
3773.00,-0.0289
3772.00,-0.0289
3771.00,-0.0289
3770.00,-0.0289
3769.00,-0.0289
3768.00,-0.0289
3767.00,-0.0289
3766.00,-0.0290
3765.00,-0.0290
3764.00,-0.0289
3763.00,-0.0289
3762.00,-0.0289
3761.00,-0.0290
3760.00,-0.0290
3759.00,-0.0290
3758.00,-0.0290
3757.00,-0.0290
3756.00,-0.0290
3755.00,-0.0290
3754.00,-0.0290
3753.00,-0.0290
3752.00,-0.0290
3751.00,-0.0290
3750.00,-0.0292
3749.00,-0.0292
3748.00,-0.0293
3747.00,-0.0293
3746.00,-0.0294
3745.00,-0.0294
3744.00,-0.0293
3743.00,-0.0292
3742.00,-0.0292
3741.00,-0.0292
3740.00,-0.0292
3739.00,-0.0291
3738.00,-0.0291
3737.00,-0.0291
3736.00,-0.0291
3735.00,-0.0291
3734.00,-0.0292
3733.00,-0.0293
3732.00,-0.0293
3731.00,-0.0292
3730.00,-0.0292
3729.00,-0.0292
3728.00,-0.0291
3727.00,-0.0291
3726.00,-0.0290
3725.00,-0.0290
3724.00,-0.0290
3723.00,-0.0291
3722.00,-0.0291
3721.00,-0.0291
3720.00,-0.0291
3719.00,-0.0291
3718.00,-0.0291
3717.00,-0.0291
3716.00,-0.0291
3715.00,-0.0291
3714.00,-0.0291
3713.00,-0.0291
3712.00,-0.0291
3711.00,-0.0291
3710.00,-0.0291
3709.00,-0.0291
3708.00,-0.0291
3707.00,-0.0291
3706.00,-0.0290
3705.00,-0.0290
3704.00,-0.0290
3703.00,-0.0290
3702.00,-0.0290
3701.00,-0.0290
3700.00,-0.0289
3699.00,-0.0289
3698.00,-0.0289
3697.00,-0.0289
3696.00,-0.0288
3695.00,-0.0288
3694.00,-0.0288
3693.00,-0.0289
3692.00,-0.0289
3691.00,-0.0289
3690.00,-0.0290
3689.00,-0.0290
3688.00,-0.0290
3687.00,-0.0290
3686.00,-0.0290
3685.00,-0.0290
3684.00,-0.0289
3683.00,-0.0289
3682.00,-0.0289
3681.00,-0.0289
3680.00,-0.0290
3679.00,-0.0290
3678.00,-0.0290
3677.00,-0.0291
3676.00,-0.0292
3675.00,-0.0292
3674.00,-0.0293
3673.00,-0.0293
3672.00,-0.0293
3671.00,-0.0293
3670.00,-0.0292
3669.00,-0.0291
3668.00,-0.0291
3667.00,-0.0291
3666.00,-0.0291
3665.00,-0.0291
3664.00,-0.0290
3663.00,-0.0290
3662.00,-0.0289
3661.00,-0.0289
3660.00,-0.0289
3659.00,-0.0289
3658.00,-0.0289
3657.00,-0.0288
3656.00,-0.0287
3655.00,-0.0287
3654.00,-0.0287
3653.00,-0.0287
3652.00,-0.0287
3651.00,-0.0287
3650.00,-0.0287
3649.00,-0.0287
3648.00,-0.0287
3647.00,-0.0287
3646.00,-0.0286
3645.00,-0.0286
3644.00,-0.0285
3643.00,-0.0284
3642.00,-0.0283
3641.00,-0.0282
3640.00,-0.0281
3639.00,-0.0280
3638.00,-0.0279
3637.00,-0.0279
3636.00,-0.0278
3635.00,-0.0277
3634.00,-0.0276
3633.00,-0.0275
3632.00,-0.0274
3631.00,-0.0274
3630.00,-0.0274
3629.00,-0.0274
3628.00,-0.0273
3627.00,-0.0273
3626.00,-0.0272
3625.00,-0.0272
3624.00,-0.0271
3623.00,-0.0270
3622.00,-0.0270
3621.00,-0.0270
3620.00,-0.0270
3619.00,-0.0269
3618.00,-0.0268
3617.00,-0.0268
3616.00,-0.0267
3615.00,-0.0267
3614.00,-0.0267
3613.00,-0.0266
3612.00,-0.0266
3611.00,-0.0265
3610.00,-0.0265
3609.00,-0.0264
3608.00,-0.0263
3607.00,-0.0263
3606.00,-0.0262
3605.00,-0.0262
3604.00,-0.0261
3603.00,-0.0261
3602.00,-0.0260
3601.00,-0.0260
3600.00,-0.0259
3599.00,-0.0259
3598.00,-0.0258
3597.00,-0.0258
3596.00,-0.0258
3595.00,-0.0257
3594.00,-0.0257
3593.00,-0.0256
3592.00,-0.0256
3591.00,-0.0256
3590.00,-0.0256
3589.00,-0.0256
3588.00,-0.0255
3587.00,-0.0255
3586.00,-0.0255
3585.00,-0.0254
3584.00,-0.0254
3583.00,-0.0253
3582.00,-0.0253
3581.00,-0.0252
3580.00,-0.0251
3579.00,-0.0251
3578.00,-0.0250
3577.00,-0.0250
3576.00,-0.0250
3575.00,-0.0249
3574.00,-0.0249
3573.00,-0.0248
3572.00,-0.0248
3571.00,-0.0248
3570.00,-0.0248
3569.00,-0.0248
3568.00,-0.0248
3567.00,-0.0248
3566.00,-0.0248
3565.00,-0.0248
3564.00,-0.0247
3563.00,-0.0247
3562.00,-0.0246
3561.00,-0.0245
3560.00,-0.0245
3559.00,-0.0244
3558.00,-0.0244
3557.00,-0.0243
3556.00,-0.0243
3555.00,-0.0243
3554.00,-0.0243
3553.00,-0.0243
3552.00,-0.0243
3551.00,-0.0242
3550.00,-0.0242
3549.00,-0.0242
3548.00,-0.0242
3547.00,-0.0242
3546.00,-0.0242
3545.00,-0.0242
3544.00,-0.0242
3543.00,-0.0242
3542.00,-0.0242
3541.00,-0.0241
3540.00,-0.0241
3539.00,-0.0240
3538.00,-0.0240
3537.00,-0.0239
3536.00,-0.0239
3535.00,-0.0239
3534.00,-0.0239
3533.00,-0.0239
3532.00,-0.0239
3531.00,-0.0240
3530.00,-0.0240
3529.00,-0.0240
3528.00,-0.0240
3527.00,-0.0240
3526.00,-0.0239
3525.00,-0.0239
3524.00,-0.0239
3523.00,-0.0239
3522.00,-0.0239
3521.00,-0.0239
3520.00,-0.0240
3519.00,-0.0240
3518.00,-0.0240
3517.00,-0.0240
3516.00,-0.0240
3515.00,-0.0240
3514.00,-0.0240
3513.00,-0.0240
3512.00,-0.0240
3511.00,-0.0240
3510.00,-0.0240
3509.00,-0.0240
3508.00,-0.0240
3507.00,-0.0240
3506.00,-0.0240
3505.00,-0.0240
3504.00,-0.0239
3503.00,-0.0239
3502.00,-0.0239
3501.00,-0.0240
3500.00,-0.0240
3499.00,-0.0240
3498.00,-0.0240
3497.00,-0.0240
3496.00,-0.0240
3495.00,-0.0240
3494.00,-0.0240
3493.00,-0.0240
3492.00,-0.0240
3491.00,-0.0240
3490.00,-0.0240
3489.00,-0.0240
3488.00,-0.0240
3487.00,-0.0240
3486.00,-0.0240
3485.00,-0.0240
3484.00,-0.0240
3483.00,-0.0240
3482.00,-0.0240
3481.00,-0.0240
3480.00,-0.0240
3479.00,-0.0240
3478.00,-0.0241
3477.00,-0.0241
3476.00,-0.0241
3475.00,-0.0241
3474.00,-0.0240
3473.00,-0.0240
3472.00,-0.0240
3471.00,-0.0240
3470.00,-0.0240
3469.00,-0.0240
3468.00,-0.0240
3467.00,-0.0240
3466.00,-0.0240
3465.00,-0.0240
3464.00,-0.0241
3463.00,-0.0241
3462.00,-0.0241
3461.00,-0.0241
3460.00,-0.0241
3459.00,-0.0241
3458.00,-0.0241
3457.00,-0.0241
3456.00,-0.0242
3455.00,-0.0242
3454.00,-0.0242
3453.00,-0.0242
3452.00,-0.0242
3451.00,-0.0242
3450.00,-0.0242
3449.00,-0.0242
3448.00,-0.0242
3447.00,-0.0242
3446.00,-0.0242
3445.00,-0.0242
3444.00,-0.0241
3443.00,-0.0241
3442.00,-0.0241
3441.00,-0.0242
3440.00,-0.0242
3439.00,-0.0242
3438.00,-0.0242
3437.00,-0.0242
3436.00,-0.0242
3435.00,-0.0242
3434.00,-0.0242
3433.00,-0.0242
3432.00,-0.0242
3431.00,-0.0243
3430.00,-0.0243
3429.00,-0.0243
3428.00,-0.0243
3427.00,-0.0243
3426.00,-0.0243
3425.00,-0.0243
3424.00,-0.0243
3423.00,-0.0244
3422.00,-0.0244
3421.00,-0.0244
3420.00,-0.0244
3419.00,-0.0244
3418.00,-0.0244
3417.00,-0.0245
3416.00,-0.0245
3415.00,-0.0245
3414.00,-0.0245
3413.00,-0.0245
3412.00,-0.0245
3411.00,-0.0246
3410.00,-0.0246
3409.00,-0.0246
3408.00,-0.0246
3407.00,-0.0246
3406.00,-0.0246
3405.00,-0.0246
3404.00,-0.0246
3403.00,-0.0246
3402.00,-0.0246
3401.00,-0.0247
3400.00,-0.0247
3399.00,-0.0248
3398.00,-0.0248
3397.00,-0.0248
3396.00,-0.0248
3395.00,-0.0248
3394.00,-0.0248
3393.00,-0.0248
3392.00,-0.0248
3391.00,-0.0248
3390.00,-0.0249
3389.00,-0.0249
3388.00,-0.0249
3387.00,-0.0250
3386.00,-0.0250
3385.00,-0.0250
3384.00,-0.0251
3383.00,-0.0251
3382.00,-0.0251
3381.00,-0.0251
3380.00,-0.0251
3379.00,-0.0251
3378.00,-0.0251
3377.00,-0.0251
3376.00,-0.0251
3375.00,-0.0252
3374.00,-0.0252
3373.00,-0.0252
3372.00,-0.0252
3371.00,-0.0252
3370.00,-0.0252
3369.00,-0.0252
3368.00,-0.0253
3367.00,-0.0253
3366.00,-0.0253
3365.00,-0.0254
3364.00,-0.0254
3363.00,-0.0255
3362.00,-0.0255
3361.00,-0.0255
3360.00,-0.0255
3359.00,-0.0255
3358.00,-0.0255
3357.00,-0.0255
3356.00,-0.0255
3355.00,-0.0255
3354.00,-0.0255
3353.00,-0.0255
3352.00,-0.0256
3351.00,-0.0256
3350.00,-0.0257
3349.00,-0.0257
3348.00,-0.0257
3347.00,-0.0257
3346.00,-0.0257
3345.00,-0.0257
3344.00,-0.0257
3343.00,-0.0258
3342.00,-0.0258
3341.00,-0.0258
3340.00,-0.0258
3339.00,-0.0258
3338.00,-0.0258
3337.00,-0.0259
3336.00,-0.0259
3335.00,-0.0260
3334.00,-0.0260
3333.00,-0.0260
3332.00,-0.0260
3331.00,-0.0260
3330.00,-0.0260
3329.00,-0.0261
3328.00,-0.0261
3327.00,-0.0261
3326.00,-0.0262
3325.00,-0.0262
3324.00,-0.0262
3323.00,-0.0262
3322.00,-0.0262
3321.00,-0.0262
3320.00,-0.0262
3319.00,-0.0262
3318.00,-0.0262
3317.00,-0.0262
3316.00,-0.0262
3315.00,-0.0263
3314.00,-0.0263
3313.00,-0.0263
3312.00,-0.0262
3311.00,-0.0262
3310.00,-0.0262
3309.00,-0.0262
3308.00,-0.0262
3307.00,-0.0262
3306.00,-0.0262
3305.00,-0.0262
3304.00,-0.0262
3303.00,-0.0261
3302.00,-0.0261
3301.00,-0.0261
3300.00,-0.0261
3299.00,-0.0261
3298.00,-0.0262
3297.00,-0.0262
3296.00,-0.0263
3295.00,-0.0263
3294.00,-0.0264
3293.00,-0.0265
3292.00,-0.0266
3291.00,-0.0266
3290.00,-0.0267
3289.00,-0.0267
3288.00,-0.0267
3287.00,-0.0268
3286.00,-0.0268
3285.00,-0.0269
3284.00,-0.0269
3283.00,-0.0270
3282.00,-0.0271
3281.00,-0.0271
3280.00,-0.0271
3279.00,-0.0272
3278.00,-0.0272
3277.00,-0.0273
3276.00,-0.0274
3275.00,-0.0274
3274.00,-0.0275
3273.00,-0.0275
3272.00,-0.0276
3271.00,-0.0276
3270.00,-0.0276
3269.00,-0.0276
3268.00,-0.0277
3267.00,-0.0277
3266.00,-0.0277
3265.00,-0.0278
3264.00,-0.0278
3263.00,-0.0279
3262.00,-0.0280
3261.00,-0.0280
3260.00,-0.0281
3259.00,-0.0281
3258.00,-0.0281
3257.00,-0.0281
3256.00,-0.0282
3255.00,-0.0282
3254.00,-0.0283
3253.00,-0.0283
3252.00,-0.0284
3251.00,-0.0284
3250.00,-0.0285
3249.00,-0.0285
3248.00,-0.0285
3247.00,-0.0286
3246.00,-0.0286
3245.00,-0.0286
3244.00,-0.0287
3243.00,-0.0287
3242.00,-0.0287
3241.00,-0.0288
3240.00,-0.0288
3239.00,-0.0288
3238.00,-0.0288
3237.00,-0.0289
3236.00,-0.0289
3235.00,-0.0289
3234.00,-0.0289
3233.00,-0.0289
3232.00,-0.0289
3231.00,-0.0290
3230.00,-0.0290
3229.00,-0.0291
3228.00,-0.0291
3227.00,-0.0291
3226.00,-0.0291
3225.00,-0.0292
3224.00,-0.0292
3223.00,-0.0292
3222.00,-0.0292
3221.00,-0.0293
3220.00,-0.0293
3219.00,-0.0294
3218.00,-0.0294
3217.00,-0.0294
3216.00,-0.0294
3215.00,-0.0294
3214.00,-0.0295
3213.00,-0.0295
3212.00,-0.0295
3211.00,-0.0295
3210.00,-0.0296
3209.00,-0.0296
3208.00,-0.0296
3207.00,-0.0297
3206.00,-0.0297
3205.00,-0.0297
3204.00,-0.0298
3203.00,-0.0298
3202.00,-0.0299
3201.00,-0.0299
3200.00,-0.0299
3199.00,-0.0299
3198.00,-0.0300
3197.00,-0.0300
3196.00,-0.0300
3195.00,-0.0300
3194.00,-0.0301
3193.00,-0.0301
3192.00,-0.0301
3191.00,-0.0301
3190.00,-0.0302
3189.00,-0.0302
3188.00,-0.0302
3187.00,-0.0303
3186.00,-0.0303
3185.00,-0.0303
3184.00,-0.0304
3183.00,-0.0304
3182.00,-0.0304
3181.00,-0.0304
3180.00,-0.0305
3179.00,-0.0305
3178.00,-0.0305
3177.00,-0.0306
3176.00,-0.0306
3175.00,-0.0306
3174.00,-0.0306
3173.00,-0.0307
3172.00,-0.0307
3171.00,-0.0307
3170.00,-0.0307
3169.00,-0.0308
3168.00,-0.0308
3167.00,-0.0308
3166.00,-0.0308
3165.00,-0.0308
3164.00,-0.0308
3163.00,-0.0308
3162.00,-0.0308
3161.00,-0.0308
3160.00,-0.0308
3159.00,-0.0308
3158.00,-0.0309
3157.00,-0.0309
3156.00,-0.0310
3155.00,-0.0311
3154.00,-0.0311
3153.00,-0.0312
3152.00,-0.0312
3151.00,-0.0312
3150.00,-0.0311
3149.00,-0.0311
3148.00,-0.0311
3147.00,-0.0311
3146.00,-0.0311
3145.00,-0.0311
3144.00,-0.0311
3143.00,-0.0311
3142.00,-0.0312
3141.00,-0.0313
3140.00,-0.0313
3139.00,-0.0314
3138.00,-0.0314
3137.00,-0.0314
3136.00,-0.0314
3135.00,-0.0314
3134.00,-0.0314
3133.00,-0.0314
3132.00,-0.0314
3131.00,-0.0314
3130.00,-0.0314
3129.00,-0.0314
3128.00,-0.0315
3127.00,-0.0315
3126.00,-0.0315
3125.00,-0.0315
3124.00,-0.0315
3123.00,-0.0315
3122.00,-0.0316
3121.00,-0.0316
3120.00,-0.0316
3119.00,-0.0316
3118.00,-0.0316
3117.00,-0.0316
3116.00,-0.0316
3115.00,-0.0316
3114.00,-0.0316
3113.00,-0.0316
3112.00,-0.0316
3111.00,-0.0316
3110.00,-0.0316
3109.00,-0.0316
3108.00,-0.0316
3107.00,-0.0316
3106.00,-0.0316
3105.00,-0.0315
3104.00,-0.0315
3103.00,-0.0315
3102.00,-0.0315
3101.00,-0.0315
3100.00,-0.0315
3099.00,-0.0315
3098.00,-0.0314
3097.00,-0.0313
3096.00,-0.0313
3095.00,-0.0312
3094.00,-0.0312
3093.00,-0.0311
3092.00,-0.0311
3091.00,-0.0310
3090.00,-0.0309
3089.00,-0.0308
3088.00,-0.0307
3087.00,-0.0306
3086.00,-0.0305
3085.00,-0.0303
3084.00,-0.0302
3083.00,-0.0301
3082.00,-0.0300
3081.00,-0.0298
3080.00,-0.0297
3079.00,-0.0296
3078.00,-0.0295
3077.00,-0.0294
3076.00,-0.0294
3075.00,-0.0293
3074.00,-0.0293
3073.00,-0.0293
3072.00,-0.0294
3071.00,-0.0295
3070.00,-0.0296
3069.00,-0.0297
3068.00,-0.0298
3067.00,-0.0299
3066.00,-0.0300
3065.00,-0.0301
3064.00,-0.0301
3063.00,-0.0302
3062.00,-0.0302
3061.00,-0.0302
3060.00,-0.0302
3059.00,-0.0302
3058.00,-0.0302
3057.00,-0.0302
3056.00,-0.0301
3055.00,-0.0300
3054.00,-0.0299
3053.00,-0.0297
3052.00,-0.0295
3051.00,-0.0293
3050.00,-0.0291
3049.00,-0.0288
3048.00,-0.0285
3047.00,-0.0282
3046.00,-0.0279
3045.00,-0.0276
3044.00,-0.0272
3043.00,-0.0268
3042.00,-0.0265
3041.00,-0.0261
3040.00,-0.0257
3039.00,-0.0254
3038.00,-0.0251
3037.00,-0.0249
3036.00,-0.0246
3035.00,-0.0244
3034.00,-0.0242
3033.00,-0.0240
3032.00,-0.0239
3031.00,-0.0237
3030.00,-0.0236
3029.00,-0.0234
3028.00,-0.0233
3027.00,-0.0232
3026.00,-0.0231
3025.00,-0.0229
3024.00,-0.0228
3023.00,-0.0226
3022.00,-0.0224
3021.00,-0.0222
3020.00,-0.0220
3019.00,-0.0218
3018.00,-0.0216
3017.00,-0.0213
3016.00,-0.0211
3015.00,-0.0209
3014.00,-0.0208
3013.00,-0.0207
3012.00,-0.0206
3011.00,-0.0206
3010.00,-0.0206
3009.00,-0.0207
3008.00,-0.0208
3007.00,-0.0210
3006.00,-0.0211
3005.00,-0.0213
3004.00,-0.0215
3003.00,-0.0216
3002.00,-0.0218
3001.00,-0.0219
3000.00,-0.0220
2999.00,-0.0220
2998.00,-0.0220
2997.00,-0.0219
2996.00,-0.0218
2995.00,-0.0216
2994.00,-0.0213
2993.00,-0.0211
2992.00,-0.0208
2991.00,-0.0205
2990.00,-0.0203
2989.00,-0.0201
2988.00,-0.0199
2987.00,-0.0199
2986.00,-0.0200
2985.00,-0.0203
2984.00,-0.0209
2983.00,-0.0215
2982.00,-0.0219
2981.00,-0.0218
2980.00,-0.0214
2979.00,-0.0207
2978.00,-0.0199
2977.00,-0.0191
2976.00,-0.0183
2975.00,-0.0177
2974.00,-0.0173
2973.00,-0.0168
2972.00,-0.0162
2971.00,-0.0155
2970.00,-0.0144
2969.00,-0.0132
2968.00,-0.0119
2967.00,-0.0106
2966.00,-0.0092
2965.00,-0.0078
2964.00,-0.0064
2963.00,-0.0049
2962.00,-0.0034
2961.00,-0.0019
2960.00,-0.0003
2959.00,0.0011
2958.00,0.0025
2957.00,0.0038
2956.00,0.0050
2955.00,0.0060
2954.00,0.0070
2953.00,0.0079
2952.00,0.0088
2951.00,0.0098
2950.00,0.0108
2949.00,0.0120
2948.00,0.0134
2947.00,0.0150
2946.00,0.0167
2945.00,0.0184
2944.00,0.0202
2943.00,0.0220
2942.00,0.0238
2941.00,0.0256
2940.00,0.0274
2939.00,0.0293
2938.00,0.0313
2937.00,0.0333
2936.00,0.0354
2935.00,0.0375
2934.00,0.0396
2933.00,0.0418
2932.00,0.0440
2931.00,0.0463
2930.00,0.0487
2929.00,0.0512
2928.00,0.0537
2927.00,0.0565
2926.00,0.0594
2925.00,0.0625
2924.00,0.0657
2923.00,0.0691
2922.00,0.0724
2921.00,0.0756
2920.00,0.0785
2919.00,0.0808
2918.00,0.0821
2917.00,0.0820
2916.00,0.0802
2915.00,0.0766
2914.00,0.0715
2913.00,0.0656
2912.00,0.0595
2911.00,0.0538
2910.00,0.0487
2909.00,0.0444
2908.00,0.0406
2907.00,0.0374
2906.00,0.0345
2905.00,0.0319
2904.00,0.0295
2903.00,0.0272
2902.00,0.0251
2901.00,0.0230
2900.00,0.0210
2899.00,0.0190
2898.00,0.0171
2897.00,0.0152
2896.00,0.0133
2895.00,0.0115
2894.00,0.0098
2893.00,0.0081
2892.00,0.0064
2891.00,0.0048
2890.00,0.0033
2889.00,0.0020
2888.00,0.0007
2887.00,-0.0005
2886.00,-0.0017
2885.00,-0.0027
2884.00,-0.0036
2883.00,-0.0043
2882.00,-0.0048
2881.00,-0.0052
2880.00,-0.0055
2879.00,-0.0056
2878.00,-0.0056
2877.00,-0.0055
2876.00,-0.0054
2875.00,-0.0052
2874.00,-0.0051
2873.00,-0.0051
2872.00,-0.0050
2871.00,-0.0050
2870.00,-0.0048
2869.00,-0.0046
2868.00,-0.0041
2867.00,-0.0034
2866.00,-0.0025
2865.00,-0.0013
2864.00,0.0000
2863.00,0.0015
2862.00,0.0032
2861.00,0.0049
2860.00,0.0068
2859.00,0.0087
2858.00,0.0108
2857.00,0.0131
2856.00,0.0158
2855.00,0.0189
2854.00,0.0226
2853.00,0.0267
2852.00,0.0308
2851.00,0.0343
2850.00,0.0364
2849.00,0.0364
2848.00,0.0343
2847.00,0.0305
2846.00,0.0258
2845.00,0.0210
2844.00,0.0164
2843.00,0.0124
2842.00,0.0087
2841.00,0.0054
2840.00,0.0024
2839.00,-0.0004
2838.00,-0.0030
2837.00,-0.0055
2836.00,-0.0079
2835.00,-0.0102
2834.00,-0.0123
2833.00,-0.0143
2832.00,-0.0163
2831.00,-0.0180
2830.00,-0.0197
2829.00,-0.0211
2828.00,-0.0225
2827.00,-0.0236
2826.00,-0.0247
2825.00,-0.0256
2824.00,-0.0264
2823.00,-0.0271
2822.00,-0.0277
2821.00,-0.0282
2820.00,-0.0286
2819.00,-0.0290
2818.00,-0.0294
2817.00,-0.0297
2816.00,-0.0300
2815.00,-0.0302
2814.00,-0.0305
2813.00,-0.0307
2812.00,-0.0309
2811.00,-0.0311
2810.00,-0.0313
2809.00,-0.0314
2808.00,-0.0316
2807.00,-0.0317
2806.00,-0.0318
2805.00,-0.0319
2804.00,-0.0320
2803.00,-0.0322
2802.00,-0.0323
2801.00,-0.0324
2800.00,-0.0325
2799.00,-0.0326
2798.00,-0.0327
2797.00,-0.0328
2796.00,-0.0329
2795.00,-0.0330
2794.00,-0.0330
2793.00,-0.0331
2792.00,-0.0332
2791.00,-0.0332
2790.00,-0.0333
2789.00,-0.0334
2788.00,-0.0335
2787.00,-0.0335
2786.00,-0.0336
2785.00,-0.0337
2784.00,-0.0337
2783.00,-0.0338
2782.00,-0.0338
2781.00,-0.0339
2780.00,-0.0340
2779.00,-0.0340
2778.00,-0.0341
2777.00,-0.0342
2776.00,-0.0342
2775.00,-0.0343
2774.00,-0.0343
2773.00,-0.0344
2772.00,-0.0344
2771.00,-0.0345
2770.00,-0.0346
2769.00,-0.0346
2768.00,-0.0346
2767.00,-0.0347
2766.00,-0.0347
2765.00,-0.0347
2764.00,-0.0347
2763.00,-0.0347
2762.00,-0.0348
2761.00,-0.0348
2760.00,-0.0348
2759.00,-0.0349
2758.00,-0.0349
2757.00,-0.0349
2756.00,-0.0350
2755.00,-0.0350
2754.00,-0.0350
2753.00,-0.0350
2752.00,-0.0350
2751.00,-0.0351
2750.00,-0.0351
2749.00,-0.0351
2748.00,-0.0351
2747.00,-0.0351
2746.00,-0.0351
2745.00,-0.0352
2744.00,-0.0352
2743.00,-0.0352
2742.00,-0.0352
2741.00,-0.0352
2740.00,-0.0352
2739.00,-0.0352
2738.00,-0.0352
2737.00,-0.0352
2736.00,-0.0352
2735.00,-0.0352
2734.00,-0.0353
2733.00,-0.0353
2732.00,-0.0353
2731.00,-0.0353
2730.00,-0.0353
2729.00,-0.0353
2728.00,-0.0354
2727.00,-0.0354
2726.00,-0.0355
2725.00,-0.0355
2724.00,-0.0355
2723.00,-0.0356
2722.00,-0.0356
2721.00,-0.0356
2720.00,-0.0356
2719.00,-0.0356
2718.00,-0.0356
2717.00,-0.0356
2716.00,-0.0356
2715.00,-0.0356
2714.00,-0.0356
2713.00,-0.0357
2712.00,-0.0357
2711.00,-0.0357
2710.00,-0.0357
2709.00,-0.0358
2708.00,-0.0358
2707.00,-0.0358
2706.00,-0.0358
2705.00,-0.0358
2704.00,-0.0358
2703.00,-0.0359
2702.00,-0.0359
2701.00,-0.0359
2700.00,-0.0359
2699.00,-0.0359
2698.00,-0.0359
2697.00,-0.0359
2696.00,-0.0359
2695.00,-0.0359
2694.00,-0.0359
2693.00,-0.0359
2692.00,-0.0359
2691.00,-0.0359
2690.00,-0.0359
2689.00,-0.0359
2688.00,-0.0359
2687.00,-0.0359
2686.00,-0.0360
2685.00,-0.0360
2684.00,-0.0360
2683.00,-0.0360
2682.00,-0.0360
2681.00,-0.0360
2680.00,-0.0360
2679.00,-0.0360
2678.00,-0.0360
2677.00,-0.0360
2676.00,-0.0360
2675.00,-0.0360
2674.00,-0.0360
2673.00,-0.0360
2672.00,-0.0360
2671.00,-0.0360
2670.00,-0.0361
2669.00,-0.0361
2668.00,-0.0361
2667.00,-0.0361
2666.00,-0.0362
2665.00,-0.0362
2664.00,-0.0362
2663.00,-0.0362
2662.00,-0.0362
2661.00,-0.0362
2660.00,-0.0362
2659.00,-0.0363
2658.00,-0.0363
2657.00,-0.0363
2656.00,-0.0363
2655.00,-0.0363
2654.00,-0.0363
2653.00,-0.0363
2652.00,-0.0363
2651.00,-0.0363
2650.00,-0.0363
2649.00,-0.0363
2648.00,-0.0363
2647.00,-0.0364
2646.00,-0.0364
2645.00,-0.0364
2644.00,-0.0364
2643.00,-0.0364
2642.00,-0.0364
2641.00,-0.0364
2640.00,-0.0364
2639.00,-0.0364
2638.00,-0.0364
2637.00,-0.0364
2636.00,-0.0364
2635.00,-0.0365
2634.00,-0.0365
2633.00,-0.0365
2632.00,-0.0365
2631.00,-0.0365
2630.00,-0.0365
2629.00,-0.0365
2628.00,-0.0365
2627.00,-0.0365
2626.00,-0.0365
2625.00,-0.0365
2624.00,-0.0365
2623.00,-0.0365
2622.00,-0.0365
2621.00,-0.0366
2620.00,-0.0366
2619.00,-0.0366
2618.00,-0.0366
2617.00,-0.0367
2616.00,-0.0367
2615.00,-0.0367
2614.00,-0.0367
2613.00,-0.0367
2612.00,-0.0367
2611.00,-0.0367
2610.00,-0.0367
2609.00,-0.0367
2608.00,-0.0368
2607.00,-0.0368
2606.00,-0.0368
2605.00,-0.0368
2604.00,-0.0368
2603.00,-0.0368
2602.00,-0.0368
2601.00,-0.0368
2600.00,-0.0368
2599.00,-0.0368
2598.00,-0.0369
2597.00,-0.0369
2596.00,-0.0369
2595.00,-0.0370
2594.00,-0.0370
2593.00,-0.0370
2592.00,-0.0370
2591.00,-0.0370
2590.00,-0.0370
2589.00,-0.0370
2588.00,-0.0371
2587.00,-0.0371
2586.00,-0.0371
2585.00,-0.0371
2584.00,-0.0371
2583.00,-0.0371
2582.00,-0.0372
2581.00,-0.0372
2580.00,-0.0372
2579.00,-0.0372
2578.00,-0.0372
2577.00,-0.0372
2576.00,-0.0372
2575.00,-0.0372
2574.00,-0.0372
2573.00,-0.0372
2572.00,-0.0372
2571.00,-0.0372
2570.00,-0.0372
2569.00,-0.0372
2568.00,-0.0372
2567.00,-0.0373
2566.00,-0.0373
2565.00,-0.0373
2564.00,-0.0373
2563.00,-0.0373
2562.00,-0.0373
2561.00,-0.0373
2560.00,-0.0373
2559.00,-0.0373
2558.00,-0.0373
2557.00,-0.0373
2556.00,-0.0373
2555.00,-0.0374
2554.00,-0.0374
2553.00,-0.0374
2552.00,-0.0374
2551.00,-0.0375
2550.00,-0.0375
2549.00,-0.0375
2548.00,-0.0375
2547.00,-0.0375
2546.00,-0.0375
2545.00,-0.0375
2544.00,-0.0375
2543.00,-0.0374
2542.00,-0.0374
2541.00,-0.0374
2540.00,-0.0374
2539.00,-0.0374
2538.00,-0.0375
2537.00,-0.0375
2536.00,-0.0375
2535.00,-0.0375
2534.00,-0.0375
2533.00,-0.0375
2532.00,-0.0375
2531.00,-0.0375
2530.00,-0.0375
2529.00,-0.0375
2528.00,-0.0375
2527.00,-0.0375
2526.00,-0.0375
2525.00,-0.0375
2524.00,-0.0375
2523.00,-0.0376
2522.00,-0.0376
2521.00,-0.0376
2520.00,-0.0377
2519.00,-0.0377
2518.00,-0.0377
2517.00,-0.0377
2516.00,-0.0377
2515.00,-0.0377
2514.00,-0.0377
2513.00,-0.0377
2512.00,-0.0377
2511.00,-0.0378
2510.00,-0.0378
2509.00,-0.0378
2508.00,-0.0378
2507.00,-0.0378
2506.00,-0.0378
2505.00,-0.0378
2504.00,-0.0379
2503.00,-0.0379
2502.00,-0.0379
2501.00,-0.0379
2500.00,-0.0379
2499.00,-0.0379
2498.00,-0.0379
2497.00,-0.0379
2496.00,-0.0379
2495.00,-0.0379
2494.00,-0.0379
2493.00,-0.0379
2492.00,-0.0379
2491.00,-0.0379
2490.00,-0.0380
2489.00,-0.0380
2488.00,-0.0380
2487.00,-0.0380
2486.00,-0.0380
2485.00,-0.0380
2484.00,-0.0380
2483.00,-0.0380
2482.00,-0.0381
2481.00,-0.0381
2480.00,-0.0381
2479.00,-0.0381
2478.00,-0.0381
2477.00,-0.0381
2476.00,-0.0381
2475.00,-0.0382
2474.00,-0.0382
2473.00,-0.0383
2472.00,-0.0383
2471.00,-0.0382
2470.00,-0.0382
2469.00,-0.0382
2468.00,-0.0383
2467.00,-0.0383
2466.00,-0.0382
2465.00,-0.0382
2464.00,-0.0382
2463.00,-0.0382
2462.00,-0.0383
2461.00,-0.0383
2460.00,-0.0383
2459.00,-0.0383
2458.00,-0.0383
2457.00,-0.0384
2456.00,-0.0384
2455.00,-0.0384
2454.00,-0.0384
2453.00,-0.0384
2452.00,-0.0384
2451.00,-0.0384
2450.00,-0.0384
2449.00,-0.0384
2448.00,-0.0384
2447.00,-0.0384
2446.00,-0.0385
2445.00,-0.0385
2444.00,-0.0385
2443.00,-0.0385
2442.00,-0.0385
2441.00,-0.0385
2440.00,-0.0385
2439.00,-0.0385
2438.00,-0.0385
2437.00,-0.0385
2436.00,-0.0385
2435.00,-0.0385
2434.00,-0.0385
2433.00,-0.0385
2432.00,-0.0385
2431.00,-0.0385
2430.00,-0.0385
2429.00,-0.0385
2428.00,-0.0385
2427.00,-0.0385
2426.00,-0.0385
2425.00,-0.0385
2424.00,-0.0385
2423.00,-0.0385
2422.00,-0.0386
2421.00,-0.0386
2420.00,-0.0386
2419.00,-0.0386
2418.00,-0.0386
2417.00,-0.0386
2416.00,-0.0386
2415.00,-0.0386
2414.00,-0.0386
2413.00,-0.0386
2412.00,-0.0387
2411.00,-0.0386
2410.00,-0.0386
2409.00,-0.0386
2408.00,-0.0386
2407.00,-0.0387
2406.00,-0.0387
2405.00,-0.0387
2404.00,-0.0387
2403.00,-0.0387
2402.00,-0.0386
2401.00,-0.0386
2400.00,-0.0386
2399.00,-0.0386
2398.00,-0.0386
2397.00,-0.0386
2396.00,-0.0386
2395.00,-0.0386
2394.00,-0.0387
2393.00,-0.0387
2392.00,-0.0387
2391.00,-0.0388
2390.00,-0.0388
2389.00,-0.0388
2388.00,-0.0389
2387.00,-0.0389
2386.00,-0.0389
2385.00,-0.0389
2384.00,-0.0389
2383.00,-0.0389
2382.00,-0.0389
2381.00,-0.0389
2380.00,-0.0389
2379.00,-0.0390
2378.00,-0.0390
2377.00,-0.0390
2376.00,-0.0391
2375.00,-0.0391
2374.00,-0.0391
2373.00,-0.0391
2372.00,-0.0391
2371.00,-0.0392
2370.00,-0.0392
2369.00,-0.0392
2368.00,-0.0392
2367.00,-0.0392
2366.00,-0.0392
2365.00,-0.0392
2364.00,-0.0393
2363.00,-0.0393
2362.00,-0.0394
2361.00,-0.0394
2360.00,-0.0393
2359.00,-0.0393
2358.00,-0.0393
2357.00,-0.0393
2356.00,-0.0394
2355.00,-0.0394
2354.00,-0.0394
2353.00,-0.0395
2352.00,-0.0395
2351.00,-0.0395
2350.00,-0.0395
2349.00,-0.0395
2348.00,-0.0395
2347.00,-0.0393
2346.00,-0.0393
2345.00,-0.0392
2344.00,-0.0393
2343.00,-0.0393
2342.00,-0.0394
2341.00,-0.0394
2340.00,-0.0395
2339.00,-0.0395
2338.00,-0.0396
2337.00,-0.0396
2336.00,-0.0397
2335.00,-0.0397
2334.00,-0.0398
2333.00,-0.0397
2332.00,-0.0397
2331.00,-0.0397
2330.00,-0.0397
2329.00,-0.0397
2328.00,-0.0397
2327.00,-0.0397
2326.00,-0.0397
2325.00,-0.0397
2324.00,-0.0397
2323.00,-0.0398
2322.00,-0.0397
2321.00,-0.0397
2320.00,-0.0396
2319.00,-0.0396
2318.00,-0.0396
2317.00,-0.0396
2316.00,-0.0396
2315.00,-0.0396
2314.00,-0.0396
2313.00,-0.0395
2312.00,-0.0395
2311.00,-0.0395
2310.00,-0.0395
2309.00,-0.0395
2308.00,-0.0395
2307.00,-0.0396
2306.00,-0.0396
2305.00,-0.0396
2304.00,-0.0396
2303.00,-0.0395
2302.00,-0.0395
2301.00,-0.0395
2300.00,-0.0396
2299.00,-0.0396
2298.00,-0.0396
2297.00,-0.0396
2296.00,-0.0396
2295.00,-0.0395
2294.00,-0.0395
2293.00,-0.0394
2292.00,-0.0394
2291.00,-0.0394
2290.00,-0.0394
2289.00,-0.0394
2288.00,-0.0394
2287.00,-0.0394
2286.00,-0.0394
2285.00,-0.0393
2284.00,-0.0392
2283.00,-0.0392
2282.00,-0.0392
2281.00,-0.0392
2280.00,-0.0392
2279.00,-0.0392
2278.00,-0.0392
2277.00,-0.0392
2276.00,-0.0392
2275.00,-0.0391
2274.00,-0.0391
2273.00,-0.0391
2272.00,-0.0391
2271.00,-0.0391
2270.00,-0.0391
2269.00,-0.0392
2268.00,-0.0392
2267.00,-0.0392
2266.00,-0.0392
2265.00,-0.0392
2264.00,-0.0391
2263.00,-0.0390
2262.00,-0.0389
2261.00,-0.0388
2260.00,-0.0388
2259.00,-0.0388
2258.00,-0.0388
2257.00,-0.0387
2256.00,-0.0386
2255.00,-0.0384
2254.00,-0.0383
2253.00,-0.0381
2252.00,-0.0379
2251.00,-0.0376
2250.00,-0.0372
2249.00,-0.0366
2248.00,-0.0359
2247.00,-0.0349
2246.00,-0.0338
2245.00,-0.0323
2244.00,-0.0306
2243.00,-0.0286
2242.00,-0.0264
2241.00,-0.0241
2240.00,-0.0220
2239.00,-0.0203
2238.00,-0.0192
2237.00,-0.0190
2236.00,-0.0199
2235.00,-0.0216
2234.00,-0.0240
2233.00,-0.0267
2232.00,-0.0293
2231.00,-0.0318
2230.00,-0.0338
2229.00,-0.0355
2228.00,-0.0367
2227.00,-0.0377
2226.00,-0.0384
2225.00,-0.0389
2224.00,-0.0393
2223.00,-0.0396
2222.00,-0.0398
2221.00,-0.0400
2220.00,-0.0401
2219.00,-0.0402
2218.00,-0.0403
2217.00,-0.0404
2216.00,-0.0404
2215.00,-0.0405
2214.00,-0.0407
2213.00,-0.0407
2212.00,-0.0407
2211.00,-0.0407
2210.00,-0.0407
2209.00,-0.0407
2208.00,-0.0407
2207.00,-0.0407
2206.00,-0.0406
2205.00,-0.0404
2204.00,-0.0403
2203.00,-0.0403
2202.00,-0.0403
2201.00,-0.0404
2200.00,-0.0405
2199.00,-0.0407
2198.00,-0.0408
2197.00,-0.0408
2196.00,-0.0408
2195.00,-0.0407
2194.00,-0.0407
2193.00,-0.0407
2192.00,-0.0407
2191.00,-0.0408
2190.00,-0.0408
2189.00,-0.0408
2188.00,-0.0407
2187.00,-0.0406
2186.00,-0.0406
2185.00,-0.0407
2184.00,-0.0409
2183.00,-0.0410
2182.00,-0.0411
2181.00,-0.0411
2180.00,-0.0411
2179.00,-0.0411
2178.00,-0.0412
2177.00,-0.0413
2176.00,-0.0414
2175.00,-0.0415
2174.00,-0.0415
2173.00,-0.0415
2172.00,-0.0415
2171.00,-0.0415
2170.00,-0.0415
2169.00,-0.0415
2168.00,-0.0414
2167.00,-0.0413
2166.00,-0.0412
2165.00,-0.0413
2164.00,-0.0413
2163.00,-0.0412
2162.00,-0.0411
2161.00,-0.0410
2160.00,-0.0410
2159.00,-0.0411
2158.00,-0.0413
2157.00,-0.0414
2156.00,-0.0415
2155.00,-0.0415
2154.00,-0.0415
2153.00,-0.0416
2152.00,-0.0416
2151.00,-0.0416
2150.00,-0.0416
2149.00,-0.0415
2148.00,-0.0415
2147.00,-0.0415
2146.00,-0.0416
2145.00,-0.0416
2144.00,-0.0417
2143.00,-0.0417
2142.00,-0.0418
2141.00,-0.0418
2140.00,-0.0418
2139.00,-0.0418
2138.00,-0.0417
2137.00,-0.0417
2136.00,-0.0417
2135.00,-0.0417
2134.00,-0.0417
2133.00,-0.0417
2132.00,-0.0417
2131.00,-0.0417
2130.00,-0.0418
2129.00,-0.0419
2128.00,-0.0419
2127.00,-0.0418
2126.00,-0.0418
2125.00,-0.0417
2124.00,-0.0418
2123.00,-0.0418
2122.00,-0.0418
2121.00,-0.0418
2120.00,-0.0418
2119.00,-0.0417
2118.00,-0.0417
2117.00,-0.0416
2116.00,-0.0416
2115.00,-0.0416
2114.00,-0.0417
2113.00,-0.0418
2112.00,-0.0419
2111.00,-0.0419
2110.00,-0.0419
2109.00,-0.0419
2108.00,-0.0420
2107.00,-0.0420
2106.00,-0.0421
2105.00,-0.0421
2104.00,-0.0421
2103.00,-0.0421
2102.00,-0.0421
2101.00,-0.0421
2100.00,-0.0421
2099.00,-0.0421
2098.00,-0.0421
2097.00,-0.0421
2096.00,-0.0421
2095.00,-0.0421
2094.00,-0.0421
2093.00,-0.0421
2092.00,-0.0420
2091.00,-0.0420
2090.00,-0.0421
2089.00,-0.0421
2088.00,-0.0421
2087.00,-0.0421
2086.00,-0.0421
2085.00,-0.0421
2084.00,-0.0421
2083.00,-0.0422
2082.00,-0.0422
2081.00,-0.0422
2080.00,-0.0422
2079.00,-0.0423
2078.00,-0.0423
2077.00,-0.0423
2076.00,-0.0423
2075.00,-0.0422
2074.00,-0.0422
2073.00,-0.0422
2072.00,-0.0422
2071.00,-0.0423
2070.00,-0.0423
2069.00,-0.0423
2068.00,-0.0424
2067.00,-0.0424
2066.00,-0.0424
2065.00,-0.0424
2064.00,-0.0424
2063.00,-0.0424
2062.00,-0.0425
2061.00,-0.0425
2060.00,-0.0424
2059.00,-0.0424
2058.00,-0.0424
2057.00,-0.0424
2056.00,-0.0424
2055.00,-0.0425
2054.00,-0.0427
2053.00,-0.0428
2052.00,-0.0428
2051.00,-0.0427
2050.00,-0.0426
2049.00,-0.0426
2048.00,-0.0426
2047.00,-0.0427
2046.00,-0.0428
2045.00,-0.0428
2044.00,-0.0429
2043.00,-0.0429
2042.00,-0.0429
2041.00,-0.0428
2040.00,-0.0428
2039.00,-0.0428
2038.00,-0.0429
2037.00,-0.0429
2036.00,-0.0429
2035.00,-0.0430
2034.00,-0.0430
2033.00,-0.0430
2032.00,-0.0430
2031.00,-0.0430
2030.00,-0.0431
2029.00,-0.0431
2028.00,-0.0432
2027.00,-0.0432
2026.00,-0.0431
2025.00,-0.0431
2024.00,-0.0430
2023.00,-0.0430
2022.00,-0.0431
2021.00,-0.0431
2020.00,-0.0430
2019.00,-0.0430
2018.00,-0.0431
2017.00,-0.0431
2016.00,-0.0432
2015.00,-0.0432
2014.00,-0.0431
2013.00,-0.0431
2012.00,-0.0431
2011.00,-0.0432
2010.00,-0.0434
2009.00,-0.0435
2008.00,-0.0435
2007.00,-0.0436
2006.00,-0.0437
2005.00,-0.0437
2004.00,-0.0437
2003.00,-0.0436
2002.00,-0.0436
2001.00,-0.0436
2000.00,-0.0436
1999.00,-0.0437
1998.00,-0.0437
1997.00,-0.0438
1996.00,-0.0438
1995.00,-0.0439
1994.00,-0.0439
1993.00,-0.0439
1992.00,-0.0439
1991.00,-0.0439
1990.00,-0.0439
1989.00,-0.0438
1988.00,-0.0438
1987.00,-0.0438
1986.00,-0.0437
1985.00,-0.0436
1984.00,-0.0435
1983.00,-0.0435
1982.00,-0.0435
1981.00,-0.0435
1980.00,-0.0435
1979.00,-0.0437
1978.00,-0.0440
1977.00,-0.0444
1976.00,-0.0446
1975.00,-0.0448
1974.00,-0.0448
1973.00,-0.0447
1972.00,-0.0446
1971.00,-0.0446
1970.00,-0.0448
1969.00,-0.0450
1968.00,-0.0451
1967.00,-0.0451
1966.00,-0.0452
1965.00,-0.0452
1964.00,-0.0452
1963.00,-0.0452
1962.00,-0.0452
1961.00,-0.0451
1960.00,-0.0450
1959.00,-0.0449
1958.00,-0.0450
1957.00,-0.0451
1956.00,-0.0451
1955.00,-0.0452
1954.00,-0.0453
1953.00,-0.0454
1952.00,-0.0454
1951.00,-0.0454
1950.00,-0.0454
1949.00,-0.0454
1948.00,-0.0455
1947.00,-0.0456
1946.00,-0.0456
1945.00,-0.0457
1944.00,-0.0457
1943.00,-0.0458
1942.00,-0.0458
1941.00,-0.0458
1940.00,-0.0457
1939.00,-0.0456
1938.00,-0.0456
1937.00,-0.0456
1936.00,-0.0456
1935.00,-0.0457
1934.00,-0.0458
1933.00,-0.0458
1932.00,-0.0458
1931.00,-0.0457
1930.00,-0.0456
1929.00,-0.0454
1928.00,-0.0453
1927.00,-0.0453
1926.00,-0.0453
1925.00,-0.0452
1924.00,-0.0452
1923.00,-0.0451
1922.00,-0.0450
1921.00,-0.0450
1920.00,-0.0450
1919.00,-0.0450
1918.00,-0.0450
1917.00,-0.0450
1916.00,-0.0448
1915.00,-0.0447
1914.00,-0.0446
1913.00,-0.0445
1912.00,-0.0444
1911.00,-0.0444
1910.00,-0.0444
1909.00,-0.0444
1908.00,-0.0444
1907.00,-0.0444
1906.00,-0.0445
1905.00,-0.0446
1904.00,-0.0446
1903.00,-0.0446
1902.00,-0.0446
1901.00,-0.0446
1900.00,-0.0445
1899.00,-0.0445
1898.00,-0.0445
1897.00,-0.0445
1896.00,-0.0445
1895.00,-0.0445
1894.00,-0.0445
1893.00,-0.0445
1892.00,-0.0445
1891.00,-0.0446
1890.00,-0.0446
1889.00,-0.0445
1888.00,-0.0445
1887.00,-0.0445
1886.00,-0.0445
1885.00,-0.0445
1884.00,-0.0445
1883.00,-0.0445
1882.00,-0.0446
1881.00,-0.0446
1880.00,-0.0446
1879.00,-0.0445
1878.00,-0.0445
1877.00,-0.0445
1876.00,-0.0445
1875.00,-0.0445
1874.00,-0.0445
1873.00,-0.0445
1872.00,-0.0445
1871.00,-0.0445
1870.00,-0.0446
1869.00,-0.0446
1868.00,-0.0447
1867.00,-0.0447
1866.00,-0.0447
1865.00,-0.0447
1864.00,-0.0446
1863.00,-0.0445
1862.00,-0.0444
1861.00,-0.0444
1860.00,-0.0444
1859.00,-0.0444
1858.00,-0.0445
1857.00,-0.0445
1856.00,-0.0445
1855.00,-0.0444
1854.00,-0.0444
1853.00,-0.0444
1852.00,-0.0444
1851.00,-0.0444
1850.00,-0.0444
1849.00,-0.0444
1848.00,-0.0444
1847.00,-0.0445
1846.00,-0.0445
1845.00,-0.0446
1844.00,-0.0446
1843.00,-0.0446
1842.00,-0.0445
1841.00,-0.0445
1840.00,-0.0445
1839.00,-0.0444
1838.00,-0.0444
1837.00,-0.0444
1836.00,-0.0444
1835.00,-0.0444
1834.00,-0.0445
1833.00,-0.0445
1832.00,-0.0445
1831.00,-0.0445
1830.00,-0.0446
1829.00,-0.0446
1828.00,-0.0446
1827.00,-0.0446
1826.00,-0.0446
1825.00,-0.0446
1824.00,-0.0446
1823.00,-0.0446
1822.00,-0.0446
1821.00,-0.0446
1820.00,-0.0446
1819.00,-0.0446
1818.00,-0.0446
1817.00,-0.0446
1816.00,-0.0446
1815.00,-0.0446
1814.00,-0.0446
1813.00,-0.0445
1812.00,-0.0445
1811.00,-0.0445
1810.00,-0.0446
1809.00,-0.0446
1808.00,-0.0446
1807.00,-0.0446
1806.00,-0.0446
1805.00,-0.0445
1804.00,-0.0445
1803.00,-0.0445
1802.00,-0.0445
1801.00,-0.0445
1800.00,-0.0445
1799.00,-0.0444
1798.00,-0.0443
1797.00,-0.0443
1796.00,-0.0442
1795.00,-0.0442
1794.00,-0.0442
1793.00,-0.0441
1792.00,-0.0440
1791.00,-0.0439
1790.00,-0.0437
1789.00,-0.0435
1788.00,-0.0433
1787.00,-0.0431
1786.00,-0.0429
1785.00,-0.0427
1784.00,-0.0424
1783.00,-0.0422
1782.00,-0.0419
1781.00,-0.0415
1780.00,-0.0412
1779.00,-0.0408
1778.00,-0.0404
1777.00,-0.0400
1776.00,-0.0397
1775.00,-0.0394
1774.00,-0.0391
1773.00,-0.0389
1772.00,-0.0386
1771.00,-0.0385
1770.00,-0.0385
1769.00,-0.0385
1768.00,-0.0385
1767.00,-0.0386
1766.00,-0.0387
1765.00,-0.0388
1764.00,-0.0391
1763.00,-0.0394
1762.00,-0.0399
1761.00,-0.0404
1760.00,-0.0409
1759.00,-0.0413
1758.00,-0.0416
1757.00,-0.0418
1756.00,-0.0421
1755.00,-0.0423
1754.00,-0.0424
1753.00,-0.0425
1752.00,-0.0427
1751.00,-0.0428
1750.00,-0.0429
1749.00,-0.0429
1748.00,-0.0429
1747.00,-0.0428
1746.00,-0.0427
1745.00,-0.0425
1744.00,-0.0424
1743.00,-0.0424
1742.00,-0.0423
1741.00,-0.0421
1740.00,-0.0419
1739.00,-0.0417
1738.00,-0.0416
1737.00,-0.0414
1736.00,-0.0413
1735.00,-0.0411
1734.00,-0.0409
1733.00,-0.0408
1732.00,-0.0408
1731.00,-0.0408
1730.00,-0.0408
1729.00,-0.0408
1728.00,-0.0408
1727.00,-0.0408
1726.00,-0.0409
1725.00,-0.0411
1724.00,-0.0413
1723.00,-0.0416
1722.00,-0.0419
1721.00,-0.0422
1720.00,-0.0424
1719.00,-0.0426
1718.00,-0.0429
1717.00,-0.0432
1716.00,-0.0435
1715.00,-0.0436
1714.00,-0.0438
1713.00,-0.0438
1712.00,-0.0438
1711.00,-0.0439
1710.00,-0.0439
1709.00,-0.0440
1708.00,-0.0441
1707.00,-0.0442
1706.00,-0.0442
1705.00,-0.0443
1704.00,-0.0444
1703.00,-0.0445
1702.00,-0.0445
1701.00,-0.0445
1700.00,-0.0445
1699.00,-0.0445
1698.00,-0.0445
1697.00,-0.0445
1696.00,-0.0444
1695.00,-0.0444
1694.00,-0.0444
1693.00,-0.0444
1692.00,-0.0444
1691.00,-0.0443
1690.00,-0.0443
1689.00,-0.0443
1688.00,-0.0443
1687.00,-0.0444
1686.00,-0.0444
1685.00,-0.0444
1684.00,-0.0443
1683.00,-0.0443
1682.00,-0.0442
1681.00,-0.0439
1680.00,-0.0436
1679.00,-0.0433
1678.00,-0.0431
1677.00,-0.0428
1676.00,-0.0424
1675.00,-0.0419
1674.00,-0.0414
1673.00,-0.0410
1672.00,-0.0406
1671.00,-0.0402
1670.00,-0.0399
1669.00,-0.0395
1668.00,-0.0393
1667.00,-0.0392
1666.00,-0.0393
1665.00,-0.0393
1664.00,-0.0394
1663.00,-0.0395
1662.00,-0.0396
1661.00,-0.0396
1660.00,-0.0396
1659.00,-0.0395
1658.00,-0.0394
1657.00,-0.0394
1656.00,-0.0393
1655.00,-0.0393
1654.00,-0.0389
1653.00,-0.0383
1652.00,-0.0378
1651.00,-0.0374
1650.00,-0.0371
1649.00,-0.0366
1648.00,-0.0358
1647.00,-0.0347
1646.00,-0.0334
1645.00,-0.0323
1644.00,-0.0312
1643.00,-0.0302
1642.00,-0.0294
1641.00,-0.0287
1640.00,-0.0282
1639.00,-0.0281
1638.00,-0.0282
1637.00,-0.0286
1636.00,-0.0290
1635.00,-0.0295
1634.00,-0.0298
1633.00,-0.0298
1632.00,-0.0298
1631.00,-0.0298
1630.00,-0.0297
1629.00,-0.0295
1628.00,-0.0293
1627.00,-0.0291
1626.00,-0.0288
1625.00,-0.0285
1624.00,-0.0280
1623.00,-0.0273
1622.00,-0.0266
1621.00,-0.0259
1620.00,-0.0251
1619.00,-0.0243
1618.00,-0.0231
1617.00,-0.0214
1616.00,-0.0194
1615.00,-0.0176
1614.00,-0.0161
1613.00,-0.0146
1612.00,-0.0130
1611.00,-0.0114
1610.00,-0.0100
1609.00,-0.0087
1608.00,-0.0078
1607.00,-0.0071
1606.00,-0.0069
1605.00,-0.0070
1604.00,-0.0073
1603.00,-0.0079
1602.00,-0.0087
1601.00,-0.0096
1600.00,-0.0106
1599.00,-0.0115
1598.00,-0.0125
1597.00,-0.0133
1596.00,-0.0139
1595.00,-0.0144
1594.00,-0.0148
1593.00,-0.0149
1592.00,-0.0148
1591.00,-0.0146
1590.00,-0.0141
1589.00,-0.0134
1588.00,-0.0124
1587.00,-0.0112
1586.00,-0.0097
1585.00,-0.0079
1584.00,-0.0057
1583.00,-0.0032
1582.00,-0.0005
1581.00,0.0023
1580.00,0.0049
1579.00,0.0070
1578.00,0.0087
1577.00,0.0098
1576.00,0.0103
1575.00,0.0099
1574.00,0.0087
1573.00,0.0073
1572.00,0.0056
1571.00,0.0036
1570.00,0.0013
1569.00,-0.0011
1568.00,-0.0030
1567.00,-0.0044
1566.00,-0.0056
1565.00,-0.0068
1564.00,-0.0077
1563.00,-0.0085
1562.00,-0.0093
1561.00,-0.0101
1560.00,-0.0107
1559.00,-0.0111
1558.00,-0.0114
1557.00,-0.0116
1556.00,-0.0116
1555.00,-0.0116
1554.00,-0.0114
1553.00,-0.0112
1552.00,-0.0110
1551.00,-0.0105
1550.00,-0.0097
1549.00,-0.0087
1548.00,-0.0076
1547.00,-0.0062
1546.00,-0.0046
1545.00,-0.0025
1544.00,-0.0002
1543.00,0.0019
1542.00,0.0036
1541.00,0.0044
1540.00,0.0036
1539.00,0.0012
1538.00,-0.0018
1537.00,-0.0047
1536.00,-0.0077
1535.00,-0.0112
1534.00,-0.0154
1533.00,-0.0196
1532.00,-0.0229
1531.00,-0.0252
1530.00,-0.0271
1529.00,-0.0288
1528.00,-0.0304
1527.00,-0.0320
1526.00,-0.0334
1525.00,-0.0345
1524.00,-0.0354
1523.00,-0.0362
1522.00,-0.0370
1521.00,-0.0379
1520.00,-0.0384
1519.00,-0.0388
1518.00,-0.0391
1517.00,-0.0394
1516.00,-0.0396
1515.00,-0.0398
1514.00,-0.0399
1513.00,-0.0400
1512.00,-0.0401
1511.00,-0.0401
1510.00,-0.0402
1509.00,-0.0403
1508.00,-0.0402
1507.00,-0.0403
1506.00,-0.0403
1505.00,-0.0401
1504.00,-0.0398
1503.00,-0.0396
1502.00,-0.0395
1501.00,-0.0393
1500.00,-0.0391
1499.00,-0.0390
1498.00,-0.0389
1497.00,-0.0387
1496.00,-0.0386
1495.00,-0.0385
1494.00,-0.0384
1493.00,-0.0383
1492.00,-0.0380
1491.00,-0.0376
1490.00,-0.0371
1489.00,-0.0363
1488.00,-0.0352
1487.00,-0.0338
1486.00,-0.0322
1485.00,-0.0304
1484.00,-0.0283
1483.00,-0.0259
1482.00,-0.0232
1481.00,-0.0204
1480.00,-0.0176
1479.00,-0.0152
1478.00,-0.0132
1477.00,-0.0112
1476.00,-0.0094
1475.00,-0.0078
1474.00,-0.0062
1473.00,-0.0045
1472.00,-0.0029
1471.00,-0.0017
1470.00,-0.0009
1469.00,-0.0001
1468.00,0.0006
1467.00,0.0010
1466.00,0.0012
1465.00,0.0011
1464.00,0.0006
1463.00,-0.0001
1462.00,-0.0008
1461.00,-0.0012
1460.00,-0.0010
1459.00,0.0001
1458.00,0.0028
1457.00,0.0074
1456.00,0.0122
1455.00,0.0156
1454.00,0.0180
1453.00,0.0199
1452.00,0.0214
1451.00,0.0225
1450.00,0.0232
1449.00,0.0236
1448.00,0.0240
1447.00,0.0243
1446.00,0.0246
1445.00,0.0250
1444.00,0.0257
1443.00,0.0265
1442.00,0.0274
1441.00,0.0283
1440.00,0.0290
1439.00,0.0294
1438.00,0.0298
1437.00,0.0302
1436.00,0.0301
1435.00,0.0292
1434.00,0.0275
1433.00,0.0251
1432.00,0.0220
1431.00,0.0182
1430.00,0.0141
1429.00,0.0102
1428.00,0.0069
1427.00,0.0045
1426.00,0.0028
1425.00,0.0018
1424.00,0.0016
1423.00,0.0018
1422.00,0.0022
1421.00,0.0025
1420.00,0.0029
1419.00,0.0032
1418.00,0.0032
1417.00,0.0030
1416.00,0.0027
1415.00,0.0024
1414.00,0.0022
1413.00,0.0022
1412.00,0.0022
1411.00,0.0022
1410.00,0.0021
1409.00,0.0020
1408.00,0.0016
1407.00,0.0012
1406.00,0.0005
1405.00,-0.0004
1404.00,-0.0014
1403.00,-0.0026
1402.00,-0.0039
1401.00,-0.0053
1400.00,-0.0070
1399.00,-0.0088
1398.00,-0.0105
1397.00,-0.0121
1396.00,-0.0137
1395.00,-0.0151
1394.00,-0.0164
1393.00,-0.0175
1392.00,-0.0183
1391.00,-0.0190
1390.00,-0.0197
1389.00,-0.0203
1388.00,-0.0209
1387.00,-0.0212
1386.00,-0.0213
1385.00,-0.0213
1384.00,-0.0210
1383.00,-0.0205
1382.00,-0.0198
1381.00,-0.0189
1380.00,-0.0179
1379.00,-0.0168
1378.00,-0.0159
1377.00,-0.0151
1376.00,-0.0144
1375.00,-0.0139
1374.00,-0.0134
1373.00,-0.0130
1372.00,-0.0127
1371.00,-0.0125
1370.00,-0.0124
1369.00,-0.0123
1368.00,-0.0123
1367.00,-0.0124
1366.00,-0.0125
1365.00,-0.0127
1364.00,-0.0130
1363.00,-0.0132
1362.00,-0.0135
1361.00,-0.0139
1360.00,-0.0142
1359.00,-0.0146
1358.00,-0.0149
1357.00,-0.0153
1356.00,-0.0157
1355.00,-0.0161
1354.00,-0.0164
1353.00,-0.0167
1352.00,-0.0170
1351.00,-0.0173
1350.00,-0.0177
1349.00,-0.0182
1348.00,-0.0188
1347.00,-0.0194
1346.00,-0.0200
1345.00,-0.0207
1344.00,-0.0214
1343.00,-0.0221
1342.00,-0.0228
1341.00,-0.0236
1340.00,-0.0243
1339.00,-0.0250
1338.00,-0.0257
1337.00,-0.0263
1336.00,-0.0269
1335.00,-0.0274
1334.00,-0.0280
1333.00,-0.0286
1332.00,-0.0291
1331.00,-0.0295
1330.00,-0.0298
1329.00,-0.0300
1328.00,-0.0302
1327.00,-0.0302
1326.00,-0.0301
1325.00,-0.0300
1324.00,-0.0298
1323.00,-0.0295
1322.00,-0.0292
1321.00,-0.0289
1320.00,-0.0287
1319.00,-0.0286
1318.00,-0.0285
1317.00,-0.0285
1316.00,-0.0286
1315.00,-0.0286
1314.00,-0.0287
1313.00,-0.0287
1312.00,-0.0287
1311.00,-0.0288
1310.00,-0.0288
1309.00,-0.0289
1308.00,-0.0289
1307.00,-0.0290
1306.00,-0.0291
1305.00,-0.0291
1304.00,-0.0292
1303.00,-0.0293
1302.00,-0.0295
1301.00,-0.0297
1300.00,-0.0299
1299.00,-0.0302
1298.00,-0.0304
1297.00,-0.0308
1296.00,-0.0311
1295.00,-0.0314
1294.00,-0.0318
1293.00,-0.0321
1292.00,-0.0324
1291.00,-0.0327
1290.00,-0.0331
1289.00,-0.0335
1288.00,-0.0339
1287.00,-0.0344
1286.00,-0.0349
1285.00,-0.0354
1284.00,-0.0358
1283.00,-0.0362
1282.00,-0.0365
1281.00,-0.0368
1280.00,-0.0370
1279.00,-0.0371
1278.00,-0.0373
1277.00,-0.0374
1276.00,-0.0376
1275.00,-0.0378
1274.00,-0.0380
1273.00,-0.0382
1272.00,-0.0383
1271.00,-0.0383
1270.00,-0.0384
1269.00,-0.0383
1268.00,-0.0383
1267.00,-0.0383
1266.00,-0.0383
1265.00,-0.0383
1264.00,-0.0384
1263.00,-0.0385
1262.00,-0.0385
1261.00,-0.0386
1260.00,-0.0387
1259.00,-0.0389
1258.00,-0.0390
1257.00,-0.0392
1256.00,-0.0393
1255.00,-0.0395
1254.00,-0.0395
1253.00,-0.0396
1252.00,-0.0396
1251.00,-0.0395
1250.00,-0.0393
1249.00,-0.0391
1248.00,-0.0388
1247.00,-0.0386
1246.00,-0.0384
1245.00,-0.0382
1244.00,-0.0380
1243.00,-0.0378
1242.00,-0.0375
1241.00,-0.0373
1240.00,-0.0370
1239.00,-0.0367
1238.00,-0.0364
1237.00,-0.0360
1236.00,-0.0357
1235.00,-0.0354
1234.00,-0.0351
1233.00,-0.0348
1232.00,-0.0346
1231.00,-0.0343
1230.00,-0.0339
1229.00,-0.0335
1228.00,-0.0330
1227.00,-0.0326
1226.00,-0.0322
1225.00,-0.0319
1224.00,-0.0317
1223.00,-0.0315
1222.00,-0.0314
1221.00,-0.0314
1220.00,-0.0314
1219.00,-0.0314
1218.00,-0.0315
1217.00,-0.0316
1216.00,-0.0317
1215.00,-0.0318
1214.00,-0.0319
1213.00,-0.0320
1212.00,-0.0321
1211.00,-0.0322
1210.00,-0.0322
1209.00,-0.0323
1208.00,-0.0323
1207.00,-0.0323
1206.00,-0.0322
1205.00,-0.0322
1204.00,-0.0321
1203.00,-0.0320
1202.00,-0.0319
1201.00,-0.0318
1200.00,-0.0317
1199.00,-0.0316
1198.00,-0.0314
1197.00,-0.0313
1196.00,-0.0312
1195.00,-0.0310
1194.00,-0.0309
1193.00,-0.0308
1192.00,-0.0307
1191.00,-0.0307
1190.00,-0.0307
1189.00,-0.0307
1188.00,-0.0308
1187.00,-0.0309
1186.00,-0.0311
1185.00,-0.0313
1184.00,-0.0315
1183.00,-0.0317
1182.00,-0.0320
1181.00,-0.0324
1180.00,-0.0328
1179.00,-0.0332
1178.00,-0.0337
1177.00,-0.0342
1176.00,-0.0347
1175.00,-0.0353
1174.00,-0.0358
1173.00,-0.0364
1172.00,-0.0369
1171.00,-0.0375
1170.00,-0.0381
1169.00,-0.0386
1168.00,-0.0391
1167.00,-0.0397
1166.00,-0.0403
1165.00,-0.0409
1164.00,-0.0415
1163.00,-0.0421
1162.00,-0.0427
1161.00,-0.0432
1160.00,-0.0436
1159.00,-0.0441
1158.00,-0.0445
1157.00,-0.0448
1156.00,-0.0452
1155.00,-0.0456
1154.00,-0.0459
1153.00,-0.0462
1152.00,-0.0465
1151.00,-0.0467
1150.00,-0.0468
1149.00,-0.0470
1148.00,-0.0470
1147.00,-0.0471
1146.00,-0.0471
1145.00,-0.0470
1144.00,-0.0468
1143.00,-0.0466
1142.00,-0.0462
1141.00,-0.0458
1140.00,-0.0453
1139.00,-0.0447
1138.00,-0.0441
1137.00,-0.0435
1136.00,-0.0430
1135.00,-0.0425
1134.00,-0.0421
1133.00,-0.0419
1132.00,-0.0419
1131.00,-0.0420
1130.00,-0.0423
1129.00,-0.0427
1128.00,-0.0432
1127.00,-0.0437
1126.00,-0.0442
1125.00,-0.0447
1124.00,-0.0450
1123.00,-0.0453
1122.00,-0.0454
1121.00,-0.0455
1120.00,-0.0455
1119.00,-0.0454
1118.00,-0.0452
1117.00,-0.0450
1116.00,-0.0446
1115.00,-0.0443
1114.00,-0.0441
1113.00,-0.0440
1112.00,-0.0440
1111.00,-0.0441
1110.00,-0.0443
1109.00,-0.0446
1108.00,-0.0449
1107.00,-0.0452
1106.00,-0.0454
1105.00,-0.0455
1104.00,-0.0456
1103.00,-0.0457
1102.00,-0.0457
1101.00,-0.0457
1100.00,-0.0457
1099.00,-0.0456
1098.00,-0.0456
1097.00,-0.0455
1096.00,-0.0455
1095.00,-0.0454
1094.00,-0.0453
1093.00,-0.0453
1092.00,-0.0454
1091.00,-0.0455
1090.00,-0.0456
1089.00,-0.0456
1088.00,-0.0456
1087.00,-0.0456
1086.00,-0.0455
1085.00,-0.0454
1084.00,-0.0453
1083.00,-0.0453
1082.00,-0.0453
1081.00,-0.0454
1080.00,-0.0455
1079.00,-0.0457
1078.00,-0.0458
1077.00,-0.0460
1076.00,-0.0463
1075.00,-0.0466
1074.00,-0.0470
1073.00,-0.0472
1072.00,-0.0475
1071.00,-0.0476
1070.00,-0.0478
1069.00,-0.0480
1068.00,-0.0480
1067.00,-0.0480
1066.00,-0.0479
1065.00,-0.0478
1064.00,-0.0477
1063.00,-0.0475
1062.00,-0.0473
1061.00,-0.0470
1060.00,-0.0466
1059.00,-0.0462
1058.00,-0.0458
1057.00,-0.0453
1056.00,-0.0448
1055.00,-0.0444
1054.00,-0.0439
1053.00,-0.0435
1052.00,-0.0431
1051.00,-0.0426
1050.00,-0.0422
1049.00,-0.0418
1048.00,-0.0416
1047.00,-0.0414
1046.00,-0.0414
1045.00,-0.0414
1044.00,-0.0415
1043.00,-0.0416
1042.00,-0.0418
1041.00,-0.0422
1040.00,-0.0426
1039.00,-0.0430
1038.00,-0.0435
1037.00,-0.0440
1036.00,-0.0444
1035.00,-0.0449
1034.00,-0.0452
1033.00,-0.0456
1032.00,-0.0458
1031.00,-0.0460
1030.00,-0.0462
1029.00,-0.0462
1028.00,-0.0462
1027.00,-0.0462
1026.00,-0.0461
1025.00,-0.0459
1024.00,-0.0457
1023.00,-0.0455
1022.00,-0.0452
1021.00,-0.0448
1020.00,-0.0442
1019.00,-0.0435
1018.00,-0.0426
1017.00,-0.0413
1016.00,-0.0399
1015.00,-0.0383
1014.00,-0.0369
1013.00,-0.0357
1012.00,-0.0350
1011.00,-0.0346
1010.00,-0.0344
1009.00,-0.0342
1008.00,-0.0340
1007.00,-0.0336
1006.00,-0.0330
1005.00,-0.0322
1004.00,-0.0312
1003.00,-0.0300
1002.00,-0.0287
1001.00,-0.0274
1000.00,-0.0261
999.00,-0.0248
998.00,-0.0236
997.00,-0.0226
996.00,-0.0217
995.00,-0.0208
994.00,-0.0200
993.00,-0.0192
992.00,-0.0183
991.00,-0.0170
990.00,-0.0154
989.00,-0.0133
988.00,-0.0106
987.00,-0.0071
986.00,-0.0029
985.00,0.0021
984.00,0.0079
983.00,0.0146
982.00,0.0221
981.00,0.0304
980.00,0.0395
979.00,0.0494
978.00,0.0600
977.00,0.0713
976.00,0.0830
975.00,0.0950
974.00,0.1071
973.00,0.1189
972.00,0.1302
971.00,0.1405
970.00,0.1492
969.00,0.1556
968.00,0.1594
967.00,0.1597
966.00,0.1562
965.00,0.1486
964.00,0.1373
963.00,0.1228
962.00,0.1059
961.00,0.0879
960.00,0.0700
959.00,0.0529
958.00,0.0373
957.00,0.0237
956.00,0.0121
955.00,0.0024
954.00,-0.0056
953.00,-0.0121
952.00,-0.0175
951.00,-0.0218
950.00,-0.0254
949.00,-0.0283
948.00,-0.0308
947.00,-0.0328
946.00,-0.0344
945.00,-0.0358
944.00,-0.0369
943.00,-0.0377
942.00,-0.0382
941.00,-0.0386
940.00,-0.0387
939.00,-0.0386
938.00,-0.0383
937.00,-0.0378
936.00,-0.0371
935.00,-0.0362
934.00,-0.0352
933.00,-0.0341
932.00,-0.0329
931.00,-0.0315
930.00,-0.0300
929.00,-0.0284
928.00,-0.0267
927.00,-0.0250
926.00,-0.0232
925.00,-0.0215
924.00,-0.0198
923.00,-0.0182
922.00,-0.0167
921.00,-0.0154
920.00,-0.0143
919.00,-0.0134
918.00,-0.0129
917.00,-0.0127
916.00,-0.0129
915.00,-0.0134
914.00,-0.0144
913.00,-0.0157
912.00,-0.0174
911.00,-0.0194
910.00,-0.0216
909.00,-0.0241
908.00,-0.0267
907.00,-0.0293
906.00,-0.0320
905.00,-0.0345
904.00,-0.0370
903.00,-0.0392
902.00,-0.0412
901.00,-0.0431
900.00,-0.0447
899.00,-0.0461
898.00,-0.0473
897.00,-0.0484
896.00,-0.0492
895.00,-0.0500
894.00,-0.0505
893.00,-0.0510
892.00,-0.0514
891.00,-0.0518
890.00,-0.0521
889.00,-0.0524
888.00,-0.0527
887.00,-0.0530
886.00,-0.0533
885.00,-0.0536
884.00,-0.0538
883.00,-0.0540
882.00,-0.0541
881.00,-0.0542
880.00,-0.0543
879.00,-0.0544
878.00,-0.0545
877.00,-0.0547
876.00,-0.0549
875.00,-0.0553
874.00,-0.0556
873.00,-0.0560
872.00,-0.0564
871.00,-0.0567
870.00,-0.0569
869.00,-0.0571
868.00,-0.0572
867.00,-0.0573
866.00,-0.0574
865.00,-0.0574
864.00,-0.0574
863.00,-0.0574
862.00,-0.0574
861.00,-0.0574
860.00,-0.0575
859.00,-0.0575
858.00,-0.0575
857.00,-0.0575
856.00,-0.0575
855.00,-0.0575
854.00,-0.0574
853.00,-0.0574
852.00,-0.0573
851.00,-0.0571
850.00,-0.0569
849.00,-0.0567
848.00,-0.0565
847.00,-0.0562
846.00,-0.0560
845.00,-0.0558
844.00,-0.0555
843.00,-0.0552
842.00,-0.0550
841.00,-0.0546
840.00,-0.0542
839.00,-0.0536
838.00,-0.0527
837.00,-0.0519
836.00,-0.0514
835.00,-0.0512
834.00,-0.0513
833.00,-0.0515
832.00,-0.0519
831.00,-0.0522
830.00,-0.0525
829.00,-0.0527
828.00,-0.0527
827.00,-0.0526
826.00,-0.0524
825.00,-0.0523
824.00,-0.0524
823.00,-0.0529
822.00,-0.0536
821.00,-0.0543
820.00,-0.0548
819.00,-0.0551
818.00,-0.0553
817.00,-0.0554
816.00,-0.0555
815.00,-0.0554
814.00,-0.0554
813.00,-0.0554
812.00,-0.0554
811.00,-0.0554
810.00,-0.0554
809.00,-0.0554
808.00,-0.0553
807.00,-0.0552
806.00,-0.0551
805.00,-0.0550
804.00,-0.0549
803.00,-0.0547
802.00,-0.0546
801.00,-0.0545
800.00,-0.0544
799.00,-0.0543
798.00,-0.0541
797.00,-0.0539
796.00,-0.0537
795.00,-0.0534
794.00,-0.0531
793.00,-0.0528
792.00,-0.0525
791.00,-0.0523
790.00,-0.0521
789.00,-0.0519
788.00,-0.0518
787.00,-0.0517
786.00,-0.0516
785.00,-0.0515
784.00,-0.0514
783.00,-0.0513
782.00,-0.0512
781.00,-0.0511
780.00,-0.0511
779.00,-0.0510
778.00,-0.0509
777.00,-0.0507
776.00,-0.0505
775.00,-0.0502
774.00,-0.0498
773.00,-0.0494
772.00,-0.0491
771.00,-0.0487
770.00,-0.0483
769.00,-0.0479
768.00,-0.0475
767.00,-0.0472
766.00,-0.0470
765.00,-0.0468
764.00,-0.0466
763.00,-0.0464
762.00,-0.0462
761.00,-0.0459
760.00,-0.0456
759.00,-0.0453
758.00,-0.0450
757.00,-0.0447
756.00,-0.0443
755.00,-0.0439
754.00,-0.0436
753.00,-0.0433
752.00,-0.0430
751.00,-0.0428
750.00,-0.0425
749.00,-0.0423
748.00,-0.0420
747.00,-0.0416
746.00,-0.0413
745.00,-0.0409
744.00,-0.0405
743.00,-0.0401
742.00,-0.0396
741.00,-0.0390
740.00,-0.0384
739.00,-0.0378
738.00,-0.0372
737.00,-0.0365
736.00,-0.0358
735.00,-0.0351
734.00,-0.0344
733.00,-0.0335
732.00,-0.0326
731.00,-0.0316
730.00,-0.0307
729.00,-0.0299
728.00,-0.0292
727.00,-0.0285
726.00,-0.0279
725.00,-0.0271
724.00,-0.0263
723.00,-0.0255
722.00,-0.0250
721.00,-0.0248
720.00,-0.0250
719.00,-0.0255
718.00,-0.0262
717.00,-0.0269
716.00,-0.0274
715.00,-0.0278
714.00,-0.0280
713.00,-0.0280
712.00,-0.0280
711.00,-0.0278
710.00,-0.0276
709.00,-0.0273
708.00,-0.0270
707.00,-0.0266
706.00,-0.0262
705.00,-0.0257
704.00,-0.0252
703.00,-0.0247
702.00,-0.0242
701.00,-0.0236
700.00,-0.0229
699.00,-0.0222
698.00,-0.0215
697.00,-0.0208
696.00,-0.0202
695.00,-0.0196
694.00,-0.0191
693.00,-0.0186
692.00,-0.0181
691.00,-0.0177
690.00,-0.0173
689.00,-0.0170
688.00,-0.0168
687.00,-0.0168
686.00,-0.0169
685.00,-0.0170
684.00,-0.0173
683.00,-0.0175
682.00,-0.0178
681.00,-0.0181
680.00,-0.0184
679.00,-0.0186
678.00,-0.0188
677.00,-0.0190
676.00,-0.0191
675.00,-0.0191
674.00,-0.0192
673.00,-0.0193
672.00,-0.0195
671.00,-0.0197
670.00,-0.0200
669.00,-0.0205
668.00,-0.0212
667.00,-0.0217
666.00,-0.0221
665.00,-0.0223
664.00,-0.0226
663.00,-0.0229
662.00,-0.0233
661.00,-0.0236
660.00,-0.0239
659.00,-0.0243
658.00,-0.0246
657.00,-0.0249
656.00,-0.0252
655.00,-0.0254
654.00,-0.0256
653.00,-0.0258
652.00,-0.0261
651.00,-0.0263
650.00,-0.0265
649.00,-0.0266
648.00,-0.0268
647.00,-0.0269
646.00,-0.0270
645.00,-0.0272
644.00,-0.0273
643.00,-0.0273
642.00,-0.0273
641.00,-0.0272
640.00,-0.0272
639.00,-0.0271
638.00,-0.0269
637.00,-0.0267
636.00,-0.0265
635.00,-0.0264
634.00,-0.0264
633.00,-0.0264
632.00,-0.0264
631.00,-0.0265
630.00,-0.0265
629.00,-0.0265
628.00,-0.0264
627.00,-0.0262
626.00,-0.0261
625.00,-0.0260
624.00,-0.0259
623.00,-0.0258
622.00,-0.0257
621.00,-0.0256
620.00,-0.0256
619.00,-0.0256
618.00,-0.0255
617.00,-0.0255
616.00,-0.0255
615.00,-0.0255
614.00,-0.0255
613.00,-0.0254
612.00,-0.0253
611.00,-0.0250
610.00,-0.0249
609.00,-0.0249
608.00,-0.0250
607.00,-0.0251
606.00,-0.0253
605.00,-0.0255
604.00,-0.0257
603.00,-0.0260
602.00,-0.0263
601.00,-0.0266
600.00,-0.0268
599.00,-0.0269
598.00,-0.0270
597.00,-0.0270
596.00,-0.0269
595.00,-0.0268
594.00,-0.0267
593.00,-0.0266
592.00,-0.0265
591.00,-0.0264
590.00,-0.0263
589.00,-0.0260
588.00,-0.0257
587.00,-0.0253
586.00,-0.0250
585.00,-0.0248
584.00,-0.0246
583.00,-0.0244
582.00,-0.0243
581.00,-0.0244
580.00,-0.0246
579.00,-0.0250
578.00,-0.0255
577.00,-0.0260
576.00,-0.0265
575.00,-0.0269
574.00,-0.0272
573.00,-0.0274
572.00,-0.0277
571.00,-0.0279
570.00,-0.0281
569.00,-0.0282
568.00,-0.0283
567.00,-0.0283
566.00,-0.0282
565.00,-0.0282
564.00,-0.0281
563.00,-0.0280
562.00,-0.0280
561.00,-0.0280
560.00,-0.0281
559.00,-0.0282
558.00,-0.0282
557.00,-0.0282
556.00,-0.0282
555.00,-0.0281
554.00,-0.0281
553.00,-0.0282
552.00,-0.0284
551.00,-0.0286
550.00,-0.0287
549.00,-0.0289
548.00,-0.0290
547.00,-0.0291
546.00,-0.0293
545.00,-0.0296
544.00,-0.0300
543.00,-0.0304
542.00,-0.0307
541.00,-0.0310
540.00,-0.0312
539.00,-0.0315
538.00,-0.0318
537.00,-0.0322
536.00,-0.0327
535.00,-0.0330
534.00,-0.0331
533.00,-0.0332
532.00,-0.0334
531.00,-0.0337
530.00,-0.0340
529.00,-0.0343
528.00,-0.0346
527.00,-0.0349
526.00,-0.0353
525.00,-0.0356
524.00,-0.0359
523.00,-0.0362
522.00,-0.0365
521.00,-0.0368
520.00,-0.0372
519.00,-0.0375
518.00,-0.0377
517.00,-0.0380
516.00,-0.0382
515.00,-0.0385
514.00,-0.0388
513.00,-0.0392
512.00,-0.0395
511.00,-0.0396
510.00,-0.0398
509.00,-0.0400
508.00,-0.0404
507.00,-0.0410
506.00,-0.0415
505.00,-0.0420
504.00,-0.0424
503.00,-0.0426
502.00,-0.0429
501.00,-0.0432
500.00,-0.0435
499.00,-0.0437
498.00,-0.0437
497.00,-0.0438
496.00,-0.0441
495.00,-0.0444
494.00,-0.0446
493.00,-0.0448
492.00,-0.0448
491.00,-0.0447
490.00,-0.0446
489.00,-0.0446
488.00,-0.0448
487.00,-0.0451
486.00,-0.0453
485.00,-0.0454
484.00,-0.0454
483.00,-0.0454
482.00,-0.0455
481.00,-0.0456
480.00,-0.0458
479.00,-0.0459
478.00,-0.0458
477.00,-0.0456
476.00,-0.0455
475.00,-0.0454
474.00,-0.0453
473.00,-0.0452
472.00,-0.0452
471.00,-0.0454
470.00,-0.0455
469.00,-0.0457
468.00,-0.0458
467.00,-0.0458
466.00,-0.0457
465.00,-0.0454
464.00,-0.0452
463.00,-0.0450
462.00,-0.0448
461.00,-0.0446
460.00,-0.0445
459.00,-0.0445
458.00,-0.0445
457.00,-0.0445
456.00,-0.0446
455.00,-0.0445
454.00,-0.0441
453.00,-0.0436
452.00,-0.0432
451.00,-0.0429
450.00,-0.0425
449.00,-0.0420
448.00,-0.0414
447.00,-0.0406
446.00,-0.0397
445.00,-0.0388
444.00,-0.0382
443.00,-0.0376
442.00,-0.0369
441.00,-0.0362
440.00,-0.0354
439.00,-0.0345
438.00,-0.0335
437.00,-0.0325
436.00,-0.0315
435.00,-0.0306
434.00,-0.0298
433.00,-0.0293
432.00,-0.0293
431.00,-0.0294
430.00,-0.0294
429.00,-0.0293
428.00,-0.0290
427.00,-0.0286
426.00,-0.0281
425.00,-0.0277
424.00,-0.0272
423.00,-0.0267
422.00,-0.0262
421.00,-0.0260
420.00,-0.0262
419.00,-0.0264
418.00,-0.0262
417.00,-0.0259
416.00,-0.0258
415.00,-0.0258
414.00,-0.0258
413.00,-0.0258
412.00,-0.0257
411.00,-0.0257
410.00,-0.0257
409.00,-0.0259
408.00,-0.0266
407.00,-0.0275
406.00,-0.0284
405.00,-0.0292
404.00,-0.0295
403.00,-0.0287
402.00,-0.0266
401.00,-0.0241
400.00,-0.0225
