3997.66060,0.04918
3995.60101,0.04878
3993.54142,0.04828
3991.48183,0.04811
3989.42224,0.04791
3987.36265,0.04754
3985.30307,0.04734
3983.24348,0.04737
3981.18389,0.04757
3979.12430,0.04801
3977.06471,0.04827
3975.00513,0.04796
3972.94554,0.04747
3970.88595,0.04732
3968.82636,0.04757
3966.76677,0.04771
3964.70719,0.04731
3962.64760,0.04709
3960.58801,0.04724
3958.52842,0.04693
3956.46883,0.04709
3954.40924,0.04823
3952.34966,0.04898
3950.29007,0.04901
3948.23048,0.04871
3946.17089,0.04831
3944.11130,0.04818
3942.05172,0.04807
3939.99213,0.04767
3937.93254,0.04759
3935.87295,0.04768
3933.81336,0.04721
3931.75377,0.04653
3929.69419,0.04625
3927.63460,0.04640
3925.57501,0.04666
3923.51542,0.04682
3921.45583,0.04719
3919.39625,0.04766
3917.33666,0.04729
3915.27707,0.04640
3913.21748,0.04617
3911.15789,0.04653
3909.09831,0.04693
3907.03872,0.04705
3904.97913,0.04679
3902.91954,0.04649
3900.85995,0.04640
3898.80036,0.04630
3896.74078,0.04608
3894.68119,0.04597
3892.62160,0.04642
3890.56201,0.04730
3888.50242,0.04731
3886.44284,0.04640
3884.38325,0.04587
3882.32366,0.04648
3880.26407,0.04756
3878.20448,0.04756
3876.14489,0.04651
3874.08531,0.04551
3872.02572,0.04517
3869.96613,0.04553
3867.90654,0.04590
3865.84695,0.04613
3863.78737,0.04660
3861.72778,0.04683
3859.66819,0.04640
3857.60860,0.04587
3855.54901,0.04597
3853.48943,0.04649
3851.42984,0.04614
3849.37025,0.04547
3847.31066,0.04512
3845.25107,0.04499
3843.19148,0.04534
3841.13190,0.04592
3839.07231,0.04621
3837.01272,0.04658
3834.95313,0.04669
3832.89354,0.04600
3830.83396,0.04512
3828.77437,0.04446
3826.71478,0.04422
3824.65519,0.04441
3822.59560,0.04497
3820.53601,0.04590
3818.47643,0.04577
3816.41684,0.04456
3814.35725,0.04383
3812.29766,0.04385
3810.23807,0.04408
3808.17849,0.04439
3806.11890,0.04438
3804.05931,0.04416
3801.99972,0.04413
3799.94013,0.04379
3797.88055,0.04363
3795.82096,0.04403
3793.76137,0.04431
3791.70178,0.04443
3789.64219,0.04451
3787.58260,0.04457
3785.52302,0.04459
3783.46343,0.04424
3781.40384,0.04359
3779.34425,0.04323
3777.28466,0.04319
3775.22508,0.04312
3773.16549,0.04302
3771.10590,0.04313
3769.04631,0.04344
3766.98672,0.04371
3764.92713,0.04396
3762.86755,0.04416
3760.80796,0.04419
3758.74837,0.04398
3756.68878,0.04383
3754.62919,0.04372
3752.56961,0.04359
3750.51002,0.04359
3748.45043,0.04358
3746.39084,0.04365
3744.33125,0.04367
3742.27167,0.04328
3740.21208,0.04274
3738.15249,0.04277
3736.09290,0.04360
3734.03331,0.04399
3731.97372,0.04338
3729.91414,0.04260
3727.85455,0.04222
3725.79496,0.04182
3723.73537,0.04092
3721.67578,0.04055
3719.61620,0.04131
3717.55661,0.04206
3715.49702,0.04202
3713.43743,0.04171
3711.37784,0.04160
3709.31825,0.04134
3707.25867,0.04092
3705.19908,0.04074
3703.13949,0.04048
3701.07990,0.04023
3699.02031,0.04033
3696.96073,0.04050
3694.90114,0.04050
3692.84155,0.04035
3690.78196,0.04036
3688.72237,0.04055
3686.66279,0.04034
3684.60320,0.03964
3682.54361,0.03910
3680.48402,0.03953
3678.42443,0.04070
3676.36484,0.04166
3674.30526,0.04187
3672.24567,0.04151
3670.18608,0.04098
3668.12649,0.04043
3666.06690,0.03985
3664.00732,0.03964
3661.94773,0.04016
3659.88814,0.04080
3657.82855,0.04102
3655.76896,0.04110
3653.70937,0.04100
3651.64979,0.04077
3649.59020,0.04118
3647.53061,0.04164
3645.47102,0.04100
3643.41143,0.04004
3641.35185,0.03979
3639.29226,0.04004
3637.23267,0.04015
3635.17308,0.04039
3633.11349,0.04088
3631.05391,0.04144
3628.99432,0.04214
3626.93473,0.04230
3624.87514,0.04142
3622.81555,0.04076
3620.75596,0.04139
3618.69638,0.04245
3616.63679,0.04286
3614.57720,0.04263
3612.51761,0.04236
3610.45802,0.04258
3608.39844,0.04261
3606.33885,0.04239
3604.27926,0.04242
3602.21967,0.04246
3600.16008,0.04263
3598.10049,0.04326
3596.04091,0.04374
3593.98132,0.04381
3591.92173,0.04427
3589.86214,0.04493
3587.80255,0.04517
3585.74297,0.04522
3583.68338,0.04509
3581.62379,0.04474
3579.56420,0.04497
3577.50461,0.04595
3575.44503,0.04653
3573.38544,0.04611
3571.32585,0.04565
3569.26626,0.04608
3567.20667,0.04689
3565.14708,0.04708
3563.08750,0.04671
3561.02791,0.04667
3558.96832,0.04724
3556.90873,0.04784
3554.84914,0.04821
3552.78956,0.04837
3550.72997,0.04839
3548.67038,0.04871
3546.61079,0.04941
3544.55120,0.04977
3542.49161,0.04963
3540.43203,0.04964
3538.37244,0.05012
3536.31285,0.05044
3534.25326,0.05024
3532.19367,0.05024
3530.13409,0.05050
3528.07450,0.05090
3526.01491,0.05150
3523.95532,0.05190
3521.89573,0.05195
3519.83615,0.05175
3517.77656,0.05164
3515.71697,0.05218
3513.65738,0.05314
3511.59779,0.05391
3509.53820,0.05437
3507.47862,0.05424
3505.41903,0.05385
3503.35944,0.05391
3501.29985,0.05400
3499.24026,0.05424
3497.18068,0.05513
3495.12109,0.05604
3493.06150,0.05640
3491.00191,0.05647
3488.94232,0.05654
3486.88273,0.05682
3484.82315,0.05704
3482.76356,0.05681
3480.70397,0.05663
3478.64438,0.05696
3476.58479,0.05760
3474.52521,0.05827
3472.46562,0.05876
3470.40603,0.05915
3468.34644,0.05942
3466.28685,0.05943
3464.22727,0.05957
3462.16768,0.06006
3460.10809,0.06052
3458.04850,0.06071
3455.98891,0.06099
3453.92932,0.06129
3451.86974,0.06107
3449.81015,0.06102
3447.75056,0.06172
3445.69097,0.06262
3443.63138,0.06333
3441.57180,0.06357
3439.51221,0.06326
3437.45262,0.06289
3435.39303,0.06299
3433.33344,0.06347
3431.27385,0.06393
3429.21427,0.06454
3427.15468,0.06553
3425.09509,0.06634
3423.03550,0.06656
3420.97591,0.06647
3418.91633,0.06656
3416.85674,0.06719
3414.79715,0.06812
3412.73756,0.06852
3410.67797,0.06817
3408.61839,0.06796
3406.55880,0.06848
3404.49921,0.06910
3402.43962,0.06925
3400.38003,0.06934
3398.32044,0.06981
3396.26086,0.07049
3394.20127,0.07104
3392.14168,0.07139
3390.08209,0.07166
3388.02250,0.07187
3385.96292,0.07203
3383.90333,0.07250
3381.84374,0.07333
3379.78415,0.07391
3377.72456,0.07419
3375.66497,0.07454
3373.60539,0.07496
3371.54580,0.07541
3369.48621,0.07566
3367.42662,0.07571
3365.36703,0.07627
3363.30745,0.07731
3361.24786,0.07812
3359.18827,0.07853
3357.12868,0.07887
3355.06909,0.07946
3353.00951,0.08015
3350.94992,0.08043
3348.89033,0.08058
3346.83074,0.08089
3344.77115,0.08140
3342.71156,0.08232
3340.65198,0.08341
3338.59239,0.08427
3336.53280,0.08480
3334.47321,0.08535
3332.41362,0.08616
3330.35404,0.08677
3328.29445,0.08748
3326.23486,0.08865
3324.17527,0.08939
3322.11568,0.08958
3320.05609,0.09021
3317.99651,0.09166
3315.93692,0.09311
3313.87733,0.09394
3311.81774,0.09467
3309.75815,0.09577
3307.69857,0.09697
3305.63898,0.09814
3303.57939,0.09940
3301.51980,0.10062
3299.46021,0.10161
3297.40063,0.10243
3295.34104,0.10333
3293.28145,0.10436
3291.22186,0.10508
3289.16227,0.10542
3287.10268,0.10590
3285.04310,0.10688
3282.98351,0.10790
3280.92392,0.10853
3278.86433,0.10881
3276.80474,0.10916
3274.74516,0.10989
3272.68557,0.11066
3270.62598,0.11119
3268.56639,0.11131
3266.50680,0.11106
3264.44721,0.11044
3262.38763,0.10961
3260.32804,0.10923
3258.26845,0.10934
3256.20886,0.10903
3254.14927,0.10802
3252.08969,0.10700
3250.03010,0.10641
3247.97051,0.10602
3245.91092,0.10562
3243.85133,0.10517
3241.79175,0.10439
3239.73216,0.10345
3237.67257,0.10287
3235.61298,0.10221
3233.55339,0.10100
3231.49380,0.09995
3229.43422,0.09973
3227.37463,0.09981
3225.31504,0.09944
3223.25545,0.09867
3221.19586,0.09802
3219.13628,0.09783
3217.07669,0.09779
3215.01710,0.09729
3212.95751,0.09668
3210.89792,0.09653
3208.83833,0.09650
3206.77875,0.09613
3204.71916,0.09544
3202.65957,0.09474
3200.59998,0.09416
3198.54039,0.09351
3196.48081,0.09278
3194.42122,0.09227
3192.36163,0.09237
3190.30204,0.09259
3188.24245,0.09197
3186.18287,0.09101
3184.12328,0.09055
3182.06369,0.09034
3180.00410,0.08998
3177.94451,0.08941
3175.88492,0.08856
3173.82534,0.08755
3171.76575,0.08665
3169.70616,0.08599
3167.64657,0.08561
3165.58698,0.08527
3163.52740,0.08458
3161.46781,0.08376
3159.40822,0.08325
3157.34863,0.08290
3155.28904,0.08234
3153.22945,0.08168
3151.16987,0.08117
3149.11028,0.08076
3147.05069,0.08014
3144.99110,0.07929
3142.93151,0.07846
3140.87193,0.07797
3138.81234,0.07780
3136.75275,0.07756
3134.69316,0.07716
3132.63357,0.07687
3130.57399,0.07678
3128.51440,0.07649
3126.45481,0.07601
3124.39522,0.07562
3122.33563,0.07531
3120.27604,0.07525
3118.21646,0.07514
3116.15687,0.07446
3114.09728,0.07365
3112.03769,0.07319
3109.97810,0.07302
3107.91852,0.07291
3105.85893,0.07283
3103.79934,0.07302
3101.73975,0.07325
3099.68016,0.07330
3097.62057,0.07334
3095.56099,0.07318
3093.50140,0.07278
3091.44181,0.07273
3089.38222,0.07296
3087.32263,0.07319
3085.26305,0.07356
3083.20346,0.07377
3081.14387,0.07366
3079.08428,0.07359
3077.02469,0.07356
3074.96511,0.07340
3072.90552,0.07325
3070.84593,0.07323
3068.78634,0.07335
3066.72675,0.07342
3064.66716,0.07328
3062.60758,0.07299
3060.54799,0.07279
3058.48840,0.07264
3056.42881,0.07249
3054.36922,0.07239
3052.30964,0.07220
3050.25005,0.07216
3048.19046,0.07221
3046.13087,0.07192
3044.07128,0.07137
3042.01169,0.07088
3039.95211,0.07049
3037.89252,0.07007
3035.83293,0.06984
3033.77334,0.06978
3031.71375,0.06952
3029.65417,0.06909
3027.59458,0.06869
3025.53499,0.06826
3023.47540,0.06764
3021.41581,0.06687
3019.35623,0.06626
3017.29664,0.06585
3015.23705,0.06554
3013.17746,0.06548
3011.11787,0.06523
3009.05828,0.06455
3006.99870,0.06413
3004.93911,0.06427
3002.87952,0.06428
3000.81993,0.06390
2998.76034,0.06377
2996.70076,0.06390
2994.64117,0.06401
2992.58158,0.06408
2990.52199,0.06418
2988.46240,0.06458
2986.40281,0.06519
2984.34323,0.06559
2982.28364,0.06610
2980.22405,0.06713
2978.16446,0.06795
2976.10487,0.06803
2974.04529,0.06794
2971.98570,0.06833
2969.92611,0.06925
2967.86652,0.07019
2965.80693,0.07082
2963.74735,0.07114
2961.68776,0.07127
2959.62817,0.07132
2957.56858,0.07112
2955.50899,0.07075
2953.44940,0.07051
2951.38982,0.07038
2949.33023,0.07017
2947.27064,0.07001
2945.21105,0.07031
2943.15146,0.07090
2941.09188,0.07125
2939.03229,0.07152
2936.97270,0.07194
2934.91311,0.07237
2932.85352,0.07277
2930.79393,0.07298
2928.73435,0.07306
2926.67476,0.07296
2924.61517,0.07277
2922.55558,0.07287
2920.49599,0.07300
2918.43641,0.07279
2916.37682,0.07235
2914.31723,0.07172
2912.25764,0.07093
2910.19805,0.07011
2908.13847,0.06926
2906.07888,0.06849
2904.01929,0.06788
2901.95970,0.06725
2899.90011,0.06655
2897.84052,0.06593
2895.78094,0.06553
2893.72135,0.06522
2891.66176,0.06489
2889.60217,0.06481
2887.54258,0.06517
2885.48300,0.06568
2883.42341,0.06588
2881.36382,0.06582
2879.30423,0.06595
2877.24464,0.06627
2875.18505,0.06641
2873.12547,0.06633
2871.06588,0.06610
2869.00629,0.06566
2866.94670,0.06498
2864.88711,0.06434
2862.82753,0.06414
2860.76794,0.06413
2858.70835,0.06384
2856.64876,0.06341
2854.58917,0.06329
2852.52959,0.06355
2850.47000,0.06387
2848.41041,0.06369
2846.35082,0.06285
2844.29123,0.06184
2842.23164,0.06094
2840.17206,0.05999
2838.11247,0.05900
2836.05288,0.05852
2833.99329,0.05867
2831.93370,0.05873
2829.87412,0.05842
2827.81453,0.05817
2825.75494,0.05806
2823.69535,0.05796
2821.63576,0.05779
2819.57617,0.05757
2817.51659,0.05739
2815.45700,0.05724
2813.39741,0.05690
2811.33782,0.05649
2809.27823,0.05640
2807.21865,0.05652
2805.15906,0.05651
2803.09947,0.05649
2801.03988,0.05654
2798.98029,0.05636
2796.92071,0.05607
2794.86112,0.05585
2792.80153,0.05554
2790.74194,0.05506
2788.68235,0.05470
2786.62276,0.05476
2784.56318,0.05493
2782.50359,0.05483
2780.44400,0.05471
2778.38441,0.05470
2776.32482,0.05459
2774.26524,0.05424
2772.20565,0.05395
2770.14606,0.05405
2768.08647,0.05423
2766.02688,0.05408
2763.96729,0.05382
2761.90771,0.05379
2759.84812,0.05387
2757.78853,0.05384
2755.72894,0.05362
2753.66935,0.05327
2751.60977,0.05311
2749.55018,0.05323
2747.49059,0.05317
2745.43100,0.05285
2743.37141,0.05274
2741.31183,0.05279
2739.25224,0.05254
2737.19265,0.05219
2735.13306,0.05215
2733.07347,0.05215
2731.01388,0.05188
2728.95430,0.05148
2726.89471,0.05116
2724.83512,0.05113
2722.77553,0.05143
2720.71594,0.05156
2718.65636,0.05125
2716.59677,0.05090
2714.53718,0.05064
2712.47759,0.05033
2710.41800,0.05024
2708.35841,0.05046
2706.29883,0.05058
2704.23924,0.05043
2702.17965,0.05020
2700.12006,0.05004
2698.06047,0.04980
2696.00089,0.04940
2693.94130,0.04919
2691.88171,0.04934
2689.82212,0.04948
2687.76253,0.04945
2685.70295,0.04934
2683.64336,0.04915
2681.58377,0.04914
2679.52418,0.04939
2677.46459,0.04950
2675.40500,0.04933
2673.34542,0.04914
2671.28583,0.04894
2669.22624,0.04864
2667.16665,0.04849
2665.10706,0.04862
2663.04748,0.04881
2660.98789,0.04889
2658.92830,0.04881
2656.86871,0.04847
2654.80912,0.04809
2652.74953,0.04788
2650.68995,0.04776
2648.63036,0.04780
2646.57077,0.04784
2644.51118,0.04773
2642.45159,0.04760
2640.39201,0.04756
2638.33242,0.04748
2636.27283,0.04739
2634.21324,0.04753
2632.15365,0.04762
2630.09407,0.04736
2628.03448,0.04690
2625.97489,0.04644
2623.91530,0.04609
2621.85571,0.04606
2619.79612,0.04619
2617.73654,0.04603
2615.67695,0.04593
2613.61736,0.04618
2611.55777,0.04625
2609.49818,0.04595
2607.43860,0.04557
2605.37901,0.04520
2603.31942,0.04480
2601.25983,0.04460
2599.20024,0.04436
2597.14065,0.04405
2595.08107,0.04423
2593.02148,0.04460
2590.96189,0.04445
2588.90230,0.04379
2586.84271,0.04337
2584.78313,0.04354
2582.72354,0.04345
2580.66395,0.04286
2578.60436,0.04268
2576.54477,0.04288
2574.48519,0.04293
2572.42560,0.04312
2570.36601,0.04338
2568.30642,0.04340
2566.24683,0.04334
2564.18724,0.04307
2562.12766,0.04253
2560.06807,0.04210
2558.00848,0.04188
2555.94889,0.04166
2553.88930,0.04149
2551.82972,0.04158
2549.77013,0.04204
2547.71054,0.04258
2545.65095,0.04264
2543.59136,0.04217
2541.53177,0.04155
2539.47219,0.04134
2537.41260,0.04149
2535.35301,0.04161
2533.29342,0.04174
2531.23383,0.04174
2529.17425,0.04138
2527.11466,0.04109
2525.05507,0.04134
2522.99548,0.04152
2520.93589,0.04113
2518.87631,0.04068
2516.81672,0.04058
2514.75713,0.04049
2512.69754,0.04028
2510.63795,0.04035
2508.57836,0.04036
2506.51878,0.04012
2504.45919,0.04017
2502.39960,0.04048
2500.34001,0.04062
2498.28042,0.04054
2496.22084,0.04052
2494.16125,0.04065
2492.10166,0.04079
2490.04207,0.04053
2487.98248,0.03976
2485.92289,0.03903
2483.86331,0.03877
2481.80372,0.03893
2479.74413,0.03924
2477.68454,0.03933
2475.62495,0.03919
2473.56537,0.03916
2471.50578,0.03934
2469.44619,0.03939
2467.38660,0.03938
2465.32701,0.03956
2463.26743,0.03963
2461.20784,0.03942
2459.14825,0.03929
2457.08866,0.03955
2455.02907,0.03975
2452.96948,0.03954
2450.90990,0.03934
2448.85031,0.03934
2446.79072,0.03932
2444.73113,0.03910
2442.67154,0.03886
2440.61196,0.03876
2438.55237,0.03865
2436.49278,0.03842
2434.43319,0.03820
2432.37360,0.03816
2430.31401,0.03820
2428.25443,0.03829
2426.19484,0.03854
2424.13525,0.03874
2422.07566,0.03875
2420.01607,0.03860
2417.95649,0.03821
2415.89690,0.03770
2413.83731,0.03721
2411.77772,0.03694
2409.71813,0.03721
2407.65855,0.03757
2405.59896,0.03754
2403.53937,0.03739
2401.47978,0.03745
2399.42019,0.03750
2397.36060,0.03724
2395.30102,0.03694
2393.24143,0.03690
2391.18184,0.03714
2389.12225,0.03740
2387.06266,0.03748
2385.00308,0.03753
2382.94349,0.03767
2380.88390,0.03770
2378.82431,0.03742
2376.76472,0.03719
2374.70513,0.03727
2372.64555,0.03719
2370.58596,0.03686
2368.52637,0.03703
2366.46678,0.03790
2364.40719,0.03858
2362.34761,0.03816
2360.28802,0.03699
2358.22843,0.03625
2356.16884,0.03645
2354.10925,0.03678
2352.04967,0.03709
2349.99008,0.03752
2347.93049,0.03787
2345.87090,0.03802
2343.81131,0.03771
2341.75172,0.03722
2339.69214,0.03701
2337.63255,0.03692
2335.57296,0.03680
2333.51337,0.03671
2331.45378,0.03679
2329.39420,0.03716
2327.33461,0.03797
2325.27502,0.03868
2323.21543,0.03846
2321.15584,0.03776
2319.09625,0.03765
2317.03667,0.03792
2314.97708,0.03762
2312.91749,0.03694
2310.85790,0.03669
2308.79831,0.03686
2306.73873,0.03667
2304.67914,0.03581
2302.61955,0.03518
2300.55996,0.03538
2298.50037,0.03585
2296.44079,0.03589
2294.38120,0.03556
2292.32161,0.03539
2290.26202,0.03562
2288.20243,0.03559
2286.14284,0.03503
2284.08326,0.03467
2282.02367,0.03461
2279.96408,0.03445
2277.90449,0.03402
2275.84490,0.03366
2273.78532,0.03352
2271.72573,0.03319
2269.66614,0.03279
2267.60655,0.03263
2265.54696,0.03238
2263.48737,0.03193
2261.42779,0.03199
2259.36820,0.03266
2257.30861,0.03294
2255.24902,0.03251
2253.18943,0.03196
2251.12985,0.03180
2249.07026,0.03187
2247.01067,0.03210
2244.95108,0.03246
2242.89149,0.03217
2240.83191,0.03157
2238.77232,0.03155
2236.71273,0.03149
2234.65314,0.03134
2232.59355,0.03139
2230.53396,0.03148
2228.47438,0.03148
2226.41479,0.03087
2224.35520,0.02954
2222.29561,0.02893
2220.23602,0.02950
2218.17644,0.02973
2216.11685,0.02980
2214.05726,0.03042
2211.99767,0.03060
2209.93808,0.03022
2207.87849,0.03001
2205.81891,0.02975
2203.75932,0.02905
2201.69973,0.02797
2199.64014,0.02740
2197.58055,0.02773
2195.52097,0.02802
2193.46138,0.02819
2191.40179,0.02852
2189.34220,0.02813
2187.28261,0.02683
2185.22303,0.02584
2183.16344,0.02610
2181.10385,0.02757
2179.04426,0.02854
2176.98467,0.02797
2174.92508,0.02755
2172.86550,0.02782
2170.80591,0.02790
2168.74632,0.02751
2166.68673,0.02676
2164.62714,0.02620
2162.56756,0.02543
2160.50797,0.02360
2158.44838,0.02195
2156.38879,0.02196
2154.32920,0.02293
2152.26961,0.02366
2150.21003,0.02377
2148.15044,0.02396
2146.09085,0.02518
2144.03126,0.02646
2141.97167,0.02679
2139.91209,0.02692
2137.85250,0.02738
2135.79291,0.02790
2133.73332,0.02762
2131.67373,0.02690
2129.61415,0.02692
2127.55456,0.02757
2125.49497,0.02798
2123.43538,0.02783
2121.37579,0.02753
2119.31620,0.02759
2117.25662,0.02798
2115.19703,0.02819
2113.13744,0.02800
2111.07785,0.02792
2109.01826,0.02802
2106.95868,0.02786
2104.89909,0.02786
2102.83950,0.02820
2100.77991,0.02787
2098.72032,0.02692
2096.66073,0.02643
2094.60115,0.02679
2092.54156,0.02739
2090.48197,0.02772
2088.42238,0.02796
2086.36279,0.02817
2084.30321,0.02845
2082.24362,0.02873
2080.18403,0.02831
2078.12444,0.02770
2076.06485,0.02759
2074.00527,0.02724
2071.94568,0.02653
2069.88609,0.02640
2067.82650,0.02652
2065.76691,0.02643
2063.70732,0.02672
2061.64774,0.02681
2059.58815,0.02626
2057.52856,0.02576
2055.46897,0.02560
2053.40938,0.02571
2051.34980,0.02565
2049.29021,0.02501
2047.23062,0.02444
2045.17103,0.02440
2043.11144,0.02422
2041.05185,0.02363
2038.99227,0.02282
2036.93268,0.02232
2034.87309,0.02306
2032.81350,0.02373
2030.75391,0.02283
2028.69433,0.02176
2026.63474,0.02172
2024.57515,0.02201
2022.51556,0.02204
2020.45597,0.02173
2018.39639,0.02073
2016.33680,0.01997
2014.27721,0.02056
2012.21762,0.02164
2010.15803,0.02212
2008.09844,0.02212
2006.03886,0.02185
2003.97927,0.02134
2001.91968,0.02116
1999.86009,0.02133
1997.80050,0.02148
1995.74092,0.02150
1993.68133,0.02126
1991.62174,0.02103
1989.56215,0.02102
1987.50256,0.02153
1985.44297,0.02286
1983.38339,0.02371
1981.32380,0.02295
1979.26421,0.02156
1977.20462,0.02030
1975.14503,0.01865
1973.08545,0.01761
1971.02586,0.01845
1968.96627,0.02010
1966.90668,0.02103
1964.84709,0.02106
1962.78751,0.02078
1960.72792,0.02064
1958.66833,0.02076
1956.60874,0.02080
1954.54915,0.02092
1952.48956,0.02122
1950.42998,0.02113
1948.37039,0.02101
1946.31080,0.02162
1944.25121,0.02206
1942.19162,0.02159
1940.13204,0.02095
1938.07245,0.02058
1936.01286,0.02053
1933.95327,0.02080
1931.89368,0.02130
1929.83409,0.02177
1927.77451,0.02198
1925.71492,0.02193
1923.65533,0.02159
1921.59574,0.02117
1919.53615,0.02113
1917.47657,0.02128
1915.41698,0.02123
1913.35739,0.02135
1911.29780,0.02189
1909.23821,0.02237
1907.17863,0.02237
1905.11904,0.02219
1903.05945,0.02195
1900.99986,0.02166
1898.94027,0.02165
1896.88068,0.02184
1894.82110,0.02178
1892.76151,0.02145
1890.70192,0.02121
1888.64233,0.02109
1886.58274,0.02098
1884.52316,0.02092
1882.46357,0.02095
1880.40398,0.02113
1878.34439,0.02134
1876.28480,0.02134
1874.22521,0.02107
1872.16563,0.02087
1870.10604,0.02098
1868.04645,0.02101
1865.98686,0.02058
1863.92727,0.02019
1861.86769,0.02010
1859.80810,0.02011
1857.74851,0.02002
1855.68892,0.01983
1853.62933,0.01985
1851.56975,0.02002
1849.51016,0.01990
1847.45057,0.01976
1845.39098,0.01979
1843.33139,0.01960
1841.27180,0.01928
1839.21222,0.01931
1837.15263,0.01955
1835.09304,0.01937
1833.03345,0.01901
1830.97386,0.01894
1828.91428,0.01893
1826.85469,0.01892
1824.79510,0.01890
1822.73551,0.01889
1820.67592,0.01882
1818.61633,0.01844
1816.55675,0.01791
1814.49716,0.01791
1812.43757,0.01834
1810.37798,0.01852
1808.31839,0.01835
1806.25881,0.01820
1804.19922,0.01807
1802.13963,0.01782
1800.08004,0.01768
1798.02045,0.01781
1795.96087,0.01798
1793.90128,0.01806
1791.84169,0.01794
1789.78210,0.01748
1787.72251,0.01712
1785.66292,0.01709
1783.60334,0.01711
1781.54375,0.01699
1779.48416,0.01682
1777.42457,0.01661
1775.36498,0.01636
1773.30540,0.01626
1771.24581,0.01626
1769.18622,0.01612
1767.12663,0.01590
1765.06704,0.01575
1763.00745,0.01576
1760.94787,0.01587
1758.88828,0.01589
1756.82869,0.01567
1754.76910,0.01538
1752.70951,0.01531
1750.64993,0.01528
1748.59034,0.01505
1746.53075,0.01491
1744.47116,0.01492
1742.41157,0.01487
1740.35199,0.01468
1738.29240,0.01451
1736.23281,0.01449
1734.17322,0.01450
1732.11363,0.01441
1730.05404,0.01430
1727.99446,0.01421
1725.93487,0.01414
1723.87528,0.01412
1721.81569,0.01408
1719.75610,0.01400
1717.69652,0.01407
1715.63693,0.01444
1713.57734,0.01492
1711.51775,0.01559
1709.45816,0.01668
1707.39857,0.01828
1705.33899,0.02049
1703.27940,0.02310
1701.21981,0.02670
1699.16022,0.03115
1697.10063,0.03444
1695.04105,0.03682
1692.98146,0.03879
1690.92187,0.04066
1688.86228,0.04274
1686.80269,0.04482
1684.74311,0.04762
1682.68352,0.05095
1680.62393,0.05358
1678.56434,0.05596
1676.50475,0.05860
1674.44516,0.06163
1672.38558,0.06451
1670.32599,0.06754
1668.26640,0.07096
1666.20681,0.07394
1664.14722,0.07683
1662.08764,0.08003
1660.02805,0.08294
1657.96846,0.08533
1655.90887,0.08741
1653.84928,0.08994
1651.78969,0.09265
1649.73011,0.09393
1647.67052,0.09482
1645.61093,0.09591
1643.55134,0.09659
1641.49175,0.09700
1639.43217,0.09740
1637.37258,0.09790
1635.31299,0.09876
1633.25340,0.09955
1631.19381,0.10009
1629.13423,0.10079
1627.07464,0.10168
1625.01505,0.10269
1622.95546,0.10385
1620.89587,0.10462
1618.83628,0.10478
1616.77670,0.10448
1614.71711,0.10341
1612.65752,0.10159
1610.59793,0.09928
1608.53834,0.09649
1606.47876,0.09321
1604.41917,0.08972
1602.35958,0.08626
1600.29999,0.08287
1598.24040,0.07961
1596.18081,0.07650
1594.12123,0.07355
1592.06164,0.07087
1590.00205,0.06846
1587.94246,0.06631
1585.88287,0.06435
1583.82329,0.06260
1581.76370,0.06110
1579.70411,0.06001
1577.64452,0.05940
1575.58493,0.05909
1573.52535,0.05881
1571.46576,0.05875
1569.40617,0.05923
1567.34658,0.06000
1565.28699,0.06095
1563.22740,0.06215
1561.16782,0.06370
1559.10823,0.06627
1557.04864,0.06888
1554.98905,0.07075
1552.92946,0.07279
1550.86988,0.07507
1548.81029,0.07743
1546.75070,0.07970
1544.69111,0.08193
1542.63152,0.08419
1540.57193,0.08663
1538.51235,0.08873
1536.45276,0.08983
1534.39317,0.09093
1532.33358,0.09243
1530.27399,0.09376
1528.21441,0.09498
1526.15482,0.09627
1524.09523,0.09745
1522.03564,0.09879
1519.97605,0.10022
1517.91647,0.10143
1515.85688,0.10255
1513.79729,0.10313
1511.73770,0.10299
1509.67811,0.10255
1507.61852,0.10182
1505.55894,0.10037
1503.49935,0.09852
1501.43976,0.09669
1499.38017,0.09484
1497.32058,0.09282
1495.26100,0.09035
1493.20141,0.08773
1491.14182,0.08508
1489.08223,0.08219
1487.02264,0.07920
1484.96305,0.07643
1482.90347,0.07395
1480.84388,0.07175
1478.78429,0.06997
1476.72470,0.06858
1474.66511,0.06753
1472.60553,0.06679
1470.54594,0.06637
1468.48635,0.06608
1466.42676,0.06580
1464.36717,0.06551
1462.30759,0.06522
1460.24800,0.06514
1458.18841,0.06568
1456.12882,0.06671
1454.06923,0.06731
1452.00964,0.06755
1449.95006,0.06775
1447.89047,0.06786
1445.83088,0.06772
1443.77129,0.06728
1441.71170,0.06661
1439.65212,0.06585
1437.59253,0.06510
1435.53294,0.06413
1433.47335,0.06291
1431.41376,0.06172
1429.35417,0.06080
1427.29459,0.06023
1425.23500,0.05985
1423.17541,0.05970
1421.11582,0.05981
1419.05623,0.06015
1416.99665,0.06046
1414.93706,0.06064
1412.87747,0.06088
1410.81788,0.06110
1408.75829,0.06122
1406.69871,0.06138
1404.63912,0.06151
1402.57953,0.06148
1400.51994,0.06143
1398.46035,0.06144
1396.40076,0.06132
1394.34118,0.06107
1392.28159,0.06086
1390.22200,0.06081
1388.16241,0.06090
1386.10282,0.06091
1384.04324,0.06068
1381.98365,0.06028
1379.92406,0.05986
1377.86447,0.05951
1375.80488,0.05919
1373.74529,0.05889
1371.68571,0.05864
1369.62612,0.05839
1367.56653,0.05807
1365.50694,0.05761
1363.44735,0.05699
1361.38777,0.05630
1359.32818,0.05571
1357.26859,0.05523
1355.20900,0.05480
1353.14941,0.05441
1351.08983,0.05409
1349.03024,0.05385
1346.97065,0.05373
1344.91106,0.05375
1342.85147,0.05381
1340.79188,0.05385
1338.73230,0.05386
1336.67271,0.05385
1334.61312,0.05385
1332.55353,0.05381
1330.49394,0.05370
1328.43436,0.05358
1326.37477,0.05343
1324.31518,0.05322
1322.25559,0.05304
1320.19600,0.05290
1318.13641,0.05275
1316.07683,0.05267
1314.01724,0.05268
1311.95765,0.05267
1309.89806,0.05260
1307.83847,0.05250
1305.77889,0.05232
1303.71930,0.05205
1301.65971,0.05183
1299.60012,0.05166
1297.54053,0.05144
1295.48095,0.05113
1293.42136,0.05090
1291.36177,0.05082
1289.30218,0.05079
1287.24259,0.05068
1285.18300,0.05046
1283.12342,0.05024
1281.06383,0.05020
1279.00424,0.05032
1276.94465,0.05037
1274.88506,0.05020
1272.82548,0.04999
1270.76589,0.04994
1268.70630,0.05003
1266.64671,0.05014
1264.58712,0.05024
1262.52753,0.05046
1260.46795,0.05080
1258.40836,0.05114
1256.34877,0.05147
1254.28918,0.05188
1252.22959,0.05238
1250.17001,0.05292
1248.11042,0.05337
1246.05083,0.05367
1243.99124,0.05396
1241.93165,0.05433
1239.87207,0.05467
1237.81248,0.05494
1235.75289,0.05525
1233.69330,0.05544
1231.63371,0.05538
1229.57412,0.05527
1227.51454,0.05521
1225.45495,0.05504
1223.39536,0.05470
1221.33577,0.05435
1219.27618,0.05396
1217.21660,0.05347
1215.15701,0.05289
1213.09742,0.05226
1211.03783,0.05160
1208.97824,0.05090
1206.91865,0.05018
1204.85907,0.04947
1202.79948,0.04875
1200.73989,0.04800
1198.68030,0.04728
1196.62071,0.04661
1194.56113,0.04608
1192.50154,0.04563
1190.44195,0.04513
1188.38236,0.04455
1186.32277,0.04400
1184.26319,0.04360
1182.20360,0.04341
1180.14401,0.04336
1178.08442,0.04332
1176.02483,0.04337
1173.96524,0.04367
1171.90566,0.04406
1169.84607,0.04434
1167.78648,0.04452
1165.72689,0.04462
1163.66730,0.04463
1161.60772,0.04466
1159.54813,0.04461
1157.48854,0.04444
1155.42895,0.04422
1153.36936,0.04390
1151.30977,0.04348
1149.25019,0.04304
1147.19060,0.04253
1145.13101,0.04200
1143.07142,0.04145
1141.01183,0.04092
1138.95225,0.04061
1136.89266,0.04051
1134.83307,0.04036
1132.77348,0.04012
1130.71389,0.03997
1128.65431,0.03994
1126.59472,0.03985
1124.53513,0.03963
1122.47554,0.03941
1120.41595,0.03920
1118.35636,0.03900
1116.29678,0.03884
1114.23719,0.03863
1112.17760,0.03834
1110.11801,0.03815
1108.05842,0.03810
1105.99884,0.03810
1103.93925,0.03809
1101.87966,0.03799
1099.82007,0.03778
1097.76048,0.03759
1095.70089,0.03753
1093.64131,0.03761
1091.58172,0.03780
1089.52213,0.03808
1087.46254,0.03846
1085.40295,0.03896
1083.34337,0.03958
1081.28378,0.04028
1079.22419,0.04091
1077.16460,0.04148
1075.10501,0.04208
1073.04543,0.04268
1070.98584,0.04318
1068.92625,0.04360
1066.86666,0.04399
1064.80707,0.04435
1062.74748,0.04460
1060.68790,0.04471
1058.62831,0.04468
1056.56872,0.04448
1054.50913,0.04416
1052.44954,0.04377
1050.38996,0.04346
1048.33037,0.04330
1046.27078,0.04313
1044.21119,0.04283
1042.15160,0.04241
1040.09201,0.04192
1038.03243,0.04143
1035.97284,0.04099
1033.91325,0.04061
1031.85366,0.04023
1029.79407,0.03977
1027.73449,0.03929
1025.67490,0.03874
1023.61531,0.03808
1021.55572,0.03745
1019.49613,0.03691
1017.43655,0.03636
1015.37696,0.03583
1013.31737,0.03535
1011.25778,0.03481
1009.19819,0.03424
1007.13860,0.03379
1005.07902,0.03341
1003.01943,0.03302
1000.95984,0.03268
998.90025,0.03233
996.84066,0.03199
994.78108,0.03179
992.72149,0.03157
990.66190,0.03120
988.60231,0.03084
986.54272,0.03058
984.48313,0.03039
982.42355,0.03024
980.36396,0.03009
978.30437,0.02998
976.24478,0.02986
974.18519,0.02971
972.12561,0.02961
970.06602,0.02958
968.00643,0.02958
965.94684,0.02965
963.88725,0.02977
961.82767,0.02981
959.76808,0.02975
957.70849,0.02961
955.64890,0.02938
953.58931,0.02919
951.52972,0.02910
949.47014,0.02907
947.41055,0.02905
945.35096,0.02895
943.29137,0.02872
941.23178,0.02853
939.17220,0.02851
937.11261,0.02852
935.05302,0.02841
932.99343,0.02822
930.93384,0.02807
928.87425,0.02794
926.81467,0.02783
924.75508,0.02772
922.69549,0.02752
920.63590,0.02724
918.57631,0.02705
916.51673,0.02695
914.45714,0.02684
912.39755,0.02673
910.33796,0.02664
908.27837,0.02652
906.21879,0.02640
904.15920,0.02643
902.09961,0.02660
900.04002,0.02661
897.98043,0.02645
895.92084,0.02627
893.86126,0.02605
891.80167,0.02578
889.74208,0.02552
887.68249,0.02540
885.62290,0.02536
883.56332,0.02522
881.50373,0.02502
879.44414,0.02486
877.38455,0.02471
875.32496,0.02458
873.26537,0.02445
871.20579,0.02429
869.14620,0.02422
867.08661,0.02423
865.02702,0.02420
862.96743,0.02407
860.90785,0.02374
858.84826,0.02334
856.78867,0.02313
854.72908,0.02314
852.66949,0.02313
850.60991,0.02308
848.55032,0.02314
846.49073,0.02326
844.43114,0.02319
842.37155,0.02296
840.31196,0.02282
838.25238,0.02276
836.19279,0.02273
834.13320,0.02273
832.07361,0.02282
830.01402,0.02300
827.95444,0.02311
825.89485,0.02304
823.83526,0.02289
821.77567,0.02276
819.71608,0.02273
817.65649,0.02285
815.59691,0.02299
813.53732,0.02310
811.47773,0.02318
809.41814,0.02316
807.35855,0.02317
805.29897,0.02328
803.23938,0.02331
801.17979,0.02321
799.12020,0.02316
797.06061,0.02322
795.00103,0.02318
792.94144,0.02311
790.88185,0.02324
788.82226,0.02353
786.76267,0.02382
784.70308,0.02401
782.64350,0.02413
780.58391,0.02417
778.52432,0.02426
776.46473,0.02449
774.40514,0.02467
772.34556,0.02461
770.28597,0.02451
768.22638,0.02458
766.16679,0.02472
764.10720,0.02484
762.04761,0.02495
759.98803,0.02498
757.92844,0.02504
755.86885,0.02523
753.80926,0.02548
751.74967,0.02570
749.69009,0.02589
747.63050,0.02601
745.57091,0.02605
743.51132,0.02608
741.45173,0.02614
739.39215,0.02623
737.33256,0.02622
735.27297,0.02611
733.21338,0.02609
731.15379,0.02626
729.09420,0.02649
727.03462,0.02678
724.97503,0.02712
722.91544,0.02744
720.85585,0.02782
718.79626,0.02832
716.73668,0.02884
714.67709,0.02936
712.61750,0.02989
710.55791,0.03042
708.49832,0.03104
706.43873,0.03168
704.37915,0.03235
702.31956,0.03310
700.25997,0.03369
698.20038,0.03401
696.14079,0.03417
694.08121,0.03428
692.02162,0.03438
689.96203,0.03437
687.90244,0.03432
685.84285,0.03437
683.78327,0.03441
681.72368,0.03445
679.66409,0.03458
677.60450,0.03469
675.54491,0.03475
673.48532,0.03478
671.42574,0.03468
669.36615,0.03464
667.30656,0.03477
665.24697,0.03484
663.18738,0.03489
661.12780,0.03497
659.06821,0.03503
657.00862,0.03512
654.94903,0.03529
652.88944,0.03539
650.82985,0.03538
648.77027,0.03550
646.71068,0.03572
644.65109,0.03594
642.59150,0.03604
640.53191,0.03606
638.47233,0.03609
636.41274,0.03612
634.35315,0.03626
632.29356,0.03651
630.23397,0.03661
628.17439,0.03646
626.11480,0.03640
624.05521,0.03661
621.99562,0.03676
619.93603,0.03671
617.87644,0.03659
615.81686,0.03644
613.75727,0.03634
611.69768,0.03647
609.63809,0.03666
607.57850,0.03656
605.51892,0.03622
603.45933,0.03587
601.39974,0.03571
599.34015,0.03571
597.28056,0.03572
595.22097,0.03572
593.16139,0.03584
591.10180,0.03586
589.04221,0.03568
586.98262,0.03565
584.92303,0.03579
582.86345,0.03585
580.80386,0.03585
578.74427,0.03591
576.68468,0.03596
574.62509,0.03581
572.56551,0.03571
570.50592,0.03579
568.44633,0.03575
566.38674,0.03577
564.32715,0.03593
562.26756,0.03596
560.20798,0.03595
558.14839,0.03601
556.08880,0.03592
554.02921,0.03571
551.96962,0.03562
549.91004,0.03562
547.85045,0.03560
545.79086,0.03555
543.73127,0.03548
541.67168,0.03540
539.61209,0.03526
537.55251,0.03496
535.49292,0.03465
533.43333,0.03471
531.37374,0.03501
529.31415,0.03502
527.25457,0.03479
525.19498,0.03465
523.13539,0.03466
521.07580,0.03470
519.01621,0.03480
516.95663,0.03475
514.89704,0.03430
512.83745,0.03393
510.77786,0.03404
508.71827,0.03425
506.65868,0.03435
504.59910,0.03436
502.53951,0.03411
500.47992,0.03367
498.42033,0.03340
496.36074,0.03338
494.30116,0.03331
492.24157,0.03307
490.18198,0.03295
488.12239,0.03286
486.06280,0.03258
484.00321,0.03232
481.94363,0.03218
479.88404,0.03225
477.82445,0.03240
475.76486,0.03226
473.70527,0.03188
471.64569,0.03155
469.58610,0.03147
467.52651,0.03175
465.46692,0.03199
463.40733,0.03167
461.34775,0.03120
459.28816,0.03120
457.22857,0.03150
455.16898,0.03148
453.10939,0.03107
451.04980,0.03071
448.99022,0.03068
446.93063,0.03068
444.87104,0.03043
442.81145,0.02997
440.75186,0.02937
438.69228,0.02879
436.63269,0.02856
434.57310,0.02872
432.51351,0.02880
430.45392,0.02846
428.39433,0.02808
426.33475,0.02807
424.27516,0.02813
422.21557,0.02805
420.15598,0.02786
418.09639,0.02729
416.03681,0.02668
413.97722,0.02647
411.91763,0.02646
409.85804,0.02629
407.79845,0.02612
405.73887,0.02617
403.67928,0.02600
401.61969,0.02550
399.56010,0.02535
