3997.66060,0.06414
3995.60101,0.06474
3993.54142,0.06455
3991.48183,0.06387
3989.42224,0.06352
3987.36265,0.06357
3985.30307,0.06397
3983.24348,0.06461
3981.18389,0.06507
3979.12430,0.06513
3977.06471,0.06468
3975.00513,0.06400
3972.94554,0.06340
3970.88595,0.06304
3968.82636,0.06311
3966.76677,0.06358
3964.70719,0.06398
3962.64760,0.06392
3960.58801,0.06372
3958.52842,0.06384
3956.46883,0.06394
3954.40924,0.06370
3952.34966,0.06319
3950.29007,0.06274
3948.23048,0.06316
3946.17089,0.06436
3944.11130,0.06480
3942.05172,0.06396
3939.99213,0.06312
3937.93254,0.06295
3935.87295,0.06284
3933.81336,0.06246
3931.75377,0.06268
3929.69419,0.06339
3927.63460,0.06325
3925.57501,0.06296
3923.51542,0.06328
3921.45583,0.06318
3919.39625,0.06220
3917.33666,0.06135
3915.27707,0.06129
3913.21748,0.06154
3911.15789,0.06184
3909.09831,0.06207
3907.03872,0.06214
3904.97913,0.06203
3902.91954,0.06175
3900.85995,0.06167
3898.80036,0.06121
3896.74078,0.06042
3894.68119,0.06023
3892.62160,0.06037
3890.56201,0.06051
3888.50242,0.06092
3886.44284,0.06137
3884.38325,0.06158
3882.32366,0.06143
3880.26407,0.06109
3878.20448,0.06092
3876.14489,0.06099
3874.08531,0.06151
3872.02572,0.06204
3869.96613,0.06177
3867.90654,0.06151
3865.84695,0.06140
3863.78737,0.06085
3861.72778,0.06026
3859.66819,0.05963
3857.60860,0.05902
3855.54901,0.05867
3853.48943,0.05913
3851.42984,0.06037
3849.37025,0.06088
3847.31066,0.06071
3845.25107,0.06024
3843.19148,0.05983
3841.13190,0.05958
3839.07231,0.05925
3837.01272,0.05884
3834.95313,0.05872
3832.89354,0.05903
3830.83396,0.05929
3828.77437,0.05903
3826.71478,0.05839
3824.65519,0.05805
3822.59560,0.05836
3820.53601,0.05921
3818.47643,0.05992
3816.41684,0.05990
3814.35725,0.05960
3812.29766,0.05955
3810.23807,0.05963
3808.17849,0.05977
3806.11890,0.05974
3804.05931,0.05892
3801.99972,0.05791
3799.94013,0.05781
3797.88055,0.05829
3795.82096,0.05880
3793.76137,0.05922
3791.70178,0.05964
3789.64219,0.05943
3787.58260,0.05822
3785.52302,0.05725
3783.46343,0.05720
3781.40384,0.05737
3779.34425,0.05747
3777.28466,0.05773
3775.22508,0.05805
3773.16549,0.05805
3771.10590,0.05767
3769.04631,0.05754
3766.98672,0.05809
3764.92713,0.05864
3762.86755,0.05849
3760.80796,0.05807
3758.74837,0.05783
3756.68878,0.05775
3754.62919,0.05725
3752.56961,0.05670
3750.51002,0.05705
3748.45043,0.05673
3746.39084,0.05532
3744.33125,0.05441
3742.27167,0.05465
3740.21208,0.05467
3738.15249,0.05411
3736.09290,0.05433
3734.03331,0.05576
3731.97372,0.05625
3729.91414,0.05575
3727.85455,0.05528
3725.79496,0.05440
3723.73537,0.05323
3721.67578,0.05305
3719.61620,0.05426
3717.55661,0.05547
3715.49702,0.05552
3713.43743,0.05505
3711.37784,0.05489
3709.31825,0.05478
3707.25867,0.05464
3705.19908,0.05435
3703.13949,0.05367
3701.07990,0.05324
3699.02031,0.05331
3696.96073,0.05290
3694.90114,0.05226
3692.84155,0.05246
3690.78196,0.05333
3688.72237,0.05412
3686.66279,0.05440
3684.60320,0.05417
3682.54361,0.05374
3680.48402,0.05364
3678.42443,0.05387
3676.36484,0.05370
3674.30526,0.05341
3672.24567,0.05320
3670.18608,0.05288
3668.12649,0.05333
3666.06690,0.05423
3664.00732,0.05475
3661.94773,0.05506
3659.88814,0.05569
3657.82855,0.05628
3655.76896,0.05586
3653.70937,0.05473
3651.64979,0.05381
3649.59020,0.05346
3647.53061,0.05415
3645.47102,0.05490
3643.41143,0.05468
3641.35185,0.05428
3639.29226,0.05478
3637.23267,0.05572
3635.17308,0.05603
3633.11349,0.05608
3631.05391,0.05674
3628.99432,0.05738
3626.93473,0.05709
3624.87514,0.05675
3622.81555,0.05667
3620.75596,0.05670
3618.69638,0.05714
3616.63679,0.05794
3614.57720,0.05885
3612.51761,0.05932
3610.45802,0.05874
3608.39844,0.05799
3606.33885,0.05828
3604.27926,0.05919
3602.21967,0.05992
3600.16008,0.06070
3598.10049,0.06149
3596.04091,0.06159
3593.98132,0.06130
3591.92173,0.06121
3589.86214,0.06134
3587.80255,0.06218
3585.74297,0.06339
3583.68338,0.06401
3581.62379,0.06423
3579.56420,0.06449
3577.50461,0.06491
3575.44503,0.06514
3573.38544,0.06517
3571.32585,0.06541
3569.26626,0.06591
3567.20667,0.06636
3565.14708,0.06678
3563.08750,0.06753
3561.02791,0.06799
3558.96832,0.06776
3556.90873,0.06761
3554.84914,0.06815
3552.78956,0.06914
3550.72997,0.07008
3548.67038,0.07072
3546.61079,0.07086
3544.55120,0.07085
3542.49161,0.07107
3540.43203,0.07130
3538.37244,0.07146
3536.31285,0.07171
3534.25326,0.07233
3532.19367,0.07322
3530.13409,0.07381
3528.07450,0.07408
3526.01491,0.07454
3523.95532,0.07513
3521.89573,0.07573
3519.83615,0.07660
3517.77656,0.07765
3515.71697,0.07826
3513.65738,0.07831
3511.59779,0.07821
3509.53820,0.07832
3507.47862,0.07907
3505.41903,0.07999
3503.35944,0.08046
3501.29985,0.08083
3499.24026,0.08143
3497.18068,0.08220
3495.12109,0.08286
3493.06150,0.08352
3491.00191,0.08413
3488.94232,0.08442
3486.88273,0.08500
3484.82315,0.08598
3482.76356,0.08658
3480.70397,0.08668
3478.64438,0.08657
3476.58479,0.08666
3474.52521,0.08745
3472.46562,0.08891
3470.40603,0.09011
3468.34644,0.09037
3466.28685,0.09042
3464.22727,0.09098
3462.16768,0.09190
3460.10809,0.09272
3458.04850,0.09317
3455.98891,0.09351
3453.92932,0.09403
3451.86974,0.09476
3449.81015,0.09517
3447.75056,0.09516
3445.69097,0.09552
3443.63138,0.09655
3441.57180,0.09786
3439.51221,0.09872
3437.45262,0.09884
3435.39303,0.09905
3433.33344,0.09988
3431.27385,0.10061
3429.21427,0.10086
3427.15468,0.10100
3425.09509,0.10123
3423.03550,0.10192
3420.97591,0.10312
3418.91633,0.10445
3416.85674,0.10574
3414.79715,0.10662
3412.73756,0.10686
3410.67797,0.10692
3408.61839,0.10698
3406.55880,0.10720
3404.49921,0.10791
3402.43962,0.10890
3400.38003,0.10995
3398.32044,0.11099
3396.26086,0.11154
3394.20127,0.11165
3392.14168,0.11182
3390.08209,0.11253
3388.02250,0.11406
3385.96292,0.11551
3383.90333,0.11606
3381.84374,0.11631
3379.78415,0.11693
3377.72456,0.11807
3375.66497,0.11940
3373.60539,0.12038
3371.54580,0.12113
3369.48621,0.12218
3367.42662,0.12347
3365.36703,0.12483
3363.30745,0.12626
3361.24786,0.12752
3359.18827,0.12838
3357.12868,0.12901
3355.06909,0.12982
3353.00951,0.13097
3350.94992,0.13218
3348.89033,0.13322
3346.83074,0.13409
3344.77115,0.13529
3342.71156,0.13694
3340.65198,0.13851
3338.59239,0.13991
3336.53280,0.14140
3334.47321,0.14294
3332.41362,0.14447
3330.35404,0.14622
3328.29445,0.14798
3326.23486,0.14938
3324.17527,0.15080
3322.11568,0.15244
3320.05609,0.15407
3317.99651,0.15571
3315.93692,0.15755
3313.87733,0.15941
3311.81774,0.16102
3309.75815,0.16247
3307.69857,0.16403
3305.63898,0.16574
3303.57939,0.16739
3301.51980,0.16923
3299.46021,0.17127
3297.40063,0.17301
3295.34104,0.17420
3293.28145,0.17531
3291.22186,0.17684
3289.16227,0.17840
3287.10268,0.17970
3285.04310,0.18076
3282.98351,0.18132
3280.92392,0.18151
3278.86433,0.18184
3276.80474,0.18225
3274.74516,0.18222
3272.68557,0.18181
3270.62598,0.18138
3268.56639,0.18085
3266.50680,0.18001
3264.44721,0.17884
3262.38763,0.17775
3260.32804,0.17684
3258.26845,0.17565
3256.20886,0.17404
3254.14927,0.17247
3252.08969,0.17090
3250.03010,0.16891
3247.97051,0.16713
3245.91092,0.16608
3243.85133,0.16493
3241.79175,0.16329
3239.73216,0.16172
3237.67257,0.16052
3235.61298,0.15950
3233.55339,0.15814
3231.49380,0.15646
3229.43422,0.15490
3227.37463,0.15356
3225.31504,0.15238
3223.25545,0.15140
3221.19586,0.15060
3219.13628,0.14993
3217.07669,0.14909
3215.01710,0.14811
3212.95751,0.14754
3210.89792,0.14730
3208.83833,0.14680
3206.77875,0.14586
3204.71916,0.14486
3202.65957,0.14405
3200.59998,0.14304
3198.54039,0.14205
3196.48081,0.14111
3194.42122,0.13983
3192.36163,0.13900
3190.30204,0.13860
3188.24245,0.13781
3186.18287,0.13708
3184.12328,0.13678
3182.06369,0.13617
3180.00410,0.13487
3177.94451,0.13338
3175.88492,0.13231
3173.82534,0.13137
3171.76575,0.13007
3169.70616,0.12859
3167.64657,0.12726
3165.58698,0.12625
3163.52740,0.12535
3161.46781,0.12411
3159.40822,0.12258
3157.34863,0.12104
3155.28904,0.11971
3153.22945,0.11882
3151.16987,0.11804
3149.11028,0.11700
3147.05069,0.11583
3144.99110,0.11481
3142.93151,0.11399
3140.87193,0.11323
3138.81234,0.11250
3136.75275,0.11177
3134.69316,0.11110
3132.63357,0.11037
3130.57399,0.10944
3128.51440,0.10837
3126.45481,0.10724
3124.39522,0.10641
3122.33563,0.10595
3120.27604,0.10551
3118.21646,0.10484
3116.15687,0.10401
3114.09728,0.10328
3112.03769,0.10276
3109.97810,0.10257
3107.91852,0.10258
3105.85893,0.10266
3103.79934,0.10274
3101.73975,0.10266
3099.68016,0.10254
3097.62057,0.10249
3095.56099,0.10233
3093.50140,0.10223
3091.44181,0.10247
3089.38222,0.10283
3087.32263,0.10293
3085.26305,0.10282
3083.20346,0.10265
3081.14387,0.10248
3079.08428,0.10262
3077.02469,0.10311
3074.96511,0.10348
3072.90552,0.10329
3070.84593,0.10292
3068.78634,0.10314
3066.72675,0.10373
3064.66716,0.10382
3062.60758,0.10342
3060.54799,0.10307
3058.48840,0.10283
3056.42881,0.10249
3054.36922,0.10196
3052.30964,0.10148
3050.25005,0.10129
3048.19046,0.10095
3046.13087,0.10014
3044.07128,0.09939
3042.01169,0.09899
3039.95211,0.09850
3037.89252,0.09778
3035.83293,0.09729
3033.77334,0.09690
3031.71375,0.09593
3029.65417,0.09493
3027.59458,0.09452
3025.53499,0.09425
3023.47540,0.09357
3021.41581,0.09243
3019.35623,0.09137
3017.29664,0.09085
3015.23705,0.09056
3013.17746,0.09018
3011.11787,0.08956
3009.05828,0.08879
3006.99870,0.08838
3004.93911,0.08836
3002.87952,0.08806
3000.81993,0.08775
2998.76034,0.08811
2996.70076,0.08861
2994.64117,0.08873
2992.58158,0.08892
2990.52199,0.08932
2988.46240,0.08979
2986.40281,0.09067
2984.34323,0.09204
2982.28364,0.09333
2980.22405,0.09409
2978.16446,0.09468
2976.10487,0.09562
2974.04529,0.09688
2971.98570,0.09813
2969.92611,0.09941
2967.86652,0.10076
2965.80693,0.10187
2963.74735,0.10269
2961.68776,0.10337
2959.62817,0.10371
2957.56858,0.10387
2955.50899,0.10387
2953.44940,0.10332
2951.38982,0.10238
2949.33023,0.10151
2947.27064,0.10107
2945.21105,0.10130
2943.15146,0.10203
2941.09188,0.10293
2939.03229,0.10399
2936.97270,0.10505
2934.91311,0.10565
2932.85352,0.10595
2930.79393,0.10638
2928.73435,0.10675
2926.67476,0.10672
2924.61517,0.10631
2922.55558,0.10567
2920.49599,0.10495
2918.43641,0.10419
2916.37682,0.10306
2914.31723,0.10139
2912.25764,0.09954
2910.19805,0.09777
2908.13847,0.09623
2906.07888,0.09499
2904.01929,0.09408
2901.95970,0.09339
2899.90011,0.09297
2897.84052,0.09267
2895.78094,0.09207
2893.72135,0.09130
2891.66176,0.09087
2889.60217,0.09082
2887.54258,0.09085
2885.48300,0.09103
2883.42341,0.09159
2881.36382,0.09223
2879.30423,0.09244
2877.24464,0.09254
2875.18505,0.09296
2873.12547,0.09318
2871.06588,0.09286
2869.00629,0.09222
2866.94670,0.09121
2864.88711,0.09003
2862.82753,0.08906
2860.76794,0.08838
2858.70835,0.08797
2856.64876,0.08767
2854.58917,0.08733
2852.52959,0.08694
2850.47000,0.08671
2848.41041,0.08642
2846.35082,0.08553
2844.29123,0.08416
2842.23164,0.08275
2840.17206,0.08172
2838.11247,0.08112
2836.05288,0.08054
2833.99329,0.07986
2831.93370,0.07932
2829.87412,0.07894
2827.81453,0.07871
2825.75494,0.07863
2823.69535,0.07854
2821.63576,0.07843
2819.57617,0.07824
2817.51659,0.07785
2815.45700,0.07747
2813.39741,0.07729
2811.33782,0.07737
2809.27823,0.07733
2807.21865,0.07690
2805.15906,0.07658
2803.09947,0.07658
2801.03988,0.07653
2798.98029,0.07616
2796.92071,0.07566
2794.86112,0.07531
2792.80153,0.07501
2790.74194,0.07469
2788.68235,0.07450
2786.62276,0.07447
2784.56318,0.07451
2782.50359,0.07438
2780.44400,0.07406
2778.38441,0.07378
2776.32482,0.07344
2774.26524,0.07297
2772.20565,0.07266
2770.14606,0.07264
2768.08647,0.07247
2766.02688,0.07214
2763.96729,0.07196
2761.90771,0.07168
2759.84812,0.07121
2757.78853,0.07099
2755.72894,0.07114
2753.66935,0.07124
2751.60977,0.07098
2749.55018,0.07070
2747.49059,0.07068
2745.43100,0.07069
2743.37141,0.07057
2741.31183,0.07029
2739.25224,0.06981
2737.19265,0.06943
2735.13306,0.06933
2733.07347,0.06927
2731.01388,0.06918
2728.95430,0.06910
2726.89471,0.06884
2724.83512,0.06844
2722.77553,0.06818
2720.71594,0.06806
2718.65636,0.06798
2716.59677,0.06804
2714.53718,0.06796
2712.47759,0.06739
2710.41800,0.06682
2708.35841,0.06671
2706.29883,0.06688
2704.23924,0.06695
2702.17965,0.06670
2700.12006,0.06644
2698.06047,0.06648
2696.00089,0.06650
2693.94130,0.06628
2691.88171,0.06601
2689.82212,0.06590
2687.76253,0.06575
2685.70295,0.06541
2683.64336,0.06526
2681.58377,0.06524
2679.52418,0.06494
2677.46459,0.06467
2675.40500,0.06460
2673.34542,0.06458
2671.28583,0.06458
2669.22624,0.06454
2667.16665,0.06446
2665.10706,0.06447
2663.04748,0.06456
2660.98789,0.06447
2658.92830,0.06419
2656.86871,0.06391
2654.80912,0.06369
2652.74953,0.06363
2650.68995,0.06362
2648.63036,0.06349
2646.57077,0.06327
2644.51118,0.06307
2642.45159,0.06301
2640.39201,0.06299
2638.33242,0.06284
2636.27283,0.06263
2634.21324,0.06248
2632.15365,0.06228
2630.09407,0.06193
2628.03448,0.06146
2625.97489,0.06109
2623.91530,0.06090
2621.85571,0.06069
2619.79612,0.06045
2617.73654,0.06029
2615.67695,0.06026
2613.61736,0.06020
2611.55777,0.05991
2609.49818,0.05962
2607.43860,0.05944
2605.37901,0.05943
2603.31942,0.05949
2601.25983,0.05939
2599.20024,0.05930
2597.14065,0.05919
2595.08107,0.05869
2593.02148,0.05814
2590.96189,0.05801
2588.90230,0.05813
2586.84271,0.05827
2584.78313,0.05828
2582.72354,0.05808
2580.66395,0.05786
2578.60436,0.05765
2576.54477,0.05733
2574.48519,0.05700
2572.42560,0.05681
2570.36601,0.05701
2568.30642,0.05733
2566.24683,0.05747
2564.18724,0.05736
2562.12766,0.05666
2560.06807,0.05590
2558.00848,0.05584
2555.94889,0.05585
2553.88930,0.05543
2551.82972,0.05506
2549.77013,0.05505
2547.71054,0.05518
2545.65095,0.05504
2543.59136,0.05467
2541.53177,0.05455
2539.47219,0.05463
2537.41260,0.05475
2535.35301,0.05483
2533.29342,0.05460
2531.23383,0.05424
2529.17425,0.05420
2527.11466,0.05443
2525.05507,0.05474
2522.99548,0.05502
2520.93589,0.05497
2518.87631,0.05451
2516.81672,0.05384
2514.75713,0.05336
2512.69754,0.05330
2510.63795,0.05360
2508.57836,0.05385
2506.51878,0.05367
2504.45919,0.05336
2502.39960,0.05322
2500.34001,0.05317
2498.28042,0.05336
2496.22084,0.05330
2494.16125,0.05266
2492.10166,0.05230
2490.04207,0.05230
2487.98248,0.05210
2485.92289,0.05201
2483.86331,0.05243
2481.80372,0.05288
2479.74413,0.05276
2477.68454,0.05231
2475.62495,0.05206
2473.56537,0.05205
2471.50578,0.05226
2469.44619,0.05242
2467.38660,0.05210
2465.32701,0.05152
2463.26743,0.05136
2461.20784,0.05173
2459.14825,0.05193
2457.08866,0.05174
2455.02907,0.05153
2452.96948,0.05151
2450.90990,0.05164
2448.85031,0.05152
2446.79072,0.05119
2444.73113,0.05117
2442.67154,0.05144
2440.61196,0.05166
2438.55237,0.05166
2436.49278,0.05144
2434.43319,0.05112
2432.37360,0.05089
2430.31401,0.05112
2428.25443,0.05136
2426.19484,0.05090
2424.13525,0.05039
2422.07566,0.05049
2420.01607,0.05074
2417.95649,0.05074
2415.89690,0.05053
2413.83731,0.05018
2411.77772,0.04977
2409.71813,0.04943
2407.65855,0.04919
2405.59896,0.04921
2403.53937,0.04947
2401.47978,0.04961
2399.42019,0.04957
2397.36060,0.04964
2395.30102,0.04972
2393.24143,0.04957
2391.18184,0.04947
2389.12225,0.04952
2387.06266,0.04944
2385.00308,0.04925
2382.94349,0.04900
2380.88390,0.04866
2378.82431,0.04863
2376.76472,0.04899
2374.70513,0.04944
2372.64555,0.04983
2370.58596,0.04979
2368.52637,0.04925
2366.46678,0.04885
2364.40719,0.04848
2362.34761,0.04805
2360.28802,0.04819
2358.22843,0.04853
2356.16884,0.04831
2354.10925,0.04813
2352.04967,0.04846
2349.99008,0.04881
2347.93049,0.04886
2345.87090,0.04866
2343.81131,0.04872
2341.75172,0.04908
2339.69214,0.04889
2337.63255,0.04829
2335.57296,0.04805
2333.51337,0.04817
2331.45378,0.04844
2329.39420,0.04884
2327.33461,0.04938
2325.27502,0.04972
2323.21543,0.04959
2321.15584,0.04911
2319.09625,0.04831
2317.03667,0.04754
2314.97708,0.04743
2312.91749,0.04783
2310.85790,0.04804
2308.79831,0.04782
2306.73873,0.04747
2304.67914,0.04719
2302.61955,0.04692
2300.55996,0.04680
2298.50037,0.04679
2296.44079,0.04655
2294.38120,0.04607
2292.32161,0.04588
2290.26202,0.04634
2288.20243,0.04683
2286.14284,0.04648
2284.08326,0.04551
2282.02367,0.04485
2279.96408,0.04467
2277.90449,0.04422
2275.84490,0.04330
2273.78532,0.04275
2271.72573,0.04310
2269.66614,0.04372
2267.60655,0.04385
2265.54696,0.04346
2263.48737,0.04290
2261.42779,0.04242
2259.36820,0.04213
2257.30861,0.04212
2255.24902,0.04212
2253.18943,0.04189
2251.12985,0.04173
2249.07026,0.04140
2247.01067,0.04112
2244.95108,0.04086
2242.89149,0.04006
2240.83191,0.03994
2238.77232,0.04104
2236.71273,0.04166
2234.65314,0.04132
2232.59355,0.04073
2230.53396,0.04000
2228.47438,0.03950
2226.41479,0.03962
2224.35520,0.03965
2222.29561,0.03912
2220.23602,0.03874
2218.17644,0.03909
2216.11685,0.03947
2214.05726,0.03907
2211.99767,0.03826
2209.93808,0.03813
2207.87849,0.03803
2205.81891,0.03672
2203.75932,0.03560
2201.69973,0.03607
2199.64014,0.03729
2197.58055,0.03819
2195.52097,0.03786
2193.46138,0.03675
2191.40179,0.03727
2189.34220,0.03905
2187.28261,0.03917
2185.22303,0.03755
2183.16344,0.03593
2181.10385,0.03517
2179.04426,0.03550
2176.98467,0.03603
2174.92508,0.03538
2172.86550,0.03405
2170.80591,0.03319
2168.74632,0.03268
2166.68673,0.03305
2164.62714,0.03423
2162.56756,0.03439
2160.50797,0.03295
2158.44838,0.03087
2156.38879,0.02991
2154.32920,0.03069
2152.26961,0.03200
2150.21003,0.03306
2148.15044,0.03363
2146.09085,0.03335
2144.03126,0.03236
2141.97167,0.03185
2139.91209,0.03262
2137.85250,0.03356
2135.79291,0.03377
2133.73332,0.03411
2131.67373,0.03481
2129.61415,0.03514
2127.55456,0.03575
2125.49497,0.03687
2123.43538,0.03744
2121.37579,0.03758
2119.31620,0.03751
2117.25662,0.03707
2115.19703,0.03719
2113.13744,0.03776
2111.07785,0.03784
2109.01826,0.03759
2106.95868,0.03716
2104.89909,0.03676
2102.83950,0.03688
2100.77991,0.03674
2098.72032,0.03586
2096.66073,0.03567
2094.60115,0.03626
2092.54156,0.03626
2090.48197,0.03579
2088.42238,0.03567
2086.36279,0.03593
2084.30321,0.03621
2082.24362,0.03624
2080.18403,0.03618
2078.12444,0.03594
2076.06485,0.03512
2074.00527,0.03407
2071.94568,0.03368
2069.88609,0.03422
2067.82650,0.03493
2065.76691,0.03490
2063.70732,0.03411
2061.64774,0.03336
2059.58815,0.03324
2057.52856,0.03362
2055.46897,0.03391
2053.40938,0.03391
2051.34980,0.03368
2049.29021,0.03263
2047.23062,0.03102
2045.17103,0.03027
2043.11144,0.03029
2041.05185,0.03055
2038.99227,0.03067
2036.93268,0.03031
2034.87309,0.03018
2032.81350,0.03017
2030.75391,0.02993
2028.69433,0.02907
2026.63474,0.02783
2024.57515,0.02756
2022.51556,0.02787
2020.45597,0.02793
2018.39639,0.02779
2016.33680,0.02748
2014.27721,0.02754
2012.21762,0.02820
2010.15803,0.02860
2008.09844,0.02783
2006.03886,0.02685
2003.97927,0.02717
2001.91968,0.02816
1999.86009,0.02837
1997.80050,0.02793
1995.74092,0.02787
1993.68133,0.02827
1991.62174,0.02857
1989.56215,0.02838
1987.50256,0.02778
1985.44297,0.02754
1983.38339,0.02788
1981.32380,0.02849
1979.26421,0.02898
1977.20462,0.02833
1975.14503,0.02671
1973.08545,0.02549
1971.02586,0.02580
1968.96627,0.02734
1966.90668,0.02820
1964.84709,0.02780
1962.78751,0.02707
1960.72792,0.02691
1958.66833,0.02773
1956.60874,0.02894
1954.54915,0.02931
1952.48956,0.02848
1950.42998,0.02795
1948.37039,0.02846
1946.31080,0.02885
1944.25121,0.02859
1942.19162,0.02828
1940.13204,0.02810
1938.07245,0.02786
1936.01286,0.02780
1933.95327,0.02823
1931.89368,0.02891
1929.83409,0.02930
1927.77451,0.02920
1925.71492,0.02896
1923.65533,0.02874
1921.59574,0.02844
1919.53615,0.02825
1917.47657,0.02833
1915.41698,0.02844
1913.35739,0.02852
1911.29780,0.02872
1909.23821,0.02863
1907.17863,0.02820
1905.11904,0.02792
1903.05945,0.02776
1900.99986,0.02781
1898.94027,0.02808
1896.88068,0.02819
1894.82110,0.02821
1892.76151,0.02806
1890.70192,0.02771
1888.64233,0.02769
1886.58274,0.02777
1884.52316,0.02763
1882.46357,0.02774
1880.40398,0.02787
1878.34439,0.02753
1876.28480,0.02731
1874.22521,0.02743
1872.16563,0.02724
1870.10604,0.02672
1868.04645,0.02652
1865.98686,0.02659
1863.92727,0.02669
1861.86769,0.02708
1859.80810,0.02757
1857.74851,0.02757
1855.68892,0.02706
1853.62933,0.02654
1851.56975,0.02614
1849.51016,0.02589
1847.45057,0.02577
1845.39098,0.02595
1843.33139,0.02632
1841.27180,0.02626
1839.21222,0.02585
1837.15263,0.02535
1835.09304,0.02494
1833.03345,0.02485
1830.97386,0.02507
1828.91428,0.02531
1826.85469,0.02519
1824.79510,0.02489
1822.73551,0.02482
1820.67592,0.02475
1818.61633,0.02434
1816.55675,0.02401
1814.49716,0.02413
1812.43757,0.02434
1810.37798,0.02430
1808.31839,0.02412
1806.25881,0.02398
1804.19922,0.02398
1802.13963,0.02398
1800.08004,0.02383
1798.02045,0.02354
1795.96087,0.02334
1793.90128,0.02324
1791.84169,0.02322
1789.78210,0.02326
1787.72251,0.02315
1785.66292,0.02285
1783.60334,0.02265
1781.54375,0.02254
1779.48416,0.02235
1777.42457,0.02222
1775.36498,0.02222
1773.30540,0.02227
1771.24581,0.02219
1769.18622,0.02195
1767.12663,0.02167
1765.06704,0.02127
1763.00745,0.02087
1760.94787,0.02084
1758.88828,0.02103
1756.82869,0.02117
1754.76910,0.02119
1752.70951,0.02101
1750.64993,0.02090
1748.59034,0.02099
1746.53075,0.02112
1744.47116,0.02117
1742.41157,0.02114
1740.35199,0.02107
1738.29240,0.02094
1736.23281,0.02064
1734.17322,0.02034
1732.11363,0.02012
1730.05404,0.01988
1727.99446,0.01976
1725.93487,0.01972
1723.87528,0.01963
1721.81569,0.01949
1719.75610,0.01959
1717.69652,0.02004
1715.63693,0.02078
1713.57734,0.02162
1711.51775,0.02285
1709.45816,0.02469
1707.39857,0.02715
1705.33899,0.03065
1703.27940,0.03472
1701.21981,0.04032
1699.16022,0.04773
1697.10063,0.05335
1695.04105,0.05828
1692.98146,0.06290
1690.92187,0.06715
1688.86228,0.07202
1686.80269,0.07697
1684.74311,0.08329
1682.68352,0.09079
1680.62393,0.09653
1678.56434,0.10178
1676.50475,0.10793
1674.44516,0.11513
1672.38558,0.12169
1670.32599,0.12884
1668.26640,0.13773
1666.20681,0.14561
1664.14722,0.15347
1662.08764,0.16296
1660.02805,0.17171
1657.96846,0.17818
1655.90887,0.18281
1653.84928,0.18728
1651.78969,0.19103
1649.73011,0.19139
1647.67052,0.19045
1645.61093,0.18922
1643.55134,0.18745
1641.49175,0.18512
1639.43217,0.18250
1637.37258,0.17976
1635.31299,0.17663
1633.25340,0.17355
1631.19381,0.17088
1629.13423,0.16864
1627.07464,0.16721
1625.01505,0.16658
1622.95546,0.16650
1620.89587,0.16663
1618.83628,0.16667
1616.77670,0.16641
1614.71711,0.16490
1612.65752,0.16179
1610.59793,0.15724
1608.53834,0.15144
1606.47876,0.14496
1604.41917,0.13828
1602.35958,0.13148
1600.29999,0.12489
1598.24040,0.11882
1596.18081,0.11320
1594.12123,0.10792
1592.06164,0.10303
1590.00205,0.09839
1587.94246,0.09416
1585.88287,0.09055
1583.82329,0.08760
1581.76370,0.08513
1579.70411,0.08320
1577.64452,0.08190
1575.58493,0.08122
1573.52535,0.08102
1571.46576,0.08137
1569.40617,0.08279
1567.34658,0.08482
1565.28699,0.08707
1563.22740,0.08962
1561.16782,0.09272
1559.10823,0.09935
1557.04864,0.10782
1554.98905,0.11390
1552.92946,0.12007
1550.86988,0.12663
1548.81029,0.13299
1546.75070,0.13833
1544.69111,0.14300
1542.63152,0.14744
1540.57193,0.15192
1538.51235,0.15572
1536.45276,0.15724
1534.39317,0.15808
1532.33358,0.15937
1530.27399,0.16047
1528.21441,0.16123
1526.15482,0.16194
1524.09523,0.16248
1522.03564,0.16326
1519.97605,0.16456
1517.91647,0.16589
1515.85688,0.16678
1513.79729,0.16649
1511.73770,0.16496
1509.67811,0.16270
1507.61852,0.15952
1505.55894,0.15541
1503.49935,0.15192
1501.43976,0.14858
1499.38017,0.14466
1497.32058,0.13983
1495.26100,0.13446
1493.20141,0.12949
1491.14182,0.12436
1489.08223,0.11849
1487.02264,0.11301
1484.96305,0.10846
1482.90347,0.10451
1480.84388,0.10102
1478.78429,0.09826
1476.72470,0.09627
1474.66511,0.09515
1472.60553,0.09518
1470.54594,0.09569
1468.48635,0.09583
1466.42676,0.09579
1464.36717,0.09589
1462.30759,0.09613
1460.24800,0.09652
1458.18841,0.09772
1456.12882,0.09987
1454.06923,0.10102
1452.00964,0.10124
1449.95006,0.10115
1447.89047,0.10062
1445.83088,0.09963
1443.77129,0.09839
1441.71170,0.09693
1439.65212,0.09530
1437.59253,0.09351
1435.53294,0.09163
1433.47335,0.09002
1431.41376,0.08863
1429.35417,0.08750
1427.29459,0.08676
1425.23500,0.08639
1423.17541,0.08633
1421.11582,0.08647
1419.05623,0.08698
1416.99665,0.08769
1414.93706,0.08810
1412.87747,0.08826
1410.81788,0.08828
1408.75829,0.08818
1406.69871,0.08786
1404.63912,0.08734
1402.57953,0.08674
1400.51994,0.08612
1398.46035,0.08557
1396.40076,0.08513
1394.34118,0.08492
1392.28159,0.08506
1390.22200,0.08530
1388.16241,0.08560
1386.10282,0.08592
1384.04324,0.08595
1381.98365,0.08551
1379.92406,0.08487
1377.86447,0.08418
1375.80488,0.08344
1373.74529,0.08276
1371.68571,0.08223
1369.62612,0.08180
1367.56653,0.08124
1365.50694,0.08025
1363.44735,0.07892
1361.38777,0.07760
1359.32818,0.07658
1357.26859,0.07582
1355.20900,0.07522
1353.14941,0.07478
1351.08983,0.07450
1349.03024,0.07435
1346.97065,0.07434
1344.91106,0.07450
1342.85147,0.07480
1340.79188,0.07515
1338.73230,0.07547
1336.67271,0.07574
1334.61312,0.07596
1332.55353,0.07611
1330.49394,0.07617
1328.43436,0.07616
1326.37477,0.07616
1324.31518,0.07622
1322.25559,0.07635
1320.19600,0.07655
1318.13641,0.07675
1316.07683,0.07692
1314.01724,0.07717
1311.95765,0.07754
1309.89806,0.07789
1307.83847,0.07813
1305.77889,0.07829
1303.71930,0.07836
1301.65971,0.07833
1299.60012,0.07824
1297.54053,0.07807
1295.48095,0.07783
1293.42136,0.07760
1291.36177,0.07738
1289.30218,0.07719
1287.24259,0.07695
1285.18300,0.07660
1283.12342,0.07629
1281.06383,0.07608
1279.00424,0.07591
1276.94465,0.07574
1274.88506,0.07557
1272.82548,0.07544
1270.76589,0.07544
1268.70630,0.07547
1266.64671,0.07553
1264.58712,0.07576
1262.52753,0.07615
1260.46795,0.07656
1258.40836,0.07700
1256.34877,0.07752
1254.28918,0.07815
1252.22959,0.07885
1250.17001,0.07951
1248.11042,0.08009
1246.05083,0.08070
1243.99124,0.08130
1241.93165,0.08170
1239.87207,0.08188
1237.81248,0.08199
1235.75289,0.08199
1233.69330,0.08181
1231.63371,0.08147
1229.57412,0.08098
1227.51454,0.08039
1225.45495,0.07971
1223.39536,0.07886
1221.33577,0.07794
1219.27618,0.07704
1217.21660,0.07612
1215.15701,0.07508
1213.09742,0.07397
1211.03783,0.07288
1208.97824,0.07185
1206.91865,0.07077
1204.85907,0.06957
1202.79948,0.06839
1200.73989,0.06731
1198.68030,0.06626
1196.62071,0.06525
1194.56113,0.06431
1192.50154,0.06349
1190.44195,0.06279
1188.38236,0.06211
1186.32277,0.06148
1184.26319,0.06097
1182.20360,0.06062
1180.14401,0.06057
1178.08442,0.06088
1176.02483,0.06154
1173.96524,0.06248
1171.90566,0.06341
1169.84607,0.06401
1167.78648,0.06427
1165.72689,0.06433
1163.66730,0.06420
1161.60772,0.06395
1159.54813,0.06366
1157.48854,0.06325
1155.42895,0.06265
1153.36936,0.06185
1151.30977,0.06096
1149.25019,0.06014
1147.19060,0.05944
1145.13101,0.05880
1143.07142,0.05819
1141.01183,0.05765
1138.95225,0.05730
1136.89266,0.05718
1134.83307,0.05708
1132.77348,0.05685
1130.71389,0.05668
1128.65431,0.05662
1126.59472,0.05641
1124.53513,0.05598
1122.47554,0.05557
1120.41595,0.05529
1118.35636,0.05491
1116.29678,0.05436
1114.23719,0.05399
1112.17760,0.05396
1110.11801,0.05408
1108.05842,0.05418
1105.99884,0.05428
1103.93925,0.05439
1101.87966,0.05446
1099.82007,0.05444
1097.76048,0.05448
1095.70089,0.05471
1093.64131,0.05513
1091.58172,0.05574
1089.52213,0.05653
1087.46254,0.05747
1085.40295,0.05862
1083.34337,0.05988
1081.28378,0.06106
1079.22419,0.06216
1077.16460,0.06319
1075.10501,0.06408
1073.04543,0.06478
1070.98584,0.06534
1068.92625,0.06591
1066.86666,0.06647
1064.80707,0.06682
1062.74748,0.06703
1060.68790,0.06722
1058.62831,0.06725
1056.56872,0.06708
1054.50913,0.06678
1052.44954,0.06647
1050.38996,0.06622
1048.33037,0.06586
1046.27078,0.06531
1044.21119,0.06456
1042.15160,0.06359
1040.09201,0.06249
1038.03243,0.06134
1035.97284,0.06021
1033.91325,0.05915
1031.85366,0.05821
1029.79407,0.05729
1027.73449,0.05624
1025.67490,0.05508
1023.61531,0.05391
1021.55572,0.05279
1019.49613,0.05177
1017.43655,0.05087
1015.37696,0.05007
1013.31737,0.04933
1011.25778,0.04861
1009.19819,0.04791
1007.13860,0.04713
1005.07902,0.04631
1003.01943,0.04562
1000.95984,0.04495
998.90025,0.04425
996.84066,0.04366
994.78108,0.04318
992.72149,0.04281
990.66190,0.04248
988.60231,0.04209
986.54272,0.04169
984.48313,0.04136
982.42355,0.04103
980.36396,0.04064
978.30437,0.04035
976.24478,0.04020
974.18519,0.03996
972.12561,0.03968
970.06602,0.03965
968.00643,0.03976
965.94684,0.03980
963.88725,0.03980
961.82767,0.03979
959.76808,0.03964
957.70849,0.03935
955.64890,0.03904
953.58931,0.03879
951.52972,0.03863
949.47014,0.03849
947.41055,0.03831
945.35096,0.03820
943.29137,0.03815
941.23178,0.03809
939.17220,0.03805
937.11261,0.03805
935.05302,0.03805
932.99343,0.03801
930.93384,0.03792
928.87425,0.03781
926.81467,0.03761
924.75508,0.03736
922.69549,0.03706
920.63590,0.03666
918.57631,0.03622
916.51673,0.03592
914.45714,0.03578
912.39755,0.03567
910.33796,0.03558
908.27837,0.03553
906.21879,0.03551
904.15920,0.03559
902.09961,0.03569
900.04002,0.03568
897.98043,0.03550
895.92084,0.03527
893.86126,0.03504
891.80167,0.03472
889.74208,0.03435
887.68249,0.03398
885.62290,0.03367
883.56332,0.03345
881.50373,0.03334
879.44414,0.03309
877.38455,0.03269
875.32496,0.03238
873.26537,0.03222
871.20579,0.03201
869.14620,0.03173
867.08661,0.03141
865.02702,0.03108
862.96743,0.03076
860.90785,0.03053
858.84826,0.03049
856.78867,0.03055
854.72908,0.03050
852.66949,0.03027
850.60991,0.03005
848.55032,0.02992
846.49073,0.02974
844.43114,0.02961
842.37155,0.02975
840.31196,0.02991
838.25238,0.02988
836.19279,0.02994
834.13320,0.03015
832.07361,0.03020
830.01402,0.03008
827.95444,0.03008
825.89485,0.03034
823.83526,0.03058
821.77567,0.03055
819.71608,0.03041
817.65649,0.03041
815.59691,0.03050
813.53732,0.03055
811.47773,0.03067
809.41814,0.03082
807.35855,0.03084
805.29897,0.03079
803.23938,0.03079
801.17979,0.03079
799.12020,0.03079
797.06061,0.03084
795.00103,0.03102
792.94144,0.03130
790.88185,0.03147
788.82226,0.03147
786.76267,0.03154
784.70308,0.03178
782.64350,0.03201
780.58391,0.03224
778.52432,0.03251
776.46473,0.03273
774.40514,0.03298
772.34556,0.03328
770.28597,0.03351
768.22638,0.03369
766.16679,0.03393
764.10720,0.03410
762.04761,0.03418
759.98803,0.03433
757.92844,0.03448
755.86885,0.03451
753.80926,0.03454
751.74967,0.03467
749.69009,0.03488
747.63050,0.03508
745.57091,0.03521
743.51132,0.03518
741.45173,0.03503
739.39215,0.03493
737.33256,0.03500
735.27297,0.03521
733.21338,0.03549
731.15379,0.03581
729.09420,0.03619
727.03462,0.03660
724.97503,0.03702
722.91544,0.03753
720.85585,0.03812
718.79626,0.03870
716.73668,0.03934
714.67709,0.04020
712.61750,0.04116
710.55791,0.04200
708.49832,0.04280
706.43873,0.04360
704.37915,0.04446
702.31956,0.04540
700.25997,0.04619
698.20038,0.04663
696.14079,0.04676
694.08121,0.04664
692.02162,0.04654
689.96203,0.04663
687.90244,0.04674
685.84285,0.04682
683.78327,0.04702
681.72368,0.04732
679.66409,0.04754
677.60450,0.04772
675.54491,0.04793
673.48532,0.04814
671.42574,0.04835
669.36615,0.04865
667.30656,0.04909
665.24697,0.04943
663.18738,0.04957
661.12780,0.04963
659.06821,0.04968
657.00862,0.04975
654.94903,0.04987
652.88944,0.05008
650.82985,0.05029
648.77027,0.05052
646.71068,0.05075
644.65109,0.05084
642.59150,0.05087
640.53191,0.05106
638.47233,0.05138
636.41274,0.05173
634.35315,0.05206
632.29356,0.05231
630.23397,0.05248
628.17439,0.05263
626.11480,0.05284
624.05521,0.05301
621.99562,0.05306
619.93603,0.05303
617.87644,0.05299
615.81686,0.05284
613.75727,0.05260
611.69768,0.05250
609.63809,0.05247
607.57850,0.05232
605.51892,0.05221
603.45933,0.05230
601.39974,0.05239
599.34015,0.05233
597.28056,0.05217
595.22097,0.05201
593.16139,0.05196
591.10180,0.05206
589.04221,0.05222
586.98262,0.05225
584.92303,0.05215
582.86345,0.05206
580.80386,0.05191
578.74427,0.05181
576.68468,0.05179
574.62509,0.05174
572.56551,0.05165
570.50592,0.05163
568.44633,0.05171
566.38674,0.05183
564.32715,0.05194
562.26756,0.05188
560.20798,0.05161
558.14839,0.05153
556.08880,0.05176
554.02921,0.05186
551.96962,0.05183
549.91004,0.05188
547.85045,0.05190
545.79086,0.05187
543.73127,0.05177
541.67168,0.05154
539.61209,0.05128
537.55251,0.05101
535.49292,0.05075
533.43333,0.05065
531.37374,0.05085
529.31415,0.05118
527.25457,0.05141
525.19498,0.05136
523.13539,0.05113
521.07580,0.05095
519.01621,0.05076
516.95663,0.05046
514.89704,0.05003
512.83745,0.04956
510.77786,0.04914
508.71827,0.04885
506.65868,0.04879
504.59910,0.04852
502.53951,0.04789
500.47992,0.04733
498.42033,0.04683
496.36074,0.04638
494.30116,0.04629
492.24157,0.04639
490.18198,0.04629
488.12239,0.04590
486.06280,0.04536
484.00321,0.04498
481.94363,0.04482
479.88404,0.04463
477.82445,0.04441
475.76486,0.04424
473.70527,0.04412
471.64569,0.04406
469.58610,0.04399
467.52651,0.04389
465.46692,0.04382
463.40733,0.04385
461.34775,0.04396
459.28816,0.04403
457.22857,0.04403
455.16898,0.04395
453.10939,0.04377
451.04980,0.04355
448.99022,0.04324
446.93063,0.04277
444.87104,0.04207
442.81145,0.04114
440.75186,0.04026
438.69228,0.03980
436.63269,0.03973
434.57310,0.03985
432.51351,0.03972
430.45392,0.03892
428.39433,0.03793
426.33475,0.03750
424.27516,0.03757
422.21557,0.03736
420.15598,0.03687
418.09639,0.03702
416.03681,0.03733
413.97722,0.03712
411.91763,0.03671
409.85804,0.03625
407.79845,0.03581
405.73887,0.03544
403.67928,0.03497
401.61969,0.03449
399.56010,0.03399
