3997.66060,0.10411
3995.60101,0.10448
3993.54142,0.10429
3991.48183,0.10398
3989.42224,0.10398
3987.36265,0.10384
3985.30307,0.10321
3983.24348,0.10263
3981.18389,0.10283
3979.12430,0.10348
3977.06471,0.10367
3975.00513,0.10321
3972.94554,0.10281
3970.88595,0.10262
3968.82636,0.10227
3966.76677,0.10173
3964.70719,0.10110
3962.64760,0.10107
3960.58801,0.10189
3958.52842,0.10260
3956.46883,0.10285
3954.40924,0.10267
3952.34966,0.10239
3950.29007,0.10225
3948.23048,0.10212
3946.17089,0.10190
3944.11130,0.10159
3942.05172,0.10174
3939.99213,0.10194
3937.93254,0.10159
3935.87295,0.10106
3933.81336,0.10069
3931.75377,0.10071
3929.69419,0.10069
3927.63460,0.10034
3925.57501,0.10034
3923.51542,0.10068
3921.45583,0.10049
3919.39625,0.10006
3917.33666,0.10025
3915.27707,0.10101
3913.21748,0.10165
3911.15789,0.10138
3909.09831,0.10018
3907.03872,0.09933
3904.97913,0.09959
3902.91954,0.10016
3900.85995,0.10057
3898.80036,0.10117
3896.74078,0.10108
3894.68119,0.09999
3892.62160,0.09911
3890.56201,0.09884
3888.50242,0.09845
3886.44284,0.09825
3884.38325,0.09864
3882.32366,0.09873
3880.26407,0.09847
3878.20448,0.09853
3876.14489,0.09858
3874.08531,0.09829
3872.02572,0.09775
3869.96613,0.09727
3867.90654,0.09748
3865.84695,0.09841
3863.78737,0.09897
3861.72778,0.09829
3859.66819,0.09728
3857.60860,0.09703
3855.54901,0.09744
3853.48943,0.09794
3851.42984,0.09837
3849.37025,0.09837
3847.31066,0.09775
3845.25107,0.09654
3843.19148,0.09523
3841.13190,0.09454
3839.07231,0.09440
3837.01272,0.09503
3834.95313,0.09564
3832.89354,0.09524
3830.83396,0.09477
3828.77437,0.09472
3826.71478,0.09456
3824.65519,0.09423
3822.59560,0.09400
3820.53601,0.09449
3818.47643,0.09523
3816.41684,0.09536
3814.35725,0.09515
3812.29766,0.09486
3810.23807,0.09455
3808.17849,0.09415
3806.11890,0.09368
3804.05931,0.09365
3801.99972,0.09427
3799.94013,0.09460
3797.88055,0.09416
3795.82096,0.09358
3793.76137,0.09336
3791.70178,0.09357
3789.64219,0.09360
3787.58260,0.09308
3785.52302,0.09254
3783.46343,0.09243
3781.40384,0.09240
3779.34425,0.09247
3777.28466,0.09278
3775.22508,0.09252
3773.16549,0.09172
3771.10590,0.09115
3769.04631,0.09093
3766.98672,0.09082
3764.92713,0.09101
3762.86755,0.09109
3760.80796,0.09100
3758.74837,0.09144
3756.68878,0.09134
3754.62919,0.09015
3752.56961,0.08947
3750.51002,0.08942
3748.45043,0.08879
3746.39084,0.08853
3744.33125,0.08912
3742.27167,0.08933
3740.21208,0.08893
3738.15249,0.08862
3736.09290,0.08860
3734.03331,0.08830
3731.97372,0.08799
3729.91414,0.08809
3727.85455,0.08786
3725.79496,0.08735
3723.73537,0.08732
3721.67578,0.08774
3719.61620,0.08793
3717.55661,0.08766
3715.49702,0.08734
3713.43743,0.08676
3711.37784,0.08564
3709.31825,0.08516
3707.25867,0.08543
3705.19908,0.08559
3703.13949,0.08584
3701.07990,0.08644
3699.02031,0.08689
3696.96073,0.08698
3694.90114,0.08662
3692.84155,0.08581
3690.78196,0.08490
3688.72237,0.08449
3686.66279,0.08458
3684.60320,0.08469
3682.54361,0.08488
3680.48402,0.08504
3678.42443,0.08491
3676.36484,0.08504
3674.30526,0.08563
3672.24567,0.08548
3670.18608,0.08513
3668.12649,0.08535
3666.06690,0.08554
3664.00732,0.08565
3661.94773,0.08574
3659.88814,0.08536
3657.82855,0.08472
3655.76896,0.08486
3653.70937,0.08540
3651.64979,0.08555
3649.59020,0.08612
3647.53061,0.08673
3645.47102,0.08601
3643.41143,0.08503
3641.35185,0.08504
3639.29226,0.08610
3637.23267,0.08733
3635.17308,0.08796
3633.11349,0.08762
3631.05391,0.08685
3628.99432,0.08741
3626.93473,0.08896
3624.87514,0.08945
3622.81555,0.08965
3620.75596,0.09006
3618.69638,0.09000
3616.63679,0.08956
3614.57720,0.08975
3612.51761,0.09102
3610.45802,0.09202
3608.39844,0.09136
3606.33885,0.09065
3604.27926,0.09108
3602.21967,0.09178
3600.16008,0.09245
3598.10049,0.09348
3596.04091,0.09469
3593.98132,0.09534
3591.92173,0.09527
3589.86214,0.09536
3587.80255,0.09588
3585.74297,0.09625
3583.68338,0.09685
3581.62379,0.09761
3579.56420,0.09794
3577.50461,0.09798
3575.44503,0.09800
3573.38544,0.09817
3571.32585,0.09862
3569.26626,0.09954
3567.20667,0.10073
3565.14708,0.10121
3563.08750,0.10112
3561.02791,0.10165
3558.96832,0.10282
3556.90873,0.10378
3554.84914,0.10450
3552.78956,0.10515
3550.72997,0.10558
3548.67038,0.10616
3546.61079,0.10729
3544.55120,0.10834
3542.49161,0.10840
3540.43203,0.10805
3538.37244,0.10835
3536.31285,0.10918
3534.25326,0.11002
3532.19367,0.11080
3530.13409,0.11140
3528.07450,0.11179
3526.01491,0.11243
3523.95532,0.11309
3521.89573,0.11371
3519.83615,0.11487
3517.77656,0.11611
3515.71697,0.11663
3513.65738,0.11686
3511.59779,0.11763
3509.53820,0.11860
3507.47862,0.11919
3505.41903,0.11977
3503.35944,0.12053
3501.29985,0.12113
3499.24026,0.12167
3497.18068,0.12242
3495.12109,0.12298
3493.06150,0.12345
3491.00191,0.12444
3488.94232,0.12554
3486.88273,0.12615
3484.82315,0.12670
3482.76356,0.12744
3480.70397,0.12812
3478.64438,0.12866
3476.58479,0.12920
3474.52521,0.13002
3472.46562,0.13086
3470.40603,0.13150
3468.34644,0.13248
3466.28685,0.13352
3464.22727,0.13394
3462.16768,0.13436
3460.10809,0.13507
3458.04850,0.13551
3455.98891,0.13578
3453.92932,0.13634
3451.86974,0.13729
3449.81015,0.13828
3447.75056,0.13908
3445.69097,0.13979
3443.63138,0.14051
3441.57180,0.14138
3439.51221,0.14216
3437.45262,0.14255
3435.39303,0.14312
3433.33344,0.14433
3431.27385,0.14559
3429.21427,0.14639
3427.15468,0.14707
3425.09509,0.14795
3423.03550,0.14892
3420.97591,0.14965
3418.91633,0.15002
3416.85674,0.15040
3414.79715,0.15114
3412.73756,0.15210
3410.67797,0.15302
3408.61839,0.15388
3406.55880,0.15494
3404.49921,0.15583
3402.43962,0.15608
3400.38003,0.15664
3398.32044,0.15776
3396.26086,0.15867
3394.20127,0.15967
3392.14168,0.16102
3390.08209,0.16211
3388.02250,0.16265
3385.96292,0.16311
3383.90333,0.16386
3381.84374,0.16481
3379.78415,0.16596
3377.72456,0.16726
3375.66497,0.16868
3373.60539,0.17003
3371.54580,0.17111
3369.48621,0.17235
3367.42662,0.17363
3365.36703,0.17453
3363.30745,0.17546
3361.24786,0.17672
3359.18827,0.17840
3357.12868,0.18016
3355.06909,0.18148
3353.00951,0.18279
3350.94992,0.18460
3348.89033,0.18661
3346.83074,0.18829
3344.77115,0.18986
3342.71156,0.19157
3340.65198,0.19318
3338.59239,0.19494
3336.53280,0.19693
3334.47321,0.19886
3332.41362,0.20084
3330.35404,0.20309
3328.29445,0.20539
3326.23486,0.20721
3324.17527,0.20858
3322.11568,0.21023
3320.05609,0.21261
3317.99651,0.21535
3315.93692,0.21791
3313.87733,0.22022
3311.81774,0.22274
3309.75815,0.22547
3307.69857,0.22784
3305.63898,0.22983
3303.57939,0.23207
3301.51980,0.23430
3299.46021,0.23608
3297.40063,0.23823
3295.34104,0.24125
3293.28145,0.24421
3291.22186,0.24628
3289.16227,0.24764
3287.10268,0.24904
3285.04310,0.25057
3282.98351,0.25168
3280.92392,0.25249
3278.86433,0.25362
3276.80474,0.25493
3274.74516,0.25557
3272.68557,0.25532
3270.62598,0.25492
3268.56639,0.25444
3266.50680,0.25363
3264.44721,0.25266
3262.38763,0.25148
3260.32804,0.24988
3258.26845,0.24825
3256.20886,0.24655
3254.14927,0.24436
3252.08969,0.24215
3250.03010,0.24034
3247.97051,0.23857
3245.91092,0.23653
3243.85133,0.23426
3241.79175,0.23237
3239.73216,0.23130
3237.67257,0.23035
3235.61298,0.22865
3233.55339,0.22650
3231.49380,0.22459
3229.43422,0.22313
3227.37463,0.22187
3225.31504,0.22050
3223.25545,0.21897
3221.19586,0.21777
3219.13628,0.21727
3217.07669,0.21701
3215.01710,0.21611
3212.95751,0.21464
3210.89792,0.21327
3208.83833,0.21192
3206.77875,0.21061
3204.71916,0.20984
3202.65957,0.20923
3200.59998,0.20827
3198.54039,0.20696
3196.48081,0.20558
3194.42122,0.20453
3192.36163,0.20366
3190.30204,0.20237
3188.24245,0.20084
3186.18287,0.19988
3184.12328,0.19908
3182.06369,0.19768
3180.00410,0.19609
3177.94451,0.19456
3175.88492,0.19280
3173.82534,0.19107
3171.76575,0.18952
3169.70616,0.18804
3167.64657,0.18654
3165.58698,0.18505
3163.52740,0.18346
3161.46781,0.18162
3159.40822,0.17993
3157.34863,0.17858
3155.28904,0.17748
3153.22945,0.17652
3151.16987,0.17512
3149.11028,0.17333
3147.05069,0.17197
3144.99110,0.17105
3142.93151,0.16996
3140.87193,0.16850
3138.81234,0.16715
3136.75275,0.16610
3134.69316,0.16469
3132.63357,0.16306
3130.57399,0.16193
3128.51440,0.16108
3126.45481,0.16008
3124.39522,0.15903
3122.33563,0.15825
3120.27604,0.15762
3118.21646,0.15680
3116.15687,0.15583
3114.09728,0.15504
3112.03769,0.15472
3109.97810,0.15473
3107.91852,0.15469
3105.85893,0.15421
3103.79934,0.15342
3101.73975,0.15309
3099.68016,0.15309
3097.62057,0.15288
3095.56099,0.15267
3093.50140,0.15275
3091.44181,0.15303
3089.38222,0.15324
3087.32263,0.15325
3085.26305,0.15317
3083.20346,0.15337
3081.14387,0.15378
3079.08428,0.15395
3077.02469,0.15380
3074.96511,0.15354
3072.90552,0.15339
3070.84593,0.15352
3068.78634,0.15387
3066.72675,0.15405
3064.66716,0.15394
3062.60758,0.15351
3060.54799,0.15280
3058.48840,0.15232
3056.42881,0.15221
3054.36922,0.15198
3052.30964,0.15142
3050.25005,0.15077
3048.19046,0.15021
3046.13087,0.14962
3044.07128,0.14876
3042.01169,0.14777
3039.95211,0.14702
3037.89252,0.14643
3035.83293,0.14580
3033.77334,0.14507
3031.71375,0.14406
3029.65417,0.14291
3027.59458,0.14194
3025.53499,0.14126
3023.47540,0.14063
3021.41581,0.13955
3019.35623,0.13823
3017.29664,0.13714
3015.23705,0.13625
3013.17746,0.13563
3011.11787,0.13507
3009.05828,0.13406
3006.99870,0.13296
3004.93911,0.13236
3002.87952,0.13207
3000.81993,0.13196
2998.76034,0.13207
2996.70076,0.13219
2994.64117,0.13227
2992.58158,0.13233
2990.52199,0.13256
2988.46240,0.13342
2986.40281,0.13481
2984.34323,0.13603
2982.28364,0.13713
2980.22405,0.13845
2978.16446,0.13962
2976.10487,0.14059
2974.04529,0.14169
2971.98570,0.14273
2969.92611,0.14366
2967.86652,0.14484
2965.80693,0.14621
2963.74735,0.14744
2961.68776,0.14843
2959.62817,0.14892
2957.56858,0.14900
2955.50899,0.14886
2953.44940,0.14834
2951.38982,0.14745
2949.33023,0.14656
2947.27064,0.14608
2945.21105,0.14628
2943.15146,0.14713
2941.09188,0.14830
2939.03229,0.14945
2936.97270,0.15013
2934.91311,0.15054
2932.85352,0.15095
2930.79393,0.15113
2928.73435,0.15095
2926.67476,0.15017
2924.61517,0.14880
2922.55558,0.14704
2920.49599,0.14508
2918.43641,0.14325
2916.37682,0.14177
2914.31723,0.14059
2912.25764,0.13979
2910.19805,0.13948
2908.13847,0.13917
2906.07888,0.13814
2904.01929,0.13678
2901.95970,0.13583
2899.90011,0.13527
2897.84052,0.13493
2895.78094,0.13474
2893.72135,0.13434
2891.66176,0.13363
2889.60217,0.13315
2887.54258,0.13323
2885.48300,0.13348
2883.42341,0.13364
2881.36382,0.13412
2879.30423,0.13509
2877.24464,0.13596
2875.18505,0.13624
2873.12547,0.13623
2871.06588,0.13602
2869.00629,0.13529
2866.94670,0.13414
2864.88711,0.13277
2862.82753,0.13128
2860.76794,0.12993
2858.70835,0.12890
2856.64876,0.12821
2854.58917,0.12750
2852.52959,0.12627
2850.47000,0.12486
2848.41041,0.12414
2846.35082,0.12388
2844.29123,0.12320
2842.23164,0.12224
2840.17206,0.12162
2838.11247,0.12136
2836.05288,0.12123
2833.99329,0.12113
2831.93370,0.12072
2829.87412,0.11995
2827.81453,0.11926
2825.75494,0.11877
2823.69535,0.11832
2821.63576,0.11799
2819.57617,0.11794
2817.51659,0.11777
2815.45700,0.11729
2813.39741,0.11688
2811.33782,0.11658
2809.27823,0.11624
2807.21865,0.11575
2805.15906,0.11522
2803.09947,0.11509
2801.03988,0.11520
2798.98029,0.11493
2796.92071,0.11432
2794.86112,0.11402
2792.80153,0.11405
2790.74194,0.11375
2788.68235,0.11310
2786.62276,0.11255
2784.56318,0.11213
2782.50359,0.11172
2780.44400,0.11144
2778.38441,0.11143
2776.32482,0.11150
2774.26524,0.11132
2772.20565,0.11102
2770.14606,0.11082
2768.08647,0.11057
2766.02688,0.11020
2763.96729,0.10978
2761.90771,0.10952
2759.84812,0.10950
2757.78853,0.10929
2755.72894,0.10869
2753.66935,0.10806
2751.60977,0.10774
2749.55018,0.10759
2747.49059,0.10751
2745.43100,0.10731
2743.37141,0.10685
2741.31183,0.10656
2739.25224,0.10644
2737.19265,0.10603
2735.13306,0.10552
2733.07347,0.10536
2731.01388,0.10546
2728.95430,0.10550
2726.89471,0.10531
2724.83512,0.10506
2722.77553,0.10477
2720.71594,0.10426
2718.65636,0.10376
2716.59677,0.10352
2714.53718,0.10333
2712.47759,0.10291
2710.41800,0.10249
2708.35841,0.10220
2706.29883,0.10182
2704.23924,0.10136
2702.17965,0.10098
2700.12006,0.10076
2698.06047,0.10060
2696.00089,0.10052
2693.94130,0.10061
2691.88171,0.10065
2689.82212,0.10047
2687.76253,0.10021
2685.70295,0.09992
2683.64336,0.09965
2681.58377,0.09953
2679.52418,0.09950
2677.46459,0.09930
2675.40500,0.09887
2673.34542,0.09848
2671.28583,0.09834
2669.22624,0.09835
2667.16665,0.09840
2665.10706,0.09850
2663.04748,0.09843
2660.98789,0.09804
2658.92830,0.09762
2656.86871,0.09738
2654.80912,0.09734
2652.74953,0.09741
2650.68995,0.09726
2648.63036,0.09686
2646.57077,0.09653
2644.51118,0.09641
2642.45159,0.09638
2640.39201,0.09625
2638.33242,0.09585
2636.27283,0.09531
2634.21324,0.09486
2632.15365,0.09454
2630.09407,0.09421
2628.03448,0.09374
2625.97489,0.09335
2623.91530,0.09341
2621.85571,0.09362
2619.79612,0.09325
2617.73654,0.09251
2615.67695,0.09211
2613.61736,0.09203
2611.55777,0.09187
2609.49818,0.09158
2607.43860,0.09121
2605.37901,0.09085
2603.31942,0.09051
2601.25983,0.08999
2599.20024,0.08973
2597.14065,0.08996
2595.08107,0.09005
2593.02148,0.08972
2590.96189,0.08932
2588.90230,0.08910
2586.84271,0.08891
2584.78313,0.08848
2582.72354,0.08790
2580.66395,0.08762
2578.60436,0.08776
2576.54477,0.08761
2574.48519,0.08699
2572.42560,0.08655
2570.36601,0.08640
2568.30642,0.08633
2566.24683,0.08612
2564.18724,0.08585
2562.12766,0.08593
2560.06807,0.08603
2558.00848,0.08579
2555.94889,0.08573
2553.88930,0.08594
2551.82972,0.08587
2549.77013,0.08555
2547.71054,0.08544
2545.65095,0.08540
2543.59136,0.08497
2541.53177,0.08431
2539.47219,0.08388
2537.41260,0.08373
2535.35301,0.08358
2533.29342,0.08325
2531.23383,0.08290
2529.17425,0.08276
2527.11466,0.08282
2525.05507,0.08287
2522.99548,0.08296
2520.93589,0.08322
2518.87631,0.08329
2516.81672,0.08303
2514.75713,0.08300
2512.69754,0.08321
2510.63795,0.08281
2508.57836,0.08211
2506.51878,0.08182
2504.45919,0.08170
2502.39960,0.08165
2500.34001,0.08166
2498.28042,0.08149
2496.22084,0.08110
2494.16125,0.08074
2492.10166,0.08065
2490.04207,0.08079
2487.98248,0.08098
2485.92289,0.08081
2483.86331,0.08040
2481.80372,0.08026
2479.74413,0.08036
2477.68454,0.08034
2475.62495,0.08012
2473.56537,0.07978
2471.50578,0.07951
2469.44619,0.07961
2467.38660,0.07997
2465.32701,0.07982
2463.26743,0.07924
2461.20784,0.07886
2459.14825,0.07865
2457.08866,0.07862
2455.02907,0.07860
2452.96948,0.07839
2450.90990,0.07821
2448.85031,0.07814
2446.79072,0.07820
2444.73113,0.07827
2442.67154,0.07815
2440.61196,0.07792
2438.55237,0.07764
2436.49278,0.07718
2434.43319,0.07669
2432.37360,0.07658
2430.31401,0.07670
2428.25443,0.07665
2426.19484,0.07654
2424.13525,0.07659
2422.07566,0.07683
2420.01607,0.07720
2417.95649,0.07751
2415.89690,0.07754
2413.83731,0.07712
2411.77772,0.07644
2409.71813,0.07618
2407.65855,0.07616
2405.59896,0.07585
2403.53937,0.07569
2401.47978,0.07580
2399.42019,0.07571
2397.36060,0.07548
2395.30102,0.07530
2393.24143,0.07525
2391.18184,0.07534
2389.12225,0.07542
2387.06266,0.07526
2385.00308,0.07498
2382.94349,0.07491
2380.88390,0.07497
2378.82431,0.07509
2376.76472,0.07523
2374.70513,0.07505
2372.64555,0.07453
2370.58596,0.07427
2368.52637,0.07436
2366.46678,0.07421
2364.40719,0.07423
2362.34761,0.07488
2360.28802,0.07545
2358.22843,0.07554
2356.16884,0.07559
2354.10925,0.07544
2352.04967,0.07509
2349.99008,0.07510
2347.93049,0.07527
2345.87090,0.07526
2343.81131,0.07493
2341.75172,0.07454
2339.69214,0.07428
2337.63255,0.07374
2335.57296,0.07333
2333.51337,0.07364
2331.45378,0.07398
2329.39420,0.07392
2327.33461,0.07402
2325.27502,0.07416
2323.21543,0.07402
2321.15584,0.07388
2319.09625,0.07372
2317.03667,0.07334
2314.97708,0.07271
2312.91749,0.07197
2310.85790,0.07159
2308.79831,0.07158
2306.73873,0.07147
2304.67914,0.07126
2302.61955,0.07101
2300.55996,0.07053
2298.50037,0.06999
2296.44079,0.06975
2294.38120,0.06981
2292.32161,0.06995
2290.26202,0.06987
2288.20243,0.06958
2286.14284,0.06930
2284.08326,0.06900
2282.02367,0.06851
2279.96408,0.06787
2277.90449,0.06731
2275.84490,0.06648
2273.78532,0.06556
2271.72573,0.06558
2269.66614,0.06615
2267.60655,0.06602
2265.54696,0.06506
2263.48737,0.06396
2261.42779,0.06353
2259.36820,0.06376
2257.30861,0.06385
2255.24902,0.06362
2253.18943,0.06335
2251.12985,0.06324
2249.07026,0.06301
2247.01067,0.06244
2244.95108,0.06238
2242.89149,0.06285
2240.83191,0.06277
2238.77232,0.06206
2236.71273,0.06154
2234.65314,0.06098
2232.59355,0.05977
2230.53396,0.05914
2228.47438,0.05987
2226.41479,0.06064
2224.35520,0.06036
2222.29561,0.05958
2220.23602,0.05912
2218.17644,0.05853
2216.11685,0.05754
2214.05726,0.05674
2211.99767,0.05635
2209.93808,0.05643
2207.87849,0.05699
2205.81891,0.05744
2203.75932,0.05698
2201.69973,0.05634
2199.64014,0.05628
2197.58055,0.05610
2195.52097,0.05564
2193.46138,0.05526
2191.40179,0.05542
2189.34220,0.05548
2187.28261,0.05455
2185.22303,0.05378
2183.16344,0.05358
2181.10385,0.05335
2179.04426,0.05352
2176.98467,0.05348
2174.92508,0.05301
2172.86550,0.05290
2170.80591,0.05289
2168.74632,0.05295
2166.68673,0.05279
2164.62714,0.05166
2162.56756,0.04979
2160.50797,0.04733
2158.44838,0.04532
2156.38879,0.04576
2154.32920,0.04743
2152.26961,0.04849
2150.21003,0.04926
2148.15044,0.04983
2146.09085,0.04987
2144.03126,0.05024
2141.97167,0.05138
2139.91209,0.05208
2137.85250,0.05188
2135.79291,0.05199
2133.73332,0.05257
2131.67373,0.05297
2129.61415,0.05336
2127.55456,0.05422
2125.49497,0.05540
2123.43538,0.05619
2121.37579,0.05645
2119.31620,0.05657
2117.25662,0.05680
2115.19703,0.05707
2113.13744,0.05700
2111.07785,0.05639
2109.01826,0.05545
2106.95868,0.05505
2104.89909,0.05558
2102.83950,0.05596
2100.77991,0.05554
2098.72032,0.05480
2096.66073,0.05431
2094.60115,0.05471
2092.54156,0.05572
2090.48197,0.05579
2088.42238,0.05481
2086.36279,0.05430
2084.30321,0.05439
2082.24362,0.05425
2080.18403,0.05391
2078.12444,0.05340
2076.06485,0.05245
2074.00527,0.05171
2071.94568,0.05207
2069.88609,0.05287
2067.82650,0.05288
2065.76691,0.05199
2063.70732,0.05116
2061.64774,0.05049
2059.58815,0.04977
2057.52856,0.04962
2055.46897,0.04990
2053.40938,0.05029
2051.34980,0.05033
2049.29021,0.04918
2047.23062,0.04726
2045.17103,0.04606
2043.11144,0.04604
2041.05185,0.04553
2038.99227,0.04404
2036.93268,0.04372
2034.87309,0.04416
2032.81350,0.04318
2030.75391,0.04209
2028.69433,0.04254
2026.63474,0.04380
2024.57515,0.04457
2022.51556,0.04434
2020.45597,0.04394
2018.39639,0.04411
2016.33680,0.04414
2014.27721,0.04372
2012.21762,0.04318
2010.15803,0.04240
2008.09844,0.04216
2006.03886,0.04288
2003.97927,0.04300
2001.91968,0.04246
1999.86009,0.04238
1997.80050,0.04251
1995.74092,0.04344
1993.68133,0.04475
1991.62174,0.04502
1989.56215,0.04492
1987.50256,0.04477
1985.44297,0.04429
1983.38339,0.04399
1981.32380,0.04376
1979.26421,0.04249
1977.20462,0.03987
1975.14503,0.03793
1973.08545,0.03779
1971.02586,0.03811
1968.96627,0.03902
1966.90668,0.04053
1964.84709,0.04074
1962.78751,0.04060
1960.72792,0.04155
1958.66833,0.04216
1956.60874,0.04214
1954.54915,0.04242
1952.48956,0.04229
1950.42998,0.04171
1948.37039,0.04146
1946.31080,0.04131
1944.25121,0.04154
1942.19162,0.04195
1940.13204,0.04182
1938.07245,0.04190
1936.01286,0.04233
1933.95327,0.04249
1931.89368,0.04241
1929.83409,0.04221
1927.77451,0.04189
1925.71492,0.04196
1923.65533,0.04270
1921.59574,0.04333
1919.53615,0.04321
1917.47657,0.04265
1915.41698,0.04221
1913.35739,0.04223
1911.29780,0.04245
1909.23821,0.04247
1907.17863,0.04246
1905.11904,0.04251
1903.05945,0.04252
1900.99986,0.04257
1898.94027,0.04275
1896.88068,0.04278
1894.82110,0.04241
1892.76151,0.04196
1890.70192,0.04186
1888.64233,0.04200
1886.58274,0.04214
1884.52316,0.04218
1882.46357,0.04192
1880.40398,0.04157
1878.34439,0.04155
1876.28480,0.04173
1874.22521,0.04169
1872.16563,0.04135
1870.10604,0.04088
1868.04645,0.04059
1865.98686,0.04080
1863.92727,0.04100
1861.86769,0.04059
1859.80810,0.03976
1857.74851,0.03923
1855.68892,0.03931
1853.62933,0.03958
1851.56975,0.03957
1849.51016,0.03943
1847.45057,0.03925
1845.39098,0.03892
1843.33139,0.03875
1841.27180,0.03873
1839.21222,0.03863
1837.15263,0.03862
1835.09304,0.03862
1833.03345,0.03829
1830.97386,0.03781
1828.91428,0.03758
1826.85469,0.03756
1824.79510,0.03743
1822.73551,0.03720
1820.67592,0.03691
1818.61633,0.03653
1816.55675,0.03618
1814.49716,0.03600
1812.43757,0.03591
1810.37798,0.03586
1808.31839,0.03582
1806.25881,0.03567
1804.19922,0.03558
1802.13963,0.03562
1800.08004,0.03549
1798.02045,0.03501
1795.96087,0.03460
1793.90128,0.03444
1791.84169,0.03442
1789.78210,0.03439
1787.72251,0.03423
1785.66292,0.03391
1783.60334,0.03353
1781.54375,0.03330
1779.48416,0.03321
1777.42457,0.03299
1775.36498,0.03263
1773.30540,0.03241
1771.24581,0.03213
1769.18622,0.03164
1767.12663,0.03125
1765.06704,0.03110
1763.00745,0.03104
1760.94787,0.03084
1758.88828,0.03056
1756.82869,0.03044
1754.76910,0.03043
1752.70951,0.03024
1750.64993,0.02992
1748.59034,0.02962
1746.53075,0.02940
1744.47116,0.02903
1742.41157,0.02859
1740.35199,0.02829
1738.29240,0.02816
1736.23281,0.02810
1734.17322,0.02791
1732.11363,0.02749
1730.05404,0.02705
1727.99446,0.02677
1725.93487,0.02659
1723.87528,0.02647
1721.81569,0.02627
1719.75610,0.02615
1717.69652,0.02654
1715.63693,0.02755
1713.57734,0.02857
1711.51775,0.02972
1709.45816,0.03154
1707.39857,0.03437
1705.33899,0.03871
1703.27940,0.04366
1701.21981,0.05016
1699.16022,0.05884
1697.10063,0.06601
1695.04105,0.07241
1692.98146,0.07785
1690.92187,0.08280
1688.86228,0.08865
1686.80269,0.09455
1684.74311,0.10232
1682.68352,0.11167
1680.62393,0.11870
1678.56434,0.12505
1676.50475,0.13241
1674.44516,0.14127
1672.38558,0.14969
1670.32599,0.15900
1668.26640,0.17049
1666.20681,0.18056
1664.14722,0.19072
1662.08764,0.20332
1660.02805,0.21503
1657.96846,0.22380
1655.90887,0.23047
1653.84928,0.23815
1651.78969,0.24604
1649.73011,0.24830
1647.67052,0.24869
1645.61093,0.24906
1643.55134,0.24817
1641.49175,0.24616
1639.43217,0.24362
1637.37258,0.24075
1635.31299,0.23722
1633.25340,0.23338
1631.19381,0.22985
1629.13423,0.22671
1627.07464,0.22435
1625.01505,0.22307
1622.95546,0.22283
1620.89587,0.22289
1618.83628,0.22269
1616.77670,0.22189
1614.71711,0.21947
1612.65752,0.21498
1610.59793,0.20852
1608.53834,0.20044
1606.47876,0.19147
1604.41917,0.18211
1602.35958,0.17279
1600.29999,0.16399
1598.24040,0.15576
1596.18081,0.14811
1594.12123,0.14088
1592.06164,0.13410
1590.00205,0.12798
1587.94246,0.12261
1585.88287,0.11791
1583.82329,0.11394
1581.76370,0.11068
1579.70411,0.10799
1577.64452,0.10587
1575.58493,0.10484
1573.52535,0.10495
1571.46576,0.10553
1569.40617,0.10713
1567.34658,0.10964
1565.28699,0.11272
1563.22740,0.11613
1561.16782,0.12007
1559.10823,0.12840
1557.04864,0.13910
1554.98905,0.14692
1552.92946,0.15503
1550.86988,0.16369
1548.81029,0.17223
1546.75070,0.17960
1544.69111,0.18615
1542.63152,0.19234
1540.57193,0.19864
1538.51235,0.20447
1536.45276,0.20732
1534.39317,0.20931
1532.33358,0.21179
1530.27399,0.21351
1528.21441,0.21476
1526.15482,0.21626
1524.09523,0.21763
1522.03564,0.21954
1519.97605,0.22224
1517.91647,0.22460
1515.85688,0.22628
1513.79729,0.22652
1511.73770,0.22503
1509.67811,0.22238
1507.61852,0.21841
1505.55894,0.21302
1503.49935,0.20788
1501.43976,0.20270
1499.38017,0.19679
1497.32058,0.18991
1495.26100,0.18238
1493.20141,0.17529
1491.14182,0.16804
1489.08223,0.15987
1487.02264,0.15219
1484.96305,0.14574
1482.90347,0.14018
1480.84388,0.13533
1478.78429,0.13147
1476.72470,0.12872
1474.66511,0.12709
1472.60553,0.12675
1470.54594,0.12713
1468.48635,0.12722
1466.42676,0.12703
1464.36717,0.12717
1462.30759,0.12768
1460.24800,0.12830
1458.18841,0.12989
1456.12882,0.13288
1454.06923,0.13468
1452.00964,0.13504
1449.95006,0.13473
1447.89047,0.13386
1445.83088,0.13247
1443.77129,0.13068
1441.71170,0.12855
1439.65212,0.12623
1437.59253,0.12389
1435.53294,0.12158
1433.47335,0.11952
1431.41376,0.11776
1429.35417,0.11631
1427.29459,0.11523
1425.23500,0.11468
1423.17541,0.11468
1421.11582,0.11500
1419.05623,0.11574
1416.99665,0.11655
1414.93706,0.11695
1412.87747,0.11708
1410.81788,0.11699
1408.75829,0.11666
1406.69871,0.11614
1404.63912,0.11551
1402.57953,0.11474
1400.51994,0.11383
1398.46035,0.11287
1396.40076,0.11219
1394.34118,0.11198
1392.28159,0.11208
1390.22200,0.11228
1388.16241,0.11273
1386.10282,0.11329
1384.04324,0.11342
1381.98365,0.11301
1379.92406,0.11226
1377.86447,0.11129
1375.80488,0.11020
1373.74529,0.10932
1371.68571,0.10874
1369.62612,0.10811
1367.56653,0.10707
1365.50694,0.10558
1363.44735,0.10390
1361.38777,0.10235
1359.32818,0.10101
1357.26859,0.09988
1355.20900,0.09899
1353.14941,0.09834
1351.08983,0.09804
1349.03024,0.09806
1346.97065,0.09807
1344.91106,0.09804
1342.85147,0.09819
1340.79188,0.09856
1338.73230,0.09895
1336.67271,0.09924
1334.61312,0.09955
1332.55353,0.09987
1330.49394,0.10007
1328.43436,0.10008
1326.37477,0.10001
1324.31518,0.10003
1322.25559,0.10012
1320.19600,0.10031
1318.13641,0.10073
1316.07683,0.10128
1314.01724,0.10172
1311.95765,0.10202
1309.89806,0.10233
1307.83847,0.10276
1305.77889,0.10317
1303.71930,0.10336
1301.65971,0.10335
1299.60012,0.10323
1297.54053,0.10295
1295.48095,0.10251
1293.42136,0.10204
1291.36177,0.10160
1289.30218,0.10114
1287.24259,0.10071
1285.18300,0.10026
1283.12342,0.09982
1281.06383,0.09946
1279.00424,0.09921
1276.94465,0.09908
1274.88506,0.09892
1272.82548,0.09874
1270.76589,0.09869
1268.70630,0.09875
1266.64671,0.09891
1264.58712,0.09925
1262.52753,0.09975
1260.46795,0.10028
1258.40836,0.10086
1256.34877,0.10161
1254.28918,0.10251
1252.22959,0.10344
1250.17001,0.10431
1248.11042,0.10504
1246.05083,0.10561
1243.99124,0.10612
1241.93165,0.10655
1239.87207,0.10686
1237.81248,0.10704
1235.75289,0.10714
1233.69330,0.10706
1231.63371,0.10659
1229.57412,0.10589
1227.51454,0.10507
1225.45495,0.10405
1223.39536,0.10291
1221.33577,0.10178
1219.27618,0.10055
1217.21660,0.09919
1215.15701,0.09779
1213.09742,0.09628
1211.03783,0.09463
1208.97824,0.09304
1206.91865,0.09153
1204.85907,0.08996
1202.79948,0.08832
1200.73989,0.08675
1198.68030,0.08535
1196.62071,0.08409
1194.56113,0.08286
1192.50154,0.08166
1190.44195,0.08059
1188.38236,0.07974
1186.32277,0.07909
1184.26319,0.07854
1182.20360,0.07818
1180.14401,0.07820
1178.08442,0.07869
1176.02483,0.07956
1173.96524,0.08066
1171.90566,0.08166
1169.84607,0.08235
1167.78648,0.08276
1165.72689,0.08301
1163.66730,0.08308
1161.60772,0.08277
1159.54813,0.08207
1157.48854,0.08130
1155.42895,0.08051
1153.36936,0.07956
1151.30977,0.07845
1149.25019,0.07738
1147.19060,0.07656
1145.13101,0.07593
1143.07142,0.07529
1141.01183,0.07458
1138.95225,0.07400
1136.89266,0.07361
1134.83307,0.07336
1132.77348,0.07317
1130.71389,0.07302
1128.65431,0.07282
1126.59472,0.07252
1124.53513,0.07206
1122.47554,0.07153
1120.41595,0.07101
1118.35636,0.07050
1116.29678,0.07006
1114.23719,0.06976
1112.17760,0.06957
1110.11801,0.06944
1108.05842,0.06946
1105.99884,0.06971
1103.93925,0.06999
1101.87966,0.07013
1099.82007,0.07021
1097.76048,0.07034
1095.70089,0.07058
1093.64131,0.07097
1091.58172,0.07161
1089.52213,0.07267
1087.46254,0.07406
1085.40295,0.07559
1083.34337,0.07721
1081.28378,0.07883
1079.22419,0.08035
1077.16460,0.08173
1075.10501,0.08283
1073.04543,0.08360
1070.98584,0.08429
1068.92625,0.08497
1066.86666,0.08546
1064.80707,0.08575
1062.74748,0.08591
1060.68790,0.08599
1058.62831,0.08611
1056.56872,0.08611
1054.50913,0.08586
1052.44954,0.08551
1050.38996,0.08512
1048.33037,0.08462
1046.27078,0.08389
1044.21119,0.08280
1042.15160,0.08135
1040.09201,0.07971
1038.03243,0.07804
1035.97284,0.07646
1033.91325,0.07506
1031.85366,0.07374
1029.79407,0.07236
1027.73449,0.07082
1025.67490,0.06916
1023.61531,0.06768
1021.55572,0.06650
1019.49613,0.06540
1017.43655,0.06422
1015.37696,0.06314
1013.31737,0.06228
1011.25778,0.06141
1009.19819,0.06036
1007.13860,0.05934
1005.07902,0.05844
1003.01943,0.05753
1000.95984,0.05666
998.90025,0.05594
996.84066,0.05521
994.78108,0.05448
992.72149,0.05398
990.66190,0.05352
988.60231,0.05290
986.54272,0.05237
984.48313,0.05204
982.42355,0.05174
980.36396,0.05138
978.30437,0.05095
976.24478,0.05062
974.18519,0.05044
972.12561,0.05030
970.06602,0.05013
968.00643,0.05000
965.94684,0.05002
963.88725,0.05013
961.82767,0.05008
959.76808,0.04985
957.70849,0.04957
955.64890,0.04926
953.58931,0.04893
951.52972,0.04861
949.47014,0.04837
947.41055,0.04822
945.35096,0.04809
943.29137,0.04802
941.23178,0.04797
939.17220,0.04780
937.11261,0.04759
935.05302,0.04746
932.99343,0.04738
930.93384,0.04732
928.87425,0.04717
926.81467,0.04689
924.75508,0.04651
922.69549,0.04607
920.63590,0.04561
918.57631,0.04514
916.51673,0.04464
914.45714,0.04428
912.39755,0.04416
910.33796,0.04418
908.27837,0.04421
906.21879,0.04426
904.15920,0.04431
902.09961,0.04430
900.04002,0.04422
897.98043,0.04398
895.92084,0.04365
893.86126,0.04338
891.80167,0.04317
889.74208,0.04290
887.68249,0.04246
885.62290,0.04204
883.56332,0.04165
881.50373,0.04112
879.44414,0.04063
877.38455,0.04035
875.32496,0.04014
873.26537,0.03994
871.20579,0.03978
869.14620,0.03954
867.08661,0.03909
865.02702,0.03860
862.96743,0.03825
860.90785,0.03794
858.84826,0.03770
856.78867,0.03762
854.72908,0.03759
852.66949,0.03754
850.60991,0.03743
848.55032,0.03718
846.49073,0.03684
844.43114,0.03667
842.37155,0.03672
840.31196,0.03681
838.25238,0.03684
836.19279,0.03689
834.13320,0.03704
832.07361,0.03738
830.01402,0.03775
827.95444,0.03773
825.89485,0.03738
823.83526,0.03722
821.77567,0.03731
819.71608,0.03736
817.65649,0.03739
815.59691,0.03756
813.53732,0.03777
811.47773,0.03790
809.41814,0.03802
807.35855,0.03808
805.29897,0.03807
803.23938,0.03814
801.17979,0.03826
799.12020,0.03825
797.06061,0.03820
795.00103,0.03824
792.94144,0.03824
790.88185,0.03825
788.82226,0.03855
786.76267,0.03898
784.70308,0.03923
782.64350,0.03940
780.58391,0.03967
778.52432,0.03996
776.46473,0.04023
774.40514,0.04051
772.34556,0.04081
770.28597,0.04115
768.22638,0.04136
766.16679,0.04144
764.10720,0.04153
762.04761,0.04154
759.98803,0.04154
757.92844,0.04175
755.86885,0.04209
753.80926,0.04241
751.74967,0.04273
749.69009,0.04305
747.63050,0.04331
745.57091,0.04345
743.51132,0.04335
741.45173,0.04317
739.39215,0.04315
737.33256,0.04328
735.27297,0.04347
733.21338,0.04365
731.15379,0.04400
729.09420,0.04455
727.03462,0.04501
724.97503,0.04546
722.91544,0.04620
720.85585,0.04712
718.79626,0.04799
716.73668,0.04879
714.67709,0.04963
712.61750,0.05055
710.55791,0.05157
708.49832,0.05277
706.43873,0.05406
704.37915,0.05537
702.31956,0.05661
700.25997,0.05749
698.20038,0.05783
696.14079,0.05781
694.08121,0.05760
692.02162,0.05738
689.96203,0.05744
687.90244,0.05768
685.84285,0.05785
683.78327,0.05802
681.72368,0.05838
679.66409,0.05879
677.60450,0.05911
675.54491,0.05934
673.48532,0.05948
671.42574,0.05969
669.36615,0.06012
667.30656,0.06073
665.24697,0.06101
663.18738,0.06105
661.12780,0.06115
659.06821,0.06141
657.00862,0.06171
654.94903,0.06185
652.88944,0.06185
650.82985,0.06183
648.77027,0.06193
646.71068,0.06225
644.65109,0.06269
642.59150,0.06309
640.53191,0.06346
638.47233,0.06390
636.41274,0.06432
634.35315,0.06455
632.29356,0.06466
630.23397,0.06477
628.17439,0.06497
626.11480,0.06518
624.05521,0.06523
621.99562,0.06513
619.93603,0.06500
617.87644,0.06502
615.81686,0.06519
613.75727,0.06516
611.69768,0.06481
609.63809,0.06440
607.57850,0.06412
605.51892,0.06407
603.45933,0.06408
601.39974,0.06404
599.34015,0.06410
597.28056,0.06416
595.22097,0.06416
593.16139,0.06424
591.10180,0.06432
589.04221,0.06425
586.98262,0.06411
584.92303,0.06396
582.86345,0.06396
580.80386,0.06414
578.74427,0.06426
576.68468,0.06421
574.62509,0.06411
572.56551,0.06417
570.50592,0.06428
568.44633,0.06422
566.38674,0.06406
564.32715,0.06391
562.26756,0.06367
560.20798,0.06352
558.14839,0.06366
556.08880,0.06390
554.02921,0.06414
551.96962,0.06426
549.91004,0.06418
547.85045,0.06398
545.79086,0.06364
543.73127,0.06326
541.67168,0.06299
539.61209,0.06272
537.55251,0.06251
535.49292,0.06254
533.43333,0.06266
531.37374,0.06269
529.31415,0.06279
527.25457,0.06301
525.19498,0.06316
523.13539,0.06312
521.07580,0.06309
519.01621,0.06311
516.95663,0.06291
514.89704,0.06238
512.83745,0.06186
510.77786,0.06156
508.71827,0.06111
506.65868,0.06036
504.59910,0.05952
502.53951,0.05856
500.47992,0.05782
498.42033,0.05757
496.36074,0.05738
494.30116,0.05697
492.24157,0.05647
490.18198,0.05611
488.12239,0.05602
486.06280,0.05585
484.00321,0.05536
481.94363,0.05485
479.88404,0.05459
477.82445,0.05445
475.76486,0.05427
473.70527,0.05409
471.64569,0.05383
469.58610,0.05336
467.52651,0.05319
465.46692,0.05360
463.40733,0.05361
461.34775,0.05295
459.28816,0.05263
457.22857,0.05288
455.16898,0.05280
453.10939,0.05247
451.04980,0.05233
448.99022,0.05200
446.93063,0.05129
444.87104,0.05049
442.81145,0.04976
440.75186,0.04925
438.69228,0.04909
436.63269,0.04889
434.57310,0.04834
432.51351,0.04761
430.45392,0.04673
428.39433,0.04577
426.33475,0.04511
424.27516,0.04498
422.21557,0.04531
420.15598,0.04560
418.09639,0.04538
416.03681,0.04501
413.97722,0.04490
411.91763,0.04491
409.85804,0.04428
407.79845,0.04288
405.73887,0.04176
403.67928,0.04125
401.61969,0.04098
399.56010,0.04056
