DATATYPE	 IR Spectrum
XYUNITS	 Wavenumber;Absorbance
DECIMALSYMBOL	 .
649.954535365105000	 0.256540349477813
650.187493979931000	 0.256619842714566
650.420452594757000	 0.257258213655221
650.653411209583000	 0.258405574583603
650.886369824409000	 0.259751555764682
651.119328439236000	 0.260925737390192
651.352287054062000	 0.261726282012569
651.585245668888000	 0.262239047931664
651.818204283714000	 0.262769912115394
652.051162898541000	 0.263637730333430
652.284121513367000	 0.264962260542050
652.517080128193000	 0.266570950460114
652.750038743019000	 0.268075537722365
652.982997357845000	 0.269082795663992
653.215955972672000	 0.269425611922310
653.448914587498000	 0.269271306674928
653.681873202324000	 0.269032334509054
653.914831817150000	 0.269136646395263
654.147790431976000	 0.269800063165065
654.380749046803000	 0.270924850520694
654.613707661629000	 0.272170613353876
654.846666276455000	 0.273158637022718
655.079624891281000	 0.273699012307619
655.312583506107000	 0.273904403010195
655.545542120934000	 0.274117166534889
655.778500735760000	 0.274698693613209
656.011459350586000	 0.275812630717390
656.244417965412000	 0.277323168372344
656.477376580238000	 0.278859218385169
656.710335195065000	 0.280011427603149
656.943293809891000	 0.280554841501393
657.176252424717000	 0.280563482356921
657.409211039543000	 0.280345226491049
657.642169654369000	 0.280244437940087
657.875128269196000	 0.280439116993342
658.108086884022000	 0.280847699920499
658.341045498848000	 0.281190295822231
658.574004113674000	 0.281166525524956
658.806962728500000	 0.280644928521891
659.039921343327000	 0.279744198602047
659.272879958153000	 0.278753316292617
659.505838572979000	 0.277945940754250
659.738797187805000	 0.277407627447646
659.971755802631000	 0.276975826587774
660.204714417458000	 0.276324367607032
660.437673032284000	 0.275146022097206
660.670631647110000	 0.273327122341715
660.903590261936000	 0.271005671880969
661.136548876762000	 0.268478336928897
661.369507491589000	 0.266021967167203
661.602466106415000	 0.263742125293255
661.835424721241000	 0.261532647993067
662.068383336067000	 0.259163152246402
662.301341950893000	 0.256441957784841
662.534300565720000	 0.253355626854251
662.767259180546000	 0.250095432424695
663.000217795372000	 0.246953995541593
663.233176410198000	 0.244160419531153
663.466135025024000	 0.241753526588755
663.699093639851000	 0.239560525657165
663.932052254677000	 0.237287886331800
664.165010869503000	 0.234672510052299
664.397969484329000	 0.231606032156849
664.630928099155000	 0.228159052656953
664.863886713982000	 0.224497439262761
665.096845328808000	 0.220753946539355
665.329803943634000	 0.216942339772412
665.562762558460000	 0.212969014931027
665.795721173286000	 0.208736232122692
666.028679788113000	 0.204276581783813
666.261638402939000	 0.199843789631842
666.494597017765000	 0.195922910266162
666.727555632591000	 0.193177862968790
666.960514247417000	 0.192366690861757
667.193472862244000	 0.194197591989163
667.426431477070000	 0.199004022206861
667.659390091896000	 0.206140158514976
667.892348706722000	 0.213484769387999
668.125307321548000	 0.218171070620787
668.358265936375000	 0.218637542250137
668.591224551201000	 0.215615465889229
668.824183166027000	 0.210930857227396
669.057141780853000	 0.206068307360443
669.290100395679000	 0.201761383417889
669.523059010506000	 0.198206924824567
669.756017625332000	 0.195360404055332
669.988976240158000	 0.193132925775970
670.221934854984000	 0.191480836901823
670.454893469810000	 0.190410566610827
670.687852084637000	 0.189929877292491
670.920810699463000	 0.189987067990418
671.153769314289000	 0.190438637581444
671.386727929115000	 0.191068230420241
671.619686543942000	 0.191652962375710
671.852645158768000	 0.192046335584878
672.085603773594000	 0.192231566424169
672.318562388420000	 0.192311032960585
672.551521003246000	 0.192436630496383
672.784479618072000	 0.192723544293275
673.017438232899000	 0.193196718783991
673.250396847725000	 0.193795726119144
673.483355462551000	 0.194430429585744
673.716314077377000	 0.195052900084836
673.949272692204000	 0.195700861325628
674.182231307030000	 0.196483654265487
674.415189921856000	 0.197518241724380
674.648148536682000	 0.198854520438206
674.881107151508000	 0.200433785333327
675.114065766335000	 0.202103943786356
675.347024381161000	 0.203685692592909
675.579982995987000	 0.205056878670968
675.812941610813000	 0.206208494581898
676.045900225639000	 0.207238670106332
676.278858840466000	 0.208289112569205
676.511817455292000	 0.209464766368221
676.744776070118000	 0.210784543311664
676.977734684944000	 0.212188453681040
677.210693299770000	 0.213593085505258
677.443651914597000	 0.214960143411311
677.676610529423000	 0.216333986448095
677.909569144249000	 0.217822036517245
678.142527759075000	 0.219528905655884
678.375486373901000	 0.221485444726095
678.608444988728000	 0.223616950880856
678.841403603554000	 0.225772450892895
679.074362218380000	 0.227803859638960
679.307320833206000	 0.229653879971075
679.540279448032000	 0.231400353835219
679.773238062859000	 0.233225945754890
680.006196677685000	 0.235327274632819
680.239155292511000	 0.237814445098880
680.472113907337000	 0.240655143742026
680.705072522163000	 0.243691365692245
680.938031136990000	 0.246720116001657
681.170989751816000	 0.249596474433917
681.403948366642000	 0.252302059001545
681.636906981468000	 0.254938767672322
681.869865596294000	 0.257652690386083
682.102824211121000	 0.260535579631960
682.335782825947000	 0.263561774701287
682.568741440773000	 0.266595409056583
682.801700055599000	 0.269463466091775
683.034658670426000	 0.272052866770000
683.267617285252000	 0.274372681861497
683.500575900078000	 0.276541618476385
683.733534514904000	 0.278709061213930
683.966493129730000	 0.280960649139470
684.199451744556000	 0.283266613835814
684.432410359383000	 0.285503482807849
684.665368974209000	 0.287537033991476
684.898327589035000	 0.289317062043324
685.131286203861000	 0.290922795491916
685.364244818687000	 0.292525304007200
685.597203433514000	 0.294286434729119
685.830162048340000	 0.296254426869392
686.063120663166000	 0.298317641700087
686.296079277992000	 0.300245346508449
686.529037892818000	 0.301798398815862
686.761996507645000	 0.302851859364395
686.994955122471000	 0.303458175887751
687.227913737297000	 0.303811256532007
687.460872352123000	 0.304133703636375
687.693830966949000	 0.304556004256086
687.926789581776000	 0.305056058429147
688.159748196602000	 0.305488915582498
688.392706811428000	 0.305686775507397
688.625665426254000	 0.305570012616419
688.858624041080000	 0.305200829225298
689.091582655907000	 0.304744901205640
689.324541270733000	 0.304366077684668
689.557499885559000	 0.304121439675122
689.790458500385000	 0.303920482752324
690.023417115211000	 0.303572338405293
690.256375730038000	 0.302895152139752
690.489334344864000	 0.301824871380880
690.722292959690000	 0.300457025136304
690.955251574516000	 0.298994049904459
691.188210189343000	 0.297630529722511
691.421168804169000	 0.296446068080578
691.654127418995000	 0.295367022727185
691.887086033821000	 0.294216948019489
692.120044648647000	 0.292827106824833
692.353003263474000	 0.291143813468379
692.585961878300000	 0.289267583447445
692.818920493126000	 0.287398609273277
693.051879107952000	 0.285721868620754
693.284837722778000	 0.284300927801705
693.517796337605000	 0.283040462385800
693.750754952431000	 0.281737186859683
693.983713567257000	 0.280192058205229
694.216672182083000	 0.278322459493556
694.449630796909000	 0.276209444667816
694.682589411736000	 0.274051696338974
694.915548026562000	 0.272055167896807
695.148506641388000	 0.270324302508834
695.381465256214000	 0.268814130924315
695.614423871040000	 0.267364842995493
695.847382485867000	 0.265796827748062
696.080341100693000	 0.264013008768682
696.313299715519000	 0.262050628842562
696.546258330345000	 0.260053939316091
696.779216945171000	 0.258187802831068
697.012175559998000	 0.256546388690014
697.245134174824000	 0.255109062099155
697.478092789650000	 0.253764626371010
697.711051404476000	 0.252386740427126
697.944010019302000	 0.250915650844590
698.176968634128000	 0.249397596337715
698.409927248955000	 0.247958711424794
698.642885863781000	 0.246731302048164
698.875844478607000	 0.245778699703775
699.108803093433000	 0.245062566105921
699.341761708260000	 0.244469554365334
699.574720323086000	 0.243880638357579
699.807678937912000	 0.243242290559465
700.040637552738000	 0.242596311433854
700.273596167564000	 0.242049040180136
700.506554782391000	 0.241698222258467
700.739513397217000	 0.241561759337982
700.972472012043000	 0.241550783234405
701.205430626869000	 0.241504327165070
701.438389241695000	 0.241269397764933
701.671347856522000	 0.240783829708498
701.904306471348000	 0.240114328424919
702.137265086174000	 0.239425851768552
702.370223701000000	 0.238898783859206
702.603182315826000	 0.238639909625944
702.836140930653000	 0.238633771056445
703.069099545479000	 0.238756956938253
703.302058160305000	 0.238845264429794
703.535016775131000	 0.238777066579671
703.767975389957000	 0.238527793267329
704.000934004784000	 0.238167403822865
704.233892619610000	 0.237807102180841
704.466851234436000	 0.237530564708112
704.699809849262000	 0.237350124242931
704.932768464088000	 0.237210059898920
705.165727078915000	 0.237030867942427
705.398685693741000	 0.236765050832900
705.631644308567000	 0.236428608729591
705.864602923393000	 0.236088160905528
706.097561538219000	 0.235812584114820
706.330520153046000	 0.235620553504848
706.563478767872000	 0.235457135271005
706.796437382698000	 0.235214909692272
707.029395997524000	 0.234789357722845
707.262354612350000	 0.234137562977574
707.495313227177000	 0.233305450270913
707.728271842003000	 0.232406563444882
707.961230456829000	 0.231564764096036
708.194189071655000	 0.230854134442717
708.427147686482000	 0.230268910311536
708.660106301308000	 0.229737738988782
708.893064916134000	 0.229172077235310
709.126023530960000	 0.228520159535541
709.358982145786000	 0.227795211213865
709.591940760612000	 0.227062650296465
709.824899375439000	 0.226396773457749
710.057857990265000	 0.225835468175724
710.290816605091000	 0.225360700088087
710.523775219917000	 0.224915670906828
710.756733834744000	 0.224447528305003
710.989692449570000	 0.223948881644300
711.222651064396000	 0.223471182855083
711.455609679222000	 0.223100048772707
711.688568294048000	 0.222906595297349
711.921526908875000	 0.222903546267728
712.154485523701000	 0.223031676341086
712.387444138527000	 0.223185079778552
712.620402753353000	 0.223262689161473
712.853361368179000	 0.223218293225263
713.086319983006000	 0.223080751310522
713.319278597832000	 0.222933020860475
713.552237212658000	 0.222863528802647
713.785195827484000	 0.222919318566625
714.018154442310000	 0.223087473659899
714.251113057137000	 0.223313597712898
714.484071671963000	 0.223544747589269
714.717030286789000	 0.223769971362414
714.949988901615000	 0.224032546699758
715.182947516441000	 0.224405339032719
715.415906131268000	 0.224944206569955
715.648864746094000	 0.225648171380693
715.881823360920000	 0.226450878720959
716.114781975746000	 0.227249921714538
716.347740590572000	 0.227959114502953
716.580699205399000	 0.228554185733324
716.813657820225000	 0.229083682488802
717.046616435051000	 0.229636416334609
717.279575049877000	 0.230283666844272
717.512533664703000	 0.231030354820099
717.745492279530000	 0.231804553872928
717.978450894356000	 0.232493636096116
718.211409509182000	 0.233009782551937
718.444368124008000	 0.233349577459927
718.677326738834000	 0.233612556091646
718.910285353661000	 0.233965118679436
719.143243968487000	 0.234567353041463
719.376202583313000	 0.235500467150999
719.609161198139000	 0.236730425681349
719.842119812965000	 0.238124069174763
720.075078427792000	 0.239509002235659
720.308037042618000	 0.240747442396030
720.540995657444000	 0.241786301973633
720.773954272270000	 0.242658723898434
721.006912887096000	 0.243441631724687
721.239871501923000	 0.244200021858851
721.472830116749000	 0.244953333553655
721.705788731575000	 0.245681567343649
721.938747346401000	 0.246362831195409
722.171705961227000	 0.247015103627695
722.404664576054000	 0.247712795977383
722.637623190880000	 0.248564354318069
722.870581805706000	 0.249661577344535
723.103540420532000	 0.251029259138172
723.336499035358000	 0.252604556315195
723.569457650185000	 0.254259819356817
723.802416265011000	 0.255859381546699
724.035374879837000	 0.257321427918027
724.268333494663000	 0.258651464251996
724.501292109489000	 0.259929005344659
724.734250724316000	 0.261256165246079
724.967209339142000	 0.262698408497665
725.200167953968000	 0.264250490553099
725.433126568794000	 0.265844810748612
725.666085183620000	 0.267395245390799
725.899043798447000	 0.268849672799370
726.132002413273000	 0.270219629538337
726.364961028099000	 0.271569830768830
726.597919642925000	 0.272975506840714
726.830878257751000	 0.274475080928896
727.063836872578000	 0.276047532923667
727.296795487404000	 0.277628317013330
727.529754102230000	 0.279154582180851
727.762712717056000	 0.280612122400403
727.995671331882000	 0.282053897757894
728.228629946709000	 0.283576521183767
728.461588561535000	 0.285267218702495
728.694547176361000	 0.287152147764098
728.927505791187000	 0.289176438513417
729.160464406013000	 0.291228745429957
729.393423020840000	 0.293198474927971
729.626381635666000	 0.295034408258223
729.859340250492000	 0.296770604799676
730.092298865318000	 0.298503574971711
730.325257480145000	 0.300333874600959
730.558216094971000	 0.302306305909374
730.791174709797000	 0.304382963131654
731.024133324623000	 0.306464294058580
731.257091939449000	 0.308446442538700
731.490050554276000	 0.310281924572177
731.723009169102000	 0.312007403537624
731.955967783928000	 0.313721345769359
732.188926398754000	 0.315524969252790
732.421885013580000	 0.317461831724122
732.654843628407000	 0.319491262513116
732.887802243233000	 0.321510796497348
733.120760858059000	 0.323414785985790
733.353719472885000	 0.325154698400015
733.586678087711000	 0.326764001627733
733.819636702538000	 0.328331185498610
734.052595317364000	 0.329936630692077
734.285553932190000	 0.331591341159966
734.518512547016000	 0.333214436233919
734.751471161842000	 0.334664343547204
734.984429776669000	 0.335808297815643
735.217388391495000	 0.336591248453054
735.450347006321000	 0.337063029637334
735.683305621147000	 0.337346556806110
735.916264235973000	 0.337566045134729
736.149222850800000	 0.337777986940953
736.382181465626000	 0.337944302922984
736.615140080452000	 0.337961714412370
736.848098695278000	 0.337729485296696
737.081057310104000	 0.337215352085830
737.314015924931000	 0.336479553571646
737.546974539757000	 0.335642034085485
737.779933154583000	 0.334813358941907
738.012891769409000	 0.334031717033859
738.245850384235000	 0.333243430167719
738.478808999062000	 0.332338408976959
738.711767613888000	 0.331220631973219
738.944726228714000	 0.329872889242268
739.177684843540000	 0.328376882381477
739.410643458366000	 0.326875836008194
739.643602073193000	 0.325501712268376
739.876560688019000	 0.324309653099908
740.109519302845000	 0.323256465832981
740.342477917671000	 0.322234244978668
740.575436532497000	 0.321139902150946
740.808395147324000	 0.319941304680895
741.041353762150000	 0.318701992949604
741.274312376976000	 0.317550620245786
741.507270991802000	 0.316614439512761
741.740229606629000	 0.315956555098733
741.973188221455000	 0.315552383634641
742.206146836281000	 0.315317250686379
742.439105451107000	 0.315168672554313
742.672064065933000	 0.315087677079875
742.905022680759000	 0.315143661723258
743.137981295586000	 0.315468326113816
743.370939910412000	 0.316194248570994
743.603898525238000	 0.317393514509170
743.836857140064000	 0.319050111398769
744.069815754890000	 0.321080066758117
744.302774369717000	 0.323387377352932
744.535732984543000	 0.325924149976548
744.768691599369000	 0.328720303724078
745.001650214195000	 0.331865321578726
745.234608829021000	 0.335453024297605
745.467567443848000	 0.339522254103752
745.700526058674000	 0.344028455992095
745.933484673500000	 0.348863727390365
746.166443288326000	 0.353916158439180
746.399401903152000	 0.359136457361941
746.632360517979000	 0.364573554292525
746.865319132805000	 0.370357163895073
747.098277747631000	 0.376636102934442
747.331236362457000	 0.383507078039922
747.564194977283000	 0.390973820230568
747.797153592110000	 0.398959328793640
748.030112206936000	 0.407364547480497
748.263070821762000	 0.416139441687838
748.496029436588000	 0.425322195560906
748.728988051414000	 0.435018059798733
748.961946666241000	 0.445324439513302
749.194905281067000	 0.456241736870160
749.427863895893000	 0.467620349216477
749.660822510719000	 0.479177685449948
749.893781125546000	 0.490582876546451
750.126739740372000	 0.501567003390293
750.359698355198000	 0.511995695841884
750.592656970024000	 0.521857852989507
750.825615584850000	 0.531174381856801
751.058574199677000	 0.539882178763575
751.291532814503000	 0.547766797019552
751.524491429329000	 0.554491417363394
751.757450044155000	 0.559713545924458
751.990408658981000	 0.563223666422678
752.223367273808000	 0.565018994619043
752.456325888634000	 0.565263077166986
752.689284503460000	 0.564157191383072
752.922243118286000	 0.561806920965746
753.155201733112000	 0.558167120875109
753.388160347939000	 0.553096537854411
753.621118962765000	 0.546484833751882
753.854077577591000	 0.538369219259779
754.087036192417000	 0.528964265132162
754.319994807243000	 0.518585894236091
754.552953422070000	 0.507519290255214
754.785912036896000	 0.495911448903879
755.018870651722000	 0.483746843259290
755.251829266548000	 0.470911908830977
755.484787881374000	 0.457304397516639
755.717746496201000	 0.442922304162888
755.950705111027000	 0.427884886137730
756.183663725853000	 0.412384473286155
756.416622340679000	 0.396610910550678
756.649580955505000	 0.380701494863009
756.882539570332000	 0.364745172156641
757.115498185158000	 0.348831358653284
757.348456799984000	 0.333105925871733
757.581415414810000	 0.317794385033123
757.814374029636000	 0.303174695801500
758.047332644463000	 0.289513956335054
758.280291259289000	 0.277003342080413
758.513249874115000	 0.265723096980816
758.746208488941000	 0.255650164086699
758.979167103767000	 0.246699291491952
759.212125718593000	 0.238774732008027
759.445084333420000	 0.231807940990600
759.678042948246000	 0.225766310315684
759.911001563072000	 0.220634065982252
760.143960177898000	 0.216380529737444
760.376918792725000	 0.212935632404243
760.609877407551000	 0.210186640501268
760.842836022377000	 0.207998050718064
761.075794637203000	 0.206244647206283
761.308753252029000	 0.204840930746978
761.541711866856000	 0.203751876620512
761.774670481682000	 0.202980013480774
762.007629096508000	 0.202536731496394
762.240587711334000	 0.202413751660482
762.473546326160000	 0.202569442735396
762.706504940987000	 0.202935770372017
762.939463555813000	 0.203440394705313
763.172422170639000	 0.204030511487497
763.405380785465000	 0.204684599076720
763.638339400291000	 0.205405842091092
763.871298015118000	 0.206202249265042
764.104256629944000	 0.207066287978807
764.337215244770000	 0.207966572392673
764.570173859596000	 0.208856477542364
764.803132474422000	 0.209694246828779
765.036091089249000	 0.210462057048466
765.269049704075000	 0.211171930074738
765.502008318901000	 0.211854529142505
765.734966933727000	 0.212537732348247
