3997.65486	0.10171
3995.59527	0.10153
3993.53569	0.10109
3991.47610	0.10067
3989.41652	0.09996
3987.35693	0.09909
3985.29735	0.09873
3983.23776	0.09909
3981.17817	0.09966
3979.11859	0.09987
3977.05900	0.09980
3974.99942	0.09990
3972.93983	0.10017
3970.88025	0.10026
3968.82066	0.10002
3966.76108	0.09943
3964.70149	0.09887
3962.64191	0.09870
3960.58232	0.09868
3958.52274	0.09861
3956.46315	0.09865
3954.40357	0.09909
3952.34398	0.09993
3950.28440	0.10045
3948.22481	0.10019
3946.16523	0.09960
3944.10564	0.09898
3942.04606	0.09838
3939.98647	0.09816
3937.92689	0.09852
3935.86730	0.09891
3933.80772	0.09885
3931.74813	0.09843
3929.68855	0.09784
3927.62896	0.09738
3925.56937	0.09755
3923.50979	0.09835
3921.45020	0.09899
3919.39062	0.09889
3917.33103	0.09839
3915.27145	0.09797
3913.21186	0.09738
3911.15228	0.09686
3909.09269	0.09693
3907.03311	0.09732
3904.97352	0.09743
3902.91394	0.09716
3900.85435	0.09710
3898.79477	0.09755
3896.73518	0.09785
3894.67560	0.09779
3892.61601	0.09780
3890.55643	0.09774
3888.49684	0.09714
3886.43726	0.09646
3884.37767	0.09630
3882.31809	0.09632
3880.25850	0.09595
3878.19892	0.09539
3876.13933	0.09526
3874.07974	0.09537
3872.02016	0.09486
3869.96057	0.09414
3867.90099	0.09417
3865.84140	0.09465
3863.78182	0.09504
3861.72223	0.09512
3859.66265	0.09500
3857.60306	0.09468
3855.54348	0.09442
3853.48389	0.09495
3851.42431	0.09575
3849.36472	0.09562
3847.30514	0.09496
3845.24555	0.09430
3843.18597	0.09357
3841.12638	0.09272
3839.06680	0.09220
3837.00721	0.09242
3834.94763	0.09299
3832.88804	0.09313
3830.82846	0.09256
3828.76887	0.09212
3826.70929	0.09255
3824.64970	0.09321
3822.59012	0.09356
3820.53053	0.09381
3818.47094	0.09365
3816.41136	0.09333
3814.35177	0.09309
3812.29219	0.09264
3810.23260	0.09220
3808.17302	0.09196
3806.11343	0.09180
3804.05385	0.09155
3801.99426	0.09121
3799.93468	0.09077
3797.87509	0.09019
3795.81551	0.08984
3793.75592	0.09011
3791.69634	0.09083
3789.63675	0.09129
3787.57717	0.09118
3785.51758	0.09083
3783.45800	0.09051
3781.39841	0.09020
3779.33883	0.09007
3777.27924	0.09035
3775.21966	0.09060
3773.16007	0.09024
3771.10049	0.08968
3769.04090	0.08943
3766.98132	0.08896
3764.92173	0.08805
3762.86214	0.08721
3760.80256	0.08694
3758.74297	0.08727
3756.68339	0.08780
3754.62380	0.08812
3752.56422	0.08824
3750.50463	0.08847
3748.44505	0.08884
3746.38546	0.08896
3744.32588	0.08860
3742.26629	0.08767
3740.20671	0.08663
3738.14712	0.08596
3736.08754	0.08559
3734.02795	0.08538
3731.96837	0.08552
3729.90878	0.08567
3727.84920	0.08593
3725.78961	0.08639
3723.73003	0.08636
3721.67044	0.08559
3719.61086	0.08506
3717.55127	0.08500
3715.49169	0.08490
3713.43210	0.08456
3711.37251	0.08409
3709.31293	0.08353
3707.25334	0.08290
3705.19376	0.08240
3703.13417	0.08279
3701.07459	0.08385
3699.01500	0.08414
3696.95542	0.08358
3694.89583	0.08311
3692.83625	0.08288
3690.77666	0.08236
3688.71708	0.08178
3686.65749	0.08142
3684.59791	0.08128
3682.53832	0.08139
3680.47874	0.08155
3678.41915	0.08132
3676.35957	0.08144
3674.29998	0.08247
3672.24040	0.08327
3670.18081	0.08348
3668.12123	0.08324
3666.06164	0.08263
3664.00206	0.08253
3661.94247	0.08318
3659.88289	0.08367
3657.82330	0.08380
3655.76371	0.08405
3653.70413	0.08412
3651.64454	0.08414
3649.58496	0.08467
3647.52537	0.08542
3645.46579	0.08579
3643.40620	0.08580
3641.34662	0.08565
3639.28703	0.08553
3637.22745	0.08574
3635.16786	0.08616
3633.10828	0.08602
3631.04869	0.08533
3628.98911	0.08538
3626.92952	0.08593
3624.86994	0.08585
3622.81035	0.08563
3620.75077	0.08634
3618.69118	0.08801
3616.63160	0.08961
3614.57201	0.09046
3612.51243	0.09037
3610.45284	0.08981
3608.39326	0.08963
3606.33367	0.09007
3604.27408	0.09083
3602.21450	0.09150
3600.15491	0.09182
3598.09533	0.09190
3596.03574	0.09217
3593.97616	0.09272
3591.91657	0.09280
3589.85699	0.09240
3587.79740	0.09286
3585.73782	0.09396
3583.67823	0.09450
3581.61865	0.09500
3579.55906	0.09601
3577.49948	0.09708
3575.43989	0.09773
3573.38031	0.09818
3571.32072	0.09868
3569.26114	0.09924
3567.20155	0.10007
3565.14197	0.10116
3563.08238	0.10211
3561.02280	0.10262
3558.96321	0.10245
3556.90363	0.10217
3554.84404	0.10262
3552.78446	0.10348
3550.72487	0.10424
3548.66528	0.10531
3546.60570	0.10688
3544.54611	0.10806
3542.48653	0.10825
3540.42694	0.10786
3538.36736	0.10747
3536.30777	0.10785
3534.24819	0.10914
3532.18860	0.11042
3530.12902	0.11107
3528.06943	0.11141
3526.00985	0.11202
3523.95026	0.11283
3521.89068	0.11356
3519.83109	0.11431
3517.77151	0.11503
3515.71192	0.11547
3513.65234	0.11595
3511.59275	0.11662
3509.53317	0.11701
3507.47358	0.11718
3505.41400	0.11782
3503.35441	0.11907
3501.29483	0.12019
3499.23524	0.12093
3497.17565	0.12170
3495.11607	0.12247
3493.05648	0.12300
3490.99690	0.12341
3488.93731	0.12401
3486.87773	0.12469
3484.81814	0.12512
3482.75856	0.12557
3480.69897	0.12634
3478.63939	0.12686
3476.57980	0.12690
3474.52022	0.12727
3472.46063	0.12847
3470.40105	0.12996
3468.34146	0.13093
3466.28188	0.13111
3464.22229	0.13120
3462.16271	0.13187
3460.10312	0.13286
3458.04354	0.13377
3455.98395	0.13423
3453.92437	0.13407
3451.86478	0.13405
3449.80520	0.13484
3447.74561	0.13602
3445.68603	0.13706
3443.62644	0.13804
3441.56685	0.13889
3439.50727	0.13943
3437.44768	0.14003
3435.38810	0.14083
3433.32851	0.14133
3431.26893	0.14148
3429.20934	0.14194
3427.14976	0.14293
3425.09017	0.14371
3423.03059	0.14426
3420.97100	0.14516
3418.91142	0.14588
3416.85183	0.14638
3414.79225	0.14715
3412.73266	0.14782
3410.67308	0.14802
3408.61349	0.14815
3406.55391	0.14875
3404.49432	0.14944
3402.43474	0.14969
3400.37515	0.15032
3398.31557	0.15148
3396.25598	0.15213
3394.19640	0.15237
3392.13681	0.15287
3390.07723	0.15349
3388.01764	0.15376
3385.95805	0.15373
3383.89847	0.15398
3381.83888	0.15463
3379.77930	0.15519
3377.71971	0.15560
3375.66013	0.15624
3373.60054	0.15691
3371.54096	0.15743
3369.48137	0.15828
3367.42179	0.15951
3365.36220	0.16050
3363.30262	0.16133
3361.24303	0.16231
3359.18345	0.16320
3357.12386	0.16418
3355.06428	0.16537
3353.00469	0.16639
3350.94511	0.16744
3348.88552	0.16897
3346.82594	0.17090
3344.76635	0.17276
3342.70677	0.17429
3340.64718	0.17564
3338.58760	0.17681
3336.52801	0.17794
3334.46842	0.17938
3332.40884	0.18095
3330.34925	0.18265
3328.28967	0.18467
3326.23008	0.18664
3324.17050	0.18850
3322.11091	0.19071
3320.05133	0.19320
3317.99174	0.19538
3315.93216	0.19746
3313.87257	0.20019
3311.81299	0.20361
3309.75340	0.20702
3307.69382	0.20983
3305.63423	0.21232
3303.57465	0.21521
3301.51506	0.21859
3299.45548	0.22207
3297.39589	0.22554
3295.33631	0.22908
3293.27672	0.23256
3291.21714	0.23585
3289.15755	0.23885
3287.09797	0.24150
3285.03838	0.24402
3282.97880	0.24648
3280.91921	0.24876
3278.85962	0.25096
3276.80004	0.25306
3274.74045	0.25480
3272.68087	0.25623
3270.62128	0.25746
3268.56170	0.25813
3266.50211	0.25768
3264.44253	0.25640
3262.38294	0.25509
3260.32336	0.25379
3258.26377	0.25262
3256.20419	0.25164
3254.14460	0.25030
3252.08502	0.24834
3250.02543	0.24611
3247.96585	0.24400
3245.90626	0.24195
3243.84668	0.23982
3241.78709	0.23780
3239.72751	0.23572
3237.66792	0.23352
3235.60834	0.23178
3233.54875	0.23053
3231.48917	0.22917
3229.42958	0.22750
3227.36999	0.22578
3225.31041	0.22404
3223.25082	0.22211
3221.19124	0.22055
3219.13165	0.21990
3217.07207	0.21931
3215.01248	0.21808
3212.95290	0.21660
3210.89331	0.21523
3208.83373	0.21402
3206.77414	0.21299
3204.71456	0.21156
3202.65497	0.20967
3200.59539	0.20830
3198.53580	0.20730
3196.47622	0.20588
3194.41663	0.20429
3192.35705	0.20293
3190.29746	0.20177
3188.23788	0.20065
3186.17829	0.19945
3184.11871	0.19783
3182.05912	0.19598
3179.99954	0.19457
3177.93995	0.19345
3175.88037	0.19200
3173.82078	0.19035
3171.76119	0.18881
3169.70161	0.18731
3167.64202	0.18585
3165.58244	0.18439
3163.52285	0.18285
3161.46327	0.18134
3159.40368	0.18001
3157.34410	0.17862
3155.28451	0.17691
3153.22493	0.17538
3151.16534	0.17410
3149.10576	0.17268
3147.04617	0.17132
3144.98659	0.17005
3142.92700	0.16872
3140.86742	0.16754
3138.80783	0.16652
3136.74825	0.16568
3134.68866	0.16505
3132.62908	0.16420
3130.56949	0.16298
3128.50991	0.16183
3126.45032	0.16085
3124.39074	0.15981
3122.33115	0.15895
3120.27156	0.15853
3118.21198	0.15819
3116.15239	0.15750
3114.09281	0.15663
3112.03322	0.15592
3109.97364	0.15540
3107.91405	0.15523
3105.85447	0.15554
3103.79488	0.15570
3101.73530	0.15547
3099.67571	0.15521
3097.61613	0.15491
3095.55654	0.15462
3093.49696	0.15470
3091.43737	0.15509
3089.37779	0.15545
3087.31820	0.15595
3085.25862	0.15641
3083.19903	0.15630
3081.13945	0.15605
3079.07986	0.15608
3077.02028	0.15617
3074.96069	0.15624
3072.90111	0.15629
3070.84152	0.15636
3068.78194	0.15641
3066.72235	0.15631
3064.66276	0.15600
3062.60318	0.15561
3060.54359	0.15534
3058.48401	0.15519
3056.42442	0.15485
3054.36484	0.15389
3052.30525	0.15244
3050.24567	0.15131
3048.18608	0.15081
3046.12650	0.15053
3044.06691	0.14991
3042.00733	0.14867
3039.94774	0.14710
3037.88816	0.14589
3035.82857	0.14541
3033.76899	0.14518
3031.70940	0.14452
3029.64982	0.14340
3027.59023	0.14234
3025.53065	0.14136
3023.47106	0.14018
3021.41148	0.13898
3019.35189	0.13796
3017.29231	0.13714
3015.23272	0.13647
3013.17313	0.13576
3011.11355	0.13503
3009.05396	0.13436
3006.99438	0.13363
3004.93479	0.13291
3002.87521	0.13248
3000.81562	0.13241
2998.75604	0.13268
2996.69645	0.13299
2994.63687	0.13299
2992.57728	0.13290
2990.51770	0.13303
2988.45811	0.13346
2986.39853	0.13425
2984.33894	0.13542
2982.27936	0.13677
2980.21977	0.13790
2978.16019	0.13875
2976.10060	0.13962
2974.04102	0.14077
2971.98143	0.14199
2969.92185	0.14289
2967.86226	0.14359
2965.80268	0.14432
2963.74309	0.14500
2961.68351	0.14539
2959.62392	0.14534
2957.56433	0.14497
2955.50475	0.14444
2953.44516	0.14379
2951.38558	0.14327
2949.32599	0.14307
2947.26641	0.14302
2945.20682	0.14313
2943.14724	0.14352
2941.08765	0.14423
2939.02807	0.14537
2936.96848	0.14622
2934.90890	0.14611
2932.84931	0.14583
2930.78973	0.14572
2928.73014	0.14473
2926.67056	0.14240
2924.61097	0.13907
2922.55139	0.13522
2920.49180	0.13100
2918.43222	0.12661
2916.37263	0.12367
2914.31305	0.12422
2912.25346	0.12739
2910.19388	0.13010
2908.13429	0.13112
2906.07471	0.13132
2904.01512	0.13127
2901.95553	0.13113
2899.89595	0.13110
2897.83636	0.13106
2895.77678	0.13086
2893.71719	0.13073
2891.65761	0.13086
2889.59802	0.13095
2887.53844	0.13099
2885.47885	0.13135
2883.41927	0.13206
2881.35968	0.13289
2879.30010	0.13366
2877.24051	0.13443
2875.18093	0.13514
2873.12134	0.13545
2871.06176	0.13509
2869.00217	0.13408
2866.94259	0.13295
2864.88300	0.13179
2862.82342	0.13048
2860.76383	0.12919
2858.70425	0.12796
2856.64466	0.12626
2854.58508	0.12366
2852.52549	0.11995
2850.46590	0.11560
2848.40632	0.11312
2846.34673	0.11442
2844.28715	0.11764
2842.22756	0.12001
2840.16798	0.12085
2838.10839	0.12072
2836.04881	0.12035
2833.98922	0.12025
2831.92964	0.12033
2829.87005	0.12017
2827.81047	0.12006
2825.75088	0.12008
2823.69130	0.11959
2821.63171	0.11864
2819.57213	0.11801
2817.51254	0.11787
2815.45296	0.11794
2813.39337	0.11789
2811.33379	0.11751
2809.27420	0.11712
2807.21462	0.11681
2805.15503	0.11635
2803.09545	0.11583
2801.03586	0.11549
2798.97628	0.11544
2796.91669	0.11542
2794.85710	0.11527
2792.79752	0.11516
2790.73793	0.11524
2788.67835	0.11515
2786.61876	0.11462
2784.55918	0.11413
2782.49959	0.11373
2780.44001	0.11316
2778.38042	0.11277
2776.32084	0.11275
2774.26125	0.11274
2772.20167	0.11239
2770.14208	0.11196
2768.08250	0.11180
2766.02291	0.11165
2763.96333	0.11125
2761.90374	0.11099
2759.84416	0.11099
2757.78457	0.11093
2755.72499	0.11080
2753.66540	0.11065
2751.60582	0.11014
2749.54623	0.10944
2747.48665	0.10909
2745.42706	0.10893
2743.36747	0.10869
2741.30789	0.10849
2739.24830	0.10837
2737.18872	0.10825
2735.12913	0.10793
2733.06955	0.10754
2731.00996	0.10734
2728.95038	0.10718
2726.89079	0.10699
2724.83121	0.10689
2722.77162	0.10680
2720.71204	0.10659
2718.65245	0.10616
2716.59287	0.10572
2714.53328	0.10555
2712.47370	0.10553
2710.41411	0.10537
2708.35453	0.10505
2706.29494	0.10480
2704.23536	0.10454
2702.17577	0.10411
2700.11619	0.10376
2698.05660	0.10352
2695.99702	0.10313
2693.93743	0.10280
2691.87785	0.10277
2689.81826	0.10277
2687.75867	0.10259
2685.69909	0.10237
2683.63950	0.10216
2681.57992	0.10193
2679.52033	0.10172
2677.46075	0.10147
2675.40116	0.10120
2673.34158	0.10096
2671.28199	0.10066
2669.22241	0.10027
2667.16282	0.10004
2665.10324	0.10012
2663.04365	0.10023
2660.98407	0.10011
2658.92448	0.09999
2656.86490	0.09995
2654.80531	0.09966
2652.74573	0.09919
2650.68614	0.09897
2648.62656	0.09886
2646.56697	0.09866
2644.50739	0.09849
2642.44780	0.09840
2640.38822	0.09812
2638.32863	0.09764
2636.26904	0.09730
2634.20946	0.09691
2632.14987	0.09623
2630.09029	0.09583
2628.03070	0.09594
2625.97112	0.09599
2623.91153	0.09565
2621.85195	0.09523
2619.79236	0.09502
2617.73278	0.09493
2615.67319	0.09473
2613.61361	0.09441
2611.55402	0.09419
2609.49444	0.09405
2607.43485	0.09366
2605.37527	0.09303
2603.31568	0.09243
2601.25610	0.09192
2599.19651	0.09167
2597.13693	0.09183
2595.07734	0.09198
2593.01776	0.09171
2590.95817	0.09092
2588.89859	0.09006
2586.83900	0.08974
2584.77942	0.09003
2582.71983	0.09032
2580.66024	0.09045
2578.60066	0.09064
2576.54107	0.09058
2574.48149	0.09000
2572.42190	0.08944
2570.36232	0.08908
2568.30273	0.08859
2566.24315	0.08810
2564.18356	0.08794
2562.12398	0.08791
2560.06439	0.08782
2558.00481	0.08757
2555.94522	0.08706
2553.88564	0.08685
2551.82605	0.08696
2549.76647	0.08662
2547.70688	0.08633
2545.64730	0.08661
2543.58771	0.08678
2541.52813	0.08658
2539.46854	0.08636
2537.40896	0.08608
2535.34937	0.08549
2533.28979	0.08501
2531.23020	0.08505
2529.17062	0.08533
2527.11103	0.08549
2525.05144	0.08541
2522.99186	0.08525
2520.93227	0.08503
2518.87269	0.08466
2516.81310	0.08422
2514.75352	0.08399
2512.69393	0.08388
2510.63435	0.08352
2508.57476	0.08328
2506.51518	0.08328
2504.45559	0.08305
2502.39601	0.08272
2500.33642	0.08262
2498.27684	0.08260
2496.21725	0.08260
2494.15767	0.08269
2492.09808	0.08268
2490.03850	0.08246
2487.97891	0.08231
2485.91933	0.08230
2483.85974	0.08220
2481.80016	0.08222
2479.74057	0.08251
2477.68099	0.08231
2475.62140	0.08158
2473.56181	0.08120
2471.50223	0.08131
2469.44264	0.08163
2467.38306	0.08202
2465.32347	0.08216
2463.26389	0.08190
2461.20430	0.08141
2459.14472	0.08100
2457.08513	0.08103
2455.02555	0.08139
2452.96596	0.08145
2450.90638	0.08112
2448.84679	0.08089
2446.78721	0.08066
2444.72762	0.08008
2442.66804	0.07963
2440.60845	0.07972
2438.54887	0.07978
2436.48928	0.07954
2434.42970	0.07939
2432.37011	0.07946
2430.31053	0.07944
2428.25094	0.07911
2426.19136	0.07895
2424.13177	0.07905
2422.07219	0.07913
2420.01260	0.07937
2417.95301	0.07954
2415.89343	0.07904
2413.83384	0.07831
2411.77426	0.07799
2409.71467	0.07786
2407.65509	0.07784
2405.59550	0.07785
2403.53592	0.07762
2401.47633	0.07747
2399.41675	0.07739
2397.35716	0.07746
2395.29758	0.07754
2393.23799	0.07761
2391.17841	0.07782
2389.11882	0.07820
2387.05924	0.07836
2384.99965	0.07805
2382.94007	0.07764
2380.88048	0.07741
2378.82090	0.07726
2376.76131	0.07738
2374.70173	0.07630
2372.64214	0.07547
2370.58256	0.07528
2368.52297	0.07493
2366.46338	0.07659
2364.40380	0.07599
2362.34421	0.07469
2360.28463	0.07491
2358.22504	0.07593
2356.16546	0.07576
2354.10587	0.07668
2352.04629	0.07760
2349.98670	0.07610
2347.92712	0.07307
2345.86753	0.07463
2343.80795	0.08149
2341.74836	0.07825
2339.68878	0.06612
2337.62919	0.06278
2335.56961	0.07377
2333.51002	0.08734
2331.45044	0.09026
2329.39085	0.08408
2327.33127	0.07442
2325.27168	0.06586
2323.21210	0.06230
2321.15251	0.06210
2319.09293	0.06457
2317.03334	0.06667
2314.97376	0.06968
2312.91417	0.07045
2310.85458	0.07054
2308.79500	0.07026
2306.73541	0.06950
2304.67583	0.06966
2302.61624	0.07026
2300.55666	0.07097
2298.49707	0.07147
2296.43749	0.07232
2294.37790	0.07268
2292.31832	0.07242
2290.25873	0.07182
2288.19915	0.07148
2286.13956	0.07121
2284.07998	0.07095
2282.02039	0.07020
2279.96081	0.06921
2277.90122	0.06856
2275.84164	0.06805
2273.78205	0.06782
2271.72247	0.06821
2269.66288	0.06855
2267.60330	0.06828
2265.54371	0.06796
2263.48413	0.06730
2261.42454	0.06628
2259.36495	0.06554
2257.30537	0.06503
2255.24578	0.06441
2253.18620	0.06406
2251.12661	0.06414
2249.06703	0.06415
2247.00744	0.06394
2244.94786	0.06368
2242.88827	0.06301
2240.82869	0.06238
2238.76910	0.06284
2236.70952	0.06372
2234.64993	0.06405
2232.59035	0.06354
2230.53076	0.06241
2228.47118	0.06139
2226.41159	0.06121
2224.35201	0.06158
2222.29242	0.06114
2220.23284	0.06018
2218.17325	0.06036
2216.11367	0.06086
2214.05408	0.06051
2211.99450	0.05967
2209.93491	0.05933
2207.87533	0.05989
2205.81574	0.05970
2203.75615	0.05842
2201.69657	0.05740
2199.63698	0.05680
2197.57740	0.05660
2195.51781	0.05673
2193.45823	0.05611
2191.39864	0.05500
2189.33906	0.05471
2187.27947	0.05477
2185.21989	0.05472
2183.16030	0.05434
2181.10072	0.05273
2179.04113	0.05073
2176.98155	0.04993
2174.92196	0.05059
2172.86238	0.05181
2170.80279	0.05252
2168.74321	0.05266
2166.68362	0.05273
2164.62404	0.05288
2162.56445	0.05252
2160.50487	0.05048
2158.44528	0.04760
2156.38570	0.04643
2154.32611	0.04744
2152.26652	0.04921
2150.20694	0.05030
2148.14735	0.05079
2146.08777	0.05160
2144.02818	0.05276
2141.96860	0.05365
2139.90901	0.05437
2137.84943	0.05471
2135.78984	0.05404
2133.73026	0.05337
2131.67067	0.05417
2129.61109	0.05581
2127.55150	0.05677
2125.49192	0.05687
2123.43233	0.05672
2121.37275	0.05694
2119.31316	0.05748
2117.25358	0.05778
2115.19399	0.05759
2113.13441	0.05709
2111.07482	0.05664
2109.01524	0.05655
2106.95565	0.05682
2104.89607	0.05740
2102.83648	0.05798
2100.77690	0.05797
2098.71731	0.05727
2096.65772	0.05621
2094.59814	0.05535
2092.53855	0.05530
2090.47897	0.05592
2088.41938	0.05593
2086.35980	0.05495
2084.30021	0.05396
2082.24063	0.05366
2080.18104	0.05418
2078.12146	0.05481
2076.06187	0.05482
2074.00229	0.05401
2071.94270	0.05277
2069.88312	0.05198
2067.82353	0.05206
2065.76395	0.05242
2063.70436	0.05219
2061.64478	0.05188
2059.58519	0.05212
2057.52561	0.05203
2055.46602	0.05127
2053.40644	0.05096
2051.34685	0.05096
2049.28727	0.04984
2047.22768	0.04829
2045.16810	0.04750
2043.10851	0.04678
2041.04892	0.04615
2038.98934	0.04636
2036.92975	0.04644
2034.87017	0.04522
2032.81058	0.04358
2030.75100	0.04271
2028.69141	0.04271
2026.63183	0.04301
2024.57224	0.04289
2022.51266	0.04283
2020.45307	0.04322
2018.39349	0.04344
2016.33390	0.04363
2014.27432	0.04398
2012.21473	0.04417
2010.15515	0.04389
2008.09556	0.04260
2006.03598	0.04141
2003.97639	0.04219
2001.91681	0.04410
1999.85722	0.04542
1997.79764	0.04586
1995.73805	0.04547
1993.67847	0.04470
1991.61888	0.04390
1989.55929	0.04319
1987.49971	0.04296
1985.44012	0.04280
1983.38054	0.04210
1981.32095	0.04102
1979.26137	0.04027
1977.20178	0.04016
1975.14220	0.03997
1973.08261	0.03960
1971.02303	0.03961
1968.96344	0.03990
1966.90386	0.04018
1964.84427	0.04056
1962.78469	0.04115
1960.72510	0.04210
1958.66552	0.04323
1956.60593	0.04359
1954.54635	0.04332
1952.48676	0.04346
1950.42718	0.04378
1948.36759	0.04362
1946.30801	0.04313
1944.24842	0.04305
1942.18884	0.04342
1940.12925	0.04365
1938.06967	0.04386
1936.01008	0.04449
1933.95049	0.04523
1931.89091	0.04548
1929.83132	0.04512
1927.77174	0.04453
1925.71215	0.04413
1923.65257	0.04411
1921.59298	0.04453
1919.53340	0.04489
1917.47381	0.04471
1915.41423	0.04441
1913.35464	0.04438
1911.29506	0.04452
1909.23547	0.04447
1907.17589	0.04402
1905.11630	0.04349
1903.05672	0.04325
1900.99713	0.04323
1898.93755	0.04311
1896.87796	0.04280
1894.81838	0.04287
1892.75879	0.04341
1890.69921	0.04378
1888.63962	0.04365
1886.58004	0.04327
1884.52045	0.04295
1882.46086	0.04282
1880.40128	0.04280
1878.34169	0.04274
1876.28211	0.04247
1874.22252	0.04205
1872.16294	0.04165
1870.10335	0.04138
1868.04377	0.04141
1865.98418	0.04156
1863.92460	0.04155
1861.86501	0.04150
1859.80543	0.04139
1857.74584	0.04114
1855.68626	0.04092
1853.62667	0.04076
1851.56709	0.04060
1849.50750	0.04044
1847.44792	0.04021
1845.38833	0.04001
1843.32875	0.03998
1841.26916	0.03985
1839.20958	0.03952
1837.14999	0.03906
1835.09041	0.03859
1833.03082	0.03835
1830.97124	0.03843
1828.91165	0.03864
1826.85206	0.03869
1824.79248	0.03849
1822.73289	0.03820
1820.67331	0.03793
1818.61372	0.03773
1816.55414	0.03761
1814.49455	0.03752
1812.43497	0.03744
1810.37538	0.03722
1808.31580	0.03678
1806.25621	0.03640
1804.19663	0.03628
1802.13704	0.03619
1800.07746	0.03602
1798.01787	0.03592
1795.95829	0.03580
1793.89870	0.03546
1791.83912	0.03500
1789.77953	0.03470
1787.71995	0.03451
1785.66036	0.03436
1783.60078	0.03426
1781.54119	0.03414
1779.48161	0.03384
1777.42202	0.03338
1775.36243	0.03293
1773.30285	0.03256
1771.24326	0.03228
1769.18368	0.03206
1767.12409	0.03183
1765.06451	0.03157
1763.00492	0.03131
1760.94534	0.03113
1758.88575	0.03106
1756.82617	0.03104
1754.76658	0.03103
1752.70700	0.03106
1750.64741	0.03113
1748.58783	0.03110
1746.52824	0.03102
1744.46866	0.03090
1742.40907	0.03059
1740.34949	0.03008
1738.28990	0.02955
1736.23032	0.02910
1734.17073	0.02870
1732.11115	0.02824
1730.05156	0.02771
1727.99198	0.02722
1725.93239	0.02682
1723.87281	0.02659
1721.81322	0.02650
1719.75363	0.02652
1717.69405	0.02675
1715.63446	0.02719
1713.57488	0.02762
1711.51529	0.02820
1709.45571	0.02936
1707.39612	0.03168
1705.33654	0.03548
1703.27695	0.04058
1701.21737	0.04817
1699.15778	0.05809
1697.09820	0.06583
1695.03861	0.07019
1692.97903	0.07257
1690.91944	0.07442
1688.85986	0.07666
1686.80027	0.07962
1684.74069	0.08445
1682.68110	0.09058
1680.62152	0.09530
1678.56193	0.09905
1676.50235	0.10340
1674.44276	0.10855
1672.38318	0.11365
1670.32359	0.11936
1668.26401	0.12576
1666.20442	0.13105
1664.14483	0.13608
1662.08525	0.14224
1660.02566	0.14810
1657.96608	0.15218
1655.90649	0.15551
1653.84691	0.16062
1651.78732	0.16679
1649.72774	0.17023
1647.66815	0.17281
1645.60857	0.17615
1643.54898	0.17859
1641.48940	0.18002
1639.42981	0.18142
1637.37023	0.18382
1635.31064	0.18784
1633.25106	0.19165
1631.19147	0.19439
1629.13189	0.19773
1627.07230	0.20236
1625.01272	0.20788
1622.95313	0.21413
1620.89355	0.21962
1618.83396	0.22379
1616.77438	0.22789
1614.71479	0.23071
1612.65520	0.23043
1610.59562	0.22728
1608.53603	0.22179
1606.47645	0.21452
1604.41686	0.20620
1602.35728	0.19722
1600.29769	0.18799
1598.23811	0.17891
1596.17852	0.17010
1594.11894	0.16157
1592.05935	0.15349
1589.99977	0.14590
1587.94018	0.13891
1585.88060	0.13267
1583.82101	0.12732
1581.76143	0.12287
1579.70184	0.11926
1577.64226	0.11646
1575.58267	0.11455
1573.52309	0.11351
1571.46350	0.11327
1569.40392	0.11409
1567.34433	0.11569
1565.28475	0.11761
1563.22516	0.11954
1561.16558	0.12203
1559.10599	0.12716
1557.04640	0.13381
1554.98682	0.13855
1552.92723	0.14241
1550.86765	0.14664
1548.80806	0.15109
1546.74848	0.15506
1544.68889	0.15870
1542.62931	0.16277
1540.56972	0.16798
1538.51014	0.17304
1536.45055	0.17598
1534.39097	0.17869
1532.33138	0.18243
1530.27180	0.18583
1528.21221	0.18884
1526.15263	0.19223
1524.09304	0.19583
1522.03346	0.20007
1519.97387	0.20486
1517.91429	0.20915
1515.85470	0.21270
1513.79512	0.21482
1511.73553	0.21523
1509.67595	0.21438
1507.61636	0.21247
1505.55677	0.20959
1503.49719	0.20607
1501.43760	0.20208
1499.37802	0.19740
1497.31843	0.19184
1495.25885	0.18576
1493.19926	0.17976
1491.13968	0.17334
1489.08009	0.16603
1487.02051	0.15897
1484.96092	0.15290
1482.90134	0.14747
1480.84175	0.14241
1478.78217	0.13803
1476.72258	0.13455
1474.66300	0.13204
1472.60341	0.13068
1470.54383	0.12999
1468.48424	0.12920
1466.42466	0.12828
1464.36507	0.12756
1462.30549	0.12722
1460.24590	0.12749
1458.18632	0.12917
1456.12673	0.13208
1454.06715	0.13412
1452.00756	0.13494
1449.94797	0.13537
1447.88839	0.13563
1445.82880	0.13533
1443.76922	0.13421
1441.70963	0.13249
1439.65005	0.13044
1437.59046	0.12811
1435.53088	0.12566
1433.47129	0.12340
1431.41171	0.12135
1429.35212	0.11952
1427.29254	0.11810
1425.23295	0.11719
1423.17337	0.11675
1421.11378	0.11677
1419.05420	0.11737
1416.99461	0.11826
1414.93503	0.11893
1412.87544	0.11938
1410.81586	0.11978
1408.75627	0.12002
1406.69669	0.12001
1404.63710	0.11974
1402.57752	0.11919
1400.51793	0.11842
1398.45834	0.11774
1396.39876	0.11732
1394.33917	0.11705
1392.27959	0.11674
1390.22000	0.11643
1388.16042	0.11633
1386.10083	0.11633
1384.04125	0.11601
1381.98166	0.11527
1379.92208	0.11432
1377.86249	0.11342
1375.80291	0.11283
1373.74332	0.11268
1371.68374	0.11264
1369.62415	0.11231
1367.56457	0.11162
1365.50498	0.11060
1363.44540	0.10937
1361.38581	0.10816
1359.32623	0.10702
1357.26664	0.10593
1355.20706	0.10492
1353.14747	0.10412
1351.08789	0.10361
1349.02830	0.10339
1346.96872	0.10329
1344.90913	0.10318
1342.84954	0.10311
1340.78996	0.10318
1338.73037	0.10336
1336.67079	0.10342
1334.61120	0.10332
1332.55162	0.10313
1330.49203	0.10286
1328.43245	0.10246
1326.37286	0.10202
1324.31328	0.10160
1322.25369	0.10125
1320.19411	0.10103
1318.13452	0.10085
1316.07494	0.10067
1314.01535	0.10051
1311.95577	0.10035
1309.89618	0.10011
1307.83660	0.09974
1305.77701	0.09928
1303.71743	0.09885
1301.65784	0.09850
1299.59826	0.09817
1297.53867	0.09778
1295.47909	0.09732
1293.41950	0.09689
1291.35991	0.09656
1289.30033	0.09627
1287.24074	0.09599
1285.18116	0.09579
1283.12157	0.09562
1281.06199	0.09537
1279.00240	0.09500
1276.94282	0.09457
1274.88323	0.09419
1272.82365	0.09386
1270.76406	0.09356
1268.70448	0.09333
1266.64489	0.09329
1264.58531	0.09343
1262.52572	0.09365
1260.46614	0.09410
1258.40655	0.09493
1256.34697	0.09603
1254.28738	0.09729
1252.22780	0.09866
1250.16821	0.10004
1248.10863	0.10130
1246.04904	0.10239
1243.98946	0.10335
1241.92987	0.10417
1239.87029	0.10482
1237.81070	0.10529
1235.75111	0.10555
1233.69153	0.10564
1231.63194	0.10555
1229.57236	0.10533
1227.51277	0.10498
1225.45319	0.10446
1223.39360	0.10380
1221.33402	0.10307
1219.27443	0.10225
1217.21485	0.10131
1215.15526	0.10026
1213.09568	0.09911
1211.03609	0.09782
1208.97651	0.09634
1206.91692	0.09473
1204.85734	0.09311
1202.79775	0.09153
1200.73817	0.08989
1198.67858	0.08820
1196.61900	0.08660
1194.55941	0.08524
1192.49983	0.08411
1190.44024	0.08311
1188.38066	0.08215
1186.32107	0.08118
1184.26149	0.08026
1182.20190	0.07963
1180.14231	0.07949
1178.08273	0.07977
1176.02314	0.08039
1173.96356	0.08129
1171.90397	0.08231
1169.84439	0.08322
1167.78480	0.08384
1165.72522	0.08422
1163.66563	0.08448
1161.60605	0.08458
1159.54646	0.08444
1157.48688	0.08402
1155.42729	0.08324
1153.36771	0.08214
1151.30812	0.08094
1149.24854	0.07974
1147.18895	0.07845
1145.12937	0.07707
1143.06978	0.07583
1141.01020	0.07481
1138.95061	0.07392
1136.89103	0.07313
1134.83144	0.07251
1132.77186	0.07202
1130.71227	0.07160
1128.65268	0.07126
1126.59310	0.07086
1124.53351	0.07036
1122.47393	0.06989
1120.41434	0.06945
1118.35476	0.06894
1116.29517	0.06835
1114.23559	0.06774
1112.17600	0.06718
1110.11642	0.06673
1108.05683	0.06640
1105.99725	0.06612
1103.93766	0.06582
1101.87808	0.06549
1099.81849	0.06518
1097.75891	0.06499
1095.69932	0.06504
1093.63974	0.06537
1091.58015	0.06605
1089.52057	0.06702
1087.46098	0.06819
1085.40140	0.06965
1083.34181	0.07132
1081.28223	0.07303
1079.22264	0.07485
1077.16306	0.07683
1075.10347	0.07885
1073.04388	0.08071
1070.98430	0.08230
1068.92471	0.08364
1066.86513	0.08467
1064.80554	0.08538
1062.74596	0.08583
1060.68637	0.08598
1058.62679	0.08565
1056.56720	0.08489
1054.50762	0.08406
1052.44803	0.08332
1050.38845	0.08262
1048.32886	0.08185
1046.26928	0.08096
1044.20969	0.08003
1042.15011	0.07906
1040.09052	0.07798
1038.03094	0.07686
1035.97135	0.07579
1033.91177	0.07477
1031.85218	0.07377
1029.79260	0.07274
1027.73301	0.07149
1025.67343	0.07004
1023.61384	0.06863
1021.55425	0.06736
1019.49467	0.06614
1017.43508	0.06498
1015.37550	0.06386
1013.31591	0.06273
1011.25633	0.06163
1009.19674	0.06064
1007.13716	0.05978
1005.07757	0.05906
1003.01799	0.05841
1000.95840	0.05776
998.89882	0.05718
996.83923	0.05660
994.77965	0.05596
992.72006	0.05529
990.66048	0.05470
988.60089	0.05421
986.54131	0.05375
984.48172	0.05328
982.42214	0.05293
980.36255	0.05271
978.30297	0.05248
976.24338	0.05224
974.18380	0.05204
972.12421	0.05193
970.06463	0.05200
968.00504	0.05233
965.94545	0.05282
963.88587	0.05327
961.82628	0.05349
959.76670	0.05342
957.70711	0.05317
955.64753	0.05287
953.58794	0.05249
951.52836	0.05206
949.46877	0.05174
947.40919	0.05152
945.34960	0.05123
943.29002	0.05094
941.23043	0.05075
939.17085	0.05059
937.11126	0.05040
935.05168	0.05030
932.99209	0.05024
930.93251	0.05007
928.87292	0.04979
926.81334	0.04947
924.75375	0.04907
922.69417	0.04858
920.63458	0.04814
918.57500	0.04779
916.51541	0.04743
914.45582	0.04712
912.39624	0.04694
910.33665	0.04675
908.27707	0.04658
906.21748	0.04658
904.15790	0.04668
902.09831	0.04671
900.03873	0.04660
897.97914	0.04636
895.91956	0.04600
893.85997	0.04562
891.80039	0.04518
889.74080	0.04464
887.68122	0.04413
885.62163	0.04363
883.56205	0.04321
881.50246	0.04300
879.44288	0.04290
877.38329	0.04275
875.32371	0.04250
873.26412	0.04222
871.20454	0.04201
869.14495	0.04183
867.08537	0.04149
865.02578	0.04103
862.96620	0.04072
860.90661	0.04049
858.84702	0.04019
856.78744	0.03998
854.72785	0.03992
852.66827	0.03980
850.60868	0.03961
848.54910	0.03940
846.48951	0.03919
844.42993	0.03907
842.37034	0.03898
840.31076	0.03890
838.25117	0.03898
836.19159	0.03916
834.13200	0.03928
832.07242	0.03952
830.01283	0.03992
827.95325	0.04013
825.89366	0.04007
823.83408	0.03993
821.77449	0.03975
819.71491	0.03957
817.65532	0.03952
815.59574	0.03957
813.53615	0.03970
811.47657	0.03989
809.41698	0.04008
807.35740	0.04010
805.29781	0.03993
803.23822	0.03974
801.17864	0.03957
799.11905	0.03940
797.05947	0.03940
794.99988	0.03964
792.94030	0.03997
790.88071	0.04028
788.82113	0.04069
786.76154	0.04112
784.70196	0.04140
782.64237	0.04166
780.58279	0.04203
778.52320	0.04246
776.46362	0.04297
774.40403	0.04342
772.34445	0.04366
770.28486	0.04385
768.22528	0.04404
766.16569	0.04413
764.10611	0.04416
762.04652	0.04430
759.98694	0.04460
757.92735	0.04488
755.86777	0.04503
753.80818	0.04523
751.74859	0.04562
749.68901	0.04603
747.62942	0.04626
745.56984	0.04625
743.51025	0.04607
741.45067	0.04590
739.39108	0.04587
737.33150	0.04594
735.27191	0.04612
733.21233	0.04635
731.15274	0.04660
729.09316	0.04696
727.03357	0.04752
724.97399	0.04830
722.91440	0.04919
720.85482	0.05008
718.79523	0.05121
716.73565	0.05220
714.67606	0.05343
712.61648	0.05479
710.55689	0.05606
708.49731	0.05736
706.43772	0.05885
704.37814	0.06043
702.31855	0.06179
700.25897	0.06277
698.19938	0.06350
696.13979	0.06395
694.08021	0.06403
692.02062	0.06402
689.96104	0.06427
687.90145	0.06439
685.84187	0.06418
683.78228	0.06432
681.72270	0.06465
679.66311	0.06457
677.60353	0.06450
675.54394	0.06493
673.48436	0.06504
671.42477	0.06586
669.36519	0.06839
667.30560	0.06309
665.24602	0.06460
663.18643	0.06523
661.12685	0.06514
659.06726	0.06542
657.00768	0.06562
654.94809	0.06561
652.88851	0.06583
650.82892	0.06600
648.76934	0.06599
646.70975	0.06620
644.65016	0.06636
642.59058	0.06664
640.53099	0.06702
638.47141	0.06728
636.41182	0.06751
634.35224	0.06779
632.29265	0.06816
630.23307	0.06851
628.17348	0.06874
626.11390	0.06890
624.05431	0.06887
621.99473	0.06866
619.93514	0.06845
617.87556	0.06822
615.81597	0.06795
613.75639	0.06771
611.69680	0.06744
609.63722	0.06716
607.57763	0.06694
605.51805	0.06668
603.45846	0.06635
601.39888	0.06607
599.33929	0.06588
597.27971	0.06568
595.22012	0.06548
593.16054	0.06533
591.10095	0.06526
589.04136	0.06524
586.98178	0.06529
584.92219	0.06517
582.86261	0.06486
580.80302	0.06476
578.74344	0.06498
576.68385	0.06518
574.62427	0.06532
572.56468	0.06544
570.50510	0.06537
568.44551	0.06524
566.38593	0.06524
564.32634	0.06513
562.26676	0.06489
560.20717	0.06484
558.14759	0.06497
556.08800	0.06494
554.02842	0.06476
551.96883	0.06472
549.90925	0.06477
547.84966	0.06454
545.79008	0.06418
543.73049	0.06422
541.67091	0.06449
539.61132	0.06449
537.55173	0.06427
535.49215	0.06406
533.43256	0.06383
531.37298	0.06348
529.31339	0.06312
527.25381	0.06294
525.19422	0.06289
523.13464	0.06284
521.07505	0.06285
519.01547	0.06281
516.95588	0.06265
514.89630	0.06256
512.83671	0.06258
510.77713	0.06243
508.71754	0.06196
506.65796	0.06137
504.59837	0.06093
502.53879	0.06061
500.47920	0.06042
498.41962	0.06044
496.36003	0.06049
494.30045	0.06038
492.24086	0.06000
490.18128	0.05949
488.12169	0.05911
486.06211	0.05889
484.00252	0.05874
481.94293	0.05854
479.88335	0.05829
477.82376	0.05799
475.76418	0.05766
473.70459	0.05733
471.64501	0.05707
469.58542	0.05688
467.52584	0.05675
465.46625	0.05663
463.40667	0.05648
461.34708	0.05646
459.28750	0.05668
457.22791	0.05687
455.16833	0.05676
453.10874	0.05654
451.04916	0.05643
448.98957	0.05646
446.92999	0.05643
444.87040	0.05599
442.81082	0.05527
440.75123	0.05479
438.69165	0.05450
436.63206	0.05404
434.57248	0.05345
432.51289	0.05300
430.45330	0.05255
428.39372	0.05194
426.33413	0.05138
424.27455	0.05088
422.21496	0.05016
420.15538	0.04947
418.09579	0.04918
416.03621	0.04891
413.97662	0.04850
411.91704	0.04817
409.85745	0.04774
407.79787	0.04697
405.73828	0.04618
403.67870	0.04568
401.61911	0.04551
399.55953	0.04560
