3997.70013,0.08859
3995.64052,0.08868
3993.58092,0.08844
3991.52131,0.08834
3989.46170,0.08821
3987.40209,0.08801
3985.34248,0.08817
3983.28287,0.08852
3981.22327,0.08846
3979.16366,0.08776
3977.10405,0.08702
3975.04444,0.08674
3972.98483,0.08688
3970.92522,0.08726
3968.86561,0.08769
3966.80601,0.08817
3964.74640,0.08831
3962.68679,0.08756
3960.62718,0.08658
3958.56757,0.08623
3956.50796,0.08657
3954.44835,0.08720
3952.38875,0.08733
3950.32914,0.08663
3948.26953,0.08571
3946.20992,0.08551
3944.15031,0.08602
3942.09070,0.08658
3940.03109,0.08660
3937.97149,0.08595
3935.91188,0.08531
3933.85227,0.08522
3931.79266,0.08564
3929.73305,0.08603
3927.67344,0.08596
3925.61384,0.08595
3923.55423,0.08637
3921.49462,0.08625
3919.43501,0.08518
3917.37540,0.08466
3915.31579,0.08505
3913.25618,0.08528
3911.19658,0.08557
3909.13697,0.08616
3907.07736,0.08636
3905.01775,0.08569
3902.95814,0.08455
3900.89853,0.08398
3898.83892,0.08425
3896.77932,0.08437
3894.71971,0.08418
3892.66010,0.08436
3890.60049,0.08458
3888.54088,0.08432
3886.48127,0.08400
3884.42166,0.08365
3882.36206,0.08284
3880.30245,0.08246
3878.24284,0.08287
3876.18323,0.08318
3874.12362,0.08315
3872.06401,0.08283
3870.00441,0.08275
3867.94480,0.08263
3865.88519,0.08203
3863.82558,0.08186
3861.76597,0.08250
3859.70636,0.08284
3857.64675,0.08194
3855.58715,0.08029
3853.52754,0.07993
3851.46793,0.08106
3849.40832,0.08124
3847.34871,0.08122
3845.28910,0.08136
3843.22949,0.08086
3841.16989,0.08028
3839.11028,0.08058
3837.05067,0.08127
3834.99106,0.08114
3832.93145,0.08027
3830.87184,0.07977
3828.81223,0.08001
3826.75263,0.08021
3824.69302,0.07945
3822.63341,0.07840
3820.57380,0.07886
3818.51419,0.07955
3816.45458,0.07958
3814.39498,0.08039
3812.33537,0.08076
3810.27576,0.07979
3808.21615,0.07906
3806.15654,0.07932
3804.09693,0.07894
3802.03732,0.07842
3799.97772,0.07883
3797.91811,0.07925
3795.85850,0.07929
3793.79889,0.07881
3791.73928,0.07821
3789.67967,0.07778
3787.62006,0.07733
3785.56046,0.07744
3783.50085,0.07807
3781.44124,0.07788
3779.38163,0.07702
3777.32202,0.07667
3775.26241,0.07653
3773.20280,0.07650
3771.14320,0.07682
3769.08359,0.07720
3767.02398,0.07705
3764.96437,0.07628
3762.90476,0.07549
3760.84515,0.07512
3758.78555,0.07509
3756.72594,0.07515
3754.66633,0.07524
3752.60672,0.07558
3750.54711,0.07602
3748.48750,0.07554
3746.42789,0.07420
3744.36829,0.07383
3742.30868,0.07474
3740.24907,0.07474
3738.18946,0.07378
3736.12985,0.07315
3734.07024,0.07364
3732.01063,0.07421
3729.95103,0.07371
3727.89142,0.07301
3725.83181,0.07293
3723.77220,0.07285
3721.71259,0.07273
3719.65298,0.07297
3717.59337,0.07323
3715.53377,0.07295
3713.47416,0.07203
3711.41455,0.07167
3709.35494,0.07248
3707.29533,0.07327
3705.23572,0.07338
3703.17612,0.07277
3701.11651,0.07231
3699.05690,0.07248
3696.99729,0.07236
3694.93768,0.07176
3692.87807,0.07126
3690.81846,0.07106
3688.75886,0.07121
3686.69925,0.07138
3684.63964,0.07080
3682.58003,0.06978
3680.52042,0.06958
3678.46081,0.07032
3676.40120,0.07065
3674.34160,0.07046
3672.28199,0.07065
3670.22238,0.07107
3668.16277,0.07106
3666.10316,0.07053
3664.04355,0.07024
3661.98394,0.07039
3659.92434,0.07062
3657.86473,0.07070
3655.80512,0.07047
3653.74551,0.06989
3651.68590,0.06953
3649.62629,0.07008
3647.56669,0.07080
3645.50708,0.07058
3643.44747,0.07028
3641.38786,0.07068
3639.32825,0.07106
3637.26864,0.07101
3635.20903,0.07116
3633.14943,0.07087
3631.08982,0.06998
3629.03021,0.07033
3626.97060,0.07182
3624.91099,0.07229
3622.85138,0.07195
3620.79177,0.07170
3618.73217,0.07207
3616.67256,0.07243
3614.61295,0.07221
3612.55334,0.07199
3610.49373,0.07202
3608.43412,0.07227
3606.37451,0.07314
3604.31491,0.07416
3602.25530,0.07430
3600.19569,0.07394
3598.13608,0.07419
3596.07647,0.07499
3594.01686,0.07552
3591.95726,0.07521
3589.89765,0.07491
3587.83804,0.07605
3585.77843,0.07734
3583.71882,0.07687
3581.65921,0.07592
3579.59960,0.07595
3577.54000,0.07646
3575.48039,0.07685
3573.42078,0.07696
3571.36117,0.07648
3569.30156,0.07606
3567.24195,0.07668
3565.18234,0.07784
3563.12274,0.07849
3561.06313,0.07899
3559.00352,0.07948
3556.94391,0.07942
3554.88430,0.07916
3552.82469,0.07950
3550.76508,0.08040
3548.70548,0.08104
3546.64587,0.08139
3544.58626,0.08206
3542.52665,0.08275
3540.46704,0.08302
3538.40743,0.08295
3536.34783,0.08258
3534.28822,0.08253
3532.22861,0.08342
3530.16900,0.08465
3528.10939,0.08532
3526.04978,0.08535
3523.99017,0.08554
3521.93057,0.08622
3519.87096,0.08682
3517.81135,0.08688
3515.75174,0.08643
3513.69213,0.08656
3511.63252,0.08783
3509.57291,0.08908
3507.51331,0.08901
3505.45370,0.08828
3503.39409,0.08857
3501.33448,0.08956
3499.27487,0.09005
3497.21526,0.09036
3495.15565,0.09095
3493.09605,0.09141
3491.03644,0.09178
3488.97683,0.09283
3486.91722,0.09405
3484.85761,0.09442
3482.79800,0.09437
3480.73840,0.09463
3478.67879,0.09515
3476.61918,0.09550
3474.55957,0.09561
3472.49996,0.09607
3470.44035,0.09688
3468.38074,0.09751
3466.32114,0.09804
3464.26153,0.09852
3462.20192,0.09928
3460.14231,0.10058
3458.08270,0.10141
3456.02309,0.10120
3453.96348,0.10084
3451.90388,0.10107
3449.84427,0.10148
3447.78466,0.10175
3445.72505,0.10233
3443.66544,0.10316
3441.60583,0.10414
3439.54622,0.10501
3437.48662,0.10556
3435.42701,0.10605
3433.36740,0.10654
3431.30779,0.10698
3429.24818,0.10736
3427.18857,0.10775
3425.12897,0.10824
3423.06936,0.10859
3421.00975,0.10858
3418.95014,0.10895
3416.89053,0.11019
3414.83092,0.11145
3412.77131,0.11210
3410.71171,0.11252
3408.65210,0.11298
3406.59249,0.11311
3404.53288,0.11337
3402.47327,0.11412
3400.41366,0.11473
3398.35405,0.11517
3396.29445,0.11560
3394.23484,0.11612
3392.17523,0.11692
3390.11562,0.11770
3388.05601,0.11840
3385.99640,0.11925
3383.93679,0.12010
3381.87719,0.12082
3379.81758,0.12140
3377.75797,0.12183
3375.69836,0.12243
3373.63875,0.12347
3371.57914,0.12473
3369.51954,0.12573
3367.45993,0.12625
3365.40032,0.12685
3363.34071,0.12762
3361.28110,0.12798
3359.22149,0.12859
3357.16188,0.13020
3355.10228,0.13202
3353.04267,0.13307
3350.98306,0.13340
3348.92345,0.13388
3346.86384,0.13514
3344.80423,0.13656
3342.74462,0.13750
3340.68502,0.13816
3338.62541,0.13916
3336.56580,0.14076
3334.50619,0.14234
3332.44658,0.14374
3330.38697,0.14538
3328.32736,0.14670
3326.26776,0.14747
3324.20815,0.14818
3322.14854,0.14931
3320.08893,0.15097
3318.02932,0.15241
3315.96971,0.15348
3313.91011,0.15453
3311.85050,0.15588
3309.79089,0.15800
3307.73128,0.16041
3305.67167,0.16219
3303.61206,0.16340
3301.55245,0.16445
3299.49285,0.16587
3297.43324,0.16776
3295.37363,0.16955
3293.31402,0.17132
3291.25441,0.17309
3289.19480,0.17419
3287.13519,0.17470
3285.07559,0.17562
3283.01598,0.17720
3280.95637,0.17853
3278.89676,0.17924
3276.83715,0.17976
3274.77754,0.18008
3272.71793,0.18013
3270.65833,0.18010
3268.59872,0.17976
3266.53911,0.17922
3264.47950,0.17893
3262.41989,0.17856
3260.36028,0.17767
3258.30068,0.17639
3256.24107,0.17488
3254.18146,0.17353
3252.12185,0.17245
3250.06224,0.17166
3248.00263,0.17103
3245.94302,0.16970
3243.88342,0.16757
3241.82381,0.16573
3239.76420,0.16459
3237.70459,0.16384
3235.64498,0.16308
3233.58537,0.16172
3231.52576,0.16008
3229.46616,0.15882
3227.40655,0.15763
3225.34694,0.15668
3223.28733,0.15618
3221.22772,0.15553
3219.16811,0.15484
3217.10850,0.15450
3215.04890,0.15422
3212.98929,0.15349
3210.92968,0.15230
3208.87007,0.15129
3206.81046,0.15054
3204.75085,0.14964
3202.69125,0.14873
3200.63164,0.14799
3198.57203,0.14742
3196.51242,0.14711
3194.45281,0.14690
3192.39320,0.14639
3190.33359,0.14544
3188.27399,0.14446
3186.21438,0.14385
3184.15477,0.14331
3182.09516,0.14274
3180.03555,0.14219
3177.97594,0.14115
3175.91633,0.13983
3173.85673,0.13896
3171.79712,0.13828
3169.73751,0.13734
3167.67790,0.13641
3165.61829,0.13555
3163.55868,0.13458
3161.49907,0.13378
3159.43947,0.13304
3157.37986,0.13224
3155.32025,0.13146
3153.26064,0.13048
3151.20103,0.12929
3149.14142,0.12810
3147.08182,0.12719
3145.02221,0.12652
3142.96260,0.12571
3140.90299,0.12487
3138.84338,0.12408
3136.78377,0.12306
3134.72416,0.12205
3132.66456,0.12137
3130.60495,0.12088
3128.54534,0.12062
3126.48573,0.12050
3124.42612,0.12000
3122.36651,0.11920
3120.30690,0.11860
3118.24730,0.11828
3116.18769,0.11813
3114.12808,0.11799
3112.06847,0.11763
3110.00886,0.11726
3107.94925,0.11687
3105.88965,0.11616
3103.83004,0.11538
3101.77043,0.11507
3099.71082,0.11520
3097.65121,0.11543
3095.59160,0.11549
3093.53199,0.11527
3091.47239,0.11498
3089.41278,0.11507
3087.35317,0.11560
3085.29356,0.11596
3083.23395,0.11590
3081.17434,0.11562
3079.11473,0.11535
3077.05513,0.11536
3074.99552,0.11558
3072.93591,0.11575
3070.87630,0.11606
3068.81669,0.11628
3066.75708,0.11580
3064.69747,0.11503
3062.63787,0.11463
3060.57826,0.11449
3058.51865,0.11419
3056.45904,0.11363
3054.39943,0.11320
3052.33982,0.11288
3050.28022,0.11212
3048.22061,0.11112
3046.16100,0.11078
3044.10139,0.11076
3042.04178,0.11035
3039.98217,0.10953
3037.92256,0.10855
3035.86296,0.10783
3033.80335,0.10736
3031.74374,0.10696
3029.68413,0.10661
3027.62452,0.10622
3025.56491,0.10562
3023.50530,0.10491
3021.44570,0.10416
3019.38609,0.10348
3017.32648,0.10312
3015.26687,0.10300
3013.20726,0.10279
3011.14765,0.10230
3009.08804,0.10168
3007.02844,0.10119
3004.96883,0.10078
3002.90922,0.10034
3000.84961,0.09996
2998.79000,0.09976
2996.73039,0.09972
2994.67079,0.10003
2992.61118,0.10054
2990.55157,0.10085
2988.49196,0.10102
2986.43235,0.10144
2984.37274,0.10235
2982.31313,0.10346
2980.25353,0.10419
2978.19392,0.10441
2976.13431,0.10452
2974.07470,0.10480
2972.01509,0.10526
2969.95548,0.10598
2967.89587,0.10687
2965.83627,0.10771
2963.77666,0.10842
2961.71705,0.10904
2959.65744,0.10951
2957.59783,0.10959
2955.53822,0.10943
2953.47861,0.10916
2951.41901,0.10862
2949.35940,0.10805
2947.29979,0.10794
2945.24018,0.10840
2943.18057,0.10902
2941.12096,0.10939
2939.06136,0.10977
2937.00175,0.11040
2934.94214,0.11091
2932.88253,0.11102
2930.82292,0.11077
2928.76331,0.11042
2926.70370,0.11013
2924.64410,0.10983
2922.58449,0.10936
2920.52488,0.10863
2918.46527,0.10781
2916.40566,0.10688
2914.34605,0.10592
2912.28644,0.10509
2910.22684,0.10417
2908.16723,0.10308
2906.10762,0.10200
2904.04801,0.10132
2901.98840,0.10099
2899.92879,0.10039
2897.86918,0.09966
2895.80958,0.09930
2893.74997,0.09904
2891.69036,0.09866
2889.63075,0.09852
2887.57114,0.09850
2885.51153,0.09830
2883.45193,0.09831
2881.39232,0.09867
2879.33271,0.09911
2877.27310,0.09966
2875.21349,0.10004
2873.15388,0.09979
2871.09427,0.09909
2869.03467,0.09846
2866.97506,0.09794
2864.91545,0.09730
2862.85584,0.09647
2860.79623,0.09574
2858.73662,0.09540
2856.67701,0.09520
2854.61741,0.09473
2852.55780,0.09423
2850.49819,0.09398
2848.43858,0.09359
2846.37897,0.09262
2844.31936,0.09144
2842.25975,0.09058
2840.20015,0.09006
2838.14054,0.08962
2836.08093,0.08928
2834.02132,0.08912
2831.96171,0.08882
2829.90210,0.08822
2827.84250,0.08758
2825.78289,0.08708
2823.72328,0.08675
2821.66367,0.08653
2819.60406,0.08634
2817.54445,0.08602
2815.48484,0.08550
2813.42524,0.08519
2811.36563,0.08509
2809.30602,0.08467
2807.24641,0.08413
2805.18680,0.08392
2803.12719,0.08384
2801.06758,0.08365
2799.00798,0.08355
2796.94837,0.08358
2794.88876,0.08341
2792.82915,0.08297
2790.76954,0.08256
2788.70993,0.08230
2786.65032,0.08206
2784.59072,0.08191
2782.53111,0.08173
2780.47150,0.08125
2778.41189,0.08074
2776.35228,0.08052
2774.29267,0.08046
2772.23307,0.08034
2770.17346,0.08029
2768.11385,0.08021
2766.05424,0.07992
2763.99463,0.07961
2761.93502,0.07948
2759.87541,0.07949
2757.81581,0.07941
2755.75620,0.07921
2753.69659,0.07893
2751.63698,0.07856
2749.57737,0.07822
2747.51776,0.07780
2745.45815,0.07739
2743.39855,0.07737
2741.33894,0.07750
2739.27933,0.07738
2737.21972,0.07721
2735.16011,0.07705
2733.10050,0.07687
2731.04089,0.07665
2728.98129,0.07643
2726.92168,0.07625
2724.86207,0.07594
2722.80246,0.07552
2720.74285,0.07528
2718.68324,0.07523
2716.62364,0.07509
2714.56403,0.07479
2712.50442,0.07448
2710.44481,0.07421
2708.38520,0.07412
2706.32559,0.07417
2704.26598,0.07398
2702.20638,0.07353
2700.14677,0.07315
2698.08716,0.07301
2696.02755,0.07298
2693.96794,0.07279
2691.90833,0.07250
2689.84872,0.07222
2687.78912,0.07183
2685.72951,0.07160
2683.66990,0.07172
2681.61029,0.07182
2679.55068,0.07173
2677.49107,0.07143
2675.43146,0.07103
2673.37186,0.07080
2671.31225,0.07073
2669.25264,0.07069
2667.19303,0.07064
2665.13342,0.07053
2663.07381,0.07037
2661.01421,0.07022
2658.95460,0.07003
2656.89499,0.06968
2654.83538,0.06932
2652.77577,0.06907
2650.71616,0.06889
2648.65655,0.06873
2646.59695,0.06854
2644.53734,0.06834
2642.47773,0.06801
2640.41812,0.06762
2638.35851,0.06737
2636.29890,0.06722
2634.23929,0.06706
2632.17969,0.06692
2630.12008,0.06676
2628.06047,0.06642
2626.00086,0.06602
2623.94125,0.06586
2621.88164,0.06579
2619.82203,0.06560
2617.76243,0.06538
2615.70282,0.06533
2613.64321,0.06532
2611.58360,0.06482
2609.52399,0.06414
2607.46438,0.06396
2605.40478,0.06397
2603.34517,0.06376
2601.28556,0.06341
2599.22595,0.06317
2597.16634,0.06302
2595.10673,0.06286
2593.04712,0.06262
2590.98752,0.06225
2588.92791,0.06201
2586.86830,0.06202
2584.80869,0.06210
2582.74908,0.06196
2580.68947,0.06153
2578.62986,0.06116
2576.57026,0.06112
2574.51065,0.06100
2572.45104,0.06065
2570.39143,0.06056
2568.33182,0.06075
2566.27221,0.06078
2564.21260,0.06041
2562.15300,0.05980
2560.09339,0.05930
2558.03378,0.05933
2555.97417,0.05966
2553.91456,0.05968
2551.85495,0.05916
2549.79535,0.05841
2547.73574,0.05805
2545.67613,0.05792
2543.61652,0.05786
2541.55691,0.05792
2539.49730,0.05769
2537.43769,0.05741
2535.37809,0.05750
2533.31848,0.05763
2531.25887,0.05742
2529.19926,0.05713
2527.13965,0.05708
2525.08004,0.05698
2523.02043,0.05661
2520.96083,0.05637
2518.90122,0.05641
2516.84161,0.05650
2514.78200,0.05658
2512.72239,0.05654
2510.66278,0.05631
2508.60317,0.05609
2506.54357,0.05603
2504.48396,0.05612
2502.42435,0.05611
2500.36474,0.05583
2498.30513,0.05555
2496.24552,0.05544
2494.18592,0.05551
2492.12631,0.05561
2490.06670,0.05535
2488.00709,0.05495
2485.94748,0.05471
2483.88787,0.05436
2481.82826,0.05404
2479.76866,0.05401
2477.70905,0.05426
2475.64944,0.05461
2473.58983,0.05461
2471.53022,0.05424
2469.47061,0.05386
2467.41100,0.05359
2465.35140,0.05339
2463.29179,0.05331
2461.23218,0.05338
2459.17257,0.05358
2457.11296,0.05368
2455.05335,0.05350
2452.99374,0.05341
2450.93414,0.05365
2448.87453,0.05366
2446.81492,0.05317
2444.75531,0.05236
2442.69570,0.05166
2440.63609,0.05156
2438.57649,0.05184
2436.51688,0.05213
2434.45727,0.05238
2432.39766,0.05247
2430.33805,0.05236
2428.27844,0.05225
2426.21883,0.05220
2424.15923,0.05201
2422.09962,0.05160
2420.04001,0.05109
2417.98040,0.05070
2415.92079,0.05062
2413.86118,0.05080
2411.80157,0.05075
2409.74197,0.05047
2407.68236,0.05051
2405.62275,0.05072
2403.56314,0.05056
2401.50353,0.05027
2399.44392,0.05027
2397.38431,0.05040
2395.32471,0.05052
2393.26510,0.05040
2391.20549,0.04996
2389.14588,0.04961
2387.08627,0.04943
2385.02666,0.04931
2382.96706,0.04938
2380.90745,0.04969
2378.84784,0.05012
2376.78823,0.05017
2374.72862,0.04948
2372.66901,0.04906
2370.60940,0.04925
2368.54980,0.04931
2366.49019,0.04937
2364.43058,0.04957
2362.37097,0.04957
2360.31136,0.04957
2358.25175,0.04987
2356.19214,0.05029
2354.13254,0.05035
2352.07293,0.05008
2350.01332,0.04987
2347.95371,0.04982
2345.89410,0.05000
2343.83449,0.05019
2341.77488,0.04992
2339.71528,0.04961
2337.65567,0.04949
2335.59606,0.04913
2333.53645,0.04889
2331.47684,0.04910
2329.41723,0.04916
2327.35763,0.04931
2325.29802,0.04998
2323.23841,0.05039
2321.17880,0.04983
2319.11919,0.04871
2317.05958,0.04788
2314.99997,0.04767
2312.94037,0.04804
2310.88076,0.04832
2308.82115,0.04790
2306.76154,0.04724
2304.70193,0.04670
2302.64232,0.04639
2300.58271,0.04643
2298.52311,0.04669
2296.46350,0.04677
2294.40389,0.04639
2292.34428,0.04571
2290.28467,0.04515
2288.22506,0.04517
2286.16545,0.04555
2284.10585,0.04555
2282.04624,0.04505
2279.98663,0.04421
2277.92702,0.04329
2275.86741,0.04285
2273.80780,0.04287
2271.74820,0.04260
2269.68859,0.04226
2267.62898,0.04252
2265.56937,0.04267
2263.50976,0.04223
2261.45015,0.04185
2259.39054,0.04171
2257.33094,0.04144
2255.27133,0.04092
2253.21172,0.04039
2251.15211,0.04020
2249.09250,0.04035
2247.03289,0.04046
2244.97328,0.04063
2242.91368,0.04079
2240.85407,0.04043
2238.79446,0.03988
2236.73485,0.03962
2234.67524,0.03937
2232.61563,0.03870
2230.55602,0.03800
2228.49642,0.03803
2226.43681,0.03856
2224.37720,0.03847
2222.31759,0.03753
2220.25798,0.03693
2218.19837,0.03706
2216.13877,0.03676
2214.07916,0.03590
2212.01955,0.03552
2209.95994,0.03555
2207.90033,0.03559
2205.84072,0.03553
2203.78111,0.03537
2201.72151,0.03520
2199.66190,0.03523
2197.60229,0.03566
2195.54268,0.03623
2193.48307,0.03629
2191.42346,0.03550
2189.36385,0.03427
2187.30425,0.03359
2185.24464,0.03395
2183.18503,0.03359
2181.12542,0.03225
2179.06581,0.03226
2177.00620,0.03297
2174.94659,0.03247
2172.88699,0.03167
2170.82738,0.03253
2168.76777,0.03447
2166.70816,0.03489
2164.64855,0.03322
2162.58894,0.03105
2160.52934,0.02933
2158.46973,0.02801
2156.41012,0.02759
2154.35051,0.02871
2152.29090,0.03042
2150.23129,0.03080
2148.17168,0.03013
2146.11208,0.02992
2144.05247,0.03007
2141.99286,0.03036
2139.93325,0.03065
2137.87364,0.03072
2135.81403,0.03104
2133.75442,0.03149
2131.69482,0.03174
2129.63521,0.03239
2127.57560,0.03348
2125.51599,0.03425
2123.45638,0.03449
2121.39677,0.03447
2119.33716,0.03421
2117.27756,0.03418
2115.21795,0.03456
2113.15834,0.03460
2111.09873,0.03452
2109.03912,0.03456
2106.97951,0.03413
2104.91991,0.03367
2102.86030,0.03386
2100.80069,0.03440
2098.74108,0.03463
2096.68147,0.03422
2094.62186,0.03366
2092.56225,0.03366
2090.50265,0.03412
2088.44304,0.03452
2086.38343,0.03466
2084.32382,0.03456
2082.26421,0.03433
2080.20460,0.03391
2078.14499,0.03332
2076.08539,0.03292
2074.02578,0.03290
2071.96617,0.03283
2069.90656,0.03217
2067.84695,0.03150
2065.78734,0.03157
2063.72773,0.03126
2061.66813,0.03022
2059.60852,0.03043
2057.54891,0.03171
2055.48930,0.03185
2053.42969,0.03115
2051.37008,0.03080
2049.31048,0.03048
2047.25087,0.02961
2045.19126,0.02829
2043.13165,0.02713
2041.07204,0.02705
2039.01243,0.02798
2036.95282,0.02822
2034.89322,0.02707
2032.83361,0.02620
2030.77400,0.02642
2028.71439,0.02655
2026.65478,0.02575
2024.59517,0.02473
2022.53556,0.02518
2020.47596,0.02624
2018.41635,0.02563
2016.35674,0.02490
2014.29713,0.02542
2012.23752,0.02504
2010.17791,0.02391
2008.11830,0.02386
2006.05870,0.02417
2003.99909,0.02401
2001.93948,0.02458
1999.87987,0.02634
1997.82026,0.02754
1995.76065,0.02732
1993.70105,0.02649
1991.64144,0.02588
1989.58183,0.02599
1987.52222,0.02604
1985.46261,0.02607
1983.40300,0.02684
1981.34339,0.02701
1979.28379,0.02586
1977.22418,0.02491
1975.16457,0.02460
1973.10496,0.02469
1971.04535,0.02497
1968.98574,0.02450
1966.92613,0.02324
1964.86653,0.02244
1962.80692,0.02288
1960.74731,0.02412
1958.68770,0.02529
1956.62809,0.02590
1954.56848,0.02632
1952.50887,0.02678
1950.44927,0.02683
1948.38966,0.02629
1946.33005,0.02532
1944.27044,0.02466
1942.21083,0.02480
1940.15122,0.02496
1938.09162,0.02477
1936.03201,0.02478
1933.97240,0.02525
1931.91279,0.02565
1929.85318,0.02575
1927.79357,0.02593
1925.73396,0.02602
1923.67436,0.02587
1921.61475,0.02589
1919.55514,0.02594
1917.49553,0.02579
1915.43592,0.02552
1913.37631,0.02531
1911.31670,0.02544
1909.25710,0.02563
1907.19749,0.02543
1905.13788,0.02526
1903.07827,0.02543
1901.01866,0.02552
1898.95905,0.02526
1896.89944,0.02500
1894.83984,0.02512
1892.78023,0.02556
1890.72062,0.02592
1888.66101,0.02571
1886.60140,0.02515
1884.54179,0.02478
1882.48219,0.02461
1880.42258,0.02462
1878.36297,0.02481
1876.30336,0.02506
1874.24375,0.02506
1872.18414,0.02488
1870.12453,0.02484
1868.06493,0.02482
1866.00532,0.02481
1863.94571,0.02494
1861.88610,0.02506
1859.82649,0.02493
1857.76688,0.02452
1855.70727,0.02421
1853.64767,0.02420
1851.58806,0.02424
1849.52845,0.02401
1847.46884,0.02365
1845.40923,0.02348
1843.34962,0.02356
1841.29002,0.02358
1839.23041,0.02332
1837.17080,0.02305
1835.11119,0.02305
1833.05158,0.02317
1830.99197,0.02308
1828.93236,0.02282
1826.87276,0.02287
1824.81315,0.02307
1822.75354,0.02309
1820.69393,0.02290
1818.63432,0.02254
1816.57471,0.02219
1814.51510,0.02200
1812.45550,0.02198
1810.39589,0.02208
1808.33628,0.02216
1806.27667,0.02205
1804.21706,0.02186
1802.15745,0.02183
1800.09784,0.02196
1798.03824,0.02197
1795.97863,0.02181
1793.91902,0.02175
1791.85941,0.02182
1789.79980,0.02177
1787.74019,0.02164
1785.68059,0.02153
1783.62098,0.02138
1781.56137,0.02127
1779.50176,0.02116
1777.44215,0.02105
1775.38254,0.02096
1773.32293,0.02074
1771.26333,0.02040
1769.20372,0.02025
1767.14411,0.02024
1765.08450,0.02019
1763.02489,0.02016
1760.96528,0.02025
1758.90567,0.02031
1756.84607,0.02024
1754.78646,0.02007
1752.72685,0.01992
1750.66724,0.01987
1748.60763,0.01984
1746.54802,0.01992
1744.48841,0.02012
1742.42881,0.02038
1740.36920,0.02077
1738.30959,0.02115
1736.24998,0.02135
1734.19037,0.02179
1732.13076,0.02273
1730.07116,0.02358
1728.01155,0.02434
1725.95194,0.02486
1723.89233,0.02508
1721.83272,0.02523
1719.77311,0.02557
1717.71350,0.02615
1715.65390,0.02682
1713.59429,0.02743
1711.53468,0.02823
1709.47507,0.02956
1707.41546,0.03161
1705.35585,0.03458
1703.29624,0.03796
1701.23664,0.04257
1699.17703,0.04861
1697.11742,0.05314
1695.05781,0.05679
1692.99820,0.06001
1690.93859,0.06299
1688.87898,0.06635
1686.81938,0.06973
1684.75977,0.07454
1682.70016,0.08078
1680.64055,0.08573
1678.58094,0.08999
1676.52133,0.09488
1674.46173,0.10092
1672.40212,0.10655
1670.34251,0.11241
1668.28290,0.11959
1666.22329,0.12596
1664.16368,0.13221
1662.10407,0.13968
1660.04447,0.14638
1657.98486,0.15123
1655.92525,0.15481
1653.86564,0.15937
1651.80603,0.16457
1649.74642,0.16595
1647.68681,0.16618
1645.62721,0.16685
1643.56760,0.16659
1641.50799,0.16558
1639.44838,0.16444
1637.38877,0.16330
1635.32916,0.16233
1633.26955,0.16129
1631.20995,0.16014
1629.15034,0.15945
1627.09073,0.15923
1625.03112,0.15929
1622.97151,0.16005
1620.91190,0.16066
1618.85230,0.16040
1616.79269,0.15937
1614.73308,0.15655
1612.67347,0.15158
1610.61386,0.14485
1608.55425,0.13696
1606.49464,0.12883
1604.43504,0.12101
1602.37543,0.11381
1600.31582,0.10771
1598.25621,0.10272
1596.19660,0.09848
1594.13699,0.09469
1592.07738,0.09139
1590.01778,0.08863
1587.95817,0.08635
1585.89856,0.08457
1583.83895,0.08349
1581.77934,0.08292
1579.71973,0.08243
1577.66012,0.08223
1575.60052,0.08267
1573.54091,0.08317
1571.48130,0.08379
1569.42169,0.08538
1567.36208,0.08758
1565.30247,0.08993
1563.24287,0.09233
1561.18326,0.09504
1559.12365,0.10062
1557.06404,0.10744
1555.00443,0.11223
1552.94482,0.11713
1550.88521,0.12234
1548.82561,0.12748
1546.76600,0.13185
1544.70639,0.13554
1542.64678,0.13883
1540.58717,0.14246
1538.52756,0.14577
1536.46795,0.14693
1534.40835,0.14760
1532.34874,0.14859
1530.28913,0.14901
1528.22952,0.14914
1526.16991,0.14940
1524.11030,0.14948
1522.05069,0.14984
1519.99109,0.15080
1517.93148,0.15161
1515.87187,0.15181
1513.81226,0.15074
1511.75265,0.14839
1509.69304,0.14540
1507.63344,0.14172
1505.57383,0.13720
1503.51422,0.13296
1501.45461,0.12882
1499.39500,0.12420
1497.33539,0.11909
1495.27578,0.11411
1493.21618,0.10982
1491.15657,0.10564
1489.09696,0.10126
1487.03735,0.09729
1484.97774,0.09376
1482.91813,0.09052
1480.85852,0.08757
1478.79892,0.08513
1476.73931,0.08347
1474.67970,0.08265
1472.62009,0.08274
1470.56048,0.08335
1468.50087,0.08387
1466.44126,0.08453
1464.38166,0.08569
1462.32205,0.08686
1460.26244,0.08784
1458.20283,0.08952
1456.14322,0.09207
1454.08361,0.09346
1452.02401,0.09364
1449.96440,0.09331
1447.90479,0.09251
1445.84518,0.09117
1443.78557,0.08941
1441.72596,0.08741
1439.66635,0.08532
1437.60675,0.08316
1435.54714,0.08103
1433.48753,0.07928
1431.42792,0.07779
1429.36831,0.07646
1427.30870,0.07544
1425.24909,0.07490
1423.18949,0.07478
1421.12988,0.07490
1419.07027,0.07530
1417.01066,0.07570
1414.95105,0.07585
1412.89144,0.07598
1410.83183,0.07620
1408.77223,0.07634
1406.71262,0.07633
1404.65301,0.07624
1402.59340,0.07604
1400.53379,0.07578
1398.47418,0.07561
1396.41458,0.07563
1394.35497,0.07599
1392.29536,0.07650
1390.23575,0.07697
1388.17614,0.07765
1386.11653,0.07843
1384.05692,0.07877
1381.99732,0.07873
1379.93771,0.07846
1377.87810,0.07791
1375.81849,0.07712
1373.75888,0.07625
1371.69927,0.07543
1369.63966,0.07457
1367.58006,0.07345
1365.52045,0.07207
1363.46084,0.07074
1361.40123,0.06963
1359.34162,0.06868
1357.28201,0.06794
1355.22240,0.06751
1353.16280,0.06731
1351.10319,0.06725
1349.04358,0.06734
1346.98397,0.06746
1344.92436,0.06756
1342.86475,0.06771
1340.80515,0.06780
1338.74554,0.06784
1336.68593,0.06792
1334.62632,0.06798
1332.56671,0.06790
1330.50710,0.06778
1328.44749,0.06766
1326.38789,0.06753
1324.32828,0.06746
1322.26867,0.06750
1320.20906,0.06754
1318.14945,0.06758
1316.08984,0.06768
1314.03023,0.06782
1311.97063,0.06792
1309.91102,0.06799
1307.85141,0.06813
1305.79180,0.06840
1303.73219,0.06858
1301.67258,0.06854
1299.61297,0.06837
1297.55337,0.06804
1295.49376,0.06748
1293.43415,0.06684
1291.37454,0.06626
1289.31493,0.06581
1287.25532,0.06552
1285.19572,0.06533
1283.13611,0.06511
1281.07650,0.06486
1279.01689,0.06468
1276.95728,0.06463
1274.89767,0.06467
1272.83806,0.06480
1270.77846,0.06509
1268.71885,0.06545
1266.65924,0.06577
1264.59963,0.06612
1262.54002,0.06663
1260.48041,0.06737
1258.42080,0.06828
1256.36120,0.06931
1254.30159,0.07042
1252.24198,0.07146
1250.18237,0.07246
1248.12276,0.07355
1246.06315,0.07463
1244.00354,0.07558
1241.94394,0.07632
1239.88433,0.07668
1237.82472,0.07657
1235.76511,0.07615
1233.70550,0.07552
1231.64589,0.07469
1229.58629,0.07380
1227.52668,0.07289
1225.46707,0.07179
1223.40746,0.07053
1221.34785,0.06921
1219.28824,0.06791
1217.22863,0.06667
1215.16903,0.06543
1213.10942,0.06414
1211.04981,0.06279
1208.99020,0.06155
1206.93059,0.06055
1204.87098,0.05954
1202.81137,0.05840
1200.75177,0.05731
1198.69216,0.05634
1196.63255,0.05546
1194.57294,0.05463
1192.51333,0.05376
1190.45372,0.05295
1188.39411,0.05240
1186.33451,0.05215
1184.27490,0.05202
1182.21529,0.05200
1180.15568,0.05221
1178.09607,0.05269
1176.03646,0.05340
1173.97686,0.05425
1171.91725,0.05499
1169.85764,0.05546
1167.79803,0.05567
1165.73842,0.05568
1163.67881,0.05536
1161.61920,0.05469
1159.55960,0.05396
1157.49999,0.05332
1155.44038,0.05272
1153.38077,0.05208
1151.32116,0.05140
1149.26155,0.05075
1147.20194,0.05016
1145.14234,0.04966
1143.08273,0.04920
1141.02312,0.04881
1138.96351,0.04847
1136.90390,0.04822
1134.84429,0.04810
1132.78468,0.04794
1130.72508,0.04766
1128.66547,0.04738
1126.60586,0.04706
1124.54625,0.04671
1122.48664,0.04637
1120.42703,0.04600
1118.36743,0.04549
1116.30782,0.04494
1114.24821,0.04456
1112.18860,0.04447
1110.12899,0.04457
1108.06938,0.04469
1106.00977,0.04484
1103.95017,0.04502
1101.89056,0.04503
1099.83095,0.04490
1097.77134,0.04489
1095.71173,0.04514
1093.65212,0.04561
1091.59251,0.04625
1089.53291,0.04713
1087.47330,0.04823
1085.41369,0.04945
1083.35408,0.05074
1081.29447,0.05207
1079.23486,0.05318
1077.17525,0.05394
1075.11565,0.05450
1073.05604,0.05484
1070.99643,0.05505
1068.93682,0.05533
1066.87721,0.05551
1064.81760,0.05549
1062.75800,0.05547
1060.69839,0.05547
1058.63878,0.05537
1056.57917,0.05523
1054.51956,0.05511
1052.45995,0.05500
1050.40034,0.05480
1048.34074,0.05435
1046.28113,0.05373
1044.22152,0.05292
1042.16191,0.05185
1040.10230,0.05061
1038.04269,0.04936
1035.98308,0.04810
1033.92348,0.04689
1031.86387,0.04582
1029.80426,0.04468
1027.74465,0.04336
1025.68504,0.04199
1023.62543,0.04069
1021.56582,0.03957
1019.50622,0.03873
1017.44661,0.03795
1015.38700,0.03708
1013.32739,0.03628
1011.26778,0.03559
1009.20817,0.03498
1007.14857,0.03444
1005.08896,0.03389
1003.02935,0.03331
1000.96974,0.03281
998.91013,0.03237
996.85052,0.03194
994.79091,0.03145
992.73131,0.03096
990.67170,0.03061
988.61209,0.03035
986.55248,0.03019
984.49287,0.03014
982.43326,0.03009
980.37365,0.02994
978.31405,0.02976
976.25444,0.02958
974.19483,0.02937
972.13522,0.02919
970.07561,0.02916
968.01600,0.02927
965.95639,0.02946
963.89679,0.02959
961.83718,0.02947
959.77757,0.02924
957.71796,0.02904
955.65835,0.02884
953.59874,0.02869
951.53914,0.02871
949.47953,0.02881
947.41992,0.02877
945.36031,0.02864
943.30070,0.02864
941.24109,0.02872
939.18148,0.02872
937.12188,0.02857
935.06227,0.02833
933.00266,0.02808
930.94305,0.02775
928.88344,0.02740
926.82383,0.02720
924.76422,0.02705
922.70462,0.02675
920.64501,0.02630
918.58540,0.02588
916.52579,0.02566
914.46618,0.02557
912.40657,0.02555
910.34696,0.02564
908.28736,0.02577
906.22775,0.02596
904.16814,0.02614
902.10853,0.02620
900.04892,0.02616
897.98931,0.02614
895.92971,0.02620
893.87010,0.02622
891.81049,0.02604
889.75088,0.02572
887.69127,0.02548
885.63166,0.02526
883.57205,0.02497
881.51245,0.02465
879.45284,0.02445
877.39323,0.02436
875.33362,0.02418
873.27401,0.02392
871.21440,0.02370
869.15479,0.02349
867.09519,0.02337
865.03558,0.02335
862.97597,0.02327
860.91636,0.02319
858.85675,0.02319
856.79714,0.02323
854.73753,0.02338
852.67793,0.02360
850.61832,0.02377
848.55871,0.02383
846.49910,0.02389
844.43949,0.02403
842.37988,0.02433
840.32028,0.02496
838.26067,0.02579
836.20106,0.02653
834.14145,0.02715
832.08184,0.02767
830.02223,0.02800
827.96262,0.02812
825.90302,0.02801
823.84341,0.02773
821.78380,0.02744
819.72419,0.02716
817.66458,0.02703
815.60497,0.02713
813.54536,0.02734
811.48576,0.02754
809.42615,0.02765
807.36654,0.02768
805.30693,0.02766
803.24732,0.02766
801.18771,0.02779
799.12810,0.02801
797.06850,0.02818
795.00889,0.02850
792.94928,0.02904
790.88967,0.02968
788.83006,0.03054
786.77045,0.03156
784.71085,0.03237
782.65124,0.03281
780.59163,0.03293
778.53202,0.03280
776.47241,0.03257
774.41280,0.03242
772.35319,0.03229
770.29359,0.03205
768.23398,0.03191
766.17437,0.03195
764.11476,0.03191
762.05515,0.03172
759.99554,0.03165
757.93593,0.03182
755.87633,0.03209
753.81672,0.03238
751.75711,0.03264
749.69750,0.03284
747.63789,0.03295
745.57828,0.03296
743.51867,0.03301
741.45907,0.03315
739.39946,0.03328
737.33985,0.03348
735.28024,0.03384
733.22063,0.03423
731.16102,0.03466
729.10142,0.03520
727.04181,0.03578
724.98220,0.03629
722.92259,0.03678
720.86298,0.03749
718.80337,0.03844
716.74376,0.03930
714.68416,0.03999
712.62455,0.04064
710.56494,0.04142
708.50533,0.04229
706.44572,0.04306
704.38611,0.04375
702.32650,0.04433
700.26690,0.04471
698.20729,0.04488
696.14768,0.04497
694.08807,0.04507
692.02846,0.04514
689.96885,0.04520
687.90924,0.04547
685.84964,0.04590
683.79003,0.04613
681.73042,0.04612
679.67081,0.04614
677.61120,0.04627
675.55159,0.04645
673.49199,0.04663
671.43238,0.04683
669.37277,0.04717
667.31316,0.04759
665.25355,0.04783
663.19394,0.04793
661.13433,0.04797
659.07473,0.04796
657.01512,0.04796
654.95551,0.04800
652.89590,0.04810
650.83629,0.04822
648.77668,0.04831
646.71707,0.04839
644.65747,0.04848
642.59786,0.04854
640.53825,0.04864
638.47864,0.04884
636.41903,0.04904
634.35942,0.04917
632.29981,0.04938
630.24021,0.04964
628.18060,0.04981
626.12099,0.04998
624.06138,0.05007
622.00177,0.05003
619.94216,0.04998
617.88256,0.04992
615.82295,0.04972
613.76334,0.04944
611.70373,0.04929
609.64412,0.04928
607.58451,0.04931
605.52490,0.04924
603.46530,0.04907
601.40569,0.04896
599.34608,0.04888
597.28647,0.04880
595.22686,0.04873
593.16725,0.04867
591.10764,0.04866
589.04804,0.04856
586.98843,0.04836
584.92882,0.04828
582.86921,0.04830
580.80960,0.04828
578.74999,0.04823
576.69039,0.04820
574.63078,0.04806
572.57117,0.04785
570.51156,0.04778
568.45195,0.04789
566.39234,0.04801
564.33273,0.04812
562.27313,0.04822
560.21352,0.04821
558.15391,0.04813
556.09430,0.04801
554.03469,0.04776
551.97508,0.04746
549.91547,0.04714
547.85587,0.04673
545.79626,0.04636
543.73665,0.04629
541.67704,0.04634
539.61743,0.04613
537.55782,0.04583
535.49821,0.04580
533.43861,0.04603
531.37900,0.04626
529.31939,0.04637
527.25978,0.04639
525.20017,0.04636
523.14056,0.04622
521.08096,0.04589
519.02135,0.04550
516.96174,0.04527
514.90213,0.04498
512.84252,0.04449
510.78291,0.04415
508.72330,0.04388
506.66370,0.04322
504.60409,0.04243
502.54448,0.04209
500.48487,0.04192
498.42526,0.04147
496.36565,0.04105
494.30604,0.04091
492.24644,0.04086
490.18683,0.04074
488.12722,0.04050
486.06761,0.04014
484.00800,0.03990
481.94839,0.03983
479.88878,0.03972
477.82918,0.03950
475.76957,0.03912
473.70996,0.03869
471.65035,0.03838
469.59074,0.03823
467.53113,0.03819
465.47153,0.03814
463.41192,0.03812
461.35231,0.03812
459.29270,0.03807
457.23309,0.03796
455.17348,0.03786
453.11387,0.03780
451.05427,0.03761
448.99466,0.03709
446.93505,0.03633
444.87544,0.03561
442.81583,0.03518
440.75622,0.03504
438.69661,0.03482
436.63701,0.03427
434.57740,0.03373
432.51779,0.03365
430.45818,0.03367
428.39857,0.03319
426.33896,0.03248
424.27935,0.03220
422.21975,0.03244
420.16014,0.03272
418.10053,0.03255
416.04092,0.03191
413.98131,0.03138
411.92170,0.03137
409.86210,0.03139
407.80249,0.03076
405.74288,0.03007
403.68327,0.02989
401.62366,0.02971
399.56405,0.02915
