3997.70013,0.08815
3995.64052,0.08843
3993.58092,0.08873
3991.52131,0.08894
3989.46170,0.08892
3987.40209,0.08869
3985.34248,0.08853
3983.28287,0.08848
3981.22327,0.08837
3979.16366,0.08809
3977.10405,0.08781
3975.04444,0.08772
3972.98483,0.08768
3970.92522,0.08741
3968.86561,0.08713
3966.80601,0.08738
3964.74640,0.08805
3962.68679,0.08799
3960.62718,0.08714
3958.56757,0.08670
3956.50796,0.08674
3954.44835,0.08668
3952.38875,0.08657
3950.32914,0.08671
3948.26953,0.08685
3946.20992,0.08660
3944.15031,0.08614
3942.09070,0.08577
3940.03109,0.08567
3937.97149,0.08570
3935.91188,0.08558
3933.85227,0.08551
3931.79266,0.08580
3929.73305,0.08600
3927.67344,0.08575
3925.61384,0.08538
3923.55423,0.08530
3921.49462,0.08556
3919.43501,0.08548
3917.37540,0.08501
3915.31579,0.08521
3913.25618,0.08584
3911.19658,0.08614
3909.13697,0.08590
3907.07736,0.08522
3905.01775,0.08432
3902.95814,0.08393
3900.89853,0.08438
3898.83892,0.08458
3896.77932,0.08439
3894.71971,0.08452
3892.66010,0.08490
3890.60049,0.08506
3888.54088,0.08529
3886.48127,0.08576
3884.42166,0.08561
3882.36206,0.08455
3880.30245,0.08336
3878.24284,0.08301
3876.18323,0.08327
3874.12362,0.08298
3872.06401,0.08226
3870.00441,0.08254
3867.94480,0.08324
3865.88519,0.08301
3863.82558,0.08268
3861.76597,0.08296
3859.70636,0.08331
3857.64675,0.08308
3855.58715,0.08227
3853.52754,0.08206
3851.46793,0.08319
3849.40832,0.08379
3847.34871,0.08351
3845.28910,0.08321
3843.22949,0.08331
3841.16989,0.08344
3839.11028,0.08314
3837.05067,0.08221
3834.99106,0.08104
3832.93145,0.08054
3830.87184,0.08081
3828.81223,0.08116
3826.75263,0.08110
3824.69302,0.08080
3822.63341,0.08100
3820.57380,0.08151
3818.51419,0.08126
3816.45458,0.08110
3814.39498,0.08154
3812.33537,0.08126
3810.27576,0.08035
3808.21615,0.08014
3806.15654,0.08101
3804.09693,0.08119
3802.03732,0.08011
3799.97772,0.07937
3797.91811,0.07954
3795.85850,0.07987
3793.79889,0.07996
3791.73928,0.07967
3789.67967,0.07913
3787.62006,0.07895
3785.56046,0.07948
3783.50085,0.07970
3781.44124,0.07886
3779.38163,0.07809
3777.32202,0.07838
3775.26241,0.07905
3773.20280,0.07946
3771.14320,0.07971
3769.08359,0.07983
3767.02398,0.07967
3764.96437,0.07912
3762.90476,0.07827
3760.84515,0.07767
3758.78555,0.07712
3756.72594,0.07626
3754.66633,0.07564
3752.60672,0.07578
3750.54711,0.07676
3748.48750,0.07728
3746.42789,0.07705
3744.36829,0.07717
3742.30868,0.07746
3740.24907,0.07721
3738.18946,0.07664
3736.12985,0.07594
3734.07024,0.07580
3732.01063,0.07579
3729.95103,0.07522
3727.89142,0.07500
3725.83181,0.07486
3723.77220,0.07425
3721.71259,0.07416
3719.65298,0.07432
3717.59337,0.07361
3715.53377,0.07285
3713.47416,0.07254
3711.41455,0.07236
3709.35494,0.07305
3707.29533,0.07410
3705.23572,0.07438
3703.17612,0.07381
3701.11651,0.07291
3699.05690,0.07250
3696.99729,0.07275
3694.93768,0.07304
3692.87807,0.07296
3690.81846,0.07278
3688.75886,0.07266
3686.69925,0.07243
3684.63964,0.07226
3682.58003,0.07207
3680.52042,0.07204
3678.46081,0.07272
3676.40120,0.07379
3674.34160,0.07406
3672.28199,0.07342
3670.22238,0.07294
3668.16277,0.07251
3666.10316,0.07179
3664.04355,0.07123
3661.98394,0.07136
3659.92434,0.07229
3657.86473,0.07342
3655.80512,0.07401
3653.74551,0.07357
3651.68590,0.07252
3649.62629,0.07226
3647.56669,0.07332
3645.50708,0.07440
3643.44747,0.07488
3641.38786,0.07468
3639.32825,0.07444
3637.26864,0.07438
3635.20903,0.07419
3633.14943,0.07402
3631.08982,0.07401
3629.03021,0.07457
3626.97060,0.07522
3624.91099,0.07552
3622.85138,0.07596
3620.79177,0.07631
3618.73217,0.07643
3616.67256,0.07627
3614.61295,0.07611
3612.55334,0.07631
3610.49373,0.07650
3608.43412,0.07649
3606.37451,0.07646
3604.31491,0.07659
3602.25530,0.07716
3600.19569,0.07796
3598.13608,0.07862
3596.07647,0.07912
3594.01686,0.07950
3591.95726,0.07990
3589.89765,0.08001
3587.83804,0.07966
3585.77843,0.07940
3583.71882,0.07953
3581.65921,0.08012
3579.59960,0.08103
3577.54000,0.08158
3575.48039,0.08169
3573.42078,0.08170
3571.36117,0.08163
3569.30156,0.08152
3567.24195,0.08166
3565.18234,0.08222
3563.12274,0.08312
3561.06313,0.08415
3559.00352,0.08468
3556.94391,0.08460
3554.88430,0.08465
3552.82469,0.08521
3550.76508,0.08599
3548.70548,0.08653
3546.64587,0.08708
3544.58626,0.08811
3542.52665,0.08890
3540.46704,0.08885
3538.40743,0.08852
3536.34783,0.08866
3534.28822,0.08923
3532.22861,0.08946
3530.16900,0.08967
3528.10939,0.09053
3526.04978,0.09138
3523.99017,0.09173
3521.93057,0.09207
3519.87096,0.09266
3517.81135,0.09338
3515.75174,0.09401
3513.69213,0.09415
3511.63252,0.09401
3509.57291,0.09460
3507.51331,0.09570
3505.45370,0.09642
3503.39409,0.09716
3501.33448,0.09789
3499.27487,0.09800
3497.21526,0.09816
3495.15565,0.09908
3493.09605,0.10009
3491.03644,0.10067
3488.97683,0.10104
3486.91722,0.10139
3484.85761,0.10197
3482.79800,0.10296
3480.73840,0.10421
3478.67879,0.10535
3476.61918,0.10631
3474.55957,0.10716
3472.49996,0.10781
3470.44035,0.10842
3468.38074,0.10900
3466.32114,0.10918
3464.26153,0.10962
3462.20192,0.11076
3460.14231,0.11163
3458.08270,0.11205
3456.02309,0.11297
3453.96348,0.11450
3451.90388,0.11581
3449.84427,0.11639
3447.78466,0.11661
3445.72505,0.11716
3443.66544,0.11818
3441.60583,0.11920
3439.54622,0.12017
3437.48662,0.12124
3435.42701,0.12202
3433.36740,0.12236
3431.30779,0.12248
3429.24818,0.12269
3427.18857,0.12364
3425.12897,0.12517
3423.06936,0.12657
3421.00975,0.12749
3418.95014,0.12801
3416.89053,0.12865
3414.83092,0.12932
3412.77131,0.12961
3410.71171,0.12999
3408.65210,0.13106
3406.59249,0.13208
3404.53288,0.13233
3402.47327,0.13251
3400.41366,0.13335
3398.35405,0.13455
3396.29445,0.13542
3394.23484,0.13591
3392.17523,0.13616
3390.11562,0.13639
3388.05601,0.13678
3385.99640,0.13713
3383.93679,0.13755
3381.87719,0.13804
3379.81758,0.13820
3377.75797,0.13834
3375.69836,0.13919
3373.63875,0.14037
3371.57914,0.14097
3369.51954,0.14139
3367.45993,0.14237
3365.40032,0.14365
3363.34071,0.14493
3361.28110,0.14609
3359.22149,0.14681
3357.16188,0.14731
3355.10228,0.14834
3353.04267,0.14990
3350.98306,0.15134
3348.92345,0.15242
3346.86384,0.15335
3344.80423,0.15447
3342.74462,0.15591
3340.68502,0.15750
3338.62541,0.15891
3336.56580,0.16006
3334.50619,0.16133
3332.44658,0.16303
3330.38697,0.16481
3328.32736,0.16668
3326.26776,0.16881
3324.20815,0.17093
3322.14854,0.17313
3320.08893,0.17534
3318.02932,0.17742
3315.96971,0.17968
3313.91011,0.18222
3311.85050,0.18491
3309.79089,0.18756
3307.73128,0.19027
3305.67167,0.19332
3303.61206,0.19646
3301.55245,0.19942
3299.49285,0.20234
3297.43324,0.20522
3295.37363,0.20798
3293.31402,0.21088
3291.25441,0.21423
3289.19480,0.21763
3287.13519,0.22054
3285.07559,0.22311
3283.01598,0.22563
3280.95637,0.22828
3278.89676,0.23101
3276.83715,0.23356
3274.77754,0.23553
3272.71793,0.23651
3270.65833,0.23695
3268.59872,0.23731
3266.53911,0.23738
3264.47950,0.23710
3262.41989,0.23643
3260.36028,0.23540
3258.30068,0.23422
3256.24107,0.23290
3254.18146,0.23145
3252.12185,0.22982
3250.06224,0.22831
3248.00263,0.22703
3245.94302,0.22563
3243.88342,0.22387
3241.82381,0.22190
3239.76420,0.22014
3237.70459,0.21840
3235.64498,0.21654
3233.58537,0.21482
3231.52576,0.21313
3229.46616,0.21184
3227.40655,0.21100
3225.34694,0.20941
3223.28733,0.20730
3221.22772,0.20595
3219.16811,0.20514
3217.10850,0.20384
3215.04890,0.20223
3212.98929,0.20090
3210.92968,0.19957
3208.87007,0.19849
3206.81046,0.19786
3204.75085,0.19695
3202.69125,0.19603
3200.63164,0.19557
3198.57203,0.19493
3196.51242,0.19356
3194.45281,0.19187
3192.39320,0.19068
3190.33359,0.19007
3188.27399,0.18921
3186.21438,0.18786
3184.15477,0.18676
3182.09516,0.18600
3180.03555,0.18502
3177.97594,0.18356
3175.91633,0.18198
3173.85673,0.18086
3171.79712,0.17995
3169.73751,0.17881
3167.67790,0.17727
3165.61829,0.17551
3163.55868,0.17400
3161.49907,0.17283
3159.43947,0.17167
3157.37986,0.17021
3155.32025,0.16876
3153.26064,0.16786
3151.20103,0.16723
3149.14142,0.16618
3147.08182,0.16474
3145.02221,0.16332
3142.96260,0.16213
3140.90299,0.16126
3138.84338,0.16026
3136.78377,0.15864
3134.72416,0.15695
3132.66456,0.15594
3130.60495,0.15535
3128.54534,0.15458
3126.48573,0.15352
3124.42612,0.15264
3122.36651,0.15224
3120.30690,0.15177
3118.24730,0.15097
3116.18769,0.15006
3114.12808,0.14922
3112.06847,0.14853
3110.00886,0.14783
3107.94925,0.14725
3105.88965,0.14703
3103.83004,0.14684
3101.77043,0.14642
3099.71082,0.14613
3097.65121,0.14616
3095.59160,0.14634
3093.53199,0.14624
3091.47239,0.14595
3089.41278,0.14614
3087.35317,0.14661
3085.29356,0.14694
3083.23395,0.14720
3081.17434,0.14747
3079.11473,0.14768
3077.05513,0.14746
3074.99552,0.14708
3072.93591,0.14683
3070.87630,0.14659
3068.81669,0.14667
3066.75708,0.14682
3064.69747,0.14666
3062.63787,0.14636
3060.57826,0.14599
3058.51865,0.14567
3056.45904,0.14529
3054.39943,0.14434
3052.33982,0.14277
3050.28022,0.14133
3048.22061,0.14037
3046.16100,0.13970
3044.10139,0.13912
3042.04178,0.13833
3039.98217,0.13727
3037.92256,0.13624
3035.86296,0.13546
3033.80335,0.13470
3031.74374,0.13386
3029.68413,0.13303
3027.62452,0.13219
3025.56491,0.13132
3023.50530,0.13028
3021.44570,0.12892
3019.38609,0.12766
3017.32648,0.12683
3015.26687,0.12621
3013.20726,0.12571
3011.14765,0.12484
3009.08804,0.12361
3007.02844,0.12275
3004.96883,0.12225
3002.90922,0.12176
3000.84961,0.12170
2998.79000,0.12195
2996.73039,0.12202
2994.67079,0.12224
2992.61118,0.12279
2990.55157,0.12343
2988.49196,0.12406
2986.43235,0.12480
2984.37274,0.12573
2982.31313,0.12674
2980.25353,0.12769
2978.19392,0.12868
2976.13431,0.13001
2974.07470,0.13141
2972.01509,0.13255
2969.95548,0.13373
2967.89587,0.13511
2965.83627,0.13652
2963.77666,0.13770
2961.71705,0.13825
2959.65744,0.13825
2957.59783,0.13800
2955.53822,0.13741
2953.47861,0.13662
2951.41901,0.13615
2949.35940,0.13591
2947.29979,0.13562
2945.24018,0.13551
2943.18057,0.13605
2941.12096,0.13731
2939.06136,0.13911
2937.00175,0.14113
2934.94214,0.14303
2932.88253,0.14466
2930.82292,0.14587
2928.76331,0.14651
2926.70370,0.14685
2924.64410,0.14697
2922.58449,0.14652
2920.52488,0.14579
2918.46527,0.14519
2916.40566,0.14426
2914.34605,0.14211
2912.28644,0.13903
2910.22684,0.13620
2908.16723,0.13417
2906.10762,0.13273
2904.04801,0.13139
2901.98840,0.13003
2899.92879,0.12894
2897.86918,0.12828
2895.80958,0.12769
2893.74997,0.12678
2891.69036,0.12596
2889.63075,0.12553
2887.57114,0.12518
2885.51153,0.12496
2883.45193,0.12518
2881.39232,0.12573
2879.33271,0.12634
2877.27310,0.12691
2875.21349,0.12750
2873.15388,0.12797
2871.09427,0.12801
2869.03467,0.12741
2866.97506,0.12627
2864.91545,0.12497
2862.85584,0.12408
2860.79623,0.12393
2858.73662,0.12405
2856.67701,0.12401
2854.61741,0.12394
2852.55780,0.12405
2850.49819,0.12405
2848.43858,0.12311
2846.37897,0.12102
2844.31936,0.11860
2842.25975,0.11655
2840.20015,0.11478
2838.14054,0.11328
2836.08093,0.11229
2834.02132,0.11168
2831.96171,0.11132
2829.90210,0.11092
2827.84250,0.11020
2825.78289,0.10959
2823.72328,0.10928
2821.66367,0.10893
2819.60406,0.10865
2817.54445,0.10856
2815.48484,0.10836
2813.42524,0.10800
2811.36563,0.10767
2809.30602,0.10739
2807.24641,0.10717
2805.18680,0.10692
2803.12719,0.10658
2801.06758,0.10640
2799.00798,0.10633
2796.94837,0.10613
2794.88876,0.10588
2792.82915,0.10561
2790.76954,0.10524
2788.70993,0.10479
2786.65032,0.10443
2784.59072,0.10410
2782.53111,0.10375
2780.47150,0.10364
2778.41189,0.10372
2776.35228,0.10359
2774.29267,0.10319
2772.23307,0.10285
2770.17346,0.10281
2768.11385,0.10279
2766.05424,0.10247
2763.99463,0.10195
2761.93502,0.10134
2759.87541,0.10077
2757.81581,0.10043
2755.75620,0.10039
2753.69659,0.10045
2751.63698,0.10035
2749.57737,0.10011
2747.51776,0.09983
2745.45815,0.09949
2743.39855,0.09918
2741.33894,0.09906
2739.27933,0.09888
2737.21972,0.09846
2735.16011,0.09807
2733.10050,0.09793
2731.04089,0.09798
2728.98129,0.09786
2726.92168,0.09754
2724.86207,0.09729
2722.80246,0.09704
2720.74285,0.09675
2718.68324,0.09650
2716.62364,0.09613
2714.56403,0.09584
2712.50442,0.09577
2710.44481,0.09567
2708.38520,0.09542
2706.32559,0.09514
2704.26598,0.09480
2702.20638,0.09436
2700.14677,0.09404
2698.08716,0.09391
2696.02755,0.09385
2693.96794,0.09373
2691.90833,0.09342
2689.84872,0.09304
2687.78912,0.09281
2685.72951,0.09269
2683.66990,0.09251
2681.61029,0.09232
2679.55068,0.09218
2677.49107,0.09206
2675.43146,0.09200
2673.37186,0.09196
2671.31225,0.09180
2669.25264,0.09143
2667.19303,0.09104
2665.13342,0.09095
2663.07381,0.09114
2661.01421,0.09121
2658.95460,0.09094
2656.89499,0.09055
2654.83538,0.09028
2652.77577,0.09013
2650.71616,0.08988
2648.65655,0.08940
2646.59695,0.08876
2644.53734,0.08828
2642.47773,0.08813
2640.41812,0.08808
2638.35851,0.08795
2636.29890,0.08758
2634.23929,0.08705
2632.17969,0.08665
2630.12008,0.08651
2628.06047,0.08669
2626.00086,0.08684
2623.94125,0.08661
2621.88164,0.08629
2619.82203,0.08590
2617.76243,0.08521
2615.70282,0.08459
2613.64321,0.08449
2611.58360,0.08473
2609.52399,0.08470
2607.46438,0.08436
2605.40478,0.08407
2603.34517,0.08382
2601.28556,0.08375
2599.22595,0.08375
2597.16634,0.08349
2595.10673,0.08316
2593.04712,0.08280
2590.98752,0.08220
2588.92791,0.08172
2586.86830,0.08149
2584.80869,0.08128
2582.74908,0.08098
2580.68947,0.08071
2578.62986,0.08055
2576.57026,0.08037
2574.51065,0.08025
2572.45104,0.08024
2570.39143,0.08025
2568.33182,0.08004
2566.27221,0.07946
2564.21260,0.07888
2562.15300,0.07840
2560.09339,0.07777
2558.03378,0.07756
2555.97417,0.07818
2553.91456,0.07897
2551.85495,0.07899
2549.79535,0.07820
2547.73574,0.07752
2545.67613,0.07744
2543.61652,0.07733
2541.55691,0.07673
2539.49730,0.07642
2537.43769,0.07690
2535.37809,0.07741
2533.31848,0.07733
2531.25887,0.07693
2529.19926,0.07654
2527.13965,0.07630
2525.08004,0.07626
2523.02043,0.07617
2520.96083,0.07601
2518.90122,0.07604
2516.84161,0.07605
2514.78200,0.07579
2512.72239,0.07538
2510.66278,0.07511
2508.60317,0.07506
2506.54357,0.07515
2504.48396,0.07522
2502.42435,0.07526
2500.36474,0.07511
2498.30513,0.07476
2496.24552,0.07459
2494.18592,0.07462
2492.12631,0.07450
2490.06670,0.07422
2488.00709,0.07413
2485.94748,0.07418
2483.88787,0.07419
2481.82826,0.07429
2479.76866,0.07439
2477.70905,0.07410
2475.64944,0.07357
2473.58983,0.07321
2471.53022,0.07311
2469.47061,0.07297
2467.41100,0.07252
2465.35140,0.07216
2463.29179,0.07222
2461.23218,0.07248
2459.17257,0.07239
2457.11296,0.07194
2455.05335,0.07187
2452.99374,0.07210
2450.93414,0.07208
2448.87453,0.07197
2446.81492,0.07199
2444.75531,0.07209
2442.69570,0.07205
2440.63609,0.07166
2438.57649,0.07133
2436.51688,0.07142
2434.45727,0.07165
2432.39766,0.07176
2430.33805,0.07157
2428.27844,0.07122
2426.21883,0.07123
2424.15923,0.07168
2422.09962,0.07179
2420.04001,0.07120
2417.98040,0.07071
2415.92079,0.07058
2413.86118,0.07022
2411.80157,0.06985
2409.74197,0.06995
2407.68236,0.07008
2405.62275,0.06993
2403.56314,0.06975
2401.50353,0.06972
2399.44392,0.06980
2397.38431,0.07000
2395.32471,0.07010
2393.26510,0.06976
2391.20549,0.06928
2389.14588,0.06913
2387.08627,0.06902
2385.02666,0.06878
2382.96706,0.06863
2380.90745,0.06870
2378.84784,0.06889
2376.78823,0.06886
2374.72862,0.06868
2372.66901,0.06868
2370.60940,0.06857
2368.54980,0.06841
2366.49019,0.06889
2364.43058,0.06922
2362.37097,0.06881
2360.31136,0.06856
2358.25175,0.06881
2356.19214,0.06925
2354.13254,0.06963
2352.07293,0.06986
2350.01332,0.06972
2347.95371,0.06909
2345.89410,0.06867
2343.83449,0.06908
2341.77488,0.06923
2339.71528,0.06881
2337.65567,0.06871
2335.59606,0.06870
2333.53645,0.06861
2331.47684,0.06854
2329.41723,0.06855
2327.35763,0.06924
2325.29802,0.06996
2323.23841,0.06955
2321.17880,0.06880
2319.11919,0.06852
2317.05958,0.06814
2314.99997,0.06740
2312.94037,0.06661
2310.88076,0.06613
2308.82115,0.06590
2306.76154,0.06556
2304.70193,0.06531
2302.64232,0.06554
2300.58271,0.06588
2298.52311,0.06575
2296.46350,0.06514
2294.40389,0.06462
2292.34428,0.06452
2290.28467,0.06451
2288.22506,0.06464
2286.16545,0.06478
2284.10585,0.06428
2282.04624,0.06325
2279.98663,0.06245
2277.92702,0.06200
2275.86741,0.06179
2273.80780,0.06178
2271.74820,0.06140
2269.68859,0.06080
2267.62898,0.06046
2265.56937,0.06006
2263.50976,0.05934
2261.45015,0.05880
2259.39054,0.05862
2257.33094,0.05825
2255.27133,0.05774
2253.21172,0.05781
2251.15211,0.05816
2249.09250,0.05812
2247.03289,0.05795
2244.97328,0.05756
2242.91368,0.05667
2240.85407,0.05589
2238.79446,0.05547
2236.73485,0.05564
2234.67524,0.05645
2232.61563,0.05674
2230.55602,0.05597
2228.49642,0.05523
2226.43681,0.05506
2224.37720,0.05491
2222.31759,0.05449
2220.25798,0.05402
2218.19837,0.05381
2216.13877,0.05375
2214.07916,0.05329
2212.01955,0.05255
2209.95994,0.05211
2207.90033,0.05190
2205.84072,0.05143
2203.78111,0.05102
2201.72151,0.05169
2199.66190,0.05252
2197.60229,0.05173
2195.54268,0.05016
2193.48307,0.04968
2191.42346,0.05067
2189.36385,0.05154
2187.30425,0.05084
2185.24464,0.04971
2183.18503,0.04895
2181.12542,0.04788
2179.06581,0.04715
2177.00620,0.04732
2174.94659,0.04808
2172.88699,0.04863
2170.82738,0.04861
2168.76777,0.04891
2166.70816,0.04875
2164.64855,0.04694
2162.58894,0.04453
2160.52934,0.04258
2158.46973,0.04143
2156.41012,0.04128
2154.35051,0.04209
2152.29090,0.04321
2150.23129,0.04386
2148.17168,0.04458
2146.11208,0.04585
2144.05247,0.04667
2141.99286,0.04683
2139.93325,0.04725
2137.87364,0.04753
2135.81403,0.04722
2133.75442,0.04710
2131.69482,0.04795
2129.63521,0.04950
2127.57560,0.05038
2125.51599,0.05020
2123.45638,0.04977
2121.39677,0.04976
2119.33716,0.05055
2117.27756,0.05189
2115.21795,0.05243
2113.15834,0.05167
2111.09873,0.05103
2109.03912,0.05138
2106.97951,0.05185
2104.91991,0.05160
2102.86030,0.05098
2100.80069,0.05046
2098.74108,0.05008
2096.68147,0.04974
2094.62186,0.04951
2092.56225,0.04940
2090.50265,0.04930
2088.44304,0.04925
2086.38343,0.04934
2084.32382,0.04955
2082.26421,0.04948
2080.20460,0.04904
2078.14499,0.04895
2076.08539,0.04912
2074.02578,0.04891
2071.96617,0.04870
2069.90656,0.04850
2067.84695,0.04802
2065.78734,0.04770
2063.72773,0.04741
2061.66813,0.04662
2059.60852,0.04565
2057.54891,0.04522
2055.48930,0.04519
2053.42969,0.04518
2051.37008,0.04508
2049.31048,0.04419
2047.25087,0.04257
2045.19126,0.04175
2043.13165,0.04243
2041.07204,0.04282
2039.01243,0.04171
2036.95282,0.04061
2034.89322,0.04009
2032.83361,0.03916
2030.77400,0.03825
2028.71439,0.03845
2026.65478,0.03989
2024.59517,0.04076
2022.53556,0.03952
2020.47596,0.03794
2018.41635,0.03773
2016.35674,0.03795
2014.29713,0.03806
2012.23752,0.03837
2010.17791,0.03825
2008.11830,0.03768
2006.05870,0.03753
2003.99909,0.03797
2001.93948,0.03865
1999.87987,0.03906
1997.82026,0.03924
1995.76065,0.03942
1993.70105,0.03930
1991.64144,0.03886
1989.58183,0.03807
1987.52222,0.03734
1985.46261,0.03752
1983.40300,0.03818
1981.34339,0.03865
1979.28379,0.03831
1977.22418,0.03659
1975.16457,0.03479
1973.10496,0.03407
1971.04535,0.03413
1968.98574,0.03451
1966.92613,0.03538
1964.86653,0.03659
1962.80692,0.03700
1960.74731,0.03633
1958.68770,0.03551
1956.62809,0.03522
1954.56848,0.03597
1952.50887,0.03759
1950.44927,0.03858
1948.38966,0.03862
1946.33005,0.03881
1944.27044,0.03912
1942.21083,0.03911
1940.15122,0.03889
1938.09162,0.03889
1936.03201,0.03937
1933.97240,0.03969
1931.91279,0.03948
1929.85318,0.03922
1927.79357,0.03898
1925.73396,0.03901
1923.67436,0.03944
1921.61475,0.03970
1919.55514,0.03942
1917.49553,0.03916
1915.43592,0.03937
1913.37631,0.03973
1911.31670,0.03975
1909.25710,0.03941
1907.19749,0.03909
1905.13788,0.03916
1903.07827,0.03953
1901.01866,0.03959
1898.95905,0.03937
1896.89944,0.03903
1894.83984,0.03871
1892.78023,0.03867
1890.72062,0.03863
1888.66101,0.03835
1886.60140,0.03813
1884.54179,0.03818
1882.48219,0.03827
1880.42258,0.03812
1878.36297,0.03780
1876.30336,0.03737
1874.24375,0.03700
1872.18414,0.03694
1870.12453,0.03695
1868.06493,0.03703
1866.00532,0.03714
1863.94571,0.03691
1861.88610,0.03653
1859.82649,0.03638
1857.76688,0.03625
1855.70727,0.03600
1853.64767,0.03613
1851.58806,0.03658
1849.52845,0.03653
1847.46884,0.03585
1845.40923,0.03526
1843.34962,0.03503
1841.29002,0.03490
1839.23041,0.03486
1837.17080,0.03502
1835.11119,0.03531
1833.05158,0.03539
1830.99197,0.03507
1828.93236,0.03458
1826.87276,0.03426
1824.81315,0.03428
1822.75354,0.03435
1820.69393,0.03406
1818.63432,0.03357
1816.57471,0.03321
1814.51510,0.03311
1812.45550,0.03322
1810.39589,0.03332
1808.33628,0.03317
1806.27667,0.03294
1804.21706,0.03277
1802.15745,0.03253
1800.09784,0.03226
1798.03824,0.03195
1795.97863,0.03161
1793.91902,0.03146
1791.85941,0.03147
1789.79980,0.03137
1787.74019,0.03112
1785.68059,0.03091
1783.62098,0.03070
1781.56137,0.03037
1779.50176,0.03005
1777.44215,0.02980
1775.38254,0.02953
1773.32293,0.02939
1771.26333,0.02930
1769.20372,0.02906
1767.14411,0.02874
1765.08450,0.02840
1763.02489,0.02823
1760.96528,0.02840
1758.90567,0.02841
1756.84607,0.02820
1754.78646,0.02820
1752.72685,0.02843
1750.66724,0.02873
1748.60763,0.02889
1746.54802,0.02889
1744.48841,0.02879
1742.42881,0.02855
1740.36920,0.02820
1738.30959,0.02775
1736.24998,0.02711
1734.19037,0.02653
1732.13076,0.02644
1730.07116,0.02635
1728.01155,0.02604
1725.95194,0.02565
1723.89233,0.02533
1721.83272,0.02519
1719.77311,0.02521
1717.71350,0.02536
1715.65390,0.02595
1713.59429,0.02697
1711.53468,0.02828
1709.47507,0.03006
1707.41546,0.03287
1705.35585,0.03750
1703.29624,0.04313
1701.23664,0.05055
1699.17703,0.05977
1697.11742,0.06603
1695.05781,0.07010
1692.99820,0.07304
1690.93859,0.07541
1688.87898,0.07826
1686.81938,0.08139
1684.75977,0.08596
1682.70016,0.09172
1680.64055,0.09602
1678.58094,0.09971
1676.52133,0.10397
1674.46173,0.10906
1672.40212,0.11390
1670.34251,0.11906
1668.28290,0.12485
1666.22329,0.12938
1664.16368,0.13361
1662.10407,0.13877
1660.04447,0.14349
1657.98486,0.14701
1655.92525,0.14984
1653.86564,0.15409
1651.80603,0.15967
1649.74642,0.16217
1647.68681,0.16415
1645.62721,0.16742
1643.56760,0.17020
1641.50799,0.17242
1639.44838,0.17461
1637.38877,0.17734
1635.32916,0.18198
1633.26955,0.18662
1631.20995,0.19025
1629.15034,0.19483
1627.09073,0.20049
1625.03112,0.20638
1622.97151,0.21297
1620.91190,0.21887
1618.85230,0.22309
1616.79269,0.22721
1614.73308,0.23001
1612.67347,0.22968
1610.61386,0.22699
1608.55425,0.22251
1606.49464,0.21639
1604.43504,0.20897
1602.37543,0.20079
1600.31582,0.19228
1598.25621,0.18365
1596.19660,0.17493
1594.13699,0.16640
1592.07738,0.15842
1590.01778,0.15096
1587.95817,0.14409
1585.89856,0.13796
1583.83895,0.13262
1581.77934,0.12808
1579.71973,0.12423
1577.66012,0.12096
1575.60052,0.11839
1573.54091,0.11693
1571.48130,0.11626
1569.42169,0.11659
1567.36208,0.11789
1565.30247,0.11978
1563.24287,0.12188
1561.18326,0.12407
1559.12365,0.12825
1557.06404,0.13351
1555.00443,0.13720
1552.94482,0.14068
1550.88521,0.14421
1548.82561,0.14789
1546.76600,0.15145
1544.70639,0.15491
1542.64678,0.15856
1540.58717,0.16314
1538.52756,0.16798
1536.46795,0.17081
1534.40835,0.17353
1532.34874,0.17729
1530.28913,0.18051
1528.22952,0.18341
1526.16991,0.18678
1524.11030,0.18978
1522.05069,0.19272
1519.99109,0.19596
1517.93148,0.19869
1515.87187,0.20101
1513.81226,0.20243
1511.75265,0.20260
1509.69304,0.20169
1507.63344,0.19991
1505.57383,0.19761
1503.51422,0.19476
1501.45461,0.19125
1499.39500,0.18727
1497.33539,0.18292
1495.27578,0.17808
1493.21618,0.17299
1491.15657,0.16723
1489.09696,0.16053
1487.03735,0.15418
1484.97774,0.14860
1482.91813,0.14341
1480.85852,0.13859
1478.79892,0.13454
1476.73931,0.13141
1474.67970,0.12932
1472.62009,0.12830
1470.56048,0.12771
1468.50087,0.12698
1466.44126,0.12620
1464.38166,0.12555
1462.32205,0.12498
1460.26244,0.12462
1458.20283,0.12533
1456.14322,0.12769
1454.08361,0.12963
1452.02401,0.13058
1449.96440,0.13109
1447.90479,0.13139
1445.84518,0.13125
1443.78557,0.13033
1441.72596,0.12881
1439.66635,0.12693
1437.60675,0.12478
1435.54714,0.12250
1433.48753,0.12040
1431.42792,0.11835
1429.36831,0.11642
1427.30870,0.11498
1425.24909,0.11416
1423.18949,0.11381
1421.12988,0.11373
1419.07027,0.11423
1417.01066,0.11513
1414.95105,0.11580
1412.89144,0.11644
1410.83183,0.11711
1408.77223,0.11748
1406.71262,0.11750
1404.65301,0.11740
1402.59340,0.11712
1400.53379,0.11654
1398.47418,0.11585
1396.41458,0.11519
1394.35497,0.11481
1392.29536,0.11475
1390.23575,0.11476
1388.17614,0.11477
1386.11653,0.11457
1384.05692,0.11390
1381.99732,0.11306
1379.93771,0.11229
1377.87810,0.11166
1375.81849,0.11124
1373.75888,0.11110
1371.69927,0.11109
1369.63966,0.11099
1367.58006,0.11046
1365.52045,0.10940
1363.46084,0.10808
1361.40123,0.10676
1359.34162,0.10562
1357.28201,0.10466
1355.22240,0.10375
1353.16280,0.10288
1351.10319,0.10220
1349.04358,0.10178
1346.98397,0.10149
1344.92436,0.10132
1342.86475,0.10131
1340.80515,0.10129
1338.74554,0.10123
1336.68593,0.10116
1334.62632,0.10100
1332.56671,0.10069
1330.50710,0.10033
1328.44749,0.09999
1326.38789,0.09958
1324.32828,0.09911
1322.26867,0.09874
1320.20906,0.09843
1318.14945,0.09805
1316.08984,0.09760
1314.03023,0.09718
1311.97063,0.09689
1309.91102,0.09659
1307.85141,0.09609
1305.79180,0.09559
1303.73219,0.09521
1301.67258,0.09478
1299.61297,0.09430
1297.55337,0.09393
1295.49376,0.09363
1293.43415,0.09331
1291.37454,0.09303
1289.31493,0.09284
1287.25532,0.09274
1285.19572,0.09268
1283.13611,0.09259
1281.07650,0.09241
1279.01689,0.09209
1276.95728,0.09170
1274.89767,0.09137
1272.83806,0.09114
1270.77846,0.09106
1268.71885,0.09111
1266.65924,0.09118
1264.59963,0.09135
1262.54002,0.09177
1260.48041,0.09245
1258.42080,0.09332
1256.36120,0.09428
1254.30159,0.09530
1252.24198,0.09644
1250.18237,0.09768
1248.12276,0.09894
1246.06315,0.10008
1244.00354,0.10106
1241.94394,0.10196
1239.88433,0.10275
1237.82472,0.10334
1235.76511,0.10378
1233.70550,0.10409
1231.64589,0.10423
1229.58629,0.10421
1227.52668,0.10405
1225.46707,0.10373
1223.40746,0.10325
1221.34785,0.10261
1219.28824,0.10178
1217.22863,0.10081
1215.16903,0.09979
1213.10942,0.09865
1211.04981,0.09735
1208.99020,0.09590
1206.93059,0.09436
1204.87098,0.09277
1202.81137,0.09119
1200.75177,0.08968
1198.69216,0.08827
1196.63255,0.08698
1194.57294,0.08580
1192.51333,0.08476
1190.45372,0.08382
1188.39411,0.08289
1186.33451,0.08199
1184.27490,0.08126
1182.21529,0.08078
1180.15568,0.08052
1178.09607,0.08055
1176.03646,0.08088
1173.97686,0.08153
1171.91725,0.08237
1169.85764,0.08319
1167.79803,0.08382
1165.73842,0.08433
1163.67881,0.08471
1161.61920,0.08484
1159.55960,0.08461
1157.49999,0.08411
1155.44038,0.08351
1153.38077,0.08286
1151.32116,0.08206
1149.26155,0.08095
1147.20194,0.07963
1145.14234,0.07841
1143.08273,0.07734
1141.02312,0.07642
1138.96351,0.07559
1136.90390,0.07476
1134.84429,0.07413
1132.78468,0.07376
1130.72508,0.07336
1128.66547,0.07282
1126.60586,0.07240
1124.54625,0.07209
1122.48664,0.07176
1120.42703,0.07146
1118.36743,0.07120
1116.30782,0.07087
1114.24821,0.07044
1112.18860,0.06998
1110.12899,0.06958
1108.06938,0.06933
1106.00977,0.06920
1103.95017,0.06913
1101.89056,0.06909
1099.83095,0.06899
1097.77134,0.06894
1095.71173,0.06902
1093.65212,0.06922
1091.59251,0.06971
1089.53291,0.07048
1087.47330,0.07154
1085.41369,0.07293
1083.35408,0.07451
1081.29447,0.07615
1079.23486,0.07791
1077.17525,0.07979
1075.11565,0.08165
1073.05604,0.08332
1070.99643,0.08484
1068.93682,0.08639
1066.87721,0.08801
1064.81760,0.08927
1062.75800,0.08991
1060.69839,0.09014
1058.63878,0.09008
1056.57917,0.08958
1054.51956,0.08876
1052.45995,0.08792
1050.40034,0.08708
1048.34074,0.08617
1046.28113,0.08524
1044.22152,0.08430
1042.16191,0.08325
1040.10230,0.08219
1038.04269,0.08129
1035.98308,0.08056
1033.92348,0.07986
1031.86387,0.07911
1029.80426,0.07824
1027.74465,0.07709
1025.68504,0.07563
1023.62543,0.07408
1021.56582,0.07264
1019.50622,0.07130
1017.44661,0.06995
1015.38700,0.06857
1013.32739,0.06723
1011.26778,0.06610
1009.20817,0.06520
1007.14857,0.06435
1005.08896,0.06338
1003.02935,0.06235
1000.96974,0.06142
998.91013,0.06058
996.85052,0.05978
994.79091,0.05902
992.73131,0.05831
990.67170,0.05773
988.61209,0.05723
986.55248,0.05665
984.49287,0.05603
982.43326,0.05548
980.37365,0.05501
978.31405,0.05455
976.25444,0.05419
974.19483,0.05398
972.13522,0.05384
970.07561,0.05378
968.01600,0.05386
965.95639,0.05412
963.89679,0.05445
961.83718,0.05472
959.77757,0.05477
957.71796,0.05452
955.65835,0.05408
953.59874,0.05363
951.53914,0.05319
949.47953,0.05270
947.41992,0.05237
945.36031,0.05224
943.30070,0.05206
941.24109,0.05183
939.18148,0.05160
937.12188,0.05130
935.06227,0.05105
933.00266,0.05097
930.94305,0.05092
928.88344,0.05072
926.82383,0.05034
924.76422,0.04989
922.70462,0.04940
920.64501,0.04885
918.58540,0.04840
916.52579,0.04813
914.46618,0.04792
912.40657,0.04780
910.34696,0.04775
908.28736,0.04767
906.22775,0.04756
904.16814,0.04746
902.10853,0.04736
900.04892,0.04716
897.98931,0.04684
895.92971,0.04651
893.87010,0.04606
891.81049,0.04546
889.75088,0.04486
887.69127,0.04430
885.63166,0.04388
883.57205,0.04354
881.51245,0.04313
879.45284,0.04278
877.39323,0.04255
875.33362,0.04238
873.27401,0.04224
871.21440,0.04201
869.15479,0.04165
867.09519,0.04130
865.03558,0.04092
862.97597,0.04045
860.91636,0.03995
858.85675,0.03948
856.79714,0.03911
854.73753,0.03893
852.67793,0.03880
850.61832,0.03857
848.55871,0.03829
846.49910,0.03808
844.43949,0.03791
842.37988,0.03765
840.32028,0.03741
838.26067,0.03734
836.20106,0.03742
834.14145,0.03759
832.08184,0.03776
830.02223,0.03786
827.96262,0.03795
825.90302,0.03809
823.84341,0.03819
821.78380,0.03831
819.72419,0.03853
817.66458,0.03866
815.60497,0.03862
813.54536,0.03865
811.48576,0.03882
809.42615,0.03903
807.36654,0.03924
805.30693,0.03936
803.24732,0.03938
801.18771,0.03930
799.12810,0.03918
797.06850,0.03916
795.00889,0.03920
792.94928,0.03933
790.88967,0.03963
788.83006,0.03989
786.77045,0.03996
784.71085,0.04016
782.65124,0.04052
780.59163,0.04092
778.53202,0.04140
776.47241,0.04181
774.41280,0.04203
772.35319,0.04225
770.29359,0.04255
768.23398,0.04280
766.17437,0.04300
764.11476,0.04322
762.05515,0.04342
759.99554,0.04354
757.93593,0.04355
755.87633,0.04353
753.81672,0.04365
751.75711,0.04406
749.69750,0.04458
747.63789,0.04496
745.57828,0.04517
743.51867,0.04520
741.45907,0.04506
739.39946,0.04484
737.33985,0.04479
735.28024,0.04492
733.22063,0.04505
731.16102,0.04528
729.10142,0.04578
727.04181,0.04651
724.98220,0.04733
722.92259,0.04815
720.86298,0.04903
718.80337,0.05010
716.74376,0.05130
714.68416,0.05252
712.62455,0.05367
710.56494,0.05480
708.50533,0.05613
706.44572,0.05778
704.38611,0.05962
702.32650,0.06131
700.26690,0.06260
698.20729,0.06349
696.14768,0.06398
694.08807,0.06405
692.02846,0.06390
689.96885,0.06387
687.90924,0.06405
685.84964,0.06431
683.79003,0.06446
681.73042,0.06448
679.67081,0.06453
677.61120,0.06460
675.55159,0.06467
673.49199,0.06476
671.43238,0.06479
669.37277,0.06488
667.31316,0.06507
665.25355,0.06508
663.19394,0.06505
661.13433,0.06509
659.07473,0.06521
657.01512,0.06544
654.95551,0.06568
652.89590,0.06581
650.83629,0.06590
648.77668,0.06627
646.71707,0.06696
644.65747,0.06755
642.59786,0.06781
640.53825,0.06790
638.47864,0.06814
636.41903,0.06873
634.35942,0.06938
632.29981,0.06963
630.24021,0.06955
628.18060,0.06959
626.12099,0.06999
624.06138,0.07040
622.00177,0.07044
619.94216,0.07029
617.88256,0.07016
615.82295,0.06997
613.76334,0.06980
611.70373,0.06955
609.64412,0.06912
607.58451,0.06879
605.52490,0.06874
603.46530,0.06876
601.40569,0.06867
599.34608,0.06847
597.28647,0.06831
595.22686,0.06811
593.16725,0.06787
591.10764,0.06781
589.04804,0.06781
586.98843,0.06765
584.92882,0.06761
582.86921,0.06792
580.80960,0.06811
578.74999,0.06789
576.69039,0.06774
574.63078,0.06768
572.57117,0.06749
570.51156,0.06749
568.45195,0.06778
566.39234,0.06809
564.33273,0.06832
562.27313,0.06847
560.21352,0.06832
558.15391,0.06811
556.09430,0.06807
554.03469,0.06799
551.97508,0.06779
549.91547,0.06760
547.85587,0.06756
545.79626,0.06757
543.73665,0.06739
541.67704,0.06722
539.61743,0.06733
537.55782,0.06753
535.49821,0.06757
533.43861,0.06750
531.37900,0.06746
529.31939,0.06744
527.25978,0.06741
525.20017,0.06735
523.14056,0.06713
521.08096,0.06671
519.02135,0.06634
516.96174,0.06622
514.90213,0.06617
512.84252,0.06604
510.78291,0.06580
508.72330,0.06534
506.66370,0.06488
504.60409,0.06482
502.54448,0.06482
500.48487,0.06446
498.42526,0.06399
496.36565,0.06358
494.30604,0.06326
492.24644,0.06321
490.18683,0.06312
488.12722,0.06280
486.06761,0.06261
484.00800,0.06250
481.94839,0.06219
479.88878,0.06194
477.82918,0.06194
475.76957,0.06181
473.70996,0.06140
471.65035,0.06106
469.59074,0.06085
467.53113,0.06046
465.47153,0.05990
463.41192,0.05961
461.35231,0.05945
459.29270,0.05920
457.23309,0.05904
455.17348,0.05885
453.11387,0.05856
451.05427,0.05871
448.99466,0.05919
446.93505,0.05908
444.87544,0.05835
442.81583,0.05762
440.75622,0.05698
438.69661,0.05625
436.63701,0.05561
434.57740,0.05513
432.51779,0.05445
430.45818,0.05371
428.39857,0.05314
426.33896,0.05254
424.27935,0.05184
422.21975,0.05137
420.16014,0.05113
418.10053,0.05094
416.04092,0.05047
413.98131,0.04960
411.92170,0.04891
409.86210,0.04842
407.80249,0.04738
405.74288,0.04610
403.68327,0.04547
401.62366,0.04534
399.56405,0.04550
