3997.65486	0.11613
3995.59527	0.11586
3993.53569	0.11553
3991.47610	0.11546
3989.41652	0.11565
3987.35693	0.11575
3985.29735	0.11523
3983.23776	0.11433
3981.17817	0.11370
3979.11859	0.11349
3977.05900	0.11348
3974.99942	0.11359
3972.93983	0.11401
3970.88025	0.11463
3968.82066	0.11478
3966.76108	0.11427
3964.70149	0.11358
3962.64191	0.11329
3960.58232	0.11345
3958.52274	0.11365
3956.46315	0.11381
3954.40357	0.11415
3952.34398	0.11460
3950.28440	0.11468
3948.22481	0.11430
3946.16523	0.11397
3944.10564	0.11375
3942.04606	0.11344
3939.98647	0.11307
3937.92689	0.11254
3935.86730	0.11205
3933.80772	0.11191
3931.74813	0.11194
3929.68855	0.11199
3927.62896	0.11226
3925.56937	0.11261
3923.50979	0.11243
3921.45020	0.11181
3919.39062	0.11172
3917.33103	0.11229
3915.27145	0.11259
3913.21186	0.11225
3911.15228	0.11180
3909.09269	0.11159
3907.03311	0.11133
3904.97352	0.11115
3902.91394	0.11154
3900.85435	0.11230
3898.79477	0.11265
3896.73518	0.11213
3894.67560	0.11101
3892.61601	0.11023
3890.55643	0.11021
3888.49684	0.11025
3886.43726	0.10993
3884.37767	0.10935
3882.31809	0.10868
3880.25850	0.10849
3878.19892	0.10886
3876.13933	0.10912
3874.07974	0.10913
3872.02016	0.10915
3869.96057	0.10907
3867.90099	0.10887
3865.84140	0.10906
3863.78182	0.10937
3861.72223	0.10904
3859.66265	0.10845
3857.60306	0.10827
3855.54348	0.10821
3853.48389	0.10805
3851.42431	0.10789
3849.36472	0.10760
3847.30514	0.10706
3845.24555	0.10639
3843.18597	0.10629
3841.12638	0.10697
3839.06680	0.10707
3837.00721	0.10623
3834.94763	0.10565
3832.88804	0.10549
3830.82846	0.10537
3828.76887	0.10520
3826.70929	0.10520
3824.64970	0.10550
3822.59012	0.10589
3820.53053	0.10605
3818.47094	0.10576
3816.41136	0.10543
3814.35177	0.10539
3812.29219	0.10517
3810.23260	0.10451
3808.17302	0.10401
3806.11343	0.10371
3804.05385	0.10288
3801.99426	0.10210
3799.93468	0.10260
3797.87509	0.10363
3795.81551	0.10404
3793.75592	0.10396
3791.69634	0.10394
3789.63675	0.10403
3787.57717	0.10393
3785.51758	0.10358
3783.45800	0.10307
3781.39841	0.10267
3779.33883	0.10243
3777.27924	0.10197
3775.21966	0.10137
3773.16007	0.10127
3771.10049	0.10178
3769.04090	0.10195
3766.98132	0.10147
3764.92173	0.10121
3762.86214	0.10146
3760.80256	0.10181
3758.74297	0.10177
3756.68339	0.10101
3754.62380	0.10000
3752.56422	0.09961
3750.50463	0.09950
3748.44505	0.09887
3746.38546	0.09852
3744.32588	0.09898
3742.26629	0.09926
3740.20671	0.09871
3738.14712	0.09798
3736.08754	0.09802
3734.02795	0.09861
3731.96837	0.09846
3729.90878	0.09736
3727.84920	0.09633
3725.78961	0.09624
3723.73003	0.09695
3721.67044	0.09746
3719.61086	0.09720
3717.55127	0.09669
3715.49169	0.09645
3713.43210	0.09663
3711.37251	0.09715
3709.31293	0.09693
3707.25334	0.09565
3705.19376	0.09436
3703.13417	0.09429
3701.07459	0.09513
3699.01500	0.09541
3696.95542	0.09501
3694.89583	0.09462
3692.83625	0.09433
3690.77666	0.09443
3688.71708	0.09501
3686.65749	0.09519
3684.59791	0.09464
3682.53832	0.09415
3680.47874	0.09428
3678.41915	0.09469
3676.35957	0.09477
3674.29998	0.09446
3672.24040	0.09394
3670.18081	0.09355
3668.12123	0.09362
3666.06164	0.09378
3664.00206	0.09386
3661.94247	0.09408
3659.88289	0.09460
3657.82330	0.09543
3655.76371	0.09641
3653.70413	0.09731
3651.64454	0.09859
3649.58496	0.10014
3647.52537	0.10043
3645.46579	0.09978
3643.40620	0.09952
3641.34662	0.09965
3639.28703	0.09965
3637.22745	0.09946
3635.16786	0.09959
3633.10828	0.10003
3631.04869	0.10026
3628.98911	0.10091
3626.92952	0.10232
3624.86994	0.10301
3622.81035	0.10315
3620.75077	0.10409
3618.69118	0.10513
3616.63160	0.10466
3614.57201	0.10379
3612.51243	0.10403
3610.45284	0.10519
3608.39326	0.10678
3606.33367	0.10818
3604.27408	0.10885
3602.21450	0.10920
3600.15491	0.10982
3598.09533	0.11060
3596.03574	0.11117
3593.97616	0.11133
3591.91657	0.11160
3589.85699	0.11258
3587.79740	0.11412
3585.73782	0.11516
3583.67823	0.11557
3581.61865	0.11621
3579.55906	0.11711
3577.49948	0.11774
3575.43989	0.11824
3573.38031	0.11888
3571.32072	0.11944
3569.26114	0.12001
3567.20155	0.12108
3565.14197	0.12227
3563.08238	0.12306
3561.02280	0.12392
3558.96321	0.12491
3556.90363	0.12567
3554.84404	0.12615
3552.78446	0.12649
3550.72487	0.12681
3548.66528	0.12735
3546.60570	0.12828
3544.54611	0.12958
3542.48653	0.13116
3540.42694	0.13269
3538.36736	0.13379
3536.30777	0.13449
3534.24819	0.13498
3532.18860	0.13526
3530.12902	0.13549
3528.06943	0.13626
3526.00985	0.13788
3523.95026	0.13962
3521.89068	0.14044
3519.83109	0.14052
3517.77151	0.14093
3515.71192	0.14189
3513.65234	0.14289
3511.59275	0.14403
3509.53317	0.14563
3507.47358	0.14701
3505.41400	0.14756
3503.35441	0.14804
3501.29483	0.14916
3499.23524	0.15017
3497.17565	0.15033
3495.11607	0.15009
3493.05648	0.15013
3490.99690	0.15078
3488.93731	0.15194
3486.87773	0.15327
3484.81814	0.15467
3482.75856	0.15604
3480.69897	0.15725
3478.63939	0.15822
3476.57980	0.15876
3474.52022	0.15901
3472.46063	0.15955
3470.40105	0.16035
3468.34146	0.16131
3466.28188	0.16268
3464.22229	0.16402
3462.16271	0.16462
3460.10312	0.16471
3458.04354	0.16515
3455.98395	0.16598
3453.92437	0.16688
3451.86478	0.16778
3449.80520	0.16892
3447.74561	0.17035
3445.68603	0.17151
3443.62644	0.17258
3441.56685	0.17371
3439.50727	0.17431
3437.44768	0.17461
3435.38810	0.17500
3433.32851	0.17540
3431.26893	0.17605
3429.20934	0.17688
3427.14976	0.17738
3425.09017	0.17768
3423.03059	0.17844
3420.97100	0.17968
3418.91142	0.18073
3416.85183	0.18158
3414.79225	0.18289
3412.73266	0.18420
3410.67308	0.18472
3408.61349	0.18501
3406.55391	0.18539
3404.49432	0.18565
3402.43474	0.18622
3400.37515	0.18718
3398.31557	0.18814
3396.25598	0.18907
3394.19640	0.18975
3392.13681	0.19035
3390.07723	0.19111
3388.01764	0.19172
3385.95805	0.19203
3383.89847	0.19233
3381.83888	0.19304
3379.77930	0.19409
3377.71971	0.19481
3375.66013	0.19529
3373.60054	0.19642
3371.54096	0.19765
3369.48137	0.19820
3367.42179	0.19887
3365.36220	0.20018
3363.30262	0.20164
3361.24303	0.20290
3359.18345	0.20396
3357.12386	0.20486
3355.06428	0.20583
3353.00469	0.20711
3350.94511	0.20861
3348.88552	0.21021
3346.82594	0.21183
3344.76635	0.21310
3342.70677	0.21396
3340.64718	0.21513
3338.58760	0.21701
3336.52801	0.21911
3334.46842	0.22094
3332.40884	0.22251
3330.34925	0.22402
3328.28967	0.22563
3326.23008	0.22757
3324.17050	0.22971
3322.11091	0.23189
3320.05133	0.23433
3317.99174	0.23677
3315.93216	0.23871
3313.87257	0.24064
3311.81299	0.24305
3309.75340	0.24601
3307.69382	0.24948
3305.63423	0.25280
3303.57465	0.25548
3301.51506	0.25798
3299.45548	0.26067
3297.39589	0.26375
3295.33631	0.26739
3293.27672	0.27090
3291.21714	0.27364
3289.15755	0.27623
3287.09797	0.27935
3285.03838	0.28237
3282.97880	0.28453
3280.91921	0.28632
3278.85962	0.28818
3276.80004	0.28993
3274.74045	0.29144
3272.68087	0.29259
3270.62128	0.29325
3268.56170	0.29358
3266.50211	0.29367
3264.44253	0.29304
3262.38294	0.29156
3260.32336	0.29012
3258.26377	0.28927
3256.20419	0.28839
3254.14460	0.28689
3252.08502	0.28523
3250.02543	0.28378
3247.96585	0.28205
3245.90626	0.27993
3243.84668	0.27799
3241.78709	0.27636
3239.72751	0.27479
3237.66792	0.27298
3235.60834	0.27106
3233.54875	0.26948
3231.48917	0.26801
3229.42958	0.26652
3227.36999	0.26533
3225.31041	0.26415
3223.25082	0.26273
3221.19124	0.26162
3219.13165	0.26104
3217.07207	0.26018
3215.01248	0.25879
3212.95290	0.25723
3210.89331	0.25580
3208.83373	0.25485
3206.77414	0.25421
3204.71456	0.25349
3202.65497	0.25270
3200.59539	0.25177
3198.53580	0.25056
3196.47622	0.24934
3194.41663	0.24827
3192.35705	0.24712
3190.29746	0.24572
3188.23788	0.24422
3186.17829	0.24289
3184.11871	0.24141
3182.05912	0.23961
3179.99954	0.23806
3177.93995	0.23695
3175.88037	0.23588
3173.82078	0.23456
3171.76119	0.23305
3169.70161	0.23132
3167.64202	0.22940
3165.58244	0.22772
3163.52285	0.22638
3161.46327	0.22478
3159.40368	0.22289
3157.34410	0.22107
3155.28451	0.21936
3153.22493	0.21777
3151.16534	0.21616
3149.10576	0.21443
3147.04617	0.21280
3144.98659	0.21138
3142.92700	0.21028
3140.86742	0.20967
3138.80783	0.20901
3136.74825	0.20764
3134.68866	0.20584
3132.62908	0.20410
3130.56949	0.20282
3128.50991	0.20203
3126.45032	0.20112
3124.39074	0.20003
3122.33115	0.19921
3120.27156	0.19868
3118.21198	0.19836
3116.15239	0.19812
3114.09281	0.19738
3112.03322	0.19618
3109.97364	0.19523
3107.91405	0.19468
3105.85447	0.19420
3103.79488	0.19360
3101.73530	0.19304
3099.67571	0.19266
3097.61613	0.19259
3095.55654	0.19303
3093.49696	0.19375
3091.43737	0.19418
3089.37779	0.19425
3087.31820	0.19426
3085.25862	0.19433
3083.19903	0.19426
3081.13945	0.19398
3079.07986	0.19379
3077.02028	0.19396
3074.96069	0.19441
3072.90111	0.19479
3070.84152	0.19501
3068.78194	0.19502
3066.72235	0.19478
3064.66276	0.19460
3062.60318	0.19455
3060.54359	0.19420
3058.48401	0.19336
3056.42442	0.19245
3054.36484	0.19191
3052.30525	0.19130
3050.24567	0.19005
3048.18608	0.18882
3046.12650	0.18825
3044.06691	0.18770
3042.00733	0.18658
3039.94774	0.18493
3037.88816	0.18335
3035.82857	0.18244
3033.76899	0.18187
3031.70940	0.18107
3029.64982	0.17994
3027.59023	0.17874
3025.53065	0.17751
3023.47106	0.17617
3021.41148	0.17520
3019.35189	0.17474
3017.29231	0.17396
3015.23272	0.17256
3013.17313	0.17109
3011.11355	0.16998
3009.05396	0.16904
3006.99438	0.16816
3004.93479	0.16742
3002.87521	0.16672
3000.81562	0.16621
2998.75604	0.16602
2996.69645	0.16600
2994.63687	0.16610
2992.57728	0.16621
2990.51770	0.16638
2988.45811	0.16662
2986.39853	0.16708
2984.33894	0.16810
2982.27936	0.16953
2980.21977	0.17096
2978.16019	0.17202
2976.10060	0.17273
2974.04102	0.17380
2971.98143	0.17531
2969.92185	0.17679
2967.86226	0.17807
2965.80268	0.17915
2963.74309	0.18023
2961.68351	0.18116
2959.62392	0.18130
2957.56433	0.18059
2955.50475	0.17962
2953.44516	0.17879
2951.38558	0.17814
2949.32599	0.17774
2947.26641	0.17770
2945.20682	0.17796
2943.14724	0.17858
2941.08765	0.17965
2939.02807	0.18109
2936.96848	0.18301
2934.90890	0.18530
2932.84931	0.18729
2930.78973	0.18868
2928.73014	0.18943
2926.67056	0.18952
2924.61097	0.18926
2922.55139	0.18863
2920.49180	0.18732
2918.43222	0.18538
2916.37263	0.18287
2914.31305	0.18010
2912.25346	0.17769
2910.19388	0.17586
2908.13429	0.17440
2906.07471	0.17281
2904.01512	0.17104
2901.95553	0.16977
2899.89595	0.16906
2897.83636	0.16831
2895.77678	0.16738
2893.71719	0.16639
2891.65761	0.16551
2889.59802	0.16524
2887.53844	0.16540
2885.47885	0.16526
2883.41927	0.16495
2881.35968	0.16500
2879.30010	0.16535
2877.24051	0.16574
2875.18093	0.16624
2873.12134	0.16666
2871.06176	0.16626
2869.00217	0.16501
2866.94259	0.16385
2864.88300	0.16310
2862.82342	0.16240
2860.76383	0.16192
2858.70425	0.16187
2856.64466	0.16202
2854.58508	0.16213
2852.52549	0.16167
2850.46590	0.16028
2848.40632	0.15851
2846.34673	0.15685
2844.28715	0.15532
2842.22756	0.15395
2840.16798	0.15268
2838.10839	0.15137
2836.04881	0.15018
2833.98922	0.14932
2831.92964	0.14854
2829.87005	0.14777
2827.81047	0.14716
2825.75088	0.14667
2823.69130	0.14630
2821.63171	0.14590
2819.57213	0.14546
2817.51254	0.14509
2815.45296	0.14477
2813.39337	0.14450
2811.33379	0.14423
2809.27420	0.14383
2807.21462	0.14332
2805.15503	0.14277
2803.09545	0.14223
2801.03586	0.14165
2798.97628	0.14094
2796.91669	0.14042
2794.85710	0.14017
2792.79752	0.13988
2790.73793	0.13945
2788.67835	0.13890
2786.61876	0.13849
2784.55918	0.13816
2782.49959	0.13763
2780.44001	0.13710
2778.38042	0.13680
2776.32084	0.13671
2774.26125	0.13656
2772.20167	0.13612
2770.14208	0.13565
2768.08250	0.13527
2766.02291	0.13479
2763.96333	0.13422
2761.90374	0.13370
2759.84416	0.13325
2757.78457	0.13291
2755.72499	0.13256
2753.66540	0.13220
2751.60582	0.13200
2749.54623	0.13181
2747.48665	0.13140
2745.42706	0.13083
2743.36747	0.13033
2741.30789	0.13003
2739.24830	0.12991
2737.18872	0.12980
2735.12913	0.12963
2733.06955	0.12930
2731.00996	0.12872
2728.95038	0.12811
2726.89079	0.12787
2724.83121	0.12792
2722.77162	0.12780
2720.71204	0.12750
2718.65245	0.12706
2716.59287	0.12633
2714.53328	0.12555
2712.47370	0.12524
2710.41411	0.12521
2708.35453	0.12495
2706.29494	0.12462
2704.23536	0.12443
2702.17577	0.12424
2700.11619	0.12396
2698.05660	0.12361
2695.99702	0.12324
2693.93743	0.12284
2691.87785	0.12242
2689.81826	0.12212
2687.75867	0.12202
2685.69909	0.12190
2683.63950	0.12154
2681.57992	0.12111
2679.52033	0.12095
2677.46075	0.12093
2675.40116	0.12081
2673.34158	0.12059
2671.28199	0.12028
2669.22241	0.11984
2667.16282	0.11940
2665.10324	0.11917
2663.04365	0.11920
2660.98407	0.11931
2658.92448	0.11923
2656.86490	0.11899
2654.80531	0.11871
2652.74573	0.11830
2650.68614	0.11784
2648.62656	0.11750
2646.56697	0.11707
2644.50739	0.11643
2642.44780	0.11594
2640.38822	0.11581
2638.32863	0.11559
2636.26904	0.11508
2634.20946	0.11453
2632.14987	0.11432
2630.09029	0.11429
2628.03070	0.11381
2625.97112	0.11298
2623.91153	0.11249
2621.85195	0.11238
2619.79236	0.11233
2617.73278	0.11232
2615.67319	0.11208
2613.61361	0.11133
2611.55402	0.11059
2609.49444	0.11031
2607.43485	0.11008
2605.37527	0.10959
2603.31568	0.10926
2601.25610	0.10903
2599.19651	0.10852
2597.13693	0.10813
2595.07734	0.10793
2593.01776	0.10755
2590.95817	0.10702
2588.89859	0.10665
2586.83900	0.10672
2584.77942	0.10694
2582.71983	0.10680
2580.66024	0.10638
2578.60066	0.10598
2576.54107	0.10589
2574.48149	0.10574
2572.42190	0.10502
2570.36232	0.10415
2568.30273	0.10394
2566.24315	0.10429
2564.18356	0.10429
2562.12398	0.10371
2560.06439	0.10309
2558.00481	0.10287
2555.94522	0.10276
2553.88564	0.10244
2551.82605	0.10235
2549.76647	0.10247
2547.70688	0.10213
2545.64730	0.10173
2543.58771	0.10165
2541.52813	0.10133
2539.46854	0.10091
2537.40896	0.10099
2535.34937	0.10127
2533.28979	0.10119
2531.23020	0.10075
2529.17062	0.10048
2527.11103	0.10062
2525.05144	0.10070
2522.99186	0.10039
2520.93227	0.09982
2518.87269	0.09915
2516.81310	0.09873
2514.75352	0.09865
2512.69393	0.09860
2510.63435	0.09851
2508.57476	0.09840
2506.51518	0.09813
2504.45559	0.09786
2502.39601	0.09796
2500.33642	0.09814
2498.27684	0.09797
2496.21725	0.09763
2494.15767	0.09727
2492.09808	0.09688
2490.03850	0.09649
2487.97891	0.09611
2485.91933	0.09601
2483.85974	0.09624
2481.80016	0.09621
2479.74057	0.09570
2477.68099	0.09541
2475.62140	0.09559
2473.56181	0.09558
2471.50223	0.09535
2469.44264	0.09535
2467.38306	0.09550
2465.32347	0.09559
2463.26389	0.09545
2461.20430	0.09498
2459.14472	0.09445
2457.08513	0.09416
2455.02555	0.09381
2452.96596	0.09319
2450.90638	0.09287
2448.84679	0.09307
2446.78721	0.09314
2444.72762	0.09291
2442.66804	0.09277
2440.60845	0.09266
2438.54887	0.09244
2436.48928	0.09236
2434.42970	0.09238
2432.37011	0.09246
2430.31053	0.09243
2428.25094	0.09185
2426.19136	0.09128
2424.13177	0.09135
2422.07219	0.09163
2420.01260	0.09152
2417.95301	0.09121
2415.89343	0.09126
2413.83384	0.09155
2411.77426	0.09159
2409.71467	0.09133
2407.65509	0.09078
2405.59550	0.09022
2403.53592	0.09030
2401.47633	0.09079
2399.41675	0.09075
2397.35716	0.09029
2395.29758	0.08993
2393.23799	0.08982
2391.17841	0.08984
2389.11882	0.08993
2387.05924	0.09008
2384.99965	0.09016
2382.94007	0.08988
2380.88048	0.08930
2378.82090	0.08883
2376.76131	0.08890
2374.70173	0.08855
2372.64214	0.08827
2370.58256	0.08869
2368.52297	0.08895
2366.46338	0.08935
2364.40380	0.08895
2362.34421	0.08816
2360.28463	0.08865
2358.22504	0.08854
2356.16546	0.08858
2354.10587	0.08852
2352.04629	0.08832
2349.98670	0.08983
2347.92712	0.08919
2345.86753	0.08819
2343.80795	0.08821
2341.74836	0.08673
2339.68878	0.08707
2337.62919	0.08775
2335.56961	0.08796
2333.51002	0.08929
2331.45044	0.08913
2329.39085	0.08945
2327.33127	0.08839
2325.27168	0.08778
2323.21210	0.08669
2321.15251	0.08583
2319.09293	0.08560
2317.03334	0.08548
2314.97376	0.08538
2312.91417	0.08472
2310.85458	0.08445
2308.79500	0.08462
2306.73541	0.08432
2304.67583	0.08387
2302.61624	0.08362
2300.55666	0.08366
2298.49707	0.08365
2296.43749	0.08362
2294.37790	0.08356
2292.31832	0.08362
2290.25873	0.08339
2288.19915	0.08286
2286.13956	0.08217
2284.07998	0.08159
2282.02039	0.08110
2279.96081	0.08061
2277.90122	0.08014
2275.84164	0.07943
2273.78205	0.07855
2271.72247	0.07814
2269.66288	0.07830
2267.60330	0.07833
2265.54371	0.07796
2263.48413	0.07725
2261.42454	0.07651
2259.36495	0.07586
2257.30537	0.07527
2255.24578	0.07472
2253.18620	0.07441
2251.12661	0.07449
2249.06703	0.07471
2247.00744	0.07484
2244.94786	0.07472
2242.88827	0.07417
2240.82869	0.07402
2238.76910	0.07467
2236.70952	0.07471
2234.64993	0.07380
2232.59035	0.07265
2230.53076	0.07167
2228.47118	0.07130
2226.41159	0.07110
2224.35201	0.07099
2222.29242	0.07112
2220.23284	0.07047
2218.17325	0.06882
2216.11367	0.06751
2214.05408	0.06719
2211.99450	0.06742
2209.93491	0.06814
2207.87533	0.06889
2205.81574	0.06855
2203.75615	0.06791
2201.69657	0.06817
2199.63698	0.06825
2197.57740	0.06810
2195.51781	0.06819
2193.45823	0.06819
2191.39864	0.06792
2189.33906	0.06657
2187.27947	0.06497
2185.21989	0.06476
2183.16030	0.06459
2181.10072	0.06323
2179.04113	0.06217
2176.98155	0.06222
2174.92196	0.06289
2172.86238	0.06349
2170.80279	0.06344
2168.74321	0.06252
2166.68362	0.06103
2164.62404	0.05955
2162.56445	0.05798
2160.50487	0.05612
2158.44528	0.05562
2156.38570	0.05775
2154.32611	0.05967
2152.26652	0.05926
2150.20694	0.05869
2148.14735	0.05977
2146.08777	0.06127
2144.02818	0.06210
2141.96860	0.06261
2139.90901	0.06321
2137.84943	0.06368
2135.78984	0.06340
2133.73026	0.06273
2131.67067	0.06285
2129.61109	0.06388
2127.55150	0.06464
2125.49192	0.06494
2123.43233	0.06533
2121.37275	0.06553
2119.31316	0.06570
2117.25358	0.06610
2115.19399	0.06632
2113.13441	0.06665
2111.07482	0.06672
2109.01524	0.06568
2106.95565	0.06474
2104.89607	0.06498
2102.83648	0.06577
2100.77690	0.06619
2098.71731	0.06598
2096.65772	0.06550
2094.59814	0.06499
2092.53855	0.06462
2090.47897	0.06466
2088.41938	0.06481
2086.35980	0.06444
2084.30021	0.06368
2082.24063	0.06324
2080.18104	0.06330
2078.12146	0.06363
2076.06187	0.06386
2074.00229	0.06354
2071.94270	0.06296
2069.88312	0.06256
2067.82353	0.06240
2065.76395	0.06235
2063.70436	0.06191
2061.64478	0.06096
2059.58519	0.06016
2057.52561	0.05998
2055.46602	0.05974
2053.40644	0.05904
2051.34685	0.05857
2049.28727	0.05845
2047.22768	0.05854
2045.16810	0.05888
2043.10851	0.05860
2041.04892	0.05691
2038.98934	0.05481
2036.92975	0.05332
2034.87017	0.05242
2032.81058	0.05209
2030.75100	0.05197
2028.69141	0.05175
2026.63183	0.05181
2024.57224	0.05198
2022.51266	0.05111
2020.45307	0.04962
2018.39349	0.04948
2016.33390	0.05064
2014.27432	0.05162
2012.21473	0.05179
2010.15515	0.05082
2008.09556	0.04964
2006.03598	0.04943
2003.97639	0.04955
2001.91681	0.04953
1999.85722	0.04982
1997.79764	0.05071
1995.73805	0.05173
1993.67847	0.05201
1991.61888	0.05177
1989.55929	0.05174
1987.49971	0.05175
1985.44012	0.05133
1983.38054	0.05099
1981.32095	0.05088
1979.26137	0.04979
1977.20178	0.04792
1975.14220	0.04672
1973.08261	0.04653
1971.02303	0.04720
1968.96344	0.04831
1966.90386	0.04933
1964.84427	0.04992
1962.78469	0.04977
1960.72510	0.04913
1958.66552	0.04891
1956.60593	0.04911
1954.54635	0.04884
1952.48676	0.04812
1950.42718	0.04772
1948.36759	0.04825
1946.30801	0.04949
1944.24842	0.05080
1942.18884	0.05178
1940.12925	0.05185
1938.06967	0.05123
1936.01008	0.05091
1933.95049	0.05115
1931.89091	0.05144
1929.83132	0.05118
1927.77174	0.05027
1925.71215	0.04948
1923.65257	0.04950
1921.59298	0.05012
1919.53340	0.05106
1917.47381	0.05196
1915.41423	0.05187
1913.35464	0.05109
1911.29506	0.05070
1909.23547	0.05069
1907.17589	0.05052
1905.11630	0.05009
1903.05672	0.04959
1900.99713	0.04912
1898.93755	0.04890
1896.87796	0.04907
1894.81838	0.04944
1892.75879	0.04970
1890.69921	0.04966
1888.63962	0.04931
1886.58004	0.04889
1884.52045	0.04867
1882.46086	0.04871
1880.40128	0.04882
1878.34169	0.04867
1876.28211	0.04814
1874.22252	0.04761
1872.16294	0.04760
1870.10335	0.04795
1868.04377	0.04796
1865.98418	0.04749
1863.92460	0.04718
1861.86501	0.04717
1859.80543	0.04706
1857.74584	0.04676
1855.68626	0.04657
1853.62667	0.04656
1851.56709	0.04646
1849.50750	0.04635
1847.44792	0.04645
1845.38833	0.04653
1843.32875	0.04619
1841.26916	0.04551
1839.20958	0.04485
1837.14999	0.04436
1835.09041	0.04408
1833.03082	0.04405
1830.97124	0.04432
1828.91165	0.04445
1826.85206	0.04407
1824.79248	0.04362
1822.73289	0.04347
1820.67331	0.04337
1818.61372	0.04302
1816.55414	0.04258
1814.49455	0.04226
1812.43497	0.04198
1810.37538	0.04176
1808.31580	0.04171
1806.25621	0.04166
1804.19663	0.04146
1802.13704	0.04113
1800.07746	0.04072
1798.01787	0.04034
1795.95829	0.04024
1793.89870	0.04040
1791.83912	0.04048
1789.77953	0.04013
1787.71995	0.03956
1785.66036	0.03910
1783.60078	0.03881
1781.54119	0.03854
1779.48161	0.03819
1777.42202	0.03781
1775.36243	0.03754
1773.30285	0.03737
1771.24326	0.03711
1769.18368	0.03673
1767.12409	0.03639
1765.06451	0.03617
1763.00492	0.03601
1760.94534	0.03578
1758.88575	0.03553
1756.82617	0.03538
1754.76658	0.03529
1752.70700	0.03535
1750.64741	0.03558
1748.58783	0.03558
1746.52824	0.03516
1744.46866	0.03458
1742.40907	0.03404
1740.34949	0.03358
1738.28990	0.03329
1736.23032	0.03316
1734.17073	0.03316
1732.11115	0.03312
1730.05156	0.03270
1727.99198	0.03203
1725.93239	0.03150
1723.87281	0.03123
1721.81322	0.03110
1719.75363	0.03122
1717.69405	0.03166
1715.63446	0.03212
1713.57488	0.03256
1711.51529	0.03333
1709.45571	0.03482
1707.39612	0.03755
1705.33654	0.04168
1703.27695	0.04668
1701.21737	0.05371
1699.15778	0.06313
1697.09820	0.07144
1695.03861	0.07734
1692.97903	0.08145
1690.91944	0.08517
1688.85986	0.08947
1686.80027	0.09435
1684.74069	0.10104
1682.68110	0.10886
1680.62152	0.11480
1678.56193	0.11963
1676.50235	0.12529
1674.44276	0.13200
1672.38318	0.13858
1670.32359	0.14559
1668.26401	0.15315
1666.20442	0.15933
1664.14483	0.16525
1662.08525	0.17252
1660.02566	0.17959
1657.96608	0.18501
1655.90649	0.18992
1653.84691	0.19697
1651.78732	0.20483
1649.72774	0.20911
1647.66815	0.21257
1645.60857	0.21716
1643.54898	0.22054
1641.48940	0.22246
1639.42981	0.22408
1637.37023	0.22642
1635.31064	0.22994
1633.25106	0.23300
1631.19147	0.23502
1629.13189	0.23745
1627.07230	0.24095
1625.01272	0.24535
1622.95313	0.25048
1620.89355	0.25482
1618.83396	0.25756
1616.77438	0.25940
1614.71479	0.25940
1612.65520	0.25650
1610.59562	0.25100
1608.53603	0.24336
1606.47645	0.23446
1604.41686	0.22519
1602.35728	0.21585
1600.29769	0.20682
1598.23811	0.19850
1596.17852	0.19066
1594.11894	0.18301
1592.05935	0.17567
1589.99977	0.16870
1587.94018	0.16242
1585.88060	0.15719
1583.82101	0.15303
1581.76143	0.14978
1579.70184	0.14729
1577.64226	0.14546
1575.58267	0.14443
1573.52309	0.14410
1571.46350	0.14444
1569.40392	0.14596
1567.34433	0.14829
1565.28475	0.15066
1563.22516	0.15280
1561.16558	0.15586
1559.10599	0.16261
1557.04640	0.17090
1554.98682	0.17633
1552.92723	0.18068
1550.86765	0.18557
1548.80806	0.19058
1546.74848	0.19493
1544.68889	0.19897
1542.62931	0.20364
1540.56972	0.20935
1538.51014	0.21431
1536.45055	0.21680
1534.39097	0.21906
1532.33138	0.22227
1530.27180	0.22493
1528.21221	0.22713
1526.15263	0.22988
1524.09304	0.23304
1522.03346	0.23674
1519.97387	0.24068
1517.91429	0.24404
1515.85470	0.24667
1513.79512	0.24782
1511.73553	0.24731
1509.67595	0.24567
1507.61636	0.24248
1505.55677	0.23740
1503.49719	0.23188
1501.43760	0.22636
1499.37802	0.22027
1497.31843	0.21332
1495.25885	0.20604
1493.19926	0.19928
1491.13968	0.19231
1489.08009	0.18428
1487.02051	0.17636
1484.96092	0.16962
1482.90134	0.16382
1480.84175	0.15865
1478.78217	0.15428
1476.72258	0.15090
1474.66300	0.14871
1472.60341	0.14780
1470.54383	0.14747
1468.48424	0.14696
1466.42466	0.14633
1464.36507	0.14590
1462.30549	0.14566
1460.24590	0.14592
1458.18632	0.14775
1456.12673	0.15115
1454.06715	0.15367
1452.00756	0.15472
1449.94797	0.15502
1447.88839	0.15485
1445.82880	0.15414
1443.76922	0.15279
1441.70963	0.15088
1439.65005	0.14859
1437.59046	0.14599
1435.53088	0.14316
1433.47129	0.14047
1431.41171	0.13802
1429.35212	0.13590
1427.29254	0.13437
1425.23295	0.13352
1423.17337	0.13325
1421.11378	0.13348
1419.05420	0.13441
1416.99461	0.13570
1414.93503	0.13673
1412.87544	0.13760
1410.81586	0.13855
1408.75627	0.13946
1406.69669	0.14015
1404.63710	0.14049
1402.57752	0.14042
1400.51793	0.14019
1398.45834	0.14009
1396.39876	0.14016
1394.33917	0.14026
1392.27959	0.14017
1390.22000	0.13992
1388.16042	0.13977
1386.10083	0.13958
1384.04125	0.13896
1381.98166	0.13795
1379.92208	0.13689
1377.86249	0.13594
1375.80291	0.13510
1373.74332	0.13428
1371.68374	0.13333
1369.62415	0.13220
1367.56457	0.13091
1365.50498	0.12948
1363.44540	0.12796
1361.38581	0.12643
1359.32623	0.12496
1357.26664	0.12370
1355.20706	0.12274
1353.14747	0.12206
1351.08789	0.12160
1349.02830	0.12139
1346.96872	0.12132
1344.90913	0.12121
1342.84954	0.12109
1340.78996	0.12111
1338.73037	0.12111
1336.67079	0.12068
1334.61120	0.11978
1332.55162	0.11877
1330.49203	0.11790
1328.43245	0.11719
1326.37286	0.11664
1324.31328	0.11630
1322.25369	0.11609
1320.19411	0.11590
1318.13452	0.11571
1316.07494	0.11554
1314.01535	0.11541
1311.95577	0.11527
1309.89618	0.11505
1307.83660	0.11480
1305.77701	0.11450
1303.71743	0.11407
1301.65784	0.11355
1299.59826	0.11303
1297.53867	0.11252
1295.47909	0.11197
1293.41950	0.11146
1291.35991	0.11112
1289.30033	0.11086
1287.24074	0.11059
1285.18116	0.11035
1283.12157	0.11007
1281.06199	0.10967
1279.00240	0.10929
1276.94282	0.10901
1274.88323	0.10878
1272.82365	0.10862
1270.76406	0.10858
1268.70448	0.10866
1266.64489	0.10889
1264.58531	0.10928
1262.52572	0.10981
1260.46614	0.11060
1258.40655	0.11168
1256.34697	0.11288
1254.28738	0.11412
1252.22780	0.11548
1250.16821	0.11683
1248.10863	0.11808
1246.04904	0.11928
1243.98946	0.12037
1241.92987	0.12131
1239.87029	0.12210
1237.81070	0.12267
1235.75111	0.12294
1233.69153	0.12291
1231.63194	0.12265
1229.57236	0.12218
1227.51277	0.12145
1225.45319	0.12047
1223.39360	0.11927
1221.33402	0.11795
1219.27443	0.11659
1217.21485	0.11516
1215.15526	0.11364
1213.09568	0.11209
1211.03609	0.11049
1208.97651	0.10884
1206.91692	0.10718
1204.85734	0.10544
1202.79775	0.10358
1200.73817	0.10176
1198.67858	0.10012
1196.61900	0.09859
1194.55941	0.09718
1192.49983	0.09594
1190.44024	0.09485
1188.38066	0.09383
1186.32107	0.09282
1184.26149	0.09199
1182.20190	0.09142
1180.14231	0.09110
1178.08273	0.09106
1176.02314	0.09143
1173.96356	0.09222
1171.90397	0.09315
1169.84439	0.09401
1167.78480	0.09478
1165.72522	0.09533
1163.66563	0.09557
1161.60605	0.09555
1159.54646	0.09526
1157.48688	0.09469
1155.42729	0.09392
1153.36771	0.09288
1151.30812	0.09160
1149.24854	0.09037
1147.18895	0.08932
1145.12937	0.08833
1143.06978	0.08732
1141.01020	0.08636
1138.95061	0.08558
1136.89103	0.08489
1134.83144	0.08419
1132.77186	0.08351
1130.71227	0.08297
1128.65268	0.08251
1126.59310	0.08210
1124.53351	0.08176
1122.47393	0.08137
1120.41434	0.08086
1118.35476	0.08029
1116.29517	0.07977
1114.23559	0.07935
1112.17600	0.07901
1110.11642	0.07872
1108.05683	0.07850
1105.99725	0.07830
1103.93766	0.07806
1101.87808	0.07778
1099.81849	0.07757
1097.75891	0.07752
1095.69932	0.07760
1093.63974	0.07787
1091.58015	0.07845
1089.52057	0.07938
1087.46098	0.08058
1085.40140	0.08189
1083.34181	0.08331
1081.28223	0.08480
1079.22264	0.08625
1077.16306	0.08765
1075.10347	0.08892
1073.04388	0.09004
1070.98430	0.09106
1068.92471	0.09189
1066.86513	0.09248
1064.80554	0.09282
1062.74596	0.09285
1060.68637	0.09264
1058.62679	0.09224
1056.56720	0.09158
1054.50762	0.09071
1052.44803	0.08982
1050.38845	0.08906
1048.32886	0.08831
1046.26928	0.08745
1044.20969	0.08643
1042.15011	0.08523
1040.09052	0.08395
1038.03094	0.08270
1035.97135	0.08145
1033.91177	0.08035
1031.85218	0.07948
1029.79260	0.07862
1027.73301	0.07768
1025.67343	0.07659
1023.61384	0.07529
1021.55425	0.07399
1019.49467	0.07277
1017.43508	0.07161
1015.37550	0.07052
1013.31591	0.06943
1011.25633	0.06834
1009.19674	0.06730
1007.13716	0.06635
1005.07757	0.06548
1003.01799	0.06456
1000.95840	0.06366
998.89882	0.06301
996.83923	0.06250
994.77965	0.06188
992.72006	0.06126
990.66048	0.06074
988.60089	0.06029
986.54131	0.05991
984.48172	0.05952
982.42214	0.05909
980.36255	0.05882
978.30297	0.05876
976.24338	0.05876
974.18380	0.05876
972.12421	0.05871
970.06463	0.05862
968.00504	0.05869
965.94545	0.05888
963.88587	0.05899
961.82628	0.05891
959.76670	0.05866
957.70711	0.05832
955.64753	0.05791
953.58794	0.05743
951.52836	0.05695
949.46877	0.05657
947.40919	0.05622
945.34960	0.05586
943.29002	0.05558
941.23043	0.05544
939.17085	0.05538
937.11126	0.05531
935.05168	0.05518
932.99209	0.05501
930.93251	0.05479
928.87292	0.05454
926.81334	0.05426
924.75375	0.05393
922.69417	0.05346
920.63458	0.05289
918.57500	0.05238
916.51541	0.05196
914.45582	0.05162
912.39624	0.05144
910.33665	0.05130
908.27707	0.05108
906.21748	0.05085
904.15790	0.05073
902.09831	0.05066
900.03873	0.05056
897.97914	0.05050
895.91956	0.05034
893.85997	0.04991
891.80039	0.04940
889.74080	0.04908
887.68122	0.04899
885.62163	0.04881
883.56205	0.04852
881.50246	0.04837
879.44288	0.04831
877.38329	0.04822
875.32371	0.04805
873.26412	0.04776
871.20454	0.04739
869.14495	0.04696
867.08537	0.04655
865.02578	0.04631
862.96620	0.04616
860.90661	0.04594
858.84702	0.04573
856.78744	0.04571
854.72785	0.04578
852.66827	0.04569
850.60868	0.04541
848.54910	0.04517
846.48951	0.04504
844.42993	0.04500
842.37034	0.04505
840.31076	0.04524
838.25117	0.04548
836.19159	0.04561
834.13200	0.04573
832.07242	0.04598
830.01283	0.04623
827.95325	0.04631
825.89366	0.04633
823.83408	0.04643
821.77449	0.04648
819.71491	0.04653
817.65532	0.04674
815.59574	0.04699
813.53615	0.04724
811.47657	0.04754
809.41698	0.04781
807.35740	0.04798
805.29781	0.04812
803.23822	0.04832
801.17864	0.04842
799.11905	0.04842
797.05947	0.04842
794.99988	0.04848
792.94030	0.04881
790.88071	0.04936
788.82113	0.04984
786.76154	0.05027
784.70196	0.05075
782.64237	0.05117
780.58279	0.05150
778.52320	0.05192
776.46362	0.05241
774.40403	0.05278
772.34445	0.05315
770.28486	0.05368
768.22528	0.05425
766.16569	0.05470
764.10611	0.05507
762.04652	0.05538
759.98694	0.05563
757.92735	0.05589
755.86777	0.05612
753.80818	0.05629
751.74859	0.05652
749.68901	0.05683
747.62942	0.05705
745.56984	0.05716
743.51025	0.05723
741.45067	0.05718
739.39108	0.05715
737.33150	0.05721
735.27191	0.05728
733.21233	0.05747
731.15274	0.05781
729.09316	0.05813
727.03357	0.05858
724.97399	0.05935
722.91440	0.06026
720.85482	0.06113
718.79523	0.06216
716.73565	0.06304
714.67606	0.06404
712.61648	0.06522
710.55689	0.06652
708.49731	0.06796
706.43772	0.06951
704.37814	0.07102
702.31855	0.07235
700.25897	0.07346
698.19938	0.07427
696.13979	0.07474
694.08021	0.07492
692.02062	0.07493
689.96104	0.07492
687.90145	0.07502
685.84187	0.07524
683.78228	0.07546
681.72270	0.07562
679.66311	0.07575
677.60353	0.07579
675.54394	0.07581
673.48436	0.07585
671.42477	0.07664
669.36519	0.07822
667.30560	0.07539
665.24602	0.07670
663.18643	0.07655
661.12685	0.07637
659.06726	0.07648
657.00768	0.07668
654.94809	0.07689
652.88851	0.07702
650.82892	0.07708
648.76934	0.07718
646.70975	0.07758
644.65016	0.07804
642.59058	0.07841
640.53099	0.07863
638.47141	0.07881
636.41182	0.07911
634.35224	0.07941
632.29265	0.07949
630.23307	0.07951
628.17348	0.07959
626.11390	0.07975
624.05431	0.07999
621.99473	0.08014
619.93514	0.07996
617.87556	0.07959
615.81597	0.07929
613.75639	0.07912
611.69680	0.07890
609.63722	0.07856
607.57763	0.07825
605.51805	0.07803
603.45846	0.07779
601.39888	0.07760
599.33929	0.07746
597.27971	0.07722
595.22012	0.07694
593.16054	0.07678
591.10095	0.07681
589.04136	0.07687
586.98178	0.07677
584.92219	0.07659
582.86261	0.07656
580.80302	0.07678
578.74344	0.07718
576.68385	0.07738
574.62427	0.07722
572.56468	0.07702
570.50510	0.07690
568.44551	0.07676
566.38593	0.07678
564.32634	0.07699
562.26676	0.07707
560.20717	0.07701
558.14759	0.07689
556.08800	0.07658
554.02842	0.07623
551.96883	0.07617
549.90925	0.07632
547.84966	0.07654
545.79008	0.07673
543.73049	0.07669
541.67091	0.07650
539.61132	0.07626
537.55173	0.07593
535.49215	0.07565
533.43256	0.07551
531.37298	0.07550
529.31339	0.07556
527.25381	0.07551
525.19422	0.07535
523.13464	0.07530
521.07505	0.07529
519.01547	0.07509
516.95588	0.07479
514.89630	0.07450
512.83671	0.07419
510.77713	0.07382
508.71754	0.07338
506.65796	0.07294
504.59837	0.07254
502.53879	0.07205
500.47920	0.07137
498.41962	0.07079
496.36003	0.07049
494.30045	0.07028
492.24086	0.07008
490.18128	0.06987
488.12169	0.06956
486.06211	0.06924
484.00252	0.06897
481.94293	0.06867
479.88335	0.06833
477.82376	0.06796
475.76418	0.06768
473.70459	0.06758
471.64501	0.06758
469.58542	0.06754
467.52584	0.06737
465.46625	0.06702
463.40667	0.06665
461.34708	0.06634
459.28750	0.06618
457.22791	0.06616
455.16833	0.06614
453.10874	0.06590
451.04916	0.06532
448.98957	0.06468
446.92999	0.06422
444.87040	0.06384
442.81082	0.06340
440.75123	0.06284
438.69165	0.06220
436.63206	0.06168
434.57248	0.06143
432.51289	0.06129
430.45330	0.06092
428.39372	0.06020
426.33413	0.05947
424.27455	0.05909
422.21496	0.05896
420.15538	0.05850
418.09579	0.05732
416.03621	0.05628
413.97662	0.05601
411.91704	0.05602
409.85745	0.05578
407.79787	0.05513
405.73828	0.05425
403.67870	0.05339
401.61911	0.05237
399.55953	0.05102
