3997.66060,0.04609
3995.60101,0.04626
3993.54142,0.04600
3991.48183,0.04511
3989.42224,0.04432
3987.36265,0.04438
3985.30307,0.04506
3983.24348,0.04539
3981.18389,0.04496
3979.12430,0.04459
3977.06471,0.04471
3975.00513,0.04511
3972.94554,0.04535
3970.88595,0.04533
3968.82636,0.04508
3966.76677,0.04450
3964.70719,0.04413
3962.64760,0.04452
3960.58801,0.04501
3958.52842,0.04464
3956.46883,0.04402
3954.40924,0.04419
3952.34966,0.04467
3950.29007,0.04466
3948.23048,0.04456
3946.17089,0.04492
3944.11130,0.04530
3942.05172,0.04496
3939.99213,0.04429
3937.93254,0.04404
3935.87295,0.04397
3933.81336,0.04394
3931.75377,0.04403
3929.69419,0.04405
3927.63460,0.04376
3925.57501,0.04338
3923.51542,0.04335
3921.45583,0.04357
3919.39625,0.04338
3917.33666,0.04279
3915.27707,0.04279
3913.21748,0.04339
3911.15789,0.04371
3909.09831,0.04354
3907.03872,0.04315
3904.97913,0.04247
3902.91954,0.04183
3900.85995,0.04195
3898.80036,0.04251
3896.74078,0.04272
3894.68119,0.04254
3892.62160,0.04272
3890.56201,0.04331
3888.50242,0.04341
3886.44284,0.04301
3884.38325,0.04252
3882.32366,0.04213
3880.26407,0.04184
3878.20448,0.04180
3876.14489,0.04218
3874.08531,0.04293
3872.02572,0.04361
3869.96613,0.04400
3867.90654,0.04409
3865.84695,0.04343
3863.78737,0.04210
3861.72778,0.04132
3859.66819,0.04141
3857.60860,0.04177
3855.54901,0.04203
3853.48943,0.04196
3851.42984,0.04173
3849.37025,0.04182
3847.31066,0.04204
3845.25107,0.04195
3843.19148,0.04148
3841.13190,0.04112
3839.07231,0.04137
3837.01272,0.04197
3834.95313,0.04235
3832.89354,0.04249
3830.83396,0.04229
3828.77437,0.04196
3826.71478,0.04181
3824.65519,0.04170
3822.59560,0.04145
3820.53601,0.04141
3818.47643,0.04168
3816.41684,0.04184
3814.35725,0.04163
3812.29766,0.04129
3810.23807,0.04114
3808.17849,0.04098
3806.11890,0.04102
3804.05931,0.04129
3801.99972,0.04121
3799.94013,0.04135
3797.88055,0.04193
3795.82096,0.04187
3793.76137,0.04072
3791.70178,0.04008
3789.64219,0.04061
3787.58260,0.04078
3785.52302,0.04047
3783.46343,0.04072
3781.40384,0.04133
3779.34425,0.04200
3777.28466,0.04227
3775.22508,0.04165
3773.16549,0.04075
3771.10590,0.04036
3769.04631,0.04034
3766.98672,0.04015
3764.92713,0.04010
3762.86755,0.04026
3760.80796,0.04003
3758.74837,0.03951
3756.68878,0.03911
3754.62919,0.03909
3752.56961,0.03984
3750.51002,0.04030
3748.45043,0.03925
3746.39084,0.03824
3744.33125,0.03819
3742.27167,0.03838
3740.21208,0.03799
3738.15249,0.03760
3736.09290,0.03769
3734.03331,0.03824
3731.97372,0.03923
3729.91414,0.03969
3727.85455,0.03935
3725.79496,0.03924
3723.73537,0.03925
3721.67578,0.03834
3719.61620,0.03732
3717.55661,0.03761
3715.49702,0.03853
3713.43743,0.03908
3711.37784,0.03959
3709.31825,0.03951
3707.25867,0.03881
3705.19908,0.03877
3703.13949,0.03880
3701.07990,0.03818
3699.02031,0.03761
3696.96073,0.03756
3694.90114,0.03774
3692.84155,0.03767
3690.78196,0.03738
3688.72237,0.03733
3686.66279,0.03757
3684.60320,0.03776
3682.54361,0.03766
3680.48402,0.03753
3678.42443,0.03749
3676.36484,0.03722
3674.30526,0.03704
3672.24567,0.03754
3670.18608,0.03802
3668.12649,0.03763
3666.06690,0.03707
3664.00732,0.03690
3661.94773,0.03681
3659.88814,0.03675
3657.82855,0.03684
3655.76896,0.03688
3653.70937,0.03652
3651.64979,0.03594
3649.59020,0.03625
3647.53061,0.03782
3645.47102,0.03857
3643.41143,0.03806
3641.35185,0.03715
3639.29226,0.03671
3637.23267,0.03700
3635.17308,0.03775
3633.11349,0.03862
3631.05391,0.03912
3628.99432,0.03876
3626.93473,0.03798
3624.87514,0.03749
3622.81555,0.03731
3620.75596,0.03752
3618.69638,0.03769
3616.63679,0.03769
3614.57720,0.03796
3612.51761,0.03836
3610.45802,0.03864
3608.39844,0.03897
3606.33885,0.03920
3604.27926,0.03918
3602.21967,0.03922
3600.16008,0.03944
3598.10049,0.03963
3596.04091,0.03935
3593.98132,0.03895
3591.92173,0.03933
3589.86214,0.04017
3587.80255,0.04049
3585.74297,0.04031
3583.68338,0.04038
3581.62379,0.04064
3579.56420,0.04087
3577.50461,0.04075
3575.44503,0.04032
3573.38544,0.04007
3571.32585,0.04013
3569.26626,0.04059
3567.20667,0.04149
3565.14708,0.04221
3563.08750,0.04254
3561.02791,0.04263
3558.96832,0.04241
3556.90873,0.04232
3554.84914,0.04215
3552.78956,0.04180
3550.72997,0.04201
3548.67038,0.04254
3546.61079,0.04314
3544.55120,0.04366
3542.49161,0.04366
3540.43203,0.04347
3538.37244,0.04365
3536.31285,0.04363
3534.25326,0.04311
3532.19367,0.04315
3530.13409,0.04375
3528.07450,0.04419
3526.01491,0.04449
3523.95532,0.04498
3521.89573,0.04545
3519.83615,0.04549
3517.77656,0.04540
3515.71697,0.04538
3513.65738,0.04494
3511.59779,0.04430
3509.53820,0.04440
3507.47862,0.04535
3505.41903,0.04628
3503.35944,0.04654
3501.29985,0.04633
3499.24026,0.04646
3497.18068,0.04709
3495.12109,0.04763
3493.06150,0.04784
3491.00191,0.04782
3488.94232,0.04763
3486.88273,0.04737
3484.82315,0.04734
3482.76356,0.04759
3480.70397,0.04815
3478.64438,0.04908
3476.58479,0.04949
3474.52521,0.04923
3472.46562,0.04918
3470.40603,0.04948
3468.34644,0.04985
3466.28685,0.05008
3464.22727,0.05013
3462.16768,0.05022
3460.10809,0.05039
3458.04850,0.05047
3455.98891,0.05027
3453.92932,0.04998
3451.86974,0.05009
3449.81015,0.05049
3447.75056,0.05098
3445.69097,0.05140
3443.63138,0.05185
3441.57180,0.05226
3439.51221,0.05237
3437.45262,0.05254
3435.39303,0.05289
3433.33344,0.05322
3431.27385,0.05357
3429.21427,0.05376
3427.15468,0.05358
3425.09509,0.05376
3423.03550,0.05444
3420.97591,0.05473
3418.91633,0.05468
3416.85674,0.05470
3414.79715,0.05470
3412.73756,0.05464
3410.67797,0.05481
3408.61839,0.05549
3406.55880,0.05598
3404.49921,0.05568
3402.43962,0.05553
3400.38003,0.05610
3398.32044,0.05664
3396.26086,0.05658
3394.20127,0.05626
3392.14168,0.05608
3390.08209,0.05593
3388.02250,0.05586
3385.96292,0.05612
3383.90333,0.05645
3381.84374,0.05669
3379.78415,0.05718
3377.72456,0.05805
3375.66497,0.05878
3373.60539,0.05866
3371.54580,0.05825
3369.48621,0.05862
3367.42662,0.05938
3365.36703,0.05979
3363.30745,0.05993
3361.24786,0.06029
3359.18827,0.06087
3357.12868,0.06129
3355.06909,0.06149
3353.00951,0.06169
3350.94992,0.06200
3348.89033,0.06262
3346.83074,0.06349
3344.77115,0.06416
3342.71156,0.06433
3340.65198,0.06417
3338.59239,0.06434
3336.53280,0.06498
3334.47321,0.06567
3332.41362,0.06631
3330.35404,0.06708
3328.29445,0.06821
3326.23486,0.06950
3324.17527,0.07031
3322.11568,0.07063
3320.05609,0.07101
3317.99651,0.07164
3315.93692,0.07219
3313.87733,0.07277
3311.81774,0.07393
3309.75815,0.07526
3307.69857,0.07610
3305.63898,0.07703
3303.57939,0.07826
3301.51980,0.07938
3299.46021,0.08049
3297.40063,0.08160
3295.34104,0.08264
3293.28145,0.08399
3291.22186,0.08556
3289.16227,0.08678
3287.10268,0.08785
3285.04310,0.08899
3282.98351,0.08993
3280.92392,0.09081
3278.86433,0.09185
3276.80474,0.09280
3274.74516,0.09326
3272.68557,0.09343
3270.62598,0.09361
3268.56639,0.09356
3266.50680,0.09343
3264.44721,0.09350
3262.38763,0.09348
3260.32804,0.09307
3258.26845,0.09228
3256.20886,0.09158
3254.14927,0.09111
3252.08969,0.09046
3250.03010,0.08976
3247.97051,0.08947
3245.91092,0.08902
3243.85133,0.08770
3241.79175,0.08639
3239.73216,0.08566
3237.67257,0.08494
3235.61298,0.08446
3233.55339,0.08450
3231.49380,0.08437
3229.43422,0.08386
3227.37463,0.08326
3225.31504,0.08275
3223.25545,0.08223
3221.19586,0.08154
3219.13628,0.08093
3217.07669,0.08044
3215.01710,0.08006
3212.95751,0.08005
3210.89792,0.08011
3208.83833,0.07986
3206.77875,0.07953
3204.71916,0.07900
3202.65957,0.07819
3200.59998,0.07772
3198.54039,0.07767
3196.48081,0.07745
3194.42122,0.07692
3192.36163,0.07614
3190.30204,0.07528
3188.24245,0.07463
3186.18287,0.07427
3184.12328,0.07420
3182.06369,0.07419
3180.00410,0.07401
3177.94451,0.07360
3175.88492,0.07289
3173.82534,0.07208
3171.76575,0.07155
3169.70616,0.07138
3167.64657,0.07102
3165.58698,0.07033
3163.52740,0.06990
3161.46781,0.06981
3159.40822,0.06974
3157.34863,0.06966
3155.28904,0.06927
3153.22945,0.06844
3151.16987,0.06780
3149.11028,0.06727
3147.05069,0.06659
3144.99110,0.06601
3142.93151,0.06575
3140.87193,0.06556
3138.81234,0.06524
3136.75275,0.06496
3134.69316,0.06449
3132.63357,0.06394
3130.57399,0.06369
3128.51440,0.06329
3126.45481,0.06276
3124.39522,0.06268
3122.33563,0.06276
3120.27604,0.06274
3118.21646,0.06253
3116.15687,0.06192
3114.09728,0.06143
3112.03769,0.06146
3109.97810,0.06166
3107.91852,0.06172
3105.85893,0.06174
3103.79934,0.06158
3101.73975,0.06109
3099.68016,0.06070
3097.62057,0.06060
3095.56099,0.06033
3093.50140,0.06013
3091.44181,0.06071
3089.38222,0.06143
3087.32263,0.06150
3085.26305,0.06113
3083.20346,0.06082
3081.14387,0.06099
3079.08428,0.06125
3077.02469,0.06109
3074.96511,0.06096
3072.90552,0.06121
3070.84593,0.06168
3068.78634,0.06196
3066.72675,0.06158
3064.66716,0.06106
3062.60758,0.06104
3060.54799,0.06118
3058.48840,0.06127
3056.42881,0.06126
3054.36922,0.06081
3052.30964,0.06018
3050.25005,0.05986
3048.19046,0.05975
3046.13087,0.05977
3044.07128,0.05994
3042.01169,0.05987
3039.95211,0.05934
3037.89252,0.05855
3035.83293,0.05796
3033.77334,0.05766
3031.71375,0.05734
3029.65417,0.05715
3027.59458,0.05717
3025.53499,0.05701
3023.47540,0.05643
3021.41581,0.05563
3019.35623,0.05507
3017.29664,0.05496
3015.23705,0.05467
3013.17746,0.05404
3011.11787,0.05402
3009.05828,0.05430
3006.99870,0.05395
3004.93911,0.05361
3002.87952,0.05364
3000.81993,0.05338
2998.76034,0.05292
2996.70076,0.05280
2994.64117,0.05285
2992.58158,0.05289
2990.52199,0.05312
2988.46240,0.05338
2986.40281,0.05359
2984.34323,0.05421
2982.28364,0.05501
2980.22405,0.05545
2978.16446,0.05564
2976.10487,0.05592
2974.04529,0.05634
2971.98570,0.05672
2969.92611,0.05717
2967.86652,0.05764
2965.80693,0.05796
2963.74735,0.05832
2961.68776,0.05869
2959.62817,0.05892
2957.56858,0.05889
2955.50899,0.05856
2953.44940,0.05830
2951.38982,0.05813
2949.33023,0.05784
2947.27064,0.05757
2945.21105,0.05748
2943.15146,0.05764
2941.09188,0.05786
2939.03229,0.05799
2936.97270,0.05823
2934.91311,0.05865
2932.85352,0.05919
2930.79393,0.05958
2928.73435,0.05938
2926.67476,0.05878
2924.61517,0.05861
2922.55558,0.05881
2920.49599,0.05871
2918.43641,0.05850
2916.37682,0.05836
2914.31723,0.05794
2912.25764,0.05711
2910.19805,0.05631
2908.13847,0.05602
2906.07888,0.05604
2904.01929,0.05592
2901.95970,0.05556
2899.90011,0.05502
2897.84052,0.05442
2895.78094,0.05409
2893.72135,0.05400
2891.66176,0.05384
2889.60217,0.05358
2887.54258,0.05340
2885.48300,0.05350
2883.42341,0.05383
2881.36382,0.05416
2879.30423,0.05450
2877.24464,0.05498
2875.18505,0.05540
2873.12547,0.05557
2871.06588,0.05567
2869.00629,0.05564
2866.94670,0.05506
2864.88711,0.05413
2862.82753,0.05355
2860.76794,0.05340
2858.70835,0.05334
2856.64876,0.05326
2854.58917,0.05303
2852.52959,0.05264
2850.47000,0.05231
2848.41041,0.05200
2846.35082,0.05169
2844.29123,0.05138
2842.23164,0.05099
2840.17206,0.05061
2838.11247,0.05026
2836.05288,0.05000
2833.99329,0.05006
2831.93370,0.05024
2829.87412,0.05002
2827.81453,0.04963
2825.75494,0.04952
2823.69535,0.04959
2821.63576,0.04956
2819.57617,0.04940
2817.51659,0.04922
2815.45700,0.04911
2813.39741,0.04901
2811.33782,0.04890
2809.27823,0.04886
2807.21865,0.04868
2805.15906,0.04836
2803.09947,0.04823
2801.03988,0.04827
2798.98029,0.04818
2796.92071,0.04805
2794.86112,0.04811
2792.80153,0.04814
2790.74194,0.04796
2788.68235,0.04772
2786.62276,0.04742
2784.56318,0.04708
2782.50359,0.04692
2780.44400,0.04702
2778.38441,0.04711
2776.32482,0.04707
2774.26524,0.04692
2772.20565,0.04676
2770.14606,0.04672
2768.08647,0.04677
2766.02688,0.04682
2763.96729,0.04676
2761.90771,0.04656
2759.84812,0.04637
2757.78853,0.04625
2755.72894,0.04608
2753.66935,0.04588
2751.60977,0.04572
2749.55018,0.04575
2747.49059,0.04602
2745.43100,0.04610
2743.37141,0.04581
2741.31183,0.04547
2739.25224,0.04537
2737.19265,0.04531
2735.13306,0.04516
2733.07347,0.04505
2731.01388,0.04493
2728.95430,0.04464
2726.89471,0.04443
2724.83512,0.04455
2722.77553,0.04472
2720.71594,0.04478
2718.65636,0.04467
2716.59677,0.04435
2714.53718,0.04413
2712.47759,0.04413
2710.41800,0.04406
2708.35841,0.04389
2706.29883,0.04375
2704.23924,0.04363
2702.17965,0.04337
2700.12006,0.04304
2698.06047,0.04292
2696.00089,0.04296
2693.94130,0.04298
2691.88171,0.04304
2689.82212,0.04308
2687.76253,0.04294
2685.70295,0.04268
2683.64336,0.04253
2681.58377,0.04251
2679.52418,0.04255
2677.46459,0.04260
2675.40500,0.04263
2673.34542,0.04258
2671.28583,0.04257
2669.22624,0.04271
2667.16665,0.04273
2665.10706,0.04254
2663.04748,0.04238
2660.98789,0.04229
2658.92830,0.04218
2656.86871,0.04202
2654.80912,0.04179
2652.74953,0.04170
2650.68995,0.04185
2648.63036,0.04180
2646.57077,0.04135
2644.51118,0.04086
2642.45159,0.04063
2640.39201,0.04047
2638.33242,0.04032
2636.27283,0.04037
2634.21324,0.04064
2632.15365,0.04080
2630.09407,0.04058
2628.03448,0.04031
2625.97489,0.04030
2623.91530,0.04019
2621.85571,0.03985
2619.79612,0.03958
2617.73654,0.03963
2615.67695,0.03995
2613.61736,0.03992
2611.55777,0.03942
2609.49818,0.03902
2607.43860,0.03895
2605.37901,0.03898
2603.31942,0.03896
2601.25983,0.03878
2599.20024,0.03868
2597.14065,0.03874
2595.08107,0.03882
2593.02148,0.03871
2590.96189,0.03831
2588.90230,0.03826
2586.84271,0.03853
2584.78313,0.03850
2582.72354,0.03814
2580.66395,0.03775
2578.60436,0.03756
2576.54477,0.03747
2574.48519,0.03729
2572.42560,0.03735
2570.36601,0.03757
2568.30642,0.03736
2566.24683,0.03698
2564.18724,0.03713
2562.12766,0.03741
2560.06807,0.03742
2558.00848,0.03746
2555.94889,0.03737
2553.88930,0.03706
2551.82972,0.03661
2549.77013,0.03619
2547.71054,0.03628
2545.65095,0.03670
2543.59136,0.03671
2541.53177,0.03648
2539.47219,0.03674
2537.41260,0.03712
2535.35301,0.03687
2533.29342,0.03625
2531.23383,0.03580
2529.17425,0.03548
2527.11466,0.03544
2525.05507,0.03583
2522.99548,0.03610
2520.93589,0.03597
2518.87631,0.03563
2516.81672,0.03534
2514.75713,0.03528
2512.69754,0.03549
2510.63795,0.03573
2508.57836,0.03566
2506.51878,0.03533
2504.45919,0.03534
2502.39960,0.03580
2500.34001,0.03592
2498.28042,0.03560
2496.22084,0.03533
2494.16125,0.03528
2492.10166,0.03527
2490.04207,0.03527
2487.98248,0.03529
2485.92289,0.03497
2483.86331,0.03468
2481.80372,0.03500
2479.74413,0.03533
2477.68454,0.03506
2475.62495,0.03445
2473.56537,0.03412
2471.50578,0.03411
2469.44619,0.03405
2467.38660,0.03404
2465.32701,0.03415
2463.26743,0.03408
2461.20784,0.03410
2459.14825,0.03458
2457.08866,0.03508
2455.02907,0.03496
2452.96948,0.03441
2450.90990,0.03401
2448.85031,0.03396
2446.79072,0.03400
2444.73113,0.03382
2442.67154,0.03340
2440.61196,0.03308
2438.55237,0.03318
2436.49278,0.03369
2434.43319,0.03416
2432.37360,0.03426
2430.31401,0.03420
2428.25443,0.03417
2426.19484,0.03437
2424.13525,0.03459
2422.07566,0.03432
2420.01607,0.03384
2417.95649,0.03375
2415.89690,0.03393
2413.83731,0.03400
2411.77772,0.03372
2409.71813,0.03314
2407.65855,0.03286
2405.59896,0.03307
2403.53937,0.03339
2401.47978,0.03347
2399.42019,0.03323
2397.36060,0.03288
2395.30102,0.03279
2393.24143,0.03304
2391.18184,0.03331
2389.12225,0.03321
2387.06266,0.03296
2385.00308,0.03294
2382.94349,0.03297
2380.88390,0.03292
2378.82431,0.03286
2376.76472,0.03290
2374.70513,0.03297
2372.64555,0.03285
2370.58596,0.03288
2368.52637,0.03310
2366.46678,0.03323
2364.40719,0.03335
2362.34761,0.03323
2360.28802,0.03293
2358.22843,0.03270
2356.16884,0.03241
2354.10925,0.03243
2352.04967,0.03277
2349.99008,0.03286
2347.93049,0.03278
2345.87090,0.03275
2343.81131,0.03250
2341.75172,0.03216
2339.69214,0.03235
2337.63255,0.03250
2335.57296,0.03197
2333.51337,0.03163
2331.45378,0.03174
2329.39420,0.03171
2327.33461,0.03164
2325.27502,0.03184
2323.21543,0.03237
2321.15584,0.03262
2319.09625,0.03185
2317.03667,0.03107
2314.97708,0.03117
2312.91749,0.03128
2310.85790,0.03113
2308.79831,0.03127
2306.73873,0.03166
2304.67914,0.03185
2302.61955,0.03169
2300.55996,0.03137
2298.50037,0.03106
2296.44079,0.03080
2294.38120,0.03052
2292.32161,0.03008
2290.26202,0.02975
2288.20243,0.03009
2286.14284,0.03065
2284.08326,0.03058
2282.02367,0.03009
2279.96408,0.02963
2277.90449,0.02937
2275.84490,0.02929
2273.78532,0.02912
2271.72573,0.02883
2269.66614,0.02854
2267.60655,0.02841
2265.54696,0.02881
2263.48737,0.02907
2261.42779,0.02851
2259.36820,0.02807
2257.30861,0.02812
2255.24902,0.02836
2253.18943,0.02855
2251.12985,0.02824
2249.07026,0.02771
2247.01067,0.02764
2244.95108,0.02774
2242.89149,0.02722
2240.83191,0.02655
2238.77232,0.02652
2236.71273,0.02649
2234.65314,0.02618
2232.59355,0.02645
2230.53396,0.02715
2228.47438,0.02738
2226.41479,0.02721
2224.35520,0.02686
2222.29561,0.02635
2220.23602,0.02592
2218.17644,0.02546
2216.11685,0.02480
2214.05726,0.02464
2211.99767,0.02545
2209.93808,0.02619
2207.87849,0.02616
2205.81891,0.02603
2203.75932,0.02619
2201.69973,0.02567
2199.64014,0.02457
2197.58055,0.02402
2195.52097,0.02385
2193.46138,0.02381
2191.40179,0.02410
2189.34220,0.02467
2187.28261,0.02488
2185.22303,0.02450
2183.16344,0.02425
2181.10385,0.02380
2179.04426,0.02302
2176.98467,0.02255
2174.92508,0.02238
2172.86550,0.02281
2170.80591,0.02363
2168.74632,0.02372
2166.68673,0.02333
2164.62714,0.02323
2162.56756,0.02264
2160.50797,0.02180
2158.44838,0.02191
2156.38879,0.02245
2154.32920,0.02288
2152.26961,0.02351
2150.21003,0.02412
2148.15044,0.02410
2146.09085,0.02432
2144.03126,0.02506
2141.97167,0.02462
2139.91209,0.02369
2137.85250,0.02405
2135.79291,0.02468
2133.73332,0.02449
2131.67373,0.02456
2129.61415,0.02519
2127.55456,0.02529
2125.49497,0.02484
2123.43538,0.02420
2121.37579,0.02355
2119.31620,0.02337
2117.25662,0.02381
2115.19703,0.02450
2113.13744,0.02483
2111.07785,0.02483
2109.01826,0.02495
2106.95868,0.02530
2104.89909,0.02552
2102.83950,0.02556
2100.77991,0.02568
2098.72032,0.02556
2096.66073,0.02496
2094.60115,0.02461
2092.54156,0.02489
2090.48197,0.02518
2088.42238,0.02475
2086.36279,0.02396
2084.30321,0.02397
2082.24362,0.02465
2080.18403,0.02471
2078.12444,0.02405
2076.06485,0.02362
2074.00527,0.02369
2071.94568,0.02421
2069.88609,0.02473
2067.82650,0.02418
2065.76691,0.02253
2063.70732,0.02134
2061.64774,0.02153
2059.58815,0.02190
2057.52856,0.02188
2055.46897,0.02216
2053.40938,0.02253
2051.34980,0.02243
2049.29021,0.02215
2047.23062,0.02210
2045.17103,0.02194
2043.11144,0.02123
2041.05185,0.02057
2038.99227,0.02081
2036.93268,0.02136
2034.87309,0.02112
2032.81350,0.02002
2030.75391,0.01900
2028.69433,0.01840
2026.63474,0.01792
2024.57515,0.01852
2022.51556,0.02017
2020.45597,0.02076
2018.39639,0.01968
2016.33680,0.01869
2014.27721,0.01899
2012.21762,0.01949
2010.15803,0.01892
2008.09844,0.01810
2006.03886,0.01784
2003.97927,0.01788
2001.91968,0.01856
1999.86009,0.01979
1997.80050,0.02061
1995.74092,0.02072
1993.68133,0.02055
1991.62174,0.02024
1989.56215,0.01980
1987.50256,0.01929
1985.44297,0.01884
1983.38339,0.01849
1981.32380,0.01782
1979.26421,0.01734
1977.20462,0.01811
1975.14503,0.01893
1973.08545,0.01861
1971.02586,0.01802
1968.96627,0.01790
1966.90668,0.01804
1964.84709,0.01825
1962.78751,0.01848
1960.72792,0.01886
1958.66833,0.01956
1956.60874,0.02018
1954.54915,0.02046
1952.48956,0.02027
1950.42998,0.01997
1948.37039,0.02025
1946.31080,0.02062
1944.25121,0.02022
1942.19162,0.01917
1940.13204,0.01841
1938.07245,0.01881
1936.01286,0.01995
1933.95327,0.02045
1931.89368,0.02029
1929.83409,0.02017
1927.77451,0.01999
1925.71492,0.01974
1923.65533,0.01964
1921.59574,0.01943
1919.53615,0.01909
1917.47657,0.01931
1915.41698,0.01994
1913.35739,0.02009
1911.29780,0.02010
1909.23821,0.02035
1907.17863,0.02027
1905.11904,0.01983
1903.05945,0.01967
1900.99986,0.01991
1898.94027,0.02017
1896.88068,0.02009
1894.82110,0.01971
1892.76151,0.01928
1890.70192,0.01903
1888.64233,0.01902
1886.58274,0.01902
1884.52316,0.01899
1882.46357,0.01911
1880.40398,0.01938
1878.34439,0.01952
1876.28480,0.01936
1874.22521,0.01918
1872.16563,0.01924
1870.10604,0.01934
1868.04645,0.01917
1865.98686,0.01893
1863.92727,0.01879
1861.86769,0.01858
1859.80810,0.01837
1857.74851,0.01819
1855.68892,0.01810
1853.62933,0.01835
1851.56975,0.01858
1849.51016,0.01840
1847.45057,0.01808
1845.39098,0.01784
1843.33139,0.01773
1841.27180,0.01797
1839.21222,0.01831
1837.15263,0.01841
1835.09304,0.01836
1833.03345,0.01826
1830.97386,0.01801
1828.91428,0.01761
1826.85469,0.01728
1824.79510,0.01709
1822.73551,0.01709
1820.67592,0.01717
1818.61633,0.01718
1816.55675,0.01707
1814.49716,0.01698
1812.43757,0.01686
1810.37798,0.01669
1808.31839,0.01652
1806.25881,0.01647
1804.19922,0.01651
1802.13963,0.01650
1800.08004,0.01644
1798.02045,0.01633
1795.96087,0.01616
1793.90128,0.01604
1791.84169,0.01596
1789.78210,0.01581
1787.72251,0.01565
1785.66292,0.01558
1783.60334,0.01539
1781.54375,0.01505
1779.48416,0.01486
1777.42457,0.01483
1775.36498,0.01473
1773.30540,0.01468
1771.24581,0.01476
1769.18622,0.01470
1767.12663,0.01447
1765.06704,0.01422
1763.00745,0.01413
1760.94787,0.01427
1758.88828,0.01437
1756.82869,0.01425
1754.76910,0.01407
1752.70951,0.01396
1750.64993,0.01382
1748.59034,0.01360
1746.53075,0.01349
1744.47116,0.01343
1742.41157,0.01327
1740.35199,0.01302
1738.29240,0.01283
1736.23281,0.01284
1734.17322,0.01286
1732.11363,0.01262
1730.05404,0.01231
1727.99446,0.01217
1725.93487,0.01209
1723.87528,0.01190
1721.81569,0.01173
1719.75610,0.01183
1717.69652,0.01202
1715.63693,0.01204
1713.57734,0.01216
1711.51775,0.01251
1709.45816,0.01298
1707.39857,0.01389
1705.33899,0.01571
1703.27940,0.01802
1701.21981,0.02133
1699.16022,0.02578
1697.10063,0.02877
1695.04105,0.03048
1692.98146,0.03163
1690.92187,0.03269
1688.86228,0.03414
1686.80269,0.03574
1684.74311,0.03797
1682.68352,0.04089
1680.62393,0.04320
1678.56434,0.04528
1676.50475,0.04768
1674.44516,0.05041
1672.38558,0.05287
1670.32599,0.05545
1668.26640,0.05842
1666.20681,0.06093
1664.14722,0.06334
1662.08764,0.06609
1660.02805,0.06867
1657.96846,0.07090
1655.90887,0.07289
1653.84928,0.07502
1651.78969,0.07706
1649.73011,0.07806
1647.67052,0.07890
1645.61093,0.07977
1643.55134,0.08022
1641.49175,0.08047
1639.43217,0.08075
1637.37258,0.08124
1635.31299,0.08226
1633.25340,0.08360
1631.19381,0.08488
1629.13423,0.08651
1627.07464,0.08870
1625.01505,0.09120
1622.95546,0.09388
1620.89587,0.09605
1618.83628,0.09738
1616.77670,0.09805
1614.71711,0.09747
1612.65752,0.09571
1610.59793,0.09305
1608.53834,0.08953
1606.47876,0.08552
1604.41917,0.08150
1602.35958,0.07743
1600.29999,0.07346
1598.24040,0.06991
1596.18081,0.06670
1594.12123,0.06359
1592.06164,0.06060
1590.00205,0.05770
1587.94246,0.05503
1585.88287,0.05288
1583.82329,0.05116
1581.76370,0.04971
1579.70411,0.04867
1577.64452,0.04803
1575.58493,0.04751
1573.52535,0.04724
1571.46576,0.04742
1569.40617,0.04795
1567.34658,0.04863
1565.28699,0.04961
1563.22740,0.05080
1561.16782,0.05199
1559.10823,0.05425
1557.04864,0.05715
1554.98905,0.05918
1552.92946,0.06127
1550.86988,0.06352
1548.81029,0.06563
1546.75070,0.06735
1544.69111,0.06893
1542.63152,0.07069
1540.57193,0.07283
1538.51235,0.07506
1536.45276,0.07642
1534.39317,0.07764
1532.33358,0.07922
1530.27399,0.08066
1528.21441,0.08200
1526.15482,0.08351
1524.09523,0.08499
1522.03564,0.08660
1519.97605,0.08808
1517.91647,0.08908
1515.85688,0.08996
1513.79729,0.09038
1511.73770,0.09005
1509.67811,0.08910
1507.61852,0.08735
1505.55894,0.08491
1503.49935,0.08277
1501.43976,0.08069
1499.38017,0.07833
1497.32058,0.07557
1495.26100,0.07265
1493.20141,0.07005
1491.14182,0.06741
1489.08223,0.06443
1487.02264,0.06162
1484.96305,0.05919
1482.90347,0.05705
1480.84388,0.05520
1478.78429,0.05381
1476.72470,0.05287
1474.66511,0.05223
1472.60553,0.05181
1470.54594,0.05160
1468.48635,0.05152
1466.42676,0.05148
1464.36717,0.05144
1462.30759,0.05154
1460.24800,0.05189
1458.18841,0.05260
1456.12882,0.05372
1454.06923,0.05453
1452.00964,0.05483
1449.95006,0.05483
1447.89047,0.05469
1445.83088,0.05443
1443.77129,0.05395
1441.71170,0.05325
1439.65212,0.05244
1437.59253,0.05157
1435.53294,0.05059
1433.47335,0.04973
1431.41376,0.04901
1429.35417,0.04835
1427.29459,0.04788
1425.23500,0.04768
1423.17541,0.04763
1421.11582,0.04774
1419.05623,0.04816
1416.99665,0.04875
1414.93706,0.04911
1412.87747,0.04928
1410.81788,0.04950
1408.75829,0.04980
1406.69871,0.05000
1404.63912,0.05000
1402.57953,0.04986
1400.51994,0.04965
1398.46035,0.04940
1396.40076,0.04918
1394.34118,0.04907
1392.28159,0.04907
1390.22200,0.04906
1388.16241,0.04898
1386.10282,0.04885
1384.04324,0.04869
1381.98365,0.04845
1379.92406,0.04820
1377.86447,0.04796
1375.80488,0.04768
1373.74529,0.04739
1371.68571,0.04722
1369.62612,0.04701
1367.56653,0.04660
1365.50694,0.04612
1363.44735,0.04562
1361.38777,0.04507
1359.32818,0.04458
1357.26859,0.04419
1355.20900,0.04391
1353.14941,0.04370
1351.08983,0.04355
1349.03024,0.04350
1346.97065,0.04346
1344.91106,0.04335
1342.85147,0.04322
1340.79188,0.04319
1338.73230,0.04333
1336.67271,0.04340
1334.61312,0.04322
1332.55353,0.04303
1330.49394,0.04298
1328.43436,0.04287
1326.37477,0.04268
1324.31518,0.04255
1322.25559,0.04242
1320.19600,0.04232
1318.13641,0.04230
1316.07683,0.04235
1314.01724,0.04240
1311.95765,0.04245
1309.89806,0.04243
1307.83847,0.04235
1305.77889,0.04225
1303.71930,0.04210
1301.65971,0.04188
1299.60012,0.04173
1297.54053,0.04161
1295.48095,0.04140
1293.42136,0.04119
1291.36177,0.04099
1289.30218,0.04084
1287.24259,0.04083
1285.18300,0.04082
1283.12342,0.04068
1281.06383,0.04046
1279.00424,0.04023
1276.94465,0.04006
1274.88506,0.03991
1272.82548,0.03968
1270.76589,0.03948
1268.70630,0.03945
1266.64671,0.03946
1264.58712,0.03945
1262.52753,0.03957
1260.46795,0.03990
1258.40836,0.04028
1256.34877,0.04066
1254.28918,0.04111
1252.22959,0.04161
1250.17001,0.04211
1248.11042,0.04260
1246.05083,0.04299
1243.99124,0.04327
1241.93165,0.04348
1239.87207,0.04368
1237.81248,0.04391
1235.75289,0.04412
1233.69330,0.04414
1231.63371,0.04399
1229.57412,0.04377
1227.51454,0.04355
1225.45495,0.04337
1223.39536,0.04315
1221.33577,0.04273
1219.27618,0.04222
1217.21660,0.04176
1215.15701,0.04135
1213.09742,0.04092
1211.03783,0.04038
1208.97824,0.03973
1206.91865,0.03908
1204.85907,0.03845
1202.79948,0.03782
1200.73989,0.03731
1198.68030,0.03680
1196.62071,0.03620
1194.56113,0.03573
1192.50154,0.03543
1190.44195,0.03506
1188.38236,0.03464
1186.32277,0.03428
1184.26319,0.03401
1182.20360,0.03381
1180.14401,0.03369
1178.08442,0.03368
1176.02483,0.03384
1173.96524,0.03416
1171.90566,0.03457
1169.84607,0.03497
1167.78648,0.03535
1165.72689,0.03568
1163.66730,0.03583
1161.60772,0.03580
1159.54813,0.03562
1157.48854,0.03529
1155.42895,0.03489
1153.36936,0.03442
1151.30977,0.03390
1149.25019,0.03347
1147.19060,0.03311
1145.13101,0.03270
1143.07142,0.03233
1141.01183,0.03208
1138.95225,0.03188
1136.89266,0.03173
1134.83307,0.03163
1132.77348,0.03150
1130.71389,0.03137
1128.65431,0.03123
1126.59472,0.03105
1124.53513,0.03090
1122.47554,0.03075
1120.41595,0.03055
1118.35636,0.03037
1116.29678,0.03024
1114.23719,0.03005
1112.17760,0.02984
1110.11801,0.02970
1108.05842,0.02962
1105.99884,0.02957
1103.93925,0.02956
1101.87966,0.02951
1099.82007,0.02939
1097.76048,0.02938
1095.70089,0.02946
1093.64131,0.02950
1091.58172,0.02966
1089.52213,0.03012
1087.46254,0.03070
1085.40295,0.03122
1083.34337,0.03173
1081.28378,0.03233
1079.22419,0.03311
1077.16460,0.03398
1075.10501,0.03468
1073.04543,0.03518
1070.98584,0.03568
1068.92625,0.03615
1066.86666,0.03643
1064.80707,0.03656
1062.74748,0.03663
1060.68790,0.03662
1058.62831,0.03652
1056.56872,0.03631
1054.50913,0.03604
1052.44954,0.03575
1050.38996,0.03548
1048.33037,0.03515
1046.27078,0.03471
1044.21119,0.03426
1042.15160,0.03383
1040.09201,0.03331
1038.03243,0.03279
1035.97284,0.03241
1033.91325,0.03205
1031.85366,0.03164
1029.79407,0.03125
1027.73449,0.03082
1025.67490,0.03024
1023.61531,0.02958
1021.55572,0.02895
1019.49613,0.02842
1017.43655,0.02804
1015.37696,0.02768
1013.31737,0.02724
1011.25778,0.02680
1009.19819,0.02639
1007.13860,0.02605
1005.07902,0.02577
1003.01943,0.02548
1000.95984,0.02516
998.90025,0.02489
996.84066,0.02464
994.78108,0.02444
992.72149,0.02425
990.66190,0.02398
988.60231,0.02369
986.54272,0.02348
984.48313,0.02335
982.42355,0.02331
980.36396,0.02330
978.30437,0.02321
976.24478,0.02307
974.18519,0.02307
972.12561,0.02316
970.06602,0.02322
968.00643,0.02325
965.94684,0.02334
963.88725,0.02343
961.82767,0.02344
959.76808,0.02334
957.70849,0.02311
955.64890,0.02294
953.58931,0.02288
951.52972,0.02279
949.47014,0.02266
947.41055,0.02257
945.35096,0.02248
943.29137,0.02238
941.23178,0.02225
939.17220,0.02213
937.11261,0.02211
935.05302,0.02216
932.99343,0.02215
930.93384,0.02204
928.87425,0.02185
926.81467,0.02163
924.75508,0.02147
922.69549,0.02141
920.63590,0.02137
918.57631,0.02121
916.51673,0.02094
914.45714,0.02071
912.39755,0.02064
910.33796,0.02065
908.27837,0.02064
906.21879,0.02065
904.15920,0.02059
902.09961,0.02040
900.04002,0.02022
897.98043,0.02012
895.92084,0.02006
893.86126,0.01999
891.80167,0.01986
889.74208,0.01967
887.68249,0.01950
885.62290,0.01933
883.56332,0.01922
881.50373,0.01922
879.44414,0.01922
877.38455,0.01904
875.32496,0.01878
873.26537,0.01864
871.20579,0.01857
869.14620,0.01849
867.08661,0.01840
865.02702,0.01821
862.96743,0.01791
860.90785,0.01772
858.84826,0.01771
856.78867,0.01773
854.72908,0.01776
852.66949,0.01776
850.60991,0.01757
848.55032,0.01738
846.49073,0.01733
844.43114,0.01727
842.37155,0.01717
840.31196,0.01717
838.25238,0.01730
836.19279,0.01741
834.13320,0.01742
832.07361,0.01753
830.01402,0.01775
827.95444,0.01793
825.89485,0.01798
823.83526,0.01790
821.77567,0.01781
819.71608,0.01778
817.65649,0.01770
815.59691,0.01767
813.53732,0.01782
811.47773,0.01806
809.41814,0.01828
807.35855,0.01835
805.29897,0.01822
803.23938,0.01806
801.17979,0.01800
799.12020,0.01805
797.06061,0.01812
795.00103,0.01816
792.94144,0.01823
790.88185,0.01843
788.82226,0.01872
786.76267,0.01899
784.70308,0.01914
782.64350,0.01925
780.58391,0.01935
778.52432,0.01946
776.46473,0.01970
774.40514,0.02002
772.34556,0.02027
770.28597,0.02041
768.22638,0.02040
766.16679,0.02029
764.10720,0.02022
762.04761,0.02020
759.98803,0.02033
757.92844,0.02054
755.86885,0.02067
753.80926,0.02070
751.74967,0.02077
749.69009,0.02095
747.63050,0.02111
745.57091,0.02117
743.51132,0.02127
741.45173,0.02138
739.39215,0.02139
737.33256,0.02133
735.27297,0.02128
733.21338,0.02128
731.15379,0.02144
729.09420,0.02177
727.03462,0.02215
724.97503,0.02259
722.91544,0.02305
720.85585,0.02352
718.79626,0.02406
716.73668,0.02453
714.67709,0.02492
712.61750,0.02544
710.55791,0.02618
708.49832,0.02700
706.43873,0.02773
704.37915,0.02840
702.31956,0.02903
700.25997,0.02945
698.20038,0.02949
696.14079,0.02928
694.08121,0.02911
692.02162,0.02902
689.96203,0.02894
687.90244,0.02899
685.84285,0.02913
683.78327,0.02920
681.72368,0.02918
679.66409,0.02913
677.60450,0.02915
675.54491,0.02929
673.48532,0.02934
671.42574,0.02921
669.36615,0.02926
667.30656,0.02956
665.24697,0.02971
663.18738,0.02979
661.12780,0.02986
659.06821,0.02991
657.00862,0.03003
654.94903,0.03013
652.88944,0.03014
650.82985,0.03000
648.77027,0.02988
646.71068,0.03015
644.65109,0.03052
642.59150,0.03056
640.53191,0.03055
638.47233,0.03065
636.41274,0.03062
634.35315,0.03063
632.29356,0.03078
630.23397,0.03095
628.17439,0.03112
626.11480,0.03126
624.05521,0.03132
621.99562,0.03123
619.93603,0.03100
617.87644,0.03075
615.81686,0.03066
613.75727,0.03072
611.69768,0.03064
609.63809,0.03033
607.57850,0.03011
605.51892,0.02997
603.45933,0.02978
601.39974,0.02968
599.34015,0.02961
597.28056,0.02956
595.22097,0.02967
593.16139,0.02984
591.10180,0.02983
589.04221,0.02972
586.98262,0.02967
584.92303,0.02965
582.86345,0.02959
580.80386,0.02962
578.74427,0.02955
576.68468,0.02943
574.62509,0.02962
572.56551,0.02979
570.50592,0.02959
568.44633,0.02933
566.38674,0.02930
564.32715,0.02939
562.26756,0.02929
560.20798,0.02892
558.14839,0.02866
556.08880,0.02879
554.02921,0.02917
551.96962,0.02940
549.91004,0.02930
547.85045,0.02903
545.79086,0.02875
543.73127,0.02858
541.67168,0.02871
539.61209,0.02895
537.55251,0.02881
535.49292,0.02849
533.43333,0.02852
531.37374,0.02869
529.31415,0.02871
527.25457,0.02872
525.19498,0.02871
523.13539,0.02850
521.07580,0.02817
519.01621,0.02785
516.95663,0.02759
514.89704,0.02739
512.83745,0.02730
510.77786,0.02737
508.71827,0.02744
506.65868,0.02733
504.59910,0.02705
502.53951,0.02686
500.47992,0.02684
498.42033,0.02681
496.36074,0.02665
494.30116,0.02632
492.24157,0.02595
490.18198,0.02578
488.12239,0.02574
486.06280,0.02558
484.00321,0.02530
481.94363,0.02521
479.88404,0.02541
477.82445,0.02540
475.76486,0.02500
473.70527,0.02452
471.64569,0.02436
469.58610,0.02465
467.52651,0.02489
465.46692,0.02480
463.40733,0.02464
461.34775,0.02457
459.28816,0.02449
457.22857,0.02454
455.16898,0.02460
453.10939,0.02428
451.04980,0.02371
448.99022,0.02325
446.93063,0.02292
444.87104,0.02276
442.81145,0.02286
440.75186,0.02286
438.69228,0.02249
436.63269,0.02213
434.57310,0.02200
432.51351,0.02186
430.45392,0.02138
428.39433,0.02076
426.33475,0.02054
424.27516,0.02085
422.21557,0.02133
420.15598,0.02127
418.09639,0.02038
416.03681,0.01993
413.97722,0.01994
411.91763,0.01935
409.85804,0.01861
407.79845,0.01857
405.73887,0.01880
403.67928,0.01896
401.61969,0.01898
399.56010,0.01851
